Data from N_3_DIV_OH_2N_Splice17_12-50-11-354.txt Node
Date: Sat Mar 14 12:50:11 EDT 2020
User: sa697716
Spectrometer: FLMS03696
Trigger mode: 0
Integration Time (sec): 3.180400E-1
Scans to average: 20
Electric dark correction enabled: true
Nonlinearity correction enabled: true
Boxcar width: 5
XAxis mode: Wavelengths
Number of Pixels in Spectrum: 2048
>>>>>Begin Spectral Data<<<<<
187.83	-313018.61
188.298	2289.89
188.766	1255.68
189.233	1142.45
189.701	1624.26
190.169	2235.45
190.636	865.69
191.104	714.03
191.571	156.73
192.039	-11.09
192.506	21.99
192.974	624.41
193.441	-1012.72
193.908	-287.11
194.375	-61.03
194.842	49.55
195.31	137.02
195.777	184.98
196.244	413.55
196.711	527.46
197.177	681.06
197.644	948.32
198.111	1606.31
198.578	2265.75
199.045	1812.61
199.511	2964.2
199.978	3431.6
200.445	2908.26
200.911	3212.59
201.378	3589.05
201.844	3238.3
202.31	5512.8
202.777	5737.33
203.243	3190.09
203.709	3016.54
204.176	3589.39
204.642	2965.01
205.108	2769.17
205.574	2269.47
206.04	2091.26
206.506	1967.45
206.972	1864.14
207.438	1804.65
207.903	2059.44
208.369	1802.76
208.835	1812.48
209.301	1889.23
209.766	1919.85
210.232	1906.97
210.697	2353.34
211.163	2877.49
211.628	4314.44
212.094	3644.32
212.559	4462.16
213.024	2763.36
213.49	3373.53
213.955	3272.71
214.42	3196.66
214.885	2975.12
215.35	2836.2
215.815	2732.61
216.28	2899.68
216.745	2351.38
217.21	2516.51
217.675	2297.81
218.14	2582.48
218.604	2883.75
219.069	3276.96
219.534	3433.36
219.998	3983.95
220.463	4814.96
220.927	5908.48
221.392	5541.88
221.856	5618.67
222.32	7082.3
222.785	8753.04
223.249	10991
223.713	12217.39
224.177	12196.04
224.642	15640.72
225.106	19242.07
225.57	21021.46
226.034	15630.52
226.497	23799.31
226.961	21504.15
227.425	25050.39
227.889	27697.57
228.353	27714.18
228.816	57284.89
229.28	54875.21
229.744	46158.59
230.207	28011.78
230.671	27505.16
231.134	45388.6
231.597	52339.17
232.061	52283.31
232.524	50939.57
232.987	35119.64
233.45	31581.21
233.914	28317.84
234.377	28985.05
234.84	26542.59
235.303	31311.18
235.766	34968.81
236.229	36134.99
236.691	22716.45
237.154	25484.37
237.617	19169.23
238.08	19623.36
238.542	22962.46
239.005	16412.94
239.468	16282.83
239.93	15340.89
240.393	13936.94
240.855	12233.88
241.317	12524.91
241.78	15246.51
242.242	15762.06
242.704	17012.79
243.166	14813.31
243.629	13451.41
244.091	15479.34
244.553	16942.54
245.015	18216.23
245.477	23564.96
245.939	34501.51
246.4	36636.97
246.862	35581.24
247.324	33517.66
247.786	37423.18
248.247	48957.35
248.709	50448.16
249.17	37740.94
249.632	35566.88
250.093	41193.69
250.555	35544.85
251.016	21692.82
251.477	20541.05
251.939	22138.63
252.4	23214.4
252.861	27595.52
253.322	25664.35
253.783	30516.57
254.244	39497.57
254.705	31083.5
255.166	27630.01
255.627	27179.77
256.088	38291.86
256.549	40670.63
257.009	35030.67
257.47	42463.55
257.931	34578.06
258.391	25884.7
258.852	26682.15
259.312	27960.24
259.773	34542.84
260.233	29161.95
260.694	24560.08
261.154	27831.58
261.614	22318.81
262.074	19928.26
262.534	20706.82
262.994	19491.13
263.455	25922.27
263.915	21799.48
264.374	20516.6
264.834	22370.87
265.294	24755.35
265.754	25626.1
266.214	24241.09
266.673	22676.1
267.133	28587.87
267.593	28330.47
268.052	34644.42
268.512	30128.24
268.971	36369.43
269.431	39855.07
269.89	35687.28
270.349	53498.98
270.809	59636.2
271.268	53539.02
271.727	119965.86
272.186	77707.45
272.645	58236.13
273.104	41974.56
273.563	60779.49
274.022	47726.42
274.481	40594.33
274.94	31242.52
275.399	23211.51
275.857	27005.21
276.316	36534.15
276.775	32538.15
277.233	32021.41
277.692	29976.4
278.15	33932.65
278.609	34901.45
279.067	32289.72
279.525	29995.76
279.984	38767.52
280.442	46522.54
280.9	45929.06
281.358	30219.74
281.816	28164.44
282.274	27631.08
282.732	28555.47
283.19	28668.04
283.648	24718.7
284.106	26339.3
284.564	26771.9
285.021	24820.71
285.479	18511.96
285.937	16787.12
286.394	14728.54
286.852	15159.95
287.309	15903.15
287.767	15350.78
288.224	14596.24
288.682	16036.63
289.139	17598.85
289.596	16106.36
290.053	16720.53
290.511	21093.25
290.968	25589.33
291.425	34671.28
291.882	28837.2
292.339	25075.27
292.796	24863.31
293.252	23443.26
293.709	18627.39
294.166	16672.47
294.623	18419.08
295.079	17663.64
295.536	17724.74
295.992	16080.9
296.449	15893.5
296.905	16492.79
297.362	15800.41
297.818	16614.48
298.274	17230.82
298.731	17536.1
299.187	17364.69
299.643	18618.68
300.099	22515.01
300.555	24725.25
301.011	20694.96
301.467	19974.8
301.923	23375.11
302.379	22841.67
302.835	22451.53
303.291	22468.92
303.746	25570.65
304.202	32288.5
304.658	32447.78
305.113	21823.04
305.569	21371.99
306.024	22741.94
306.479	21619.54
306.935	18226.33
307.39	19924.95
307.845	18394.49
308.301	18524.6
308.756	18038.51
309.211	17376.87
309.666	17803.17
310.121	22139.88
310.576	22502.19
311.031	22373.71
311.486	25642.96
311.94	25637.46
312.395	34305.81
312.85	64462.48
313.305	316684.05
313.759	1643646.1
314.214	119228.36
314.668	94565.92
315.123	79431.14
315.577	28486.06
316.032	25326.82
316.486	31740.28
316.94	25066.74
317.394	17434.92
317.849	13547.18
318.303	12815.91
318.757	12068.89
319.211	13345.74
319.665	11671.79
320.119	11821.27
320.572	16927.97
321.026	15832.86
321.48	13180.78
321.934	14366.67
322.387	14393.08
322.841	15567.49
323.295	14004.76
323.748	16121.51
324.202	16360.57
324.655	19669.65
325.108	27533.02
325.562	19445.74
326.015	23100.95
326.468	17477.85
326.921	19547.16
327.374	18245.14
327.827	19013.75
328.28	21538.93
328.733	14451.04
329.186	12705.59
329.639	12115.62
330.092	10205.68
330.545	9737.37
330.997	9811.49
331.45	10719.66
331.903	12586.24
332.355	21628.67
332.808	20994.55
333.26	17298.29
333.713	18833.2
334.165	19001.05
334.617	25391.1
335.069	20505.73
335.522	37075.6
335.974	41157.53
336.426	37653.5
336.878	26081.77
337.33	13264.91
337.782	12973.92
338.234	16293.04
338.686	19474.66
339.137	23066.46
339.589	21723.55
340.041	17060.78
340.493	14659.6
340.944	15007.73
341.396	16167.71
341.847	13603.88
342.299	16072.37
342.75	19624.36
343.201	17145.8
343.653	19691.63
344.104	24175.92
344.555	18996.93
345.006	29518.29
345.457	22622.71
345.908	17963.01
346.359	16888.46
346.81	13742.09
347.261	14437.76
347.712	14197.72
348.163	15219.17
348.613	15432.32
349.064	14418.27
349.515	12631.34
349.965	12958.17
350.416	15600.89
350.866	17123.41
351.317	19354.4
351.767	32004.54
352.217	40477.55
352.668	33560.71
353.118	30705.07
353.568	29567.65
354.018	23399.87
354.468	24690.6
354.918	17735.23
355.368	15512.07
355.818	21935.25
356.268	63140.85
356.718	264693.28
357.168	65981
357.617	33138.46
358.067	36818.92
358.517	34482.72
358.966	40486.61
359.416	45447.09
359.865	48945.45
360.315	58332.64
360.764	27212.61
361.213	15254.13
361.663	14433.37
362.112	17796.81
362.561	28763.15
363.01	21701.52
363.459	18277.18
363.908	19754.66
364.357	16769.69
364.806	28286.76
365.255	19435.36
365.703	17814.12
366.152	17824.91
366.601	14482.18
367.05	11775.02
367.498	10702.59
367.947	11184.97
368.395	11618.33
368.844	10282.29
369.292	12381.21
369.74	8589.42
370.189	13162.3
370.637	15405.84
371.085	13316.75
371.533	16189.2
371.981	15574.05
372.429	14859.46
372.877	15507.14
373.325	13010.3
373.773	13254.24
374.221	11803.45
374.669	14617.98
375.116	12651.39
375.564	12763.33
376.012	14226.86
376.459	11741.15
376.907	14025.81
377.354	16961.78
377.801	15844.54
378.249	18247.63
378.696	23349.86
379.143	28292.06
379.591	30222.91
380.038	51105.3
380.485	37003.22
380.932	40060.32
381.379	36732.77
381.826	27099.39
382.273	19261.75
382.72	16828.38
383.166	16386.46
383.613	10630.55
384.06	9605.46
384.506	11130.28
384.953	8191.2
385.4	8254.03
385.846	7234.96
386.292	7051.1
386.739	6908.43
387.185	6849.74
387.631	6871.02
388.078	6697.58
388.524	7185.84
388.97	6638.61
389.416	5546.49
389.862	5901.02
390.308	5599.04
390.754	5695.17
391.2	6202.18
391.645	6365.4
392.091	6115.77
392.537	5920.77
392.983	5927.25
393.428	5845.52
393.874	6286.5
394.319	6325.33
394.765	6006.58
395.21	6190.32
395.655	5818.31
396.101	5449.73
396.546	4927.08
396.991	4967.15
397.436	4612.05
397.881	4460.13
398.326	4218.18
398.771	3992.94
399.216	3485.33
399.661	3140
400.106	3125.93
400.551	3202.02
400.995	2874.09
401.44	2837.94
401.885	2658.96
402.329	2680.93
402.774	2562.8
403.218	2486.69
403.663	2393.17
404.107	2462.38
404.551	2478.99
404.995	2270.5
405.44	2179.47
405.884	2207.64
406.328	2128.37
406.772	2116.94
407.216	1927.7
407.66	1861.2
408.104	1756.39
408.547	1638.34
408.991	1578.67
409.435	1515.59
409.879	1487.83
410.322	1465.51
410.766	1413.29
411.209	1342.74
411.653	1287.01
412.096	1261.38
412.54	1257.59
412.983	1250.79
413.426	1253.79
413.869	1252.29
414.312	1228.78
414.756	1186.68
415.199	1131.62
415.642	1097.96
416.085	1100.06
416.527	1091.85
416.97	1104.54
417.413	1048.46
417.856	1032.57
418.298	1021.01
418.741	1010.17
419.184	1004.8
419.626	1041.04
420.069	1041.14
420.511	1042.81
420.953	1017.91
421.396	1008.18
421.838	979.7
422.28	1001.35
422.722	1009.15
423.164	1020.52
423.606	1002.32
424.048	999.41
424.49	949.67
424.932	942.29
425.374	927.85
425.816	943.17
426.258	958.63
426.699	970.22
427.141	959.78
427.582	970.2
428.024	963.73
428.465	958.44
428.907	934.92
429.348	926.81
429.789	928.78
430.231	913.16
430.672	925.96
431.113	905.17
431.554	892.47
431.995	865.71
432.436	837.01
432.877	819.94
433.318	809.65
433.759	805.76
434.2	804.09
434.64	795.55
435.081	795.66
435.522	755.42
435.962	727.9
436.403	712.63
436.843	723.82
437.284	707.06
437.724	687.46
438.164	684.9
438.604	668.45
439.045	644.44
439.485	618.62
439.925	605.52
440.365	588.68
440.805	580.71
441.245	573.72
441.685	554.57
442.125	552.41
442.564	556.96
443.004	546.26
443.444	547.21
443.883	547.44
444.323	543
444.762	543.02
445.202	551.23
445.641	564.23
446.081	562.15
446.52	566.15
446.959	563.2
447.398	551.48
447.837	546.85
448.276	537.45
448.716	545.38
449.154	551.32
449.593	542.12
450.032	542.18
450.471	530.91
450.91	532.15
451.349	534.36
451.787	531.6
452.226	539.21
452.664	539.47
453.103	541.95
453.541	540.26
453.98	541.78
454.418	546.22
454.856	540.38
455.295	541.36
455.733	545.15
456.171	546.28
456.609	545.49
457.047	545.48
457.485	554.19
457.923	555.34
458.361	548.97
458.798	549.62
459.236	548.03
459.674	550.43
460.111	553.59
460.549	549.93
460.987	548.42
461.424	547.23
461.862	544.77
462.299	536
462.736	536.48
463.173	537.63
463.611	533.83
464.048	532.38
464.485	535.48
464.922	529
465.359	524.56
465.796	523.06
466.233	520.98
466.67	517.41
467.106	517.48
467.543	510.56
467.98	503.87
468.416	488.36
468.853	484.64
469.29	469.96
469.726	464.23
470.162	452.32
470.599	440.72
471.035	435.62
471.471	424.21
471.907	420.69
472.344	419.61
472.78	421.43
473.216	427.09
473.652	422.08
474.088	421.56
474.523	421.75
474.959	425.69
475.395	422.47
475.831	419.63
476.266	422.03
476.702	420.96
477.138	415.52
477.573	414.08
478.008	412.46
478.444	414.18
478.879	419.28
479.314	421.76
479.75	421.64
480.185	424.42
480.62	428.98
481.055	431.38
481.49	435.57
481.925	441.92
482.36	450.51
482.795	463.56
483.229	475.93
483.664	485.39
484.099	486.49
484.534	495.08
484.968	500.7
485.403	502.95
485.837	503.23
486.271	501.9
486.706	503.54
487.14	497.63
487.574	490.35
488.009	487.65
488.443	484.44
488.877	491.19
489.311	493.66
489.745	500.11
490.179	506.01
490.613	517.23
491.046	523.88
491.48	529.6
491.914	533.09
492.348	539.31
492.781	544.42
493.215	547.95
493.648	551.23
494.082	558.85
494.515	562.35
494.948	571.61
495.382	578.35
495.815	584.46
496.248	592.29
496.681	606.39
497.114	619.48
497.547	631.82
497.98	647.02
498.413	656.23
498.846	668.34
499.279	680.85
499.711	689.02
500.144	696.38
500.577	711.41
501.009	726.16
501.442	739.93
501.874	746.62
502.306	754.28
502.739	768.2
503.171	787.96
503.603	796.65
504.036	810.64
504.468	822.89
504.9	839.35
505.332	852.08
505.764	862.43
506.196	875.67
506.627	896.55
507.059	915.43
507.491	929.55
507.923	933.95
508.354	954.66
508.786	971.15
509.217	995.17
509.649	1016.15
510.08	1040.75
510.512	1064.03
510.943	1085.85
511.374	1103.24
511.805	1130.06
512.237	1155.19
512.668	1195.18
513.099	1230.04
513.53	1264.75
513.961	1291.92
514.391	1331.73
514.822	1372.88
515.253	1416.01
515.684	1448.1
516.114	1485.29
516.545	1513.42
516.975	1546.87
517.406	1570.26
517.836	1577.37
518.267	1589.2
518.697	1612.34
519.127	1620.63
519.558	1632.13
519.988	1639.52
520.418	1653.61
520.848	1675.45
521.278	1688.23
521.708	1698.04
522.138	1713.36
522.567	1749.89
522.997	1779.98
523.427	1799.61
523.857	1821.19
524.286	1835.06
524.716	1854.24
525.145	1876.92
525.575	1890.67
526.004	1909.26
526.433	1916
526.863	1918.39
527.292	1908.72
527.721	1916.27
528.15	1923.87
528.579	1924.45
529.008	1937.59
529.437	1965.11
529.866	1982.02
530.295	2003.53
530.724	2017.16
531.152	2048.15
531.581	2066.03
532.01	2086.57
532.438	2096.95
532.867	2113.83
533.295	2136.96
533.723	2143.15
534.152	2140.54
534.58	2140.87
535.008	2121.59
535.436	2123.91
535.865	2134.75
536.293	2151.7
536.721	2169.5
537.149	2198.56
537.576	2201.19
538.004	2214.61
538.432	2223.95
538.86	2222.7
539.287	2230.26
539.715	2246.75
540.143	2249.89
540.57	2243.89
540.998	2239.88
541.425	2214.5
541.852	2189.89
542.28	2188.91
542.707	2169.94
543.134	2153.54
543.561	2147.01
543.988	2138.71
544.415	2138.2
544.842	2132.01
545.269	2124.34
545.696	2126.06
546.123	2139.92
546.549	2128.53
546.976	2113.02
547.403	2112.18
547.829	2115.4
548.256	2118.71
548.682	2113.91
549.108	2104.39
549.535	2103.75
549.961	2105.6
550.387	2090.13
550.813	2083.47
551.24	2089.73
551.666	2091.15
552.092	2081.24
552.518	2072.76
552.943	2066.46
553.369	2076.15
553.795	2083.5
554.221	2084.66
554.646	2079.94
555.072	2091.24
555.498	2097.58
555.923	2107.55
556.349	2125.5
556.774	2134.88
557.199	2137.93
557.625	2144.65
558.05	2137.13
558.475	2149.14
558.9	2148.98
559.325	2140.28
559.75	2133.11
560.175	2125.71
560.6	2118.82
561.025	2116.23
561.449	2117.18
561.874	2122.09
562.299	2125.69
562.723	2134.37
563.148	2121.78
563.572	2124.08
563.997	2135.36
564.421	2141.14
564.846	2140.14
565.27	2144.66
565.694	2139.71
566.118	2151.64
566.542	2159.98
566.966	2152.16
567.39	2144.96
567.814	2131.84
568.238	2130.55
568.662	2135.85
569.086	2138.12
569.509	2146.4
569.933	2128.13
570.357	2119.43
570.78	2095.3
571.204	2080.33
571.627	2066.35
572.05	2063.32
572.474	2061.65
572.897	2046.07
573.32	2036.26
573.743	2024.49
574.166	2002.19
574.589	2000.21
575.012	1991
575.435	1988.55
575.858	1976.44
576.281	1963.98
576.704	1944.62
577.126	1930.16
577.549	1916.96
577.972	1904.24
578.394	1891.24
578.817	1882.46
579.239	1860.38
579.661	1844.9
580.084	1826.26
580.506	1810.12
580.928	1804.26
581.35	1791.68
581.772	1785.91
582.194	1770.37
582.616	1755.15
583.038	1738.13
583.46	1726.23
583.882	1722.74
584.303	1726.18
584.725	1719.83
585.147	1721.71
585.568	1733.44
585.99	1746.06
586.411	1752.56
586.833	1769.37
587.254	1771.5
587.675	1786.74
588.096	1800.04
588.518	1792.04
588.939	1772.7
589.36	1769.85
589.781	1756.67
590.202	1723.94
590.623	1713.13
591.043	1708.74
591.464	1693.18
591.885	1688.38
592.305	1682.2
592.726	1666.36
593.147	1668.4
593.567	1661.1
593.987	1652.54
594.408	1646.29
594.828	1644.49
595.248	1638.3
595.669	1618.1
596.089	1610.87
596.509	1602.38
596.929	1586.15
597.349	1585.75
597.769	1575.02
598.189	1567.83
598.608	1568.57
599.028	1570.4
599.448	1568.89
599.867	1554.73
600.287	1550.2
600.706	1544.97
601.126	1533.08
601.545	1532.36
601.965	1530.8
602.384	1523.69
602.803	1526.48
603.222	1520.52
603.641	1512.43
604.061	1508.47
604.48	1503.04
604.898	1511.58
605.317	1516.31
605.736	1518.38
606.155	1513.48
606.574	1502.15
606.992	1507.41
607.411	1501.26
607.829	1491.06
608.248	1487.09
608.666	1483.45
609.085	1481.6
609.503	1471.62
609.921	1463.16
610.339	1465.14
610.758	1464.3
611.176	1459.55
611.594	1448.26
612.012	1443.35
612.43	1446.81
612.847	1451.94
613.265	1452.04
613.683	1455.76
614.101	1455.37
614.518	1450.38
614.936	1437.68
615.353	1421.07
615.771	1415.16
616.188	1413.7
616.606	1408.46
617.023	1399.13
617.44	1382.23
617.857	1373.02
618.274	1362.39
618.691	1354.08
619.108	1342.81
619.525	1335.56
619.942	1340.31
620.359	1342.85
620.776	1336.4
621.192	1331.05
621.609	1327.56
622.026	1334.49
622.442	1339.96
622.859	1342
623.275	1334.37
623.691	1339.43
624.108	1351.17
624.524	1364.79
624.94	1363
625.356	1372.35
625.772	1386.94
626.188	1399.27
626.604	1399.66
627.02	1395.13
627.436	1393.55
627.852	1399.35
628.268	1411.85
628.683	1401.37
629.099	1392.32
629.514	1386.64
629.93	1390.47
630.345	1393.92
630.761	1389.66
631.176	1392.88
631.591	1384.77
632.007	1377.18
632.422	1375.05
632.837	1361.63
633.252	1357.17
633.667	1344.83
634.082	1334.94
634.497	1319.78
634.911	1297.64
635.326	1291.18
635.741	1270.94
636.155	1258.7
636.57	1257.66
636.984	1254.1
637.399	1253.44
637.813	1250.62
638.228	1246.83
638.642	1248.17
639.056	1234.72
639.47	1232.67
639.884	1220.55
640.298	1212.46
640.712	1208.26
641.126	1192.11
641.54	1179.35
641.954	1170.49
642.368	1154.13
642.781	1145.12
643.195	1123.88
643.609	1120.67
644.022	1109.9
644.436	1102.86
644.849	1086.41
645.262	1071.16
645.676	1069.36
646.089	1062.25
646.502	1045.05
646.915	1036.87
647.328	1015.28
647.741	1009.26
648.154	994.27
648.567	989.69
648.98	974.31
649.393	971.84
649.805	966.85
650.218	957.86
650.631	941.05
651.043	932.93
651.456	926.89
651.868	925.48
652.28	940.34
652.693	950.82
653.105	953.7
653.517	959.97
653.929	958.81
654.341	960.88
654.753	947.14
655.165	949.8
655.577	945.17
655.989	937.8
656.401	928.07
656.813	892.8
657.224	872.23
657.636	842.97
658.047	824.53
658.459	803.91
658.87	793.35
659.282	778.48
659.693	757.42
660.104	740.1
660.515	723.66
660.926	718.14
661.338	711.07
661.749	700.64
662.159	689.61
662.57	680.48
662.981	671.95
663.392	660.04
663.803	660.19
664.213	653.43
664.624	645.63
665.035	643.06
665.445	627.09
665.855	618.42
666.266	608.08
666.676	601.7
667.086	591.84
667.497	588.78
667.907	581.73
668.317	571.4
668.727	568.14
669.137	566.41
669.547	563.82
669.956	564.01
670.366	563.34
670.776	563.9
671.186	565.29
671.595	567.51
672.005	569
672.414	568.78
672.824	567.39
673.233	567.96
673.642	569.1
674.052	571.78
674.461	573.97
674.87	576.95
675.279	576.29
675.688	578.13
676.097	579.47
676.506	577.58
676.915	587.81
677.323	590.5
677.732	590.39
678.141	591.46
678.549	584.15
678.958	584.89
679.366	586.06
679.775	590.51
680.183	602.66
680.592	609.46
681	617.04
681.408	615.45
681.816	625.56
682.224	637.18
682.632	650.87
683.04	679.68
683.448	705.02
683.856	736.73
684.264	772.65
684.671	805.78
685.079	847.26
685.487	893.74
685.894	957.76
686.302	1011.69
686.709	1060.47
687.116	1116.5
687.524	1164.57
687.931	1209.38
688.338	1251.25
688.745	1287.62
689.152	1329.26
689.559	1380.72
689.966	1432.52
690.373	1463.64
690.78	1514.28
691.187	1585.44
691.593	1642.23
692	1694.28
692.407	1765.84
692.813	1850
693.22	1922.05
693.626	1994.08
694.032	2054.7
694.439	2141.61
694.845	2210.55
695.251	2295.87
695.657	2372.89
696.063	2483.37
696.469	2570.39
696.875	2651.43
697.281	2701.5
697.687	2758.32
698.093	2805.36
698.498	2891.9
698.904	2959.57
699.31	3060.47
699.715	3134.47
700.12	3240.99
700.526	3266.27
700.931	3343.55
701.337	3405.56
701.742	3445.14
702.147	3542.94
702.552	3581.35
702.957	3653
703.362	3681.36
703.767	3718.17
704.172	3767.28
704.577	3717.71
704.981	3774.57
705.386	3797.96
705.791	3791.77
706.195	3878.08
706.6	3890.21
707.004	3984.09
707.408	3951.8
707.813	3984.47
708.217	3971.84
708.621	3974.17
709.025	4084.43
709.43	4086.62
709.834	4156.71
710.237	4236
710.641	4220.05
711.045	4247.31
711.449	4244.75
711.853	4278.66
712.256	4327.7
712.66	4372.15
713.064	4459.42
713.467	4508.08
713.87	4638.46
714.274	4692.34
714.677	4819.39
715.08	5005.33
715.484	5195.3
715.887	5424.92
716.29	5652.94
716.693	5889.4
717.096	6163.47
717.499	6312.28
717.901	6341.67
718.304	6372.3
718.707	6396.77
719.109	6279.93
719.512	6244.46
719.915	6091.26
720.317	6023.55
720.719	6072.45
721.122	6040.61
721.524	5982.92
721.926	5936.66
722.328	6051.73
722.731	6041.54
723.133	6074.52
723.535	6296.43
723.937	6319.62
724.338	6379.56
724.74	6429.62
725.142	6348.72
725.544	6345.07
725.945	6375.48
726.347	6373.66
726.748	6364.82
727.15	6379.44
727.551	6339.49
727.952	6305
728.354	6274.27
728.755	6273.12
729.156	6223.96
729.557	6216.22
729.958	6077.36
730.359	6016.7
730.76	5993.99
731.161	5925.76
731.562	5897.5
731.962	5899.49
732.363	5828.13
732.763	5752.63
733.164	5794.61
733.564	5718.55
733.965	5612.9
734.365	5571.09
734.766	5600.61
735.166	5553.85
735.566	5492.27
735.966	5461.45
736.366	5455.98
736.766	5382.73
737.166	5417.64
737.566	5371.06
737.966	5340.12
738.365	5381.41
738.765	5375.53
739.165	5290.92
739.564	5264.24
739.964	5313.15
740.363	5262.15
740.763	5257.3
741.162	5244.76
741.561	5210.31
741.96	5155.68
742.36	5178.03
742.759	5184.08
743.158	5228.72
743.557	5243.45
743.955	5287.82
744.354	5237
744.753	5299.67
745.152	5253.93
745.55	5317.15
745.949	5307.51
746.348	5310.32
746.746	5328.95
747.144	5284.35
747.543	5259.9
747.941	5314.38
748.339	5235
748.737	5225.94
749.136	5215.89
749.534	5289.77
749.932	5257.03
750.33	5285.41
750.727	5347.02
751.125	5320.49
751.523	5304.26
751.921	5351.74
752.318	5313.73
752.716	5380.58
753.113	5396.79
753.511	5426.05
753.908	5427.63
754.305	5408.33
754.703	5475.61
755.1	5546.58
755.497	5613.04
755.894	5826.02
756.291	6025.77
756.688	6396.75
757.085	6886.31
757.482	7582.2
757.878	8340.1
758.275	9021.86
758.672	9965.05
759.068	10736.75
759.465	11832.89
759.861	13244.56
760.258	14881.94
760.654	15733.18
761.05	15610.28
761.447	14898.6
761.843	13865.58
762.239	12804.08
762.635	12323.89
763.031	11863.27
763.427	11194.47
763.822	10494.41
764.218	9808.34
764.614	8912.81
765.01	8311.65
765.405	7923.64
765.801	7627.25
766.196	7248.59
766.592	7035.02
766.987	6680.64
767.382	6438.35
767.778	6337.9
768.173	6190.28
768.568	6107.59
768.963	5967.09
769.358	5988.02
769.753	5934.32
770.148	5841.48
770.542	5841.01
770.937	5805.68
771.332	5906.27
771.726	5929.46
772.121	5859.36
772.515	5918.32
772.91	5900.96
773.304	5978.52
773.699	5902.73
774.093	5960.26
774.487	6022.68
774.881	6070.17
775.275	6065.85
775.669	6017.25
776.063	6067.21
776.457	6105.87
776.851	6023.27
777.245	6014.97
777.638	6052.56
778.032	6179.97
778.425	6140.04
778.819	6186.82
779.212	6140
779.606	6096.51
779.999	6120.5
780.392	6100.94
780.786	6194.69
781.179	6218.83
781.572	6265.64
781.965	6281.16
782.358	6214.24
782.751	6277.83
783.143	6223.22
783.536	6305.12
783.929	6352.72
784.322	6482.42
784.714	6517.51
785.107	6509.61
785.499	6588.47
785.891	6565.93
786.284	6544.06
786.676	6707.02
787.068	6687.56
787.46	6747.09
787.852	6769.63
788.245	6865.98
788.636	6900.99
789.028	6974.97
789.42	7023.44
789.812	7033.85
790.204	7139.51
790.595	7253.67
790.987	7034.08
791.378	7060.34
791.77	7206.05
792.161	7356.13
792.553	7416.16
792.944	7290.59
793.335	7213.85
793.726	7293.75
794.117	7396.89
794.508	7550.6
794.899	7515.35
795.29	7672.28
795.681	7736.38
796.072	7576.33
796.463	7373.55
796.853	7388.66
797.244	7563.58
797.634	7603.78
798.025	7602.23
798.415	7614.52
798.806	7718.27
799.196	7812.79
799.586	7868.02
799.976	7825.21
800.366	8082.09
800.756	8348.87
801.146	8301.46
801.536	8333.4
801.926	8412.68
802.316	8441.24
802.706	8523.3
803.095	8382.82
803.485	8497.45
803.874	8546.01
804.264	8832.87
804.653	8803.44
805.043	8965.87
805.432	9086.92
805.821	9091.04
806.21	9117.26
806.599	9249.65
806.988	9298.78
807.377	9417.72
807.766	9565.94
808.155	9885.23
808.544	9594.47
808.933	9609.37
809.321	9586.87
809.71	9918.93
810.098	10097.46
810.487	10615.36
810.875	11151.64
811.264	11178.33
811.652	11499.24
812.04	11652.7
812.428	11831.16
812.816	12679.73
813.204	13157.37
813.592	13768.68
813.98	14147.48
814.368	14040.47
814.756	14575.68
815.144	14485.34
815.531	15002.15
815.919	14923.07
816.306	15266.65
816.694	14925.48
817.081	14982.91
817.469	15362.85
817.856	15368.19
818.243	15658.18
818.63	16091.18
819.017	15616.04
819.404	15692.71
819.791	16115.43
820.178	16803.11
820.565	17087.93
820.952	18132.6
821.339	17588.75
821.725	17799.61
822.112	16961.85
822.498	16925.21
822.885	17075.54
823.271	16976.62
823.657	17445.53
824.044	17459.51
824.43	17543.28
824.816	17506.12
825.202	17018.91
825.588	18159.8
825.974	18167.43
826.36	18744.13
826.746	18783.8
827.132	19180.51
827.517	19155.55
827.903	18269.2
828.289	18313.09
828.674	17441.41
829.06	17320.78
829.445	17762.75
829.83	18161.86
830.216	18693.95
830.601	19105.35
830.986	18650.19
831.371	18503.69
831.756	19125.66
832.141	18652.28
832.526	18636.44
832.911	18947.73
833.295	18821.95
833.68	19340.4
834.065	18646.89
834.449	17634.2
834.834	17553.02
835.218	17551.3
835.603	17928.2
835.987	17686.8
836.371	18610.63
836.755	18496.01
837.139	18938.47
837.524	19208.35
837.908	19002.96
838.291	19065.58
838.675	19136.62
839.059	19365.34
839.443	19341.83
839.827	19083.32
840.21	19613.14
840.594	19444.44
840.977	19671.24
841.361	19654.4
841.744	20065.68
842.127	19884.75
842.511	20149.2
842.894	20804.74
843.277	21225.52
843.66	21825.56
844.043	21906.06
844.426	21010.55
844.809	20663.85
845.191	20696.6
845.574	20178.27
845.957	19769.28
846.339	19657.54
846.722	19079.1
847.104	19156.47
847.487	18965.12
847.869	18976.49
848.252	19284.99
848.634	19649.2
849.016	19948.47
849.398	20088.88
849.78	21031.01
850.162	21047.33
850.544	21502.78
850.926	22194.01
851.307	22090.04
851.689	22390.2
852.071	22898.95
852.452	23247.04
852.834	23222.2
853.215	23649.43
853.597	23819.04
853.978	24140.25
854.359	24625.91
854.741	23528.46
855.122	23415.15
855.503	23093.81
855.884	23245.3
856.265	23166.32
856.646	23295.14
857.026	22860.71
857.407	22784.41
857.788	22946.04
858.169	23269.83
858.549	22330.53
858.93	23014.97
859.31	23069.76
859.69	23317.51
860.071	22871.46
860.451	22629.51
860.831	21817.92
861.211	23094.37
861.591	23704.58
861.971	23693.64
862.351	23895.54
862.731	24337.46
863.111	24635.58
863.491	25005.4
863.87	25955.77
864.25	26335.42
864.629	25898.83
865.009	26477.69
865.388	27425.78
865.768	29384.5
866.147	29267.02
866.526	27670.16
866.905	27984.26
867.284	29549.35
867.663	28053.68
868.042	26895.69
868.421	26817.01
868.8	27267.87
869.179	27530.98
869.558	25926.51
869.936	23900.97
870.315	24320.52
870.693	24906.15
871.072	26874.07
871.45	25605.98
871.828	25941.93
872.207	27282.12
872.585	26875.07
872.963	27600.72
873.341	26647.07
873.719	26332.36
874.097	26022.47
874.475	26516.35
874.853	27123.37
875.23	25990.41
875.608	27076.52
875.986	29283.56
876.363	27993.15
876.741	28841.27
877.118	28119.66
877.495	29500.86
877.873	29996.22
878.25	31563.77
878.627	30283.91
879.004	30701.59
879.381	30557.64
879.758	29750.09
880.135	27699.34
880.512	29291.3
880.889	28511.85
881.265	28215.96
881.642	27975.03
882.019	28441.71
882.395	27864.84
882.772	28971.09
883.148	27714.5
883.524	27605.73
883.901	27430.65
884.277	27827.33
884.653	27649.62
885.029	28431.01
885.405	31486.5
885.781	31242.93
886.157	29948.24
886.532	30310.12
886.908	30283.4
887.284	33673.89
887.659	34747.04
888.035	35832.18
888.411	36759.92
888.786	37234.81
889.161	38523.81
889.537	37805.15
889.912	39009.58
890.287	38979.22
890.662	39982.97
891.037	39258.75
891.412	36597.45
891.787	36237.33
892.162	34972.29
892.536	35786.13
892.911	34444.07
893.286	33715.06
893.66	32344.54
894.035	33162.12
894.409	36106.3
894.784	34627.01
895.158	35199.44
895.532	37283.28
895.906	38297.62
896.281	39189.13
896.655	38545.83
897.029	44026.78
897.402	45847.59
897.776	51049.91
898.15	50867.61
898.524	50329.62
898.898	51020.12
899.271	57092.07
899.645	49448.4
900.018	47507.28
900.392	49284.42
900.765	49711.52
901.138	46015.97
901.511	45335.59
901.884	41620.96
902.258	38411.62
902.631	39689.58
903.003	45703.03
903.376	41256.12
903.749	46275.97
904.122	49537.35
904.495	54555.03
904.867	55224.62
905.24	47960.51
905.612	44645.07
905.985	45668.03
906.357	47743.23
906.729	45561.67
907.102	38903.5
907.474	37409.9
907.846	37637.99
908.218	37151.83
908.59	32820.99
908.962	31772.87
909.334	34205.28
909.705	35923.18
910.077	34882.03
910.449	36316.21
910.82	37347.58
911.192	41102.27
911.563	42721.14
911.935	45716.19
912.306	45744.67
912.677	47266.29
913.048	46760.45
913.419	50755.92
913.79	51059.29
914.161	54745.63
914.532	52333.85
914.903	48059.54
915.274	45668.17
915.645	45021.27
916.015	39618.57
916.386	37793.83
916.756	40219.45
917.127	41515.04
917.497	37099.11
917.868	40394.46
918.238	38378.7
918.608	39490.63
918.978	40324.59
919.348	42686.09
919.718	44089.13
920.088	42491.62
920.458	44151.15
920.828	46446.61
921.198	44014.27
921.567	47009.43
921.937	36402.24
922.306	36764.2
922.676	39631.71
923.045	33074.1
923.415	31419.8
923.784	28611.23
924.153	29422.65
924.522	29401.02
924.891	27657.63
925.26	29638.99
925.629	28950.25
925.998	33281.43
926.367	32470.8
926.736	30927.19
927.104	36841.25
927.473	39615.55
927.842	47828.24
928.21	47359.49
928.578	49772.92
928.947	47035.91
929.315	47317.31
929.683	55460.86
930.051	55900.46
930.42	64951.08
930.788	55544.82
931.156	55118.4
931.523	51637.54
931.891	47748.9
932.259	45877.53
932.627	53177.91
932.994	75241.18
933.362	62167.74
933.729	54036.74
934.097	51742.45
934.464	43774.19
934.831	50499.39
935.199	49802.63
935.566	48359.73
935.933	48946.45
936.3	59272.47
936.667	46104.89
937.034	41609.05
937.401	41139.52
937.767	35468.04
938.134	31566.06
938.501	44508.82
938.867	47403.67
939.234	80109.75
939.6	68283.39
939.967	75334.83
940.333	50412.43
940.699	42927.91
941.065	34423.09
941.431	45170.44
941.798	43595.93
942.163	57203.78
942.529	35760.52
942.895	32920.33
943.261	21288.02
943.627	27913.48
943.992	24431.89
944.358	24475.3
944.723	24570.58
945.089	23958.59
945.454	22101.07
945.82	23568.05
946.185	22661.11
946.55	26246.97
946.915	23549.67
947.28	27612.54
947.645	24309.49
948.01	22439.65
948.375	23383.83
948.74	28026.96
949.104	32726.73
949.469	47335.46
949.834	83730.58
950.198	79421.25
950.562	47637.14
950.927	39681.92
951.291	47777.9
951.655	40695.65
952.02	38261.82
952.384	28962.52
952.748	25231.97
953.112	24587.75
953.476	21384.74
953.839	19778.4
954.203	19568
954.567	24455.83
954.931	38526.49
955.294	32952.09
955.658	33163.9
956.021	56329.37
956.385	95469.47
956.748	140881.93
957.111	218584.26
957.474	245376.1
957.837	276155.48
958.2	208941.28
958.563	75133.02
958.926	50819.63
959.289	77164.61
959.652	86227.51
960.015	64747.57
960.377	92981.64
960.74	106206.53
961.102	183337.03
961.465	196977.51
961.827	105489.57
962.189	202589.06
962.552	140531.66
962.914	112674.98
963.276	73129.79
963.638	60470.08
964	59909.47
964.362	40511.5
964.724	39140.53
965.085	27910.34
965.447	22877.22
965.809	26113.55
966.17	26146.46
966.532	28303.83
966.893	25977.74
967.255	23642.85
967.616	27894.35
967.977	22324.65
968.338	24373.89
968.699	20043.3
969.061	20048.25
969.421	20183.78
969.782	22640.29
970.143	19138.73
970.504	19816.67
970.865	22530.05
971.225	23019.96
971.586	22541.55
971.946	32181.99
972.307	27956.71
972.667	36510.59
973.027	37630.92
973.388	45694.08
973.748	31070.04
974.108	33825.73
974.468	45749.95
974.828	35247.31
975.188	27119.58
975.548	24938.48
975.907	20919.65
976.267	23444.24
976.627	19701.61
976.986	20402.53
977.346	19443.62
977.705	18697.87
978.064	17013.26
978.424	14182.49
978.783	14670.37
979.142	16766.53
979.501	16007.34
979.86	16919.6
980.219	16312.66
980.578	21067.59
980.937	23606.81
981.296	21022.95
981.654	21660.76
982.013	33735.32
982.371	43767
982.73	40875.44
983.088	46261.96
983.447	49405.88
983.805	70634.16
984.163	147564.83
984.521	163638.68
984.879	239908.29
985.237	-390652
985.595	376443.35
985.953	93612.75
986.311	54092.16
986.669	31441.41
987.026	27146.14
987.384	36574.73
987.741	37841.71
988.099	27044.02
988.456	21540.5
988.814	20174.02
989.171	17536.14
989.528	17297.48
989.885	18239.19
990.242	14423.96
990.599	17955.45
990.956	14693.89
991.313	10269.11
991.67	8427.81
992.027	8935.56
992.383	7951.72
992.74	6970.88
993.096	7303.75
993.453	7568.15
993.809	7849.09
994.165	10457.79
994.522	9597.44
994.878	10571.18
995.234	13264.16
995.59	13085.2
995.946	12388.12
996.302	14110.26
996.658	16314.71
997.013	17964.17
997.369	21316.43
997.725	27321.52
998.08	17704.39
998.436	27266.72
998.791	37668.24
999.147	37548.04
999.502	40911.49
999.857	29699.05
1000.212	48470.81
1000.567	69092.78
1000.922	39880.72
1001.277	25351.84
1001.632	18816.87
1001.987	24242.93
1002.342	17373.75
1002.696	13874.05
1003.051	11079.41
1003.406	13436.13
1003.76	13380.04
1004.114	13202.27
1004.469	11083.3
1004.823	9194.09
1005.177	9931.71
1005.531	7871.11
1005.885	6993.29
1006.239	7892.27
1006.593	9885.62
1006.947	13224.7
1007.301	9938.44
1007.655	10857.31
1008.008	7970.93
1008.362	8963.34
1008.715	12797.73
1009.069	11619.63
1009.422	17478.92
1009.776	34957.16
1010.129	23249.67
1010.482	19449.42
1010.835	16512.48
1011.188	34308.66
1011.541	32247.54
1011.894	-197261.27
1012.247	580219.63
1012.6	39387.91
1012.952	24799.47
1013.305	12760.25
1013.657	9217.84
1014.01	8686.58
1014.362	7179.01
1014.715	6377.26
1015.067	5560.57
1015.419	5444.89
1015.771	4812.06
1016.123	4273.25
1016.475	4380.8
1016.827	4675.43
1017.179	5029.58
1017.531	5074.18
1017.883	5205.44
1018.234	5012.83
1018.586	6305.5
1018.938	6681.2
1019.289	9219.97
1019.64	10569.46
1019.992	9883.1
1020.343	9076.58
1020.694	7175.77
1021.045	6334.56
1021.396	7205.07
1021.747	7739.77
1022.098	9336.16
1022.449	6793.99
1022.8	6294.29
1023.151	4368.69
1023.501	3878.58
1023.852	4217.11
1024.202	4385.1
1024.553	4811.49
1024.903	4719.3
1025.253	4043.79
1025.604	3637.19
1025.954	4482.51
1026.304	5472.89
1026.654	6340.26
1027.004	9307.6
1027.354	15053.03
1027.703	14084.15
1028.053	18439.79
1028.403	26676.32
1028.753	38519.28
1029.102	52357.13
1029.452	268277.39
1029.801	11593.22
1030.15	7432.87
1030.499	6332.24
897.758	2779.6
901.051	2744.62
904.343	2774.16
907.636	2777.55
910.928	2843.78
914.22	2747.05
917.511	2757.02
920.803	2824.69
924.094	2845.24
927.384	2821.19
930.675	2786.61
933.965	2737.6
937.255	2742.08
940.544	2714.26
943.834	2636.07
947.123	2582.27
950.411	2684.14
953.7	2653.28
956.988	2617.51
960.276	2560.66
963.563	2647.71
966.851	2640.67
970.138	2702.61
973.424	2695.31
976.711	2643.96
979.997	2794.92
983.283	2827.87
986.568	2728.65
989.853	2747.83
993.138	2775.58
996.423	2860.74
999.708	2793.56
1002.992	2867.08
1006.275	2681.95
1009.559	2734.77
1012.842	2855.5
1016.125	2782.67
1019.408	2761.51
1022.69	2855.2
1025.972	2876.11
1029.254	2850.06
1032.536	2775.4
1035.817	2805.42
1039.098	2742.79
1042.379	2908.83
1045.659	2901.08
1048.939	2827.29
1052.219	2852.71
1055.498	2866.31
1058.778	2849.45
1062.057	2831.26
1065.335	2853.57
1068.614	2874.64
1071.892	2855.84
1075.17	2934.76
1078.447	2922.89
1081.724	2913.54
1085.001	2953.29
1088.278	2929.9
1091.554	2941.06
1094.83	2936.85
1098.106	2966.22
1101.382	3014.19
1104.657	3015.33
1107.932	3010.54
1111.206	2972.7
1114.481	2929.87
1117.755	2929.82
1121.029	2908.68
1124.302	2960.93
1127.575	2911.44
1130.848	2897.11
1134.121	2855.76
1137.393	2800.75
1140.665	2872.07
1143.937	2848.3
1147.208	2808.34
1150.48	2847.91
1153.75	2835.71
1157.021	2869.9
1160.291	2838.44
1163.561	2884.13
1166.831	2875.57
1170.101	2909.74
1173.37	2886.05
1176.639	2825.74
1179.907	2886.6
1183.176	2892.56
1186.444	2899.45
1189.711	2931.09
1192.979	2944.28
1196.246	2897.56
1199.513	2915.91
1202.78	2914.36
1206.046	2924.33
1209.312	2948.96
1212.578	2978.04
1215.843	2927.03
1219.108	2899.59
1222.373	2923.29
1225.638	2882.77
1228.902	2863.14
1232.166	2829.12
1235.43	2810.4
1238.693	2832.68
1241.956	2829.97
1245.219	2870.16
1248.482	2863.1
1251.744	2856.43
1255.006	3015.78
1258.268	2969.84
1261.529	2910.57
1264.79	2919.4
1268.051	3029.45
1271.312	3046.35
1274.572	3009.04
1277.832	2997.97
1281.092	2987.71
1284.351	2956.82
1287.61	2934.76
1290.869	2842.2
1294.128	2817.24
1297.386	2913.97
1300.644	2902.27
1303.902	2913.99
1307.159	2767.89
1310.416	2823.89
1313.673	2849.24
1316.93	2834.57
1320.186	2882.58
1323.442	2926.93
1326.697	2917.67
1329.953	2906.34
1333.208	2931.6
1336.463	2911.08
1339.717	2844.43
1342.972	2989.84
1346.226	2966.06
1349.479	2892.48
1352.733	2860.24
1355.986	2888.52
1359.238	2862.93
1362.491	2865.4
1365.743	2871.49
1368.995	2864.96
1372.247	2878.34
1375.498	2905.37
1378.749	2913.49
1382	2868.23
1385.251	2926.79
1388.501	2888.94
1391.751	2868.46
1395	2840.49
1398.25	2871.7
1401.499	2877.14
1404.748	2797.67
1407.996	2790.19
1411.244	2772.46
1414.492	2755.76
1417.74	2732.2
1420.987	2742.97
1424.234	2801.84
1427.481	2781.82
1430.728	2842.49
1433.974	2818.14
1437.22	2835.3
1440.465	2837.34
1443.711	2795.84
1446.956	2835.27
1450.201	2822
1453.445	2869.96
1456.689	2847.82
1459.933	2859.89
1463.177	2892.97
1466.42	2865.33
1469.663	2843.72
1472.906	2836.47
1476.148	2926.71
1479.391	2870.15
1482.633	2842.75
1485.874	2853.1
1489.115	2837.46
1492.356	2843.7
1495.597	2819.5
1498.838	2823.7
1502.078	2787.89
1505.318	2732.76
1508.557	2779.25
1511.797	2743.83
1515.036	2832.21
1518.274	2818.2
1521.513	2791.44
1524.751	2813.79
1527.989	2827.53
1531.227	2838.05
1534.464	2833.23
1537.701	2856.24
1540.938	2877.11
1544.174	2828.58
1547.41	2828.71
1550.646	2872
1553.882	2907.73
1557.117	2966.45
1560.352	2982.08
1563.587	2936.85
1566.821	2895.17
1570.055	2930.34
1573.289	2901.36
1576.523	2982.17
1579.756	2989.35
1582.989	3006.46
1586.222	2964.4
1589.454	3007.8
1592.686	2976
1595.918	3001.07
1599.15	2988.97
1602.381	3069.53
1605.612	3020.93
1608.843	3120.23
1612.073	3029.19
1615.303	3011.66
1618.533	3002.91
1621.762	3004.51
1624.992	2992.21
1628.221	2973.77
1631.449	2963.81
1634.678	3025.63
1637.906	2975.95
1641.134	3017.56
1644.361	2971.5
1647.588	2958.73
1650.815	2973.4
1654.042	2953.52
1657.269	2987.19
1660.495	2932.32
1663.72	2940.79
1666.946	2901.28
1670.171	2835.16
1673.396	2813.2
1676.621	2802.08
1679.845	2825.98
1683.069	2849.23
1686.293	2892.63
1689.517	2861.23
1692.74	2785.69
1695.963	2819.41
1699.185	2851.38
1702.408	2823.66
1705.63	2869.47
1708.852	2879.38
1712.073	2853.49
1715.294	2834.8
1718.515	2898.22
1721.736	2845.12
1724.956	2837.77
1728.176	2864.2
1731.396	2888.01
1734.616	2874.41
1737.835	2901.92
1741.054	2882.22
1744.272	2876.17
1747.491	2901.72
1750.709	2963.21
1753.927	2859.72
1757.144	2906.59
1760.361	2951.76
1763.578	2944.98
1766.795	2883.35
1770.011	2893.41
1773.227	2938.16
1776.443	2973.05
1779.658	3019.85
1782.874	2962.46
1786.089	2935.84
1789.303	2939.57
1792.518	2948.66
1795.732	2933.26
1798.945	2944.1
1802.159	2994.17
1805.372	2888.66
1808.585	2871.91
1811.797	2875.76
1815.01	2925.92
1818.222	2925.96
1821.434	2881.19
1824.645	2944.64
1827.856	2923.17
1831.067	2962.92
1834.278	2918.59
1837.488	2903.31
1840.698	3061.28
1843.908	2979.28
1847.117	2938.85
1850.326	2815
1853.535	2926.83
1856.744	2971.41
1859.952	2879.46
1863.16	2883.87
1866.368	2904.74
1869.575	3014.53
1872.782	2891.68
1875.989	2827.99
1879.196	2922.26
1882.402	2912.72
1885.608	2956.57
1888.814	2852.86
1892.019	2742.21
1895.224	2796.64
1898.429	2775.11
1901.634	2752.99
1904.838	2727.28
1908.042	2780.96
1911.246	2786.79
1914.449	2708.64
1917.652	2710.59
1920.855	2692.03
1924.058	2746.35
1927.26	2782
1930.462	2812.63
1933.664	2841.14
1936.865	2774.35
1940.066	2780.54
1943.267	2725.87
1946.467	2742.51
1949.668	2772.21
1952.868	2842.46
1956.067	2816.1
1959.267	2743.45
1962.466	2772.12
1965.665	2756.58
1968.863	2752.16
1972.061	2767.97
1975.259	2769.41
1978.457	2849.66
1981.654	2806.59
1984.852	2807.82
1988.048	2733.71
1991.245	2740.59
1994.441	2828.45
1997.637	2817.26
2000.833	2796.71
2004.028	2840.72
2007.223	2893.38
2010.418	2872.08
2013.613	2831.83
2016.807	2797.98
2020.001	2808.65
2023.194	2854.56
2026.388	2828.67
2029.581	2770.29
2032.774	2818.58
2035.966	2825.78
2039.158	2750.95
2042.35	2783.61
2045.542	2705.64
2048.733	2812.38
2051.924	2842.62
2055.115	2871.4
2058.306	2811.38
2061.496	2873.83
2064.686	2944.01
2067.875	2856.33
2071.065	2870.57
2074.254	2898.8
2077.442	2848.36
2080.631	2943.56
2083.819	2827.55
2087.007	2806.89
2090.195	2773.03
2093.382	2811.78
2096.569	2789.26
2099.756	2741.05
2102.942	2763.28
2106.128	2770.01
2109.314	2761.92
2112.5	2719.25
2115.685	2694.42
2118.87	2704.09
2122.055	2772.22
2125.239	2737.61
2128.424	2708.59
2131.608	2818.37
2134.791	2800.51
2137.974	2866.29
2141.157	2849.03
2144.34	2795.12
2147.523	2814.98
2150.705	2828.36
2153.887	2809.99
2157.068	2753.76
2160.25	2754.25
2163.431	2799.72
2166.611	2739.88
2169.792	2754.1
2172.972	2640.12
2176.152	2726.23
2179.331	2765.05
2182.511	2746.25
2185.69	2776.87
2188.868	2769.84
2192.047	2828.79
2195.225	2818.47
2198.403	2763.22
2201.58	2757.14
2204.758	2752.76
2207.935	2839.29
2211.111	2718.63
2214.288	2701.76
2217.464	2742.89
2220.64	2715.1
2223.815	2772.6
2226.991	2691.1
2230.166	2713.18
2233.34	2740.35
2236.515	2771.46
2239.689	2848.54
2242.863	2789.88
2246.036	2848.9
2249.209	2849.74
2252.382	2887.63
2255.555	2871.73
2258.727	2805.7
2261.9	2846.62
2265.071	2837.78
2268.243	2841.35
2271.414	2765.71
2274.585	2724.96
2277.756	2796.5
2280.926	2749.93
2284.096	2795.34
2287.266	2693.08
2290.436	2754.08
2293.605	2782.89
2296.774	2813.36
2299.942	2837.57
2303.111	2856.25
2306.279	2906.02
2309.447	2891.41
2312.614	2865.96
2315.781	2887.14
2318.948	2854.46
2322.115	2896.23
2325.281	2792.37
2328.447	2817.81
2331.613	2792.3
2334.779	2761.98
2337.944	2763.73
2341.109	2762.56
2344.274	2745.04
2347.438	2707.36
2350.602	2734.21
2353.766	2749.45
2356.929	2735.03
2360.092	2779.6
2363.255	2727.68
2366.418	2655.19
2369.58	2779.52
2372.742	2544.88
2375.904	2564.37
2379.066	2535.92
2382.227	2575.99
2385.388	2534.84
2388.548	2458.66
2391.709	2517.19
2394.869	2494.06
2398.029	2598.74
2401.188	2614.95
2404.347	2541.92
2407.506	2700.66
2410.665	2728.37
2413.823	2736.96
2416.981	2688.19
2420.139	2726.39
2423.296	2775.98
2426.453	2748.43
2429.61	2772.98
2432.767	2702.03
2435.923	2741.36
2439.079	2697.2
2442.235	2751.57
2445.391	2671.5
2448.546	2702.09
2451.701	2754.84
2454.855	2722.77
2458.009	2779.57
2461.163	2781.97
2464.317	2739.71
2467.471	2775.24
2470.624	2817.3
2473.777	2793.92
2476.929	2802.37
2480.082	2831.28
2483.234	2791.6
2486.385	2746.52
2489.537	2736.06
2492.688	2693.79
2495.839	2712.17
2498.989	2724.81
2502.14	2706.32
2505.29	2685.57
2508.439	2710.74
2511.589	2631.74
2514.738	2644.65
2517.887	2676.78
2521.035	2743.7
2524.183	2730.1
2527.331	2708.11
2530.479	2679.63
2533.627	2688.54
