Data from N_3_DIV_PA_2N_Splice17_13-17-17-854.txt Node
Date: Sat Mar 14 13:17:17 EDT 2020
User: sa697716
Spectrometer: FLMS03696
Trigger mode: 0
Integration Time (sec): 3.180400E-1
Scans to average: 20
Electric dark correction enabled: true
Nonlinearity correction enabled: true
Boxcar width: 5
XAxis mode: Wavelengths
Number of Pixels in Spectrum: 2048
>>>>>Begin Spectral Data<<<<<
187.83	-420527.68
188.298	2942.8
188.766	1571.15
189.233	1450.47
189.701	2055.71
190.169	2667.52
190.636	985.98
191.104	746.83
191.571	94.98
192.039	-56.22
192.506	-134.08
192.974	312.11
193.441	-550.8
193.908	-109.58
194.375	-25.95
194.842	53.58
195.31	113.53
195.777	207.63
196.244	365.24
196.711	228.92
197.177	191.34
197.644	151.06
198.111	240.54
198.578	306.23
199.045	241.71
199.511	373.74
199.978	357.99
200.445	320.22
200.911	296.91
201.378	253.63
201.844	289.77
202.31	502.47
202.777	570.63
203.243	308.5
203.709	282.89
204.176	310.46
204.642	244.24
205.108	244.55
205.574	189.79
206.04	121.94
206.506	123.49
206.972	78
207.438	74.72
207.903	67.63
208.369	75.08
208.835	92.9
209.301	126.39
209.766	125.18
210.232	112.65
210.697	108.94
211.163	117.83
211.628	133.71
212.094	163.87
212.559	323.29
213.024	237.95
213.49	341.63
213.955	312.05
214.42	237.65
214.885	245.32
215.35	277.39
215.815	398.14
216.28	476.56
216.745	392.63
217.21	466.32
217.675	396.87
218.14	471.54
218.604	509.13
219.069	619
219.534	727.38
219.998	822.27
220.463	1004.94
220.927	1142.51
221.392	1095.88
221.856	1160.59
222.32	1425.58
222.785	1829.13
223.249	2300.61
223.713	2617.81
224.177	2669.47
224.642	3393.53
225.106	4202.25
225.57	4625.31
226.034	3559.95
226.497	5453.79
226.961	4987.04
227.425	5910.07
227.889	6558.73
228.353	6578.83
228.816	13588.29
229.28	13090.71
229.744	11091.76
230.207	6909.83
230.671	6877.89
231.134	11277.23
231.597	13169.18
232.061	13199.9
232.524	12891.15
232.987	8935.5
233.45	8173.2
233.914	7411.37
234.377	7598.89
234.84	7002.53
235.303	8239.04
235.766	9244.8
236.229	9633.65
236.691	6061.69
237.154	6818.37
237.617	5162.57
238.08	5286.29
238.542	6179.45
239.005	4430.08
239.468	4429.11
239.93	4184.72
240.393	3813.58
240.855	3349.16
241.317	3415.79
241.78	4155.65
242.242	4309.96
242.704	4709.36
243.166	4126.95
243.629	3792.14
244.091	4392.75
244.553	4830.7
245.015	5226.4
245.477	6784.78
245.939	9967.43
246.4	10650.98
246.862	10414.56
247.324	9883.97
247.786	11071.94
248.247	14539.64
248.709	14922.23
249.17	11213.71
249.632	10675.25
250.093	12491.79
250.555	10866.21
251.016	6697.59
251.477	6382.06
251.939	6931.42
252.4	7271.59
252.861	8634.55
253.322	8091.99
253.783	9667.12
254.244	12543.36
254.705	9884.64
255.166	8774.07
255.627	8646.55
256.088	12246.92
256.549	13068.07
257.009	11257.01
257.47	13654.84
257.931	11125.06
258.391	8359.38
258.852	8655.61
259.312	9088.99
259.773	11254.47
260.233	9602.28
260.694	8145.02
261.154	9238.11
261.614	7476.08
262.074	6698.05
262.534	7025.6
262.994	6663.93
263.455	8873.53
263.915	7511.84
264.374	7106.05
264.834	7780.71
265.294	8612.41
265.754	8957.02
266.214	8492.69
266.673	7974.38
267.133	10082.66
267.593	10011.31
268.052	12319.25
268.512	10747.47
268.971	13040.86
269.431	14321.91
269.89	12847.57
270.349	19304.54
270.809	21583.28
271.268	19464.53
271.727	43578.25
272.186	28309.44
272.645	21262.41
273.104	15312.06
273.563	22228.78
274.022	17400.34
274.481	14917.65
274.94	11516.93
275.399	8572.88
275.857	9990.64
276.316	13536.91
276.775	12101.45
277.233	11965.28
277.692	11282.48
278.15	12832.41
278.609	13278.79
279.067	12356.59
279.525	11522.03
279.984	14924.84
280.442	17975.49
280.9	17826.21
281.358	11742.75
281.816	10954.54
282.274	10737.06
282.732	11069.56
283.19	11113
283.648	9595.12
284.106	10217.96
284.564	10367.9
285.021	9654.33
285.479	7209.05
285.937	6530.52
286.394	5769.29
286.852	5965.55
287.309	6287.3
287.767	6121.34
288.224	5863.44
288.682	6448.49
289.139	7153.42
289.596	6588.01
290.053	6875.95
290.511	8711.98
290.968	10665.28
291.425	14524.26
291.882	12184.14
292.339	10678.66
292.796	10629.15
293.252	10037.4
293.709	8054.96
294.166	7233.14
294.623	8025.81
295.079	7702.2
295.536	7790.72
295.992	7087.25
296.449	7019.04
296.905	7313.26
297.362	7048.29
297.818	7417.17
298.274	7730.96
298.731	7859.2
299.187	7780.22
299.643	8340.68
300.099	10128.56
300.555	11112.66
301.011	9305.02
301.467	9043.24
301.923	10561.66
302.379	10307.79
302.835	10139.94
303.291	10172.71
303.746	11553.35
304.202	14610.99
304.658	14703.33
305.113	9888.06
305.569	9685.42
306.024	10286.02
306.479	9721.71
306.935	8191.29
307.39	8920.77
307.845	8259.77
308.301	8313.37
308.756	8106.01
309.211	7792.99
309.666	7963.84
310.121	9888.15
310.576	9997.79
311.031	9916.22
311.486	11296.66
311.94	11268.91
312.395	15073.49
312.85	28181.42
313.305	136932.62
313.759	712518.33
314.214	51482.5
314.668	40896.25
315.123	34421.03
315.577	12381.47
316.032	11048.92
316.486	13892.93
316.94	11000.38
317.394	7669.86
317.849	5964.19
318.303	5667.74
318.757	5366.02
319.211	5960.47
319.665	5211.53
320.119	5280.35
320.572	7570.63
321.026	7083.24
321.48	5922.13
321.934	6439.57
322.387	6453.81
322.841	6989.76
323.295	6334.38
323.748	7237.77
324.202	7341.17
324.655	8823.84
325.108	12429.97
325.562	8752.06
326.015	10391.57
326.468	7852.29
326.921	8830.95
327.374	8251.68
327.827	8631.85
328.28	9782.35
328.733	6602.44
329.186	5821.42
329.639	5563.99
330.092	4660.88
330.545	4462.2
330.997	4510.89
331.45	4939.98
331.903	5797.99
332.355	9942.28
332.808	9625.24
333.26	7891.19
333.713	8560.68
334.165	8573.37
334.617	11376.19
335.069	9130.77
335.522	16476.77
335.974	18262.28
336.426	16594.55
336.878	11404.85
337.33	5798.57
337.782	5641.14
338.234	7112.66
338.686	8482.57
339.137	10114.42
339.589	9544
340.041	7524.91
340.493	6483.52
340.944	6627.28
341.396	7175.99
341.847	6095.32
342.299	7243.9
342.75	8936.34
343.201	7808.35
343.653	8988.65
344.104	11040.55
344.555	8758.15
345.006	13609.51
345.457	10559.44
345.908	8408.78
346.359	7961.74
346.81	6473.18
347.261	6813.15
347.712	6693.75
348.163	7167.85
348.613	7335.37
349.064	6858.18
349.515	6002.07
349.965	6175.41
350.416	7381.26
350.866	8132.01
351.317	9157.1
351.767	15166.56
352.217	19184.25
352.668	15962.48
353.118	14661.96
353.568	14041.29
354.018	11149.48
354.468	11816.84
354.918	8515.82
355.368	7465.76
355.818	10513.35
356.268	30316.49
356.718	127356.12
357.168	31864.01
357.617	15991.42
358.067	17803.77
358.517	16738.67
358.966	19716.33
359.416	22218.51
359.865	23976.21
360.315	28526.91
360.764	13411.51
361.213	7519.9
361.663	7119.04
362.112	8751.64
362.561	14160.77
363.01	10693.1
363.459	8963.71
363.908	9668.12
364.357	8189.5
364.806	13809.76
365.255	9510.01
365.703	8728.79
366.152	8730.31
366.601	7070.92
367.05	5756.43
367.498	5246.02
367.947	5465.34
368.395	5717.48
368.844	5089.26
369.292	6093.42
369.74	4216.67
370.189	6434.8
370.637	7513.59
371.085	6494.77
371.533	7907.21
371.981	7593.93
372.429	7261.39
372.877	7581.75
373.325	6327.38
373.773	6410.04
374.221	5711.6
374.669	7095.56
375.116	6131.82
375.564	6176.34
376.012	6879.19
376.459	5664.17
376.907	6750.96
377.354	8079.89
377.801	7524.3
378.249	8622.11
378.696	10999.7
379.143	13333.01
379.591	14117.54
380.038	23985.14
380.485	17351.11
380.932	18784.84
381.379	17325.96
381.826	12867.54
382.273	9147.79
382.72	7974.49
383.166	7811.67
383.613	5081.01
384.06	4562.13
384.506	5285.46
384.953	3874.32
385.4	3881
385.846	3384.8
386.292	3267.54
386.739	3160.46
387.185	3101.23
387.631	3098.89
388.078	2999.97
388.524	3182.79
388.97	2933.95
389.416	2459.86
389.862	2616.82
390.308	2474.12
390.754	2503.01
391.2	2705.45
391.645	2751.87
392.091	2662.13
392.537	2566.21
392.983	2544.91
393.428	2526.56
393.874	2683.02
394.319	2673.67
394.765	2524.92
395.21	2581.8
395.655	2418.58
396.101	2256.99
396.546	2035.72
396.991	2025.51
397.436	1864.52
397.881	1796.14
398.326	1672.4
398.771	1586.46
399.216	1372.34
399.661	1221.49
400.106	1217.47
400.551	1247.8
400.995	1114.26
401.44	1100.2
401.885	1027.07
402.329	1039.7
402.774	999.46
403.218	977.39
403.663	942.18
404.107	970.92
404.551	980.29
404.995	891.8
405.44	845.05
405.884	850.16
406.328	816.84
406.772	812.63
407.216	736.7
407.66	703.68
408.104	655.16
408.547	605.78
408.991	581.76
409.435	554.15
409.879	548.1
410.322	542.42
410.766	527.92
411.209	501.39
411.653	478.15
412.096	470.29
412.54	467.53
412.983	465.75
413.426	469.65
413.869	465.9
414.312	458.82
414.756	439.06
415.199	416.3
415.642	402.41
416.085	401.89
416.527	398.51
416.97	400.47
417.413	379.1
417.856	370.68
418.298	362
418.741	358.3
419.184	353.55
419.626	362.37
420.069	361.4
420.511	364.23
420.953	357.95
421.396	353
421.838	341.95
422.28	349.84
422.722	355.16
423.164	360.05
423.606	354.32
424.048	351.43
424.49	336.23
424.932	332.97
425.374	322.78
425.816	323.79
426.258	331.86
426.699	336.44
427.141	336.02
427.582	337.42
428.024	333.47
428.465	328.12
428.907	319.87
429.348	313.3
429.789	316.47
430.231	314.66
430.672	319.09
431.113	309.04
431.554	301.8
431.995	290.19
432.436	283.93
432.877	279.97
433.318	281.13
433.759	278.18
434.2	276.89
434.64	269.99
435.081	267.08
435.522	254.04
435.962	244.53
436.403	241.84
436.843	240.41
437.284	231.81
437.724	221.25
438.164	213.55
438.604	208.72
439.045	202.11
439.485	196.3
439.925	192.86
440.365	187.55
440.805	183.56
441.245	181.43
441.685	176.02
442.125	171.56
442.564	172.22
443.004	169.08
443.444	168.61
443.883	170.09
444.323	164.98
444.762	157.61
445.202	156.98
445.641	160.26
446.081	154.3
446.52	155.53
446.959	154.12
447.398	150.47
447.837	148.75
448.276	142.79
448.716	141.89
449.154	140.23
449.593	140.54
450.032	139.49
450.471	133.86
450.91	132.01
451.349	132.55
451.787	130.81
452.226	132.05
452.664	130.78
453.103	131.29
453.541	129.37
453.98	134.32
454.418	135.15
454.856	136.12
455.295	137.42
455.733	141.48
456.171	140.59
456.609	141.86
457.047	143.29
457.485	147.93
457.923	150.07
458.361	147.73
458.798	146.48
459.236	145.15
459.674	143.36
460.111	143.07
460.549	141.12
460.987	138.94
461.424	137.31
461.862	134.67
462.299	131.01
462.736	131.9
463.173	133.03
463.611	134.88
464.048	136.28
464.485	138.06
464.922	136.86
465.359	134.82
465.796	144.12
466.233	144.19
466.67	146.43
467.106	148.1
467.543	144.79
467.98	141.9
468.416	134.14
468.853	131.33
469.29	126.78
469.726	125.36
470.162	122.07
470.599	112.07
471.035	109.71
471.471	106.17
471.907	102.65
472.344	101.18
472.78	102.51
473.216	103.47
473.652	102.65
474.088	100.8
474.523	100.87
474.959	101.39
475.395	100.02
475.831	100.15
476.266	99.65
476.702	99.07
477.138	98.21
477.573	96.79
478.008	96.9
478.444	97.84
478.879	100.71
479.314	101.79
479.75	102.19
480.185	102.49
480.62	102.45
481.055	103
481.49	104
481.925	105.97
482.36	110.98
482.795	113.27
483.229	115.45
483.664	117.3
484.099	116.68
484.534	118.1
484.968	119.61
485.403	119.86
485.837	118.02
486.271	117.65
486.706	116.73
487.14	112.38
487.574	110.46
488.009	109.04
488.443	107.16
488.877	109.2
489.311	109.04
489.745	109.49
490.179	110.76
490.613	114.76
491.046	114.65
491.48	115.01
491.914	115.21
492.348	115.9
492.781	116.09
493.215	115.47
493.648	112.93
494.082	113.18
494.515	113.18
494.948	113.74
495.382	111.41
495.815	111.36
496.248	111.63
496.681	112.06
497.114	110.89
497.547	111.6
497.98	113.37
498.413	115.21
498.846	115.71
499.279	114.67
499.711	112.36
500.144	111.13
500.577	112.72
501.009	112.71
501.442	113.77
501.874	114.1
502.306	111.89
502.739	114.37
503.171	113.42
503.603	111.84
504.036	110.97
504.468	110.68
504.9	110.64
505.332	108.81
505.764	108.13
506.196	106.16
506.627	105.84
507.059	105.58
507.491	100.36
507.923	98.45
508.354	98.64
508.786	98.47
509.217	98.75
509.649	98.57
510.08	98.23
510.512	98.83
510.943	99.06
511.374	97.93
511.805	98.13
512.237	98.21
512.668	98.33
513.099	97.66
513.53	97.5
513.961	97.63
514.391	98.28
514.822	101.24
515.253	101.43
515.684	100.76
516.114	101.73
516.545	102.37
516.975	102.39
517.406	102.54
517.836	100.72
518.267	100.5
518.697	101.08
519.127	99.72
519.558	96.46
519.988	93.86
520.418	92.75
520.848	91.04
521.278	89.3
521.708	118.26
522.138	117.44
522.567	117.46
522.997	116.79
523.427	114.77
523.857	114.55
524.286	113.38
524.716	114.01
525.145	114.97
525.575	115.8
526.004	115.06
526.433	84.8
526.863	83.59
527.292	84.14
527.721	84.94
528.15	84.83
528.579	84.64
529.008	85.02
529.437	84.19
529.866	83.41
530.295	82.56
530.724	84.04
531.152	85.16
531.581	86.64
532.01	86.39
532.438	84.75
532.867	84.41
533.295	84.75
533.723	85.02
534.152	85.13
534.58	85.35
535.008	84.92
535.436	85.55
535.865	85.15
536.293	84.31
536.721	83.94
537.149	85.59
537.576	86.76
538.004	87.21
538.432	86.31
538.86	86.82
539.287	85.96
539.715	86.52
540.143	84.83
540.57	84.74
540.998	84.48
541.425	85.64
541.852	84.44
542.28	83.16
542.707	82.07
543.134	81.84
543.561	81.38
543.988	81.48
544.415	80.56
544.842	80
545.269	80.1
545.696	80.78
546.123	80.5
546.549	79.52
546.976	79.79
547.403	79.67
547.829	79.27
548.256	78.51
548.682	78.55
549.108	80.03
549.535	79.85
549.961	78.86
550.387	77.74
550.813	78.64
551.24	79.03
551.666	78.24
552.092	77.92
552.518	77.47
552.943	78.73
553.369	79.14
553.795	78.86
554.221	78.99
554.646	79.2
555.072	81.65
555.498	79.49
555.923	79.65
556.349	80.79
556.774	80.57
557.199	81.25
557.625	80.61
558.05	80.07
558.475	79.93
558.9	80.64
559.325	81.2
559.75	80.61
560.175	80.75
560.6	80.61
561.025	79.55
561.449	79.9
561.874	79.41
562.299	80.53
562.723	80.81
563.148	80.71
563.572	80.48
563.997	80.45
564.421	78.94
564.846	79.17
565.27	80.33
565.694	81.56
566.118	82.58
566.542	85
566.966	84.51
567.39	85.49
567.814	85.73
568.238	86.66
568.662	86.83
569.086	88.62
569.509	89.77
569.933	91.53
570.357	91.35
570.78	91.1
571.204	92.14
571.627	92.36
572.05	92.52
572.474	94.32
572.897	94.14
573.32	95.99
573.743	95.73
574.166	95.78
574.589	94.59
575.012	94.84
575.435	95.44
575.858	94.48
576.281	94.13
576.704	93.51
577.126	91.96
577.549	91.19
577.972	89.74
578.394	89.67
578.817	92.82
579.239	92.28
579.661	92.37
580.084	93.88
580.506	93.62
580.928	93.49
581.35	93.34
581.772	93.7
582.194	93.93
582.616	93.77
583.038	92.79
583.46	89.51
583.882	89.72
584.303	89.08
584.725	86.75
585.147	92.56
585.568	94.45
585.99	96.47
586.411	98.08
586.833	99.72
587.254	100.6
587.675	101.12
588.096	102.28
588.518	102.05
588.939	102.51
589.36	103.4
589.781	95.76
590.202	97.13
590.623	96.05
591.043	94.56
591.464	94.18
591.885	94.64
592.305	94.78
592.726	93.67
593.147	94.46
593.567	94.04
593.987	93.06
594.408	93.16
594.828	89.57
595.248	90.66
595.669	91.38
596.089	90.42
596.509	88.83
596.929	87.9
597.349	89.09
597.769	87.74
598.189	88.01
598.608	88.48
599.028	89.48
599.448	89.43
599.867	87.51
600.287	86.2
600.706	87.12
601.126	87.6
601.545	89.14
601.965	89.12
602.384	89.57
602.803	89.8
603.222	90.55
603.641	89.64
604.061	91.09
604.48	91.18
604.898	91.98
605.317	92.23
605.736	92.08
606.155	92.69
606.574	91.81
606.992	92.32
607.411	92.16
607.829	90.85
608.248	91.18
608.666	89.85
609.085	90.63
609.503	90.68
609.921	90.88
610.339	92.34
610.758	91.31
611.176	91.16
611.594	91.27
612.012	91.69
612.43	93.64
612.847	94.24
613.265	96.31
613.683	96.68
614.101	97.37
614.518	96.88
614.936	96.48
615.353	96.92
615.771	98.15
616.188	98.93
616.606	99.07
617.023	98.76
617.44	98.35
617.857	96.04
618.274	95.68
618.691	96.59
619.108	96.59
619.525	96.33
619.942	97.2
620.359	97.42
620.776	96.72
621.192	97.64
621.609	97.79
622.026	98.96
622.442	100.82
622.859	100.54
623.275	98.99
623.691	99.16
624.108	100.21
624.524	100.55
624.94	100.38
625.356	101.26
625.772	100.9
626.188	101.85
626.604	102.48
627.02	102.1
627.436	103.46
627.852	106.25
628.268	107.46
628.683	106.02
629.099	106.01
629.514	105.16
629.93	105.65
630.345	107.17
630.761	105.74
631.176	105.7
631.591	107.62
632.007	107.91
632.422	105.64
632.837	104.18
633.252	106.11
633.667	105.59
634.082	105.8
634.497	106.41
634.911	106.25
635.326	106.78
635.741	105.77
636.155	104.06
636.57	105.15
636.984	105.75
637.399	109.68
637.813	108.05
638.228	108.19
638.642	108.79
639.056	107.1
639.47	107.57
639.884	107.76
640.298	108.87
640.712	110.42
641.126	109.99
641.54	109.32
641.954	106.11
642.368	107.37
642.781	111.51
643.195	110.38
643.609	112.48
644.022	111.97
644.436	112.84
644.849	111
645.262	109.54
645.676	108.58
646.089	109.82
646.502	111.43
646.915	111.27
647.328	108.23
647.741	110.09
648.154	109.07
648.567	112.9
648.98	112.93
649.393	114.56
649.805	116.13
650.218	117.73
650.631	116.77
651.043	116.3
651.456	116.31
651.868	115.75
652.28	116.87
652.693	118.29
653.105	116.94
653.517	117.85
653.929	118.68
654.341	119.78
654.753	118.98
655.165	120.28
655.577	121.18
655.989	122.08
656.401	120.47
656.813	119.99
657.224	118.64
657.636	115.1
658.047	115.18
658.459	114.56
658.87	113.27
659.282	112.8
659.693	113.11
660.104	112.89
660.515	111.26
660.926	111.91
661.338	111.62
661.749	111.41
662.159	112.37
662.57	111.08
662.981	110.71
663.392	110.79
663.803	112.04
664.213	111.7
664.624	110.56
665.035	111.57
665.445	111.21
665.855	111.67
666.266	112.91
666.676	112.79
667.086	112.05
667.497	113.57
667.907	113.65
668.317	112.35
668.727	115.88
669.137	115.75
669.547	116.35
669.956	116.97
670.366	117.11
670.776	118.55
671.186	119.49
671.595	121.21
672.005	120.76
672.414	122.02
672.824	122.6
673.233	118.87
673.642	119.04
674.052	120.48
674.461	122.72
674.87	123.32
675.279	122.47
675.688	120.43
676.097	121.07
676.506	120.32
676.915	120.56
677.323	120.17
677.732	119.48
678.141	119.58
678.549	116.34
678.958	113.83
679.366	111.3
679.775	108.98
680.183	113.15
680.592	112.6
681	112.14
681.408	110.01
681.816	109.19
682.224	108.35
682.632	110.48
683.04	113.36
683.448	115.49
683.856	119.27
684.264	124.06
684.671	124
685.079	125.57
685.487	128.18
685.894	131.75
686.302	133.65
686.709	136.65
687.116	137.23
687.524	139.09
687.931	139.97
688.338	139.13
688.745	136.24
689.152	134.2
689.559	134.06
689.966	135.69
690.373	134.8
690.78	134.42
691.187	133.63
691.593	132.02
692	128.16
692.407	127.38
692.813	130.81
693.22	129.75
693.626	127.54
694.032	126.28
694.439	126.05
694.845	124.22
695.251	123.87
695.657	124.59
696.063	124.85
696.469	124.55
696.875	124.65
697.281	119.36
697.687	117.97
698.093	118.14
698.498	119.36
698.904	116.36
699.31	116.86
699.715	120.86
700.12	122.01
700.526	121.51
700.931	121.66
701.337	121.81
701.742	121.56
702.147	121.96
702.552	120.18
702.957	117.88
703.362	117.31
703.767	116.48
704.172	112.49
704.577	108.51
704.981	107.22
705.386	107.43
705.791	104.89
706.195	103.67
706.6	103.28
707.004	103
707.408	101.06
707.813	102.32
708.217	101.38
708.621	100.29
709.025	102.04
709.43	103.89
709.834	104.22
710.237	104.87
710.641	105.22
711.045	105.18
711.449	107.13
711.853	112.58
712.256	111.08
712.66	110.69
713.064	111.49
713.467	113.28
713.87	113.31
714.274	114.63
714.677	117.04
715.08	120.67
715.484	126.15
715.887	133.63
716.29	131.52
716.693	138.71
717.096	145.09
717.499	148.56
717.901	145.36
718.304	146.29
718.707	145.11
719.109	141.38
719.512	138.44
719.915	137.18
720.317	131.39
720.719	132.41
721.122	128.73
721.524	127.32
721.926	131.62
722.328	134.86
722.731	131.33
723.133	130.16
723.535	134.9
723.937	135.27
724.338	133.94
724.74	137.54
725.142	209.9
725.544	215.55
725.945	234.36
726.347	228.88
726.748	228.51
727.15	230.14
727.551	235.11
727.952	231.29
728.354	228.77
728.755	226.4
729.156	220.65
729.557	148.77
729.958	139.5
730.359	119.59
730.76	118.12
731.161	117.03
731.562	115.3
731.962	109.88
732.363	109.78
732.763	109.41
733.164	108.37
733.564	108.11
733.965	106.18
734.365	105.71
734.766	106.58
735.166	105.37
735.566	104.77
735.966	105.94
736.366	106.62
736.766	103.96
737.166	103.5
737.566	103.33
737.966	102.77
738.365	103.73
738.765	105.45
739.165	103.48
739.564	103.29
739.964	101.78
740.363	99.44
740.763	98.27
741.162	100.56
741.561	100.95
741.96	99.8
742.36	98.52
742.759	98.02
743.158	96.01
743.557	95.76
743.955	95.62
744.354	94.99
744.753	94.76
745.152	96.01
745.55	94.42
745.949	93.4
746.348	94.27
746.746	93.17
747.144	96.98
747.543	96.9
747.941	97.59
748.339	95.19
748.737	96.21
749.136	97.73
749.534	96.77
749.932	99.53
750.33	100.19
750.727	99.28
751.125	101.92
751.523	98.2
751.921	103.21
752.318	103.47
752.716	107.83
753.113	106.96
753.511	106.78
753.908	108
754.305	111.51
754.703	113.1
755.1	116.83
755.497	117.41
755.894	119.74
756.291	119.04
756.688	125.62
757.085	131.55
757.482	145.8
757.878	164.56
758.275	177.86
758.672	185.07
759.068	196.34
759.465	211.95
759.861	234
760.258	261.44
760.654	274.59
761.05	275.89
761.447	262.46
761.843	242.5
762.239	221.92
762.635	208.45
763.031	199.93
763.427	191.31
763.822	181.03
764.218	170
764.614	155.67
765.01	146.98
765.405	136.3
765.801	133.46
766.196	127.58
766.592	120.94
766.987	118.08
767.382	113.65
767.778	110.11
768.173	106.44
768.568	104.56
768.963	103.02
769.358	104.04
769.753	106.1
770.148	105.88
770.542	105.56
770.937	103.71
771.332	106.26
771.726	107.01
772.121	112.33
772.515	114.78
772.91	113.59
773.304	114.78
773.699	112.78
774.093	112.22
774.487	112.07
774.881	112.58
775.275	114.8
775.669	111.88
776.063	112.32
776.457	109.97
776.851	107.62
777.245	109.48
777.638	111.08
778.032	111.58
778.425	112.69
778.819	118.82
779.212	120.91
779.606	122.04
779.999	121.03
780.392	124.13
780.786	123.25
781.179	125.34
781.572	127.72
781.965	127.98
782.358	128.54
782.751	128.34
783.143	120.96
783.536	121.81
783.929	118.97
784.322	124.03
784.714	121.24
785.107	122.29
785.499	124.08
785.891	124.66
786.284	123.86
786.676	126.91
787.068	129.44
787.46	132.54
787.852	130.44
788.245	131.93
788.636	129.29
789.028	133.26
789.42	135.7
789.812	135.97
790.204	135.29
790.595	139.76
790.987	136.16
791.378	134.63
791.77	133.88
792.161	136.22
792.553	140.08
792.944	138.6
793.335	133.7
793.726	136.42
794.117	140.49
794.508	141.06
794.899	136.86
795.29	138.68
795.681	139.44
796.072	139.13
796.463	165.83
796.853	169.76
797.244	174.87
797.634	177.18
798.025	174.77
798.415	169.52
798.806	175.86
799.196	182.18
799.586	188.2
799.976	190.5
800.366	195.93
800.756	167.29
801.146	162.88
801.536	163.66
801.926	164.42
802.316	167.46
802.706	171.19
803.095	168.15
803.485	167.25
803.874	162.82
804.264	165.11
804.653	166.12
805.043	177.13
805.432	183.84
805.821	186.06
806.21	189.02
806.599	188.25
806.988	191.57
807.377	188.08
807.766	190.55
808.155	197.77
808.544	192.16
808.933	191.14
809.321	186.92
809.71	185.96
810.098	186.48
810.487	190.92
810.875	200.35
811.264	199.07
811.652	225.02
812.04	225.76
812.428	230.7
812.816	245.8
813.204	253.41
813.592	260.42
813.98	269.03
814.368	274.97
814.756	290.08
815.144	287.37
815.531	304.38
815.919	284.57
816.306	296.64
816.694	289.31
817.081	290.36
817.469	300.63
817.856	299.21
818.243	303.26
818.63	302.63
819.017	295.43
819.404	300.52
819.791	301.37
820.178	311.29
820.565	315.47
820.952	346.73
821.339	339.47
821.725	342.79
822.112	334.52
822.498	335.08
822.885	337.58
823.271	333.75
823.657	335.28
824.044	335.91
824.43	334.78
824.816	348.35
825.202	333.7
825.588	351.91
825.974	352.42
826.36	362.75
826.746	363.82
827.132	369.77
827.517	377.28
827.903	362.55
828.289	371.4
828.674	359.52
829.06	344.23
829.445	345.31
829.83	352.21
830.216	361.31
830.601	371.24
830.986	373.39
831.371	374.88
831.756	385.48
832.141	388.44
832.526	385.71
832.911	390.89
833.295	388.11
833.68	398.68
834.065	390.35
834.449	370.03
834.834	368.74
835.218	365.88
835.603	376.16
835.987	365.77
836.371	377.51
836.755	376.95
837.139	379.66
837.524	380.24
837.908	374.29
838.291	376.86
838.675	375.7
839.059	378.46
839.443	368.78
839.827	356.24
840.21	360.2
840.594	358.8
840.977	359.01
841.361	365.94
841.744	372.47
842.127	369.92
842.511	366.08
842.894	376.18
843.277	379.11
843.66	392.72
844.043	397.31
844.426	391.02
844.809	376.85
845.191	378.39
845.574	364.4
845.957	359.37
846.339	359.96
846.722	354.08
847.104	356.68
847.487	351.15
847.869	352.17
848.252	360.35
848.634	366.04
849.016	372.56
849.398	371.63
849.78	388.95
850.162	388.47
850.544	394.26
850.926	402.67
851.307	400.17
851.689	410.12
852.071	415.4
852.452	421.46
852.834	417.33
853.215	433.77
853.597	436.34
853.978	449.92
854.359	465.06
854.741	445.75
855.122	442.16
855.503	436.48
855.884	436.52
856.265	439.2
856.646	432.56
857.026	428.14
857.407	421.12
857.788	423.63
858.169	419.7
858.549	410.72
858.93	423.44
859.31	429.48
859.69	439.66
860.071	433.56
860.451	427.77
860.831	416.67
861.211	434.95
861.591	441.98
861.971	439.33
862.351	445.3
862.731	443.47
863.111	451.29
863.491	459.15
863.87	469.63
864.25	474.3
864.629	475.51
865.009	480.4
865.388	504.64
865.768	539.19
866.147	545.51
866.526	519.11
866.905	527.45
867.284	543.8
867.663	508.6
868.042	484.79
868.421	479.96
868.8	473.5
869.179	487.03
869.558	451.09
869.936	421.47
870.315	420.1
870.693	435.42
871.072	461.6
871.45	440.3
871.828	452.77
872.207	480.74
872.585	479.82
872.963	490.97
873.341	483.57
873.719	490.66
874.097	481.43
874.475	491.83
874.853	495.2
875.23	478.36
875.608	506.05
875.986	544.22
876.363	521.09
876.741	548.73
877.118	550.74
877.495	571.03
877.873	576.93
878.25	608.74
878.627	586.62
879.004	590.44
879.381	581.6
879.758	578.51
880.135	542.49
880.512	575.21
880.889	541.3
881.265	527.67
881.642	515.17
882.019	516.1
882.395	517.92
882.772	547.11
883.148	529.38
883.524	533.28
883.901	524.68
884.277	526.99
884.653	515.72
885.029	544.61
885.405	617.23
885.781	617.9
886.157	595.6
886.532	594.57
886.908	586.6
887.284	645.09
887.659	670.62
888.035	682.65
888.411	697.25
888.786	709.7
889.161	727.1
889.537	694.6
889.912	711.67
890.287	714.12
890.662	725.46
891.037	701.39
891.412	656.95
891.787	645.77
892.162	625.82
892.536	642.23
892.911	625.82
893.286	604.65
893.66	584.51
894.035	603.41
894.409	645.26
894.784	627.02
895.158	641.35
895.532	680.09
895.906	699.2
896.281	718.98
896.655	721.52
897.029	815.73
897.402	851.22
897.776	933.55
898.15	931.65
898.524	928.21
898.898	934.22
899.271	1059.97
899.645	922.38
900.018	882.97
900.392	914.65
900.765	899.4
901.138	829.42
901.511	812.03
901.884	768.63
902.258	714.86
902.631	750.27
903.003	862.62
903.376	768.99
903.749	869.74
904.122	923.47
904.495	999.53
904.867	1019.53
905.24	895.99
905.612	834.22
905.985	827.19
906.357	856.96
906.729	811.41
907.102	701.29
907.474	678.59
907.846	689.31
908.218	682.89
908.59	633.24
908.962	610.8
909.334	664.53
909.705	711.69
910.077	700.61
910.449	722.37
910.82	747
911.192	812.74
911.563	848.14
911.935	873.76
912.306	857.69
912.677	853.41
913.048	859.95
913.419	912.03
913.79	896.76
914.161	949.92
914.532	935.67
914.903	848.92
915.274	811.71
915.645	797.01
916.015	706.68
916.386	691.53
916.756	736.5
917.127	739.19
917.497	678
917.868	758.51
918.238	726.54
918.608	728.46
918.978	748.28
919.348	776.24
919.718	803.25
920.088	779.67
920.458	830.31
920.828	864.49
921.198	840.5
921.567	889.02
921.937	680.55
922.306	675.11
922.676	725.17
923.045	628.03
923.415	613.76
923.784	556.55
924.153	593.6
924.522	590.91
924.891	557.16
925.26	582.34
925.629	556.4
925.998	628.14
926.367	622.49
926.736	623.03
927.104	711.86
927.473	747.89
927.842	891.43
928.21	832.23
928.578	840.24
928.947	812.77
929.315	839.86
929.683	1042.9
930.051	1055.36
930.42	1226.67
930.788	1026.53
931.156	1029.5
931.523	1013.3
931.891	956.42
932.259	939.15
932.627	1108.72
932.994	1547.84
933.362	1298.57
933.729	1093.11
934.097	1056.38
934.464	917.95
934.831	1017.07
935.199	983.39
935.566	939.32
935.933	912.37
936.3	1110.91
936.667	852.91
937.034	879.78
937.401	841.99
937.767	723.6
938.134	637.83
938.501	874.77
938.867	993.69
939.234	1675.21
939.6	1351.39
939.967	1594.2
940.333	1082.5
940.699	918.6
941.065	597.59
941.431	830
941.798	873.29
942.163	1195.28
942.529	708.76
942.895	597.66
943.261	402.67
943.627	558.67
943.992	487.51
944.358	489.43
944.723	542.5
945.089	549.72
945.454	512.39
945.82	506.85
946.185	474.79
946.55	587.69
946.915	538.85
947.28	619.61
947.645	537.76
948.01	508.72
948.375	547.79
948.74	605.91
949.104	690.98
949.469	878.77
949.834	1528.39
950.198	1553.26
950.562	945.43
950.927	837.06
951.291	1006.15
951.655	847.26
952.02	750.92
952.384	558.21
952.748	536.83
953.112	590.52
953.476	540.99
953.839	508.03
954.203	520.47
954.567	630.93
954.931	897.33
955.294	797.14
955.658	808.58
956.021	1417.52
956.385	2309.05
956.748	3258.43
957.111	4541.23
957.474	4933.59
957.837	5369.18
958.2	3685.41
958.563	1335.16
958.926	966.54
959.289	1401.87
959.652	1576.53
960.015	1177.91
960.377	1748.71
960.74	1949.92
961.102	3267.33
961.465	3853.66
961.827	2656.17
962.189	5059.47
962.552	3631.82
962.914	2902.56
963.276	1920.23
963.638	1576.25
964	1518.12
964.362	1024.01
964.724	959.11
965.085	694.79
965.447	558.66
965.809	506.32
966.17	503.48
966.532	507.83
966.893	483.16
967.255	432.45
967.616	502.73
967.977	413.39
968.338	459.84
968.699	410.74
969.061	410.57
969.421	418.28
969.782	477.3
970.143	424.62
970.504	483.46
970.865	553.77
971.225	601.2
971.586	580.35
971.946	798.93
972.307	662.45
972.667	818.74
973.027	851.29
973.388	984.79
973.748	678.65
974.108	741.4
974.468	874.23
974.828	765
975.188	544.73
975.548	509.41
975.907	445.3
976.267	504.51
976.627	463.73
976.986	464.6
977.346	432.25
977.705	408.36
978.064	368
978.424	329.91
978.783	283.1
979.142	320.09
979.501	321.27
979.86	340.48
980.219	317.91
980.578	361.27
980.937	401.43
981.296	365.02
981.654	353.99
982.013	506.29
982.371	677.25
982.73	651.01
983.088	750.84
983.447	751.89
983.805	1128.58
984.163	2454.97
984.521	2765.07
984.879	3888.72
985.237	-6731.91
985.595	7570.52
985.953	1809.23
986.311	908.84
986.669	551.93
987.026	436.38
987.384	551.63
987.741	516.27
988.099	441.84
988.456	362.08
988.814	377.95
989.171	319.56
989.528	247.74
989.885	257.63
990.242	242.08
990.599	248.49
990.956	217.2
991.313	161.76
991.67	133.84
992.027	201.09
992.383	178.14
992.74	165.67
993.096	187.32
993.453	197.26
993.809	197.71
994.165	247.31
994.522	326.68
994.878	357.98
995.234	453.51
995.59	448.59
995.946	304.46
996.302	362.16
996.658	370.98
997.013	374.37
997.369	528.27
997.725	765.01
998.08	492.11
998.436	477.85
998.791	665.13
999.147	648.85
999.502	727.8
999.857	475.6
1000.212	784.48
1000.567	1176.8
1000.922	731.11
1001.277	409.66
1001.632	288.06
1001.987	389.33
1002.342	294.69
1002.696	243.33
1003.051	233.68
1003.406	311.38
1003.76	317.76
1004.114	303.4
1004.469	284.05
1004.823	217.81
1005.177	208.65
1005.531	178.9
1005.885	184.28
1006.239	230.61
1006.593	303.89
1006.947	405.46
1007.301	289.79
1007.655	320.69
1008.008	243.71
1008.362	247.15
1008.715	345.19
1009.069	327.29
1009.422	571.58
1009.776	985.96
1010.129	558.47
1010.482	443.64
1010.835	312.65
1011.188	556.6
1011.541	508.74
1011.894	-2633.3
1012.247	8171.03
1012.6	584.98
1012.952	460.87
1013.305	127.38
1013.657	126.4
1014.01	126.03
1014.362	104.47
1014.715	166.13
1015.067	175.3
1015.419	182.75
1015.771	182.04
1016.123	193.01
1016.475	204.05
1016.827	200.33
1017.179	244.21
1017.531	214.78
1017.883	194.16
1018.234	252.31
1018.586	271.77
1018.938	348.72
1019.289	468.62
1019.64	432.17
1019.992	319.66
1020.343	284.2
1020.694	285.13
1021.045	231.3
1021.396	261.23
1021.747	343.04
1022.098	280.6
1022.449	201.43
1022.8	145.32
1023.151	125.13
1023.501	168.27
1023.852	178.65
1024.202	213.81
1024.553	190.22
1024.903	222.16
1025.253	253.75
1025.604	241.62
1025.954	283.98
1026.304	313.01
1026.654	326.44
1027.004	404.54
1027.354	465.89
1027.703	625.37
1028.053	628.97
1028.403	1333.11
1028.753	1383.46
1029.102	801.74
1029.452	476.52
1029.801	-12.87
1030.15	-8.09
1030.499	-46.39
897.758	2775.47
901.051	2729.81
904.343	2765.94
907.636	2765.13
910.928	2832.74
914.22	2738.01
917.511	2749.01
920.803	2812.47
924.094	2837.14
927.384	2810.77
930.675	2773.06
933.965	2722.2
937.255	2731.94
940.544	2698.69
943.834	2625.56
947.123	2567.57
950.411	2667.02
953.7	2634.78
956.988	2602.59
960.276	2536.77
963.563	2623.54
966.851	2613.66
970.138	2675.56
973.424	2663.24
976.711	2611.93
979.997	2756.73
983.283	2789.02
986.568	2686.94
989.853	2709.71
993.138	2733.24
996.423	2817.56
999.708	2746.79
1002.992	2819.92
1006.275	2642.42
1009.559	2693.96
1012.842	2810.05
1016.125	2740.35
1019.408	2718.97
1022.69	2810.32
1025.972	2821.93
1029.254	2793.17
1032.536	2718.59
1035.817	2749.45
1039.098	2683.66
1042.379	2843.08
1045.659	2834.7
1048.939	2764.31
1052.219	2783.09
1055.498	2799.26
1058.778	2777.92
1062.057	2766.44
1065.335	2787.2
1068.614	2807.36
1071.892	2784.71
1075.17	2864.62
1078.447	2843.85
1081.724	2834.11
1085.001	2872.6
1088.278	2844.98
1091.554	2854.78
1094.83	2853.76
1098.106	2874.15
1101.382	2920.61
1104.657	2920.32
1107.932	2915.84
1111.206	2875.31
1114.481	2835.49
1117.755	2838.97
1121.029	2811.08
1124.302	2860.93
1127.575	2809.53
1130.848	2794.84
1134.121	2754.06
1137.393	2701.01
1140.665	2766.62
1143.937	2738.15
1147.208	2704.7
1150.48	2737.91
1153.75	2722.11
1157.021	2760.38
1160.291	2729.45
1163.561	2770.53
1166.831	2766.66
1170.101	2799.62
1173.37	2776.33
1176.639	2717.74
1179.907	2781.88
1183.176	2780.71
1186.444	2789.79
1189.711	2816.42
1192.979	2826.75
1196.246	2785.78
1199.513	2803.97
1202.78	2799.24
1206.046	2806.73
1209.312	2833.58
1212.578	2859.72
1215.843	2806.22
1219.108	2785.35
1222.373	2809.14
1225.638	2772.43
1228.902	2756.21
1232.166	2726.6
1235.43	2708.62
1238.693	2731.32
1241.956	2733.17
1245.219	2768.78
1248.482	2762.84
1251.744	2758.27
1255.006	2910.14
1258.268	2867.08
1261.529	2810.1
1264.79	2817.14
1268.051	2917.72
1271.312	2933.43
1274.572	2892.12
1277.832	2880.68
1281.092	2872.43
1284.351	2841.92
1287.61	2817.46
1290.869	2731.25
1294.128	2702.13
1297.386	2799.37
1300.644	2786.3
1303.902	2797.76
1307.159	2660.59
1310.416	2715.63
1313.673	2738.46
1316.93	2722.7
1320.186	2770.84
1323.442	2818.17
1326.697	2800.72
1329.953	2800.36
1333.208	2818.66
1336.463	2804.66
1339.717	2740.67
1342.972	2885.42
1346.226	2863.35
1349.479	2794.67
1352.733	2765.59
1355.986	2798.46
1359.238	2775.18
1362.491	2780.52
1365.743	2784.07
1368.995	2783.83
1372.247	2802.11
1375.498	2828.74
1378.749	2836.16
1382	2799.67
1385.251	2856.53
1388.501	2823.17
1391.751	2802.01
1395	2779.91
1398.25	2815.01
1401.499	2823.2
1404.748	2747.58
1407.996	2739.23
1411.244	2723.94
1414.492	2703.75
1417.74	2684.02
1420.987	2696.76
1424.234	2753.77
1427.481	2740.44
1430.728	2796.37
1433.974	2771.3
1437.22	2788.97
1440.465	2789.52
1443.711	2744.88
1446.956	2783.64
1450.201	2775.2
1453.445	2819.57
1456.689	2793.58
1459.933	2806.01
1463.177	2832.42
1466.42	2806.96
1469.663	2785.2
1472.906	2772.27
1476.148	2855.51
1479.391	2810.31
1482.633	2780.47
1485.874	2786.26
1489.115	2765.51
1492.356	2772.35
1495.597	2743.94
1498.838	2747.47
1502.078	2709.87
1505.318	2655.24
1508.557	2695.91
1511.797	2661.3
1515.036	2735.74
1518.274	2722.96
1521.513	2698.78
1524.751	2720.51
1527.989	2728.75
1531.227	2738.94
1534.464	2723.13
1537.701	2749.58
1540.938	2767.84
1544.174	2722.6
1547.41	2721.83
1550.646	2758.5
1553.882	2789.91
1557.117	2838.27
1560.352	2849.43
1563.587	2806.46
1566.821	2764.47
1570.055	2803.46
1573.289	2769.4
1576.523	2845.56
1579.756	2846.37
1582.989	2864.31
1586.222	2822.79
1589.454	2863.53
1592.686	2828.46
1595.918	2854.63
1599.15	2837.88
1602.381	2920.65
1605.612	2867.36
1608.843	2957.8
1612.073	2869.49
1615.303	2854.64
1618.533	2840.67
1621.762	2846.68
1624.992	2837.13
1628.221	2821.63
1631.449	2805.8
1634.678	2868.07
1637.906	2818.4
1641.134	2858.24
1644.361	2810.5
1647.588	2805.76
1650.815	2820.34
1654.042	2805.09
1657.269	2834.42
1660.495	2778.46
1663.72	2808.17
1666.946	2774.03
1670.171	2713.4
1673.396	2689.01
1676.621	2684.72
1679.845	2709.63
1683.069	2729.49
1686.293	2776.02
1689.517	2742.75
1692.74	2668.8
1695.963	2700.69
1699.185	2708.05
1702.408	2684.59
1705.63	2728.39
1708.852	2739.55
1712.073	2710.24
1715.294	2693.13
1718.515	2759.07
1721.736	2703.9
1724.956	2704.68
1728.176	2732.89
1731.396	2754.87
1734.616	2747.76
1737.835	2773.48
1741.054	2756.1
1744.272	2749.52
1747.491	2781.4
1750.709	2840.88
1753.927	2736.27
1757.144	2787.51
1760.361	2823.24
1763.578	2821.5
1766.795	2762.3
1770.011	2776.32
1773.227	2818.79
1776.443	2854.38
1779.658	2898.53
1782.874	2843.47
1786.089	2820.16
1789.303	2824.19
1792.518	2833
1795.732	2822.89
1798.945	2828.85
1802.159	2881.61
1805.372	2774.54
1808.585	2758.64
1811.797	2760.23
1815.01	2815
1818.222	2812.47
1821.434	2786.05
1824.645	2847.85
1827.856	2826.8
1831.067	2862.25
1834.278	2831.43
1837.488	2814.77
1840.698	2970.66
1843.908	2894.78
1847.117	2857.89
1850.326	2735.87
1853.535	2851.94
1856.744	2884.95
1859.952	2802.71
1863.16	2804.6
1866.368	2835.37
1869.575	2937.39
1872.782	2831.95
1875.989	2777.15
1879.196	2873.61
1882.402	2872.12
1885.608	2919.9
1888.814	2817.4
1892.019	2712.73
1895.224	2768.74
1898.429	2756.5
1901.634	2734.87
1904.838	2716.41
1908.042	2767.61
1911.246	2774.59
1914.449	2699.12
1917.652	2701.05
1920.855	2682.64
1924.058	2739.54
1927.26	2776.34
1930.462	2804.21
1933.664	2827.99
1936.865	2762.8
1940.066	2767.75
1943.267	2714.14
1946.467	2731.11
1949.668	2760.66
1952.868	2828.16
1956.067	2803.18
1959.267	2728.83
1962.466	2757.61
1965.665	2741.51
1968.863	2738.61
1972.061	2754.92
1975.259	2756.39
1978.457	2839.03
1981.654	2792.62
1984.852	2791.55
1988.048	2719
1991.245	2723.99
1994.441	2811.04
1997.637	2800.08
2000.833	2782.23
2004.028	2824.72
2007.223	2878
2010.418	2851.9
2013.613	2812.08
2016.807	2779.8
2020.001	2790.88
2023.194	2837.13
2026.388	2812.83
2029.581	2756.46
2032.774	2803.34
2035.966	2804.2
2039.158	2729.08
2042.35	2757.97
2045.542	2685.77
2048.733	2789.85
2051.924	2819.55
2055.115	2846.37
2058.306	2786.23
2061.496	2847.58
2064.686	2916.21
2067.875	2828.53
2071.065	2850
2074.254	2880.27
2077.442	2831.62
2080.631	2922.53
2083.819	2805.55
2087.007	2784.19
2090.195	2753.4
2093.382	2790.99
2096.569	2768.21
2099.756	2720.01
2102.942	2744.23
2106.128	2746.45
2109.314	2735.45
2112.5	2691.66
2115.685	2671.3
2118.87	2682.31
2122.055	2748.05
2125.239	2711.88
2128.424	2682.47
2131.608	2796.49
2134.791	2775.96
2137.974	2838.28
2141.157	2822.87
2144.34	2772.48
2147.523	2794.43
2150.705	2804.17
2153.887	2782.66
2157.068	2727.64
2160.25	2737.11
2163.431	2777.36
2166.611	2717.56
2169.792	2731.63
2172.972	2620.89
2176.152	2707.94
2179.331	2743.19
2182.511	2720.82
2185.69	2751.96
2188.868	2745.65
2192.047	2807.65
2195.225	2789.16
2198.403	2743.32
2201.58	2735.03
2204.758	2733.72
2207.935	2819.35
2211.111	2699.07
2214.288	2684.21
2217.464	2725.8
2220.64	2698.95
2223.815	2759.54
2226.991	2679.63
2230.166	2700.74
2233.34	2724.07
2236.515	2755.45
2239.689	2832.09
2242.863	2774.59
2246.036	2831.68
2249.209	2835.33
2252.382	2871.37
2255.555	2856.44
2258.727	2787.4
2261.9	2829.44
2265.071	2820.52
2268.243	2829.14
2271.414	2755.29
2274.585	2711.31
2277.756	2781.25
2280.926	2737.87
2284.096	2781.09
2287.266	2684.13
2290.436	2742.78
2293.605	2774.91
2296.774	2804.41
2299.942	2831.71
2303.111	2846.58
2306.279	2897.04
2309.447	2882.17
2312.614	2857.39
2315.781	2878.43
2318.948	2844.48
2322.115	2885.05
2325.281	2787.81
2328.447	2809.38
2331.613	2783.94
2334.779	2751.3
2337.944	2757.05
2341.109	2752.53
2344.274	2738.17
2347.438	2701.06
2350.602	2726.64
2353.766	2745.08
2356.929	2729.24
2360.092	2772.49
2363.255	2721.59
2366.418	2646.23
2369.58	2769.68
2372.742	2534.34
2375.904	2555.33
2379.066	2526.49
2382.227	2568.84
2385.388	2531.2
2388.548	2452.16
2391.709	2511.66
2394.869	2487.05
2398.029	2596.01
2401.188	2617.01
2404.347	2542.99
2407.506	2701.73
2410.665	2726.27
2413.823	2737.95
2416.981	2687.59
2420.139	2723.55
2423.296	2777.53
2426.453	2748.99
2429.61	2776.11
2432.767	2701
2435.923	2737.29
2439.079	2696.18
2442.235	2748.03
2445.391	2673.64
2448.546	2699.14
2451.701	2755.38
2454.855	2719.72
2458.009	2779.36
2461.163	2785.8
2464.317	2737.75
2467.471	2777.11
2470.624	2815.41
2473.777	2792.18
2476.929	2807.32
2480.082	2833.37
2483.234	2797.22
2486.385	2749.24
2489.537	2742.05
2492.688	2697.65
2495.839	2711.77
2498.989	2723.87
2502.14	2705.38
2505.29	2688.33
2508.439	2715.51
2511.589	2632.02
2514.738	2645.93
2517.887	2679.9
2521.035	2741.93
2524.183	2729.83
2527.331	2707.11
2530.479	2680.09
2533.627	2693.09
