Data from N_3_DEC_OH_4N_Splice17_13-27-02-568.txt Node
Date: Sat Mar 14 13:27:02 EDT 2020
User: sa697716
Spectrometer: FLMS03696
Trigger mode: 0
Integration Time (sec): 3.180400E-1
Scans to average: 20
Electric dark correction enabled: true
Nonlinearity correction enabled: true
Boxcar width: 5
XAxis mode: Wavelengths
Number of Pixels in Spectrum: 2048
>>>>>Begin Spectral Data<<<<<
187.83	-372481.78
188.298	2640.81
188.766	1444.5
189.233	1299.87
189.701	1913.37
190.169	2654.61
190.636	1010.6
191.104	877.7
191.571	148.45
192.039	-54.54
192.506	-125.07
192.974	400.62
193.441	-789.93
193.908	-294.78
194.375	-33.38
194.842	102.24
195.31	182.05
195.777	214.53
196.244	453.92
196.711	453.28
197.177	549.46
197.644	732.47
198.111	1308.43
198.578	1872.99
199.045	1505.01
199.511	2429.4
199.978	2798.73
200.445	2414.84
200.911	2667.2
201.378	2976.34
201.844	2707.16
202.31	4597.41
202.777	4808.43
203.243	2655.78
203.709	2523.58
204.176	3029.68
204.642	2505.98
205.108	2347.68
205.574	1900.13
206.04	1734.24
206.506	1615.21
206.972	1527.79
207.438	1482.98
207.903	1691.28
208.369	1503.74
208.835	1488.23
209.301	1572.01
209.766	1598.49
210.232	1586.42
210.697	1954.54
211.163	2405.44
211.628	3635.1
212.094	3057.46
212.559	3826.69
213.024	2378.65
213.49	2884.95
213.955	2826.06
214.42	2721.98
214.885	2550.74
215.35	2450.63
215.815	2418.44
216.28	2546.91
216.745	2084.96
217.21	2270.15
217.675	2066.23
218.14	2344.86
218.604	2619.24
219.069	3018.95
219.534	3210.47
219.998	3730.3
220.463	4530.85
220.927	5546.93
221.392	5259.1
221.856	5348.86
222.32	6742.97
222.785	8340.89
223.249	10523.24
223.713	11793.66
224.177	11812.91
224.642	15155.74
225.106	18699.82
225.57	20497.67
226.034	15283.36
226.497	23263.48
226.961	20980.86
227.425	24470.84
227.889	27140.18
228.353	27142.76
228.816	56101.04
229.28	53614.87
229.744	45168.3
230.207	27436.02
230.671	26948.66
231.134	44512.96
231.597	51417.07
232.061	51416.51
232.524	50118.03
232.987	34590.49
233.45	31093.99
233.914	27861.83
234.377	28553.47
234.84	26138.42
235.303	30812.33
235.766	34419.55
236.229	35550.28
236.691	22342.15
237.154	25093.44
237.617	18884.86
238.08	19318.95
238.542	22610.5
239.005	16138.57
239.468	16019.59
239.93	15089.92
240.393	13715.81
240.855	12023.88
241.317	12323.91
241.78	14993.09
242.242	15487.65
242.704	16725.42
243.166	14552.36
243.629	13212.51
244.091	15241.04
244.553	16686.62
245.015	17937.18
245.477	23194.1
245.939	33991.34
246.4	36048.36
246.862	35016.42
247.324	33053.04
247.786	36965.69
248.247	48473.05
248.709	50025.74
249.17	37370.47
249.632	35240.62
250.093	40911.33
250.555	35294.3
251.016	21525.63
251.477	20407.35
251.939	22029.89
252.4	23089.34
252.861	27418.9
253.322	25487.35
253.783	30318.75
254.244	39318.41
254.705	30976.16
255.166	27500.64
255.627	27092.09
256.088	38214.76
256.549	40641.57
257.009	35000.22
257.47	42489.84
257.931	34613.87
258.391	25953.72
258.852	26741.18
259.312	28032.15
259.773	34595.96
260.233	29232.38
260.694	24654.38
261.154	27938.25
261.614	22414.37
262.074	20033.97
262.534	20809.89
262.994	19593.97
263.455	26073.31
263.915	21986.33
264.374	20686.38
264.834	22570.91
265.294	25001.45
265.754	25870.23
266.214	24475.87
266.673	22895.65
267.133	28895.88
267.593	28623.3
268.052	35034.51
268.512	30410.16
268.971	36652.13
269.431	40175.72
269.89	35978.65
270.349	53876.72
270.809	60072.07
271.268	54044.01
271.727	121174.28
272.186	78395.33
272.645	58805.2
273.104	42416.13
273.563	61443.21
274.022	48253.78
274.481	41078.07
274.94	31616.14
275.399	23505.22
275.857	27365.5
276.316	36979.17
276.775	32914.29
277.233	32420.57
277.692	30314.37
278.15	34284.6
278.609	35300.56
279.067	32684.78
279.525	30384.18
279.984	39282.36
280.442	47197.93
280.9	46575.35
281.358	30624.12
281.816	28524.02
282.274	27909.01
282.732	28863.53
283.19	28982.55
283.648	24987.61
284.106	26583.7
284.564	26957.7
285.021	24967.41
285.479	18586.16
285.937	16857.81
286.394	14790.43
286.852	15216.47
287.309	15987.02
287.767	15439.58
288.224	14682.76
288.682	16109.14
289.139	17706.43
289.596	16209.57
290.053	16843.01
290.511	21258.08
290.968	25787.62
291.425	34997.72
291.882	29158.65
292.339	25383.5
292.796	25163.82
293.252	23725.81
293.709	18851.08
294.166	16883.1
294.623	18675.25
295.079	17922.96
295.536	18023.56
295.992	16371.8
296.449	16194.98
296.905	16826.75
297.362	16124.1
297.818	16955.3
298.274	17594.88
298.731	17937.46
299.187	17742.52
299.643	19041.5
300.099	22995.65
300.555	25220.7
301.011	21066.08
301.467	20308.83
301.923	23750.49
302.379	23218.49
302.835	22831.61
303.291	22856.8
303.746	26006.75
304.202	32854.6
304.658	33024.86
305.113	22277.51
305.569	21805.77
306.024	23250.78
306.479	22127.66
306.935	18661.44
307.39	20382.03
307.845	18810.2
308.301	18912.34
308.756	18419.3
309.211	17755.78
309.666	18166.77
310.121	22521
310.576	22865.6
311.031	22676.08
311.486	25950.69
311.94	25928.84
312.395	34648.99
312.85	65099.29
313.305	319470.41
313.759	1654533.17
314.214	119885.12
314.668	95189.85
315.123	79970.9
315.577	28722.09
316.032	25534.69
316.486	31999.18
316.94	25226.42
317.394	17558.97
317.849	13644.71
318.303	12893.05
318.757	12159
319.211	13416.56
319.665	11704.54
320.119	11838.13
320.572	16938.87
321.026	15843.66
321.48	13182.8
321.934	14379.35
322.387	14406.88
322.841	15569.03
323.295	14033.55
323.748	16143.74
324.202	16376.12
324.655	19680.57
325.108	27535.98
325.562	19458.98
326.015	23125.2
326.468	17473.64
326.921	19519.36
327.374	18181.59
327.827	18925.97
328.28	21440.77
328.733	14389.28
329.186	12672.51
329.639	12094.19
330.092	10188.65
330.545	9696.58
330.997	9769.03
331.45	10680.96
331.903	12528.13
332.355	21566.7
332.808	20910.47
333.26	17220.43
333.713	18675.05
334.165	18786.26
334.617	25023.17
335.069	20164.82
335.522	36440.92
335.974	40343.64
336.426	36837.5
336.878	25460.28
337.33	12893.21
337.782	12626.9
338.234	15827.87
338.686	18931.68
339.137	22439.65
339.589	21134.78
340.041	16612.03
340.493	14286.54
340.944	14626.66
341.396	15777.16
341.847	13289.01
342.299	15708.66
342.75	19152.55
343.201	16679.07
343.653	19166.51
344.104	23521.36
344.555	18513.09
345.006	28731.09
345.457	22023.09
345.908	17510.21
346.359	16436.7
346.81	13374.15
347.261	14073.03
347.712	13859.58
348.163	14870.61
348.613	15095.26
349.064	14126.2
349.515	12337.76
349.965	12677.92
350.416	15241.48
350.866	16702.11
351.317	18913.46
351.767	31289.81
352.217	39594.32
352.668	32842.89
353.118	30084.86
353.568	28898
354.018	22811.15
354.468	24121.24
354.918	17280.47
355.368	15115.51
355.818	21350.51
356.268	61256.17
356.718	256765.21
357.168	63929.19
357.617	32055.07
358.067	35661.93
358.517	33502.54
358.966	39306.51
359.416	44091.19
359.865	47621.35
360.315	56635.26
360.764	26452.71
361.213	14826.87
361.663	14025.98
362.112	17284.58
362.561	27963.99
363.01	21094.11
363.459	17726.36
363.908	19180.3
364.357	16313.41
364.806	27608.31
365.255	19011.99
365.703	17424.82
366.152	17472.5
366.601	14155.83
367.05	11501.73
367.498	10450.12
367.947	10913.74
368.395	11327.26
368.844	10024.58
369.292	12027.5
369.74	8302.52
370.189	12678.23
370.637	14853.26
371.085	12804
371.533	15602.16
371.981	14996.7
372.429	14286.56
372.877	14877.87
373.325	12470.74
373.773	12667.36
374.221	11273.01
374.669	13956.18
375.116	12068.33
375.564	12133.13
376.012	13512.5
376.459	11127.17
376.907	13250.91
377.354	15957.74
377.801	14848.14
378.249	17053.81
378.696	21758.62
379.143	26274.73
379.591	27926.75
380.038	47144.03
380.485	34118.14
380.932	36837.14
381.379	33707.96
381.826	24841.24
382.273	17625.03
382.72	15386.71
383.166	14970.73
383.613	9721.3
384.06	8762.83
384.506	10144.37
384.953	7438.59
385.4	7455.45
385.846	6500.38
386.292	6309.6
386.739	6167.9
387.185	6098.42
387.631	6080.45
388.078	5899.85
388.524	6300.06
388.97	5823.45
389.416	4858.74
389.862	5163.51
390.308	4894.51
390.754	4989.36
391.2	5419.69
391.645	5548.55
392.091	5328.71
392.537	5157.37
392.983	5165.28
393.428	5108.61
393.874	5482.61
394.319	5528.23
394.765	5269.1
395.21	5430.53
395.655	5101.06
396.101	4788.46
396.546	4334.72
396.991	4368.18
397.436	4079.26
397.881	3953.09
398.326	3752.72
398.771	3565.54
399.216	3118.13
399.661	2817.87
400.106	2825.49
400.551	2911.93
400.995	2627.88
401.44	2613.32
401.885	2475.81
402.329	2520.84
402.774	2435.68
403.218	2370.77
403.663	2296.93
404.107	2375.78
404.551	2409.38
404.995	2218.86
405.44	2152.16
405.884	2201.16
406.328	2141.56
406.772	2148.8
407.216	1966.41
407.66	1910.01
408.104	1825.11
408.547	1717.31
408.991	1672.69
409.435	1616.5
409.879	1606.75
410.322	1592.67
410.766	1547.85
411.209	1483.22
411.653	1430.83
412.096	1409.01
412.54	1416.67
412.983	1413.71
413.426	1426.67
413.869	1432.59
414.312	1414.22
414.756	1366.79
415.199	1309.08
415.642	1273.59
416.085	1278.58
416.527	1275.11
416.97	1300.27
417.413	1238.2
417.856	1229.45
418.298	1221.43
418.741	1216.55
419.184	1215.59
419.626	1267.49
420.069	1272.6
420.511	1283.05
420.953	1258.88
421.396	1250.06
421.838	1221.57
422.28	1253.35
422.722	1263.22
423.164	1279.53
423.606	1258.87
424.048	1258.98
424.49	1199.45
424.932	1192.74
425.374	1177.44
425.816	1198.91
426.258	1222.44
426.699	1236.2
427.141	1215.92
427.582	1235.78
428.024	1230.92
428.465	1221.81
428.907	1194.53
429.348	1179.48
429.789	1183.19
430.231	1159.09
430.672	1174.66
431.113	1145.84
431.554	1129.02
431.995	1101.53
432.436	1060.53
432.877	1038.44
433.318	1025.85
433.759	1019.11
434.2	1023.02
434.64	1010.67
435.081	1013.93
435.522	960.89
435.962	928
436.403	908.54
436.843	922.42
437.284	905.14
437.724	882.99
438.164	885.69
438.604	869.03
439.045	837.42
439.485	807.66
439.925	793.47
440.365	776.68
440.805	768.16
441.245	764.25
441.685	739.33
442.125	736.16
442.564	743.89
443.004	731.51
443.444	735.23
443.883	740.9
444.323	740.8
444.762	747.11
445.202	765
445.641	785.92
446.081	787.05
446.52	800.08
446.959	800.22
447.398	787.48
447.837	783.78
448.276	775.07
448.716	788.81
449.154	798.9
449.593	786.6
450.032	787.48
450.471	777.81
450.91	781.08
451.349	783.04
451.787	782.45
452.226	797.77
452.664	800.9
453.103	804.45
453.541	806.25
453.98	808.83
454.418	815.87
454.856	806.12
455.295	805.61
455.733	814.58
456.171	820.21
456.609	821.82
457.047	823.12
457.485	836.95
457.923	839.29
458.361	828.3
458.798	830.34
459.236	828.41
459.674	832.76
460.111	837.09
460.549	827.93
460.987	824.97
461.424	821.48
461.862	814.98
462.299	799.01
462.736	798.03
463.173	798.6
463.611	789.48
464.048	786.09
464.485	792.73
464.922	784.23
465.359	778.88
465.796	768.36
466.233	763.06
466.67	756.55
467.106	756.03
467.543	746.96
467.98	738.88
468.416	719.01
468.853	713.39
469.29	691.08
469.726	684.45
470.162	668.34
470.599	660.34
471.035	655.39
471.471	640.91
471.907	638.59
472.344	636.75
472.78	638.91
473.216	649.52
473.652	643.92
474.088	643.4
474.523	643.42
474.959	649.78
475.395	644.63
475.831	642.5
476.266	647.56
476.702	647.6
477.138	642.48
477.573	642.41
478.008	640.37
478.444	645.21
478.879	653.49
479.314	657.46
479.75	658.97
480.185	664.15
480.62	671.39
481.055	676.14
481.49	682.78
481.925	693.66
482.36	706.88
482.795	728.87
483.229	749.22
483.664	766.32
484.099	769.63
484.534	782.66
484.968	791.03
485.403	795.26
485.837	796.27
486.271	797.14
486.706	800.16
487.14	793.55
487.574	781.83
488.009	776.71
488.443	772.27
488.877	784.26
489.311	788.82
489.745	800.89
490.179	810.49
490.613	828.55
491.046	836.76
491.48	845.58
491.914	849.63
492.348	860.78
492.781	869.72
493.215	875.38
493.648	879.83
494.082	891.31
494.515	896.71
494.948	909.7
495.382	920.38
495.815	931.91
496.248	944.6
496.681	966.43
497.114	986.4
497.547	1005.62
497.98	1027.67
498.413	1041.15
498.846	1059.86
499.279	1076.23
499.711	1089.15
500.144	1097.3
500.577	1116.28
501.009	1136.59
501.442	1155.33
501.874	1162.47
502.306	1169.65
502.739	1185.96
503.171	1211.37
503.603	1220.87
504.036	1239.37
504.468	1251.39
504.9	1272.2
505.332	1286.83
505.764	1296.56
506.196	1309.05
506.627	1331.87
507.059	1354.5
507.491	1370.53
507.923	1370.73
508.354	1394.22
508.786	1410.17
509.217	1438.31
509.649	1458.93
510.08	1486.75
510.512	1509.74
510.943	1532.62
511.374	1548.65
511.805	1576
512.237	1602.09
512.668	1645.56
513.099	1682.34
513.53	1721.25
513.961	1747.63
514.391	1791.86
514.822	1834.4
515.253	1882.26
515.684	1914.3
516.114	1952.02
516.545	1978.63
516.975	2010.73
517.406	2032.27
517.836	2029.4
518.267	2030.74
518.697	2049.92
519.127	2050.32
519.558	2055.28
519.988	2054.7
520.418	2062.45
520.848	2081.92
521.278	2086.62
521.708	2099.33
522.138	2110.31
522.567	2148.47
522.997	2177.75
523.427	2192.84
523.857	2210.56
524.286	2218.51
524.716	2233.79
525.145	2254.71
525.575	2262.82
526.004	2278.37
526.433	2269.49
526.863	2265.39
527.292	2246.02
527.721	2249.81
528.15	2253.34
528.579	2248.9
529.008	2259.95
529.437	2285.49
529.866	2299.23
530.295	2318.82
530.724	2331.26
531.152	2362.33
531.581	2377.41
532.01	2397.95
532.438	2406.15
532.867	2421.86
533.295	2444.67
533.723	2450.46
534.152	2445.45
534.58	2442.65
535.008	2418.52
535.436	2417.8
535.865	2424.4
536.293	2442.2
536.721	2461.28
537.149	2492.62
537.576	2494.61
538.004	2507.49
538.432	2515.35
538.86	2510.68
539.287	2517.36
539.715	2535.07
540.143	2538.26
540.57	2532.41
540.998	2524.83
541.425	2491.99
541.852	2462.13
542.28	2458.21
542.707	2435.89
543.134	2415.22
543.561	2408.97
543.988	2399.68
544.415	2396.75
544.842	2387.95
545.269	2378.17
545.696	2380.08
546.123	2397.48
546.549	2383.26
546.976	2366.2
547.403	2366.33
547.829	2369.18
548.256	2372.5
548.682	2368.05
549.108	2359.26
549.535	2359.46
549.961	2362.28
550.387	2344.65
550.813	2338.23
551.24	2348.09
551.666	2351.18
552.092	2339.32
552.518	2331.95
552.943	2324.56
553.369	2334.31
553.795	2343.09
554.221	2346.01
554.646	2343.88
555.072	2360.52
555.498	2369.51
555.923	2383.93
556.349	2406.22
556.774	2419.1
557.199	2424.05
557.625	2435.33
558.05	2431.25
558.475	2447.92
558.9	2449.84
559.325	2443.67
559.75	2438.53
560.175	2432.2
560.6	2426.69
561.025	2425.71
561.449	2432.04
561.874	2442.4
562.299	2451.45
562.723	2464.55
563.148	2454.74
563.572	2465.37
563.997	2482.32
564.421	2493.98
564.846	2498.86
565.27	2506.97
565.694	2509.41
566.118	2529.63
566.542	2545.73
566.966	2542.19
567.39	2541.25
567.814	2531.14
568.238	2533.86
568.662	2545.54
569.086	2555.72
569.509	2571.37
569.933	2556.5
570.357	2552.03
570.78	2527.79
571.204	2513.55
571.627	2505.02
572.05	2507.73
572.474	2513.74
572.897	2499.75
573.32	2494.92
573.743	2484.93
574.166	2464.86
574.589	2469.64
575.012	2463.18
575.435	2466.64
575.858	2459.27
576.281	2447.22
576.704	2429.42
577.126	2416.3
577.549	2407.78
577.972	2397.23
578.394	2387.08
578.817	2379.76
579.239	2357.95
579.661	2342.38
580.084	2323.27
580.506	2308.44
580.928	2308.33
581.35	2296.38
581.772	2294.42
582.194	2278.73
582.616	2264.31
583.038	2247.23
583.46	2235.65
583.882	2234.39
584.303	2243.92
584.725	2241.94
585.147	2246.17
585.568	2264.18
585.99	2284.07
586.411	2295.58
586.833	2320.04
587.254	2324.9
587.675	2348.06
588.096	2369.4
588.518	2363.97
588.939	2342.78
589.36	2340.84
589.781	2329.16
590.202	2286.69
590.623	2275.24
591.043	2273.31
591.464	2255.73
591.885	2251.82
592.305	2243.88
592.726	2224.96
593.147	2227.69
593.567	2218.71
593.987	2208.42
594.408	2202.11
594.828	2200.31
595.248	2193.15
595.669	2165.65
596.089	2155.32
596.509	2147.1
596.929	2128.63
597.349	2130.59
597.769	2116.41
598.189	2109.85
598.608	2112.39
599.028	2116.81
599.448	2119.73
599.867	2100.81
600.287	2096.28
600.706	2091.43
601.126	2077.38
601.545	2075.5
601.965	2074.95
602.384	2068.08
602.803	2073.64
603.222	2069
603.641	2061.12
604.061	2056.89
604.48	2053.61
604.898	2068.12
605.317	2078.2
605.736	2083.12
606.155	2082.44
606.574	2071.22
606.992	2081.8
607.411	2077.09
607.829	2067.56
608.248	2065.04
608.666	2064.31
609.085	2066.48
609.503	2055.72
609.921	2048.36
610.339	2054.5
610.758	2056.97
611.176	2053.54
611.594	2043.4
612.012	2040.68
612.43	2048.83
612.847	2062.18
613.265	2066.42
613.683	2076.63
614.101	2082.53
614.518	2080.36
614.936	2069.41
615.353	2049.4
615.771	2047.28
616.188	2050.47
616.606	2048.35
617.023	2039.91
617.44	2019.78
617.857	2012.33
618.274	2002.44
618.691	1995.25
619.108	1983.73
619.525	1975.77
619.942	1989.05
620.359	1995.64
620.776	1989.66
621.192	1986.12
621.609	1984.44
622.026	1996.08
622.442	2006.5
622.859	2011.65
623.275	2002.78
623.691	2011.3
624.108	2029.42
624.524	2052.26
624.94	2052.43
625.356	2069.51
625.772	2090.93
626.188	2110.25
626.604	2113.12
627.02	2106.64
627.436	2104
627.852	2113.03
628.268	2132.39
628.683	2118.28
629.099	2106.08
629.514	2098.61
629.93	2103.75
630.345	2109.53
630.761	2103.48
631.176	2110.23
631.591	2100.32
632.007	2089.56
632.422	2087.53
632.837	2069.46
633.252	2065.07
633.667	2046.42
634.082	2031.14
634.497	2010.29
634.911	1977.93
635.326	1971.01
635.741	1942.9
636.155	1925.51
636.57	1926.35
636.984	1924.24
637.399	1925.85
637.813	1924.69
638.228	1923.1
638.642	1929.55
639.056	1910.87
639.47	1910.45
639.884	1894.65
640.298	1881.85
640.712	1879.73
641.126	1859.79
641.54	1843.87
641.954	1834.88
642.368	1814.57
642.781	1798.44
643.195	1767.81
643.609	1767.23
644.022	1755.87
644.436	1748.37
644.849	1728.97
645.262	1709.12
645.676	1709.67
646.089	1700.96
646.502	1674.14
646.915	1663.62
647.328	1636.81
647.741	1633.21
648.154	1612.83
648.567	1606.77
648.98	1586.43
649.393	1584.66
649.805	1578.11
650.218	1564.94
650.631	1539.97
651.043	1531.14
651.456	1521.78
651.868	1523.22
652.28	1549.4
652.693	1569.99
653.105	1580.9
653.517	1595.55
653.929	1596.68
654.341	1604.51
654.753	1585.32
655.165	1595.46
655.577	1590.18
655.989	1582.83
656.401	1570.48
656.813	1512.94
657.224	1481.09
657.636	1435.87
658.047	1405.34
658.459	1373.77
658.87	1359.12
659.282	1340.38
659.693	1305.69
660.104	1282.13
660.515	1258.12
660.926	1250.53
661.338	1242.22
661.749	1228.15
662.159	1209.45
662.57	1198.79
662.981	1185.53
663.392	1167.7
663.803	1165.95
664.213	1157.28
664.624	1143.76
665.035	1141.11
665.445	1116.45
665.855	1099.81
666.266	1081.43
666.676	1072.28
667.086	1052.11
667.497	1045.18
667.907	1031.04
668.317	1012.09
668.727	999.53
669.137	994.9
669.547	986.61
669.956	984.78
670.366	981.42
670.776	978.55
671.186	977.69
671.595	978.16
672.005	977.39
672.414	971.7
672.824	966.77
673.233	967.9
673.642	967.66
674.052	967.12
674.461	966.05
674.87	968.81
675.279	963.64
675.688	962.95
676.097	962.88
676.506	958.15
676.915	975.64
677.323	978.96
677.732	977.37
678.141	977.26
678.549	966.81
678.958	968.4
679.366	971.09
679.775	981.91
680.183	1000.74
680.592	1014.1
681	1029.44
681.408	1028.55
681.816	1048.17
682.224	1070.87
682.632	1094.81
683.04	1146.95
683.448	1194.43
683.856	1252.23
684.264	1317.06
684.671	1380.9
685.079	1458.23
685.487	1542.12
685.894	1652.84
686.302	1748.56
686.709	1830.67
687.116	1925.96
687.524	2004.24
687.931	2071.88
688.338	2130.73
688.745	2179.09
689.152	2231.47
689.559	2297.06
689.966	2357.39
690.373	2382.22
690.78	2436.52
691.187	2523.19
691.593	2579.02
692	2624.93
692.407	2696.92
692.813	2790.17
693.22	2857.57
693.626	2926.69
694.032	2973.21
694.439	3057.4
694.845	3115.17
695.251	3193.22
695.657	3257.07
696.063	3368.3
696.469	3439.45
696.875	3502.81
697.281	3519.59
697.687	3549.65
698.093	3568
698.498	3637.39
698.904	3682.41
699.31	3767.83
699.715	3815.95
700.12	3903.96
700.526	3893.79
700.931	3953.34
701.337	3990.65
701.742	4000.64
702.147	4078.18
702.552	4086.91
702.957	4134.29
703.362	4131.49
703.767	4139.12
704.172	4164.08
704.577	4078.91
704.981	4113.38
705.386	4110.2
705.791	4075.62
706.195	4144.76
706.6	4132.5
707.004	4204.08
707.408	4143.6
707.813	4153.77
708.217	4119.65
708.621	4100.91
709.025	4194.34
709.43	4175.74
709.834	4223.39
710.237	4284.75
710.641	4247.73
711.045	4256.56
711.449	4232.34
711.853	4250.59
712.256	4282.88
712.66	4306.82
713.064	4371.06
713.467	4400.16
713.87	4507.25
714.274	4542.25
714.677	4645.44
715.08	4806.31
715.484	4971.45
715.887	5175.83
716.29	5369.62
716.693	5573.11
717.096	5812.21
717.499	5938.46
717.901	5947.55
718.304	5959.55
718.707	5967.43
719.109	5841.51
719.512	5791.79
719.915	5633.89
720.317	5559.61
720.719	5591.43
721.122	5547.45
721.524	5483.67
721.926	5427.13
722.328	5519.56
722.731	5497.39
723.133	5514.19
723.535	5702.11
723.937	5711.09
724.338	5751.51
724.74	5783.51
725.142	5720.38
725.544	5708.93
725.945	5726.62
726.347	5710.06
726.748	5693.17
727.15	5695.43
727.551	5649.92
727.952	5615.26
728.354	5579.95
728.755	5574.68
729.156	5522.31
729.557	5491.13
729.958	5360.41
730.359	5297.75
730.76	5277.45
731.161	5212.25
731.562	5185.16
731.962	5183.69
732.363	5114.57
732.763	5045.7
733.164	5077.37
733.564	5009.9
733.965	4912.23
734.365	4877.24
734.766	4900.97
735.166	4856.82
735.566	4800.47
735.966	4771.11
736.366	4762.96
736.766	4698.54
737.166	4728.27
737.566	4685.79
737.966	4656.29
738.365	4693.42
738.765	4685.87
739.165	4610.5
739.564	4583.43
739.964	4626.26
740.363	4578.13
740.763	4573.46
741.162	4561.81
741.561	4528.2
741.96	4480.92
742.36	4498.55
742.759	4500.33
743.158	4535.49
743.557	4549.45
743.955	4585.85
744.354	4538.9
744.753	4593.19
745.152	4550.03
745.55	4601.02
745.949	4592.5
746.348	4593.93
746.746	4607.62
747.144	4567.79
747.543	4543.04
747.941	4588.18
748.339	4519.18
748.737	4511.29
749.136	4502.4
749.534	4564.6
749.932	4536.95
750.33	4557.42
750.727	4607.26
751.125	4587.2
751.523	4568.4
751.921	4611.91
752.318	4578.06
752.716	4632.54
753.113	4642.54
753.511	4663.77
753.908	4662.41
754.305	4643.89
754.703	4701.93
755.1	4759.71
755.497	4814.52
755.894	4998.85
756.291	5168.94
756.688	5485.41
757.085	5906.75
757.482	6501.45
757.878	7151.29
758.275	7740.51
758.672	8547.61
759.068	9209.54
759.465	10151.05
759.861	11358.24
760.258	12762.31
760.654	13486.1
761.05	13380.27
761.447	12770.29
761.843	11893.5
762.239	10982.43
762.635	10569.85
763.031	10175.52
763.427	9603.83
763.822	9006.48
764.218	8413.61
764.614	7639.78
765.01	7124.02
765.405	6788.67
765.801	6537.11
766.196	6215.12
766.592	6034.74
766.987	5730.42
767.382	5527.34
767.778	5440.54
768.173	5315.04
768.568	5245.05
768.963	5129.38
769.358	5146.97
769.753	5104.35
770.148	5024.06
770.542	5020.27
770.937	4989
771.332	5076.18
771.726	5094.19
772.121	5035.48
772.515	5085.93
772.91	5073.11
773.304	5139.28
773.699	5075.89
774.093	5125.09
774.487	5180.25
774.881	5221.85
775.275	5217.79
775.669	5177.84
776.063	5217.22
776.457	5248.09
776.851	5175.56
777.245	5167.77
777.638	5199.78
778.032	5306.75
778.425	5271.06
778.819	5308.69
779.212	5268.23
779.606	5230.19
779.999	5247.48
780.392	5231.27
780.786	5313.19
781.179	5332.48
781.572	5372.58
781.965	5387.2
782.358	5335.75
782.751	5389.05
783.143	5339.93
783.536	5409.08
783.929	5451.57
784.322	5564.36
784.714	5595.5
785.107	5590.08
785.499	5659.3
785.891	5639.49
786.284	5618.01
786.676	5752.71
787.068	5734.11
787.46	5788.72
787.852	5806.08
788.245	5889.05
788.636	5913.61
789.028	5977.47
789.42	6015.13
789.812	6025.4
790.204	6119.66
790.595	6220.27
790.987	6035.57
791.378	6064.15
791.77	6187.34
792.161	6316.36
792.553	6367.86
792.944	6264.8
793.335	6197.28
793.726	6268.93
794.117	6354.19
794.508	6485.52
794.899	6452.56
795.29	6584.93
795.681	6639.41
796.072	6502.3
796.463	6336.97
796.853	6352.81
797.244	6502.81
797.634	6539.77
798.025	6541.3
798.415	6554.76
798.806	6643.88
799.196	6731.84
799.586	6786.67
799.976	6752.2
800.366	6980.96
800.756	7207.29
801.146	7165.87
801.536	7199.89
801.926	7276.45
802.316	7301.53
802.706	7373.57
803.095	7251.97
803.485	7349.98
803.874	7393.1
804.264	7645.16
804.653	7614.67
805.043	7756.76
805.432	7869.19
805.821	7871.52
806.21	7893.1
806.599	8012.03
806.988	8059.31
807.377	8169.92
807.766	8299.2
808.155	8569.3
808.544	8315.29
808.933	8335.39
809.321	8317.99
809.71	8603.62
810.098	8756.56
810.487	9202.9
810.875	9674.46
811.264	9691.76
811.652	9974.5
812.04	10113.83
812.428	10274.81
812.816	11018.92
813.204	11430.4
813.592	11966.21
813.98	12288.1
814.368	12201.7
814.756	12665.22
815.144	12584.12
815.531	13043.92
815.919	12968.99
816.306	13269.92
816.694	12974.66
817.081	13021.3
817.469	13358.48
817.856	13356.19
818.243	13615.44
818.63	14001.74
819.017	13602.55
819.404	13667.87
819.791	14038.34
820.178	14635.17
820.565	14873.19
820.952	15778.06
821.339	15308.98
821.725	15480.64
822.112	14765.29
822.498	14739.83
822.885	14867.43
823.271	14768.3
823.657	15170.96
824.044	15175.09
824.43	15253.45
824.816	15228.58
825.202	14816.33
825.588	15805.76
825.974	15826.77
826.36	16326.78
826.746	16356.46
827.132	16699.67
827.517	16686.76
827.903	15926.87
828.289	15965.26
828.674	15204.79
829.06	15107.88
829.445	15480.41
829.83	15815.79
830.216	16273.14
830.601	16627.79
830.986	16234.49
831.371	16099.34
831.756	16632.73
832.141	16216.08
832.526	16210.74
832.911	16482.13
833.295	16361.83
833.68	16814.87
834.065	16219.07
834.449	15340.38
834.834	15270.86
835.218	15254.7
835.603	15588
835.987	15379.09
836.371	16181.85
836.755	16076.92
837.139	16458.16
837.524	16692.29
837.908	16516.6
838.291	16572.35
838.675	16628.22
839.059	16826.5
839.443	16814.51
839.827	16584.7
840.21	17043.38
840.594	16893.5
840.977	17091.02
841.361	17072.12
841.744	17430.51
842.127	17277.73
842.511	17508.6
842.894	18077.27
843.277	18436.61
843.66	18962.61
844.043	19036.58
844.426	18258.91
844.809	17951.51
845.191	17974.4
845.574	17528.19
845.957	17172.75
846.339	17072.7
846.722	16565.32
847.104	16634.28
847.487	16461.34
847.869	16468.33
848.252	16728.85
848.634	17046.57
849.016	17296.75
849.398	17419.82
849.78	18231.44
850.162	18233.02
850.544	18622.29
850.926	19225.08
851.307	19136.57
851.689	19405.23
852.071	19835.75
852.452	20151.59
852.834	20133.56
853.215	20521.29
853.597	20664.39
853.978	20946.32
854.359	21377.81
854.741	20426.84
855.122	20323.06
855.503	20048.51
855.884	20180.62
856.265	20126.52
856.646	20235.63
857.026	19853.05
857.407	19798.33
857.788	19947.51
858.169	20232.29
858.549	19434.58
858.93	20032.31
859.31	20098.16
859.69	20301.16
860.071	19913.87
860.451	19698.28
860.831	18993.45
861.211	20118.16
861.591	20645.53
861.971	20636.5
862.351	20816.5
862.731	21187.02
863.111	21441.09
863.491	21759.17
863.87	22607.88
864.25	22946.29
864.629	22575.51
865.009	23062.17
865.388	23884.35
865.768	25588.16
866.147	25489.72
866.526	24087.64
866.905	24369.11
867.284	25756.36
867.663	24448.57
868.042	23421.19
868.421	23347.44
868.8	23735.74
869.179	23979.74
869.558	22580.74
869.936	20823.31
870.315	21185.66
870.693	21706.19
871.072	23410.37
871.45	22291.03
871.828	22577.08
872.207	23749.4
872.585	23394.09
872.963	24025.52
873.341	23202.44
873.719	22934.09
874.097	22654.54
874.475	23094.74
874.853	23616.69
875.23	22631.8
875.608	23581.41
875.986	25507.86
876.363	24388.07
876.741	25134.67
877.118	24509.68
877.495	25707.24
877.873	26121.73
878.25	27472.84
878.627	26341.01
879.004	26707.96
879.381	26586.33
879.758	25879.31
880.135	24102.1
880.512	25481.37
880.889	24788.9
881.265	24522.73
881.642	24315.49
882.019	24726.18
882.395	24226.13
882.772	25185.55
883.148	24089.33
883.524	23986.92
883.901	23847.11
884.277	24200.95
884.653	24031.49
885.029	24721.81
885.405	27371.97
885.781	27160.33
886.157	26035.67
886.532	26349.21
886.908	26329.77
887.284	29270.7
887.659	30213.93
888.035	31152.11
888.411	31928.16
888.786	32358.47
889.161	33480.8
889.537	32866.03
889.912	33902.31
890.287	33864.37
890.662	34730.3
891.037	34105.33
891.412	31792.58
891.787	31464.8
892.162	30347.46
892.536	31055.2
892.911	29871.67
893.286	29244.6
893.66	28055.02
894.035	28767.19
894.409	31323.49
894.784	30059.6
895.158	30549.8
895.532	32357.98
895.906	33253.31
896.281	34045.53
896.655	33503.91
897.029	38308.32
897.402	39871.82
897.776	44388.03
898.15	44234.99
898.524	43760.4
898.898	44355.55
899.271	49653.17
899.645	43007.74
900.018	41302.32
900.392	42829.89
900.765	43173.32
901.138	39956.64
901.511	39360.2
901.884	36143.1
902.258	33349.54
902.631	34464.61
903.003	39661.43
903.376	35787.15
903.749	40145.54
904.122	42973.86
904.495	47306.8
904.867	47905.49
905.24	41580.91
905.612	38703.2
905.985	39597.98
906.357	41407.37
906.729	39538.65
907.102	33790.23
907.474	32517.85
907.846	32721.5
908.218	32299.58
908.59	28565.06
908.962	27628.24
909.334	29754.69
909.705	31252.17
910.077	30335.19
910.449	31571.71
910.82	32445.69
911.192	35703.48
911.563	37093.57
911.935	39691.77
912.306	39741.98
912.677	41046.83
913.048	40656.84
913.419	44117.18
913.79	44398.6
914.161	47618.05
914.532	45527.48
914.903	41822.17
915.274	39703.24
915.645	39128.82
916.015	34460.03
916.386	32869.48
916.756	34980.89
917.127	36091.84
917.497	32256.93
917.868	35105.31
918.238	33363.79
918.608	34305.63
918.978	35027.2
919.348	37117.97
919.718	38338.98
920.088	36940.81
920.458	38381.71
920.828	40381.93
921.198	38289.25
921.567	40918.24
921.937	31703.42
922.306	32008.35
922.676	34529.83
923.045	28824.5
923.415	27383.78
923.784	24951.75
924.153	25658.02
924.522	25627.22
924.891	24099.87
925.26	25805.49
925.629	25175.14
925.998	28941.84
926.367	28257.71
926.736	26925.98
927.104	32065.56
927.473	34459.67
927.842	41595.65
928.21	41196.7
928.578	43286.6
928.947	40931.39
929.315	41166.99
929.683	48330.91
930.051	48722.5
930.42	56574.46
930.788	48333.57
931.156	47959.09
931.523	44938.88
931.891	41538.37
932.259	39886.05
932.627	46230.57
932.994	65419.28
933.362	54130.09
933.729	46990.65
934.097	44917.5
934.464	37968.92
934.831	43789.65
935.199	43152.15
935.566	41861.71
935.933	42345.96
936.3	51257.67
936.667	39892.68
937.034	35945.82
937.401	35512.33
937.767	30623.19
938.134	27283.63
938.501	38527.66
938.867	41075.32
939.234	69446
939.6	59193.49
939.967	65380.16
940.333	43777.48
940.699	37266.58
941.065	29910.37
941.431	39212.23
941.798	37830.61
942.163	49714.5
942.529	31001.55
942.895	28553.77
943.261	18491.91
943.627	24285.76
943.992	21241.84
944.358	21293.11
944.723	21376.44
945.089	20857.53
945.454	19297.86
945.82	20586.51
946.185	19793.66
946.55	22950.25
946.915	20574.9
947.28	24094.65
947.645	21226.18
948.01	19598.95
948.375	20413.27
948.74	24477.39
949.104	28531.97
949.469	41223.25
949.834	72882.38
950.198	69080.28
950.562	41391.97
950.927	34496.99
951.291	41494.3
951.655	35308.27
952.02	33159.2
952.384	25074.37
952.748	21837.1
953.112	21321.42
953.476	18531.43
953.839	17138.18
954.203	16965.32
954.567	21245.39
954.931	33491.17
955.294	28691.27
955.658	28882.17
956.021	49131.06
956.385	83351.12
956.748	123002.95
957.111	190793.13
957.474	214080.5
957.837	241187.7
958.2	182510.7
958.563	65604.09
958.926	44314.15
959.289	67240.29
959.652	75085.33
960.015	56367.83
960.377	80899.32
960.74	92399.2
961.102	159480.02
961.465	171358.89
961.827	91827.87
962.189	176219.91
962.552	122298.62
962.914	98122.93
963.276	63728.43
963.638	52685.04
964	52129.96
964.362	35250.72
964.724	34056.01
965.085	24281.38
965.447	19904.97
965.809	22648.87
966.17	22636.62
966.532	24487.05
966.893	22467.96
967.255	20424.72
967.616	24120.01
967.977	19309.46
968.338	21084.37
968.699	17335.29
969.061	17335.19
969.421	17468.4
969.782	19624.64
970.143	16612.6
970.504	17201.7
970.865	19548.83
971.225	20009.77
971.586	19569.59
971.946	27927.24
972.307	24198.72
972.667	31594.84
973.027	32575.3
973.388	39445.83
973.748	26850.05
974.108	29224.37
974.468	39538.29
974.828	30526.92
975.188	23450.49
975.548	21533.84
975.907	18060.79
976.267	20263.98
976.627	17035.91
976.986	17625.67
977.346	16790.32
977.705	16141.81
978.064	14685.07
978.424	12223.23
978.783	12613.62
979.142	14399.83
979.501	13783.75
979.86	14577.91
980.219	14047.47
980.578	18117.34
980.937	20294.79
981.296	18097.15
981.654	18598.93
982.013	28946.72
982.371	37563.66
982.73	35061.22
983.088	39703.78
983.447	42411.9
983.805	60566.43
984.163	126598.97
984.521	140406.39
984.879	205650.31
985.237	-334662.64
985.595	322960.09
985.953	80314.05
986.311	46352.3
986.669	26935.32
987.026	23246.65
987.384	31219.05
987.741	32293.21
988.099	23100.38
988.456	18428.72
988.814	17303.61
989.171	15014.11
989.528	14809.1
989.885	15636.18
990.242	12396.26
990.599	15445.77
990.956	12664.49
991.313	8868.73
991.67	7287.63
992.027	7727.74
992.383	6872.43
992.74	6020.2
993.096	6325.32
993.453	6553.03
993.809	6794.68
994.165	9045.49
994.522	8296.84
994.878	9122.22
995.234	11440.12
995.59	11276.38
995.946	10653.16
996.302	12131.4
996.658	13983.46
997.013	15385.8
997.369	18255.88
997.725	23360.05
998.08	15122.01
998.436	23292.65
998.791	32166.31
999.147	32064.85
999.502	34984.22
999.857	25472.43
1000.212	41619.63
1000.567	59387.22
1000.922	34308.57
1001.277	21806.6
1001.632	16193.76
1001.987	20892.7
1002.342	14991.35
1002.696	11969.25
1003.051	9556.54
1003.406	11597.57
1003.76	11565.36
1004.114	11395.57
1004.469	9592.23
1004.823	7939.94
1005.177	8575.49
1005.531	6799.39
1005.885	6029.2
1006.239	6805.14
1006.593	8549.47
1006.947	11444.46
1007.301	8559.23
1007.655	9318.29
1008.008	6845.93
1008.362	7685.49
1008.715	10973.96
1009.069	9946.94
1009.422	14978.35
1009.776	29973.46
1010.129	19878.55
1010.482	16622.76
1010.835	14081.44
1011.188	29338.68
1011.541	27646.48
1011.894	-168387.28
1012.247	495443.23
1012.6	33706.52
1012.952	21270.67
1013.305	10919.6
1013.657	7875.65
1014.01	7451.4
1014.362	6142.84
1014.715	5463.04
1015.067	4768.42
1015.419	4662.92
1015.771	4141.25
1016.123	3692.16
1016.475	3811.02
1016.827	4082.86
1017.179	4407.72
1017.531	4436.9
1017.883	4521.19
1018.234	4382.81
1018.586	5545.1
1018.938	5880.84
1019.289	8117.61
1019.64	9297.87
1019.992	8605.99
1020.343	7828.41
1020.694	6166.12
1021.045	5444.71
1021.396	6245.53
1021.747	6712.07
1022.098	8004.76
1022.449	5792.56
1022.8	5364.95
1023.151	3730.3
1023.501	3307.25
1023.852	3592.58
1024.202	3733.92
1024.553	4092.96
1024.903	3989.71
1025.253	3409.62
1025.604	3077.38
1025.954	3817.33
1026.304	4652.51
1026.654	5412.97
1027.004	7950.55
1027.354	12813.83
1027.703	12120.65
1028.053	15893.68
1028.403	23150.12
1028.753	33544.04
1029.102	45576.35
1029.452	234025.2
1029.801	10122.18
1030.15	6521.31
1030.499	5519.21
897.758	2950.98
901.051	2915.78
904.343	2954.24
907.636	2948.96
910.928	3018.75
914.22	2922.21
917.511	2933.68
920.803	3006.53
924.094	3040.24
927.384	3004.43
930.675	2970.71
933.965	2915.88
937.255	2921.16
940.544	2889.26
943.834	2791.23
947.123	2739.07
950.411	2839.56
953.7	2807
956.988	2765.95
960.276	2708.62
963.563	2807.96
966.851	2794.89
970.138	2863.41
973.424	2847.74
976.711	2795.55
979.997	2980.42
983.283	3008.78
986.568	2899.86
989.853	2929.64
993.138	2957.85
996.423	3040.12
999.708	2966.01
1002.992	3057.23
1006.275	2842.37
1009.559	2914.91
1012.842	3042.91
1016.125	2963.77
1019.408	2939.29
1022.69	3046.93
1025.972	3059.02
1029.254	3031.85
1032.536	2944.8
1035.817	2981.95
1039.098	2900.27
1042.379	3103.43
1045.659	3082.81
1048.939	3001.5
1052.219	3030.25
1055.498	3053.49
1058.778	3029.23
1062.057	3017.37
1065.335	3038.01
1068.614	3064.83
1071.892	3036.21
1075.17	3129.86
1078.447	3109.43
1081.724	3098.68
1085.001	3144.91
1088.278	3115.75
1091.554	3132.7
1094.83	3130.55
1098.106	3157.12
1101.382	3210.11
1104.657	3208.75
1107.932	3208.88
1111.206	3164.27
1114.481	3124.18
1117.755	3128.61
1121.029	3098.99
1124.302	3151.9
1127.575	3091.65
1130.848	3076.23
1134.121	3028.97
1137.393	2970.62
1140.665	3044.92
1143.937	3013.33
1147.208	2976.34
1150.48	3007.56
1153.75	2990.97
1157.021	3038.41
1160.291	3001.57
1163.561	3049.28
1166.831	3046.26
1170.101	3086.6
1173.37	3065.99
1176.639	3000.26
1179.907	3069.94
1183.176	3071.17
1186.444	3081.88
1189.711	3111.11
1192.979	3119.13
1196.246	3077.38
1199.513	3095.85
1202.78	3091.67
1206.046	3098.02
1209.312	3125.29
1212.578	3158.06
1215.843	3098.46
1219.108	3075.75
1222.373	3100.52
1225.638	3057.94
1228.902	3038.56
1232.166	3008.16
1235.43	2986.92
1238.693	3009.19
1241.956	3008.98
1245.219	3046.96
1248.482	3040.53
1251.744	3034.5
1255.006	3203.92
1258.268	3162.69
1261.529	3099.15
1264.79	3106.12
1268.051	3218.91
1271.312	3237.66
1274.572	3197.19
1277.832	3188.29
1281.092	3181.11
1284.351	3143.45
1287.61	3117.97
1290.869	3018.28
1294.128	2981.24
1297.386	3095.18
1300.644	3081.84
1303.902	3092.34
1307.159	2942.23
1310.416	2999.83
1313.673	3021.67
1316.93	3001.6
1320.186	3060.7
1323.442	3110.32
1326.697	3092.89
1329.953	3094.28
1333.208	3111.62
1336.463	3093.51
1339.717	3018.99
1342.972	3160.64
1346.226	3140.88
1349.479	3062.55
1352.733	3024.27
1355.986	3056.52
1359.238	3031.47
1362.491	3030.85
1365.743	3036.98
1368.995	3033.25
1372.247	3048.98
1375.498	3078.38
1378.749	3092.53
1382	3048.06
1385.251	3111.73
1388.501	3077.91
1391.751	3053.17
1395	3028.83
1398.25	3064.7
1401.499	3063.4
1404.748	2978.33
1407.996	2955.47
1411.244	2936.86
1414.492	2912.05
1417.74	2888.86
1420.987	2904.07
1424.234	2959.73
1427.481	2947.55
1430.728	3003.97
1433.974	2981.22
1437.22	3002.12
1440.465	3007.6
1443.711	2968.77
1446.956	3014.13
1450.201	3010.88
1453.445	3054.56
1456.689	3029.07
1459.933	3046.41
1463.177	3075.96
1466.42	3046.4
1469.663	3022.37
1472.906	3007.28
1476.148	3115.44
1479.391	3037.65
1482.633	3013.66
1485.874	3018.67
1489.115	2997.12
1492.356	3009.03
1495.597	2981.21
1498.838	2990.09
1502.078	2948.83
1505.318	2886.22
1508.557	2937
1511.797	2881.41
1515.036	3006.08
1518.274	2992.16
1521.513	2966.38
1524.751	2998.28
1527.989	3009.11
1531.227	3017.5
1534.464	3001.24
1537.701	3035.96
1540.938	3059.99
1544.174	3009.85
1547.41	3017.43
1550.646	3054.07
1553.882	3084.87
1557.117	3143.9
1560.352	3160.11
1563.587	3113.24
1566.821	3067.72
1570.055	3114.75
1573.289	3082.63
1576.523	3167.73
1579.756	3175.63
1582.989	3193.52
1586.222	3150.11
1589.454	3194.1
1592.686	3161.65
1595.918	3183.95
1599.15	3169.4
1602.381	3262.19
1605.612	3203
1608.843	3301.99
1612.073	3207.69
1615.303	3185.89
1618.533	3172.77
1621.762	3184.51
1624.992	3176
1628.221	3154.5
1631.449	3138.42
1634.678	3210.92
1637.906	3159.55
1641.134	3203.77
1644.361	3152.92
1647.588	3142.54
1650.815	3156.24
1654.042	3141.29
1657.269	3172.46
1660.495	3119.58
1663.72	3102.95
1666.946	3075.14
1670.171	2997.19
1673.396	2972.41
1676.621	2966.67
1679.845	3000.59
1683.069	3029.38
1686.293	3084.87
1689.517	3043.96
1692.74	2955.61
1695.963	2984.2
1699.185	3040.98
1702.408	3004.65
1705.63	3055.5
1708.852	3063.39
1712.073	3032.38
1715.294	3004.35
1718.515	3074.37
1721.736	3010.71
1724.956	3011.43
1728.176	3040.93
1731.396	3063.93
1734.616	3054.34
1737.835	3078.17
1741.054	3058.22
1744.272	3053.19
1747.491	3081.62
1750.709	3153.55
1753.927	3030.35
1757.144	3089.64
1760.361	3124.64
1763.578	3129.53
1766.795	3061.55
1770.011	3075.21
1773.227	3125.01
1776.443	3161.49
1779.658	3208.37
1782.874	3149.45
1786.089	3118.42
1789.303	3123
1792.518	3129.13
1795.732	3118.64
1798.945	3121.03
1802.159	3178.48
1805.372	3055.96
1808.585	3037.45
1811.797	3038.73
1815.01	3101.84
1818.222	3106.14
1821.434	3030.63
1824.645	3110.83
1827.856	3082.11
1831.067	3122.06
1834.278	3091.11
1837.488	3074.69
1840.698	3245.76
1843.908	3154.81
1847.117	3114.61
1850.326	2972.19
1853.535	3092.47
1856.744	3164.63
1859.952	3062.59
1863.16	3063.41
1866.368	3088.09
1869.575	3191.1
1872.782	3072.52
1875.989	3011.86
1879.196	3117.68
1882.402	3107.87
1885.608	3154.26
1888.814	3034.18
1892.019	2922.52
1895.224	2973.77
1898.429	2959.73
1901.634	2931.49
1904.838	2910.95
1908.042	2958.53
1911.246	2961.41
1914.449	2873.46
1917.652	2880.44
1920.855	2862.68
1924.058	2927.4
1927.26	2958.8
1930.462	2991.94
1933.664	3012.78
1936.865	2945.78
1940.066	2946.49
1943.267	2894.67
1946.467	2917.57
1949.668	2947.1
1952.868	3016.25
1956.067	2985.36
1959.267	2908.64
1962.466	2939.66
1965.665	2927.48
1968.863	2924.76
1972.061	2948.41
1975.259	2954.81
1978.457	3038.78
1981.654	2990.02
1984.852	2992.81
1988.048	2912.58
1991.245	2923.16
1994.441	3010.22
1997.637	3009.69
2000.833	2989.62
2004.028	3031.52
2007.223	3080.97
2010.418	3049.48
2013.613	3014.83
2016.807	2970.52
2020.001	2986.8
2023.194	3044.41
2026.388	3016.38
2029.581	2960.44
2032.774	3002.57
2035.966	3003.59
2039.158	2925.2
2042.35	2960.62
2045.542	2886.77
2048.733	2999.61
2051.924	3040.07
2055.115	3074.21
2058.306	3001.75
2061.496	3067.43
2064.686	3141.51
2067.875	3058.13
2071.065	3082.23
2074.254	3114.92
2077.442	3063.6
2080.631	3160.22
2083.819	3026
2087.007	2999.41
2090.195	2962.79
2093.382	3010.7
2096.569	2985.71
2099.756	2933.44
2102.942	2946.29
2106.128	2943.03
2109.314	2938.4
2112.5	2886.93
2115.685	2866.6
2118.87	2878.97
2122.055	2949.7
2125.239	2907.14
2128.424	2869.49
2131.608	3002.5
2134.791	2981.13
2137.974	3053.06
2141.157	3038.43
2144.34	2975.11
2147.523	3004.3
2150.705	3009.55
2153.887	2993.92
2157.068	2931.1
2160.25	2942.97
2163.431	2994.51
2166.611	2921.36
2169.792	2939.19
2172.972	2818.63
2176.152	2913.24
2179.331	2954.78
2182.511	2927.18
2185.69	2958.42
2188.868	2947.7
2192.047	3019.04
2195.225	2995.5
2198.403	2940.6
2201.58	2936.23
2204.758	2934.24
2207.935	3024.21
2211.111	2896.32
2214.288	2877.36
2217.464	2919.01
2220.64	2898.6
2223.815	2959.64
2226.991	2871.22
2230.166	2893.61
2233.34	2916.34
2236.515	2950.75
2239.689	3031.4
2242.863	2969.4
2246.036	3026.92
2249.209	3038.37
2252.382	3081.15
2255.555	3058.18
2258.727	2984.08
2261.9	3030.57
2265.071	3022.73
2268.243	3029.59
2271.414	2949.47
2274.585	2898.55
2277.756	2971.47
2280.926	2926.45
2284.096	2971.56
2287.266	2866.34
2290.436	2929.85
2293.605	2962.59
2296.774	2989.44
2299.942	3023.77
2303.111	3038.39
2306.279	3084.99
2309.447	3070.51
2312.614	3050.4
2315.781	3068.96
2318.948	3033.99
2322.115	3072.63
2325.281	2973.77
2328.447	3003.33
2331.613	2977.26
2334.779	2933.86
2337.944	2948.32
2341.109	2942.91
2344.274	2921.7
2347.438	2881.95
2350.602	2910.37
2353.766	2930.19
2356.929	2913.44
2360.092	2955.41
2363.255	2897.43
2366.418	2811.34
2369.58	2955.37
2372.742	2681.54
2375.904	2708.39
2379.066	2678.65
2382.227	2727.14
2385.388	2684.77
2388.548	2595.2
2391.709	2660.14
2394.869	2635.51
2398.029	2761.46
2401.188	2785.29
2404.347	2701.52
2407.506	2882.59
2410.665	2907.29
2413.823	2926.52
2416.981	2864.87
2420.139	2908.65
2423.296	2963.46
2426.453	2937.32
2429.61	2962.64
2432.767	2874.4
2435.923	2914.49
2439.079	2842.19
2442.235	2906.01
2445.391	2822.48
2448.546	2837.58
2451.701	2900.76
2454.855	2856.17
2458.009	2925.24
2461.163	2936.41
2464.317	2887.53
2467.471	2923.86
2470.624	2967.72
2473.777	2968.28
2476.929	2977.85
2480.082	3003.93
2483.234	2966.5
2486.385	2893.17
2489.537	2886.49
2492.688	2829.79
2495.839	2845.04
2498.989	2852.88
2502.14	2835.1
2505.29	2808.94
2508.439	2840.15
2511.589	2750.16
2514.738	2772.89
2517.887	2807.33
2521.035	2900.1
2524.183	2893.67
2527.331	2869.92
2530.479	2833.02
2533.627	2847.59
