Data from N_3_DEC_CT_2N_Splice17_13-02-14-603.txt Node
Date: Sat Mar 14 13:02:14 EDT 2020
User: sa697716
Spectrometer: FLMS03696
Trigger mode: 0
Integration Time (sec): 3.180400E-1
Scans to average: 20
Electric dark correction enabled: true
Nonlinearity correction enabled: true
Boxcar width: 5
XAxis mode: Wavelengths
Number of Pixels in Spectrum: 2048
>>>>>Begin Spectral Data<<<<<
187.83	-287421.76
188.298	2329.77
188.766	1396.43
189.233	1227.05
189.701	1701.65
190.169	2361.86
190.636	937.87
191.104	762.72
191.571	158.6
192.039	-3.75
192.506	-14.58
192.974	562.31
193.441	-459.77
193.908	183.05
194.375	88.56
194.842	140
195.31	303.41
195.777	258.21
196.244	462.93
196.711	536.2
197.177	653.97
197.644	918.49
198.111	1586.02
198.578	2198.14
199.045	1779.79
199.511	2873.28
199.978	3359.01
200.445	2827.57
200.911	3140.5
201.378	3501.78
201.844	3163.7
202.31	5410.37
202.777	5632.47
203.243	3111.8
203.709	2953.41
204.176	3511.12
204.642	2919.44
205.108	2726.19
205.574	2232.35
206.04	2020.71
206.506	1897.59
206.972	1810.4
207.438	1753.28
207.903	1998.15
208.369	1749.03
208.835	1746.48
209.301	1833.28
209.766	1860.11
210.232	1838.65
210.697	2268.06
211.163	2816.43
211.628	4275.56
212.094	3589.69
212.559	4388.36
213.024	2736.85
213.49	3356.17
213.955	3281.97
214.42	3221.39
214.885	3006.36
215.35	2903.67
215.815	2804.64
216.28	2988.88
216.745	2453.37
217.21	2656.32
217.675	2479.55
218.14	2816
218.604	3191.83
219.069	3683.55
219.534	3882.92
219.998	4565.47
220.463	5579.06
220.927	6941.14
221.392	6585.31
221.856	6696.02
222.32	8485.7
222.785	10513.42
223.249	13279.2
223.713	14832.05
224.177	14880.72
224.642	19164.63
225.106	23654.04
225.57	25906.75
226.034	19298.34
226.497	29382.1
226.961	26534.52
227.425	30941.21
227.889	34338.08
228.353	34391.6
228.816	71089.5
229.28	67987.77
229.744	57336.78
230.207	34813.46
230.671	34271.81
231.134	56700.7
231.597	65452.18
232.061	65515.9
232.524	63928.78
232.987	44072.18
233.45	39643.18
233.914	35566.14
234.377	36474.92
234.84	33420.61
235.303	39512.84
235.766	44038.38
236.229	45537.68
236.691	28693.81
237.154	32255.88
237.617	24263.31
238.08	24871.1
238.542	29126.45
239.005	20834.7
239.468	20682.62
239.93	19488.18
240.393	17689.33
240.855	15529.59
241.317	15898.82
241.78	19339.5
242.242	19982.08
242.704	21574.03
243.166	18767.49
243.629	17045.92
244.091	19647.16
244.553	21539.17
245.015	23155.85
245.477	29984.38
245.939	44034.46
246.4	46745.29
246.862	45467.08
247.324	42900.31
247.786	48031.13
248.247	63077.51
248.709	65222.13
249.17	48805.92
249.632	46015.84
250.093	53369.05
250.555	46078.68
251.016	28119.33
251.477	26723.57
251.939	28819.64
252.4	30258.35
252.861	36042.5
253.322	33553.14
253.783	39943.79
254.244	51872.78
254.705	40923.44
255.166	36461.79
255.627	35927.7
256.088	50721.26
256.549	53910.9
257.009	46518.66
257.47	56519.6
257.931	46065.57
258.391	34515.23
258.852	35613.28
259.312	37345.84
259.773	46198.24
260.233	39036.91
260.694	32962.43
261.154	37438.95
261.614	30037.13
262.074	26897.73
262.534	27960.71
262.994	26365.38
263.455	35165.44
263.915	29655.83
264.374	27946.26
264.834	30505
265.294	33848.71
265.754	35075.15
266.214	33202.28
266.673	31173.59
267.133	39349.88
267.593	39075.63
268.052	47827.43
268.512	41602.52
268.971	50166.23
269.431	55041.81
269.89	49329.47
270.349	73963.16
270.809	82462.96
271.268	74161.14
271.727	166166.59
272.186	107699.51
272.645	80732.7
273.104	58261.87
273.563	84392.84
274.022	66411.42
274.481	56488.35
274.94	43528.75
275.399	32363.75
275.857	37694.06
276.316	50983.9
276.775	45410.36
277.233	44693.05
277.692	41831.04
278.15	47319.93
278.609	48666.73
279.067	45033.06
279.525	41832.45
279.984	54020.91
280.442	64857.19
280.9	63997.57
281.358	42086.27
281.816	39212.21
282.274	38392.58
282.732	39697.47
283.19	39906.82
283.648	34423.73
284.106	36633.45
284.564	37260.45
285.021	34559.54
285.479	25792.67
285.937	23457
286.394	20590.13
286.852	21172.18
287.309	22263.11
287.767	21502.42
288.224	20472.08
288.682	22498.07
289.139	24732.71
289.596	22628.17
290.053	23519.05
290.511	29643.98
290.968	35977.13
291.425	48827.45
291.882	40661.93
292.339	35394.43
292.796	35142.93
293.252	33107.66
293.709	26272.85
294.166	23543.05
294.623	26019.15
295.079	24989.14
295.536	25114.43
295.992	22773.93
296.449	22513.33
296.905	23364.41
297.362	22376.95
297.818	23524.31
298.274	24387.79
298.731	24873.32
299.187	24621.32
299.643	26466.41
300.099	31970.96
300.555	35065.89
301.011	29317.71
301.467	28216.63
301.923	33075.13
302.379	32287.69
302.835	31713.75
303.291	31743.48
303.746	36141.76
304.202	45600.85
304.658	45735.28
305.113	30778.92
305.569	30128.38
306.024	32082.89
306.479	30593.41
306.935	25810.68
307.39	28228.97
307.845	26052.02
308.301	26225.72
308.756	25527.46
309.211	24602.13
309.666	25207.51
310.121	31251.76
310.576	31768.49
311.031	31573.15
311.486	36159.03
311.94	36092.66
312.395	48260.26
312.85	90711.51
313.305	444975.34
313.759	2300126.57
314.214	166538.2
314.668	131870.73
315.123	110846.94
315.577	39659.39
316.032	35223.06
316.486	44120.67
316.94	34771.9
317.394	24214.95
317.849	18819.29
318.303	17839.1
318.757	16837.07
319.211	18655.84
319.665	16347.39
320.119	16570.54
320.572	23798.23
321.026	22213.73
321.48	18496.28
321.934	20195.82
322.387	20231.03
322.841	21867.36
323.295	19615.97
323.748	22625.92
324.202	22898.32
324.655	27472.79
325.108	38309.29
325.562	27052.41
326.015	32185.16
326.468	24292.06
326.921	27131.79
327.374	25257.83
327.827	26264.6
328.28	29733.9
328.733	19901.45
329.186	17494.11
329.639	16660.91
330.092	14049.41
330.545	13381.99
330.997	13479.39
331.45	14736.14
331.903	17248.29
332.355	29690.22
332.808	28836.68
333.26	23798.14
333.713	25804.3
334.165	25994.43
334.617	34716.25
335.069	28016.98
335.522	50568.65
335.974	56014.52
336.426	51203.17
336.878	35476.25
337.33	17992.77
337.782	17567.94
338.234	21992.9
338.686	26311.28
339.137	31147.4
339.589	29337.33
340.041	23004.06
340.493	19771.34
340.944	20212.82
341.396	21745.1
341.847	18289.37
342.299	21557.18
342.75	26303.64
343.201	22956.06
343.653	26420.44
344.104	32495.95
344.555	25533.82
345.006	39749.46
345.457	30427.66
345.908	24196.96
346.359	22746.38
346.81	18535.12
347.261	19510.39
347.712	19238.12
348.163	20615.31
348.613	20836.71
349.064	19426.57
349.515	17020.64
349.965	17444.82
350.416	20987.57
350.866	23042.83
351.317	26060.22
351.767	43095.93
352.217	54512.57
352.668	45167.58
353.118	41409.9
353.568	39944.03
354.018	31565.76
354.468	33246.51
354.918	23831.81
355.368	20853.84
355.818	29412.77
356.268	84659.23
356.718	353930.14
357.168	88081.53
357.617	44167.96
358.067	49125.52
358.517	45996.53
358.966	53938.43
359.416	60480.27
359.865	65275.77
360.315	77685.73
360.764	36275.27
361.213	20287.82
361.663	19247.41
362.112	23735.4
362.561	38350.72
363.01	28907.46
363.459	24323.44
363.908	26313.94
364.357	22348.3
364.806	37792.29
365.255	25978.37
365.703	23810.28
366.152	23808.15
366.601	19280.78
367.05	15650.58
367.498	14211.19
367.947	14832.05
368.395	15406.57
368.844	13641.73
369.292	16423.34
369.74	11327.43
370.189	17331.58
370.637	20289.05
371.085	17517.23
371.533	21329.17
371.981	20551.3
372.429	19565.45
372.877	20361.66
373.325	17044.47
373.773	17316.82
374.221	15401.35
374.669	19138.32
375.116	16567.75
375.564	16669.66
376.012	18602.63
376.459	15297.2
376.907	18253.48
377.354	22047.83
377.801	20530.66
378.249	23546.03
378.696	30052.89
379.143	36347.54
379.591	38548.08
380.038	65099.98
380.485	46940.63
380.932	50662.51
381.379	46277.78
381.826	33958.4
382.273	24106.99
382.72	21061.82
383.166	20488.1
383.613	13299.3
384.06	11997.48
384.506	13913.39
384.953	10196.51
385.4	10262.34
385.846	8986.61
386.292	8745.82
386.739	8541.8
387.185	8434.06
387.631	8412.16
388.078	8157.92
388.524	8704.72
388.97	8013.2
389.416	6659.3
389.862	7056.31
390.308	6676.31
390.754	6759.33
391.2	7324.44
391.645	7485.75
392.091	7155.27
392.537	6916.11
392.983	6910.38
393.428	6795.43
393.874	7265.91
394.319	7272.72
394.765	6895.27
395.21	7079.23
395.655	6629.02
396.101	6192.08
396.546	5586.23
396.991	5616.11
397.436	5208.1
397.881	5029.96
398.326	4752.58
398.771	4491.74
399.216	3928.29
399.661	3530.12
400.106	3509.78
400.551	3588.34
400.995	3225.41
401.44	3189.24
401.885	2992.32
402.329	3017.87
402.774	2894.01
403.218	2796.06
403.663	2687.57
404.107	2757.63
404.551	2774.48
404.995	2541.27
405.44	2443.86
405.884	2472.8
406.328	2386.3
406.772	2381.77
407.216	2166.2
407.66	2084.8
408.104	1977.44
408.547	1853.93
408.991	1792.08
409.435	1724.26
409.879	1698.25
410.322	1674.46
410.766	1616.22
411.209	1536.83
411.653	1471.23
412.096	1441.66
412.54	1443.52
412.983	1433.61
413.426	1435.5
413.869	1430.04
414.312	1401.46
414.756	1348.71
415.199	1285.05
415.642	1245.72
416.085	1247.62
416.527	1237.54
416.97	1254.93
417.413	1189.52
417.856	1174.71
418.298	1161.05
418.741	1152.84
419.184	1148.68
419.626	1194.94
420.069	1194.23
420.511	1202.37
420.953	1173.96
421.396	1163.33
421.838	1131.28
422.28	1156.41
422.722	1164.32
423.164	1180.42
423.606	1163.34
424.048	1160.81
424.49	1104.9
424.932	1100.08
425.374	1083.59
425.816	1105
426.258	1125.54
426.699	1141.06
427.141	1121.75
427.582	1135.47
428.024	1127.3
428.465	1118.55
428.907	1089.26
429.348	1074.73
429.789	1073.17
430.231	1050.6
430.672	1063.13
431.113	1037.61
431.554	1019.68
431.995	995.8
432.436	963.84
432.877	943.52
433.318	927.49
433.759	922.31
434.2	922.35
434.64	912.24
435.081	911.99
435.522	861.35
435.962	827.79
436.403	811.89
436.843	821.27
437.284	798.92
437.724	776.55
438.164	775.63
438.604	759.42
439.045	729.85
439.485	699.46
439.925	684.07
440.365	665.7
440.805	657.28
441.245	647.61
441.685	622.97
442.125	618.41
442.564	622.18
443.004	609.02
443.444	607.39
443.883	607.8
444.323	604.31
444.762	606.42
445.202	615.37
445.641	626.77
446.081	623.08
446.52	628.78
446.959	623.68
447.398	609.44
447.837	602.97
448.276	592.54
448.716	597.59
449.154	601.33
449.593	586.19
450.032	584.53
450.471	573.21
450.91	573.07
451.349	570.93
451.787	566.22
452.226	572.81
452.664	571.9
453.103	572.17
453.541	570.17
453.98	570.26
454.418	573.84
454.856	563.2
455.295	561.88
455.733	564.27
456.171	567
456.609	567.91
457.047	569.38
457.485	576.47
457.923	577.31
458.361	568.68
458.798	568.64
459.236	566.15
459.674	570.13
460.111	572.33
460.549	567.48
460.987	564.64
461.424	561.5
461.862	556.88
462.299	548.77
462.736	548.63
463.173	550.84
463.611	546.81
464.048	545.5
464.485	550.03
464.922	544.59
465.359	540.23
465.796	536.55
466.233	534.03
466.67	529.77
467.106	528.58
467.543	520.9
467.98	514.7
468.416	498.93
468.853	495.3
469.29	479.49
469.726	473.94
470.162	462.53
470.599	454.22
471.035	450.13
471.471	439.2
471.907	435.41
472.344	434.12
472.78	434.7
473.216	440.67
473.652	434.65
474.088	433.79
474.523	433.37
474.959	437.18
475.395	433.04
475.831	429.17
476.266	431.07
476.702	430.15
477.138	425.73
477.573	424.05
478.008	422.17
478.444	424.43
478.879	428.29
479.314	429.08
479.75	428.83
480.185	430.19
480.62	434.14
481.055	436.01
481.49	439.67
481.925	444.91
482.36	453.47
482.795	465.43
483.229	477.55
483.664	487.56
484.099	489.08
484.534	496.36
484.968	500.97
485.403	501.49
485.837	500.4
486.271	498.03
486.706	498.28
487.14	491.21
487.574	483.52
488.009	479.1
488.443	474.38
488.877	479.41
489.311	480.27
489.745	485.4
490.179	490.76
490.613	500.19
491.046	504.77
491.48	508.71
491.914	508.96
492.348	512.6
492.781	515.45
493.215	516.82
493.648	517.5
494.082	522.03
494.515	523.25
494.948	529.67
495.382	533.15
495.815	536.84
496.248	541.76
496.681	552.93
497.114	562.14
497.547	571.33
497.98	583.14
498.413	589.32
498.846	598.44
499.279	606.32
499.711	610.16
500.144	612.95
500.577	623.59
501.009	633.82
501.442	643.33
501.874	646.63
502.306	649.39
502.739	658.5
503.171	672.7
503.603	677.5
504.036	687.71
504.468	695.52
504.9	708.29
505.332	715.66
505.764	722.35
506.196	731.32
506.627	746.65
507.059	761.67
507.491	770.85
507.923	772.62
508.354	788.68
508.786	800.34
509.217	819.6
509.649	835.39
510.08	855.84
510.512	874.3
510.943	891.58
511.374	905.74
511.805	928.01
512.237	949.54
512.668	982.52
513.099	1011.14
513.53	1040.63
513.961	1063.68
514.391	1097.27
514.822	1132.39
515.253	1170.49
515.684	1197.88
516.114	1229.4
516.545	1253.87
516.975	1282.47
517.406	1304.05
517.836	1311.34
518.267	1322.76
518.697	1345.85
519.127	1355.96
519.558	1367.8
519.988	1375.8
520.418	1391.34
520.848	1413.29
521.278	1427.34
521.708	1456.42
522.138	1473.15
522.567	1507.73
522.997	1536.61
523.427	1554.93
523.857	1575.32
524.286	1589.92
524.716	1608.15
525.145	1629.79
525.575	1644.95
526.004	1661.99
526.433	1652.89
526.863	1656.94
527.292	1651.12
527.721	1660.15
528.15	1669.04
528.579	1672.4
529.008	1686.13
529.437	1711.98
529.866	1728.83
530.295	1747.51
530.724	1762.93
531.152	1792.56
531.581	1808.92
532.01	1829.04
532.438	1838.8
532.867	1854.91
533.295	1874.78
533.723	1881.94
534.152	1881.28
534.58	1882.66
535.008	1868.15
535.436	1870.45
535.865	1878.97
536.293	1894.84
536.721	1911.87
537.149	1939.79
537.576	1943.66
538.004	1957.81
538.432	1966.22
538.86	1965.5
539.287	1973.06
539.715	1988.22
540.143	1992.29
540.57	1988.74
540.998	1985.77
541.425	1962.17
541.852	1940.72
542.28	1939.32
542.707	1921.6
543.134	1908.51
543.561	1905.01
543.988	1897.52
544.415	1897.65
544.842	1892.41
545.269	1886.49
545.696	1887.98
546.123	1901.93
546.549	1891.3
546.976	1878.44
547.403	1880.48
547.829	1882.74
548.256	1884.88
548.682	1882.6
549.108	1874.53
549.535	1874.59
549.961	1877.66
550.387	1865.24
550.813	1858.64
551.24	1866.96
551.666	1868.34
552.092	1859.38
552.518	1853.26
552.943	1848.07
553.369	1855.63
553.795	1862.46
554.221	1864.19
554.646	1860.66
555.072	1872.61
555.498	1879.53
555.923	1888.06
556.349	1904.16
556.774	1912.62
557.199	1914.35
557.625	1920.48
558.05	1914.19
558.475	1924.78
558.9	1923.83
559.325	1915.47
559.75	1907.14
560.175	1899.49
560.6	1892.83
561.025	1891.03
561.449	1891.42
561.874	1896.01
562.299	1898.61
562.723	1905.75
563.148	1895.11
563.572	1897.69
563.997	1907.44
564.421	1913.09
564.846	1913.27
565.27	1915.83
565.694	1911.12
566.118	1921.65
566.542	1928.46
566.966	1919.8
567.39	1912.47
567.814	1897.95
568.238	1894.94
568.662	1898.11
569.086	1899.03
569.509	1903.5
569.933	1885.17
570.357	1875.35
570.78	1851.28
571.204	1835.16
571.627	1822.64
572.05	1819.44
572.474	1817.38
572.897	1803.39
573.32	1794.08
573.743	1781.05
574.166	1760.84
574.589	1759.39
575.012	1750.93
575.435	1748.71
575.858	1737.89
576.281	1726.39
576.704	1709.05
577.126	1695.94
577.549	1683.66
577.972	1672.27
578.394	1660
578.817	1652.26
579.239	1633.16
579.661	1619.26
580.084	1602.06
580.506	1588.21
580.928	1583.08
581.35	1571.09
581.772	1565.47
582.194	1550.59
582.616	1535.91
583.038	1521.99
583.46	1510.44
583.882	1506.1
584.303	1508.46
584.725	1504.73
585.147	1505.58
585.568	1514.92
585.99	1526.9
586.411	1533.25
586.833	1548.09
587.254	1550.39
587.675	1563.93
588.096	1575.84
588.518	1569.99
588.939	1553
589.36	1550.55
589.781	1539.82
590.202	1511.21
590.623	1500.72
591.043	1496.53
591.464	1483.43
591.885	1478.75
592.305	1472.28
592.726	1458.44
593.147	1458.71
593.567	1452.97
593.987	1444.18
594.408	1439.3
594.828	1436.68
595.248	1430.63
595.669	1413.65
596.089	1405.92
596.509	1398.08
596.929	1384.28
597.349	1383.95
597.769	1374.08
598.189	1367.64
598.608	1367.42
599.028	1367.95
599.448	1367.39
599.867	1355.8
600.287	1350.15
600.706	1345.57
601.126	1336.2
601.545	1334.59
601.965	1332.46
602.384	1326.13
602.803	1327.45
603.222	1322.52
603.641	1315.77
604.061	1310.97
604.48	1304.77
604.898	1312.73
605.317	1316.46
605.736	1316.54
606.155	1313
606.574	1303.02
606.992	1307.45
607.411	1302.03
607.829	1298.99
608.248	1294.32
608.666	1291.19
609.085	1289.72
609.503	1279.75
609.921	1272.3
610.339	1273.58
610.758	1271.61
611.176	1266.9
611.594	1257.14
612.012	1252.96
612.43	1248.93
612.847	1253.51
613.265	1252.15
613.683	1255.18
614.101	1254.77
614.518	1249.75
614.936	1238.69
615.353	1224.3
615.771	1219.31
616.188	1217.31
616.606	1212.15
617.023	1203.18
617.44	1188.69
617.857	1181.97
618.274	1172.6
618.691	1165.31
619.108	1155.31
619.525	1148.86
619.942	1152.84
620.359	1154.54
620.776	1148.5
621.192	1143.88
621.609	1141.82
622.026	1147.89
622.442	1152.06
622.859	1154.81
623.275	1147.92
623.691	1153.03
624.108	1163.08
624.524	1175.89
624.94	1175.33
625.356	1184.97
625.772	1196.26
626.188	1207.3
626.604	1207.06
627.02	1202.96
627.436	1200.45
627.852	1207.52
628.268	1217.23
628.683	1207.3
629.099	1199.56
629.514	1195.66
629.93	1198.79
630.345	1202.81
630.761	1197.26
631.176	1200.61
631.591	1195.08
632.007	1188.5
632.422	1184.74
632.837	1174.16
633.252	1172.01
633.667	1160.73
634.082	1150.04
634.497	1136.48
634.911	1117.85
635.326	1113.06
635.741	1095.36
636.155	1084.65
636.57	1084.15
636.984	1081.7
637.399	1080.69
637.813	1078.56
638.228	1074.52
638.642	1075.25
639.056	1064.21
639.47	1060.66
639.884	1050.7
640.298	1042.76
640.712	1039.09
641.126	1024.1
641.54	1012.66
641.954	1004.28
642.368	990.61
642.781	981.31
643.195	962.89
643.609	959.53
644.022	951.36
644.436	944.54
644.849	930.53
645.262	916.7
645.676	914.84
646.089	908.62
646.502	894.3
646.915	886.14
647.328	869.4
647.741	865.98
648.154	852.99
648.567	849.64
648.98	836.58
649.393	834.39
649.805	829.76
650.218	823.21
650.631	810.02
651.043	802.79
651.456	797.01
651.868	796.49
652.28	809.08
652.693	818.32
653.105	820.47
653.517	827.24
653.929	827.3
654.341	830.13
654.753	818.25
655.165	820.61
655.577	817.44
655.989	812.16
656.401	803.17
656.813	773.04
657.224	755.58
657.636	732.18
658.047	717.79
658.459	700.73
658.87	691.39
659.282	680.43
659.693	662.3
660.104	649.18
660.515	636.96
660.926	635.33
661.338	630.42
661.749	622.98
662.159	614.62
662.57	608.36
662.981	603.52
663.392	596.54
663.803	599.56
664.213	596.64
664.624	592.41
665.035	592.7
665.445	579.81
665.855	573.93
666.266	568.58
666.676	566.1
667.086	559.22
667.497	558.58
667.907	553.96
668.317	545.32
668.727	544.77
669.137	545.14
669.547	544.57
669.956	546.98
670.366	549.37
670.776	550.6
671.186	553.94
671.595	557.92
672.005	559.91
672.414	560.9
672.824	561.36
673.233	562.77
673.642	565.23
674.052	567.97
674.461	571.04
674.87	574.67
675.279	575.45
675.688	576.25
676.097	577.84
676.506	576.84
676.915	588.49
677.323	591.81
677.732	592.74
678.141	593.64
678.549	587.4
678.958	588.03
679.366	588.94
679.775	592.59
680.183	604.28
680.592	610.24
681	616.34
681.408	613.03
681.816	621.13
682.224	629.14
682.632	638.74
683.04	663.28
683.448	684.39
683.856	711.61
684.264	742.96
684.671	770.11
685.079	804.1
685.487	843.65
685.894	897.82
686.302	943.86
686.709	985.14
687.116	1031.98
687.524	1073.31
687.931	1108.76
688.338	1141.19
688.745	1169.28
689.152	1201.76
689.559	1244.55
689.966	1287.79
690.373	1312.91
690.78	1354.97
691.187	1416.93
691.593	1466.72
692	1510.18
692.407	1573.85
692.813	1652.37
693.22	1715.92
693.626	1782.8
694.032	1836.79
694.439	1916.32
694.845	1980.48
695.251	2059.58
695.657	2131.21
696.063	2234.45
696.469	2315.29
696.875	2390.93
697.281	2435.44
697.687	2490.87
698.093	2537.01
698.498	2621.23
698.904	2686.64
699.31	2781.67
699.715	2853.4
700.12	2952.43
700.526	2978.53
700.931	3056.35
701.337	3115.33
701.742	3156.01
702.147	3247.37
702.552	3284.36
702.957	3352.15
703.362	3380
703.767	3415.77
704.172	3461.6
704.577	3417.98
704.981	3473.13
705.386	3495.36
705.791	3491.12
706.195	3574.29
706.6	3587.5
707.004	3675.89
707.408	3648.21
707.813	3680.38
708.217	3669.79
708.621	3675.54
709.025	3781.75
709.43	3786.78
709.834	3852.34
710.237	3931.66
710.641	3917.07
711.045	3943.8
711.449	3941.18
711.853	3974.24
712.256	4021.88
712.66	4064.79
713.064	4146.68
713.467	4192.06
713.87	4310.6
714.274	4361.16
714.677	4476.83
715.08	4649.21
715.484	4830.22
715.887	5043.7
716.29	5256.64
716.693	5478.25
717.096	5734.47
717.499	5877.17
717.901	5906.95
718.304	5938.15
718.707	5963.21
719.109	5859.1
719.512	5828.79
719.915	5686.4
720.317	5630.71
720.719	5679.45
721.122	5648.74
721.524	5599.32
721.926	5553.37
722.328	5662.27
722.731	5654.26
723.133	5685.86
723.535	5889
723.937	5911.29
724.338	5965.2
724.74	6010.6
725.142	5935.19
725.544	5932.5
725.945	5958.54
726.347	5954.88
726.748	5947.38
727.15	5963.23
727.551	5926.51
727.952	5897.96
728.354	5867.77
728.755	5870.88
729.156	5825.82
729.557	5819.21
729.958	5688.15
730.359	5630.91
730.76	5613.22
731.161	5546.26
731.562	5518.62
731.962	5520.26
732.363	5452.6
732.763	5385.49
733.164	5423.14
733.564	5351.33
733.965	5250.86
734.365	5215.56
734.766	5244.71
735.166	5201.28
735.566	5146.45
735.966	5118.42
736.366	5114.01
736.766	5050.17
737.166	5085.67
737.566	5042.15
737.966	5013.19
738.365	5054.97
738.765	5049.22
739.165	4971
739.564	4944.88
739.964	4991.94
740.363	4943.03
740.763	4938.54
741.162	4925.35
741.561	4889.94
741.96	4843.41
742.36	4867.5
742.759	4873.19
743.158	4917.56
743.557	4933.85
743.955	4976.31
744.354	4927.23
744.753	4990.46
745.152	4950
745.55	5009.78
745.949	5002.43
746.348	5002.71
746.746	5019.94
747.144	4979.76
747.543	4953.03
747.941	5006.05
748.339	4932.45
748.737	4927.28
749.136	4916.66
749.534	4983
749.932	4953.48
750.33	4978.92
750.727	5039.62
751.125	5014.93
751.523	4998.95
751.921	5044.49
752.318	5008.29
752.716	5070.9
753.113	5083.96
753.511	5108.88
753.908	5108.12
754.305	5086.32
754.703	5150.33
755.1	5211.92
755.497	5273.16
755.894	5470.42
756.291	5657.39
756.688	6001.54
757.085	6459.79
757.482	7106.36
757.878	7817.39
758.275	8462.44
758.672	9350.57
759.068	10067.87
759.465	11091.71
759.861	12417.9
760.258	13947.46
760.654	14748.7
761.05	14629.07
761.447	13961.03
761.843	12999.74
762.239	12004.39
762.635	11552.01
763.031	11117.01
763.427	10497.63
763.822	9845.08
764.218	9196.8
764.614	8357.78
765.01	7796.71
765.405	7432.86
765.801	7161.38
766.196	6810.05
766.592	6611.23
766.987	6278.99
767.382	6055.86
767.778	5961.37
768.173	5826.86
768.568	5751.17
768.963	5621.08
769.358	5638.77
769.753	5591.43
770.148	5502.26
770.542	5500.93
770.937	5468.14
771.332	5565.37
771.726	5586.54
772.121	5520.69
772.515	5574.72
772.91	5558.43
773.304	5634.86
773.699	5566.42
774.093	5623.06
774.487	5681.03
774.881	5728.18
775.275	5725.17
775.669	5681.44
776.063	5728.59
776.457	5767.7
776.851	5690.2
777.245	5682.93
777.638	5717.31
778.032	5837.37
778.425	5799.57
778.819	5843.12
779.212	5797.83
779.606	5755.65
779.999	5777.2
780.392	5756.03
780.786	5839.92
781.179	5863.05
781.572	5910.01
781.965	5921.4
782.358	5862.24
782.751	5922.49
783.143	5874.18
783.536	5951.98
783.929	5995.94
784.322	6113.64
784.714	6148.62
785.107	6145.2
785.499	6219.42
785.891	6194.76
786.284	6174.54
786.676	6324.05
787.068	6300.27
787.46	6353.58
787.852	6373.01
788.245	6467.1
788.636	6501.07
789.028	6574.45
789.42	6619.58
789.812	6628.95
790.204	6731.11
790.595	6839.21
790.987	6631.63
791.378	6662.14
791.77	6798.05
792.161	6942.66
792.553	6998.09
792.944	6881.81
793.335	6810.97
793.726	6887.65
794.117	6985.75
794.508	7131.23
794.899	7101.13
795.29	7249.48
795.681	7308.55
796.072	7159.61
796.463	6966.17
796.853	6976.69
797.244	7143.97
797.634	7182.21
798.025	7180.38
798.415	7193.25
798.806	7287.62
799.196	7376.11
799.586	7431.34
799.976	7389.85
800.366	7633.66
800.756	7890.77
801.146	7854.99
801.536	7888.47
801.926	7963.06
802.316	7991.58
802.706	8069.47
803.095	7942.1
803.485	8056.1
803.874	8102.23
804.264	8379.53
804.653	8357.51
805.043	8512.96
805.432	8629.08
805.821	8631.61
806.21	8659.52
806.599	8789.25
806.988	8836.76
807.377	8948.08
807.766	9084.53
808.155	9380.65
808.544	9100.81
808.933	9115.17
809.321	9095.46
809.71	9410.94
810.098	9580.29
810.487	10069.6
810.875	10581.94
811.264	10609.67
811.652	10924.31
812.04	11080.21
812.428	11261.94
812.816	12081.02
813.204	12524.88
813.592	13112.12
813.98	13473.78
814.368	13379.72
814.756	13893.71
815.144	13810.95
815.531	14314.28
815.919	14235.37
816.306	14575.37
816.694	14247.1
817.081	14301.12
817.469	14674.47
817.856	14662.22
818.243	14951.8
818.63	15364.68
819.017	14913.15
819.404	14973.55
819.791	15375.89
820.178	16025.33
820.565	16279.53
820.952	17269.94
821.339	16749.04
821.725	16939.83
822.112	16157.95
822.498	16107.35
822.885	16241.82
823.271	16140.61
823.657	16594.07
824.044	16602.25
824.43	16684.96
824.816	16645.82
825.202	16182.55
825.588	17262.37
825.974	17284.09
826.36	17837.61
826.746	17878.28
827.132	18258
827.517	18222.52
827.903	17380.11
828.289	17414.69
828.674	16586.76
829.06	16479.12
829.445	16891.08
829.83	17270.76
830.216	17771.14
830.601	18152.26
830.986	17709.04
831.371	17560.71
831.756	18161.2
832.141	17702.94
832.526	17696.82
832.911	18000.74
833.295	17874.19
833.68	18376.39
834.065	17707.5
834.449	16737.2
834.834	16657.81
835.218	16655.33
835.603	17017.24
835.987	16782.92
836.371	17663.47
836.755	17547.09
837.139	17961.48
837.524	18211.78
837.908	18019.79
838.291	18091.7
838.675	18163.53
839.059	18382.86
839.443	18370.81
839.827	18127.8
840.21	18646.58
840.594	18488.47
840.977	18703.95
841.361	18673.53
841.744	19063.85
842.127	18900.03
842.511	19152.28
842.894	19776.38
843.277	20164.55
843.66	20723.6
844.043	20804.85
844.426	19946.86
844.809	19616.36
845.191	19646.3
845.574	19173.65
845.957	18796.98
846.339	18678.32
846.722	18122.18
847.104	18194.88
847.487	18014.91
847.869	18030.81
848.252	18327.71
848.634	18668.35
849.016	18943.16
849.398	19077.22
849.78	19967.84
850.162	19980.06
850.544	20417.74
850.926	21078.96
851.307	21002.8
851.689	21309.84
852.071	21792.91
852.452	22127.49
852.834	22112.14
853.215	22536.88
853.597	22695.72
853.978	23005.01
854.359	23479.48
854.741	22434.05
855.122	22332.6
855.503	22010.99
855.884	22150.79
856.265	22080.1
856.646	22204.79
857.026	21785.52
857.407	21708.15
857.788	21888.55
858.169	22196.96
858.549	21302.64
858.93	21961.43
859.31	22012.21
859.69	22239.97
860.071	21809.4
860.451	21590.81
860.831	20813.01
861.211	22046.2
861.591	22633.09
861.971	22597.2
862.351	22797.03
862.731	23202.51
863.111	23484.64
863.491	23847.26
863.87	24774.26
864.25	25153.98
864.629	24726.91
865.009	25274.95
865.388	26173.05
865.768	28042.14
866.147	27936.9
866.526	26388.3
866.905	26719.29
867.284	28218.52
867.663	26785.91
868.042	25671.1
868.421	25572.21
868.8	26010.62
869.179	26262.45
869.558	24737.65
869.936	22821
870.315	23236.29
870.693	23810.97
871.072	25670.87
871.45	24454.18
871.828	24767.76
872.207	26053.46
872.585	25673.82
872.963	26370.24
873.341	25468.23
873.719	25177.61
874.097	24870.65
874.475	25336.57
874.853	25913.22
875.23	24842.52
875.608	25893.43
875.986	28023.03
876.363	26802.47
876.741	27616.2
877.118	26922.18
877.495	28250.34
877.873	28718.98
878.25	30235.94
878.627	29012.71
879.004	29423.04
879.381	29283.7
879.758	28520.56
880.135	26563.56
880.512	28077.35
880.889	27343.45
881.265	27066.46
881.642	26851.96
882.019	27313.93
882.395	26747.76
882.772	27812.75
883.148	26608.7
883.524	26514.89
883.901	26365.39
884.277	26758.86
884.653	26594.71
885.029	27358.44
885.405	30305.5
885.781	30058.8
886.157	28815.91
886.532	29174.88
886.908	29166.97
887.284	32449.95
887.659	33506.3
888.035	34560.54
888.411	35446.44
888.786	35916.5
889.161	37158.48
889.537	36479.79
889.912	37657.96
890.287	37627.84
890.662	38616.09
891.037	37916.54
891.412	35350.57
891.787	34986.44
892.162	33751.98
892.536	34528.95
892.911	33236.17
893.286	32550.55
893.66	31231.29
894.035	32020.23
894.409	34858.62
894.784	33445.23
895.158	33995.69
895.532	36008.47
895.906	36992.83
896.281	37863.37
896.655	37274.74
897.029	42580.98
897.402	44333.84
897.776	49359.58
898.15	49190.94
898.524	48678.33
898.898	49316.72
899.271	55214.53
899.645	47811.18
900.018	45945.9
900.392	47655.72
900.765	48044.59
901.138	44480.68
901.511	43817.02
901.884	40228.36
902.258	37128.38
902.631	38374.34
903.003	44183.76
903.376	39882.29
903.749	44762.05
904.122	47909.28
904.495	52757.5
904.867	53441.23
905.24	46413.37
905.612	43216.85
905.985	44208.88
906.357	46241.6
906.729	44149.17
907.102	37702.94
907.474	36268.35
907.846	36504.39
908.218	36029.35
908.59	31850.71
908.962	30821.01
909.334	33201.1
909.705	34872.48
910.077	33862.73
910.449	35242.03
910.82	36234.98
911.192	39893.85
911.563	41446.35
911.935	44349.61
912.306	44418.14
912.677	45878.6
913.048	45403.11
913.419	49258.51
913.79	49588.73
914.161	53170.02
914.532	50833.13
914.903	46694.14
915.274	44332.76
915.645	43686.94
916.015	38448.79
916.386	36674.01
916.756	39021.44
917.127	40253.65
917.497	35972.37
917.868	39135.69
918.238	37205.12
918.608	38279.62
918.978	39102.33
919.348	41455.42
919.718	42865.08
920.088	41298.69
920.458	42894.24
920.828	45154.6
921.198	42810.09
921.567	45727.62
921.937	35410.64
922.306	35771.11
922.676	38580.41
923.045	32176.57
923.415	30556.84
923.784	27824.62
924.153	28637.25
924.522	28620.86
924.891	26911.72
925.26	28830.49
925.629	28168.96
925.998	32397.56
926.367	31617.56
926.736	30117.98
927.104	35902.94
927.473	38594.76
927.842	46625
928.21	46164.57
928.578	48521.4
928.947	45886.5
929.315	46221.44
929.683	54194.78
930.051	54635.8
930.42	63452.5
930.788	54239.9
931.156	53789.54
931.523	50456.49
931.891	46604.08
932.259	44769.93
932.627	51897.58
932.994	73440.2
933.362	60615.23
933.729	52637.18
934.097	50367.47
934.464	42626.75
934.831	49199.64
935.199	48507.34
935.566	47016.65
935.933	47729.73
936.3	57789.78
936.667	44966.9
937.034	40538.61
937.401	40113.3
937.767	34641.7
938.134	30869.68
938.501	43539.02
938.867	46357.41
939.234	78404.85
939.6	66923.98
939.967	73576.91
940.333	49241.73
940.699	41988.3
941.065	33748.01
941.431	44303.48
941.798	42694.91
942.163	56057.59
942.529	35037.21
942.895	32283.35
943.261	20884.41
943.627	27399.56
943.992	24022.54
944.358	24096.11
944.723	24197.21
945.089	23574.98
945.454	21772.35
945.82	23268.07
946.185	22363.52
946.55	25920.48
946.915	23266.55
947.28	27301.81
947.645	24027.31
948.01	22165.46
948.375	23111.75
948.74	27689.19
949.104	32333.17
949.469	46760.83
949.834	82598.99
950.198	78291.72
950.562	46891.01
950.927	39056.49
951.291	47023.8
951.655	40143.74
952.02	37746.63
952.384	28519.65
952.748	24823.91
953.112	24174.68
953.476	21013.15
953.839	19442.91
954.203	19253.53
954.567	24105.13
954.931	37974.12
955.294	32426.34
955.658	32559.45
956.021	55322.23
956.385	93865.36
956.748	138543.85
957.111	215073.66
957.474	241268.45
957.837	271996.71
958.2	205810.39
958.563	73962.97
958.926	49975.71
959.289	75980.24
959.652	85016.03
960.015	63794.35
960.377	91497.09
960.74	104426.01
961.102	180392.31
961.465	193861.91
961.827	103654.89
962.189	198935.6
962.552	138033.02
962.914	110728.04
963.276	71870.74
963.638	59363.38
964	58767.21
964.362	39736.26
964.724	38409.64
965.085	27378.36
965.447	22431.93
965.809	25573.5
966.17	25588.58
966.532	27671.15
966.893	25386.72
967.255	23095.17
967.616	27261.83
967.977	21840.93
968.338	23877.22
968.699	19634.21
969.061	19629.38
969.421	19755.38
969.782	22190.25
970.143	18750.77
970.504	19443.78
970.865	22120.93
971.225	22606.22
971.586	22120.06
971.946	31548.71
972.307	27364.08
972.667	35756.29
973.027	36799.2
973.388	44654.6
973.748	30348.87
974.108	33045.6
974.468	44667.77
974.828	34444.67
975.188	26500.65
975.548	24352.62
975.907	20431.27
976.267	22907.85
976.627	19243.69
976.986	19975.67
977.346	19045.62
977.705	18323.81
978.064	16683.4
978.424	13877.84
978.783	14347.46
979.142	16384.16
979.501	15666.78
979.86	16564.18
980.219	15970.61
980.578	20600.09
980.937	23062.42
981.296	20545.91
981.654	21140.1
982.013	32908.02
982.371	42726.01
982.73	39833.11
983.088	45155.22
983.447	48192.15
983.805	68851.12
984.163	143802.57
984.521	159669.35
984.879	233832.59
985.237	-380323.83
985.595	366334.35
985.953	91132.99
986.311	52660.31
986.669	30628.05
987.026	26442.03
987.384	35570.8
987.741	36765.34
988.099	26264.57
988.456	20920.91
988.814	19616.39
989.171	17044.13
989.528	16834.96
989.885	17775.48
990.242	14064.1
990.599	17527.17
990.956	14323.17
991.313	10029.7
991.67	8236.61
992.027	8734.58
992.383	7777.79
992.74	6808
993.096	7152.95
993.453	7415.98
993.809	7680.14
994.165	10233.41
994.522	9359.93
994.878	10310.43
995.234	12919.32
995.59	12761.98
995.946	12073.37
996.302	13751.24
996.658	15924.24
997.013	17540.7
997.369	20792.54
997.725	26601.91
998.08	17248.96
998.436	26595.88
998.791	36668.46
999.147	36610.78
999.502	39914.35
999.857	29031.39
1000.212	47354.22
1000.567	67385.45
1000.922	38881.95
1001.277	24682.66
1001.632	18326.93
1001.987	23610.54
1002.342	16969.14
1002.696	13549.6
1003.051	10812.68
1003.406	13085.54
1003.76	13040.28
1004.114	12831.98
1004.469	10786.62
1004.823	8910.94
1005.177	9620.64
1005.531	7621.89
1005.885	6739.55
1006.239	7606.17
1006.593	9555.37
1006.947	12770.79
1007.301	9571.87
1007.655	10445.04
1008.008	7672.47
1008.362	8602.28
1008.715	12325.48
1009.069	11209.69
1009.422	16848.64
1009.776	33934.79
1010.129	22429.71
1010.482	18739.35
1010.835	15862.91
1011.188	33132.93
1011.541	31177.9
1011.894	-190868.08
1012.247	563642.07
1012.6	38183.48
1012.952	24038.82
1013.305	12419.01
1013.657	8929.08
1014.01	8496.79
1014.362	7003.42
1014.715	6224.36
1015.067	5401.66
1015.419	5283.89
1015.771	4662.53
1016.123	4140.93
1016.475	4252.61
1016.827	4541.68
1017.179	4877.14
1017.531	4913.14
1017.883	5006.5
1018.234	4827.95
1018.586	6090.61
1018.938	6455.18
1019.289	8891.27
1019.64	10243.91
1019.992	9545.39
1020.343	8737.03
1020.694	6884.19
1021.045	6068.95
1021.396	6922.3
1021.747	7421.77
1022.098	8919.08
1022.449	6510.3
1022.8	6049.13
1023.151	4201.19
1023.501	3692.53
1023.852	4021.78
1024.202	4182.36
1024.553	4602.05
1024.903	4504.04
1025.253	3848.95
1025.604	3474.19
1025.954	4325.52
1026.304	5234.6
1026.654	6108.29
1027.004	8968.26
1027.354	14588.11
1027.703	13727.07
1028.053	18094.58
1028.403	26542.87
1028.753	38417.63
1029.102	52183
1029.452	266199.01
1029.801	11413.39
1030.15	7373.97
1030.499	6225.79
897.758	2673.75
901.051	2632.2
904.343	2666.21
907.636	2668.69
910.928	2733.03
914.22	2641.2
917.511	2650.66
920.803	2710.03
924.094	2730.35
927.384	2708.47
930.675	2675.67
933.965	2628.43
937.255	2634.61
940.544	2602.4
943.834	2541.36
947.123	2486.46
950.411	2583.91
953.7	2556.72
956.988	2527.74
960.276	2468.48
963.563	2550.55
966.851	2542.73
970.138	2603.48
973.424	2598.6
976.711	2547.21
979.997	2679.03
983.283	2715.95
986.568	2621.01
989.853	2636.33
993.138	2664.46
996.423	2747.24
999.708	2684.51
1002.992	2751.33
1006.275	2583.66
1009.559	2630.73
1012.842	2746.09
1016.125	2678.21
1019.408	2656.18
1022.69	2742.92
1025.972	2762.97
1029.254	2737.75
1032.536	2669.96
1035.817	2697.38
1039.098	2641.43
1042.379	2786.71
1045.659	2784.86
1048.939	2719.53
1052.219	2744.3
1055.498	2750.97
1058.778	2739.91
1062.057	2723.42
1065.335	2743.22
1068.614	2764.91
1071.892	2747.01
1075.17	2822.53
1078.447	2814.33
1081.724	2802.83
1085.001	2840.52
1088.278	2814.12
1091.554	2828.14
1094.83	2822.4
1098.106	2851.6
1101.382	2898.69
1104.657	2897.77
1107.932	2892.02
1111.206	2856.89
1114.481	2812.45
1117.755	2815.21
1121.029	2795.13
1124.302	2848.22
1127.575	2802.51
1130.848	2788.13
1134.121	2750.05
1137.393	2697.71
1140.665	2763.61
1143.937	2740.92
1147.208	2701.56
1150.48	2741.2
1153.75	2730.09
1157.021	2762.85
1160.291	2729.82
1163.561	2775.82
1166.831	2765.71
1170.101	2796.51
1173.37	2768.75
1176.639	2713.43
1179.907	2773.32
1183.176	2778.99
1186.444	2787.61
1189.711	2816.84
1192.979	2825.59
1196.246	2783.81
1199.513	2801.36
1202.78	2797.74
1206.046	2809.87
1209.312	2834.57
1212.578	2861.21
1215.843	2810.08
1219.108	2784.28
1222.373	2808.92
1225.638	2770.02
1228.902	2755.18
1232.166	2715.81
1235.43	2699.53
1238.693	2725.02
1241.956	2721.19
1245.219	2763.88
1248.482	2754.99
1251.744	2752.69
1255.006	2900.82
1258.268	2853.8
1261.529	2798.01
1264.79	2803.79
1268.051	2912.96
1271.312	2929.69
1274.572	2890.56
1277.832	2877.68
1281.092	2869.31
1284.351	2841.16
1287.61	2818.77
1290.869	2734.25
1294.128	2709.55
1297.386	2802.72
1300.644	2791.19
1303.902	2801.91
1307.159	2657.16
1310.416	2715.92
1313.673	2743.42
1316.93	2725.48
1320.186	2773.11
1323.442	2816.47
1326.697	2804.27
1329.953	2793.29
1333.208	2817.49
1336.463	2797.89
1339.717	2736.84
1342.972	2875.55
1346.226	2848.64
1349.479	2778.83
1352.733	2752.28
1355.986	2773.27
1359.238	2749.13
1362.491	2756.52
1365.743	2758.51
1368.995	2750.24
1372.247	2766.25
1375.498	2792.72
1378.749	2806.88
1382	2761
1385.251	2816.16
1388.501	2775.35
1391.751	2759.53
1395	2732.36
1398.25	2762.77
1401.499	2772.14
1404.748	2698.13
1407.996	2686.31
1411.244	2671.01
1414.492	2650.58
1417.74	2631.05
1420.987	2640.36
1424.234	2700.37
1427.481	2680.3
1430.728	2737.56
1433.974	2709.86
1437.22	2728.54
1440.465	2729.37
1443.711	2692.41
1446.956	2728.02
1450.201	2717.41
1453.445	2763.96
1456.689	2743.48
1459.933	2753.95
1463.177	2788.83
1466.42	2759.95
1469.663	2741.98
1472.906	2735.56
1476.148	2813.87
1479.391	2772.95
1482.633	2743.05
1485.874	2753.82
1489.115	2739.87
1492.356	2744.5
1495.597	2720.51
1498.838	2722.02
1502.078	2691.63
1505.318	2640.38
1508.557	2683.21
1511.797	2660.07
1515.036	2731.63
1518.274	2719.03
1521.513	2690.75
1524.751	2713.24
1527.989	2725.64
1531.227	2739.73
1534.464	2735.88
1537.701	2755.82
1540.938	2775.62
1544.174	2728.03
1547.41	2724.78
1550.646	2765.03
1553.882	2802.66
1557.117	2855.99
1560.352	2871.4
1563.587	2828.41
1566.821	2787.44
1570.055	2822.23
1573.289	2793.98
1576.523	2870.98
1579.756	2879.35
1582.989	2896.45
1586.222	2859.64
1589.454	2899.81
1592.686	2871.24
1595.918	2897.68
1599.15	2887.99
1602.381	2965.27
1605.612	2919.33
1608.843	3018.03
1612.073	2928.02
1615.303	2910.26
1618.533	2905.49
1621.762	2906.77
1624.992	2892.42
1628.221	2879.61
1631.449	2865.08
1634.678	2921.8
1637.906	2872.51
1641.134	2911.76
1644.361	2867.03
1647.588	2856.41
1650.815	2873.43
1654.042	2849.4
1657.269	2879.88
1660.495	2832.24
1663.72	2853.5
1666.946	2816.31
1670.171	2757.76
1673.396	2734.69
1676.621	2721.45
1679.845	2741.72
1683.069	2761.7
1686.293	2805.17
1689.517	2775.42
1692.74	2703.93
1695.963	2733.34
1699.185	2752.82
1702.408	2724.86
1705.63	2768.86
1708.852	2778.82
1712.073	2752.9
1715.294	2736.24
1718.515	2799.33
1721.736	2744.42
1724.956	2739.21
1728.176	2766.43
1731.396	2789.8
1734.616	2773.03
1737.835	2802.53
1741.054	2780.32
1744.272	2774.1
1747.491	2805.85
1750.709	2860.7
1753.927	2762.82
1757.144	2809.61
1760.361	2852.72
1763.578	2844.25
1766.795	2784.59
1770.011	2792.21
1773.227	2832.97
1776.443	2867.13
1779.658	2913.68
1782.874	2855.27
1786.089	2833.04
1789.303	2835.78
1792.518	2839.89
1795.732	2827.57
1798.945	2839.65
1802.159	2888
1805.372	2791.36
1808.585	2777.17
1811.797	2780.53
1815.01	2827.5
1818.222	2829.27
1821.434	2801.08
1824.645	2860.71
1827.856	2847.68
1831.067	2883.93
1834.278	2836.09
1837.488	2821.75
1840.698	2971.73
1843.908	2893
1847.117	2856.05
1850.326	2739.22
1853.535	2846.61
1856.744	2872.48
1859.952	2783.7
1863.16	2786.89
1866.368	2808.19
1869.575	2912.94
1872.782	2794.12
1875.989	2731.3
1879.196	2819.31
1882.402	2809.91
1885.608	2851.4
1888.814	2747.77
1892.019	2641.26
1895.224	2694.82
1898.429	2674.36
1901.634	2648.29
1904.838	2625.75
1908.042	2676.27
1911.246	2681.85
1914.449	2608.97
1917.652	2607.54
1920.855	2588.14
1924.058	2641.21
1927.26	2676.74
1930.462	2704.24
1933.664	2728.92
1936.865	2668.53
1940.066	2675.96
1943.267	2621.94
1946.467	2638.43
1949.668	2666.05
1952.868	2732.43
1956.067	2711.05
1959.267	2639.82
1962.466	2669.17
1965.665	2653.91
1968.863	2648.23
1972.061	2664.48
1975.259	2665.22
1978.457	2747.52
1981.654	2703.61
1984.852	2703.46
1988.048	2636.65
1991.245	2640.9
1994.441	2726.63
1997.637	2712.05
2000.833	2694.17
2004.028	2734.94
2007.223	2787.24
2010.418	2763.1
2013.613	2725.17
2016.807	2698.2
2020.001	2704.63
2023.194	2747.41
2026.388	2721.43
2029.581	2668.64
2032.774	2717.83
2035.966	2722.97
2039.158	2652.48
2042.35	2681.25
2045.542	2608.06
2048.733	2706.53
2051.924	2728.61
2055.115	2761.5
2058.306	2704.17
2061.496	2766.61
2064.686	2829.95
2067.875	2741.77
2071.065	2755.92
2074.254	2785.06
2077.442	2736.95
2080.631	2828.07
2083.819	2719.25
2087.007	2702.81
2090.195	2669.32
2093.382	2706.41
2096.569	2684.11
2099.756	2636.07
2102.942	2662.95
2106.128	2669.61
2109.314	2661.18
2112.5	2623.2
2115.685	2596.81
2118.87	2605.97
2122.055	2671.6
2125.239	2638.89
2128.424	2608.78
2131.608	2713.29
2134.791	2695.55
2137.974	2753.71
2141.157	2740.01
2144.34	2689.73
2147.523	2705.81
2150.705	2721.71
2153.887	2701.06
2157.068	2649.44
2160.25	2650.71
2163.431	2689.22
2166.611	2634.12
2169.792	2652.04
2172.972	2545.07
2176.152	2624.13
2179.331	2658.33
2182.511	2639.28
2185.69	2669.52
2188.868	2662.25
2192.047	2720.59
2195.225	2710.42
2198.403	2661.92
2201.58	2652.41
2204.758	2647.64
2207.935	2729.14
2211.111	2618.42
2214.288	2602.85
2217.464	2643.91
2220.64	2612.58
2223.815	2671.32
2226.991	2588.81
2230.166	2608.25
2233.34	2637.47
2236.515	2667.04
2239.689	2740.04
2242.863	2684.21
2246.036	2737.7
2249.209	2738.11
2252.382	2773.73
2255.555	2761.43
2258.727	2697.19
2261.9	2737.43
2265.071	2730.33
2268.243	2730.7
2271.414	2659.51
2274.585	2619.25
2277.756	2688.39
2280.926	2645.96
2284.096	2684.98
2287.266	2590.7
2290.436	2644.65
2293.605	2673.02
2296.774	2703.26
2299.942	2726.55
2303.111	2745.04
2306.279	2792.75
2309.447	2779.94
2312.614	2752.67
2315.781	2770.6
2318.948	2742.5
2322.115	2779.69
2325.281	2684.44
2328.447	2704.52
2331.613	2678.25
2334.779	2648.25
2337.944	2651.93
2341.109	2650.11
2344.274	2633.13
2347.438	2599.24
2350.602	2622.41
2353.766	2642.19
2356.929	2628.4
2360.092	2669.62
2363.255	2619.79
2366.418	2553.11
2369.58	2668.61
2372.742	2452.52
2375.904	2468.37
2379.066	2443.9
2382.227	2480.73
2385.388	2444.38
2388.548	2363.64
2391.709	2420.34
2394.869	2400.86
2398.029	2502.95
2401.188	2517.25
2404.347	2449.32
2407.506	2592.35
2410.665	2622.42
2413.823	2627.27
2416.981	2584.25
2420.139	2616.68
2423.296	2668.47
2426.453	2640.1
2429.61	2664.12
2432.767	2596.19
2435.923	2635.85
2439.079	2596.55
2442.235	2647.21
2445.391	2571.14
2448.546	2603.79
2451.701	2653.37
2454.855	2623.66
2458.009	2679.52
2461.163	2683.36
2464.317	2638.39
2467.471	2672.19
2470.624	2711.31
2473.777	2683.41
2476.929	2697.22
2480.082	2723.87
2483.234	2685.16
2486.385	2637.68
2489.537	2631.76
2492.688	2589.13
2495.839	2607.82
2498.989	2621.05
2502.14	2604.75
2505.29	2585.79
2508.439	2616.01
2511.589	2537.12
2514.738	2547.96
2517.887	2580.81
2521.035	2645.97
2524.183	2626.78
2527.331	2609.52
2530.479	2580.91
2533.627	2591.71
