Data from N_3_DIV_IL_4N_Splice17_13-20-45-610.txt Node
Date: Sat Mar 14 13:20:45 EDT 2020
User: sa697716
Spectrometer: FLMS03696
Trigger mode: 0
Integration Time (sec): 3.180400E-1
Scans to average: 20
Electric dark correction enabled: true
Nonlinearity correction enabled: true
Boxcar width: 5
XAxis mode: Wavelengths
Number of Pixels in Spectrum: 2048
>>>>>Begin Spectral Data<<<<<
187.83	-352198.91
188.298	2677.29
188.766	1412.41
189.233	1251.4
189.701	1758.31
190.169	2354.76
190.636	905.67
191.104	734.29
191.571	143.29
192.039	-52.65
192.506	-49.49
192.974	515.95
193.441	-755.56
193.908	-159.01
194.375	-13.89
194.842	44.71
195.31	74.3
195.777	177.37
196.244	413.07
196.711	461.94
197.177	565.97
197.644	764.95
198.111	1305.38
198.578	1825
199.045	1457.93
199.511	2343.12
199.978	2684.97
200.445	2299.74
200.911	2517.12
201.378	2756.99
201.844	2528.3
202.31	4321.37
202.777	4477.69
203.243	2502.14
203.709	2383.88
204.176	2823.66
204.642	2346.7
205.108	2204.4
205.574	1794.42
206.04	1626.94
206.506	1543.72
206.972	1424.61
207.438	1362.93
207.903	1549.02
208.369	1356.82
208.835	1363.82
209.301	1425.25
209.766	1429.9
210.232	1415.6
210.697	1731.88
211.163	2129.65
211.628	3151.09
212.094	2659
212.559	3273.31
213.024	2044.34
213.49	2480.27
213.955	2397.84
214.42	2317.97
214.885	2168.95
215.35	2076.03
215.815	2024.7
216.28	2133.98
216.745	1724.57
217.21	1840.09
217.675	1645.6
218.14	1809.85
218.604	1977.36
219.069	2190.94
219.534	2271.73
219.998	2572.77
220.463	3047.93
220.927	3615.62
221.392	3352.29
221.856	3359.49
222.32	4156.62
222.785	5095.6
223.249	6351.67
223.713	6996.03
224.177	6962.92
224.642	8797.74
225.106	10786.43
225.57	11708.49
226.034	8726.5
226.497	13284.93
226.961	11981.4
227.425	13971.8
227.889	15409.94
228.353	15318.33
228.816	31640.09
229.28	30283.17
229.744	25595.99
230.207	15533.63
230.671	15290.42
231.134	25169.87
231.597	28952.02
232.061	28873.18
232.524	28079.27
232.987	19334.28
233.45	17484.99
233.914	15638.04
234.377	15957.34
234.84	14569.88
235.303	17152.84
235.766	19116.1
236.229	19821.13
236.691	12482.17
237.154	14015.47
237.617	10554.24
238.08	10818.68
238.542	12653.15
239.005	9072.65
239.468	9023.47
239.93	8519.52
240.393	7760.96
240.855	6833.03
241.317	6959.84
241.78	8454.86
242.242	8761.2
242.704	9492.88
243.166	8288.96
243.629	7558.05
244.091	8725.51
244.553	9575.77
245.015	10307.64
245.477	13355.47
245.939	19585.39
246.4	20867.97
246.862	20317.17
247.324	19214.23
247.786	21512.14
248.247	28188.57
248.709	29052.63
249.17	21762.66
249.632	20596.29
250.093	23965.6
250.555	20678.08
251.016	12636.74
251.477	11994.95
251.939	12967.22
252.4	13578.95
252.861	16133.81
253.322	15034.27
253.783	17870.72
254.244	23108.98
254.705	18166.34
255.166	16107.93
255.627	15872.46
256.088	22409.62
256.549	23849.94
257.009	20525.11
257.47	24900.34
257.931	20287.85
258.391	15183.13
258.852	15654.39
259.312	16452.91
259.773	20341.93
260.233	17243.53
260.694	14562.17
261.154	16493.74
261.614	13221.79
262.074	11817.36
262.534	12278.25
262.994	11570.53
263.455	15402.02
263.915	12970.69
264.374	12206.53
264.834	13296.71
265.294	14710.24
265.754	15211.5
266.214	14388.84
266.673	13484.17
267.133	16972.17
267.593	16793.83
268.052	20517.54
268.512	17816.35
268.971	21527.2
269.431	23576
269.89	21096.35
270.349	31571.93
270.809	35222.25
271.268	31634.78
271.727	70846.27
272.186	45921.59
272.645	34428.74
273.104	24804.62
273.563	35914.94
274.022	28136.9
274.481	23946.22
274.94	18470.11
275.399	13716.22
275.857	15931.74
276.316	21523.21
276.775	19136.55
277.233	18863.53
277.692	17724.73
278.15	20060.37
278.609	20688.82
279.067	19163.75
279.525	17826.97
279.984	22997.8
280.442	27637.21
280.9	27365.28
281.358	18024.08
281.816	16842.32
282.274	16490.75
282.732	17009.1
283.19	17117.83
283.648	14759.76
284.106	15728.89
284.564	15973.83
285.021	14839.82
285.479	11063.47
285.937	10033.06
286.394	8824.41
286.852	9080.21
287.309	9548.31
287.767	9260.12
288.224	8826.9
288.682	9694.03
289.139	10681.44
289.596	9801.43
290.053	10189.07
290.511	12879.12
290.968	15653.22
291.425	21235.23
291.882	17718.78
292.339	15432.74
292.796	15291.4
293.252	14402.72
293.709	11488.42
294.166	10275.78
294.623	11338.38
295.079	10886.43
295.536	10956.39
295.992	9956.41
296.449	9859.61
296.905	10214.59
297.362	9826.56
297.818	10337.12
298.274	10744.84
298.731	10900.98
299.187	10790.69
299.643	11588.52
300.099	14027.29
300.555	15372.81
301.011	12827.92
301.467	12409.93
301.923	14546.05
302.379	14186.11
302.835	13927.38
303.291	13919.02
303.746	15887.31
304.202	20105.75
304.658	20192.74
305.113	13592.56
305.569	13337.26
306.024	14259.27
306.479	13538.99
306.935	11437.98
307.39	12504.63
307.845	11560.44
308.301	11673.59
308.756	11350.21
309.211	10942.16
309.666	11241.69
310.121	13983.66
310.576	14205.16
311.031	14072.72
311.486	16085.23
311.94	16088.09
312.395	21518.65
312.85	40474.63
313.305	198469.26
313.759	1035922.01
314.214	75261.87
314.668	59803.98
315.123	50353.29
315.577	18132.41
316.032	16192.16
316.486	20349.76
316.94	16067.06
317.394	11232.06
317.849	8749.45
318.303	8302.54
318.757	7830.57
319.211	8645.28
319.665	7561.67
320.119	7657.99
320.572	10943.31
321.026	10234.75
321.48	8522.28
321.934	9298.99
322.387	9307.49
322.841	10064.99
323.295	9099.26
323.748	10446.67
324.202	10638.09
324.655	12820.58
325.108	18002.53
325.562	12775.45
326.015	15156.71
326.468	11486.3
326.921	12888.13
327.374	12036.96
327.827	12565.61
328.28	14206.82
328.733	9554.46
329.186	8397.15
329.639	7983.21
330.092	6717.2
330.545	6401.55
330.997	6501.11
331.45	7138.69
331.903	8395.38
332.355	14458.29
332.808	14046.01
333.26	11573.17
333.713	12595.33
334.165	12700.42
334.617	17043.15
335.069	13748.1
335.522	24891.8
335.974	27426.45
336.426	24934.28
336.878	17198.79
337.33	8737.21
337.782	8531.92
338.234	10702.86
338.686	12777.98
339.137	15138.88
339.589	14230.24
340.041	11197.32
340.493	9609.97
340.944	9866.06
341.396	10668.67
341.847	9003.71
342.299	10657.19
342.75	13052.65
343.201	11425.32
343.653	13139.63
344.104	16166.56
344.555	12742.07
345.006	19741.47
345.457	15167.17
345.908	12063.19
346.359	11371.67
346.81	9256.2
347.261	9711.37
347.712	9541.89
348.163	10203.88
348.613	10378.26
349.064	9696.42
349.515	8466.37
349.965	8725.25
350.416	10524.44
350.866	11542.02
351.317	12973.06
351.767	21529.23
352.217	27208.14
352.668	22598.12
353.118	20717.37
353.568	19943.47
354.018	15759.93
354.468	16659.91
354.918	11924.36
355.368	10374.07
355.818	14662.71
356.268	42371.83
356.718	177120.32
357.168	44164.95
357.617	22142.26
358.067	24639.81
358.517	23026.88
358.966	27027.85
359.416	30394.81
359.865	32829.13
360.315	39297.28
360.764	18366.59
361.213	10282.11
361.663	9722.45
362.112	11991.66
362.561	19392.63
363.01	14626.73
363.459	12332.39
363.908	13336.12
364.357	11342.2
364.806	19175.45
365.255	13159.73
365.703	12057.14
366.152	12092.58
366.601	9813.16
367.05	7986.32
367.498	7273.92
367.947	7573.47
368.395	7854.29
368.844	6970.37
369.292	8348.39
369.74	5780.39
370.189	8837.25
370.637	10364.09
371.085	8924.97
371.533	10840.03
371.981	10415.38
372.429	9960.93
372.877	10381.29
373.325	8716.53
373.773	8860.92
374.221	7896.57
374.669	9764.27
375.116	8432.44
375.564	8469.31
376.012	9445.73
376.459	7802.39
376.907	9304.82
377.354	11211.28
377.801	10477.9
378.249	12027.98
378.696	15331.6
379.143	18556.17
379.591	19750.85
380.038	33359.01
380.485	24118.95
380.932	26099.25
381.379	23896.52
381.826	17661.09
382.273	12463.06
382.72	10850.71
383.166	10588.59
383.613	6874.83
384.06	6179.48
384.506	7147.83
384.953	5238.58
385.4	5261.69
385.846	4572.13
386.292	4429.69
386.739	4306.6
387.185	4247.75
387.631	4249.39
388.078	4109.93
388.524	4374.11
388.97	4033.42
389.416	3358.93
389.862	3568.43
390.308	3374.67
390.754	3435.87
391.2	3714.49
391.645	3789.29
392.091	3647.69
392.537	3524.14
392.983	3519.37
393.428	3483.76
393.874	3723.2
394.319	3746.18
394.765	3554.37
395.21	3647.82
395.655	3410.03
396.101	3200.15
396.546	2899.82
396.991	2909.75
397.436	2699.54
397.881	2602.92
398.326	2449.71
398.771	2325.65
399.216	2022.03
399.661	1817.97
400.106	1819.99
400.551	1874.63
400.995	1681.7
401.44	1659.14
401.885	1563.41
402.329	1587.27
402.774	1531.54
403.218	1498.2
403.663	1446.5
404.107	1493.39
404.551	1510.89
404.995	1382.78
405.44	1333.63
405.884	1356.42
406.328	1310.27
406.772	1307.66
407.216	1191.24
407.66	1151.11
408.104	1087.21
408.547	1020.77
408.991	990.26
409.435	955.58
409.879	949.14
410.322	937.49
410.766	908.77
411.209	870.35
411.653	836.14
412.096	823.33
412.54	824.89
412.983	825.5
413.426	830.93
413.869	833.82
414.312	819.55
414.756	790.89
415.199	755.78
415.642	737.54
416.085	743.91
416.527	744.22
416.97	758.34
417.413	722.41
417.856	712.3
418.298	707.25
418.741	700.61
419.184	702.67
419.626	727.74
420.069	729.28
420.511	736.49
420.953	722.96
421.396	717.36
421.838	696.04
422.28	710.79
422.722	719.11
423.164	728.43
423.606	719.45
424.048	716.73
424.49	683.94
424.932	681.68
425.374	669.42
425.816	678.43
426.258	691.04
426.699	701.95
427.141	697.26
427.582	705.86
428.024	700.79
428.465	695.15
428.907	678.53
429.348	671.7
429.789	674.32
430.231	663.47
430.672	671.54
431.113	655.65
431.554	646.55
431.995	626.41
432.436	606.49
432.877	594.12
433.318	587.64
433.759	584.54
434.2	584.83
434.64	575.24
435.081	574.75
435.522	546.53
435.962	527.04
436.403	516.3
436.843	521.99
437.284	508.04
437.724	492.42
438.164	491.9
438.604	481.23
439.045	464.7
439.485	449.94
439.925	440.63
440.365	428.66
440.805	423.08
441.245	418.96
441.685	406.56
442.125	404.58
442.564	407.92
443.004	398.35
443.444	397.41
443.883	397.96
444.323	393.19
444.762	392.1
445.202	398.73
445.641	407.97
446.081	404.13
446.52	407.64
446.959	404.69
447.398	399.01
447.837	395.85
448.276	389.46
448.716	393.73
449.154	397.35
449.593	391.01
450.032	390.09
450.471	382.36
450.91	383
451.349	383.4
451.787	382.07
452.226	387.05
452.664	387.81
453.103	390.72
453.541	390.51
453.98	392.64
454.418	394.83
454.856	391.13
455.295	390.6
455.733	395.05
456.171	397.12
456.609	398.17
457.047	398.28
457.485	404.49
457.923	405.69
458.361	399.85
458.798	400.24
459.236	399.85
459.674	400.93
460.111	402.01
460.549	397.03
460.987	394.2
461.424	391.7
461.862	388.84
462.299	382.15
462.736	381.75
463.173	382.6
463.611	380.52
464.048	379.43
464.485	383.25
464.922	380.86
465.359	378.96
465.796	381.69
466.233	380.56
466.67	379.15
467.106	378.56
467.543	373.23
467.98	368.67
468.416	357.2
468.853	354.1
469.29	341.95
469.726	337.68
470.162	328.97
470.599	319.35
471.035	315.43
471.471	307.55
471.907	305.08
472.344	303.51
472.78	305.28
473.216	308.86
473.652	305.01
474.088	304.72
474.523	305.13
474.959	308.28
475.395	306.08
475.831	304.78
476.266	307.72
476.702	307.73
477.138	304.95
477.573	303.76
478.008	303.04
478.444	306.24
478.879	310.51
479.314	311.92
479.75	312.81
480.185	313.98
480.62	317.23
481.055	318.17
481.49	321.04
481.925	326.44
482.36	334.45
482.795	343.25
483.229	353.37
483.664	361.04
484.099	361.82
484.534	367.8
484.968	372.26
485.403	373.59
485.837	372.95
486.271	372.61
486.706	372.81
487.14	367.24
487.574	362.24
488.009	358.28
488.443	355.53
488.877	361.29
489.311	362.75
489.745	368.28
490.179	372.88
490.613	382.87
491.046	387.41
491.48	392.32
491.914	395.42
492.348	400.75
492.781	405.72
493.215	409.05
493.648	411.72
494.082	417.48
494.515	420.03
494.948	428.93
495.382	433.35
495.815	439.2
496.248	446.27
496.681	456.66
497.114	466.46
497.547	476.05
497.98	488.34
498.413	496.38
498.846	506.89
499.279	516.77
499.711	523.18
500.144	529.15
500.577	541.62
501.009	553.35
501.442	566.17
501.874	573.62
502.306	580.22
502.739	592.43
503.171	607.92
503.603	615.6
504.036	627.75
504.468	637.84
504.9	652.39
505.332	662.63
505.764	671.01
506.196	681.85
506.627	698.48
507.059	714.59
507.491	725.79
507.923	730.31
508.354	747.93
508.786	761.81
509.217	781.03
509.649	798.58
510.08	818.87
510.512	839.5
510.943	856.93
511.374	871.29
511.805	892.59
512.237	913.63
512.668	944.81
513.099	972.49
513.53	1000.19
513.961	1023.17
514.391	1054.38
514.822	1088.3
515.253	1121.81
515.684	1148.64
516.114	1179.07
516.545	1203.31
516.975	1230.66
517.406	1251.15
517.836	1256.83
518.267	1267.23
518.697	1286.44
519.127	1293.74
519.558	1303.51
519.988	1310.79
520.418	1322.35
520.848	1340.42
521.278	1350.97
521.708	1381.95
522.138	1396.78
522.567	1428.35
522.997	1454.01
523.427	1469.59
523.857	1488.42
524.286	1498.73
524.716	1514.62
525.145	1534.34
525.575	1546.34
526.004	1560.68
526.433	1544.46
526.863	1546.03
527.292	1538.12
527.721	1544.31
528.15	1552.07
528.579	1553.63
529.008	1565.13
529.437	1587.52
529.866	1601.17
530.295	1618.71
530.724	1631.94
531.152	1657.38
531.581	1670.66
532.01	1686.91
532.438	1696.35
532.867	1710.89
533.295	1728.5
533.723	1735.32
534.152	1734.35
534.58	1735.77
535.008	1720.42
535.436	1723.01
535.865	1731.49
536.293	1745.83
536.721	1761.85
537.149	1785.29
537.576	1787.72
538.004	1799.21
538.432	1806.95
538.86	1804.2
539.287	1809.62
539.715	1822.13
540.143	1823.38
540.57	1818.23
540.998	1814.29
541.425	1793.85
541.852	1773.08
542.28	1771.24
542.707	1754.79
543.134	1741.38
543.561	1737.8
543.988	1730.84
544.415	1731.67
544.842	1727.42
545.269	1722.07
545.696	1725
546.123	1736.83
546.549	1728.44
546.976	1717.58
547.403	1718.76
547.829	1720.75
548.256	1723.12
548.682	1720.51
549.108	1713.91
549.535	1714.11
549.961	1717.36
550.387	1705.15
550.813	1700.38
551.24	1707.25
551.666	1708.08
552.092	1700.26
552.518	1694.17
552.943	1690
553.369	1696.93
553.795	1703.56
554.221	1705.07
554.646	1702.23
555.072	1713.28
555.498	1718.17
555.923	1727.83
556.349	1742.69
556.774	1751.32
557.199	1754.07
557.625	1759.62
558.05	1755.4
558.475	1764.49
558.9	1765.02
559.325	1758.06
559.75	1752.96
560.175	1747.24
560.6	1741.74
561.025	1739.65
561.449	1740.12
561.874	1746.15
562.299	1750.66
562.723	1757.56
563.148	1749
563.572	1751.97
563.997	1761.03
564.421	1764.45
564.846	1763.67
565.27	1765.86
565.694	1763.26
566.118	1774.79
566.542	1780.9
566.966	1774.23
567.39	1768.24
567.814	1757.12
568.238	1756.32
568.662	1761.11
569.086	1763.25
569.509	1770.93
569.933	1756.21
570.357	1749.23
570.78	1728.57
571.204	1715.47
571.627	1704.8
572.05	1703.79
572.474	1703.56
572.897	1690.57
573.32	1682.85
573.743	1675.09
574.166	1658.13
574.589	1657.67
575.012	1649.89
575.435	1649.36
575.858	1641.98
576.281	1631.7
576.704	1616.48
577.126	1604.63
577.549	1596.17
577.972	1586.71
578.394	1575.03
578.817	1569.18
579.239	1551.7
579.661	1539.89
580.084	1524.85
580.506	1511.83
580.928	1508.67
581.35	1498.74
581.772	1494.81
582.194	1481.46
582.616	1468.82
583.038	1455.47
583.46	1444.06
583.882	1440.59
584.303	1444.73
584.725	1439.5
585.147	1443.41
585.568	1452.66
585.99	1463.65
586.411	1468.95
586.833	1482.51
587.254	1484.1
587.675	1497.42
588.096	1509.71
588.518	1504.27
588.939	1486.64
589.36	1484.44
589.781	1471.3
590.202	1444.07
590.623	1435.78
591.043	1432.82
591.464	1419.83
591.885	1416.62
592.305	1410.21
592.726	1395.94
593.147	1396.79
593.567	1390.94
593.987	1383.9
594.408	1377.9
594.828	1375.88
595.248	1370.84
595.669	1354.17
596.089	1347.6
596.509	1340.67
596.929	1328.66
597.349	1328.85
597.769	1319.1
598.189	1314
598.608	1316
599.028	1318.51
599.448	1318.3
599.867	1304.87
600.287	1301.09
600.706	1296.29
601.126	1287.1
601.545	1285.02
601.965	1283.51
602.384	1278.8
602.803	1281.03
603.222	1275.69
603.641	1269.35
604.061	1265.75
604.48	1261.42
604.898	1267.13
605.317	1271.93
605.736	1273.38
606.155	1270.62
606.574	1261.77
606.992	1265.64
607.411	1260.57
607.829	1251.95
608.248	1247.45
608.666	1244.35
609.085	1243.08
609.503	1235.29
609.921	1228.37
610.339	1228.53
610.758	1227.48
611.176	1222.35
611.594	1212.93
612.012	1208.31
612.43	1210.87
612.847	1216.69
613.265	1216.35
613.683	1219.64
614.101	1219.64
614.518	1214.03
614.936	1204.69
615.353	1189.61
615.771	1186
616.188	1186.16
616.606	1182.56
617.023	1175.23
617.44	1160.89
617.857	1154.01
618.274	1145.52
618.691	1138.8
619.108	1130.09
619.525	1123.89
619.942	1129.3
620.359	1130.31
620.776	1124.49
621.192	1120.21
621.609	1116.74
622.026	1122.88
622.442	1127.49
622.859	1130.43
623.275	1122.85
623.691	1128.06
624.108	1137.47
624.524	1150.15
624.94	1150.59
625.356	1159
625.772	1170.76
626.188	1182.3
626.604	1183.03
627.02	1178.55
627.436	1176.63
627.852	1183.95
628.268	1193.92
628.683	1185.02
629.099	1177.3
629.514	1171.75
629.93	1174.62
630.345	1177.95
630.761	1173.15
631.176	1176.11
631.591	1170.76
632.007	1163.4
632.422	1159.71
632.837	1149.48
633.252	1146.49
633.667	1136.21
634.082	1127.49
634.497	1114.15
634.911	1096.11
635.326	1090.63
635.741	1072.5
636.155	1061.01
636.57	1060.4
636.984	1058.17
637.399	1056.12
637.813	1052.97
638.228	1047.93
638.642	1047.61
639.056	1035.55
639.47	1031.22
639.884	1020.51
640.298	1011.61
640.712	1007.03
641.126	991.69
641.54	980.05
641.954	970.31
642.368	956.1
642.781	947.6
643.195	928.96
643.609	925.52
644.022	916.21
644.436	908.8
644.849	894.53
645.262	881.01
645.676	878.47
646.089	870.09
646.502	856.29
646.915	848.55
647.328	830.94
647.741	826.3
648.154	813.12
648.567	809.85
648.98	798.64
649.393	797.1
649.805	792.81
650.218	785.75
650.631	772.05
651.043	766.37
651.456	760.97
651.868	759.5
652.28	771.06
652.693	779.77
653.105	781.68
653.517	784.55
653.929	783.7
654.341	785.88
654.753	774.9
655.165	777.58
655.577	772.53
655.989	765.66
656.401	756.8
656.813	727.74
657.224	709.79
657.636	685.01
658.047	670.16
658.459	651.8
658.87	641.17
659.282	627.88
659.693	610.09
660.104	595.84
660.515	582.37
660.926	575.35
661.338	568.27
661.749	559.7
662.159	549.9
662.57	541.98
662.981	534.1
663.392	525
663.803	524.25
664.213	518.38
664.624	510.51
665.035	506.81
665.445	494.46
665.855	487.76
666.266	479.86
666.676	475.02
667.086	465.31
667.497	462.64
667.907	455.7
668.317	446.83
668.727	443.02
669.137	441.18
669.547	438.1
669.956	437.78
670.366	436.58
670.776	435.03
671.186	434.34
671.595	435.55
672.005	434.58
672.414	433.56
672.824	431.8
673.233	431.57
673.642	432.31
674.052	434.52
674.461	436.5
674.87	437.42
675.279	436.63
675.688	436.99
676.097	439.15
676.506	439.1
676.915	447.22
677.323	449.18
677.732	450.31
678.141	451.26
678.549	445.82
678.958	446.25
679.366	448.24
679.775	452.92
680.183	464.82
680.592	470.64
681	477.68
681.408	477.98
681.816	487.19
682.224	496.07
682.632	508.6
683.04	533.18
683.448	554.5
683.856	581.19
684.264	612.35
684.671	640.26
685.079	676.72
685.487	716.92
685.894	771.1
686.302	819.02
686.709	862.84
687.116	911.97
687.524	957.93
687.931	1000.14
688.338	1038.68
688.745	1072.95
689.152	1109.46
689.559	1155.88
689.966	1202.32
690.373	1230.6
690.78	1276.5
691.187	1340.21
691.593	1390.63
692	1432.76
692.407	1493.15
692.813	1566.12
693.22	1624.67
693.626	1684.32
694.032	1733.2
694.439	1805.55
694.845	1863.01
695.251	1929.58
695.657	1990.34
696.063	2079.91
696.469	2149.31
696.875	2213.39
697.281	2249.69
697.687	2292.65
698.093	2331.44
698.498	2399.61
698.904	2448.95
699.31	2526.47
699.715	2584.79
700.12	2666.86
700.526	2682.48
700.931	2744.62
701.337	2790.07
701.742	2817.85
702.147	2892.14
702.552	2917.31
702.957	2968.9
703.362	2986.52
703.767	3010.51
704.172	3043.87
704.577	2997.27
704.981	3037.19
705.386	3048.52
705.791	3037.82
706.195	3101.66
706.6	3107.5
707.004	3175.88
707.408	3144.15
707.813	3167.74
708.217	3154.35
708.621	3153.71
709.025	3238.77
709.43	3238.76
709.834	3291.76
710.237	3352.59
710.641	3337.04
711.045	3354.04
711.449	3346.5
711.853	3372.38
712.256	3406.54
712.66	3436.55
713.064	3502.12
713.467	3536.53
713.87	3631.7
714.274	3668.73
714.677	3763.19
715.08	3902.92
715.484	4049.79
715.887	4228.2
716.29	4396.44
716.693	4575.18
717.096	4783.98
717.499	4895.42
717.901	4916.66
718.304	4935.73
718.707	4949.47
719.109	4855.15
719.512	4826.19
719.915	4702.61
720.317	4647.93
720.719	4685.7
721.122	4657.31
721.524	4609.12
721.926	4570.54
722.328	4652.53
722.731	4642.6
723.133	4667.29
723.535	4833.01
723.937	4845.18
724.338	4890.18
724.74	4922.46
725.142	4883.18
725.544	4880.89
725.945	4908.17
726.347	4899.56
726.748	4893.81
727.15	4905.47
727.551	4870.37
727.952	4844.43
728.354	4817.82
728.755	4815.66
729.156	4778.1
729.557	4748.77
729.958	4638.48
730.359	4584.31
730.76	4568.96
731.161	4514.45
731.562	4491.36
731.962	4493.47
732.363	4436.95
732.763	4382.04
733.164	4411.84
733.564	4353.64
733.965	4270.91
734.365	4242.47
734.766	4265.8
735.166	4230.14
735.566	4182.51
735.966	4159.07
736.366	4154.69
736.766	4100.75
737.166	4128.19
737.566	4091.34
737.966	4068.56
738.365	4102.77
738.765	4098.18
739.165	4034.26
739.564	4010.86
739.964	4048.88
740.363	4009.33
740.763	4005.92
741.162	3996.89
741.561	3970.29
741.96	3931.6
742.36	3948.66
742.759	3953.1
743.158	3985.08
743.557	3997.23
743.955	4032.59
744.354	3993.69
744.753	4040.53
745.152	4006.76
745.55	4051.32
745.949	4043.33
746.348	4043.34
746.746	4053.92
747.144	4019.79
747.543	4001.63
747.941	4042.26
748.339	3982.78
748.737	3977.87
749.136	3969.32
749.534	4023.35
749.932	4001.43
750.33	4020.16
750.727	4067.64
751.125	4047.27
751.523	4030.51
751.921	4065.62
752.318	4036.37
752.716	4085.11
753.113	4093.42
753.511	4113.95
753.908	4112.75
754.305	4098.01
754.703	4149.6
755.1	4200.91
755.497	4252.73
755.894	4412.96
756.291	4564.03
756.688	4844.04
757.085	5213.89
757.482	5738.32
757.878	6307.81
758.275	6817.72
758.672	7520.48
759.068	8096.67
759.465	8915.4
759.861	9972.93
760.258	11202.34
760.654	11830.65
761.05	11730.81
761.447	11192.94
761.843	10420.11
762.239	9627.1
762.635	9272.56
763.031	8932.41
763.427	8436.91
763.822	7911.74
764.218	7393.48
764.614	6722.18
765.01	6274.5
765.405	5984.32
765.801	5766.47
766.196	5482.93
766.592	5327.51
766.987	5062.34
767.382	4881.79
767.778	4804.37
768.173	4697.59
768.568	4637.01
768.963	4534.09
769.358	4550.08
769.753	4512.54
770.148	4441.61
770.542	4441.65
770.937	4415.86
771.332	4492.56
771.726	4507.72
772.121	4459.02
772.515	4505.85
772.91	4494.82
773.304	4554
773.699	4498.1
774.093	4542.06
774.487	4586.06
774.881	4623.1
775.275	4617.48
775.669	4582.66
776.063	4622.88
776.457	4650.78
776.851	4585.7
777.245	4579.43
777.638	4604.5
778.032	4699.04
778.425	4667.17
778.819	4708.39
779.212	4672.22
779.606	4639.18
779.999	4654.1
780.392	4638.15
780.786	4703.64
781.179	4720.55
781.572	4754.45
781.965	4766.74
782.358	4717.59
782.751	4765.68
783.143	4721.4
783.536	4781.13
783.929	4813.44
784.322	4909.97
784.714	4936.06
785.107	4934.64
785.499	4998.79
785.891	4981.28
786.284	4963.16
786.676	5083.22
787.068	5066.97
787.46	5109.86
787.852	5128.42
788.245	5206.51
788.636	5230.01
789.028	5286.42
789.42	5322.09
789.812	5330.5
790.204	5410.22
790.595	5498.42
790.987	5337.8
791.378	5357.37
791.77	5467.56
792.161	5583.08
792.553	5629.73
792.944	5539.8
793.335	5484.38
793.726	5546.12
794.117	5619.54
794.508	5737.67
794.899	5711.84
795.29	5828.56
795.681	5881.27
796.072	5761.07
796.463	5614.82
796.853	5624.7
797.244	5759.76
797.634	5789.69
798.025	5789.9
798.415	5800.44
798.806	5880.78
799.196	5955.67
799.586	6004.75
799.976	5974.72
800.366	6174.99
800.756	6370.14
801.146	6333.7
801.536	6358.5
801.926	6418.78
802.316	6439.91
802.706	6504.54
803.095	6396.37
803.485	6481.23
803.874	6513.39
804.264	6732.2
804.653	6709.18
805.043	6831.53
805.432	6926.53
805.821	6929.42
806.21	6949.9
806.599	7052.14
806.988	7089.58
807.377	7184.14
807.766	7297.02
808.155	7536.53
808.544	7309.33
808.933	7323.51
809.321	7308.21
809.71	7559.06
810.098	7692.13
810.487	8086.57
810.875	8497.39
811.264	8517.09
811.652	8766.88
812.04	8888.41
812.428	9024.54
812.816	9678.42
813.204	10033.34
813.592	10500.33
813.98	10787.55
814.368	10712.92
814.756	11117.44
815.144	11048.91
815.531	11444.62
815.919	11377.05
816.306	11642.72
816.694	11383.18
817.081	11422.78
817.469	11719.69
817.856	11720.09
818.243	11953.24
818.63	12283.05
819.017	11926.29
819.404	11973.73
819.791	12297.44
820.178	12817.01
820.565	13023.06
820.952	13812.99
821.339	13394.48
821.725	13547.35
822.112	12917.08
822.498	12880.63
822.885	12990.22
823.271	12911.26
823.657	13270.59
824.044	13273.5
824.43	13331.16
824.816	13310.47
825.202	12949.71
825.588	13812.82
825.974	13829.48
826.36	14269.7
826.746	14294.44
827.132	14597.62
827.517	14575.35
827.903	13909.74
828.289	13944.9
828.674	13291.06
829.06	13199.25
829.445	13530.18
829.83	13841.34
830.216	14245.25
830.601	14555.31
830.986	14215.01
831.371	14107.11
831.756	14584.73
832.141	14218.84
832.526	14216.24
832.911	14456.5
833.295	14353.09
833.68	14750.92
834.065	14218.54
834.449	13437.97
834.834	13376.67
835.218	13373.4
835.603	13651.2
835.987	13461.7
836.371	14165.2
836.755	14076.98
837.139	14412.24
837.524	14615.52
837.908	14463.62
838.291	14513.01
838.675	14574.96
839.059	14753.36
839.443	14732.29
839.827	14538.81
840.21	14943.45
840.594	14813.63
840.977	14983.77
841.361	14964.69
841.744	15275.17
842.127	15135.1
842.511	15330.8
842.894	15816.42
843.277	16123.97
843.66	16579.7
844.043	16639.63
844.426	15963.07
844.809	15694.47
845.191	15710.58
845.574	15324.29
845.957	15014.21
846.339	14924.38
846.722	14492.09
847.104	14554.39
847.487	14401.48
847.869	14407.23
848.252	14643.25
848.634	14914.99
849.016	15148.53
849.398	15247.41
849.78	15955.63
850.162	15968.04
850.544	16318.28
850.926	16841.88
851.307	16761.89
851.689	16999.54
852.071	17372.92
852.452	17643.81
852.834	17624.57
853.215	17948.9
853.597	18087.78
853.978	18334.47
854.359	18714.19
854.741	17879.5
855.122	17798.49
855.503	17558.21
855.884	17668.91
856.265	17634.43
856.646	17728.88
857.026	17400.46
857.407	17348.11
857.788	17482.25
858.169	17725.5
858.549	17009.6
858.93	17536.3
859.31	17576.35
859.69	17757.09
860.071	17416.03
860.451	17224.31
860.831	16606.31
861.211	17586.54
861.591	18045.8
861.971	18025.78
862.351	18186.6
862.731	18521.88
863.111	18738.45
863.491	19022.18
863.87	19762
864.25	20064.29
864.629	19728.68
865.009	20158.23
865.388	20878.35
865.768	22371.02
866.147	22279.56
866.526	21053.03
866.905	21302.77
867.284	22494.7
867.663	21352.73
868.042	20464.91
868.421	20398.02
868.8	20744.54
869.179	20956.25
869.558	19725.78
869.936	18183.08
870.315	18505.94
870.693	18958.43
871.072	20442.64
871.45	19483.11
871.828	19737.24
872.207	20741.99
872.585	20426.43
872.963	20977.24
873.341	20259.14
873.719	20028
874.097	19780.04
874.475	20158.61
874.853	20617.6
875.23	19756.21
875.608	20582.16
875.986	22262.06
876.363	21294.6
876.741	21946.51
877.118	21399.55
877.495	22449.05
877.873	22814.03
878.25	24022.26
878.627	23044.32
879.004	23361.79
879.381	23254.58
879.758	22637.88
880.135	21068.1
880.512	22280.75
880.889	21678.85
881.265	21453
881.642	21264.04
882.019	21630.72
882.395	21189.96
882.772	22023.19
883.148	21065.95
883.524	20979.22
883.901	20849.17
884.277	21159.25
884.653	21021.11
885.029	21627.43
885.405	23937.56
885.781	23745.59
886.157	22756.73
886.532	23034.66
886.908	23021.21
887.284	25585.03
887.659	26413.51
888.035	27229.23
888.411	27921.06
888.786	28280.06
889.161	29255.66
889.537	28706.48
889.912	29618.13
890.287	29597.61
890.662	30337.13
891.037	29771.27
891.412	27761.75
891.787	27471.63
892.162	26509.74
892.536	27131.31
892.911	26110.07
893.286	25544.35
893.66	24518.59
894.035	25147.38
894.409	27367.38
894.784	26267.06
895.158	26701.66
895.532	28279.69
895.906	29054.03
896.281	29731.46
896.655	29250.95
897.029	33416.72
897.402	34812.09
897.776	38739.54
898.15	38598.64
898.524	38176.22
898.898	38670.85
899.271	43293.21
899.645	37503.67
900.018	36001.3
900.392	37342.74
900.765	37642.15
901.138	34834
901.511	34307.16
901.884	31500.17
902.258	29045.62
902.631	30009.63
903.003	34548.9
903.376	31185.4
903.749	34952.65
904.122	37447.08
904.495	41226.44
904.867	41727.97
905.24	36224.29
905.612	33732.84
905.985	34498.59
906.357	36092.31
906.729	34471.37
907.102	29451.02
907.474	28317.19
907.846	28514.78
908.218	28132.43
908.59	24866.11
908.962	24072.04
909.334	25939.31
909.705	27252.02
910.077	26464.95
910.449	27543.78
910.82	28323.01
911.192	31163.99
911.563	32402.22
911.935	34695.07
912.306	34744.66
912.677	35883.59
913.048	35540.03
913.419	38559.93
913.79	38780.73
914.161	41589.72
914.532	39749.84
914.903	36521.69
915.274	34680.35
915.645	34178.84
916.015	30064.51
916.386	28677.05
916.756	30524.89
917.127	31487.26
917.497	28133.79
917.868	30637.18
918.238	29133.2
918.608	29994.67
918.978	30617.34
919.348	32426.9
919.718	33492.92
920.088	32275.08
920.458	33538.93
920.828	35288.56
921.198	33424
921.567	35700.09
921.937	27625
922.306	27871.45
922.676	30036.13
923.045	25068.37
923.415	23820.71
923.784	21699.78
924.153	22309.69
924.522	22285.67
924.891	20955.33
925.26	22458.23
925.629	21916.37
925.998	25183.5
926.367	24574.89
926.736	23414.32
927.104	27867.02
927.473	29957.94
927.842	36152.59
928.21	35790.53
928.578	37579.76
928.947	35517.89
929.315	35730.34
929.683	41920.37
930.051	42274.23
930.42	49124.64
930.788	42003.13
931.156	41693.5
931.523	39085.27
931.891	36134.83
932.259	34673.38
932.627	40198.12
932.994	56881.68
933.362	46988.66
933.729	40785.59
934.097	39018.17
934.464	33025.6
934.831	38058.09
935.199	37493.7
935.566	36321.05
935.933	36742.93
936.3	44559.28
936.667	34664.89
937.034	31299.39
937.401	30963.53
937.767	26724.3
938.134	23777.77
938.501	33500.39
938.867	35718.65
939.234	60394.19
939.6	51576.82
939.967	56923.4
940.333	38085.81
940.699	32458.89
941.065	26012.09
941.431	34150.53
941.798	32979.67
942.163	43370.69
942.529	27077.77
942.895	24916.41
943.261	16119.34
943.627	21148.49
943.992	18520.23
944.358	18543.63
944.723	18615.13
945.089	18141.43
945.454	16742.06
945.82	17851.47
946.185	17153.68
946.55	19892.69
946.915	17833.86
947.28	20930.27
947.645	18458.33
948.01	17046.89
948.375	17798.52
948.74	21333.12
949.104	24887.83
949.469	35948.13
949.834	63530.88
950.198	60192.5
950.562	36063.98
950.927	30077.55
951.291	36200.27
951.655	30813.59
952.02	28913.99
952.384	21864.81
952.748	19037.19
953.112	18608.1
953.476	16184.62
953.839	14970.03
954.203	14854.47
954.567	18587
954.931	29224.49
955.294	25024.47
955.658	25164.54
956.021	42814.12
956.385	72582.32
956.748	107254.02
957.111	166012.91
957.474	186344.71
957.837	209913.89
958.2	158618.73
958.563	57071.48
958.926	38633.21
959.289	58616.86
959.652	65446.92
960.015	49128.82
960.377	70484.62
960.74	80363.31
961.102	138724.29
961.465	149012.12
961.827	79953.39
962.189	153324.05
962.552	106340.96
962.914	85306.34
963.276	55328.86
963.638	45767.52
964	45288.55
964.362	30630.13
964.724	29613.35
965.085	21112.85
965.447	17309.42
965.809	19681.42
966.17	19701.02
966.532	21284.27
966.893	19546.55
967.255	17783.87
967.616	20977.18
967.977	16787.57
968.338	18321.43
968.699	15048.92
969.061	15058.2
969.421	15156.77
969.782	17023.83
970.143	14397.5
970.504	14928.11
970.865	16950.17
971.225	17349.38
971.586	16976
971.946	24201.31
972.307	20988.47
972.667	27414.23
973.027	28254.72
973.388	34245.79
973.748	23299.58
974.108	25383.47
974.468	34283.63
974.828	26465.28
975.188	20348.58
975.548	18697.02
975.907	15724.8
976.267	17669.34
976.627	14863.19
976.986	15375.11
977.346	14648.98
977.705	14079.49
978.064	12823.09
978.424	10681.48
978.783	11008.74
979.142	12562.56
979.501	12012.09
979.86	12690.23
980.219	12197.64
980.578	15708.73
980.937	17605.35
981.296	15693.64
981.654	16149.26
982.013	25101.51
982.371	32583.84
982.73	30481.57
983.088	34489.68
983.447	36829.45
983.805	52618.38
984.163	110085.94
984.521	122238.79
984.879	179277.31
985.237	-292118.8
985.595	281643.64
985.953	69907.46
986.311	40333.9
986.669	23439.68
987.026	20245.8
987.384	27283.01
987.741	28224.64
988.099	20208.31
988.456	16109.6
988.814	15098.32
989.171	13094.14
989.528	12912.48
989.885	13647.27
990.242	10830.59
990.599	13470.74
990.956	11017.3
991.313	7695.49
991.67	6323.04
992.027	6702.73
992.383	5961.23
992.74	5223.06
993.096	5490.52
993.453	5692.34
993.809	5891.53
994.165	7828.24
994.522	7200.17
994.878	7929.83
995.234	9913.72
995.59	9759.47
995.946	9216.01
996.302	10521.85
996.658	12161.08
997.013	13384.78
997.369	15889.82
997.725	20390.5
998.08	13247.58
998.436	20357.65
998.791	28022.17
999.147	28086.18
999.502	30692.82
999.857	22280.96
1000.212	36229.38
1000.567	51611.23
1000.922	29784.47
1001.277	18932.99
1001.632	14043.59
1001.987	18083.09
1002.342	12998.7
1002.696	10438.89
1003.051	8340.97
1003.406	10082.62
1003.76	10056.96
1004.114	9937.89
1004.469	8357.61
1004.823	6925.7
1005.177	7479.02
1005.531	5923.77
1005.885	5249.66
1006.239	5908.98
1006.593	7424.88
1006.947	9932.18
1007.301	7464.74
1007.655	8137.17
1008.008	5962.4
1008.362	6691.22
1008.715	9562.54
1009.069	8671.27
1009.422	13091.07
1009.776	26266.36
1010.129	17437.84
1010.482	14530.62
1010.835	12272.65
1011.188	25518.55
1011.541	24026.79
1011.894	-147401.9
1012.247	435454.5
1012.6	29566.63
1012.952	18672.64
1013.305	9583.71
1013.657	6916.09
1014.01	6560.6
1014.362	5419.18
1014.715	4855.46
1015.067	4246.15
1015.419	4156.93
1015.771	3682.33
1016.123	3271.35
1016.475	3358.36
1016.827	3592.54
1017.179	3869.29
1017.531	3885.19
1017.883	3968.93
1018.234	3845.9
1018.586	4820.49
1018.938	5106.5
1019.289	7072.26
1019.64	8074.76
1019.992	7509.85
1020.343	6884.52
1020.694	5429.35
1021.045	4797.61
1021.396	5495
1021.747	5914.28
1022.098	7031.21
1022.449	5110.71
1022.8	4741.42
1023.151	3277.91
1023.501	2916.11
1023.852	3174.2
1024.202	3305.99
1024.553	3612.64
1024.903	3542.7
1025.253	3043.27
1025.604	2733.22
1025.954	3400.05
1026.304	4122.05
1026.654	4826.28
1027.004	7164.72
1027.354	11518.55
1027.703	10780.27
1028.053	14140.73
1028.403	20849.66
1028.753	30148.11
1029.102	40844.2
1029.452	209511.79
1029.801	9057
1030.15	5877.27
1030.499	4925.72
897.758	2853.62
901.051	2821.81
904.343	2855.84
907.636	2855.03
910.928	2919.56
914.22	2828.17
917.511	2837.98
920.803	2908.54
924.094	2935.36
927.384	2906.37
930.675	2871.17
933.965	2821.09
937.255	2821.11
940.544	2791.93
943.834	2705.09
947.123	2655.27
950.411	2753.04
953.7	2721.03
956.988	2679.5
960.276	2623.45
963.563	2715.35
966.851	2703.98
970.138	2768.71
973.424	2760.39
976.711	2706.12
979.997	2875.42
983.283	2902.92
986.568	2796.7
989.853	2823.8
993.138	2853.9
996.423	2933.13
999.708	2864.14
1002.992	2945.37
1006.275	2748.5
1009.559	2809.66
1012.842	2934.12
1016.125	2856.82
1019.408	2835.95
1022.69	2934.27
1025.972	2950.36
1029.254	2920.61
1032.536	2842.41
1035.817	2875.2
1039.098	2802.94
1042.379	2986.92
1045.659	2972.63
1048.939	2897.55
1052.219	2923.19
1055.498	2941.77
1058.778	2921.72
1062.057	2907.83
1065.335	2930.56
1068.614	2952.69
1071.892	2929.31
1075.17	3014.94
1078.447	2997.82
1081.724	2987.31
1085.001	3027.47
1088.278	2997.29
1091.554	3012.81
1094.83	3009.92
1098.106	3036.46
1101.382	3084.66
1104.657	3085.73
1107.932	3080.12
1111.206	3040.03
1114.481	2996.36
1117.755	3001.52
1121.029	2975.63
1124.302	3028.57
1127.575	2973.14
1130.848	2958.37
1134.121	2912.76
1137.393	2859.2
1140.665	2929.13
1143.937	2900.56
1147.208	2867.98
1150.48	2901.38
1153.75	2884.3
1157.021	2925.89
1160.291	2892.8
1163.561	2938.33
1166.831	2934.57
1170.101	2969.84
1173.37	2948.6
1176.639	2885.84
1179.907	2956.88
1183.176	2950.79
1186.444	2962.72
1189.711	2992.09
1192.979	2999.53
1196.246	2959.12
1199.513	2974.2
1202.78	2973.88
1206.046	2981.01
1209.312	3007.06
1212.578	3038.91
1215.843	2975.8
1219.108	2957.86
1222.373	2978.84
1225.638	2939.51
1228.902	2922.84
1232.166	2890.38
1235.43	2871.32
1238.693	2891.27
1241.956	2892.67
1245.219	2928.33
1248.482	2924.01
1251.744	2921.39
1255.006	3083.02
1258.268	3042.28
1261.529	2979.15
1264.79	2987.67
1268.051	3093.28
1271.312	3115.25
1274.572	3073.8
1277.832	3062
1281.092	3055.92
1284.351	3019.24
1287.61	2994.48
1290.869	2900.87
1294.128	2866.77
1297.386	2974.86
1300.644	2962.79
1303.902	2975.94
1307.159	2827.57
1310.416	2882.89
1313.673	2906.36
1316.93	2888.46
1320.186	2939.82
1323.442	2989.46
1326.697	2969.65
1329.953	2971.5
1333.208	2987.34
1336.463	2970.68
1339.717	2899.51
1342.972	3047.31
1346.226	3031.23
1349.479	2957.16
1352.733	2922.01
1355.986	2952.71
1359.238	2926.14
1362.491	2929.62
1365.743	2933.86
1368.995	2933
1372.247	2944.26
1375.498	2971.15
1378.749	2976.23
1382	2930.06
1385.251	2991.88
1388.501	2958.51
1391.751	2937.43
1395	2911.31
1398.25	2945.61
1401.499	2946.59
1404.748	2864.45
1407.996	2862.07
1411.244	2844.54
1414.492	2822.95
1417.74	2799.7
1420.987	2812.37
1424.234	2867.37
1427.481	2852.77
1430.728	2912.94
1433.974	2888.31
1437.22	2909.46
1440.465	2911.77
1443.711	2860.52
1446.956	2902.12
1450.201	2897.51
1453.445	2940.57
1456.689	2914.21
1459.933	2927.4
1463.177	2957.86
1466.42	2926.3
1469.663	2907.46
1472.906	2890.95
1476.148	2988.03
1479.391	2925.53
1482.633	2901.67
1485.874	2906.06
1489.115	2886.68
1492.356	2898.59
1495.597	2874.42
1498.838	2880.47
1502.078	2844.33
1505.318	2782.39
1508.557	2829.56
1511.797	2787.16
1515.036	2886.31
1518.274	2873.68
1521.513	2852.4
1524.751	2879.31
1527.989	2888.48
1531.227	2897.61
1534.464	2883.06
1537.701	2913.01
1540.938	2935.2
1544.174	2890.8
1547.41	2890.5
1550.646	2932.89
1553.882	2962.77
1557.117	3017.5
1560.352	3033.35
1563.587	2988.89
1566.821	2945.08
1570.055	2987.99
1573.289	2957.3
1576.523	3039.72
1579.756	3043.02
1582.989	3062.55
1586.222	3020.92
1589.454	3063.25
1592.686	3028.78
1595.918	3053.28
1599.15	3038.23
1602.381	3129.88
1605.612	3073.3
1608.843	3169.94
1612.073	3077.49
1615.303	3059.38
1618.533	3048.29
1621.762	3052.64
1624.992	3046.07
1628.221	3027.3
1631.449	3012.51
1634.678	3082.58
1637.906	3027.64
1641.134	3072.43
1644.361	3024.33
1647.588	3013.81
1650.815	3027.54
1654.042	3011.3
1657.269	3044.65
1660.495	2988.85
1663.72	2988.95
1666.946	2954.08
1670.171	2881.6
1673.396	2858.91
1676.621	2850.43
1679.845	2881.02
1683.069	2906.61
1686.293	2958.11
1689.517	2920.79
1692.74	2836.21
1695.963	2870.15
1699.185	2906.13
1702.408	2879.75
1705.63	2928.21
1708.852	2937.13
1712.073	2909.12
1715.294	2884.42
1718.515	2951.19
1721.736	2891.3
1724.956	2892.4
1728.176	2922.58
1731.396	2942.32
1734.616	2937.17
1737.835	2960.63
1741.054	2939.92
1744.272	2935.1
1747.491	2963.09
1750.709	3028.11
1753.927	2916.12
1757.144	2970.1
1760.361	3005.1
1763.578	3005.07
1766.795	2941.48
1770.011	2950.38
1773.227	2998.86
1776.443	3034.95
1779.658	3079.12
1782.874	3021.76
1786.089	2995.21
1789.303	2999.32
1792.518	3006.17
1795.732	2994.96
1798.945	3001.01
1802.159	3055.78
1805.372	2942.84
1808.585	2922.23
1811.797	2920.37
1815.01	2982.54
1818.222	2983.16
1821.434	2927.61
1824.645	2998.93
1827.856	2973.52
1831.067	3009.46
1834.278	2975.51
1837.488	2960.07
1840.698	3122.89
1843.908	3039.13
1847.117	3003.36
1850.326	2865.33
1853.535	2984.01
1856.744	3039.3
1859.952	2946.61
1863.16	2943.5
1866.368	2973.42
1869.575	3074.08
1872.782	2959.1
1875.989	2896.46
1879.196	2997.49
1882.402	2990.58
1885.608	3037.57
1888.814	2924.51
1892.019	2814.24
1895.224	2864.48
1898.429	2854.67
1901.634	2827.93
1904.838	2807.95
1908.042	2852.96
1911.246	2860.76
1914.449	2777.81
1917.652	2782.48
1920.855	2762.64
1924.058	2825.27
1927.26	2859.42
1930.462	2887.75
1933.664	2909.24
1936.865	2845.09
1940.066	2846.75
1943.267	2794.36
1946.467	2814.95
1949.668	2845.58
1952.868	2911.78
1956.067	2884.41
1959.267	2808.67
1962.466	2838.12
1965.665	2825.77
1968.863	2822.31
1972.061	2839.9
1975.259	2844.68
1978.457	2927.81
1981.654	2884.41
1984.852	2882.78
1988.048	2805.47
1991.245	2816.16
1994.441	2902.18
1997.637	2899.28
2000.833	2880.94
2004.028	2922.33
2007.223	2973.52
2010.418	2944.66
2013.613	2911.88
2016.807	2868.12
2020.001	2880.03
2023.194	2935.36
2026.388	2909.21
2029.581	2853.82
2032.774	2897.34
2035.966	2900.09
2039.158	2823.57
2042.35	2855.24
2045.542	2783.31
2048.733	2890.6
2051.924	2926.43
2055.115	2962.04
2058.306	2893.49
2061.496	2951.48
2064.686	3023.95
2067.875	2937.47
2071.065	2957.43
2074.254	2989.57
2077.442	2941.46
2080.631	3033.88
2083.819	2907.96
2087.007	2887.13
2090.195	2850.73
2093.382	2896.24
2096.569	2875.85
2099.756	2824.14
2102.942	2840.98
2106.128	2844.36
2109.314	2836.7
2112.5	2788.24
2115.685	2769.74
2118.87	2779.61
2122.055	2845.09
2125.239	2807.14
2128.424	2771.63
2131.608	2894.03
2134.791	2872.04
2137.974	2942.01
2141.157	2923.04
2144.34	2867.88
2147.523	2892.17
2150.705	2898.52
2153.887	2884.04
2157.068	2823.8
2160.25	2835.59
2163.431	2879.49
2166.611	2815.79
2169.792	2831.78
2172.972	2714.84
2176.152	2808.38
2179.331	2846.16
2182.511	2821.64
2185.69	2853.55
2188.868	2845.41
2192.047	2912.86
2195.225	2891
2198.403	2842.31
2201.58	2835.09
2204.758	2835.94
2207.935	2922.95
2211.111	2799.45
2214.288	2781.24
2217.464	2825.09
2220.64	2801.86
2223.815	2858.45
2226.991	2773.79
2230.166	2793.98
2233.34	2819.23
2236.515	2849.1
2239.689	2928.56
2242.863	2870.54
2246.036	2928.27
2249.209	2936.62
2252.382	2976.01
2255.555	2955.47
2258.727	2887.15
2261.9	2931.07
2265.071	2924.74
2268.243	2929.48
2271.414	2853.33
2274.585	2803.16
2277.756	2874.95
2280.926	2830.87
2284.096	2875.72
2287.266	2772.21
2290.436	2834.06
2293.605	2866.97
2296.774	2892.43
2299.942	2924.67
2303.111	2941.72
2306.279	2989.26
2309.447	2972.2
2312.614	2949.41
2315.781	2968.41
2318.948	2932.65
2322.115	2973.97
2325.281	2873.06
2328.447	2899.82
2331.613	2877.97
2334.779	2837.78
2337.944	2846.54
2341.109	2844.16
2344.274	2826.97
2347.438	2787.84
2350.602	2812.97
2353.766	2835.07
2356.929	2817.35
2360.092	2866.25
2363.255	2807.54
2366.418	2726.21
2369.58	2860.39
2372.742	2606.35
2375.904	2630.4
2379.066	2602.65
2382.227	2646.63
2385.388	2608.76
2388.548	2523.09
2391.709	2585.73
2394.869	2558.48
2398.029	2676.83
2401.188	2697.76
2404.347	2619.94
2407.506	2787.89
2410.665	2811.16
2413.823	2827.55
2416.981	2773.15
2420.139	2811.02
2423.296	2864.17
2426.453	2838.97
2429.61	2862.62
2432.767	2780.94
2435.923	2819.77
2439.079	2762.83
2442.235	2822.77
2445.391	2743.83
2448.546	2763.01
2451.701	2821.96
2454.855	2781.39
2458.009	2847.59
2461.163	2855.82
2464.317	2809.38
2467.471	2847.23
2470.624	2890.87
2473.777	2877.32
2476.929	2889.63
2480.082	2912.35
2483.234	2875.67
2486.385	2818.76
2489.537	2811.61
2492.688	2758.24
2495.839	2772.28
2498.989	2781.89
2502.14	2764.77
2505.29	2739.58
2508.439	2769.56
2511.589	2682.06
2514.738	2702.52
2517.887	2736.13
2521.035	2809.86
2524.183	2804.12
2527.331	2781.44
2530.479	2748.79
2533.627	2762.07
