Data from N_3_DIV_PA_2N_Splice17_13-17-14-886.txt Node
Date: Sat Mar 14 13:17:14 EDT 2020
User: sa697716
Spectrometer: FLMS03696
Trigger mode: 0
Integration Time (sec): 3.180400E-1
Scans to average: 20
Electric dark correction enabled: true
Nonlinearity correction enabled: true
Boxcar width: 5
XAxis mode: Wavelengths
Number of Pixels in Spectrum: 2048
>>>>>Begin Spectral Data<<<<<
187.83	-325139.29
188.298	2490.77
188.766	1379.39
189.233	1294.16
189.701	1797.14
190.169	2482.8
190.636	938.99
191.104	739.2
191.571	137.58
192.039	-57.05
192.506	-49.92
192.974	402.98
193.441	-508.46
193.908	36.41
194.375	51.01
194.842	150.43
195.31	274.7
195.777	235.65
196.244	321.49
196.711	199.39
197.177	184.4
197.644	201.57
198.111	311.09
198.578	414.33
199.045	321.69
199.511	455.7
199.978	427
200.445	389.19
200.911	378.19
201.378	351.6
201.844	332.38
202.31	493.41
202.777	444.12
203.243	221.52
203.709	187.47
204.176	223.56
204.642	209.37
205.108	195.2
205.574	132.09
206.04	63.9
206.506	71.99
206.972	48.05
207.438	52.73
207.903	70.41
208.369	98.8
208.835	127.04
209.301	139.05
209.766	122.84
210.232	130.98
210.697	153.94
211.163	206.29
211.628	300.24
212.094	318.3
212.559	467.76
213.024	307.12
213.49	360.78
213.955	336.73
214.42	272
214.885	274.6
215.35	294.56
215.815	404.32
216.28	462.91
216.745	383.87
217.21	444.18
217.675	389.85
218.14	452.42
218.604	513.4
219.069	615.51
219.534	726.35
219.998	844.19
220.463	1030.68
220.927	1176.26
221.392	1116.66
221.856	1175.4
222.32	1455.04
222.785	1863.28
223.249	2385.14
223.713	2711.23
224.177	2743.19
224.642	3466.29
225.106	4306.3
225.57	4749.47
226.034	3670.01
226.497	5711.79
226.961	5242.38
227.425	6215.38
227.889	6910.75
228.353	6980.85
228.816	14553.27
229.28	14067.33
229.744	11964.47
230.207	7397.97
230.671	7347.84
231.134	12057.7
231.597	14044.77
232.061	13989.5
232.524	13620.72
232.987	9456.32
233.45	8574.64
233.914	7716.89
234.377	7877.4
234.84	7245.12
235.303	8527.35
235.766	9527.86
236.229	9890.81
236.691	6210.43
237.154	6996.63
237.617	5308.37
238.08	5424.97
238.542	6359.74
239.005	4569.53
239.468	4572.65
239.93	4312.75
240.393	3945.62
240.855	3478.77
241.317	3551.03
241.78	4319.08
242.242	4502.51
242.704	4916.99
243.166	4305.9
243.629	3953.06
244.091	4582.68
244.553	5043.28
245.015	5475.89
245.477	7091.2
245.939	10417.67
246.4	11162.13
246.862	10888.46
247.324	10319.74
247.786	11505.74
248.247	15154.12
248.709	15556.56
249.17	11688.4
249.632	11148.14
250.093	13051.72
250.555	11327.82
251.016	6968.06
251.477	6653.72
251.939	7221.53
252.4	7586.07
252.861	9025.79
253.322	8431.03
253.783	10055.8
254.244	13046.65
254.705	10243.78
255.166	9065.12
255.627	8979.72
256.088	12741.01
256.549	13544.02
257.009	11709.92
257.47	14237.08
257.931	11643.3
258.391	8754.02
258.852	9056.13
259.312	9495.35
259.773	11760.7
260.233	10034.48
260.694	8478.26
261.154	9609.93
261.614	7768.46
262.074	6950.93
262.534	7257.55
262.994	6880.19
263.455	9161.2
263.915	7767.64
264.374	7343.64
264.834	8047.07
265.294	8912.33
265.754	9275.55
266.214	8807.9
266.673	8272.87
267.133	10450.69
267.593	10387.01
268.052	12744.11
268.512	11132.42
268.971	13526.01
269.431	14900.83
269.89	13360.43
270.349	20105.28
270.809	22447.82
271.268	20211.78
271.727	45231.7
272.186	29417.13
272.645	22068.6
273.104	15907.46
273.563	23074.98
274.022	18060.57
274.481	15446.68
274.94	11935.78
275.399	8869.58
275.857	10341.54
276.316	14027.38
276.775	12549.93
277.233	12419.29
277.692	11693.83
278.15	13305.02
278.609	13778.29
279.067	12778.53
279.525	11891.27
279.984	15415.26
280.442	18587.34
280.9	18447.25
281.358	12151.33
281.816	11356.16
282.274	11097.64
282.732	11460.82
283.19	11536.85
283.648	9942.78
284.106	10605.99
284.564	10770.71
285.021	9996.31
285.479	7446.35
285.937	6759.52
286.394	5960.52
286.852	6136.59
287.309	6476.25
287.767	6315.45
288.224	6033.53
288.682	6640.3
289.139	7364.77
289.596	6777.09
290.053	7085.01
290.511	8981.29
290.968	10957.95
291.425	14930.52
291.882	12562.29
292.339	10987.28
292.796	10925.74
293.252	10337.95
293.709	8293.45
294.166	7435.7
294.623	8247.18
295.079	7908.49
295.536	8003.25
295.992	7281.46
296.449	7233.28
296.905	7535.3
297.362	7266.06
297.818	7653.86
298.274	7959.61
298.731	8083.31
299.187	8030.29
299.643	8641.55
300.099	10503.7
300.555	11503.65
301.011	9631.14
301.467	9335.17
301.923	10881.79
302.379	10630.38
302.835	10439.37
303.291	10462.21
303.746	11936
304.202	15068.5
304.658	15110.14
305.113	10158.02
305.569	9963.3
306.024	10607.01
306.479	10019.57
306.935	8485.97
307.39	9237.86
307.845	8534
308.301	8602.33
308.756	8347.94
309.211	8042.63
309.666	8244.29
310.121	10253.19
310.576	10390.3
311.031	10284.8
311.486	11779.14
311.94	11699.87
312.395	15648.09
312.85	29327.45
313.305	143021.39
313.759	745268.64
314.214	53825.73
314.668	42575.62
315.123	35847.95
315.577	12865.12
316.032	11469.74
316.486	14320.76
316.94	11354.72
317.394	7917.28
317.849	6169.42
318.303	5852.17
318.757	5546.22
319.211	6139.24
319.665	5398.53
320.119	5468.08
320.572	7831.14
321.026	7340.84
321.48	6144.8
321.934	6668.85
322.387	6674.66
322.841	7224.8
323.295	6557.53
323.748	7512.36
324.202	7644.59
324.655	9174.59
325.108	12872.28
325.562	9129.82
326.015	10819.11
326.468	8167.56
326.921	9150.82
327.374	8571.43
327.827	8957.86
328.28	10080.09
328.733	6749.97
329.186	5930.31
329.639	5652.29
330.092	4745.2
330.545	4510.22
330.997	4556.78
331.45	4999.95
331.903	5883.85
332.355	10061.54
332.808	9721.07
333.26	8010.54
333.713	8709.97
334.165	8773.06
334.617	11670.68
335.069	9390.26
335.522	16961.98
335.974	18834.35
336.426	17123.41
336.878	11769.49
337.33	6015.38
337.782	5871.91
338.234	7409.34
338.686	8832.77
339.137	10451.54
339.589	9871.25
340.041	7762.27
340.493	6674.06
340.944	6823.72
341.396	7371.41
341.847	6248.98
342.299	7400.66
342.75	9126.88
343.201	7944.39
343.653	9192.35
344.104	11352.65
344.555	8972.1
345.006	13934.77
345.457	10819.65
345.908	8605.35
346.359	8143.58
346.81	6643.9
347.261	6990.98
347.712	6858.37
348.163	7363.99
348.613	7523.47
349.064	7012.47
349.515	6133.89
349.965	6315.41
350.416	7583.2
350.866	8349.54
351.317	9416.79
351.767	15602.44
352.217	19686.17
352.668	16326.91
353.118	15001.14
353.568	14347.19
354.018	11435.73
354.468	12115.23
354.918	8747.59
355.368	7617.41
355.818	10751.36
356.268	30916.68
356.718	130234.12
357.168	32643.4
357.617	16480.44
358.067	18302.39
358.517	17201.72
358.966	20205.11
359.416	22729.48
359.865	24473.58
360.315	29163.71
360.764	13640.83
361.213	7693.83
361.663	7262.09
362.112	8955.16
362.561	14454.53
363.01	10919.19
363.459	9201.3
363.908	9926.27
364.357	8436.91
364.806	14261.9
365.255	9837.89
365.703	9029.65
366.152	9020.48
366.601	7302.56
367.05	5939.63
367.498	5391.55
367.947	5624.94
368.395	5830.34
368.844	5156.81
369.292	6174.91
369.74	4283.06
370.189	6521.08
370.637	7628.98
371.085	6554.79
371.533	7975.88
371.981	7677.97
372.429	7368.9
372.877	7687.44
373.325	6449.46
373.773	6579.07
374.221	5871.51
374.669	7240.65
375.116	6274.9
375.564	6342.96
376.012	7113.6
376.459	5896.95
376.907	7031.89
377.354	8453.59
377.801	7913.52
378.249	9080.09
378.696	11565.35
379.143	14021.12
379.591	14960.06
380.038	25355.35
380.485	18334.21
380.932	19736.23
381.379	18086.49
381.826	13294.51
382.273	9421.19
382.72	8157.63
383.166	7944.48
383.613	5169.57
384.06	4642.7
384.506	5376.07
384.953	3943.66
385.4	3933.51
385.846	3440.55
386.292	3311.89
386.739	3219.47
387.185	3156.79
387.631	3155
388.078	3066.39
388.524	3266.31
388.97	3018.5
389.416	2509.25
389.862	2654.89
390.308	2509.99
390.754	2547.51
391.2	2749.61
391.645	2800.78
392.091	2709.11
392.537	2614.25
392.983	2586.85
393.428	2549.57
393.874	2710.05
394.319	2715.33
394.765	2583.6
395.21	2650.59
395.655	2465.51
396.101	2295.53
396.546	2075.97
396.991	2061.2
397.436	1901.99
397.881	1835.59
398.326	1726.13
398.771	1628.25
399.216	1410.67
399.661	1249.39
400.106	1241.2
400.551	1274.98
400.995	1148.54
401.44	1129.85
401.885	1060.76
402.329	1072.72
402.774	1029.93
403.218	998.77
403.663	958.19
404.107	984.57
404.551	996.56
404.995	908.67
405.44	870.44
405.884	875.16
406.328	839.37
406.772	829.99
407.216	751.63
407.66	718.1
408.104	670.07
408.547	623.25
408.991	601.67
409.435	572.36
409.879	567.19
410.322	557.49
410.766	540.28
411.209	515.46
411.653	493.8
412.096	485.24
412.54	483.4
412.983	479.62
413.426	483.75
413.869	478.45
414.312	472.14
414.756	449.61
415.199	425.94
415.642	412.77
416.085	412.77
416.527	409.63
416.97	413.27
417.413	392.59
417.856	385.03
418.298	378.95
418.741	374.9
419.184	369.97
419.626	381.66
420.069	380.57
420.511	381.79
420.953	372.3
421.396	368.35
421.838	355.42
422.28	364.9
422.722	369.05
423.164	368.73
423.606	361.57
424.048	358.35
424.49	341.24
424.932	338.5
425.374	332.12
425.816	336.01
426.258	340.67
426.699	345.58
427.141	341.59
427.582	344.31
428.024	343.55
428.465	338.88
428.907	331.53
429.348	327.33
429.789	327.63
430.231	324.64
430.672	329.94
431.113	322.8
431.554	316.27
431.995	304.43
432.436	297.07
432.877	292.11
433.318	291.32
433.759	287.15
434.2	283.87
434.64	279.52
435.081	277.26
435.522	260.29
435.962	249.25
436.403	244.68
436.843	244.07
437.284	235.67
437.724	225.18
438.164	218.74
438.604	213.84
439.045	210.29
439.485	203.34
439.925	195.95
440.365	189.43
440.805	185.73
441.245	184.62
441.685	178.19
442.125	175.39
442.564	175.06
443.004	172.75
443.444	171.47
443.883	169.35
444.323	163
444.762	159.19
445.202	160.47
445.641	161.51
446.081	155.54
446.52	155.84
446.959	154.42
447.398	151.75
447.837	148.97
448.276	145.3
448.716	145.21
449.154	143.71
449.593	142.06
450.032	142.35
450.471	138.88
450.91	136.73
451.349	137.32
451.787	134.92
452.226	135.95
452.664	135
453.103	135.34
453.541	133.5
453.98	138.2
454.418	138.54
454.856	138.57
455.295	138.54
455.733	142.75
456.171	143.08
456.609	142.69
457.047	142.7
457.485	146.96
457.923	148.44
458.361	146.85
458.798	145.48
459.236	146.21
459.674	143.66
460.111	144.13
460.549	141.64
460.987	140.4
461.424	140
461.862	139.34
462.299	136.08
462.736	136.51
463.173	136.64
463.611	139.31
464.048	139.73
464.485	142.72
464.922	141.5
465.359	139.31
465.796	147.37
466.233	147.51
466.67	148.67
467.106	149.71
467.543	146.42
467.98	143.94
468.416	136.07
468.853	132.33
469.29	127.06
469.726	125.07
470.162	121.93
470.599	110.8
471.035	108.17
471.471	104.73
471.907	101.71
472.344	99.93
472.78	100.92
473.216	101.09
473.652	100.35
474.088	98.93
474.523	99.35
474.959	100.23
475.395	100.69
475.831	100.47
476.266	100.3
476.702	99.06
477.138	99.08
477.573	98.19
478.008	99.2
478.444	101.1
478.879	104.66
479.314	105.64
479.75	105.97
480.185	105.47
480.62	106.15
481.055	106.37
481.49	108.84
481.925	110.65
482.36	115.66
482.795	117.62
483.229	119.54
483.664	120.71
484.099	120.3
484.534	122.65
484.968	124.12
485.403	123.64
485.837	122.24
486.271	120.44
486.706	119.25
487.14	115.01
487.574	113.47
488.009	112.5
488.443	110.95
488.877	112.83
489.311	111.72
489.745	112.34
490.179	113.9
490.613	117.43
491.046	117.78
491.48	118.26
491.914	118.15
492.348	117.76
492.781	117.7
493.215	116.6
493.648	114.61
494.082	114.95
494.515	114.48
494.948	116.23
495.382	114.78
495.815	114.44
496.248	115.07
496.681	115.46
497.114	115.91
497.547	116.39
497.98	118.48
498.413	120.11
498.846	121.02
499.279	120.81
499.711	118.12
500.144	116.58
500.577	117.96
501.009	117.37
501.442	118.99
501.874	118.42
502.306	116.17
502.739	118.64
503.171	117.9
503.603	116.57
504.036	115.37
504.468	114.44
504.9	114.16
505.332	112.89
505.764	111.89
506.196	110.06
506.627	109.47
507.059	109.62
507.491	104.42
507.923	102.58
508.354	102.22
508.786	101.75
509.217	101.75
509.649	101.8
510.08	100.88
510.512	101.41
510.943	100.6
511.374	99.98
511.805	99.59
512.237	99.38
512.668	99.19
513.099	98.39
513.53	98.7
513.961	98.77
514.391	98.97
514.822	102.38
515.253	103.35
515.684	103.01
516.114	102.88
516.545	103.91
516.975	104.28
517.406	103.9
517.836	101.89
518.267	101.63
518.697	102.21
519.127	101.03
519.558	97.66
519.988	95.12
520.418	93.7
520.848	92.37
521.278	90.04
521.708	118.95
522.138	118.86
522.567	119.52
522.997	119.47
523.427	117.88
523.857	117.69
524.286	116.98
524.716	117.19
525.145	118.06
525.575	119.08
526.004	118.28
526.433	88.2
526.863	86.67
527.292	86.86
527.721	86.66
528.15	86.03
528.579	85.49
529.008	85.63
529.437	85.02
529.866	84.35
530.295	83.6
530.724	85.05
531.152	85.96
531.581	87.48
532.01	86.7
532.438	85.41
532.867	85.5
533.295	86.17
533.723	85.71
534.152	85.67
534.58	85.82
535.008	84.97
535.436	86.18
535.865	85.36
536.293	83.96
536.721	84.49
537.149	86.4
537.576	87.43
538.004	88.34
538.432	87.84
538.86	88.32
539.287	88.35
539.715	89.54
540.143	87.55
540.57	86.91
540.998	86.63
541.425	87.48
541.852	85.59
542.28	84.77
542.707	82.91
543.134	82.95
543.561	82.52
543.988	82.28
544.415	81.18
544.842	80.36
545.269	81.15
545.696	82.51
546.123	82.31
546.549	81.8
546.976	81.53
547.403	81.91
547.829	81.34
548.256	80.41
548.682	80.35
549.108	81.74
549.535	82.1
549.961	81.16
550.387	79.73
550.813	80.69
551.24	81.1
551.666	80.19
552.092	79.67
552.518	79.47
552.943	80.63
553.369	80.2
553.795	79.9
554.221	79.82
554.646	80.18
555.072	82.17
555.498	79.88
555.923	80.02
556.349	81.26
556.774	81.38
557.199	81.53
557.625	80.76
558.05	81.52
558.475	81.5
558.9	82.33
559.325	82.75
559.75	82.56
560.175	82.68
560.6	82.35
561.025	81.72
561.449	82.5
561.874	82.89
562.299	84.21
562.723	83.77
563.148	83.68
563.572	83.31
563.997	83.86
564.421	82.69
564.846	83.21
565.27	84.96
565.694	85.43
566.118	85.96
566.542	88.03
566.966	88.19
567.39	89.68
567.814	90.65
568.238	91.66
568.662	91.49
569.086	92.86
569.509	93.04
569.933	94.13
570.357	94.18
570.78	93.55
571.204	94.47
571.627	94.07
572.05	94.26
572.474	95.26
572.897	95.27
573.32	96.62
573.743	96.1
574.166	96.69
574.589	95.09
575.012	95.41
575.435	95.66
575.858	94.83
576.281	94.83
576.704	93.73
577.126	91.82
577.549	91.01
577.972	89.31
578.394	89.47
578.817	92.27
579.239	92.05
579.661	92.83
580.084	94.03
580.506	93.9
580.928	93.8
581.35	94.22
581.772	94.68
582.194	94.63
582.616	94.98
583.038	93.96
583.46	90.83
583.882	91.05
584.303	90.19
584.725	88.64
585.147	94.83
585.568	96.38
585.99	97.93
586.411	99.92
586.833	102.15
587.254	102.85
587.675	103.94
588.096	104.86
588.518	105.15
588.939	104.7
589.36	105.02
589.781	97.15
590.202	99.28
590.623	98.46
591.043	96.64
591.464	95.07
591.885	95.38
592.305	95.44
592.726	95.17
593.147	95.52
593.567	95.73
593.987	95.16
594.408	94.89
594.828	90.41
595.248	90.99
595.669	91.87
596.089	91.93
596.509	90.92
596.929	90.18
597.349	89.92
597.769	89.28
598.189	88.83
598.608	89.61
599.028	90.09
599.448	90.07
599.867	88.38
600.287	87.15
600.706	87.61
601.126	88.13
601.545	89.1
601.965	89.64
602.384	89.58
602.803	89.67
603.222	90.33
603.641	89.94
604.061	91.45
604.48	91.84
604.898	92.63
605.317	92.88
605.736	92.83
606.155	93.78
606.574	93.04
606.992	93.06
607.411	93.66
607.829	91.94
608.248	92.76
608.666	91.87
609.085	92.83
609.503	92.53
609.921	92.95
610.339	93.63
610.758	92.9
611.176	93.29
611.594	94.19
612.012	94.54
612.43	96.63
612.847	96.93
613.265	98.84
613.683	98.54
614.101	99.52
614.518	98.55
614.936	98.56
615.353	98.4
615.771	99.51
616.188	100.02
616.606	100.29
617.023	99.89
617.44	99.25
617.857	97.07
618.274	96.76
618.691	97.32
619.108	97.2
619.525	96.8
619.942	98.01
620.359	98.44
620.776	97.61
621.192	98.52
621.609	99.06
622.026	100.42
622.442	102.36
622.859	102.7
623.275	101.86
623.691	102.6
624.108	104.22
624.524	105.13
624.94	105.06
625.356	105.94
625.772	105.62
626.188	106.29
626.604	106.5
627.02	105.51
627.436	106.69
627.852	108.12
628.268	109.31
628.683	108.09
629.099	106.81
629.514	105.47
629.93	105.7
630.345	106.93
630.761	105.58
631.176	105.72
631.591	108.37
632.007	107.85
632.422	106.78
632.837	105.46
633.252	106.35
633.667	105.67
634.082	106.27
634.497	106.65
634.911	107.55
635.326	108.5
635.741	108
636.155	105.85
636.57	107.36
636.984	107.84
637.399	111.85
637.813	111.68
638.228	112.92
638.642	113.35
639.056	111.88
639.47	111.09
639.884	111.24
640.298	111.63
640.712	112.91
641.126	112.64
641.54	112.85
641.954	109.45
642.368	109.81
642.781	113.12
643.195	112.7
643.609	115.62
644.022	116.05
644.436	116.27
644.849	115.1
645.262	114.1
645.676	113.96
646.089	114.15
646.502	115.75
646.915	115.67
647.328	112.54
647.741	113.53
648.154	112.94
648.567	116.27
648.98	116.78
649.393	117.73
649.805	118.8
650.218	118.34
650.631	118.23
651.043	117.65
651.456	118.27
651.868	118.26
652.28	119.89
652.693	120.42
653.105	118.66
653.517	119.64
653.929	120.54
654.341	121.84
654.753	122.19
655.165	123.3
655.577	123.95
655.989	123.51
656.401	123.05
656.813	121.65
657.224	120.68
657.636	117.36
658.047	117.57
658.459	116.29
658.87	115.22
659.282	114.38
659.693	113.95
660.104	113.2
660.515	112.23
660.926	112.56
661.338	111.98
661.749	111.33
662.159	112.41
662.57	110.75
662.981	111.29
663.392	111.76
663.803	113.26
664.213	112.99
664.624	113.05
665.035	113.76
665.445	113.05
665.855	114.05
666.266	115.59
666.676	116.07
667.086	115.36
667.497	116.32
667.907	115.62
668.317	114.31
668.727	118.25
669.137	117.89
669.547	118.41
669.956	118.72
670.366	119.09
670.776	119.27
671.186	120.4
671.595	121.45
672.005	121
672.414	122.35
672.824	123.8
673.233	120.15
673.642	120.65
674.052	123.51
674.461	124.92
674.87	124.99
675.279	125.64
675.688	123.13
676.097	124.56
676.506	124.33
676.915	124.74
677.323	123.75
677.732	123.15
678.141	122.83
678.549	118.5
678.958	116.53
679.366	114.96
679.775	112.47
680.183	116.55
680.592	115.86
681	115.36
681.408	113.21
681.816	113.69
682.224	113.6
682.632	115.51
683.04	118.36
683.448	120.35
683.856	123.38
684.264	126.93
684.671	125.37
685.079	126.12
685.487	129.36
685.894	134.21
686.302	134.46
686.709	136.72
687.116	137.22
687.524	138.64
687.931	139.86
688.338	139.5
688.745	136.53
689.152	136.42
689.559	137.07
689.966	137.94
690.373	136.07
690.78	136.64
691.187	137
691.593	136.33
692	132.92
692.407	132.91
692.813	136.03
693.22	136.75
693.626	134.21
694.032	134
694.439	133.12
694.845	130.12
695.251	129.11
695.657	128.4
696.063	127.12
696.469	127.46
696.875	126
697.281	120.51
697.687	117.98
698.093	117.67
698.498	117.61
698.904	114.29
699.31	115.59
699.715	118.71
700.12	118.98
700.526	118.8
700.931	118.44
701.337	118.35
701.742	118.9
702.147	119.82
702.552	119.4
702.957	117.84
703.362	118.05
703.767	117.84
704.172	115.01
704.577	110.7
704.981	109.17
705.386	109.08
705.791	108.35
706.195	107.75
706.6	107.69
707.004	106.58
707.408	103.99
707.813	105.31
708.217	103.88
708.621	102.29
709.025	103.96
709.43	106.26
709.834	107.48
710.237	107.81
710.641	106.76
711.045	107.26
711.449	108.97
711.853	114.63
712.256	113.34
712.66	113.6
713.064	115.1
713.467	116.98
713.87	117.79
714.274	117.87
714.677	121.01
715.08	125.01
715.484	127.95
715.887	136.13
716.29	134.6
716.693	141.37
717.096	147.56
717.499	149.94
717.901	149.69
718.304	149.16
718.707	148.51
719.109	143.36
719.512	140.41
719.915	140.13
720.317	134.98
720.719	135.26
721.122	132.06
721.524	129.34
721.926	134.11
722.328	136.27
722.731	134.78
723.133	135.01
723.535	139.72
723.937	139.4
724.338	137.94
724.74	139.33
725.142	209.38
725.544	214.54
725.945	233.58
726.347	227.86
726.748	227.54
727.15	228.43
727.551	232.59
727.952	229.36
728.354	227.92
728.755	228.32
729.156	224
729.557	153.47
729.958	143.83
730.359	124.94
730.76	123.55
731.161	120.74
731.562	118.42
731.962	113.08
732.363	112.52
732.763	111.62
733.164	108.38
733.564	107.54
733.965	106.81
734.365	107.51
734.766	108.13
735.166	107.3
735.566	106.84
735.966	107.56
736.366	107.53
736.766	106.2
737.166	105.57
737.566	105.74
737.966	104.8
738.365	105.54
738.765	106.29
739.165	103.27
739.564	102.31
739.964	101.75
740.363	98.95
740.763	96.85
741.162	97.77
741.561	97.48
741.96	96.37
742.36	95.09
742.759	95.39
743.158	94.57
743.557	95.36
743.955	95.47
744.354	94.64
744.753	95.74
745.152	96.81
745.55	95.56
745.949	95.8
746.348	96.2
746.746	95.25
747.144	96.7
747.543	94.6
747.941	94.85
748.339	93.73
748.737	95.51
749.136	96.64
749.534	95.92
749.932	98.19
750.33	97.1
750.727	97.35
751.125	100.09
751.523	97.23
751.921	104.02
752.318	104.22
752.716	107.37
753.113	106.67
753.511	106.59
753.908	106.79
754.305	110.72
754.703	113.61
755.1	116.05
755.497	116.59
755.894	120.19
756.291	120.2
756.688	128.6
757.085	135.42
757.482	149.72
757.878	166.89
758.275	185.65
758.672	192.29
759.068	205.04
759.465	223.93
759.861	249.01
760.258	278.09
760.654	290.42
761.05	286.68
761.447	272.07
761.843	250.28
762.239	229.43
762.635	213.75
763.031	206.79
763.427	194.6
763.822	181.97
764.218	167.64
764.614	152.06
765.01	140.24
765.405	131.6
765.801	129.12
766.196	122.83
766.592	118.14
766.987	112.79
767.382	108.82
767.778	109.27
768.173	106.64
768.568	106.79
768.963	106.43
769.358	109.38
769.753	110.25
770.148	108.69
770.542	108.32
770.937	106.55
771.332	110.14
771.726	109.69
772.121	112.65
772.515	114.63
772.91	114.43
773.304	115.41
773.699	112.83
774.093	113.48
774.487	114.1
774.881	114.38
775.275	116.86
775.669	113.78
776.063	115.12
776.457	112.39
776.851	111.25
777.245	112.07
777.638	111.97
778.032	113.52
778.425	113.4
778.819	119.33
779.212	123.36
779.606	124.66
779.999	125.56
780.392	127.77
780.786	125.96
781.179	125.87
781.572	128.47
781.965	130.03
782.358	130.27
782.751	129.92
783.143	124.1
783.536	122.86
783.929	118.94
784.322	122.05
784.714	119.66
785.107	123.33
785.499	127.75
785.891	127.32
786.284	125.54
786.676	127.57
787.068	129.95
787.46	131.56
787.852	130.49
788.245	133
788.636	132.01
789.028	136.74
789.42	138.38
789.812	137.07
790.204	136.68
790.595	141.43
790.987	138.9
791.378	138.63
791.77	138.34
792.161	139.39
792.553	142.03
792.944	139.65
793.335	134.19
793.726	134.99
794.117	139.86
794.508	139.3
794.899	136.07
795.29	135.18
795.681	134.39
796.072	132.95
796.463	160.43
796.853	165.8
797.244	172.03
797.634	174.83
798.025	171.52
798.415	166.51
798.806	174.08
799.196	179.17
799.586	187.55
799.976	190.52
800.366	196.37
800.756	166.63
801.146	160.34
801.536	159.73
801.926	158.35
802.316	163.51
802.706	166.44
803.095	162.33
803.485	161.85
803.874	157.45
804.264	161.05
804.653	162.43
805.043	172.78
805.432	179.71
805.821	183.94
806.21	189.91
806.599	192.81
806.988	195.42
807.377	194.34
807.766	196.96
808.155	205.15
808.544	197.63
808.933	195.54
809.321	198.47
809.71	197.55
810.098	197.47
810.487	200.27
810.875	205.08
811.264	203.82
811.652	227.72
812.04	231.43
812.428	235.05
812.816	247.23
813.204	259.41
813.592	260.07
813.98	271.93
814.368	278.2
814.756	293.44
815.144	295.44
815.531	308.02
815.919	288.48
816.306	295.69
816.694	289.35
817.081	295.74
817.469	305.35
817.856	303.62
818.243	303.94
818.63	302.06
819.017	298.67
819.404	300.81
819.791	305.39
820.178	313.89
820.565	320.44
820.952	350.94
821.339	344.67
821.725	347.44
822.112	338.78
822.498	343.98
822.885	343.37
823.271	334.89
823.657	335.87
824.044	338.69
824.43	341.87
824.816	354.66
825.202	339
825.588	357.26
825.974	359.47
826.36	369.59
826.746	367.73
827.132	377.34
827.517	384.21
827.903	371.88
828.289	378.61
828.674	361.99
829.06	345.64
829.445	350.67
829.83	355.87
830.216	363.54
830.601	376.99
830.986	380.82
831.371	381.75
831.756	395.06
832.141	397.14
832.526	393.76
832.911	402.34
833.295	401.18
833.68	407.84
834.065	398.78
834.449	375.32
834.834	371.61
835.218	365.23
835.603	375.64
835.987	363.46
836.371	371.7
836.755	372.92
837.139	375.8
837.524	377.68
837.908	374.24
838.291	376.03
838.675	375.44
839.059	376.85
839.443	372.35
839.827	359.26
840.21	366.79
840.594	369.55
840.977	369.73
841.361	374.09
841.744	380.61
842.127	379.97
842.511	385.04
842.894	396
843.277	400.88
843.66	408.55
844.043	412.85
844.426	401.18
844.809	385.84
845.191	389.61
845.574	380.42
845.957	376.32
846.339	376.33
846.722	363.06
847.104	367.91
847.487	362.55
847.869	367.14
848.252	377.34
848.634	385.43
849.016	390.81
849.398	385.7
849.78	399.15
850.162	398.76
850.544	403.05
850.926	408.89
851.307	405.27
851.689	414.93
852.071	416.73
852.452	421.29
852.834	419.37
853.215	435.91
853.597	442.98
853.978	459.03
854.359	469.78
854.741	450.93
855.122	449.41
855.503	439.1
855.884	438.54
856.265	441.01
856.646	432.19
857.026	428.65
857.407	425.61
857.788	429.62
858.169	423.59
858.549	415.42
858.93	427.31
859.31	431.34
859.69	444.02
860.071	439.52
860.451	435.7
860.831	426.31
861.211	437.86
861.591	442.69
861.971	438.5
862.351	443.28
862.731	437.51
863.111	445.81
863.491	458.36
863.87	476.4
864.25	477.48
864.629	479.54
865.009	488.64
865.388	515.52
865.768	547.35
866.147	552.7
866.526	530.21
866.905	544.06
867.284	563.58
867.663	528.01
868.042	498.51
868.421	495.85
868.8	492.81
869.179	507.76
869.558	475.31
869.936	446.14
870.315	444.89
870.693	459.91
871.072	487.03
871.45	464.65
871.828	481.02
872.207	509.78
872.585	510.67
872.963	520.09
873.341	507.17
873.719	513.94
874.097	506.13
874.475	520.3
874.853	524.32
875.23	509.46
875.608	537.54
875.986	575.53
876.363	554.29
876.741	583.5
877.118	588.15
877.495	615.47
877.873	619.66
878.25	649.53
878.627	617.97
879.004	626.83
879.381	619.76
879.758	610.2
880.135	562.06
880.512	591.74
880.889	556.05
881.265	535.79
881.642	515.5
882.019	521.12
882.395	520.13
882.772	556.86
883.148	531.59
883.524	533.3
883.901	524.03
884.277	532.61
884.653	524.55
885.029	552.26
885.405	630.45
885.781	631.16
886.157	598.25
886.532	595.01
886.908	582.99
887.284	640.21
887.659	658.53
888.035	675.3
888.411	690.06
888.786	702.25
889.161	715.35
889.537	681.69
889.912	707.87
890.287	712.8
890.662	732
891.037	710.17
891.412	668.26
891.787	653.48
892.162	637.48
892.536	657.59
892.911	632.15
893.286	613.8
893.66	595.83
894.035	607.89
894.409	655.27
894.784	637.01
895.158	655.23
895.532	698.62
895.906	728.41
896.281	741.16
896.655	735.73
897.029	836.91
897.402	882.77
897.776	968.48
898.15	973.82
898.524	960.35
898.898	965.19
899.271	1092.98
899.645	952.65
900.018	906.26
900.392	936.68
900.765	929.92
901.138	877.55
901.511	852.91
901.884	805.48
902.258	741.27
902.631	786.37
903.003	897.88
903.376	792.72
903.749	886.59
904.122	940.4
904.495	1024.54
904.867	1038.73
905.24	888.16
905.612	828.3
905.985	816.48
906.357	846.89
906.729	803.46
907.102	696.42
907.474	681.93
907.846	690.24
908.218	688.95
908.59	633.79
908.962	614.51
909.334	664.7
909.705	711.51
910.077	695.91
910.449	724.52
910.82	748.94
911.192	820.89
911.563	856.12
911.935	896.55
912.306	883.37
912.677	893.36
913.048	897.42
913.419	964.15
913.79	945.1
914.161	1016.06
914.532	998.05
914.903	906.66
915.274	853.24
915.645	842.66
916.015	746.22
916.386	720.85
916.756	762.4
917.127	764.49
917.497	701.51
917.868	776.83
918.238	744.29
918.608	751.48
918.978	771.48
919.348	819.19
919.718	834.14
920.088	803.35
920.458	851.29
920.828	889.32
921.198	863.98
921.567	901.04
921.937	696.55
922.306	689.72
922.676	737.94
923.045	638.07
923.415	614.21
923.784	560.29
924.153	592.66
924.522	591.1
924.891	559.27
925.26	589.23
925.629	570.32
925.998	645.99
926.367	638.68
926.736	642.8
927.104	735.39
927.473	770.42
927.842	926.81
928.21	873.64
928.578	893.71
928.947	854.2
929.315	879.68
929.683	1078.28
930.051	1088.36
930.42	1274.21
930.788	1060.39
931.156	1054.62
931.523	1040.87
931.891	969.66
932.259	967.37
932.627	1153.07
932.994	1621.98
933.362	1376.12
933.729	1187.19
934.097	1140.7
934.464	964.04
934.831	1063.26
935.199	1046.56
935.566	997.38
935.933	978.59
936.3	1176.14
936.667	906.18
937.034	926.97
937.401	882.8
937.767	744.91
938.134	670.63
938.501	930.78
938.867	1032.75
939.234	1717.93
939.6	1411.41
939.967	1634.14
940.333	1089.97
940.699	917.84
941.065	619.43
941.431	845.37
941.798	889.78
942.163	1247.06
942.529	765.11
942.895	695.36
943.261	465.4
943.627	634.39
943.992	565.35
944.358	565.2
944.723	618.85
945.089	612.38
945.454	554.84
945.82	553.73
946.185	493.11
946.55	586.77
946.915	518.18
947.28	601.78
947.645	521.99
948.01	508.22
948.375	564.17
948.74	626.45
949.104	708.39
949.469	918.34
949.834	1686.6
950.198	1783.37
950.562	1080.86
950.927	937.6
951.291	1119.51
951.655	953.43
952.02	805.7
952.384	599.95
952.748	572.33
953.112	611.48
953.476	551.89
953.839	485.44
954.203	487.32
954.567	605.72
954.931	888.45
955.294	774.78
955.658	763.31
956.021	1335.17
956.385	2099.59
956.748	2945.44
957.111	3950.74
957.474	4463.71
957.837	5015.62
958.2	3454.65
958.563	1230.12
958.926	894.77
959.289	1341.2
959.652	1543.79
960.015	1180.27
960.377	1719.69
960.74	1925.06
961.102	3359.15
961.465	3808.35
961.827	2710.4
962.189	5203.22
962.552	3625.19
962.914	2799.23
963.276	1784.49
963.638	1483.26
964	1442.95
964.362	1026.15
964.724	963.7
965.085	706.98
965.447	579.13
965.809	512.46
966.17	483.6
966.532	504.77
966.893	476.53
967.255	431.97
967.616	485.42
967.977	393.78
968.338	417.01
968.699	370.21
969.061	366.15
969.421	372.25
969.782	416.66
970.143	377.11
970.504	452.04
970.865	538.33
971.225	592.52
971.586	584.95
971.946	815.67
972.307	685.46
972.667	830.97
973.027	838.49
973.388	978.49
973.748	686.19
974.108	788.17
974.468	909.5
974.828	762.36
975.188	552.05
975.548	495.14
975.907	424.29
976.267	475.1
976.627	433.12
976.986	449.63
977.346	413.41
977.705	387.36
978.064	322.91
978.424	288.75
978.783	240.82
979.142	271.62
979.501	283.34
979.86	315.27
980.219	291.55
980.578	342.92
980.937	360.51
981.296	347.64
981.654	359.41
982.013	490.16
982.371	611.29
982.73	597.42
983.088	697.1
983.447	728.42
983.805	1044.9
984.163	2257.72
984.521	2422.43
984.879	3645.1
985.237	-5827.03
985.595	5979.46
985.953	1506.55
986.311	821.96
986.669	481.53
987.026	365.04
987.384	451.6
987.741	414.13
988.099	408.04
988.456	368.61
988.814	382.44
989.171	319.66
989.528	287.56
989.885	322.16
990.242	284.37
990.599	338.46
990.956	285.93
991.313	219.12
991.67	188.01
992.027	251.86
992.383	220.06
992.74	199.9
993.096	232.14
993.453	228.85
993.809	235.21
994.165	301.73
994.522	354.73
994.878	397.71
995.234	485.94
995.59	476.06
995.946	336.1
996.302	380.89
996.658	396.16
997.013	393.94
997.369	562.65
997.725	762.3
998.08	509.22
998.436	461.21
998.791	637.87
999.147	644.02
999.502	676.75
999.857	428.85
1000.212	646.46
1000.567	912.66
1000.922	545.24
1001.277	315.55
1001.632	233.91
1001.987	266.38
1002.342	242.64
1002.696	208.65
1003.051	197.31
1003.406	244.8
1003.76	249.61
1004.114	259.84
1004.469	244.3
1004.823	172.71
1005.177	161.63
1005.531	120.49
1005.885	133.31
1006.239	169.39
1006.593	233.04
1006.947	319.55
1007.301	233.53
1007.655	244.69
1008.008	188.44
1008.362	212.74
1008.715	323.34
1009.069	296.93
1009.422	560.31
1009.776	957.86
1010.129	584.71
1010.482	425.16
1010.835	250.9
1011.188	457.86
1011.541	425.94
1011.894	-2581.6
1012.247	6931.22
1012.6	533.96
1012.952	392.48
1013.305	94.6
1013.657	113.58
1014.01	126.15
1014.362	105.96
1014.715	187.57
1015.067	192.24
1015.419	203.67
1015.771	185.16
1016.123	186.89
1016.475	187.48
1016.827	192.52
1017.179	235.31
1017.531	209.97
1017.883	192.08
1018.234	258.02
1018.586	289.31
1018.938	382.88
1019.289	508.77
1019.64	532.98
1019.992	458.77
1020.343	428.48
1020.694	410.75
1021.045	346.43
1021.396	400.41
1021.747	465.9
1022.098	397.67
1022.449	277.94
1022.8	223.46
1023.151	193.77
1023.501	206.21
1023.852	206.1
1024.202	251.15
1024.553	224.26
1024.903	259.38
1025.253	277.45
1025.604	268.21
1025.954	331.53
1026.304	358.42
1026.654	364.52
1027.004	460.4
1027.354	613.1
1027.703	689.46
1028.053	652.12
1028.403	1402.32
1028.753	1762.75
1029.102	1370.39
1029.452	3855.81
1029.801	143.45
1030.15	117.57
1030.499	63.72
897.758	2773.01
901.051	2729.56
904.343	2766.03
907.636	2764.11
910.928	2831.29
914.22	2736.44
917.511	2745.94
920.803	2810.13
924.094	2834.07
927.384	2807.64
930.675	2771.05
933.965	2721.01
937.255	2729.32
940.544	2695.59
943.834	2623.56
947.123	2566.12
950.411	2665.98
953.7	2634.22
956.988	2601.37
960.276	2535.71
963.563	2623.39
966.851	2614
970.138	2674.39
973.424	2662.93
976.711	2610.68
979.997	2755.19
983.283	2788.34
986.568	2685.88
989.853	2708.65
993.138	2731.75
996.423	2817.67
999.708	2745.86
1002.992	2818
1006.275	2641.99
1009.559	2693.26
1012.842	2811.28
1016.125	2740.91
1019.408	2718.95
1022.69	2810.83
1025.972	2823.22
1029.254	2793.61
1032.536	2718.64
1035.817	2749.25
1039.098	2683.84
1042.379	2843.54
1045.659	2834.21
1048.939	2761.97
1052.219	2782.08
1055.498	2797.43
1058.778	2775.78
1062.057	2764.61
1065.335	2786.3
1068.614	2807.25
1071.892	2784.8
1075.17	2863.04
1078.447	2843.08
1081.724	2833.71
1085.001	2874.17
1088.278	2846.32
1091.554	2856.32
1094.83	2854.58
1098.106	2876.8
1101.382	2922.67
1104.657	2920.25
1107.932	2915.42
1111.206	2876.24
1114.481	2835.97
1117.755	2838.3
1121.029	2810.09
1124.302	2860.27
1127.575	2810
1130.848	2795.2
1134.121	2752.79
1137.393	2699.03
1140.665	2765.82
1143.937	2739.21
1147.208	2704.02
1150.48	2737.73
1153.75	2720.96
1157.021	2759.38
1160.291	2726.98
1163.561	2768.4
1166.831	2764.33
1170.101	2796.54
1173.37	2775.24
1176.639	2716.31
1179.907	2779.27
1183.176	2779.13
1186.444	2786.69
1189.711	2815.31
1192.979	2826.58
1196.246	2785.86
1199.513	2802.56
1202.78	2799.03
1206.046	2806.17
1209.312	2832.49
1212.578	2859.65
1215.843	2805.73
1219.108	2785.45
1222.373	2809.74
1225.638	2773.02
1228.902	2754.37
1232.166	2724.75
1235.43	2708.67
1238.693	2729.77
1241.956	2731.2
1245.219	2768.22
1248.482	2761.88
1251.744	2757.96
1255.006	2910.36
1258.268	2867.88
1261.529	2810.71
1264.79	2818.41
1268.051	2919.66
1271.312	2933.29
1274.572	2893.92
1277.832	2883.16
1281.092	2873.26
1284.351	2842.12
1287.61	2817.43
1290.869	2730.18
1294.128	2700.14
1297.386	2798.57
1300.644	2784.48
1303.902	2797.24
1307.159	2660.12
1310.416	2714.74
1313.673	2737.21
1316.93	2723.05
1320.186	2769.72
1323.442	2816.64
1326.697	2800.94
1329.953	2800.88
1333.208	2817.65
1336.463	2804.83
1339.717	2740.32
1342.972	2884.46
1346.226	2863.02
1349.479	2794.71
1352.733	2764.8
1355.986	2797.51
1359.238	2774.64
1362.491	2779.34
1365.743	2783.16
1368.995	2783.67
1372.247	2801.25
1375.498	2827.39
1378.749	2836.03
1382	2798.39
1385.251	2855.15
1388.501	2821.24
1391.751	2802.8
1395	2779.73
1398.25	2814.35
1401.499	2823.39
1404.748	2747.13
1407.996	2738.91
1411.244	2723.85
1414.492	2702.82
1417.74	2684.66
1420.987	2697.47
1424.234	2754.81
1427.481	2739.23
1430.728	2795.62
1433.974	2769.65
1437.22	2788.01
1440.465	2789.95
1443.711	2746.35
1446.956	2785.1
1450.201	2775.68
1453.445	2818.43
1456.689	2792.53
1459.933	2805.53
1463.177	2834.73
1466.42	2807.9
1469.663	2786.41
1472.906	2772.35
1476.148	2855.2
1479.391	2809.55
1482.633	2779.32
1485.874	2786.18
1489.115	2766.45
1492.356	2773.38
1495.597	2745.79
1498.838	2746.33
1502.078	2710.5
1505.318	2656.8
1508.557	2697.72
1511.797	2662.58
1515.036	2737.66
1518.274	2724.48
1521.513	2700.08
1524.751	2721.36
1527.989	2728.98
1531.227	2737.46
1534.464	2723.24
1537.701	2750.25
1540.938	2767.63
1544.174	2722.16
1547.41	2720.95
1550.646	2756.78
1553.882	2786.71
1557.117	2836.7
1560.352	2848.75
1563.587	2805.35
1566.821	2763.37
1570.055	2802.4
1573.289	2767.09
1576.523	2843.04
1579.756	2843.86
1582.989	2863.5
1586.222	2822.74
1589.454	2862.89
1592.686	2828.62
1595.918	2854.17
1599.15	2838.01
1602.381	2921.13
1605.612	2868.47
1608.843	2959.79
1612.073	2870.33
1615.303	2855.78
1618.533	2839.83
1621.762	2845.79
1624.992	2837.17
1628.221	2820.3
1631.449	2804.12
1634.678	2867.59
1637.906	2815.2
1641.134	2856.8
1644.361	2809.11
1647.588	2806.05
1650.815	2819.65
1654.042	2805.63
1657.269	2833
1660.495	2779.08
1663.72	2808.01
1666.946	2773.21
1670.171	2711.65
1673.396	2689.61
1676.621	2681.67
1679.845	2707.41
1683.069	2727.98
1686.293	2774.36
1689.517	2740.71
1692.74	2667.84
1695.963	2699.25
1699.185	2706.96
1702.408	2684.41
1705.63	2728.48
1708.852	2739.58
1712.073	2711.63
1715.294	2693.7
1718.515	2758.35
1721.736	2701.64
1724.956	2703.67
1728.176	2732.32
1731.396	2752.66
1734.616	2745.78
1737.835	2771.17
1741.054	2753.61
1744.272	2747.97
1747.491	2778.54
1750.709	2838.42
1753.927	2734.3
1757.144	2786.99
1760.361	2821.5
1763.578	2819.38
1766.795	2762.16
1770.011	2775.3
1773.227	2818.99
1776.443	2853.57
1779.658	2897.88
1782.874	2842.37
1786.089	2819.77
1789.303	2823.33
1792.518	2831.97
1795.732	2822.44
1798.945	2828.24
1802.159	2880.02
1805.372	2773.05
1808.585	2757.3
1811.797	2758.57
1815.01	2813.77
1818.222	2813.45
1821.434	2785.73
1824.645	2848.23
1827.856	2826.78
1831.067	2861.22
1834.278	2831.72
1837.488	2815.87
1840.698	2971.9
1843.908	2894.58
1847.117	2857.15
1850.326	2733.5
1853.535	2851.11
1856.744	2884.29
1859.952	2801.64
1863.16	2804.09
1866.368	2835.1
1869.575	2935.28
1872.782	2830.7
1875.989	2775.03
1879.196	2872.24
1882.402	2872.45
1885.608	2919.96
1888.814	2816.86
1892.019	2711.06
1895.224	2766.63
1898.429	2754.93
1901.634	2732.98
1904.838	2715.78
1908.042	2765.13
1911.246	2773.9
1914.449	2697.73
1917.652	2700.62
1920.855	2681.86
1924.058	2738.01
1927.26	2775.53
1930.462	2803.81
1933.664	2827.73
1936.865	2762.4
1940.066	2767
1943.267	2715.24
1946.467	2730.55
1949.668	2759.81
1952.868	2826.67
1956.067	2802.81
1959.267	2728.27
1962.466	2756.93
1965.665	2742.02
1968.863	2737.16
1972.061	2754.38
1975.259	2756.58
1978.457	2837.99
1981.654	2793.25
1984.852	2792.87
1988.048	2719.77
1991.245	2724.6
1994.441	2813.04
1997.637	2800.96
2000.833	2784.12
2004.028	2824.4
2007.223	2878.91
2010.418	2850.36
2013.613	2812.02
2016.807	2778.25
2020.001	2788.88
2023.194	2834.5
2026.388	2811.33
2029.581	2753.94
2032.774	2801.22
2035.966	2801.55
2039.158	2730.03
2042.35	2758.11
2045.542	2686.71
2048.733	2788.93
2051.924	2819.11
2055.115	2846.01
2058.306	2787.44
2061.496	2847.48
2064.686	2917.07
2067.875	2829.93
2071.065	2848.04
2074.254	2879.89
2077.442	2828.76
2080.631	2920.68
2083.819	2804.4
2087.007	2783.07
2090.195	2752.47
2093.382	2788.78
2096.569	2766.15
2099.756	2716.98
2102.942	2740.3
2106.128	2744.66
2109.314	2733.19
2112.5	2691.39
2115.685	2669.87
2118.87	2680.34
2122.055	2745.66
2125.239	2709.4
2128.424	2680.95
2131.608	2795.55
2134.791	2773.75
2137.974	2838.87
2141.157	2822.4
2144.34	2770.85
2147.523	2792.67
2150.705	2803.24
2153.887	2782.08
2157.068	2727.14
2160.25	2735.59
2163.431	2777.3
2166.611	2716.34
2169.792	2729.74
2172.972	2618.03
2176.152	2706.11
2179.331	2741.7
2182.511	2719.78
2185.69	2750.32
2188.868	2744.7
2192.047	2806.32
2195.225	2788.23
2198.403	2739.9
2201.58	2732.96
2204.758	2733.58
2207.935	2818.15
2211.111	2698.3
2214.288	2683.36
2217.464	2724.73
2220.64	2698.17
2223.815	2757.22
2226.991	2677.38
2230.166	2699.22
2233.34	2723.37
2236.515	2753.68
2239.689	2832.83
2242.863	2773.72
2246.036	2829.57
2249.209	2832.64
2252.382	2869.56
2255.555	2854.42
2258.727	2786.76
2261.9	2828.67
2265.071	2820.36
2268.243	2829.11
2271.414	2754.5
2274.585	2707.94
2277.756	2779.44
2280.926	2736.83
2284.096	2780.34
2287.266	2683.17
2290.436	2741.99
2293.605	2773.84
2296.774	2802.62
2299.942	2830.65
2303.111	2845.1
2306.279	2895.42
2309.447	2881.54
2312.614	2856.27
2315.781	2877.87
2318.948	2844.8
2322.115	2884.11
2325.281	2787.23
2328.447	2809.15
2331.613	2785.01
2334.779	2750.42
2337.944	2756.81
2341.109	2754.08
2344.274	2738.15
2347.438	2703.11
2350.602	2727.45
2353.766	2745.55
2356.929	2730.62
2360.092	2772.45
2363.255	2721.46
2366.418	2646.99
2369.58	2770.45
2372.742	2534.82
2375.904	2554.48
2379.066	2527.19
2382.227	2566.26
2385.388	2530.49
2388.548	2449.72
2391.709	2508.07
2394.869	2486.75
2398.029	2594.59
2401.188	2614.46
2404.347	2541.25
2407.506	2699.56
2410.665	2724.39
2413.823	2735.74
2416.981	2687.22
2420.139	2719.71
2423.296	2774.66
2426.453	2748.31
2429.61	2773.47
2432.767	2698.02
2435.923	2735.08
2439.079	2693.83
2442.235	2745.82
2445.391	2672.94
2448.546	2697.3
2451.701	2753.12
2454.855	2719.46
2458.009	2778.94
2461.163	2783.53
2464.317	2736.56
2467.471	2777.58
2470.624	2816.76
2473.777	2791.39
2476.929	2806.57
2480.082	2829.98
2483.234	2795.32
2486.385	2747.86
2489.537	2741.51
2492.688	2696.37
2495.839	2711.26
2498.989	2721.6
2502.14	2702.48
2505.29	2684.22
2508.439	2712.83
2511.589	2629.09
2514.738	2643.75
2517.887	2676.85
2521.035	2740.45
2524.183	2727.23
2527.331	2705.53
2530.479	2677.87
2533.627	2691.53
