Data from N_3_DEC_OH_4N_Splice17_13-27-09-330.txt Node
Date: Sat Mar 14 13:27:09 EDT 2020
User: sa697716
Spectrometer: FLMS03696
Trigger mode: 0
Integration Time (sec): 3.180400E-1
Scans to average: 20
Electric dark correction enabled: true
Nonlinearity correction enabled: true
Boxcar width: 5
XAxis mode: Wavelengths
Number of Pixels in Spectrum: 2048
>>>>>Begin Spectral Data<<<<<
187.83	-372715.31
188.298	2650.88
188.766	1450.02
189.233	1302.78
189.701	1654.18
190.169	2248.71
190.636	869.23
191.104	660.18
191.571	70.95
192.039	-103.08
192.506	-203.87
192.974	185.12
193.441	-346.84
193.908	54.19
194.375	34.15
194.842	-38.53
195.31	8.03
195.777	156.99
196.244	350.53
196.711	427.71
197.177	563.63
197.644	806.47
198.111	1391.35
198.578	1938.66
199.045	1566.56
199.511	2571.9
199.978	3031.29
200.445	2596.02
200.911	2847.22
201.378	3214.58
201.844	2927.72
202.31	4959.3
202.777	5195.37
203.243	2919.21
203.709	2797.22
204.176	3334.31
204.642	2746.38
205.108	2568.9
205.574	2079.52
206.04	1897.65
206.506	1743.42
206.972	1634.14
207.438	1583.99
207.903	1770.56
208.369	1541.91
208.835	1544.07
209.301	1619.59
209.766	1651.84
210.232	1619.37
210.697	2008.17
211.163	2470.48
211.628	3743.97
212.094	3154.33
212.559	3899.95
213.024	2447.74
213.49	2988.16
213.955	2932.69
214.42	2878.88
214.885	2694.86
215.35	2620.93
215.815	2545.71
216.28	2715.11
216.745	2226.59
217.21	2405.29
217.675	2209.14
218.14	2481.86
218.604	2766.61
219.069	3141.94
219.534	3303.25
219.998	3826.88
220.463	4608.47
220.927	5639.72
221.392	5320.83
221.856	5403.06
222.32	6806.14
222.785	8388.5
223.249	10554.66
223.713	11781.49
224.177	11761.11
224.642	15063.1
225.106	18535.85
225.57	20270.93
226.034	15093.53
226.497	22975.83
226.961	20711.35
227.425	24103.21
227.889	26740.91
228.353	26692.3
228.816	55029.88
229.28	52618.01
229.744	44187.87
230.207	26885.42
230.671	26413.63
231.134	43613.56
231.597	50246.58
232.061	50215.26
232.524	48931.9
232.987	33658.35
233.45	30309.96
233.914	27189
234.377	27858.28
234.84	25499.87
235.303	29968.27
235.766	33408.04
236.229	34484.8
236.691	21668.88
237.154	24289.88
237.617	18238.98
238.08	18655.95
238.542	21808.51
239.005	15568.9
239.468	15442.56
239.93	14562.27
240.393	13243.21
240.855	11632.48
241.317	11905.86
241.78	14488.72
242.242	14991.64
242.704	16215.28
243.166	14115.62
243.629	12803.78
244.091	14750.36
244.553	16159.42
245.015	17355.43
245.477	22433.2
245.939	32834.45
246.4	34851.31
246.862	33824.01
247.324	31868.36
247.786	35610.74
248.247	46677.2
248.709	48098.39
249.17	35933.92
249.632	33858.8
250.093	39265.77
250.555	33870.72
251.016	20665.41
251.477	19564.04
251.939	21108.26
252.4	22130.58
252.861	26288.5
253.322	24457.86
253.783	29131.24
254.244	37794.91
254.705	29754.19
255.166	26406.49
255.627	25994.42
256.088	36616.02
256.549	38877.36
257.009	33457.33
257.47	40578.35
257.931	33003.8
258.391	24695.87
258.852	25416.49
259.312	26607.3
259.773	32823.98
260.233	27777.5
260.694	23421.85
261.154	26557.66
261.614	21326.89
262.074	19060.17
262.534	19778.14
262.994	18630.8
263.455	24785.45
263.915	20891.04
264.374	19660.89
264.834	21437.86
265.294	23715.85
265.754	24560.77
266.214	23238.67
266.673	21750.78
267.133	27408.51
267.593	27164.81
268.052	33204.59
268.512	28857.78
268.971	34804.01
269.431	38136.64
269.89	34151.37
270.349	51188.94
270.809	57032.98
271.268	51244.94
271.727	114790.73
272.186	74392.95
272.645	55799.67
273.104	40281.49
273.563	58273.37
274.022	45764.76
274.481	38969.32
274.94	30014.55
275.399	22278.93
275.857	25887.35
276.316	34960.92
276.775	31141.25
277.233	30653.96
277.692	28688.22
278.15	32439.57
278.609	33384.63
279.067	30897.56
279.525	28696.03
279.984	37032.11
280.442	44482.92
280.9	43910.07
281.358	28893.57
281.816	26917.6
282.274	26351.62
282.732	27208.04
283.19	27315.86
283.648	23580.5
284.106	25101.04
284.564	25524
285.021	23708.46
285.479	17666.59
285.937	16064.01
286.394	14108.21
286.852	14516.97
287.309	15250.19
287.767	14753.59
288.224	14048.03
288.682	15412.65
289.139	16928.75
289.596	15498.25
290.053	16102.35
290.511	20324.79
290.968	24660.08
291.425	33459.04
291.882	27819.92
292.339	24230.47
292.796	24030.14
293.252	22613.53
293.709	17976.25
294.166	16091.18
294.623	17767.36
295.079	17024.99
295.536	17115.53
295.992	15529.19
296.449	15338.01
296.905	15964
297.362	15309.54
297.818	16084.33
298.274	16697.11
298.731	16991.21
299.187	16831.22
299.643	18041.58
300.099	21812.27
300.555	23888.81
301.011	19965.86
301.467	19277.89
301.923	22525.84
302.379	21985.13
302.835	21595.8
303.291	21628.55
303.746	24635.77
304.202	31069.04
304.658	31191.65
305.113	20978.73
305.569	20574.62
306.024	21940.73
306.479	20880.9
306.935	17628.2
307.39	19245.49
307.845	17773.45
308.301	17901.18
308.756	17446.45
309.211	16849.54
309.666	17288.21
310.121	21477.85
310.576	21797.64
311.031	21626.6
311.486	24757.59
311.94	24715.06
312.395	33062.85
312.85	62129.89
313.305	304543.55
313.759	1577691.9
314.214	114129.79
314.668	90380.93
315.123	76120.49
315.577	27331.28
316.032	24260.61
316.486	30398.57
316.94	24011.54
317.394	16714.67
317.849	12994.89
318.303	12317.65
318.757	11616.4
319.211	12837.1
319.665	11246.22
320.119	11360.92
320.572	16275.09
321.026	15220.35
321.48	12654.25
321.934	13779.8
322.387	13801.14
322.841	14888.56
323.295	13410.7
323.748	15439.37
324.202	15672.58
324.655	18826.07
325.108	26342.35
325.562	18607.31
326.015	22107.05
326.468	16707.83
326.921	18673.28
327.374	17440.28
327.827	18192.13
328.28	20545.31
328.733	13761.75
329.186	12093.24
329.639	11517.15
330.092	9708.13
330.545	9251.77
330.997	9342.44
331.45	10227.08
331.903	12002.23
332.355	20611.99
332.808	20021.21
333.26	16503.39
333.713	17929.71
334.165	18070.67
334.617	24104.16
335.069	19423.53
335.522	35040.11
335.974	38781.25
336.426	35385.09
336.878	24475.7
337.33	12416.36
337.782	12101.89
338.234	15176.93
338.686	18136.43
339.137	21489.33
339.589	20225.31
340.041	15877.66
340.493	13668.11
340.944	14005.43
341.396	15106.17
341.847	12703.74
342.299	14998.11
342.75	18351.75
343.201	16027.66
343.653	18404.21
344.104	22568.61
344.555	17755.29
345.006	27593.66
345.457	21177.75
345.908	16793.28
346.359	15762.03
346.81	12834.91
347.261	13527.46
347.712	13296.53
348.163	14234.07
348.613	14420.26
349.064	13476.45
349.515	11809.09
349.965	12133.31
350.416	14563.71
350.866	15976.44
351.317	18066.21
351.767	29915.16
352.217	37733.4
352.668	31277.3
353.118	28665.31
353.568	27631.27
354.018	21886.89
354.468	23087.61
354.918	16515.9
355.368	14483.98
355.818	20474.92
356.268	58802.35
356.718	245955.96
357.168	61194.53
357.617	30739.52
358.067	34140.43
358.517	31997.52
358.966	37497.97
359.416	42102
359.865	45484.5
360.315	53979.01
360.764	25205.17
361.213	14151.85
361.663	13402.42
362.112	16561.08
362.561	26778.63
363.01	20210.72
363.459	16996.8
363.908	18392.07
364.357	15614.92
364.806	26387.41
365.255	18148.51
365.703	16645.7
366.152	16639
366.601	13512.45
367.05	10984.56
367.498	9982.29
367.947	10427.68
368.395	10865.64
368.844	9634.26
369.292	11582.49
369.74	8005.68
370.189	12256.47
370.637	14357.36
371.085	12391.02
371.533	15037.46
371.981	14401.77
372.429	13704.08
372.877	14238.59
373.325	11860.11
373.773	12034.49
374.221	10689.71
374.669	13226.54
375.116	11408.91
375.564	11469.11
376.012	12817.98
376.459	10570.87
376.907	12636.94
377.354	15240.6
377.801	14241.26
378.249	16385.65
378.696	20876.08
379.143	25239.6
379.591	26886.48
380.038	45435.87
380.485	32786.66
380.932	35301.71
381.379	32284.75
381.826	23762.22
382.273	16884.48
382.72	14715.57
383.166	14315.23
383.613	9298.84
384.06	8365.87
384.506	9673.71
384.953	7096.24
385.4	7113.99
385.846	6216.88
386.292	6032.87
386.739	5889.55
387.185	5807.08
387.631	5799.58
388.078	5628.19
388.524	5999.45
388.97	5539.52
389.416	4622.05
389.862	4916.22
390.308	4658.56
390.754	4733.97
391.2	5151.57
391.645	5267.35
392.091	5060.66
392.537	4893.47
392.983	4894.36
393.428	4838.78
393.874	5193.04
394.319	5217.8
394.765	4968.26
395.21	5102.87
395.655	4803.37
396.101	4502.77
396.546	4076.77
396.991	4114.49
397.436	3836.44
397.881	3723.82
398.326	3528.59
398.771	3358.06
399.216	2948.84
399.661	2655.08
400.106	2677.3
400.551	2754.79
400.995	2484.13
401.44	2474.9
401.885	2338.45
402.329	2376.82
402.774	2295.45
403.218	2246.11
403.663	2178.14
404.107	2252.5
404.551	2291.18
404.995	2112.11
405.44	2043.25
405.884	2090.53
406.328	2032.95
406.772	2040.49
407.216	1872.31
407.66	1819.22
408.104	1738.36
408.547	1636.62
408.991	1591.47
409.435	1538.04
409.879	1525.83
410.322	1518.16
410.766	1476.76
411.209	1415.17
411.653	1365.34
412.096	1346.11
412.54	1355.89
412.983	1353.89
413.426	1367.87
413.869	1375.75
414.312	1362.14
414.756	1319.05
415.199	1264.81
415.642	1233.52
416.085	1242.46
416.527	1240.86
416.97	1264.81
417.413	1203.98
417.856	1192.8
418.298	1183.3
418.741	1177.68
419.184	1175.37
419.626	1228.6
420.069	1233.65
420.511	1241.91
420.953	1217.98
421.396	1208.83
421.838	1180.6
422.28	1211.04
422.722	1220.84
423.164	1239.27
423.606	1222.39
424.048	1221.08
424.49	1162.49
424.932	1154.99
425.374	1140.01
425.816	1158.03
426.258	1182.23
426.699	1193.94
427.141	1173.27
427.582	1190.84
428.024	1183.46
428.465	1175.03
428.907	1146.27
429.348	1130.19
429.789	1132.12
430.231	1109.3
430.672	1126.94
431.113	1097.81
431.554	1080.85
431.995	1054.91
432.436	1018.14
432.877	996.97
433.318	980.36
433.759	979.15
434.2	978.77
434.64	968.64
435.081	970.79
435.522	920.79
435.962	888.87
436.403	872.2
436.843	885.91
437.284	867.3
437.724	845.82
438.164	849.13
438.604	828.26
439.045	799.93
439.485	769.61
439.925	755.1
440.365	736.95
440.805	729.58
441.245	724.34
441.685	701.56
442.125	700.86
442.564	707.65
443.004	696.01
443.444	699.27
443.883	704.5
444.323	702.48
444.762	708.06
445.202	721.2
445.641	740.44
446.081	739.26
446.52	749.56
446.959	747.4
447.398	734.54
447.837	731.54
448.276	724.21
448.716	736.65
449.154	747.36
449.593	734.88
450.032	737.58
450.471	726.9
450.91	731.97
451.349	733.28
451.787	732.34
452.226	745.76
452.664	748.68
453.103	753.08
453.541	754.09
453.98	755.84
454.418	762.55
454.856	752.64
455.295	753.56
455.733	760.07
456.171	766.31
456.609	767.66
457.047	768.51
457.485	779.57
457.923	780.32
458.361	769.56
458.798	771.38
459.236	770.59
459.674	775.17
460.111	778.31
460.549	771.88
460.987	767.9
461.424	764.78
461.862	761.25
462.299	750.03
462.736	749.12
463.173	750.92
463.611	742.57
464.048	738.58
464.485	744.89
464.922	736.96
465.359	731.15
465.796	723.19
466.233	717.67
466.67	710.55
467.106	707.62
467.543	700.6
467.98	691.4
468.416	672.93
468.853	667.98
469.29	647.74
469.726	641.48
470.162	624.9
470.599	614.62
471.035	610.33
471.471	595.36
471.907	593.35
472.344	590.62
472.78	593.48
473.216	602.84
473.652	597.81
474.088	598.15
474.523	597.91
474.959	605.98
475.395	603.11
475.831	600.65
476.266	606.94
476.702	605.06
477.138	599.54
477.573	599.56
478.008	599.18
478.444	602.69
478.879	609.56
479.314	612.84
479.75	613.98
480.185	618.2
480.62	625.62
481.055	629.65
481.49	636.95
481.925	647.41
482.36	659.71
482.795	678.87
483.229	698.94
483.664	714.97
484.099	720.13
484.534	731.99
484.968	740.34
485.403	744.02
485.837	745.07
486.271	745.16
486.706	747.28
487.14	740.34
487.574	730.67
488.009	725.75
488.443	722.22
488.877	731.67
489.311	736.68
489.745	748.43
490.179	758.38
490.613	776.23
491.046	785.18
491.48	795.4
491.914	800.56
492.348	809.56
492.781	819.11
493.215	823.77
493.648	829.79
494.082	840.88
494.515	845.77
494.948	859.8
495.382	869.75
495.815	880.93
496.248	893.07
496.681	913.94
497.114	934.62
497.547	953.23
497.98	975.32
498.413	988.58
498.846	1007.2
499.279	1024.32
499.711	1035.3
500.144	1044.51
500.577	1064.24
501.009	1084.41
501.442	1103.79
501.874	1111.63
502.306	1118.68
502.739	1134.53
503.171	1160.01
503.603	1169.44
504.036	1188.23
504.468	1200.97
504.9	1221.54
505.332	1235.48
505.764	1246.16
506.196	1259.72
506.627	1284.05
507.059	1307.81
507.491	1324.91
507.923	1325.38
508.354	1348.16
508.786	1365.3
509.217	1392.44
509.649	1414.63
510.08	1442.29
510.512	1466.13
510.943	1488.17
511.374	1504.78
511.805	1532.24
512.237	1559.06
512.668	1604.18
513.099	1642.42
513.53	1677.77
513.961	1705.82
514.391	1748.57
514.822	1792.54
515.253	1839.73
515.684	1872.4
516.114	1909.03
516.545	1934.23
516.975	1966.55
517.406	1986.89
517.836	1985.96
518.267	1991.41
518.697	2010.97
519.127	2011.84
519.558	2017.44
519.988	2017.38
520.418	2024.7
520.848	2044.07
521.278	2051.72
521.708	2065.27
522.138	2077.53
522.567	2114.62
522.997	2143.9
523.427	2160.06
523.857	2179.4
524.286	2188.1
524.716	2203.11
525.145	2224.96
525.575	2234.91
526.004	2248.81
526.433	2238.48
526.863	2234.23
527.292	2216.17
527.721	2219.5
528.15	2222.91
528.579	2218.43
529.008	2229.34
529.437	2257.26
529.866	2272.23
530.295	2291.4
530.724	2305.08
531.152	2337.63
531.581	2352.97
532.01	2374.99
532.438	2384.38
532.867	2400.31
533.295	2422.24
533.723	2427.28
534.152	2421.77
534.58	2418.4
535.008	2394.94
535.436	2395.1
535.865	2403.5
536.293	2420.4
536.721	2438.12
537.149	2467.54
537.576	2468.68
538.004	2482.61
538.432	2490.56
538.86	2485.66
539.287	2493.7
539.715	2510.91
540.143	2512.91
540.57	2505.44
540.998	2498.86
541.425	2467.48
541.852	2438.65
542.28	2435.92
542.707	2412.89
543.134	2393.78
543.561	2386.83
543.988	2375.85
544.415	2373.21
544.842	2365.07
545.269	2355.75
545.696	2357.26
546.123	2372.81
546.549	2360.45
546.976	2343.31
547.403	2343.67
547.829	2347.24
548.256	2350.66
548.682	2346.17
549.108	2335.63
549.535	2335.4
549.961	2338.18
550.387	2322.28
550.813	2315.85
551.24	2324.45
551.666	2327.08
552.092	2316.06
552.518	2307.98
552.943	2301.99
553.369	2312.5
553.795	2322.57
554.221	2327.01
554.646	2325.61
555.072	2341.4
555.498	2349.51
555.923	2362.38
556.349	2384.55
556.774	2398.04
557.199	2401.96
557.625	2411.87
558.05	2407.38
558.475	2423.77
558.9	2423.17
559.325	2414.37
559.75	2409.68
560.175	2406.2
560.6	2401.47
561.025	2402.92
561.449	2407.13
561.874	2418.16
562.299	2427.28
562.723	2439.94
563.148	2430.62
563.572	2440.73
563.997	2458.48
564.421	2469.89
564.846	2473.59
565.27	2483.79
565.694	2483.02
566.118	2504.38
566.542	2519.34
566.966	2515.53
567.39	2513.62
567.814	2503.51
568.238	2507.59
568.662	2519.97
569.086	2527.83
569.509	2541.29
569.933	2523.72
570.357	2518.33
570.78	2492.63
571.204	2479.16
571.627	2468.81
572.05	2471.92
572.474	2476.6
572.897	2463.47
573.32	2456.89
573.743	2448.73
574.166	2428.03
574.589	2432.96
575.012	2428.91
575.435	2433.51
575.858	2426.07
576.281	2416.57
576.704	2398.65
577.126	2385.85
577.549	2374.36
577.972	2365.22
578.394	2353.67
578.817	2347.45
579.239	2324.45
579.661	2308.32
580.084	2287.99
580.506	2272.22
580.928	2268.51
581.35	2256.54
581.772	2252.46
582.194	2237.29
582.616	2221.92
583.038	2205.26
583.46	2194.98
583.882	2193.64
584.303	2202.46
584.725	2200.55
585.147	2205.61
585.568	2224.23
585.99	2244.35
586.411	2257.29
586.833	2281.61
587.254	2286.32
587.675	2308.51
588.096	2328.48
588.518	2323.67
588.939	2300.8
589.36	2299.28
589.781	2286.32
590.202	2245.52
590.623	2233.4
591.043	2231.72
591.464	2212.8
591.885	2208.61
592.305	2201.27
592.726	2181.6
593.147	2183.86
593.567	2177.06
593.987	2166.67
594.408	2159.5
594.828	2158.63
595.248	2150.62
595.669	2123.47
596.089	2115.53
596.509	2106.91
596.929	2088.14
597.349	2091.18
597.769	2078.3
598.189	2070.38
598.608	2072.82
599.028	2077.25
599.448	2077.61
599.867	2060.87
600.287	2055.67
600.706	2049.58
601.126	2035.72
601.545	2035.19
601.965	2033.69
602.384	2027.09
602.803	2031.73
603.222	2026.54
603.641	2018.62
604.061	2014.87
604.48	2009.83
604.898	2024.66
605.317	2034.87
605.736	2040.57
606.155	2038.16
606.574	2027.19
606.992	2036.91
607.411	2033.38
607.829	2023.51
608.248	2020.91
608.666	2020.32
609.085	2022.51
609.503	2012.17
609.921	2006.05
610.339	2012.8
610.758	2015.95
611.176	2011.71
611.594	2001.48
612.012	1999.65
612.43	2007.98
612.847	2021.37
613.265	2026.24
613.683	2036.81
614.101	2042.04
614.518	2038
614.936	2024.81
615.353	2005.02
615.771	2002.82
616.188	2004.87
616.606	2002.22
617.023	1994
617.44	1973.67
617.857	1965.38
618.274	1953.97
618.691	1945.09
619.108	1932.76
619.525	1925.03
619.942	1936.03
620.359	1942.62
620.776	1935.71
621.192	1929.36
621.609	1925.92
622.026	1937.04
622.442	1946.14
622.859	1952.45
623.275	1943.6
623.691	1954.15
624.108	1972.72
624.524	1995.19
624.94	1995.48
625.356	2011.29
625.772	2032.76
626.188	2052.26
626.604	2055.61
627.02	2049.25
627.436	2046.54
627.852	2056.99
628.268	2076.54
628.683	2062.06
629.099	2048.23
629.514	2041.03
629.93	2047.58
630.345	2054.26
630.761	2048.18
631.176	2053.37
631.591	2044.67
632.007	2035.32
632.422	2030.9
632.837	2011.37
633.252	2006.96
633.667	1992.25
634.082	1977.69
634.497	1957.03
634.911	1925.32
635.326	1918.37
635.741	1890.44
636.155	1874.65
636.57	1874.02
636.984	1873.1
637.399	1874.27
637.813	1872.84
638.228	1869.55
638.642	1874.2
639.056	1856.22
639.47	1855.41
639.884	1840.97
640.298	1829.02
640.712	1824.11
641.126	1802.91
641.54	1787.5
641.954	1778.16
642.368	1756.62
642.781	1739.3
643.195	1709.91
643.609	1709.09
644.022	1696.23
644.436	1687.94
644.849	1667.21
645.262	1646.55
645.676	1647.29
646.089	1637.71
646.502	1611.81
646.915	1601.25
647.328	1575.94
647.741	1569.24
648.154	1547.2
648.567	1541.04
648.98	1518.71
649.393	1518.62
649.805	1511.95
650.218	1499.26
650.631	1474.71
651.043	1465.38
651.456	1456.62
651.868	1456.93
652.28	1482.94
652.693	1504.12
653.105	1514.62
653.517	1529.68
653.929	1530.25
654.341	1539.54
654.753	1520.52
655.165	1529.59
655.577	1524.71
655.989	1517.21
656.401	1505.25
656.813	1451.33
657.224	1419.86
657.636	1375.55
658.047	1346.88
658.459	1315.63
658.87	1299.9
659.282	1281.41
659.693	1248.32
660.104	1223.66
660.515	1200.02
660.926	1191.71
661.338	1182.74
661.749	1168.28
662.159	1149.24
662.57	1137.25
662.981	1124.24
663.392	1107.22
663.803	1104.87
664.213	1094.6
664.624	1081.59
665.035	1079.62
665.445	1056.11
665.855	1039.05
666.266	1021.19
666.676	1011.56
667.086	993.15
667.497	985.78
667.907	971.22
668.317	952.4
668.727	941.38
669.137	937
669.547	927.4
669.956	923.61
670.366	920.71
670.776	918.43
671.186	918.28
671.595	918.51
672.005	917.82
672.414	912.62
672.824	908.18
673.233	909.46
673.642	908.16
674.052	908.26
674.461	909.21
674.87	911.4
675.279	905.36
675.688	906.42
676.097	906.41
676.506	902.57
676.915	919.41
677.323	922.21
677.732	921.39
678.141	921.72
678.549	911.07
678.958	911.92
679.366	914.74
679.775	925.11
680.183	943.31
680.592	957.05
681	970.08
681.408	970.71
681.816	991.25
682.224	1013.15
682.632	1038.06
683.04	1089.74
683.448	1135.21
683.856	1191.44
684.264	1255.2
684.671	1316.86
685.079	1389.69
685.487	1472.19
685.894	1579.41
686.302	1671
686.709	1751.95
687.116	1844.6
687.524	1922.27
687.931	1992.07
688.338	2050.85
688.745	2100.37
689.152	2152.23
689.559	2219.81
689.966	2283.05
690.373	2311.38
690.78	2367.02
691.187	2450.31
691.593	2508.12
692	2554.8
692.407	2630.55
692.813	2722
693.22	2789.95
693.626	2860.86
694.032	2908.27
694.439	2991.73
694.845	3050.17
695.251	3128.81
695.657	3195.32
696.063	3306.89
696.469	3380.22
696.875	3442.4
697.281	3466.1
697.687	3499.67
698.093	3521.56
698.498	3591.2
698.904	3639.22
699.31	3724.4
699.715	3773.23
700.12	3863.67
700.526	3855.49
700.931	3915.75
701.337	3952.44
701.742	3967.04
702.147	4045.47
702.552	4052.96
702.957	4101.68
703.362	4099.48
703.767	4111.09
704.172	4136.6
704.577	4053.82
704.981	4089.72
705.386	4085.75
705.791	4054.09
706.195	4119.64
706.6	4106.13
707.004	4179.82
707.408	4122.21
707.813	4132.85
708.217	4098.09
708.621	4081.02
709.025	4173.92
709.43	4154.5
709.834	4204.79
710.237	4265.27
710.641	4228.1
711.045	4236.46
711.449	4213.33
711.853	4229.26
712.256	4258.29
712.66	4281.96
713.064	4349.69
713.467	4378.6
713.87	4487.26
714.274	4523.39
714.677	4628.9
715.08	4791.1
715.484	4958.22
715.887	5162.26
716.29	5361.42
716.693	5569.05
717.096	5809.79
717.499	5933.68
717.901	5947.07
718.304	5959.81
718.707	5964.87
719.109	5839.43
719.512	5792.31
719.915	5634.65
720.317	5560.47
720.719	5590.81
721.122	5547.44
721.524	5482.94
721.926	5425.8
722.328	5516.46
722.731	5493.84
723.133	5513.87
723.535	5701.71
723.937	5709.87
724.338	5753.8
724.74	5786.19
725.142	5722.38
725.544	5711.56
725.945	5730.88
726.347	5719.86
726.748	5702.39
727.15	5704.9
727.551	5658.65
727.952	5620.37
728.354	5581.22
728.755	5574.22
729.156	5523.7
729.557	5493.8
729.958	5365.32
730.359	5301.52
730.76	5277.88
731.161	5213.46
731.562	5184.81
731.962	5180.71
732.363	5114.66
732.763	5048.81
733.164	5077.97
733.564	5007.07
733.965	4908.76
734.365	4870.29
734.766	4894.12
735.166	4851.29
735.566	4793.9
735.966	4767.05
736.366	4760.37
736.766	4696.57
737.166	4724.06
737.566	4680.77
737.966	4655.04
738.365	4689.73
738.765	4683.52
739.165	4609.68
739.564	4581.82
739.964	4625.38
740.363	4576.8
740.763	4572.4
741.162	4559.61
741.561	4529.2
741.96	4481.98
742.36	4498.37
742.759	4502.65
743.158	4535.2
743.557	4547.52
743.955	4584.54
744.354	4537.62
744.753	4591.49
745.152	4549.54
745.55	4601.04
745.949	4589.69
746.348	4591.68
746.746	4603.85
747.144	4563.28
747.543	4542.13
747.941	4585.22
748.339	4514.92
748.737	4504.76
749.136	4494.88
749.534	4556.28
749.932	4527.77
750.33	4547.69
750.727	4601.36
751.125	4578.4
751.523	4562.79
751.921	4604.82
752.318	4572.52
752.716	4628.08
753.113	4641.68
753.511	4664.48
753.908	4663.06
754.305	4646.25
754.703	4704.76
755.1	4760.41
755.497	4816.64
755.894	4997.41
756.291	5166
756.688	5480.97
757.085	5903.57
757.482	6494.13
757.878	7144.06
758.275	7732.82
758.672	8535.23
759.068	9195.08
759.465	10132.29
759.861	11344.75
760.258	12748.72
760.654	13477.47
761.05	13372.42
761.447	12760.41
761.843	11879.17
762.239	10969.21
762.635	10556.32
763.031	10162.51
763.427	9593.58
763.822	9000.59
764.218	8405.68
764.614	7637.92
765.01	7127.19
765.405	6797.53
765.801	6545.06
766.196	6225.66
766.592	6046.38
766.987	5741.84
767.382	5537.9
767.778	5455.06
768.173	5328
768.568	5259.46
768.963	5137.71
769.358	5152.84
769.753	5108.54
770.148	5025.57
770.542	5022.83
770.937	4989.41
771.332	5076.35
771.726	5093.46
772.121	5030.68
772.515	5083.5
772.91	5069.33
773.304	5141.23
773.699	5076.47
774.093	5126.15
774.487	5180.42
774.881	5222.11
775.275	5219.24
775.669	5180.15
776.063	5222.09
776.457	5254.46
776.851	5179.87
777.245	5169.96
777.638	5199.53
778.032	5311.99
778.425	5276.88
778.819	5316.69
779.212	5276.31
779.606	5235.83
779.999	5253.87
780.392	5237.34
780.786	5318.39
781.179	5337.14
781.572	5378.61
781.965	5388.55
782.358	5331.49
782.751	5383.07
783.143	5335.51
783.536	5404.25
783.929	5446.13
784.322	5555.39
784.714	5586
785.107	5578.46
785.499	5653.18
785.891	5632.11
786.284	5616.31
786.676	5753.67
787.068	5735.7
787.46	5786.19
787.852	5806.73
788.245	5887.64
788.636	5914.83
789.028	5982.79
789.42	6023.75
789.812	6027.67
790.204	6122.46
790.595	6217.62
790.987	6028.64
791.378	6053.58
791.77	6181.25
792.161	6309.75
792.553	6366.33
792.944	6261.46
793.335	6194.98
793.726	6264.46
794.117	6353.31
794.508	6484.45
794.899	6455.65
795.29	6593.6
795.681	6650.45
796.072	6514.63
796.463	6345.48
796.853	6356.55
797.244	6512.8
797.634	6547.85
798.025	6548.43
798.415	6559.61
798.806	6649.37
799.196	6733.68
799.586	6786.46
799.976	6751.08
800.366	6974.22
800.756	7201.81
801.146	7167.18
801.536	7193.89
801.926	7267.39
802.316	7298.16
802.706	7368.54
803.095	7250.04
803.485	7349.9
803.874	7388.95
804.264	7636.85
804.653	7613.8
805.043	7756.34
805.432	7863.74
805.821	7866.77
806.21	7886.79
806.599	7996.24
806.988	8042.64
807.377	8148.94
807.766	8274.62
808.155	8548.7
808.544	8296.95
808.933	8308.93
809.321	8286.29
809.71	8568.9
810.098	8722
810.487	9170.37
810.875	9635.18
811.264	9655.28
811.652	9938.5
812.04	10076.28
812.428	10228.48
812.816	10959.84
813.204	11364.53
813.592	11902.39
813.98	12225.83
814.368	12133.31
814.756	12589.17
815.144	12511.87
815.531	12964.31
815.919	12878.94
816.306	13175.53
816.694	12875.48
817.081	12932.87
817.469	13267.27
817.856	13258.65
818.243	13521.08
818.63	13907.15
819.017	13496.85
819.404	13559.58
819.791	13927.61
820.178	14534.68
820.565	14776.57
820.952	15688.79
821.339	15213.71
821.725	15397.01
822.112	14685.14
822.498	14645.88
822.885	14769.79
823.271	14683.57
823.657	15095.15
824.044	15106.18
824.43	15178.04
824.816	15155.46
825.202	14731.97
825.588	15715.58
825.974	15730.21
826.36	16224.58
826.746	16254.99
827.132	16598.89
827.517	16584.65
827.903	15816.44
828.289	15852.03
828.674	15094.14
829.06	14993.83
829.445	15375.75
829.83	15719.33
830.216	16179.36
830.601	16539.1
830.986	16147.74
831.371	16014.69
831.756	16546.5
832.141	16147.84
832.526	16139.82
832.911	16412.35
833.295	16296.55
833.68	16746.95
834.065	16143.8
834.449	15253.5
834.834	15179.38
835.218	15171.25
835.603	15500.99
835.987	15292.09
836.371	16076.88
836.755	15966.89
837.139	16353.5
837.524	16582.76
837.908	16408.04
838.291	16467.05
838.675	16532.36
839.059	16727.4
839.443	16716.21
839.827	16494.01
840.21	16952.61
840.594	16811.26
840.977	17010.04
841.361	16978.19
841.744	17324.32
842.127	17170.08
842.511	17395.55
842.894	17958.82
843.277	18312.27
843.66	18818.38
844.043	18880.1
844.426	18103.63
844.809	17799.18
845.191	17823.24
845.574	17380.24
845.957	17032.78
846.339	16930.13
846.722	16427.94
847.104	16495.02
847.487	16332.18
847.869	16346.59
848.252	16613.02
848.634	16929.08
849.016	17178.29
849.398	17296.49
849.78	18102.81
850.162	18114.3
850.544	18502.02
850.926	19102.5
851.307	19012.26
851.689	19288.1
852.071	19717.6
852.452	20024.4
852.834	20006.38
853.215	20391.36
853.597	20542.28
853.978	20825.02
854.359	21253.13
854.741	20302.01
855.122	20211.82
855.503	19939.17
855.884	20051.9
856.265	20004.62
856.646	20120.22
857.026	19740.54
857.407	19678.82
857.788	19826.19
858.169	20107.31
858.549	19297.68
858.93	19897.87
859.31	19943.96
859.69	20145.93
860.071	19765.83
860.451	19549.79
860.831	18846.59
861.211	19955.56
861.591	20479.86
861.971	20455.07
862.351	20644.33
862.731	21014.33
863.111	21267.65
863.491	21592.8
863.87	22433.22
864.25	22766.23
864.629	22389.29
865.009	22882.2
865.388	23709.36
865.768	25411.11
866.147	25322.7
866.526	23918.61
866.905	24207.58
867.284	25577.46
867.663	24276.12
868.042	23262.99
868.421	23190.92
868.8	23578.18
869.179	23815.98
869.558	22424.38
869.936	20662.73
870.315	21035.21
870.693	21558.85
871.072	23258.56
871.45	22158.82
871.828	22456.18
872.207	23620.4
872.585	23270.38
872.963	23900.28
873.341	23075.94
873.719	22798.6
874.097	22530.63
874.475	22945.43
874.853	23468.74
875.23	22491.11
875.608	23429.83
875.986	25334.56
876.363	24230.71
876.741	24972.08
877.118	24345.79
877.495	25532.78
877.873	25978.26
878.25	27340.59
878.627	26245.6
879.004	26611.07
879.381	26486.68
879.758	25798.64
880.135	24023.69
880.512	25396.58
880.889	24719.06
881.265	24465.62
881.642	24262.69
882.019	24672.41
882.395	24174.07
882.772	25128.98
883.148	24024.79
883.524	23921.25
883.901	23781.7
884.277	24121.92
884.653	23966.74
885.029	24672.36
885.405	27326.71
885.781	27104.42
886.157	25962.48
886.532	26262.47
886.908	26241.96
887.284	29172.29
887.659	30129.48
888.035	31054.88
888.411	31859.17
888.786	32282.2
889.161	33379.26
889.537	32753.82
889.912	33790.24
890.287	33759.34
890.662	34633.46
891.037	33989.04
891.412	31700.9
891.787	31361.68
892.162	30257.81
892.536	30949.31
892.911	29772.47
893.286	29133.66
893.66	27945.36
894.035	28658.31
894.409	31205.81
894.784	29944.07
895.158	30432.03
895.532	32229.06
895.906	33102.88
896.281	33869.08
896.655	33334.15
897.029	38100.91
897.402	39670.92
897.776	44157.77
898.15	44010.45
898.524	43513.79
898.898	44083.69
899.271	49369.63
899.645	42758.69
900.018	41085.84
900.392	42603.36
900.765	42954.22
901.138	39749.81
901.511	39159.44
901.884	35968.58
902.258	33189.1
902.631	34326.33
903.003	39522.18
903.376	35673.47
903.749	40017.45
904.122	42835.76
904.495	47177.92
904.867	47772.67
905.24	41482.01
905.612	38608.9
905.985	39497.23
906.357	41297.96
906.729	39414.02
907.102	33678.53
907.474	32394.9
907.846	32616.41
908.218	32194.91
908.59	28476.02
908.962	27557.17
909.334	29673.79
909.705	31181.55
910.077	30283.33
910.449	31533.37
910.82	32422.81
911.192	35683.34
911.563	37101.32
911.935	39707.12
912.306	39772.79
912.677	41088.88
913.048	40671.41
913.419	44142.05
913.79	44411.4
914.161	47624.42
914.532	45507.91
914.903	41817.59
915.274	39733.43
915.645	39132.47
916.015	34433.4
916.386	32820.2
916.756	34917.28
917.127	36049.13
917.497	32227.27
917.868	35093.52
918.238	33363.66
918.608	34344.63
918.978	35066.85
919.348	37122.73
919.718	38383.93
920.088	36984.06
920.458	38470.69
920.828	40492.3
921.198	38373.14
921.567	40988.37
921.937	31744.45
922.306	32036.32
922.676	34554.9
923.045	28835.57
923.415	27403.21
923.784	24948.44
924.153	25659.77
924.522	25637.15
924.891	24095.1
925.26	25817.37
925.629	25211.15
925.998	28978.8
926.367	28290.63
926.736	26953.3
927.104	32098.49
927.473	34500.9
927.842	41692.41
928.21	41255.11
928.578	43332.47
928.947	41019.18
929.315	41276.13
929.683	48418.67
930.051	48825.32
930.42	56702.72
930.788	48480.84
931.156	48143.96
931.523	45169.68
931.891	41716.38
932.259	40090.73
932.627	46476.67
932.994	65798.37
933.362	54366.89
933.729	47204.11
934.097	45158.61
934.464	38230.43
934.831	44105.78
935.199	43480.41
935.566	42138.95
935.933	42698.64
936.3	51767.72
936.667	40322.51
937.034	36349.96
937.401	35952.78
937.767	31022.31
938.134	27619.63
938.501	38950.7
938.867	41496.61
939.234	70145.79
939.6	59865.53
939.967	65998.19
940.333	44141.98
940.699	37592.33
941.065	30141.15
941.431	39562.59
941.798	38226.6
942.163	50243.36
942.529	31414.77
942.895	28935.08
943.261	18727.77
943.627	24563.54
943.992	21504.2
944.358	21528.85
944.723	21602.51
945.089	21064.48
945.454	19459.82
945.82	20734.12
946.185	19922.71
946.55	23050.97
946.915	20700.57
947.28	24276.57
947.645	21383.5
948.01	19752.99
948.375	20635.03
948.74	24746.68
949.104	28877.88
949.469	41714.08
949.834	73761.31
950.198	69960.62
950.562	41958.65
950.927	34911.67
951.291	41993.48
951.655	35766.09
952.02	33580.78
952.384	25372.58
952.748	22102.66
953.112	21552.15
953.476	18754.4
953.839	17344.75
954.203	17180.36
954.567	21488.35
954.931	33847.31
955.294	28993.91
955.658	29172.41
956.021	49668.83
956.385	84286.31
956.748	124421.39
957.111	193119.61
957.474	216607.95
957.837	243869.23
958.2	184349.44
958.563	66302.23
958.926	44848.44
959.289	68035.33
959.652	76091.63
960.015	57080.52
960.377	81905.29
960.74	93403.32
961.102	161160.47
961.465	173213.48
961.827	92922.09
962.189	178679.3
962.552	124111.77
962.914	99493.59
963.276	64552.2
963.638	53360.96
964	52865.14
964.362	35772.1
964.724	34583.07
965.085	24686.58
965.447	20259.51
965.809	23062.56
966.17	23069.88
966.532	24952.79
966.893	22888.91
967.255	20849.96
967.616	24588.07
967.977	19656.64
968.338	21459.03
968.699	17638.91
969.061	17628.87
969.421	17723.17
969.782	19894.49
970.143	16814.82
970.504	17423.47
970.865	19823
971.225	20266.92
971.586	19840.93
971.946	28313.86
972.307	24567.47
972.667	32117.7
973.027	33101.18
973.388	40184.19
973.748	27344.39
974.108	29770.82
974.468	40256.11
974.828	31030.32
975.188	23851.91
975.548	21890.91
975.907	18390.41
976.267	20611.82
976.627	17333.18
976.986	17962.48
977.346	17116.54
977.705	16471.13
978.064	14993.38
978.424	12491.77
978.783	12917.53
979.142	14778.13
979.501	14140.33
979.86	14942.84
980.219	14389.06
980.578	18571.82
980.937	20783.66
981.296	18521.29
981.654	19034.08
982.013	29628.53
982.371	38384.7
982.73	35878.56
983.088	40570.48
983.447	43452.94
983.805	62144.94
984.163	130281.34
984.521	144263.6
984.879	211573.35
985.237	-344327.12
985.595	332354.36
985.953	82611.99
986.311	47714.31
986.669	27698.79
987.026	23912.27
987.384	32116.27
987.741	33207.62
988.099	23721.9
988.456	18926.93
988.814	17742.84
989.171	15436.08
989.528	15251.63
989.885	16101.8
990.242	12768.73
990.599	15912.09
990.956	13012.61
991.313	9099.84
991.67	7478.85
992.027	7946.15
992.383	7068.78
992.74	6197.9
993.096	6500.11
993.453	6738.24
993.809	6990.42
994.165	9310.14
994.522	8552.59
994.878	9423.39
995.234	11825.41
995.59	11654.99
995.946	11011.44
996.302	12539.87
996.658	14489.25
997.013	15958.38
997.369	18905.06
997.725	24230.51
998.08	15692.82
998.436	24151.8
998.791	33442.57
999.147	33346.32
999.502	36421.42
999.857	26493.6
1000.212	43295.16
1000.567	61669
1000.922	35620.91
1001.277	22637.49
1001.632	16781.91
1001.987	21671.18
1002.342	15519.11
1002.696	12380.19
1003.051	9920.18
1003.406	11999.01
1003.76	11924.59
1004.114	11760.27
1004.469	9895.03
1004.823	8172.62
1005.177	8828.53
1005.531	7000.01
1005.885	6199.76
1006.239	7003.56
1006.593	8796.54
1006.947	11762.23
1007.301	8844.15
1007.655	9632.56
1008.008	7058.95
1008.362	7922.59
1008.715	11308.78
1009.069	10259.07
1009.422	15441.14
1009.776	30918.26
1010.129	20502.99
1010.482	17137.04
1010.835	14472.69
1011.188	30111.4
1011.541	28417.36
1011.894	-174412.08
1012.247	514078.01
1012.6	34996.1
1012.952	22076.35
1013.305	11353.25
1013.657	8207.89
1014.01	7777.34
1014.362	6400.25
1014.715	5683.31
1015.067	4944.11
1015.419	4837.39
1015.771	4284.04
1016.123	3816
1016.475	3924.58
1016.827	4174.86
1017.179	4483.24
1017.531	4511.08
1017.883	4608.6
1018.234	4458.16
1018.586	5661.73
1018.938	6019.29
1019.289	8269.53
1019.64	9425.11
1019.992	8755.87
1020.343	8041.75
1020.694	6385.09
1021.045	5666.75
1021.396	6477.16
1021.747	6975.59
1022.098	8380.57
1022.449	6034.88
1022.8	5596.98
1023.151	3917.33
1023.501	3484.47
1023.852	3793.63
1024.202	3944.27
1024.553	4320.85
1024.903	4211.01
1025.253	3603.82
1025.604	3258.01
1025.954	4033.37
1026.304	4928.75
1026.654	5713.13
1027.004	8348.44
1027.354	13466.18
1027.703	12701.9
1028.053	16648.09
1028.403	24305.85
1028.753	35223.13
1029.102	47540.87
1029.452	240485.33
1029.801	10317.57
1030.15	6637.54
1030.499	5618.84
897.758	2954.55
901.051	2921.13
904.343	2956.61
907.636	2952.78
910.928	3021.13
914.22	2925.03
917.511	2936.17
920.803	3009.45
924.094	3042.71
927.384	3007.26
930.675	2971.85
933.965	2917.97
937.255	2920.61
940.544	2890.01
943.834	2790.65
947.123	2740.12
950.411	2838.99
953.7	2805.47
956.988	2764.92
960.276	2706.55
963.563	2806.69
966.851	2794.84
970.138	2862.54
973.424	2848.57
976.711	2797.48
979.997	2982.96
983.283	3009.09
986.568	2901.28
989.853	2932.15
993.138	2960.98
996.423	3043.57
999.708	2967.24
1002.992	3057.81
1006.275	2843.44
1009.559	2914.89
1012.842	3043.32
1016.125	2962.88
1019.408	2940.82
1022.69	3046.61
1025.972	3059.36
1029.254	3032.87
1032.536	2946.26
1035.817	2986.19
1039.098	2904.01
1042.379	3108.3
1045.659	3090.08
1048.939	3007.74
1052.219	3037.28
1055.498	3059.23
1058.778	3037.38
1062.057	3025.18
1065.335	3044.33
1068.614	3072.47
1071.892	3044.61
1075.17	3137.54
1078.447	3118.21
1081.724	3104.02
1085.001	3148.43
1088.278	3121.72
1091.554	3137.5
1094.83	3136.24
1098.106	3162.28
1101.382	3214.87
1104.657	3212.07
1107.932	3208.71
1111.206	3166.61
1114.481	3125.27
1117.755	3129.37
1121.029	3102.84
1124.302	3153.93
1127.575	3096.9
1130.848	3079.29
1134.121	3031.8
1137.393	2974.57
1140.665	3051.2
1143.937	3020.37
1147.208	2980.85
1150.48	3010.67
1153.75	2995.32
1157.021	3042.21
1160.291	3006.19
1163.561	3051.18
1166.831	3050.91
1170.101	3090.77
1173.37	3069.64
1176.639	3002.7
1179.907	3073.48
1183.176	3074.18
1186.444	3086.85
1189.711	3117.61
1192.979	3124.58
1196.246	3082.27
1199.513	3101.18
1202.78	3094.14
1206.046	3101.71
1209.312	3129.09
1212.578	3160.35
1215.843	3100.42
1219.108	3078.04
1222.373	3101.27
1225.638	3058.14
1228.902	3039.55
1232.166	3008.02
1235.43	2986.64
1238.693	3011.93
1241.956	3010.59
1245.219	3047.33
1248.482	3042.33
1251.744	3038.24
1255.006	3207.09
1258.268	3165.52
1261.529	3101.57
1264.79	3108.19
1268.051	3222.97
1271.312	3242.84
1274.572	3200.47
1277.832	3192.4
1281.092	3186.7
1284.351	3148.57
1287.61	3121.26
1290.869	3022.51
1294.128	2986.2
1297.386	3102.29
1300.644	3089.51
1303.902	3099.15
1307.159	2948.8
1310.416	3006.52
1313.673	3028.65
1316.93	3006.82
1320.186	3066
1323.442	3114.6
1326.697	3097.65
1329.953	3099.82
1333.208	3115.78
1336.463	3097.62
1339.717	3022.09
1342.972	3162.87
1346.226	3143.41
1349.479	3064.62
1352.733	3026.96
1355.986	3060.15
1359.238	3034.76
1362.491	3034.52
1365.743	3038.68
1368.995	3034.85
1372.247	3052.06
1375.498	3081.35
1378.749	3095.98
1382	3051.41
1385.251	3113.46
1388.501	3081.22
1391.751	3055.48
1395	3032.77
1398.25	3067.69
1401.499	3068.57
1404.748	2982.16
1407.996	2956.53
1411.244	2938.7
1414.492	2912.41
1417.74	2889.87
1420.987	2906.51
1424.234	2961.18
1427.481	2948.15
1430.728	3003.08
1433.974	2980.61
1437.22	3001.13
1440.465	3007.18
1443.711	2968.71
1446.956	3012.3
1450.201	3014.23
1453.445	3055.48
1456.689	3031.43
1459.933	3046.59
1463.177	3077.72
1466.42	3048.81
1469.663	3026.61
1472.906	3011.1
1476.148	3121.03
1479.391	3042.25
1482.633	3020.66
1485.874	3022.85
1489.115	3003.76
1492.356	3014.41
1495.597	2987.94
1498.838	2995.61
1502.078	2954.79
1505.318	2890.84
1508.557	2940.85
1511.797	2887.78
1515.036	3012.52
1518.274	2996.44
1521.513	2972.55
1524.751	3001.39
1527.989	3013.93
1531.227	3023.47
1534.464	3008.26
1537.701	3043.23
1540.938	3068.22
1544.174	3019.71
1547.41	3022.5
1550.646	3061.03
1553.882	3093.09
1557.117	3148.63
1560.352	3167.7
1563.587	3117.87
1566.821	3072.86
1570.055	3120.17
1573.289	3086.42
1576.523	3170.27
1579.756	3176.77
1582.989	3197.72
1586.222	3154.03
1589.454	3197.12
1592.686	3164.65
1595.918	3188.18
1599.15	3173.35
1602.381	3267.45
1605.612	3207.82
1608.843	3309.1
1612.073	3213.99
1615.303	3193.6
1618.533	3179.04
1621.762	3189.48
1624.992	3180.91
1628.221	3159.83
1631.449	3144.74
1634.678	3216.88
1637.906	3164.27
1641.134	3209.39
1644.361	3157.28
1647.588	3147.65
1650.815	3160.49
1654.042	3145.78
1657.269	3177.77
1660.495	3126.65
1663.72	3109.58
1666.946	3080.69
1670.171	3003.7
1673.396	2979.09
1676.621	2969.82
1679.845	3006.72
1683.069	3035.81
1686.293	3090.97
1689.517	3050.25
1692.74	2961.56
1695.963	2988.12
1699.185	3046.11
1702.408	3009.15
1705.63	3060.4
1708.852	3067.64
1712.073	3040.6
1715.294	3010.06
1718.515	3080.46
1721.736	3016.13
1724.956	3017.89
1728.176	3047.46
1731.396	3071.71
1734.616	3062.08
1737.835	3085.75
1741.054	3064.3
1744.272	3060.49
1747.491	3087.74
1750.709	3159.07
1753.927	3035.63
1757.144	3093.76
1760.361	3130.13
1763.578	3133.9
1766.795	3066.44
1770.011	3079.63
1773.227	3129.72
1776.443	3168.22
1779.658	3213.54
1782.874	3155.72
1786.089	3124.71
1789.303	3129.35
1792.518	3137.52
1795.732	3124.8
1798.945	3128.68
1802.159	3185.31
1805.372	3063.86
1808.585	3044.95
1811.797	3047.33
1815.01	3110.69
1818.222	3113.73
1821.434	3037.76
1824.645	3119.05
1827.856	3089.49
1831.067	3127.91
1834.278	3095.3
1837.488	3080.16
1840.698	3251.06
1843.908	3160.31
1847.117	3115.56
1850.326	2972.19
1853.535	3094.37
1856.744	3169.62
1859.952	3065.66
1863.16	3066.83
1866.368	3092.62
1869.575	3194.65
1872.782	3075.54
1875.989	3012.34
1879.196	3120.54
1882.402	3113.87
1885.608	3159.7
1888.814	3038.81
1892.019	2926.54
1895.224	2977.97
1898.429	2962.86
1901.634	2936.21
1904.838	2915.53
1908.042	2963.73
1911.246	2967.72
1914.449	2877.16
1917.652	2884.77
1920.855	2865.8
1924.058	2932.28
1927.26	2961.23
1930.462	2994.89
1933.664	3018.09
1936.865	2948.32
1940.066	2949.81
1943.267	2897.48
1946.467	2919.99
1949.668	2950.87
1952.868	3018.45
1956.067	2989.37
1959.267	2910.59
1962.466	2942.73
1965.665	2930.11
1968.863	2926.91
1972.061	2950.82
1975.259	2956.44
1978.457	3040.26
1981.654	2991.29
1984.852	2993.17
1988.048	2911.93
1991.245	2922.59
1994.441	3010.03
1997.637	3009.7
2000.833	2989.1
2004.028	3032.08
2007.223	3082.67
2010.418	3052.33
2013.613	3017.57
2016.807	2974.36
2020.001	2988.3
2023.194	3048.79
2026.388	3018.9
2029.581	2963.84
2032.774	3004.8
2035.966	3007.34
2039.158	2927.15
2042.35	2959.73
2045.542	2887.62
2048.733	2999.17
2051.924	3041.16
2055.115	3076.73
2058.306	3002.41
2061.496	3069.58
2064.686	3143.74
2067.875	3061.16
2071.065	3083.72
2074.254	3117.43
2077.442	3066.13
2080.631	3163.25
2083.819	3029.93
2087.007	3000.61
2090.195	2964.99
2093.382	3011.78
2096.569	2987.04
2099.756	2934.19
2102.942	2946.82
2106.128	2945.23
2109.314	2936.96
2112.5	2887.89
2115.685	2866.51
2118.87	2879.52
2122.055	2952.51
2125.239	2907.29
2128.424	2869.56
2131.608	3005.02
2134.791	2982.24
2137.974	3055.36
2141.157	3038.75
2144.34	2978.61
2147.523	3006.93
2150.705	3011.92
2153.887	2995.33
2157.068	2931.06
2160.25	2945.63
2163.431	2996.82
2166.611	2923.81
2169.792	2940.3
2172.972	2818.27
2176.152	2913.09
2179.331	2955.59
2182.511	2928.5
2185.69	2960.47
2188.868	2949.57
2192.047	3021.1
2195.225	2996.93
2198.403	2944.22
2201.58	2938.65
2204.758	2937.01
2207.935	3028.25
2211.111	2901.86
2214.288	2880.97
2217.464	2921.43
2220.64	2901.07
2223.815	2962.83
2226.991	2874.59
2230.166	2896.85
2233.34	2918.84
2236.515	2951.68
2239.689	3032.35
2242.863	2971.45
2246.036	3029.13
2249.209	3040.13
2252.382	3083.41
2255.555	3060.12
2258.727	2986.76
2261.9	3031.02
2265.071	3024.03
2268.243	3030.05
2271.414	2951.3
2274.585	2900.18
2277.756	2971.68
2280.926	2926.67
2284.096	2974.06
2287.266	2869.21
2290.436	2931.83
2293.605	2965.9
2296.774	2991.96
2299.942	3025.07
2303.111	3041.14
2306.279	3085.08
2309.447	3071.91
2312.614	3049.46
2315.781	3066.01
2318.948	3030.12
2322.115	3069
2325.281	2969.2
2328.447	2999.28
2331.613	2975.73
2334.779	2932.55
2337.944	2945.25
2341.109	2941.27
2344.274	2918.64
2347.438	2882.28
2350.602	2910.64
2353.766	2930.26
2356.929	2912.98
2360.092	2957.71
2363.255	2896.85
2366.418	2811.44
2369.58	2955.06
2372.742	2682.49
2375.904	2710.02
2379.066	2681.15
2382.227	2725.86
2385.388	2685.33
2388.548	2596.15
2391.709	2660.38
2394.869	2634.7
2398.029	2761.45
2401.188	2784.49
2404.347	2699.5
2407.506	2880.41
2410.665	2904.68
2413.823	2923.3
2416.981	2863.11
2420.139	2907.97
2423.296	2961.88
2426.453	2937.12
2429.61	2961.98
2432.767	2873.82
2435.923	2913.94
2439.079	2842.99
2442.235	2907.45
2445.391	2823.38
2448.546	2840.35
2451.701	2904.45
2454.855	2858.55
2458.009	2928.68
2461.163	2937.8
2464.317	2889.78
2467.471	2926.58
2470.624	2972.44
2473.777	2970.39
2476.929	2979.77
2480.082	3006.95
2483.234	2967.97
2486.385	2893.73
2489.537	2886.25
2492.688	2830.4
2495.839	2847.1
2498.989	2854.34
2502.14	2835.36
2505.29	2808.64
2508.439	2842.75
2511.589	2752.47
2514.738	2773.71
2517.887	2809.66
2521.035	2903.85
2524.183	2897.73
2527.331	2872.34
2530.479	2835.19
2533.627	2850.15
