Data from N_3_DEC_OH_4N_Splice17_13-27-17-407.txt Node
Date: Sat Mar 14 13:27:17 EDT 2020
User: sa697716
Spectrometer: FLMS03696
Trigger mode: 0
Integration Time (sec): 3.180400E-1
Scans to average: 20
Electric dark correction enabled: true
Nonlinearity correction enabled: true
Boxcar width: 5
XAxis mode: Wavelengths
Number of Pixels in Spectrum: 2048
>>>>>Begin Spectral Data<<<<<
187.83	-387626.71
188.298	2664.9
188.766	1504.7
189.233	1368.48
189.701	1926.49
190.169	2613.85
190.636	946.71
191.104	752.61
191.571	100.53
192.039	-92.05
192.506	-75.01
192.974	515.5
193.441	-1095.79
193.908	-312.93
194.375	-52.66
194.842	45.76
195.31	170.82
195.777	184.37
196.244	447
196.711	513.67
197.177	654.14
197.644	921.15
198.111	1585.28
198.578	2235.57
199.045	1808.02
199.511	2922.41
199.978	3369.42
200.445	2864.3
200.911	3142.61
201.378	3473.55
201.844	3151.24
202.31	5337.17
202.777	5571.07
203.243	3102.64
203.709	2941.27
204.176	3480.05
204.642	2883.33
205.108	2698.9
205.574	2191.29
206.04	1996.28
206.506	1874.83
206.972	1770.85
207.438	1714.48
207.903	1942.68
208.369	1688.29
208.835	1689.2
209.301	1764.64
209.766	1791.03
210.232	1769.81
210.697	2177.01
211.163	2691.54
211.628	4024.14
212.094	3358.1
212.559	4146.74
213.024	2587.12
213.49	3166.35
213.955	3084.26
214.42	3030.83
214.885	2818.58
215.35	2703.14
215.815	2629.29
216.28	2792.44
216.745	2287.63
217.21	2479.67
217.675	2250.42
218.14	2523.43
218.604	2813.97
219.069	3188.12
219.534	3342.77
219.998	3878.04
220.463	4699
220.927	5740.55
221.392	5395.17
221.856	5457.61
222.32	6848.37
222.785	8493.39
223.249	10680.93
223.713	11890.35
224.177	11901.45
224.642	15227.06
225.106	18738.27
225.57	20468.91
226.034	15251.47
226.497	23218.31
226.961	20928.91
227.425	24424.92
227.889	27019.41
228.353	27017
228.816	55818.65
229.28	53393.87
229.744	45018.05
230.207	27344.24
230.671	26856.88
231.134	44282.86
231.597	50993.34
232.061	50924.6
232.524	49542.38
232.987	34067.34
233.45	30605.85
233.914	27408.58
234.377	28037.1
234.84	25623.21
235.303	30157.75
235.766	33577.79
236.229	34618.04
236.691	21779.85
237.154	24449.22
237.617	18382.73
238.08	18817.16
238.542	21994.2
239.005	15703.1
239.468	15576.73
239.93	14666.98
240.393	13325.66
240.855	11698.78
241.317	11985.55
241.78	14529.87
242.242	15020.39
242.704	16191.46
243.166	14078.78
243.629	12785.11
244.091	14734
244.553	16134.08
245.015	17324.65
245.477	22363.74
245.939	32751.26
246.4	34723.11
246.862	33795.27
247.324	31811.73
247.786	35591.21
248.247	46615.5
248.709	48086.4
249.17	35913.84
249.632	33852.12
250.093	39262.77
250.555	33913.92
251.016	20663.45
251.477	19595.49
251.939	21145.83
252.4	22190.77
252.861	26331.4
253.322	24509.51
253.783	29137.39
254.244	37763.32
254.705	29704.4
255.166	26355.67
255.627	25902.04
256.088	36483.12
256.549	38683.56
257.009	33255.75
257.47	40240.31
257.931	32790.66
258.391	24548.5
258.852	25290.53
259.312	26465.42
259.773	32645.11
260.233	27591.55
260.694	23282.43
261.154	26400.81
261.614	21186.63
262.074	18927.8
262.534	19664.13
262.994	18509.51
263.455	24613.5
263.915	20720.42
264.374	19499.37
264.834	21275.12
265.294	23544.15
265.754	24346.69
266.214	23010.39
266.673	21550.76
267.133	27161.72
267.593	26908.25
268.052	32873.26
268.512	28571.32
268.971	34475.25
269.431	37779.07
269.89	33796.18
270.349	50614
270.809	56453.17
271.268	50702.16
271.727	113532.13
272.186	73547.13
272.645	55160.19
273.104	39799.58
273.563	57571
274.022	45192.52
274.481	38426.3
274.94	29596.68
275.399	21983.86
275.857	25555.64
276.316	34569.91
276.775	30775.77
277.233	30284.46
277.692	28351.76
278.15	32051.58
278.609	32994.06
279.067	30527.97
279.525	28364.95
279.984	36624.1
280.442	44017.7
280.9	43421.37
281.358	28572.94
281.816	26627.64
282.274	26069.7
282.732	26907.45
283.19	27040.58
283.648	23313.24
284.106	24833.04
284.564	25274.15
285.021	23442.59
285.479	17464.75
285.937	15889.49
286.394	13961.07
286.852	14364.81
287.309	15122.69
287.767	14644.91
288.224	13944.94
288.682	15315.89
289.139	16820.19
289.596	15388.29
290.053	15988.77
290.511	20168.7
290.968	24462.25
291.425	33143.43
291.882	27588.92
292.339	24003.51
292.796	23785.44
293.252	22391.41
293.709	17783.04
294.166	15934.62
294.623	17591.24
295.079	16860.48
295.536	16941.99
295.992	15379.44
296.449	15218.91
296.905	15825.85
297.362	15180.24
297.818	15952.16
298.274	16561.49
298.731	16877.94
299.187	16680.56
299.643	17901.52
300.099	21672.86
300.555	23741.48
301.011	19842.7
301.467	19141.34
301.923	22352.44
302.379	21798.99
302.835	21416.76
303.291	21441.89
303.746	24398.29
304.202	30851.4
304.658	30996.18
305.113	20864.49
305.569	20467.68
306.024	21788.49
306.479	20718.74
306.935	17498.56
307.39	19127.12
307.845	17671.81
308.301	17802.27
308.756	17339.12
309.211	16712.89
309.666	17124.65
310.121	21268.49
310.576	21590.01
311.031	21435.74
311.486	24516.13
311.94	24493.54
312.395	32715.81
312.85	61461.83
313.305	301217.85
313.759	1563361.8
314.214	113252.25
314.668	89913.83
315.123	75531.33
315.577	27101.08
316.032	24112.29
316.486	30264.24
316.94	23892.46
317.394	16657.69
317.849	12959.69
318.303	12285.65
318.757	11563.29
319.211	12772.83
319.665	11167.82
320.119	11290.71
320.572	16173.46
321.026	15104.79
321.48	12568.66
321.934	13666.01
322.387	13676.63
322.841	14771.73
323.295	13277.75
323.748	15264.58
324.202	15477.37
324.655	18585.66
325.108	26028.26
325.562	18390.31
326.015	21811.14
326.468	16452.51
326.921	18395.52
327.374	17143.69
327.827	17840.79
328.28	20187.88
328.733	13557.9
329.186	11911.82
329.639	11339.15
330.092	9549.09
330.545	9100.5
330.997	9199.82
331.45	10079.63
331.903	11826.73
332.355	20344.13
332.808	19762.19
333.26	16299.73
333.713	17722.37
334.165	17843.06
334.617	23847.1
335.069	19231.29
335.522	34707.44
335.974	38373.4
336.426	34998.35
336.878	24240.87
337.33	12316.08
337.782	12028.79
338.234	15084.95
338.686	18006.67
339.137	21375.87
339.589	20120.85
340.041	15774.08
340.493	13573.31
340.944	13908.79
341.396	15014.83
341.847	12631.41
342.299	14890.73
342.75	18190.14
343.201	15825.01
343.653	18167.68
344.104	22285.16
344.555	17495.45
345.006	27213.82
345.457	20852.59
345.908	16548.59
346.359	15579.4
346.81	12695.47
347.261	13354.29
347.712	13127.62
348.163	14073.78
348.613	14274.89
349.064	13326.07
349.515	11698.92
349.965	12003.84
350.416	14438.5
350.866	15845.62
351.317	17834.09
351.767	29482.17
352.217	37210.8
352.668	30857.06
353.118	28296.97
353.568	27246.13
354.018	21585.4
354.468	22726.69
354.918	16293.74
355.368	14255.83
355.818	20162.02
356.268	58116.68
356.718	243785.5
357.168	60777.76
357.617	30503.28
358.067	33950.67
358.517	31834.5
358.966	37284.68
359.416	41916.06
359.865	45379.43
360.315	54001.35
360.764	25218.31
361.213	14105.88
361.663	13324.02
362.112	16404.57
362.561	26487.23
363.01	19973.96
363.459	16819.83
363.908	18165.45
364.357	15400.1
364.806	25955.53
365.255	17858.66
365.703	16355.21
366.152	16370.38
366.601	13292.33
367.05	10802.68
367.498	9814.21
367.947	10224.54
368.395	10609.48
368.844	9404.45
369.292	11294.54
369.74	7797.95
370.189	11916.28
370.637	13935.27
371.085	12046.44
371.533	14612.47
371.981	14068.98
372.429	13419.72
372.877	13982.03
373.325	11719.6
373.773	11960.88
374.221	10651
374.669	13229.24
375.116	11436.02
375.564	11528.63
376.012	12833.98
376.459	10579.03
376.907	12651.64
377.354	15277.49
377.801	14245.37
378.249	16302.26
378.696	20771.32
379.143	25125.09
379.591	26674.15
380.038	45069.21
380.485	32541.76
380.932	35219.4
381.379	32261.06
381.826	23705.24
382.273	16806.12
382.72	14637.72
383.166	14254.89
383.613	9220.03
384.06	8287.59
384.506	9596.99
384.953	7014.43
385.4	7028.58
385.846	6129.34
386.292	5949.46
386.739	5814.88
387.185	5740.5
387.631	5737.91
388.078	5571.94
388.524	5947.4
388.97	5496.54
389.416	4571.34
389.862	4867.19
390.308	4613.06
390.754	4685.1
391.2	5095.07
391.645	5195.54
392.091	4995.46
392.537	4833.47
392.983	4819.44
393.428	4766.29
393.874	5096.4
394.319	5132.26
394.765	4894.19
395.21	5050.67
395.655	4747.2
396.101	4447.35
396.546	4034.87
396.991	4061.36
397.436	3782.82
397.881	3681.81
398.326	3485.57
398.771	3330.94
399.216	2922.27
399.661	2635.63
400.106	2643.29
400.551	2731.29
400.995	2461.51
401.44	2447.69
401.885	2318.27
402.329	2362.65
402.774	2280.84
403.218	2229.54
403.663	2157.24
404.107	2235.01
404.551	2272.03
404.995	2094.71
405.44	2023.09
405.884	2066.24
406.328	2013.72
406.772	2020.73
407.216	1850.17
407.66	1798.47
408.104	1717.04
408.547	1616.92
408.991	1577
409.435	1521.93
409.879	1508.29
410.322	1503.37
410.766	1464.04
411.209	1402.19
411.653	1354.51
412.096	1336.68
412.54	1345.74
412.983	1346.55
413.426	1360.96
413.869	1365.17
414.312	1349.16
414.756	1308.49
415.199	1250.2
415.642	1223.89
416.085	1231.38
416.527	1225.2
416.97	1249.8
417.413	1191.7
417.856	1181.02
418.298	1172.94
418.741	1165.94
419.184	1168.09
419.626	1218.04
420.069	1223.59
420.511	1228.33
420.953	1203.66
421.396	1196.97
421.838	1167.85
422.28	1195.99
422.722	1206.01
423.164	1223.77
423.606	1207.82
424.048	1205.23
424.49	1145.84
424.932	1140.55
425.374	1124.98
425.816	1147.32
426.258	1168.71
426.699	1181.84
427.141	1164.92
427.582	1181.72
428.024	1176.55
428.465	1168.64
428.907	1140.07
429.348	1129.24
429.789	1129.17
430.231	1105.91
430.672	1119.17
431.113	1093.74
431.554	1078.7
431.995	1051.01
432.436	1013.78
432.877	990.88
433.318	975.06
433.759	972.03
434.2	970.67
434.64	961.56
435.081	965.81
435.522	917.44
435.962	884.19
436.403	864.5
436.843	878.35
437.284	863.37
437.724	842.01
438.164	844.73
438.604	828.57
439.045	798.97
439.485	768.79
439.925	754.54
440.365	737.24
440.805	731.65
441.245	727.82
441.685	702.95
442.125	699.28
442.564	707.08
443.004	694.6
443.444	696.78
443.883	703.73
444.323	702.08
444.762	708.68
445.202	723.12
445.641	740.02
446.081	740.18
446.52	752.28
446.959	749.21
447.398	737.51
447.837	733.04
448.276	724.15
448.716	735.57
449.154	747.38
449.593	734.83
450.032	737.2
450.471	729.55
450.91	733.3
451.349	734.82
451.787	736.9
452.226	750.47
452.664	754.46
453.103	759.06
453.541	761.11
453.98	762.8
454.418	769.23
454.856	758.17
455.295	758.12
455.733	765.89
456.171	769.96
456.609	769.42
457.047	770.3
457.485	781.91
457.923	783.44
458.361	771.75
458.798	772.64
459.236	769.45
459.674	774.66
460.111	775.8
460.549	767.56
460.987	765.63
461.424	763.64
461.862	757.75
462.299	746.42
462.736	743.91
463.173	746.59
463.611	738.46
464.048	737.23
464.485	742.32
464.922	734.63
465.359	728.51
465.796	719.34
466.233	713.9
466.67	707.62
467.106	704.87
467.543	698.28
467.98	688.07
468.416	670.91
468.853	665.15
469.29	644.77
469.726	638.82
470.162	624.88
470.599	616.99
471.035	612.33
471.471	599.61
471.907	596.66
472.344	595.6
472.78	599.04
473.216	608.26
473.652	603.78
474.088	604.37
474.523	605.27
474.959	611.15
475.395	606.77
475.831	604.82
476.266	608.99
476.702	608.58
477.138	602.13
477.573	601.82
478.008	601.17
478.444	605.51
478.879	612.25
479.314	616.24
479.75	617.55
480.185	621.69
480.62	628.68
481.055	632.2
481.49	638.28
481.925	649.36
482.36	662.53
482.795	681.99
483.229	701.35
483.664	717.75
484.099	721.29
484.534	734.03
484.968	743.14
485.403	747.01
485.837	748.17
486.271	748.78
486.706	751.01
487.14	744.12
487.574	733.89
488.009	728.68
488.443	724.27
488.877	733.85
489.311	738.89
489.745	750.89
490.179	759.79
490.613	777.1
491.046	786.85
491.48	795.61
491.914	800.61
492.348	810.37
492.781	820.11
493.215	826.09
493.648	832.05
494.082	842.13
494.515	846.32
494.948	861.44
495.382	871.92
495.815	882.52
496.248	895.81
496.681	916.67
497.114	936.79
497.547	954.97
497.98	977.65
498.413	991.32
498.846	1009.73
499.279	1027.11
499.711	1039.26
500.144	1048.29
500.577	1068.01
501.009	1088.23
501.442	1107.3
501.874	1114.51
502.306	1123.52
502.739	1138.88
503.171	1164.93
503.603	1175.35
504.036	1193.13
504.468	1205.26
504.9	1225.99
505.332	1241.21
505.764	1250.44
506.196	1264.38
506.627	1289.02
507.059	1311.57
507.491	1327.87
507.923	1328.77
508.354	1352.08
508.786	1370.06
509.217	1398.33
509.649	1421.7
510.08	1449.28
510.512	1474.96
510.943	1497.29
511.374	1513.36
511.805	1542.66
512.237	1571.04
512.668	1616.13
513.099	1656.02
513.53	1694.25
513.961	1720.9
514.391	1764.17
514.822	1808
515.253	1856.48
515.684	1889.18
516.114	1928.4
516.545	1952.77
516.975	1985.47
517.406	2007.07
517.836	2004.49
518.267	2007.89
518.697	2027.9
519.127	2029.08
519.558	2033.98
519.988	2034.03
520.418	2043.15
520.848	2062.25
521.278	2070.3
521.708	2084.46
522.138	2096.34
522.567	2133.85
522.997	2163.53
523.427	2180.23
523.857	2199.03
524.286	2209.18
524.716	2223.73
525.145	2245.46
525.575	2255.3
526.004	2268.75
526.433	2257.72
526.863	2254.05
527.292	2236.1
527.721	2239.3
528.15	2243.5
528.579	2238.55
529.008	2248.91
529.437	2277.19
529.866	2291.96
530.295	2310.78
530.724	2324.47
531.152	2358.14
531.581	2373.86
532.01	2395.46
532.438	2404.34
532.867	2419.38
533.295	2442.16
533.723	2447.35
534.152	2441.36
534.58	2438.56
535.008	2417.78
535.436	2417.9
535.865	2425.98
536.293	2441.59
536.721	2459.17
537.149	2491.12
537.576	2492.95
538.004	2508.29
538.432	2517.07
538.86	2512.79
539.287	2518.49
539.715	2532.47
540.143	2536.09
540.57	2528.41
540.998	2522.47
541.425	2491.15
541.852	2461.49
542.28	2457.56
542.707	2433.86
543.134	2414.17
543.561	2408.81
543.988	2399.4
544.415	2397.95
544.842	2389.27
545.269	2380.31
545.696	2383.44
546.123	2400.54
546.549	2385.17
546.976	2369.46
547.403	2368.51
547.829	2372.53
548.256	2374.58
548.682	2369.89
549.108	2361.18
549.535	2360.81
549.961	2363.51
550.387	2344.68
550.813	2338.57
551.24	2349.27
551.666	2351.06
552.092	2340.88
552.518	2332.33
552.943	2325.76
553.369	2336.73
553.795	2343.93
554.221	2346.53
554.646	2344.48
555.072	2360.92
555.498	2368.89
555.923	2383.41
556.349	2406.58
556.774	2419.83
557.199	2424.37
557.625	2434.12
558.05	2429.15
558.475	2447.01
558.9	2449.21
559.325	2440.55
559.75	2435.99
560.175	2429.79
560.6	2423.69
561.025	2424.31
561.449	2428.81
561.874	2439.78
562.299	2449.55
562.723	2462.81
563.148	2453.21
563.572	2462.63
563.997	2481.31
564.421	2493.18
564.846	2498.58
565.27	2506.61
565.694	2506.68
566.118	2528.28
566.542	2542.69
566.966	2537.76
567.39	2536.69
567.814	2526.57
568.238	2529.14
568.662	2540.19
569.086	2547.56
569.509	2563.14
569.933	2546.14
570.357	2540.68
570.78	2514.89
571.204	2500.71
571.627	2491.16
572.05	2493.76
572.474	2497.16
572.897	2484.24
573.32	2477.84
573.743	2468.61
574.166	2445.79
574.589	2451.99
575.012	2447.05
575.435	2450.21
575.858	2443.12
576.281	2432.92
576.704	2414.64
577.126	2402.71
577.549	2391.07
577.972	2382.2
578.394	2372.64
578.817	2368.02
579.239	2345.8
579.661	2329.94
580.084	2311.09
580.506	2295.48
580.928	2293.2
581.35	2279.88
581.772	2277.37
582.194	2263.23
582.616	2248.11
583.038	2230.6
583.46	2218.3
583.882	2215.94
584.303	2224.47
584.725	2221.3
585.147	2225.83
585.568	2244.23
585.99	2265.1
586.411	2276.26
586.833	2299.48
587.254	2302.33
587.675	2325.38
588.096	2345.54
588.518	2340.83
588.939	2318.73
589.36	2317.59
589.781	2305.25
590.202	2262.11
590.623	2250.18
591.043	2248.85
591.464	2231.57
591.885	2228.36
592.305	2220.45
592.726	2201.43
593.147	2205.05
593.567	2196.77
593.987	2187.31
594.408	2179.3
594.828	2179.01
595.248	2171.3
595.669	2143.37
596.089	2133.07
596.509	2124.28
596.929	2105.56
597.349	2105.82
597.769	2090.56
598.189	2083.29
598.608	2084.63
599.028	2089.48
599.448	2091.71
599.867	2073.35
600.287	2068.12
600.706	2064.11
601.126	2050.78
601.545	2048.17
601.965	2049.22
602.384	2043.07
602.803	2048.02
603.222	2043.2
603.641	2035.03
604.061	2029.08
604.48	2024.91
604.898	2038.13
605.317	2047.08
605.736	2052.89
606.155	2052.84
606.574	2040.39
606.992	2050.85
607.411	2046.56
607.829	2035.56
608.248	2033.93
608.666	2033.93
609.085	2035.4
609.503	2026.94
609.921	2019.61
610.339	2024.65
610.758	2026.53
611.176	2023.35
611.594	2011.68
612.012	2009.25
612.43	2018.91
612.847	2031.02
613.265	2035.61
613.683	2045.32
614.101	2049.89
614.518	2047.28
614.936	2034.82
615.353	2014.47
615.771	2012.27
616.188	2015.5
616.606	2011.39
617.023	2001.42
617.44	1981.19
617.857	1972.55
618.274	1961.22
618.691	1953.05
619.108	1940.03
619.525	1932.15
619.942	1944.49
620.359	1949.21
620.776	1941.91
621.192	1937.31
621.609	1935.94
622.026	1947.59
622.442	1957.18
622.859	1965.37
623.275	1955.58
623.691	1965.48
624.108	1984.87
624.524	2007.54
624.94	2008.69
625.356	2025.51
625.772	2046.85
626.188	2065.83
626.604	2068.22
627.02	2063.02
627.436	2057.41
627.852	2067.91
628.268	2086.62
628.683	2072.23
629.099	2058.28
629.514	2051.34
629.93	2057.75
630.345	2064.01
630.761	2057.25
631.176	2061.62
631.591	2051.08
632.007	2041.99
632.422	2037.85
632.837	2019.9
633.252	2014.69
633.667	1998.2
634.082	1983
634.497	1960.76
634.911	1929.46
635.326	1923.12
635.741	1896.18
636.155	1880.06
636.57	1880.76
636.984	1879.29
637.399	1880.48
637.813	1877.07
638.228	1874.15
638.642	1878.16
639.056	1861.13
639.47	1858.96
639.884	1843.69
640.298	1831.1
640.712	1826.19
641.126	1804.8
641.54	1789.16
641.954	1778.19
642.368	1757.97
642.781	1741.71
643.195	1712.4
643.609	1710.18
644.022	1698.77
644.436	1689.62
644.849	1669.94
645.262	1650.06
645.676	1650
646.089	1641.06
646.502	1616.13
646.915	1606.21
647.328	1579.41
647.741	1574.5
648.154	1554.18
648.567	1548.53
648.98	1528.38
649.393	1527.22
649.805	1521.47
650.218	1508.62
650.631	1483.74
651.043	1474.26
651.456	1464.67
651.868	1465.32
652.28	1490.46
652.693	1510.07
653.105	1520
653.517	1532
653.929	1531.68
654.341	1539.02
654.753	1521.25
655.165	1530.82
655.577	1526.29
655.989	1519.06
656.401	1507.44
656.813	1452.78
657.224	1420.93
657.636	1377.19
658.047	1350.07
658.459	1320.33
658.87	1304.55
659.282	1284.62
659.693	1249.71
660.104	1224.88
660.515	1201.61
660.926	1192.94
661.338	1183.11
661.749	1169
662.159	1150.46
662.57	1138.47
662.981	1125.4
663.392	1107.85
663.803	1106.79
664.213	1097.14
664.624	1084.88
665.035	1081.44
665.445	1056.4
665.855	1041.63
666.266	1024.13
666.676	1013.47
667.086	994.25
667.497	986.38
667.907	972.45
668.317	953.17
668.727	943.6
669.137	938.39
669.547	929.36
669.956	927.69
670.366	922.86
670.776	920.1
671.186	919.35
671.595	919.06
672.005	918.67
672.414	914.01
672.824	909.17
673.233	908.91
673.642	906.82
674.052	907.45
674.461	906.97
674.87	910.54
675.279	906.23
675.688	906.62
676.097	906.58
676.506	902.19
676.915	918.4
677.323	922.14
677.732	921.45
678.141	923.76
678.549	913.83
678.958	915.31
679.366	918.63
679.775	928
680.183	946.66
680.592	959.88
681	974.57
681.408	974.78
681.816	995.3
682.224	1018.05
682.632	1042.23
683.04	1093.63
683.448	1140.2
683.856	1196.86
684.264	1262.22
684.671	1325.16
685.079	1400.02
685.487	1482.92
685.894	1592.05
686.302	1684.8
686.709	1764.83
687.116	1857.52
687.524	1935.86
687.931	2004.75
688.338	2063.12
688.745	2112.21
689.152	2165.04
689.559	2234.81
689.966	2296.29
690.373	2324.88
690.78	2379.9
691.187	2465.92
691.593	2526.3
692	2574.13
692.407	2650.64
692.813	2742.78
693.22	2811.55
693.626	2882.9
694.032	2929.42
694.439	3014.68
694.845	3071.78
695.251	3152.96
695.657	3221.18
696.063	3332.49
696.469	3406.12
696.875	3469.56
697.281	3491.39
697.687	3525.92
698.093	3546.56
698.498	3617.72
698.904	3667.01
699.31	3756.56
699.715	3807.62
700.12	3899.37
700.526	3893.94
700.931	3955.06
701.337	3994.7
701.742	4007.94
702.147	4085.6
702.552	4096.81
702.957	4145.04
703.362	4143.66
703.767	4153.52
704.172	4177.91
704.577	4092.04
704.981	4125.41
705.386	4122.92
705.791	4088.17
706.195	4159.05
706.6	4148.73
707.004	4222.11
707.408	4164.65
707.813	4175.62
708.217	4139.91
708.621	4120.86
709.025	4214.74
709.43	4198.22
709.834	4248.53
710.237	4312
710.641	4276.11
711.045	4285.04
711.449	4263.09
711.853	4282.18
712.256	4314.22
712.66	4342.68
713.064	4412.3
713.467	4444.8
713.87	4554.29
714.274	4589.24
714.677	4694.33
715.08	4860.73
715.484	5027.5
715.887	5233.23
716.29	5432.75
716.693	5642.05
717.096	5883.19
717.499	6007.98
717.901	6019.82
718.304	6030.66
718.707	6040.29
719.109	5915.94
719.512	5861.93
719.915	5703.55
720.317	5631.51
720.719	5663.44
721.122	5617.18
721.524	5551.33
721.926	5497.61
722.328	5588.8
722.731	5566
723.133	5586.65
723.535	5775.95
723.937	5784.34
724.338	5824.83
724.74	5850.7
725.142	5783.38
725.544	5774.86
725.945	5793.36
726.347	5778.5
726.748	5762.35
727.15	5767.37
727.551	5717.94
727.952	5679.59
728.354	5645.57
728.755	5641.06
729.156	5594.06
729.557	5564.44
729.958	5432.72
730.359	5368.97
730.76	5343.41
731.161	5277.03
731.562	5245.51
731.962	5245.02
732.363	5175.03
732.763	5104.41
733.164	5136.41
733.564	5062.73
733.965	4963.1
734.365	4925.38
734.766	4950.15
735.166	4908.27
735.566	4853.14
735.966	4826.16
736.366	4816.67
736.766	4755.77
737.166	4783.87
737.566	4739.08
737.966	4711.86
738.365	4752.56
738.765	4743.52
739.165	4668.2
739.564	4640.44
739.964	4679.61
740.363	4631.49
740.763	4628.42
741.162	4614.2
741.561	4582.4
741.96	4537.44
742.36	4556.38
742.759	4555.7
743.158	4591.66
743.557	4604.11
743.955	4640.94
744.354	4593.99
744.753	4647.58
745.152	4605.04
745.55	4655.98
745.949	4649.08
746.348	4646.35
746.746	4662.14
747.144	4622.87
747.543	4598.33
747.941	4646.25
748.339	4573.83
748.737	4567.56
749.136	4558.51
749.534	4618.49
749.932	4590.12
750.33	4610.56
750.727	4664.9
751.125	4639.64
751.523	4621.78
751.921	4663.25
752.318	4626.57
752.716	4686.5
753.113	4697.7
753.511	4721.02
753.908	4722.24
754.305	4707.12
754.703	4765.48
755.1	4823.5
755.497	4879.76
755.894	5063.59
756.291	5238.74
756.688	5557.36
757.085	5982.68
757.482	6583.62
757.878	7239.35
758.275	7827.97
758.672	8643.41
759.068	9311.36
759.465	10262.66
759.861	11490.45
760.258	12911.02
760.654	13641.75
761.05	13538.22
761.447	12918.41
761.843	12025.32
762.239	11108.95
762.635	10692.47
763.031	10293.86
763.427	9716.73
763.822	9112.8
764.218	8510.63
764.614	7734.37
765.01	7213.67
765.405	6879.16
765.801	6625.47
766.196	6301.08
766.592	6116.6
766.987	5810.91
767.382	5601.63
767.778	5513.16
768.173	5383.93
768.568	5314.04
768.963	5193.42
769.358	5212.14
769.753	5166.51
770.148	5084.92
770.542	5082.43
770.937	5051.2
771.332	5139.44
771.726	5159.16
772.121	5099.9
772.515	5151.36
772.91	5138.1
773.304	5206.61
773.699	5141.48
774.093	5193.37
774.487	5246.49
774.881	5287.94
775.275	5284.18
775.669	5243.84
776.063	5284.17
776.457	5316.44
776.851	5243.92
777.245	5235.59
777.638	5265.63
778.032	5375.75
778.425	5337.7
778.819	5375.29
779.212	5332.04
779.606	5291.64
779.999	5310.69
780.392	5293.02
780.786	5372.3
781.179	5394.85
781.572	5434.23
781.965	5448.79
782.358	5392.14
782.751	5445.12
783.143	5398.89
783.536	5470.93
783.929	5511.48
784.322	5621.41
784.714	5652.48
785.107	5651.06
785.499	5721.66
785.891	5700.99
786.284	5680.69
786.676	5820.92
787.068	5804
787.46	5857.09
787.852	5876.06
788.245	5961.93
788.636	5991.66
789.028	6057.17
789.42	6090.23
789.812	6098.92
790.204	6195.51
790.595	6293.81
790.987	6103.9
791.378	6127.84
791.77	6252.9
792.161	6388.38
792.553	6444.52
792.944	6338.16
793.335	6273.07
793.726	6348.72
794.117	6435.04
794.508	6565.34
794.899	6541.14
795.29	6681.69
795.681	6737.42
796.072	6601
796.463	6430.6
796.853	6436.73
797.244	6589.43
797.634	6623.16
798.025	6620.83
798.415	6634.19
798.806	6724.57
799.196	6807.53
799.586	6859.1
799.976	6826.4
800.366	7051.29
800.756	7273.14
801.146	7241.6
801.536	7270.22
801.926	7341.26
802.316	7371.04
802.706	7443.42
803.095	7324
803.485	7424.5
803.874	7462.88
804.264	7715.2
804.653	7692.52
805.043	7836.51
805.432	7944.33
805.821	7949.28
806.21	7977.66
806.599	8094.05
806.988	8138.13
807.377	8244.23
807.766	8371.3
808.155	8649.77
808.544	8395.76
808.933	8411.77
809.321	8396.36
809.71	8684.43
810.098	8841.09
810.487	9293.18
810.875	9758.86
811.264	9773.66
811.652	10056.4
812.04	10193.7
812.428	10354.17
812.816	11095.95
813.204	11505.54
813.592	12041.08
813.98	12369.74
814.368	12280.32
814.756	12752.18
815.144	12684.19
815.531	13141.73
815.919	13069.67
816.306	13372.97
816.694	13073.76
817.081	13132.53
817.469	13472.56
817.856	13469.84
818.243	13732.61
818.63	14112.8
819.017	13693.88
819.404	13750.84
819.791	14135.85
820.178	14733.06
820.565	14978.49
820.952	15897.53
821.339	15411.79
821.725	15586.57
822.112	14860.17
822.498	14827.85
822.885	14958.5
823.271	14870.52
823.657	15281.45
824.044	15276.75
824.43	15355.83
824.816	15321.47
825.202	14891.04
825.588	15885.8
825.974	15902.64
826.36	16408.26
826.746	16431.37
827.132	16783.63
827.517	16757.03
827.903	15984.06
828.289	16033.26
828.674	15269.6
829.06	15161.34
829.445	15537.07
829.83	15886.25
830.216	16354.44
830.601	16714.45
830.986	16315.02
831.371	16170.71
831.756	16716.21
832.141	16303.64
832.526	16288.55
832.911	16569.32
833.295	16466.76
833.68	16921.69
834.065	16312.12
834.449	15411.43
834.834	15332.83
835.218	15328.71
835.603	15668.32
835.987	15452.68
836.371	16255.02
836.755	16155.97
837.139	16536.94
837.524	16763.68
837.908	16591.22
838.291	16647.81
838.675	16717.09
839.059	16911.23
839.443	16896.32
839.827	16658.82
840.21	17122.99
840.594	16979.06
840.977	17167.25
841.361	17146.57
841.744	17507.26
842.127	17342.97
842.511	17567.72
842.894	18130.29
843.277	18501.16
843.66	19025.31
844.043	19105.12
844.426	18333.52
844.809	18025.48
845.191	18056.5
845.574	17605.16
845.957	17247.01
846.339	17145.14
846.722	16639.26
847.104	16707.08
847.487	16534.97
847.869	16541.52
848.252	16809.47
848.634	17116.87
849.016	17371.47
849.398	17487.75
849.78	18302.33
850.162	18311.25
850.544	18713
850.926	19328.18
851.307	19240.89
851.689	19522.77
852.071	19964.64
852.452	20269.02
852.834	20244
853.215	20625.56
853.597	20775.92
853.978	21058.85
854.359	21501.86
854.741	20544.69
855.122	20439.72
855.503	20164.54
855.884	20282.7
856.265	20219.12
856.646	20329.78
857.026	19959.44
857.407	19898.35
857.788	20050
858.169	20331.17
858.549	19516.84
858.93	20123.32
859.31	20172.89
859.69	20391.31
860.071	20005.98
860.451	19805
860.831	19098.43
861.211	20224.79
861.591	20753.21
861.971	20727.35
862.351	20924.38
862.731	21299.43
863.111	21557.02
863.491	21883.69
863.87	22728.73
864.25	23072.63
864.629	22684.7
865.009	23180.2
865.388	24002.16
865.768	25739.6
866.147	25648.19
866.526	24220.38
866.905	24501.74
867.284	25878.51
867.663	24590.19
868.042	23555.82
868.421	23479.25
868.8	23868.94
869.179	24114.26
869.558	22708.16
869.936	20932.29
870.315	21313.37
870.693	21839.89
871.072	23561.59
871.45	22450.74
871.828	22727.73
872.207	23900.42
872.585	23542.08
872.963	24186.14
873.341	23355.41
873.719	23085.25
874.097	22800.26
874.475	23230.22
874.853	23766.87
875.23	22782.29
875.608	23730.21
875.986	25669.49
876.363	24567.82
876.741	25316.68
877.118	24679.04
877.495	25891.09
877.873	26319.52
878.25	27694.85
878.627	26565.76
879.004	26923.55
879.381	26784.29
879.758	26081.05
880.135	24282.88
880.512	25668.33
880.889	24975.24
881.265	24714.71
881.642	24505.21
882.019	24920.12
882.395	24418.3
882.772	25379.43
883.148	24286.17
883.524	24189.81
883.901	24039.49
884.277	24394.39
884.653	24233.81
885.029	24939.84
885.405	27620.64
885.781	27407.34
886.157	26268.35
886.532	26591.35
886.908	26571.79
887.284	29530.73
887.659	30484.18
888.035	31428.29
888.411	32238.84
888.786	32648.45
889.161	33764.96
889.537	33134.21
889.912	34177.06
890.287	34133.09
890.662	34987.99
891.037	34350.52
891.412	32018.39
891.787	31684.68
892.162	30570.71
892.536	31254.31
892.911	30064.84
893.286	29418.86
893.66	28216.9
894.035	28934.89
894.409	31504.4
894.784	30234.19
895.158	30727.57
895.532	32554.44
895.906	33456.48
896.281	34249.42
896.655	33712.28
897.029	38534.17
897.402	40126.36
897.776	44673.28
898.15	44519.74
898.524	44034.1
898.898	44611.52
899.271	49933.73
899.645	43246.52
900.018	41521.71
900.392	43055.33
900.765	43397.85
901.138	40163.4
901.511	39567.41
901.884	36331.73
902.258	33520.91
902.631	34660.15
903.003	39910.92
903.376	36039.16
903.749	40425.05
904.122	43282.78
904.495	47685.64
904.867	48309.97
905.24	41938.97
905.612	39058.49
905.985	39960.73
906.357	41797.78
906.729	39889.74
907.102	34080.35
907.474	32785.81
907.846	32990.98
908.218	32573.59
908.59	28778.93
908.962	27838.8
909.334	30016.07
909.705	31537.41
910.077	30631.26
910.449	31883.62
910.82	32793.88
911.192	36104.31
911.563	37514.87
911.935	40163.06
912.306	40209.9
912.677	41544.47
913.048	41160.55
913.419	44631.3
913.79	44893.61
914.161	48137.23
914.532	46037.78
914.903	42322.8
915.274	40189.57
915.645	39616.29
916.015	34895.74
916.386	33279.33
916.756	35417.15
917.127	36537.73
917.497	32665.93
917.868	35558.73
918.238	33795.99
918.608	34772.04
918.978	35490.23
919.348	37588.45
919.718	38854.8
920.088	37411.86
920.458	38896
920.828	40949.15
921.198	38832.72
921.567	41491.18
921.937	32146.96
922.306	32470.12
922.676	35009.2
923.045	29214.04
923.415	27763.31
923.784	25285.36
924.153	26011.64
924.522	25990.82
924.891	24440.88
925.26	26170.6
925.629	25547.84
925.998	29369.29
926.367	28648.53
926.736	27283.71
927.104	32506.65
927.473	34924.46
927.842	42175.42
928.21	41764.9
928.578	43893.09
928.947	41506.17
929.315	41757.7
929.683	48994.24
930.051	49400.32
930.42	57423.87
930.788	49107.92
931.156	48736.95
931.523	45698.62
931.891	42211.8
932.259	40545.55
932.627	46968.49
932.994	66462.12
933.362	54927.28
933.729	47690.07
934.097	45627.3
934.464	38579.35
934.831	44483.54
935.199	43814.12
935.566	42491.16
935.933	43033.15
936.3	52085.46
936.667	40549.57
937.034	36569.89
937.401	36197.55
937.767	31231.91
938.134	27802.25
938.501	39247.48
938.867	41828.31
939.234	70753.36
939.6	60385.41
939.967	66650.25
940.333	44689.17
940.699	38096.95
941.065	30541.82
941.431	40007.51
941.798	38592.79
942.163	50714.59
942.529	31673.92
942.895	29163.55
943.261	18881.82
943.627	24783.1
943.992	21704.53
944.358	21719.46
944.723	21777.45
945.089	21254.21
945.454	19645
945.82	20997.86
946.185	20169.61
946.55	23384.33
946.915	20986.75
947.28	24618.22
947.645	21691.42
948.01	20000.02
948.375	20863.23
948.74	25010.29
949.104	29152.33
949.469	42134.03
949.834	74469.48
950.198	70622.41
950.562	42308.96
950.927	35273.4
951.291	42440.89
951.655	36139.14
952.02	33934.04
952.384	25673.61
952.748	22368.42
953.112	21835.27
953.476	18984.4
953.839	17558.08
954.203	17398.76
954.567	21780.51
954.931	34286.11
955.294	29368.06
955.658	29540.54
956.021	50322.03
956.385	85341.39
956.748	125970.49
957.111	195563.2
957.474	219613.94
957.837	247277.95
958.2	187000.91
958.563	67277.8
958.926	45529.93
959.289	69090.57
959.652	77227.55
960.015	57918.23
960.377	83122.55
960.74	94807.29
961.102	163735.76
961.465	176021.15
961.827	94394.54
962.189	181301.54
962.552	125784.35
962.914	100716.74
963.276	65309.68
963.638	53983.14
964	53493.5
964.362	36184.78
964.724	35012.83
965.085	24954.32
965.447	20456.74
965.809	23295.69
966.17	23318.32
966.532	25214.96
966.893	23136.32
967.255	21062.44
967.616	24879.21
967.977	19904.77
968.338	21721.3
968.699	17850.38
969.061	17842.93
969.421	17952.89
969.782	20143.61
970.143	17009.44
970.504	17640.81
970.865	20092.98
971.225	20550.59
971.586	20085.98
971.946	28658.11
972.307	24905.83
972.667	32555.57
973.027	33521.41
973.388	40702.33
973.748	27692.17
974.108	30174.87
974.468	40734.19
974.828	31396.1
975.188	24159.3
975.548	22197.2
975.907	18648.25
976.267	20899.32
976.627	17546.7
976.986	18221.31
977.346	17337.92
977.705	16682.18
978.064	15187.04
978.424	12652.89
978.783	13066.32
979.142	14917.28
979.501	14280.07
979.86	15088.92
980.219	14549.44
980.578	18785.87
980.937	21022.28
981.296	18761.45
981.654	19311.9
982.013	30058.13
982.371	39005.11
982.73	36447.37
983.088	41219.07
983.447	43978.08
983.805	62834.82
984.163	131303.49
984.521	145798.28
984.879	213530.33
985.237	-347174.05
985.595	334207.8
985.953	83150.19
986.311	48037.98
986.669	27909.09
987.026	24111.02
987.384	32460.95
987.741	33598.84
988.099	24026.98
988.456	19134.54
988.814	17919.92
989.171	15588.44
989.528	15409.32
989.885	16237.7
990.242	12851.44
990.599	16013.07
990.956	13118.02
991.313	9188.35
991.67	7545.08
992.027	8001.88
992.383	7125.12
992.74	6258.63
993.096	6579.78
993.453	6819.92
993.809	7075.95
994.165	9441.25
994.522	8675.58
994.878	9563.8
995.234	12008.91
995.59	11850.53
995.946	11219.77
996.302	12790.19
996.658	14769.26
997.013	16226.64
997.369	19262.2
997.725	24670
998.08	15989.19
998.436	24595.35
998.791	33871.52
999.147	33729.82
999.502	36760.87
999.857	26616.12
1000.212	43435.02
1000.567	61995.17
1000.922	35738.81
1001.277	22650.16
1001.632	16827.42
1001.987	21668.3
1002.342	15563.1
1002.696	12463.11
1003.051	9979.04
1003.406	12117.6
1003.76	12109.24
1004.114	11947.11
1004.469	10042.38
1004.823	8326.61
1005.177	9006.17
1005.531	7146.73
1005.885	6351.81
1006.239	7162.6
1006.593	8992.6
1006.947	11997.82
1007.301	8992.41
1007.655	9814.21
1008.008	7199.15
1008.362	8079.32
1008.715	11561.28
1009.069	10482.77
1009.422	15759.09
1009.776	31536.9
1010.129	20949
1010.482	17507.59
1010.835	14833.43
1011.188	30857.41
1011.541	29002.35
1011.894	-177520.16
1012.247	522147.24
1012.6	35408.43
1012.952	22430.66
1013.305	11544.8
1013.657	8339.88
1014.01	7912.02
1014.362	6529.29
1014.715	5799.02
1015.067	5055.48
1015.419	4947.95
1015.771	4374.42
1016.123	3910.12
1016.475	4011.75
1016.827	4273.94
1017.179	4600.48
1017.531	4633.53
1017.883	4701.36
1018.234	4548.62
1018.586	5753.3
1018.938	6099.11
1019.289	8434.09
1019.64	9660.87
1019.992	8965.18
1020.343	8259.87
1020.694	6522.67
1021.045	5758.68
1021.396	6571.07
1021.747	7097.6
1022.098	8486.53
1022.449	6157.95
1022.8	5706.65
1023.151	3960.19
1023.501	3496.41
1023.852	3804.84
1024.202	3949.27
1024.553	4336.64
1024.903	4251.08
1025.253	3638.66
1025.604	3275.54
1025.954	4070.5
1026.304	4953.18
1026.654	5778
1027.004	8473.74
1027.354	13744.64
1027.703	12920.01
1028.053	16881.8
1028.403	24557.28
1028.753	35352.73
1029.102	48061.77
1029.452	246376.58
1029.801	10620.9
1030.15	6847.19
1030.499	5780.47
897.758	2957.36
901.051	2922.55
904.343	2957.68
907.636	2955.59
910.928	3022
914.22	2928.32
917.511	2939.92
920.803	3010.23
924.094	3043.01
927.384	3009.33
930.675	2973.82
933.965	2919.05
937.255	2921.95
940.544	2891.96
943.834	2791.04
947.123	2741.69
950.411	2840.42
953.7	2809.54
956.988	2769.29
960.276	2710.53
963.563	2811.93
966.851	2799.78
970.138	2867.54
973.424	2854.14
976.711	2802.28
979.997	2989.48
983.283	3015.33
986.568	2904.6
989.853	2935.78
993.138	2964.32
996.423	3048.97
999.708	2972.22
1002.992	3061.86
1006.275	2846.88
1009.559	2919.71
1012.842	3047.53
1016.125	2967.43
1019.408	2946.47
1022.69	3054.3
1025.972	3067.21
1029.254	3039.95
1032.536	2952.08
1035.817	2990.8
1039.098	2911.28
1042.379	3115.9
1045.659	3093.15
1048.939	3013.24
1052.219	3041.54
1055.498	3064
1058.778	3040.09
1062.057	3027.77
1065.335	3046.74
1068.614	3075.59
1071.892	3046.69
1075.17	3137.1
1078.447	3120.19
1081.724	3108.53
1085.001	3153.86
1088.278	3125.59
1091.554	3141.56
1094.83	3140.36
1098.106	3166.93
1101.382	3221.26
1104.657	3218.19
1107.932	3217.64
1111.206	3174.6
1114.481	3132.23
1117.755	3137.76
1121.029	3108.08
1124.302	3160.36
1127.575	3102.43
1130.848	3085.82
1134.121	3036.82
1137.393	2978.01
1140.665	3055.5
1143.937	3023.74
1147.208	2985.42
1150.48	3014.37
1153.75	2997.44
1157.021	3046.81
1160.291	3008.97
1163.561	3055.78
1166.831	3054.13
1170.101	3094.67
1173.37	3074.64
1176.639	3006.25
1179.907	3077.75
1183.176	3077.99
1186.444	3092.38
1189.711	3122.92
1192.979	3127.46
1196.246	3086.45
1199.513	3104.94
1202.78	3099.05
1206.046	3106.82
1209.312	3133.99
1212.578	3166.6
1215.843	3106.04
1219.108	3084.48
1222.373	3106.08
1225.638	3062.46
1228.902	3043.87
1232.166	3015.59
1235.43	2992.29
1238.693	3018.94
1241.956	3015.91
1245.219	3053.06
1248.482	3046.49
1251.744	3042.13
1255.006	3211.05
1258.268	3170.08
1261.529	3107.68
1264.79	3115.81
1268.051	3227.01
1271.312	3248.89
1274.572	3205.11
1277.832	3196.09
1281.092	3191.63
1284.351	3155.06
1287.61	3126.35
1290.869	3028.4
1294.128	2991
1297.386	3107.53
1300.644	3092.48
1303.902	3105.45
1307.159	2952.54
1310.416	3012.32
1313.673	3035.08
1316.93	3013.12
1320.186	3069.66
1323.442	3120.59
1326.697	3101.88
1329.953	3104.96
1333.208	3117.76
1336.463	3103.89
1339.717	3026.65
1342.972	3167.8
1346.226	3147.9
1349.479	3070.13
1352.733	3033.59
1355.986	3066.16
1359.238	3040.4
1362.491	3041.88
1365.743	3043.7
1368.995	3045.32
1372.247	3057.06
1375.498	3084.63
1378.749	3100.56
1382	3054.8
1385.251	3118.22
1388.501	3083.26
1391.751	3059.61
1395	3035.54
1398.25	3071.03
1401.499	3073.42
1404.748	2983.92
1407.996	2960.7
1411.244	2945.57
1414.492	2918.43
1417.74	2896.5
1420.987	2911.41
1424.234	2967.9
1427.481	2955.74
1430.728	3012.13
1433.974	2988.98
1437.22	3007.62
1440.465	3015.24
1443.711	2977.53
1446.956	3019.66
1450.201	3021.11
1453.445	3062.7
1456.689	3037.85
1459.933	3053.38
1463.177	3083.06
1466.42	3053.92
1469.663	3030.73
1472.906	3017.58
1476.148	3125.34
1479.391	3046.31
1482.633	3024.63
1485.874	3027.4
1489.115	3006.3
1492.356	3018.59
1495.597	2991.27
1498.838	3000.27
1502.078	2959.14
1505.318	2895.06
1508.557	2944.54
1511.797	2890.95
1515.036	3014.63
1518.274	2999.78
1521.513	2978.99
1524.751	3006.23
1527.989	3019.03
1531.227	3028.03
1534.464	3011.58
1537.701	3046.97
1540.938	3071.45
1544.174	3023.05
1547.41	3029.11
1550.646	3069.87
1553.882	3098.92
1557.117	3154.17
1560.352	3174.39
1563.587	3124.69
1566.821	3078.58
1570.055	3127.97
1573.289	3093.16
1576.523	3179.58
1579.756	3184.59
1582.989	3203.58
1586.222	3156.9
1589.454	3205.08
1592.686	3173.26
1595.918	3197.31
1599.15	3183.02
1602.381	3276.37
1605.612	3215.89
1608.843	3317.83
1612.073	3221.88
1615.303	3203.3
1618.533	3187.86
1621.762	3202.4
1624.992	3190.24
1628.221	3167.23
1631.449	3151.14
1634.678	3223.32
1637.906	3172.17
1641.134	3217.58
1644.361	3165.09
1647.588	3153.49
1650.815	3166
1654.042	3151.95
1657.269	3182.57
1660.495	3131.84
1663.72	3112.58
1666.946	3085.96
1670.171	3007.5
1673.396	2984.7
1676.621	2975.75
1679.845	3011.75
1683.069	3041.75
1686.293	3097.36
1689.517	3058.85
1692.74	2968.94
1695.963	2996.98
1699.185	3055.07
1702.408	3017.39
1705.63	3068.27
1708.852	3074.36
1712.073	3046.99
1715.294	3017.62
1718.515	3087.27
1721.736	3023.5
1724.956	3022.42
1728.176	3052.94
1731.396	3075.42
1734.616	3066.72
1737.835	3089.8
1741.054	3069.95
1744.272	3065.75
1747.491	3090.74
1750.709	3164.76
1753.927	3042.31
1757.144	3099.93
1760.361	3135.15
1763.578	3141.06
1766.795	3073.06
1770.011	3087.19
1773.227	3137.46
1776.443	3176.98
1779.658	3222.94
1782.874	3162.87
1786.089	3131.28
1789.303	3135.56
1792.518	3143.82
1795.732	3131.15
1798.945	3132.75
1802.159	3191.79
1805.372	3068.44
1808.585	3047.96
1811.797	3047.28
1815.01	3110.7
1818.222	3117.2
1821.434	3039.04
1824.645	3120.27
1827.856	3089.24
1831.067	3128.1
1834.278	3097.62
1837.488	3079.46
1840.698	3251.57
1843.908	3162.39
1847.117	3119.94
1850.326	2975.2
1853.535	3098.57
1856.744	3174.45
1859.952	3068.46
1863.16	3071.57
1866.368	3098.55
1869.575	3198.08
1872.782	3080.72
1875.989	3017.25
1879.196	3125.66
1882.402	3118.6
1885.608	3164.29
1888.814	3041.89
1892.019	2927.43
1895.224	2981.49
1898.429	2966.02
1901.634	2937.01
1904.838	2918.67
1908.042	2965.7
1911.246	2969.82
1914.449	2879.36
1917.652	2886.81
1920.855	2869.9
1924.058	2934.79
1927.26	2966.12
1930.462	2998.96
1933.664	3020.55
1936.865	2952.47
1940.066	2953.93
1943.267	2899.48
1946.467	2923.27
1949.668	2952.83
1952.868	3021.43
1956.067	2990.77
1959.267	2913.45
1962.466	2944.32
1965.665	2932.02
1968.863	2928.42
1972.061	2954.51
1975.259	2959.15
1978.457	3044.62
1981.654	2994.26
1984.852	2995.87
1988.048	2911.98
1991.245	2928.42
1994.441	3013.8
1997.637	3015.58
2000.833	2995.58
2004.028	3040.17
2007.223	3088.5
2010.418	3057.14
2013.613	3023.6
2016.807	2979.5
2020.001	2996.84
2023.194	3057.47
2026.388	3023.57
2029.581	2969.35
2032.774	3010.23
2035.966	3011.72
2039.158	2930.47
2042.35	2964.8
2045.542	2892.71
2048.733	3006
2051.924	3049.01
2055.115	3082.06
2058.306	3008.55
2061.496	3073.52
2064.686	3147.53
2067.875	3063.52
2071.065	3086.8
2074.254	3120.98
2077.442	3068.76
2080.631	3164.06
2083.819	3028.38
2087.007	3000.36
2090.195	2963.58
2093.382	3011.98
2096.569	2988.35
2099.756	2936.43
2102.942	2949.05
2106.128	2946.17
2109.314	2939.85
2112.5	2890.22
2115.685	2871.88
2118.87	2885.08
2122.055	2955.05
2125.239	2913.32
2128.424	2873.87
2131.608	3007.82
2134.791	2986.09
2137.974	3058.8
2141.157	3043.45
2144.34	2981.42
2147.523	3008.79
2150.705	3012.82
2153.887	2998.22
2157.068	2934.8
2160.25	2949.73
2163.431	3000.42
2166.611	2927.44
2169.792	2945.17
2172.972	2823.56
2176.152	2919.88
2179.331	2961.8
2182.511	2934
2185.69	2966.25
2188.868	2955.21
2192.047	3026.6
2195.225	2999.93
2198.403	2948.01
2201.58	2943.97
2204.758	2942.06
2207.935	3032.02
2211.111	2904.38
2214.288	2884.28
2217.464	2926.55
2220.64	2907.58
2223.815	2968.39
2226.991	2880.62
2230.166	2902.98
2233.34	2926.22
2236.515	2958.58
2239.689	3038.16
2242.863	2979.54
2246.036	3035.91
2249.209	3047.25
2252.382	3091.5
2255.555	3067.61
2258.727	2993.04
2261.9	3039.12
2265.071	3031.64
2268.243	3038.31
2271.414	2959.23
2274.585	2907.38
2277.756	2978.49
2280.926	2932.38
2284.096	2980.79
2287.266	2873.48
2290.436	2936.16
2293.605	2970.45
2296.774	2995.24
2299.942	3029.59
2303.111	3043.05
2306.279	3086.74
2309.447	3076.55
2312.614	3055.58
2315.781	3074.43
2318.948	3034.56
2322.115	3075.14
2325.281	2973.65
2328.447	3003.52
2331.613	2980.99
2334.779	2937.28
2337.944	2950.21
2341.109	2947.13
2344.274	2922.84
2347.438	2886.16
2350.602	2913.32
2353.766	2935.28
2356.929	2917.4
2360.092	2964.22
2363.255	2903.54
2366.418	2815.96
2369.58	2960.51
2372.742	2687.97
2375.904	2715.04
2379.066	2685.31
2382.227	2727.98
2385.388	2689.15
2388.548	2598.91
2391.709	2664.8
2394.869	2638.41
2398.029	2763.81
2401.188	2787.66
2404.347	2701.66
2407.506	2883.47
2410.665	2907.79
2413.823	2927.38
2416.981	2867.15
2420.139	2912.03
2423.296	2967.26
2426.453	2942.71
2429.61	2965.28
2432.767	2878.68
2435.923	2920.02
2439.079	2848.59
2442.235	2912.16
2445.391	2828.57
2448.546	2844.33
2451.701	2909.98
2454.855	2861.98
2458.009	2933.39
2461.163	2939.8
2464.317	2892.5
2467.471	2929.42
2470.624	2975.43
2473.777	2974.1
2476.929	2983.89
2480.082	3009.31
2483.234	2971.53
2486.385	2895.8
2489.537	2887.93
2492.688	2829.63
2495.839	2850.25
2498.989	2856.07
2502.14	2839.79
2505.29	2811.21
2508.439	2844.59
2511.589	2752.72
2514.738	2775.81
2517.887	2810.9
2521.035	2905.73
2524.183	2900.12
2527.331	2876.33
2530.479	2836.55
2533.627	2853.6
