Data from N_3_HIR_WI_4N_Splice17_13-11-39-506.txt Node
Date: Sat Mar 14 13:11:39 EDT 2020
User: sa697716
Spectrometer: FLMS03696
Trigger mode: 0
Integration Time (sec): 3.180400E-1
Scans to average: 20
Electric dark correction enabled: true
Nonlinearity correction enabled: true
Boxcar width: 5
XAxis mode: Wavelengths
Number of Pixels in Spectrum: 2048
>>>>>Begin Spectral Data<<<<<
187.83	-311726.01
188.298	2371.49
188.766	1277.09
189.233	1158.43
189.701	1591.93
190.169	2168.42
190.636	863.81
191.104	757.78
191.571	149.48
192.039	13
192.506	33.27
192.974	629.54
193.441	-931.54
193.908	-291.92
194.375	-52.36
194.842	31.38
195.31	105.48
195.777	199.91
196.244	391.38
196.711	363.72
197.177	438.4
197.644	564.53
198.111	942.31
198.578	1319.13
199.045	1047.76
199.511	1639.83
199.978	1877.51
200.445	1605.83
200.911	1764.63
201.378	1951.66
201.844	1792.18
202.31	3071.38
202.777	3211.3
203.243	1789.72
203.709	1698.38
204.176	2044.55
204.642	1720.62
205.108	1596.32
205.574	1285.84
206.04	1149.74
206.506	1069.31
206.972	995.07
207.438	946.55
207.903	1071.51
208.369	948.74
208.835	956.22
209.301	987.65
209.766	991.46
210.232	980.66
210.697	1209.05
211.163	1497.1
211.628	2255.92
212.094	1927.59
212.559	2428.85
213.024	1517.75
213.49	1860.13
213.955	1802.79
214.42	1744.41
214.885	1644.88
215.35	1599.55
215.815	1596.88
216.28	1704.15
216.745	1395.32
217.21	1529.43
217.675	1398.39
218.14	1600.65
218.604	1801.4
219.069	2083.3
219.534	2252.27
219.998	2646.02
220.463	3232.42
220.927	3963.89
221.392	3752.12
221.856	3831.07
222.32	4825.33
222.785	5990.21
223.249	7562.9
223.713	8455.96
224.177	8477.12
224.642	10835.6
225.106	13308.38
225.57	14515.16
226.034	10864.56
226.497	16616.75
226.961	15057.63
227.425	17616.94
227.889	19545.72
228.353	19536.68
228.816	40334.32
229.28	38708.83
229.744	32706.04
230.207	19950.88
230.671	19682.11
231.134	32483.15
231.597	37536.53
232.061	37499.37
232.524	36482.4
232.987	25108.1
233.45	22623.22
233.914	20337.92
234.377	20795.71
234.84	19004.78
235.303	22389.31
235.766	24975.53
236.229	25784.18
236.691	16215.4
237.154	18204.28
237.617	13730.59
238.08	14073.12
238.542	16480.73
239.005	11770.81
239.468	11698.21
239.93	11026.43
240.393	10013.32
240.855	8796.45
241.317	9003.18
241.78	10930.44
242.242	11301.05
242.704	12214.04
243.166	10641.62
243.629	9679.53
244.091	11169.26
244.553	12223.57
245.015	13148.89
245.477	17019.7
245.939	24906.1
246.4	26460.62
246.862	25728.03
247.324	24283.82
247.786	27139.18
248.247	35566.7
248.709	36626.17
249.17	27407.55
249.632	25899
250.093	30078.91
250.555	26009.72
251.016	15896.26
251.477	15087.6
251.939	16311.11
252.4	17117.6
252.861	20378.8
253.322	18984.97
253.783	22626.74
254.244	29392.74
254.705	23159.83
255.166	20587.1
255.627	20280.07
256.088	28637.16
256.549	30444.14
257.009	26214.93
257.47	31796.77
257.931	25895.44
258.391	19394.26
258.852	19981.25
259.312	20900.25
259.773	25845.84
260.233	21874.51
260.694	18461.36
261.154	20931.65
261.614	16815.97
262.074	15049.08
262.534	15671.3
262.994	14780.21
263.455	19721.82
263.915	16649.98
264.374	15711.53
264.834	17152.32
265.294	19012.52
265.754	19718.43
266.214	18689.67
266.673	17514.53
267.133	22094.44
267.593	21902.81
268.052	26793.21
268.512	23271.44
268.971	28066.22
269.431	30772.64
269.89	27548.3
270.349	41276.56
270.809	46017.61
271.268	41311.71
271.727	92657.54
272.186	60054.33
272.645	45056.83
273.104	32477.18
273.563	47043.92
274.022	36970.19
274.481	31433.29
274.94	24261.51
275.399	18029.79
275.857	20991.71
276.316	28393.21
276.775	25255.87
277.233	24834.29
277.692	23243.49
278.15	26301.47
278.609	27094.21
279.067	25075.08
279.525	23300.2
279.984	29958.74
280.442	35961.8
280.9	35372.15
281.358	23258.76
281.816	21671.79
282.274	21196.93
282.732	21866.13
283.19	21944.16
283.648	18861.31
284.106	20038.51
284.564	20325.76
285.021	18860.99
285.479	14026.58
285.937	12719.88
286.394	11155.62
286.852	11471.41
287.309	12059.91
287.767	11646.33
288.224	11058.33
288.682	12156.16
289.139	13363.71
289.596	12248.66
290.053	12758.95
290.511	16124.76
290.968	19646.23
291.425	26671.49
291.882	22216.23
292.339	19340.4
292.796	19195.81
293.252	18117.32
293.709	14400.82
294.166	12900.77
294.623	14244.87
295.079	13636.01
295.536	13714.76
295.992	12428.18
296.449	12289.21
296.905	12755.53
297.362	12227.78
297.818	12853.85
298.274	13346.29
298.731	13575.25
299.187	13410.88
299.643	14387.91
300.099	17406.16
300.555	19044.07
301.011	15901.38
301.467	15308.15
301.923	17885.82
302.379	17456.49
302.835	17162.55
303.291	17161
303.746	19509.66
304.202	24637.96
304.658	24718.34
305.113	16614.88
305.569	16269.61
306.024	17317.41
306.479	16480.91
306.935	13893.9
307.39	15150.46
307.845	13945.65
308.301	14006.56
308.756	13633.07
309.211	13133.47
309.666	13445.8
310.121	16668.69
310.576	16898.38
311.031	16728.57
311.486	19095.91
311.94	19073.31
312.395	25478.18
312.85	47812.55
313.305	234131.86
313.759	1213010.96
314.214	88008.9
314.668	69680.53
315.123	58603
315.577	21023.95
316.032	18723.38
316.486	23441.22
316.94	18506.71
317.394	12908.04
317.849	10035.74
318.303	9504.28
318.757	8970.73
319.211	9913.91
319.665	8683.64
320.119	8794.85
320.572	12609.1
321.026	11786.85
321.48	9829.11
321.934	10694.09
322.387	10721.86
322.841	11608.62
323.295	10472.11
323.748	12058.17
324.202	12204.81
324.655	14663.94
325.108	20493.81
325.562	14482.46
326.015	17234.96
326.468	13006.6
326.921	14558.96
327.374	13552.88
327.827	14097.75
328.28	15951.48
328.733	10695.23
329.186	9406.62
329.639	8956.62
330.092	7530.82
330.545	7155.12
330.997	7196.85
331.45	7881.42
331.903	9236.83
332.355	15879.25
332.808	15381.11
333.26	12654.96
333.713	13681.91
334.165	13765.81
334.617	18332.15
335.069	14777.03
335.522	26693.9
335.974	29550.86
336.426	26901.93
336.878	18556.42
337.33	9392.81
337.782	9160.74
338.234	11481.1
338.686	13749.25
339.137	16257.16
339.589	15302.81
340.041	12017.96
340.493	10315.44
340.944	10556.05
341.396	11399.94
341.847	9589.32
342.299	11361.99
342.75	13898.88
343.201	12141.25
343.653	13962.28
344.104	17182.39
344.555	13505.15
345.006	20974.66
345.457	16155.52
345.908	12825.05
346.359	12063.07
346.81	9834.62
347.261	10313.23
347.712	10146.26
348.163	10854.16
348.613	11037.77
349.064	10305.17
349.515	9034.67
349.965	9279.96
350.416	11147.89
350.866	12236.37
351.317	13790.88
351.767	22869.26
352.217	28938.93
352.668	24012.96
353.118	22026.06
353.568	21101.8
354.018	16657.04
354.468	17554.01
354.918	12586.24
355.368	10996.31
355.818	15496.76
356.268	44484.83
356.718	186319.88
357.168	46329.49
357.617	23176.28
358.067	25748.29
358.517	24152.83
358.966	28283.36
359.416	31763.73
359.865	34233.29
360.315	40595.89
360.764	18954.04
361.213	10644.7
361.663	10050.21
362.112	12374.93
362.561	20026.46
363.01	15101.13
363.459	12697.48
363.908	13764.07
364.357	11697.01
364.806	19742.9
365.255	13585.13
365.703	12498.72
366.152	12504.74
366.601	10129.92
367.05	8238.45
367.498	7518.21
367.947	7834.76
368.395	8131.85
368.844	7180.22
369.292	8636.6
369.74	5971.93
370.189	9127.87
370.637	10673.31
371.085	9211.52
371.533	11192.17
371.981	10778.92
372.429	10251.76
372.877	10711.94
373.325	8961.89
373.773	9159.04
374.221	8128.43
374.669	10074.03
375.116	8712.32
375.564	8790.49
376.012	9836.8
376.459	8138.75
376.907	9715.62
377.354	11709.51
377.801	10892.7
378.249	12559.84
378.696	16035.19
379.143	19496.68
379.591	20838.51
380.038	35348.43
380.485	25553.05
380.932	27538.26
381.379	25249.33
381.826	18640.4
382.273	13264.68
382.72	11574.75
383.166	11267.06
383.613	7297.82
384.06	6560.04
384.506	7597.3
384.953	5579.94
385.4	5600.25
385.846	4911.06
386.292	4774.33
386.739	4653.33
387.185	4595.75
387.631	4605.84
388.078	4480.92
388.524	4803.21
388.97	4446.99
389.416	3705.43
389.862	3935.66
390.308	3728.86
390.754	3790.62
391.2	4111.94
391.645	4214.68
392.091	4060.34
392.537	3937.36
392.983	3937.99
393.428	3903.36
393.874	4178.62
394.319	4206.19
394.765	4008.62
395.21	4134.06
395.655	3888.43
396.101	3660.94
396.546	3331.09
396.991	3358.31
397.436	3129.93
397.881	3048.09
398.326	2887.83
398.771	2756.22
399.216	2427.85
399.661	2201.65
400.106	2213.78
400.551	2287.49
400.995	2063.6
401.44	2054.19
401.885	1943.96
402.329	1975.46
402.774	1902.11
403.218	1858.79
403.663	1795.55
404.107	1852.54
404.551	1882.22
404.995	1734.8
405.44	1679.87
405.884	1716.53
406.328	1664.85
406.772	1667.94
407.216	1529.17
407.66	1484.4
408.104	1417.38
408.547	1337.91
408.991	1303.63
409.435	1258.86
409.879	1248.69
410.322	1238.73
410.766	1203.59
411.209	1152.75
411.653	1114.93
412.096	1101.28
412.54	1110.82
412.983	1108.26
413.426	1118.74
413.869	1122.29
414.312	1107.08
414.756	1069.78
415.199	1024.22
415.642	999.04
416.085	1005.62
416.527	1000.73
416.97	1018.24
417.413	968.31
417.856	959.73
418.298	951.61
418.741	946.38
419.184	943.46
419.626	981.23
420.069	984.02
420.511	989.14
420.953	970.02
421.396	964.83
421.838	941.34
422.28	965.96
422.722	975.6
423.164	991.44
423.606	979.79
424.048	982.07
424.49	941.43
424.932	938.06
425.374	928.48
425.816	945.66
426.258	960.93
426.699	965.91
427.141	943.62
427.582	946.96
428.024	937.37
428.465	928.81
428.907	908.35
429.348	900.9
429.789	906.49
430.231	891.75
430.672	905.36
431.113	887.61
431.554	884.82
431.995	873.88
432.436	859
432.877	854.54
433.318	851.06
433.759	853.71
434.2	858.66
434.64	853.52
435.081	858.75
435.522	818.5
435.962	795.12
436.403	784.49
436.843	801.61
437.284	786.46
437.724	765.73
438.164	769.42
438.604	757.27
439.045	733.39
439.485	708.48
439.925	699.21
440.365	687.64
440.805	683.9
441.245	680.09
441.685	658.58
442.125	656.63
442.564	663.2
443.004	648.89
443.444	649.1
443.883	649.82
444.323	647.15
444.762	651.79
445.202	662.64
445.641	677.74
446.081	673.03
446.52	681.01
446.959	678.16
447.398	667.64
447.837	666.2
448.276	658.2
448.716	668.53
449.154	675.93
449.593	660.73
450.032	659.36
450.471	646.34
450.91	648.03
451.349	646.78
451.787	643.29
452.226	648.92
452.664	646.43
453.103	646.08
453.541	644.38
453.98	642.84
454.418	646.54
454.856	636.6
455.295	634.74
455.733	638.31
456.171	640.6
456.609	639.85
457.047	640.65
457.485	648.71
457.923	650.03
458.361	641.41
458.798	644.72
459.236	643.13
459.674	648.14
460.111	653.15
460.549	649.19
460.987	647.87
461.424	648.05
461.862	645.44
462.299	638.12
462.736	637.61
463.173	640.17
463.611	634.27
464.048	634.16
464.485	641.4
464.922	637.11
465.359	635.89
465.796	631.12
466.233	629.76
466.67	626.65
467.106	626.9
467.543	623.15
467.98	617.9
468.416	604.85
468.853	604.42
469.29	589.98
469.726	586.04
470.162	572.97
470.599	568.46
471.035	565.79
471.471	556.92
471.907	557.73
472.344	556.72
472.78	560.73
473.216	569.79
473.652	563.41
474.088	562.2
474.523	562.54
474.959	569.93
475.395	566.14
475.831	563.37
476.266	565.98
476.702	564.1
477.138	559.21
477.573	558.14
478.008	555.41
478.444	558.52
478.879	564.89
479.314	566.99
479.75	565.34
480.185	566.82
480.62	570.2
481.055	570.9
481.49	572.97
481.925	577.49
482.36	582.46
482.795	592.06
483.229	600.3
483.664	603.51
484.099	599.4
484.534	604.73
484.968	606.37
485.403	604.86
485.837	601.58
486.271	598.27
486.706	598.36
487.14	592.5
487.574	586.05
488.009	583.5
488.443	581.34
488.877	588.01
489.311	589.64
489.745	596.25
490.179	601.83
490.613	613.22
491.046	618.54
491.48	623.09
491.914	623.92
492.348	627.54
492.781	631.4
493.215	633.09
493.648	636.25
494.082	642.25
494.515	643.8
494.948	650.42
495.382	654.47
495.815	658.78
496.248	663.81
496.681	675.24
497.114	685.51
497.547	694.73
497.98	706.51
498.413	710.37
498.846	718.26
499.279	724.85
499.711	729.27
500.144	731.48
500.577	740.99
501.009	750.95
501.442	760.18
501.874	763.73
502.306	767.25
502.739	777.42
503.171	794.35
503.603	800.21
504.036	812.17
504.468	818.87
504.9	832.48
505.332	841.11
505.764	847.36
506.196	856.17
506.627	871.02
507.059	884.64
507.491	893.42
507.923	892.46
508.354	907.77
508.786	919.42
509.217	938.85
509.649	953.05
510.08	971.33
510.512	988.46
510.943	1002.37
511.374	1012.62
511.805	1032.43
512.237	1050.9
512.668	1080.91
513.099	1104.45
513.53	1124.86
513.961	1138.81
514.391	1163.65
514.822	1191.32
515.253	1220.14
515.684	1242.09
516.114	1269.58
516.545	1288.77
516.975	1313.17
517.406	1331.23
517.836	1337.29
518.267	1349.74
518.697	1374.51
519.127	1386.61
519.558	1399.24
519.988	1407.9
520.418	1422.91
520.848	1445.04
521.278	1458.38
521.708	1470.22
522.138	1486.48
522.567	1518.9
522.997	1543.85
523.427	1555.76
523.857	1567.8
524.286	1575.39
524.716	1589.92
525.145	1608.85
525.575	1620
526.004	1635.36
526.433	1638.88
526.863	1638.96
527.292	1631.27
527.721	1640.98
528.15	1652.97
528.579	1661.44
529.008	1676.35
529.437	1700.35
529.866	1712.86
530.295	1727.29
530.724	1736.98
531.152	1761.79
531.581	1775.42
532.01	1791.03
532.438	1797.62
532.867	1810.84
533.295	1826.89
533.723	1831.51
534.152	1829.01
534.58	1829.34
535.008	1815.08
535.436	1816.8
535.865	1823.85
536.293	1835.43
536.721	1847.67
537.149	1867.58
537.576	1865.1
538.004	1872.59
538.432	1878.61
538.86	1875.78
539.287	1882.46
539.715	1894.66
540.143	1896.19
540.57	1892.5
540.998	1890.19
541.425	1870.16
541.852	1853.71
542.28	1857.03
542.707	1845.26
543.134	1834.33
543.561	1832.68
543.988	1827.16
544.415	1828.23
544.842	1825.34
545.269	1820.56
545.696	1825.65
546.123	1841.13
546.549	1833.42
546.976	1821.92
547.403	1824.1
547.829	1828.47
548.256	1833.93
548.682	1833.02
549.108	1827.67
549.535	1829.75
549.961	1834.04
550.387	1821.74
550.813	1818.36
551.24	1826.78
551.666	1830.88
552.092	1823.4
552.518	1818.5
552.943	1812.26
553.369	1819.43
553.795	1824.97
554.221	1824.59
554.646	1820.51
555.072	1829.53
555.498	1831.69
555.923	1836.84
556.349	1847.66
556.774	1852.99
557.199	1851.59
557.625	1855.76
558.05	1847.43
558.475	1857.36
558.9	1855.18
559.325	1846.03
559.75	1839.09
560.175	1832.02
560.6	1824.67
561.025	1822.33
561.449	1821.84
561.874	1825.36
562.299	1828.12
562.723	1833.34
563.148	1819.31
563.572	1820.33
563.997	1824.88
564.421	1827.23
564.846	1824.41
565.27	1824.18
565.694	1817.25
566.118	1823.98
566.542	1826.59
566.966	1814.21
567.39	1804.86
567.814	1790.54
568.238	1785.65
568.662	1788.65
569.086	1787.94
569.509	1792.84
569.933	1776.98
570.357	1769.64
570.78	1749.05
571.204	1736.97
571.627	1727.48
572.05	1725.48
572.474	1725.22
572.897	1713.91
573.32	1707.21
573.743	1698.07
574.166	1679.58
574.589	1679.21
575.012	1669.73
575.435	1667.54
575.858	1657.43
576.281	1645.85
576.704	1630.44
577.126	1619.88
577.549	1609.71
577.972	1599.63
578.394	1590.02
578.817	1584.75
579.239	1568.79
579.661	1557.79
580.084	1544.21
580.506	1533.17
580.928	1531.66
581.35	1523.19
581.772	1519.59
582.194	1506.26
582.616	1493.66
583.038	1478.44
583.46	1466.92
583.882	1462.33
584.303	1464.4
584.725	1457.94
585.147	1456.77
585.568	1459.06
585.99	1462.41
586.411	1459.45
586.833	1466.68
587.254	1460.85
587.675	1468.16
588.096	1474.11
588.518	1462.91
588.939	1443.13
589.36	1437.71
589.781	1424.95
590.202	1401.32
590.623	1394.89
591.043	1395.25
591.464	1384.95
591.885	1384.03
592.305	1378.36
592.726	1365.59
593.147	1367.06
593.567	1361.9
593.987	1354.35
594.408	1348.75
594.828	1345.24
595.248	1339.01
595.669	1321.19
596.089	1314.46
596.509	1308.08
596.929	1295.46
597.349	1295.6
597.769	1286.33
598.189	1279.07
598.608	1278.35
599.028	1277.68
599.448	1276.02
599.867	1264.27
600.287	1260.29
600.706	1256.23
601.126	1246.62
601.545	1245.43
601.965	1243.68
602.384	1238.57
602.803	1240.56
603.222	1235.81
603.641	1230.07
604.061	1226.12
604.48	1221.17
604.898	1226.53
605.317	1228.99
605.736	1228.11
606.155	1223.58
606.574	1212.63
606.992	1212.89
607.411	1206.02
607.829	1194.61
608.248	1189.04
608.666	1184.5
609.085	1181.72
609.503	1171.86
609.921	1163.77
610.339	1163.76
610.758	1159.93
611.176	1153.65
611.594	1144.37
612.012	1140.04
612.43	1142.73
612.847	1145.8
613.265	1144.32
613.683	1144.34
614.101	1143.51
614.518	1138.71
614.936	1128.56
615.353	1115.92
615.771	1112.83
616.188	1112.09
616.606	1107.77
617.023	1101.72
617.44	1088.99
617.857	1083.6
618.274	1076.47
618.691	1070.11
619.108	1061.18
619.525	1054.76
619.942	1059.27
620.359	1058.48
620.776	1050.99
621.192	1045.71
621.609	1040.06
622.026	1042.99
622.442	1044.17
622.859	1044.93
623.275	1036.95
623.691	1039.09
624.108	1046.61
624.524	1056.09
624.94	1053.92
625.356	1060.86
625.772	1068.95
626.188	1078.11
626.604	1078.26
627.02	1073.52
627.436	1070.67
627.852	1074.3
628.268	1082.1
628.683	1072.22
629.099	1063.19
629.514	1058.45
629.93	1061.46
630.345	1063.69
630.761	1058.92
631.176	1061.54
631.591	1058.39
632.007	1052.68
632.422	1050.84
632.837	1041.04
633.252	1039.51
633.667	1029.98
634.082	1022.6
634.497	1010.31
634.911	995.55
635.326	993.11
635.741	978.56
636.155	967.74
636.57	967.78
636.984	967.12
637.399	967.67
637.813	965.99
638.228	964.58
638.642	965.31
639.056	955.77
639.47	953.56
639.884	943.8
640.298	937.46
640.712	935.14
641.126	923.49
641.54	914.32
641.954	907.8
642.368	895.26
642.781	887.81
643.195	873.61
643.609	872.52
644.022	864.87
644.436	859.44
644.849	845.59
645.262	833.15
645.676	831.23
646.089	824.93
646.502	812.62
646.915	807.32
647.328	792.65
647.741	789.81
648.154	778.85
648.567	778.12
648.98	767.51
649.393	767.64
649.805	766.08
650.218	761.87
650.631	750.06
651.043	744.79
651.456	739.24
651.868	738.57
652.28	749.84
652.693	755.61
653.105	754.4
653.517	756.53
653.929	753.91
654.341	754.51
654.753	742.78
655.165	745.15
655.577	742.9
655.989	739.06
656.401	731.78
656.813	706.74
657.224	694.25
657.636	675.85
658.047	667.82
658.459	656.2
658.87	651.1
659.282	642.4
659.693	628.66
660.104	617.79
660.515	607.97
660.926	606.09
661.338	601.4
661.749	595.95
662.159	589.72
662.57	584.51
662.981	580.34
663.392	573.86
663.803	575.18
664.213	571.18
664.624	565.62
665.035	565.36
665.445	553.82
665.855	548.78
666.266	544.4
666.676	541.72
667.086	532.55
667.497	531.15
667.907	525.41
668.317	519.05
668.727	516.87
669.137	515.98
669.547	512.45
669.956	513.45
670.366	512.29
670.776	511.35
671.186	511.98
671.595	514.58
672.005	514.33
672.414	512.44
672.824	510.14
673.233	510.02
673.642	510.9
674.052	514.56
674.461	516.35
674.87	518.36
675.279	516.11
675.688	515.77
676.097	516.28
676.506	513.54
676.915	522.39
677.323	523.89
677.732	522.9
678.141	522.69
678.549	514.6
678.958	512.37
679.366	513.24
679.775	515.86
680.183	524.67
680.592	528.4
681	533.96
681.408	529.78
681.816	535.86
682.224	542.38
682.632	550.1
683.04	571.36
683.448	587.04
683.856	606.02
684.264	628.08
684.671	646.04
685.079	670.06
685.487	696.89
685.894	736.82
686.302	767.54
686.709	792.8
687.116	823.75
687.524	850.39
687.931	876.24
688.338	898.43
688.745	916.95
689.152	940.08
689.559	971.91
689.966	1003.11
690.373	1018.63
690.78	1047.39
691.187	1090.7
691.593	1123.19
692	1148.59
692.407	1190.58
692.813	1242.36
693.22	1282.57
693.626	1324.14
694.032	1358.65
694.439	1410.16
694.845	1451.39
695.251	1502.3
695.657	1547.25
696.063	1613.3
696.469	1663.51
696.875	1708.45
697.281	1730.62
697.687	1762.25
698.093	1787.31
698.498	1837.35
698.904	1873.19
699.31	1931.61
699.715	1974.18
700.12	2036.3
700.526	2050.88
700.931	2100.41
701.337	2136.48
701.742	2162.68
702.147	2222.71
702.552	2247.03
702.957	2289.32
703.362	2306.04
703.767	2327.13
704.172	2356.59
704.577	2325.87
704.981	2358.63
705.386	2372.16
705.791	2369.78
706.195	2423.45
706.6	2430.26
707.004	2486.96
707.408	2464.73
707.813	2486.4
708.217	2480.19
708.621	2482.34
709.025	2554.31
709.43	2558.95
709.834	2602.05
710.237	2652.69
710.641	2643.29
711.045	2660.23
711.449	2656.65
711.853	2680.52
712.256	2709.95
712.66	2733.31
713.064	2783.53
713.467	2806.38
713.87	2873.85
714.274	2893.37
714.677	2954.92
715.08	3049.37
715.484	3148.12
715.887	3268.05
716.29	3382.14
716.693	3501.74
717.096	3643.55
717.499	3714.45
717.901	3720.21
718.304	3737.53
718.707	3759.47
719.109	3702.28
719.512	3693.21
719.915	3616.69
720.317	3589.05
720.719	3624.51
721.122	3611.86
721.524	3584.49
721.926	3563.03
722.328	3631.46
722.731	3621.96
723.133	3636.35
723.535	3761.54
723.937	3768.39
724.338	3796.44
724.74	3822.48
725.142	3803.53
725.544	3801.68
725.945	3827.53
726.347	3824.12
726.748	3822.1
727.15	3834.8
727.551	3813.35
727.952	3792.51
728.354	3774.16
728.755	3776.3
729.156	3751.3
729.557	3727.25
729.958	3652.18
730.359	3616.25
730.76	3613.84
731.161	3581.96
731.562	3573.68
731.962	3582.31
732.363	3547.53
732.763	3513.37
733.164	3544.07
733.564	3503.36
733.965	3441.45
734.365	3420.59
734.766	3444.08
735.166	3417.92
735.566	3378.49
735.966	3360.54
736.366	3358.21
736.766	3317.37
737.166	3340.03
737.566	3313.19
737.966	3295.02
738.365	3322.93
738.765	3320.97
739.165	3269.6
739.564	3252.67
739.964	3285.25
740.363	3255.02
740.763	3254.24
741.162	3246.67
741.561	3227.2
741.96	3195.82
742.36	3210.7
742.759	3215.7
743.158	3243.52
743.557	3253.71
743.955	3282.33
744.354	3251.59
744.753	3292.32
745.152	3263.94
745.55	3302.59
745.949	3295.25
746.348	3296.46
746.746	3307.87
747.144	3278.49
747.543	3259.46
747.941	3292.06
748.339	3238.77
748.737	3232.55
749.136	3222.11
749.534	3265.38
749.932	3245.35
750.33	3258.68
750.727	3295.83
751.125	3275.73
751.523	3265.05
751.921	3297.03
752.318	3272.27
752.716	3315.62
753.113	3323.64
753.511	3340.65
753.908	3338.22
754.305	3324.99
754.703	3367.19
755.1	3404.75
755.497	3444.52
755.894	3566.91
756.291	3671.19
756.688	3869.56
757.085	4122.61
757.482	4483.28
757.878	4866.26
758.275	5201.05
758.672	5674.24
759.068	6046.65
759.465	6590.91
759.861	7297.64
760.258	8112.79
760.654	8512.98
761.05	8415.26
761.447	8034.52
761.843	7503.98
762.239	6963.9
762.635	6733.83
763.031	6507.74
763.427	6168.47
763.822	5819.98
764.218	5472.8
764.614	5014.29
765.01	4712.08
765.405	4522.53
765.801	4384.93
766.196	4197.52
766.592	4100.68
766.987	3918.17
767.382	3797.93
767.778	3756.59
768.173	3682.24
768.568	3643.27
768.963	3567.88
769.358	3585.43
769.753	3560.38
770.148	3506.05
770.542	3508.37
770.937	3489.84
771.332	3549.6
771.726	3560.37
772.121	3517.5
772.515	3550.1
772.91	3540.83
773.304	3583.62
773.699	3537.62
774.093	3571
774.487	3607.64
774.881	3633.51
775.275	3628.06
775.669	3600.65
776.063	3629.77
776.457	3653.15
776.851	3605.82
777.245	3597.02
777.638	3620.38
778.032	3695.04
778.425	3670.31
778.819	3699.54
779.212	3671.13
779.606	3642.27
779.999	3650.3
780.392	3636.99
780.786	3687.35
781.179	3698.16
781.572	3722.79
781.965	3727.46
782.358	3686.44
782.751	3719.22
783.143	3681.5
783.536	3725.2
783.929	3750.48
784.322	3824.16
784.714	3842.63
785.107	3837.05
785.499	3881.42
785.891	3866.03
786.284	3850.05
786.676	3935.92
787.068	3920.2
787.46	3950.02
787.852	3958.96
788.245	4008.7
788.636	4021.71
789.028	4061.79
789.42	4079.81
789.812	4077.99
790.204	4133.23
790.595	4192.29
790.987	4064.75
791.378	4076.58
791.77	4155.09
792.161	4236.53
792.553	4270.75
792.944	4198.23
793.335	4149.76
793.726	4196.75
794.117	4255.51
794.508	4338.97
794.899	4317.31
795.29	4406.12
795.681	4437.62
796.072	4344.28
796.463	4233.65
796.853	4237.88
797.244	4332.05
797.634	4349.4
798.025	4343.26
798.415	4345.49
798.806	4399.81
799.196	4451.41
799.586	4477.78
799.976	4453.25
800.366	4594.64
800.756	4729.54
801.146	4700.09
801.536	4713.83
801.926	4756.62
802.316	4770.4
802.706	4810.12
803.095	4730.14
803.485	4790.4
803.874	4814.67
804.264	4970.88
804.653	4951.69
805.043	5042.86
805.432	5106.67
805.821	5111.05
806.21	5120.03
806.599	5189.93
806.988	5210.95
807.377	5271.6
807.766	5341.53
808.155	5511.57
808.544	5341.23
808.933	5345.51
809.321	5323.71
809.71	5493
810.098	5574.98
810.487	5846.66
810.875	6125.74
811.264	6125.2
811.652	6289.96
812.04	6367.67
812.428	6449.49
812.816	6894.22
813.204	7126.58
813.592	7433.86
813.98	7620.9
814.368	7553.34
814.756	7824.29
815.144	7758.39
815.531	8029.86
815.919	7968.07
816.306	8138.11
816.694	7945.25
817.081	7969.73
817.469	8173.58
817.856	8173.94
818.243	8333.42
818.63	8563.48
819.017	8319.99
819.404	8360.83
819.791	8572.08
820.178	8930.5
820.565	9072.38
820.952	9623.37
821.339	9326.32
821.725	9428.79
822.112	8983.57
822.498	8955.15
822.885	9022.79
823.271	8962.67
823.657	9204.61
824.044	9217.59
824.43	9258.76
824.816	9241.55
825.202	8979.66
825.588	9576.45
825.974	9580.82
826.36	9876.28
826.746	9887.38
827.132	10089.22
827.517	10063.8
827.903	9598.3
828.289	9611.44
828.674	9148.77
829.06	9082.91
829.445	9301.89
829.83	9505.59
830.216	9770.87
830.601	9978.19
830.986	9734.82
831.371	9654.21
831.756	9973.01
832.141	9722.94
832.526	9712.86
832.911	9879.19
833.295	9801.9
833.68	10071.71
834.065	9713.1
834.449	9181.6
834.834	9148.29
835.218	9147.58
835.603	9345.82
835.987	9221.73
836.371	9692.95
836.755	9633.21
837.139	9860.41
837.524	10001.75
837.908	9892.84
838.291	9919.69
838.675	9954.18
839.059	10064.04
839.443	10050.87
839.827	9902.52
840.21	10175.4
840.594	10092.82
840.977	10210.03
841.361	10191.12
841.744	10400.24
842.127	10312.28
842.511	10450.96
842.894	10790.42
843.277	11010.17
843.66	11318.43
844.043	11370.99
844.426	10901.21
844.809	10712.41
845.191	10720.61
845.574	10456.77
845.957	10244.22
846.339	10179.66
846.722	9869.76
847.104	9908.3
847.487	9794.64
847.869	9793.56
848.252	9951.33
848.634	10138.25
849.016	10286.8
849.398	10355.29
849.78	10838.34
850.162	10837.78
850.544	11075.17
850.926	11429.29
851.307	11365.95
851.689	11518.25
852.071	11768.4
852.452	11939.6
852.834	11920.26
853.215	12142.67
853.597	12225.93
853.978	12392.28
854.359	12643.71
854.741	12072.04
855.122	12011.23
855.503	11855.62
855.884	11934.97
856.265	11907.08
856.646	11971.33
857.026	11750.27
857.407	11711.15
857.788	11801.28
858.169	11952.99
858.549	11485.07
858.93	11836.39
859.31	11867.78
859.69	11987.83
860.071	11759.15
860.451	11632.17
860.831	11213.51
861.211	11865.64
861.591	12169.5
861.971	12144.15
862.351	12261.07
862.731	12461.9
863.111	12603.5
863.491	12783.58
863.87	13263.25
864.25	13448.94
864.629	13223.19
865.009	13504.79
865.388	13984.34
865.768	14985.88
866.147	14928.35
866.526	14096.43
866.905	14266.31
867.284	15059.34
867.663	14295.83
868.042	13700.57
868.421	13662.62
868.8	13882.92
869.179	14018.5
869.558	13195.33
869.936	12158.63
870.315	12370.63
870.693	12669.25
871.072	13652.7
871.45	13004.48
871.828	13174.67
872.207	13853.37
872.585	13641.45
872.963	14010.67
873.341	13533.51
873.719	13377.64
874.097	13211.85
874.475	13461.26
874.853	13760.55
875.23	13191.74
875.608	13748.11
875.986	14863.46
876.363	14208.81
876.741	14637.69
877.118	14270.91
877.495	14962.27
877.873	15202.03
878.25	15999.09
878.627	15350.97
879.004	15557.4
879.381	15471.75
879.758	15063.78
880.135	14027.29
880.512	14835.35
880.889	14440.12
881.265	14286.27
881.642	14162.21
882.019	14395.93
882.395	14109.21
882.772	14668.88
883.148	14042.6
883.524	13988.55
883.901	13903.22
884.277	14101.81
884.653	14002.24
885.029	14404.88
885.405	15957.14
885.781	15839.35
886.157	15189.03
886.532	15361.5
886.908	15345.02
887.284	17044.84
887.659	17609.56
888.035	18156.48
888.411	18623.01
888.786	18879.13
889.161	19524.65
889.537	19146.81
889.912	19747.24
890.287	19713.64
890.662	20216.3
891.037	19840.21
891.412	18506.76
891.787	18309.52
892.162	17653.96
892.536	18061.06
892.911	17368.99
893.286	16988.96
893.66	16297.55
894.035	16700.97
894.409	18174.83
894.784	17430.33
895.158	17701.14
895.532	18730.54
895.906	19222.31
896.281	19669.49
896.655	19349.23
897.029	22093.28
897.402	22985.27
897.776	25556.23
898.15	25450.81
898.524	25176.1
898.898	25506.22
899.271	28564.7
899.645	24731.4
900.018	23741.04
900.392	24608.85
900.765	24788.83
901.138	22928.53
901.511	22593.59
901.884	20768.39
902.258	19172.67
902.631	19809.14
903.003	22798.62
903.376	20573.8
903.749	23086.69
904.122	24731.25
904.495	27229
904.867	27555.38
905.24	23940.14
905.612	22287.76
905.985	22789.94
906.357	23812.93
906.729	22731.27
907.102	19408.44
907.474	18657.39
907.846	18761.66
908.218	18509.76
908.59	16364.59
908.962	15823.88
909.334	17040.62
909.705	17906.71
910.077	17373.87
910.449	18071.08
910.82	18573.31
911.192	20438.82
911.563	21232.49
911.935	22714.31
912.306	22721.87
912.677	23458.51
913.048	23256.97
913.419	25226.86
913.79	25351.15
914.161	27177.48
914.532	26019.81
914.903	23911.2
915.274	22728.34
915.645	22393.66
916.015	19708.12
916.386	18810.11
916.756	20019.44
917.127	20660.63
917.497	18467.94
917.868	20111.52
918.238	19126.18
918.608	19665.35
918.978	20070.17
919.348	21244.73
919.718	21969.77
920.088	21169.14
920.458	22002.56
920.828	23155.71
921.198	21928.46
921.567	23410.45
921.937	18130.23
922.306	18287.76
922.676	19716.81
923.045	16474.04
923.415	15662.21
923.784	14266.38
924.153	14683.81
924.522	14677.85
924.891	13803.04
925.26	14791.99
925.629	14447.21
925.998	16615.54
926.367	16232.72
926.736	15481
927.104	18412.43
927.473	19777.78
927.842	23868.4
928.21	23594.79
928.578	24764.8
928.947	23400.22
929.315	23535.96
929.683	27590.05
930.051	27769
930.42	32195.39
930.788	27449.07
931.156	27235.1
931.523	25549.47
931.891	23591.49
932.259	22667.66
932.627	26266.52
932.994	37156.05
933.362	30659.5
933.729	26601.93
934.097	25453.06
934.464	21554.42
934.831	24865.25
935.199	24509.12
935.566	23731.82
935.933	24014.77
936.3	29089.5
936.667	22634.9
937.034	20459.68
937.401	20277.79
937.767	17526.29
938.134	15625.51
938.501	22059.8
938.867	23553.41
939.234	39816.85
939.6	33972.68
939.967	37551.28
940.333	25175.51
940.699	21438.33
941.065	17184.03
941.431	22542.34
941.798	21753.96
942.163	28565.89
942.529	17817.79
942.895	16392.81
943.261	10619.42
943.627	13941.89
943.992	12214.89
944.358	12239.01
944.723	12302.93
945.089	11986.12
945.454	11067.85
945.82	11812.76
946.185	11347.13
946.55	13183.68
946.915	11827.54
947.28	13879.8
947.645	12231.6
948.01	11307.98
948.375	11805.96
948.74	14134.77
949.104	16491.42
949.469	23770.63
949.834	42001.83
950.198	39899.46
950.562	23886.03
950.927	19918.65
951.291	23934.2
951.655	20399.12
952.02	19098.76
952.384	14426.71
952.748	12575.95
953.112	12281.39
953.476	10709.9
953.839	9893.8
954.203	9793.82
954.567	12229.87
954.931	19220.91
955.294	16457.28
955.658	16531.97
956.021	28123.64
956.385	47643.39
956.748	70240.49
957.111	108592.89
957.474	121601.54
957.837	136835.82
958.2	103339.52
958.563	37203.51
958.926	25177.63
959.289	38186.7
959.652	42671.19
960.015	32025.31
960.377	45967.22
960.74	52482.87
961.102	90643.52
961.465	97672.35
961.827	52566.15
962.189	100859.86
962.552	69906.25
962.914	55939.64
963.276	36307.59
963.638	29999.41
964	29704.74
964.362	20091.39
964.724	19388.25
965.085	13835.12
965.447	11323.24
965.809	12848.03
966.17	12837.78
966.532	13878.05
966.893	12752.97
967.255	11614.44
967.616	13712.99
967.977	10973.72
968.338	11963.58
968.699	9852.1
969.061	9841.02
969.421	9917.68
969.782	11114.32
970.143	9413.55
970.504	9769.56
970.865	11106.97
971.225	11350.28
971.586	11084.81
971.946	15805.22
972.307	13722.26
972.667	17900.44
973.027	18457.46
973.388	22327.38
973.748	15216.44
974.108	16572.62
974.468	22353.06
974.828	17272.29
975.188	13264.92
975.548	12197.03
975.907	10246.98
976.267	11480.28
976.627	9674.59
976.986	10004.04
977.346	9533.36
977.705	9169.11
978.064	8340.07
978.424	6958.46
978.783	7166.12
979.142	8188.68
979.501	7849.51
979.86	8290.12
980.219	7991.96
980.578	10257.3
980.937	11511.1
981.296	10264.01
981.654	10559.81
982.013	16409.53
982.371	21279.73
982.73	19908.33
983.088	22522.34
983.447	24044.13
983.805	34449.4
984.163	71972.99
984.521	79917.04
984.879	116701.03
985.237	-190219.55
985.595	183600.86
985.953	45676.69
986.311	26338.81
986.669	15268.52
987.026	13185.37
987.384	17704.16
987.741	18249.16
988.099	13084.13
988.456	10469.12
988.814	9854.58
989.171	8544.76
989.528	8414.72
989.885	8881.17
990.242	7042.48
990.599	8786.06
990.956	7188.56
991.313	5029.46
991.67	4138.73
992.027	4423.8
992.383	3935.29
992.74	3447.83
993.096	3621.75
993.453	3749.47
993.809	3891.65
994.165	5179.82
994.522	4789.27
994.878	5268.79
995.234	6607.76
995.59	6516.47
995.946	6103.3
996.302	6953.52
996.658	8032.39
997.013	8835.95
997.369	10520.47
997.725	13472.94
998.08	8745.08
998.436	13385.15
998.791	18525.68
999.147	18484.54
999.502	20180.34
999.857	14659.93
1000.212	23846.15
1000.567	34030.41
1000.922	19706.9
1001.277	12500.65
1001.632	9271.46
1001.987	11968.64
1002.342	8556.87
1002.696	6847.53
1003.051	5490.2
1003.406	6661.62
1003.76	6636.22
1004.114	6522.04
1004.469	5483.02
1004.823	4521.67
1005.177	4870.4
1005.531	3864.8
1005.885	3419.33
1006.239	3858.07
1006.593	4830.16
1006.947	6479.21
1007.301	4844.6
1007.655	5281.1
1008.008	3888.65
1008.362	4363.39
1008.715	6243.99
1009.069	5672.23
1009.422	8553.89
1009.776	17239.16
1010.129	11473.53
1010.482	9586.71
1010.835	8035.03
1011.188	16669.32
1011.541	15627.13
1011.894	-95634.09
1012.247	282214.8
1012.6	19157.28
1012.952	12072.73
1013.305	6213.93
1013.657	4484.52
1014.01	4244.61
1014.362	3504.21
1014.715	3159.52
1015.067	2774.88
1015.419	2716.58
1015.771	2420.01
1016.123	2153.31
1016.475	2209.72
1016.827	2356.81
1017.179	2536.26
1017.531	2526.79
1017.883	2554.42
1018.234	2506.25
1018.586	3158.66
1018.938	3357.84
1019.289	4648.77
1019.64	5281.32
1019.992	4917.48
1020.343	4529.54
1020.694	3589.54
1021.045	3174.77
1021.396	3623.26
1021.747	3946.45
1022.098	4660.9
1022.449	3357.78
1022.8	3105.05
1023.151	2184.53
1023.501	1955.95
1023.852	2107.64
1024.202	2188.47
1024.553	2415.3
1024.903	2374.18
1025.253	2068.89
1025.604	1852.66
1025.954	2292.67
1026.304	2788.11
1026.654	3239.88
1027.004	4652.45
1027.354	7436.97
1027.703	7087.63
1028.053	9179.72
1028.403	13525.9
1028.753	19412.77
1029.102	25719.04
1029.452	130423.42
1029.801	5573.94
1030.15	3573.92
1030.499	2991.94
897.758	2752.95
901.051	2712.43
904.343	2745.97
907.636	2747.95
910.928	2811.85
914.22	2721.51
917.511	2729.84
920.803	2795.29
924.094	2818.53
927.384	2794.92
930.675	2758.11
933.965	2709.07
937.255	2716.79
940.544	2685.71
943.834	2612.85
947.123	2560.15
950.411	2656.45
953.7	2628.53
956.988	2594.53
960.276	2534.01
963.563	2619.9
966.851	2614.72
970.138	2676.34
973.424	2667.74
976.711	2615.13
979.997	2761.7
983.283	2794.63
986.568	2695.01
989.853	2716.66
993.138	2744.15
996.423	2828.84
999.708	2761.08
1002.992	2832.21
1006.275	2652.55
1009.559	2705.09
1012.842	2826.31
1016.125	2754.54
1019.408	2733.72
1022.69	2826.58
1025.972	2840.08
1029.254	2816.03
1032.536	2741.69
1035.817	2771.65
1039.098	2709.2
1042.379	2871.27
1045.659	2865.36
1048.939	2791.76
1052.219	2818.71
1055.498	2832.71
1058.778	2815.15
1062.057	2801.06
1065.335	2820.39
1068.614	2842.66
1071.892	2824.87
1075.17	2903.3
1078.447	2889.98
1081.724	2877.83
1085.001	2921.06
1088.278	2891.88
1091.554	2903.7
1094.83	2901.86
1098.106	2930.02
1101.382	2976.55
1104.657	2976.25
1107.932	2971.36
1111.206	2934.51
1114.481	2890.56
1117.755	2893.83
1121.029	2868.51
1124.302	2922.8
1127.575	2872.05
1130.848	2856.71
1134.121	2815.73
1137.393	2765.02
1140.665	2832.96
1143.937	2804.45
1147.208	2767.37
1150.48	2806.08
1153.75	2792.51
1157.021	2829.46
1160.291	2797.14
1163.561	2844.11
1166.831	2835.33
1170.101	2869.96
1173.37	2842.57
1176.639	2784.07
1179.907	2848.16
1183.176	2850.39
1186.444	2859.08
1189.711	2889.23
1192.979	2898.51
1196.246	2853.82
1199.513	2869.87
1202.78	2868.22
1206.046	2876.21
1209.312	2907.82
1212.578	2934.16
1215.843	2881.11
1219.108	2854.82
1222.373	2877.85
1225.638	2838.87
1228.902	2822.26
1232.166	2789.07
1235.43	2772.18
1238.693	2795.51
1241.956	2793.48
1245.219	2829.07
1248.482	2823.53
1251.744	2818.77
1255.006	2977.79
1258.268	2933.63
1261.529	2873.97
1264.79	2882.14
1268.051	2988.87
1271.312	3004.67
1274.572	2964.71
1277.832	2952.56
1281.092	2944.51
1284.351	2914.33
1287.61	2889.82
1290.869	2801.07
1294.128	2772.5
1297.386	2871.04
1300.644	2860
1303.902	2869.91
1307.159	2724.46
1310.416	2782.56
1313.673	2810.26
1316.93	2794.08
1320.186	2841.81
1323.442	2888.88
1326.697	2874.13
1329.953	2867.11
1333.208	2887.87
1336.463	2867.24
1339.717	2803.32
1342.972	2947.82
1346.226	2922.04
1349.479	2849.89
1352.733	2816.53
1355.986	2844.57
1359.238	2820.32
1362.491	2821.97
1365.743	2827.14
1368.995	2821.61
1372.247	2837.56
1375.498	2864.62
1378.749	2873.9
1382	2828.29
1385.251	2885.73
1388.501	2850.68
1391.751	2829.82
1395	2802.45
1398.25	2836.64
1401.499	2843.52
1404.748	2766.45
1407.996	2758.37
1411.244	2742.17
1414.492	2721.22
1417.74	2703.56
1420.987	2713.16
1424.234	2769.66
1427.481	2751.77
1430.728	2811.52
1433.974	2784.92
1437.22	2800.91
1440.465	2802.24
1443.711	2757.87
1446.956	2797.77
1450.201	2788.14
1453.445	2831.26
1456.689	2810.02
1459.933	2822.91
1463.177	2856.43
1466.42	2825.4
1469.663	2808.19
1472.906	2797.96
1476.148	2885.24
1479.391	2835.39
1482.633	2805.43
1485.874	2814.33
1489.115	2799.32
1492.356	2805.08
1495.597	2779.24
1498.838	2782.72
1502.078	2751.02
1505.318	2695.24
1508.557	2740.64
1511.797	2707.51
1515.036	2790.92
1518.274	2780.37
1521.513	2755.22
1524.751	2777.5
1527.989	2789.72
1531.227	2803.98
1534.464	2794.45
1537.701	2817.69
1540.938	2836.55
1544.174	2789.12
1547.41	2788.74
1550.646	2829.97
1553.882	2861.31
1557.117	2917.8
1560.352	2934.18
1563.587	2889.26
1566.821	2845.37
1570.055	2886.45
1573.289	2854.7
1576.523	2936.64
1579.756	2941.42
1582.989	2961.57
1586.222	2920.78
1589.454	2961.18
1592.686	2931.21
1595.918	2956.04
1599.15	2944.84
1602.381	3026.59
1605.612	2973.75
1608.843	3075.29
1612.073	2984.15
1615.303	2968.9
1618.533	2955.75
1621.762	2959.04
1624.992	2951.23
1628.221	2933.6
1631.449	2917.95
1634.678	2977.57
1637.906	2927.84
1641.134	2968.32
1644.361	2922.01
1647.588	2907.81
1650.815	2922.52
1654.042	2907.96
1657.269	2937.75
1660.495	2883.51
1663.72	2897.43
1666.946	2861.23
1670.171	2798.57
1673.396	2776.23
1676.621	2767.49
1679.845	2790.41
1683.069	2816.29
1686.293	2862.4
1689.517	2827.89
1692.74	2752.75
1695.963	2787.48
1699.185	2810.88
1702.408	2784.3
1705.63	2832.43
1708.852	2842.51
1712.073	2812.47
1715.294	2794.55
1718.515	2856.82
1721.736	2801.9
1724.956	2798.73
1728.176	2826.43
1731.396	2846.24
1734.616	2834.94
1737.835	2863.13
1741.054	2842.24
1744.272	2831.64
1747.491	2866.66
1750.709	2924.01
1753.927	2821.18
1757.144	2870.84
1760.361	2909.19
1763.578	2903.93
1766.795	2843.05
1770.011	2853.65
1773.227	2896.76
1776.443	2929.63
1779.658	2981.45
1782.874	2918.04
1786.089	2895.81
1789.303	2899.02
1792.518	2904.35
1795.732	2891.91
1798.945	2901
1802.159	2953.81
1805.372	2847.07
1808.585	2832.34
1811.797	2834.17
1815.01	2884.93
1818.222	2886.55
1821.434	2846.06
1824.645	2909
1827.856	2888.77
1831.067	2928.33
1834.278	2886.89
1837.488	2870.06
1840.698	3027.77
1843.908	2946.4
1847.117	2906.78
1850.326	2782.02
1853.535	2897.54
1856.744	2932.88
1859.952	2843.87
1863.16	2845.17
1866.368	2870.29
1869.575	2976.19
1872.782	2854.68
1875.989	2795.87
1879.196	2886.72
1882.402	2881.13
1885.608	2923.98
1888.814	2816.98
1892.019	2711.07
1895.224	2764.86
1898.429	2748.63
1901.634	2722.53
1904.838	2699.14
1908.042	2753.01
1911.246	2755.26
1914.449	2681.65
1917.652	2679.2
1920.855	2660.94
1924.058	2714.67
1927.26	2750.43
1930.462	2777.37
1933.664	2802.57
1936.865	2736.26
1940.066	2744.46
1943.267	2690.95
1946.467	2709.44
1949.668	2737.61
1952.868	2806.91
1956.067	2782.58
1959.267	2711.5
1962.466	2739.78
1965.665	2727.36
1968.863	2721.3
1972.061	2739.83
1975.259	2739.79
1978.457	2817.7
1981.654	2777.6
1984.852	2778.2
1988.048	2706.17
1991.245	2710.61
1994.441	2797.81
1997.637	2787.23
2000.833	2768.74
2004.028	2809.13
2007.223	2863.33
2010.418	2838.54
2013.613	2803.2
2016.807	2767.14
2020.001	2775.62
2023.194	2825.33
2026.388	2802.52
2029.581	2748.38
2032.774	2795.74
2035.966	2800.69
2039.158	2728.39
2042.35	2758.95
2045.542	2682.46
2048.733	2786.65
2051.924	2815.79
2055.115	2847.9
2058.306	2785.03
2061.496	2844.49
2064.686	2913.98
2067.875	2824.94
2071.065	2841.23
2074.254	2871.11
2077.442	2819.82
2080.631	2915.16
2083.819	2798.68
2087.007	2779.55
2090.195	2744.8
2093.382	2784.36
2096.569	2763.84
2099.756	2712.11
2102.942	2736.82
2106.128	2740.99
2109.314	2733.61
2112.5	2694.22
2115.685	2668.87
2118.87	2680.55
2122.055	2745.18
2125.239	2710.12
2128.424	2680.63
2131.608	2792.42
2134.791	2772.6
2137.974	2835.29
2141.157	2820.26
2144.34	2766.56
2147.523	2784.82
2150.705	2797.85
2153.887	2780.11
2157.068	2724.98
2160.25	2731.13
2163.431	2772.44
2166.611	2712.69
2169.792	2730.49
2172.972	2619.38
2176.152	2700.82
2179.331	2739.35
2182.511	2720.66
2185.69	2750.21
2188.868	2741.66
2192.047	2804.01
2195.225	2789.64
2198.403	2738.29
2201.58	2732.69
2204.758	2727.04
2207.935	2812.71
2211.111	2699.72
2214.288	2681.26
2217.464	2719.23
2220.64	2692.78
2223.815	2750.75
2226.991	2666.99
2230.166	2688.04
2233.34	2718.23
2236.515	2746.34
2239.689	2820.77
2242.863	2764.68
2246.036	2817.19
2249.209	2822.56
2252.382	2860.75
2255.555	2844.16
2258.727	2777.07
2261.9	2818.65
2265.071	2812.02
2268.243	2814.14
2271.414	2738.98
2274.585	2698.26
2277.756	2764.12
2280.926	2724.12
2284.096	2766.52
2287.266	2668.83
2290.436	2728.55
2293.605	2760.61
2296.774	2790.05
2299.942	2815.55
2303.111	2828.2
2306.279	2878.43
2309.447	2865.77
2312.614	2844.42
2315.781	2860.87
2318.948	2825.7
2322.115	2865.45
2325.281	2767.13
2328.447	2788.13
2331.613	2764.02
2334.779	2729.76
2337.944	2738.29
2341.109	2735.6
2344.274	2716.1
2347.438	2676.69
2350.602	2704.3
2353.766	2724.77
2356.929	2709.55
2360.092	2749.01
2363.255	2697.99
2366.418	2624.58
2369.58	2748.22
2372.742	2516.64
2375.904	2534.89
2379.066	2509.89
2382.227	2548.73
2385.388	2510.33
2388.548	2429.74
2391.709	2488.04
2394.869	2469.76
2398.029	2574.79
2401.188	2593.69
2404.347	2520.93
2407.506	2676.46
2410.665	2703.63
2413.823	2713.37
2416.981	2667.37
2420.139	2701.36
2423.296	2753.76
2426.453	2727.47
2429.61	2749.89
2432.767	2679.5
2435.923	2713.41
2439.079	2674.7
2442.235	2725.86
2445.391	2649.22
2448.546	2676.63
2451.701	2728.71
2454.855	2695.75
2458.009	2754.34
2461.163	2759.54
2464.317	2714.88
2467.471	2750.26
2470.624	2795.1
2473.777	2765.32
2476.929	2778.74
2480.082	2804.05
2483.234	2765.33
2486.385	2722.45
2489.537	2713.47
2492.688	2670.13
2495.839	2687.02
2498.989	2699.18
2502.14	2683.93
2505.29	2661.28
2508.439	2693.17
2511.589	2611.36
2514.738	2626.93
2517.887	2658.65
2521.035	2719.46
2524.183	2708.69
2527.331	2686.93
2530.479	2657.07
2533.627	2669.12
