Data from N_3_DIV_PA_2N_Splice17_13-16-58-718.txt Node
Date: Sat Mar 14 13:16:58 EDT 2020
User: sa697716
Spectrometer: FLMS03696
Trigger mode: 0
Integration Time (sec): 3.180400E-1
Scans to average: 20
Electric dark correction enabled: true
Nonlinearity correction enabled: true
Boxcar width: 5
XAxis mode: Wavelengths
Number of Pixels in Spectrum: 2048
>>>>>Begin Spectral Data<<<<<
187.83	-298531.02
188.298	2283.84
188.766	1246.16
189.233	1166.61
189.701	1634.53
190.169	2237.65
190.636	878.18
191.104	751.28
191.571	120.72
192.039	-14.08
192.506	48.63
192.974	746.42
193.441	-825.12
193.908	-139.93
194.375	-7.94
194.842	63.49
195.31	157.9
195.777	228.22
196.244	421.2
196.711	277.15
197.177	263.4
197.644	261.72
198.111	409.89
198.578	471.48
199.045	338.21
199.511	498.05
199.978	490.39
200.445	436.42
200.911	417.92
201.378	341.41
201.844	332.52
202.31	546.94
202.777	628.78
203.243	321.42
203.709	311.55
204.176	358.13
204.642	315.75
205.108	310.97
205.574	228.37
206.04	164.8
206.506	175.49
206.972	144.12
207.438	136.27
207.903	131.39
208.369	161.37
208.835	165.49
209.301	194.82
209.766	180.08
210.232	173.16
210.697	207.74
211.163	247.59
211.628	299.66
212.094	282.22
212.559	483.31
213.024	330.99
213.49	417.24
213.955	407.79
214.42	342.24
214.885	334.31
215.35	370.73
215.815	465.54
216.28	522.83
216.745	439.03
217.21	518.33
217.675	431.36
218.14	505.24
218.604	543.37
219.069	644.99
219.534	753.18
219.998	882.69
220.463	1056.76
220.927	1236.39
221.392	1200.9
221.856	1250.04
222.32	1544.91
222.785	1955.68
223.249	2475.73
223.713	2809.48
224.177	2860.32
224.642	3612.95
225.106	4478.05
225.57	4964.57
226.034	3825.06
226.497	5877.16
226.961	5434.16
227.425	6431.02
227.889	7193.08
228.353	7256.48
228.816	15133.43
229.28	14670.45
229.744	12509.06
230.207	7745.54
230.671	7663.53
231.134	12534.81
231.597	14671.84
232.061	14653.98
232.524	14310.45
232.987	9929.32
233.45	9033.89
233.914	8099.42
234.377	8255.13
234.84	7598.9
235.303	8907.97
235.766	9959.72
236.229	10315.84
236.691	6467.78
237.154	7249.37
237.617	5487.51
238.08	5610.8
238.542	6536.47
239.005	4714.94
239.468	4710.32
239.93	4436.71
240.393	4056.7
240.855	3580.08
241.317	3672.3
241.78	4456.68
242.242	4653.27
242.704	5078.08
243.166	4451.79
243.629	4113.16
244.091	4753.06
244.553	5230.78
245.015	5657.23
245.477	7328.37
245.939	10770.58
246.4	11515.47
246.862	11256.64
247.324	10663.49
247.786	11945.86
248.247	15659.58
248.709	16030.03
249.17	12037.36
249.632	11472.94
250.093	13434.07
250.555	11637.1
251.016	7151.29
251.477	6803.66
251.939	7392.01
252.4	7770.07
252.861	9208.3
253.322	8632.35
253.783	10323.52
254.244	13420.06
254.705	10548.22
255.166	9361.33
255.627	9254.59
256.088	13100.8
256.549	13971.5
257.009	12048.43
257.47	14643.94
257.931	11977.14
258.391	9010.63
258.852	9325.68
259.312	9779.29
259.773	12108.95
260.233	10298.03
260.694	8757.44
261.154	9947.41
261.614	8044.93
262.074	7203.08
262.534	7525.01
262.994	7113.53
263.455	9478.59
263.915	8009.74
264.374	7571.56
264.834	8288.42
265.294	9182.98
265.754	9524.09
266.214	9038.28
266.673	8471.06
267.133	10700.01
267.593	10631.88
268.052	13077.98
268.512	11389.57
268.971	13847.78
269.431	15233.81
269.89	13678.56
270.349	20586.76
270.809	23011.28
271.268	20698.13
271.727	46326.62
272.186	30076.15
272.645	22560.54
273.104	16244.42
273.563	23597.82
274.022	18460.43
274.481	15804.06
274.94	12220.46
275.399	9084.3
275.857	10595.67
276.316	14387.15
276.775	12885.57
277.233	12772.93
277.692	12024.95
278.15	13683.11
278.609	14142.48
279.067	13137.49
279.525	12221.97
279.984	15788.51
280.442	19031.16
280.9	18894.33
281.358	12457.12
281.816	11635.07
282.274	11390.8
282.732	11761.08
283.19	11814.74
283.648	10172.96
284.106	10842.28
284.564	11006
285.021	10229.1
285.479	7630.18
285.937	6911.62
286.394	6094.93
286.852	6280.89
287.309	6618.39
287.767	6451.24
288.224	6165.42
288.682	6805.4
289.139	7553.99
289.596	6977.79
290.053	7307.76
290.511	9285.12
290.968	11330.17
291.425	15452.07
291.882	12979.39
292.339	11384.76
292.796	11304.66
293.252	10681.57
293.709	8556.61
294.166	7681.79
294.623	8506.7
295.079	8161.96
295.536	8223.76
295.992	7482.07
296.449	7405.27
296.905	7710.93
297.362	7413.93
297.818	7811.51
298.274	8161.46
298.731	8290.88
299.187	8194.22
299.643	8799.1
300.099	10677.89
300.555	11686.4
301.011	9788.16
301.467	9487.56
301.923	11061.49
302.379	10816.61
302.835	10632.36
303.291	10614.56
303.746	12129.95
304.202	15341.27
304.658	15422.77
305.113	10351.12
305.569	10195.94
306.024	10833.9
306.479	10251.15
306.935	8673.64
307.39	9437.67
307.845	8725.01
308.301	8817.34
308.756	8561.37
309.211	8232.57
309.666	8412.79
310.121	10473.52
310.576	10559.38
311.031	10468.77
311.486	11943.84
311.94	11913.37
312.395	15925.72
312.85	29860.33
313.305	145366.04
313.759	756189.2
314.214	54816.03
314.668	43566.93
315.123	36748.83
315.577	13248.47
316.032	11823.76
316.486	14862.83
316.94	11751.19
317.394	8208.53
317.849	6380.53
318.303	6048.69
318.757	5714.51
319.211	6342.74
319.665	5542.43
320.119	5609.52
320.572	8027.99
321.026	7517.26
321.48	6277.18
321.934	6808.03
322.387	6819.88
322.841	7395.69
323.295	6691.5
323.748	7694.38
324.202	7805.89
324.655	9396.96
325.108	13184.24
325.562	9346.9
326.015	11077.66
326.468	8371.43
326.921	9374.67
327.374	8756.96
327.827	9143.39
328.28	10378.92
328.733	6955.54
329.186	6123.42
329.639	5835.7
330.092	4898.06
330.545	4656.56
330.997	4708.97
331.45	5184.7
331.903	6111.32
332.355	10438.98
332.808	10085.05
333.26	8267.96
333.713	8980.3
334.165	8989.31
334.617	11959.43
335.069	9595.33
335.522	17298.98
335.974	19169.34
336.426	17311.38
336.878	11910.78
337.33	6059.7
337.782	5924.84
338.234	7481.7
338.686	8901.45
339.137	10591.08
339.589	9996.29
340.041	7875.58
340.493	6802.52
340.944	6963.85
341.396	7580.67
341.847	6438.59
342.299	7658.45
342.75	9415.38
343.201	8230.29
343.653	9527.4
344.104	11724.9
344.555	9256.88
345.006	14398.9
345.457	11134.95
345.908	8860.12
346.359	8330.07
346.81	6799.6
347.261	7163.76
347.712	7062.64
348.163	7550.2
348.613	7700.52
349.064	7216.29
349.515	6340.99
349.965	6523.56
350.416	7813.62
350.866	8596.92
351.317	9711.42
351.767	16103.93
352.217	20365.35
352.668	16888.2
353.118	15508.89
353.568	14834.32
354.018	11778.8
354.468	12406.86
354.918	8962.17
355.368	7849.81
355.818	11096.69
356.268	32009.02
356.718	134230.62
357.168	33541.02
357.617	16875.81
358.067	18746.57
358.517	17614.45
358.966	20583.02
359.416	23227.27
359.865	25038.03
360.315	29804.74
360.764	13925.92
361.213	7813.32
361.663	7347.36
362.112	9023.24
362.561	14526.68
363.01	10971.71
363.459	9259.22
363.908	10041.03
364.357	8542.62
364.806	14398.96
365.255	9915.61
365.703	9172.6
366.152	9190.32
366.601	7483.87
367.05	6137.31
367.498	5594.08
367.947	5816.67
368.395	6011.75
368.844	5339.45
369.292	6386.42
369.74	4429.86
370.189	6785.75
370.637	7890.02
371.085	6791.05
371.533	8255.7
371.981	7922.37
372.429	7577.25
372.877	7906.55
373.325	6638.53
373.773	6705.23
374.221	5944.93
374.669	7320.15
375.116	6304.22
375.564	6344.49
376.012	7091.72
376.459	5835.78
376.907	6936.48
377.354	8320.98
377.801	7802.44
378.249	8973.1
378.696	11511.82
379.143	13960.54
379.591	14892.06
380.038	25250.78
380.485	18277.56
380.932	19711.9
381.379	18171.33
381.826	13446.33
382.273	9586.21
382.72	8320.26
383.166	8122.64
383.613	5270.14
384.06	4765.01
384.506	5524.72
384.953	4033.36
385.4	4054.16
385.846	3532.46
386.292	3410.36
386.739	3303.81
387.185	3234.8
387.631	3243.12
388.078	3159.04
388.524	3352.1
388.97	3086.14
389.416	2574.62
389.862	2736.59
390.308	2573.28
390.754	2616.93
391.2	2831.96
391.645	2878.26
392.091	2774.45
392.537	2669.21
392.983	2630.75
393.428	2609.96
393.874	2776.07
394.319	2784.52
394.765	2651.2
395.21	2707
395.655	2520.1
396.101	2352.47
396.546	2120.73
396.991	2109.37
397.436	1952.54
397.881	1878.85
398.326	1753.04
398.771	1652.84
399.216	1421.3
399.661	1259.2
400.106	1259.34
400.551	1287.43
400.995	1148.09
401.44	1136.16
401.885	1064.86
402.329	1071.4
402.774	1030.87
403.218	1011.38
403.663	975.06
404.107	1006.51
404.551	1017.9
404.995	925.9
405.44	885.82
405.884	890.92
406.328	856
406.772	852.36
407.216	771.63
407.66	738.16
408.104	685.68
408.547	638.17
408.991	615.22
409.435	589.24
409.879	582.37
410.322	571.63
410.766	554.71
411.209	527.69
411.653	503.57
412.096	497.39
412.54	496.8
412.983	496.07
413.426	498.6
413.869	494.24
414.312	483.54
414.756	461.44
415.199	439.45
415.642	424.54
416.085	424.66
416.527	418.57
416.97	420.32
417.413	398.75
417.856	389.82
418.298	384.19
418.741	376.08
419.184	370.79
419.626	378.61
420.069	378.49
420.511	383.38
420.953	374.21
421.396	373.49
421.838	362.03
422.28	367.67
422.722	371.99
423.164	371.83
423.606	369.59
424.048	367.96
424.49	354.08
424.932	350.61
425.374	339.2
425.816	341.93
426.258	346.69
426.699	351.76
427.141	352.93
427.582	353.9
428.024	351.94
428.465	345.75
428.907	338.5
429.348	334.35
429.789	336.26
430.231	334.9
430.672	342.15
431.113	333.41
431.554	323.42
431.995	309.36
432.436	301.25
432.877	298.88
433.318	296.68
433.759	291.83
434.2	289.86
434.64	284.6
435.081	281.83
435.522	263.93
435.962	253.45
436.403	250.61
436.843	250.58
437.284	242.07
437.724	228.55
438.164	223.39
438.604	217.83
439.045	211.72
439.485	204.92
439.925	199.2
440.365	193.5
440.805	189.66
441.245	186.26
441.685	180.37
442.125	176.77
442.564	176.78
443.004	173.9
443.444	173.17
443.883	171.48
444.323	165.48
444.762	160.68
445.202	160.51
445.641	161.37
446.081	157.68
446.52	158.38
446.959	158.19
447.398	156.03
447.837	153.76
448.276	149.21
448.716	149.25
449.154	148.66
449.593	147.05
450.032	148.05
450.471	144.95
450.91	142.58
451.349	142.1
451.787	138.33
452.226	138.52
452.664	137.41
453.103	138.38
453.541	136.62
453.98	140.51
454.418	140.99
454.856	140.11
455.295	140.28
455.733	142.82
456.171	144.06
456.609	145.55
457.047	146.51
457.485	150.8
457.923	151.87
458.361	151.28
458.798	149.47
459.236	149.73
459.674	148.57
460.111	148.93
460.549	149.33
460.987	146.36
461.424	144.81
461.862	143.76
462.299	140.79
462.736	141.48
463.173	141.7
463.611	144.17
464.048	143.72
464.485	145.23
464.922	142.54
465.359	139.19
465.796	148.86
466.233	149.94
466.67	151.7
467.106	152.18
467.543	147.83
467.98	144.23
468.416	136.74
468.853	135.02
469.29	130.43
469.726	129.04
470.162	125.79
470.599	113.88
471.035	111
471.471	107.19
471.907	104.19
472.344	103.86
472.78	104.88
473.216	105.15
473.652	103.55
474.088	102.11
474.523	103.47
474.959	104.57
475.395	104.16
475.831	104.2
476.266	103.17
476.702	102.86
477.138	102.21
477.573	101.34
478.008	101.43
478.444	102.65
478.879	105.43
479.314	106.2
479.75	106.74
480.185	107.03
480.62	108.22
481.055	108.73
481.49	110.47
481.925	112.71
482.36	117.41
482.795	120.17
483.229	122.32
483.664	124.38
484.099	123.82
484.534	125.81
484.968	126.99
485.403	125.68
485.837	124.55
486.271	123.84
486.706	122.7
487.14	118.71
487.574	117
488.009	115.43
488.443	113.51
488.877	115.13
489.311	114.22
489.745	115.39
490.179	116.63
490.613	120.95
491.046	120.02
491.48	120.44
491.914	120.13
492.348	120.32
492.781	121.24
493.215	120.28
493.648	118.12
494.082	118.23
494.515	118.29
494.948	119.15
495.382	116.95
495.815	117.2
496.248	116.95
496.681	117.65
497.114	117.42
497.547	117.7
497.98	120.07
498.413	121.77
498.846	122.45
499.279	120.9
499.711	119.33
500.144	117.66
500.577	118.77
501.009	118.72
501.442	119.45
501.874	119.1
502.306	116.9
502.739	119.09
503.171	118.65
503.603	117.28
504.036	116.74
504.468	116.2
504.9	116.17
505.332	114.29
505.764	113.41
506.196	112.2
506.627	111.69
507.059	111.85
507.491	106.52
507.923	104.22
508.354	104.49
508.786	104.17
509.217	104.24
509.649	104.16
510.08	104
510.512	104.02
510.943	103.46
511.374	102.78
511.805	102.36
512.237	102.1
512.668	102
513.099	101.14
513.53	100.82
513.961	100.41
514.391	100.74
514.822	103.69
515.253	105.22
515.684	105.11
516.114	105.74
516.545	106.72
516.975	106.97
517.406	106.49
517.836	104.59
518.267	104.11
518.697	104.71
519.127	103.06
519.558	100.03
519.988	96.87
520.418	95.71
520.848	93.96
521.278	91.52
521.708	120.81
522.138	121.32
522.567	121.41
522.997	121.75
523.427	120.22
523.857	120.18
524.286	119.35
524.716	120.65
525.145	120.9
525.575	121.84
526.004	121.53
526.433	91.08
526.863	88.42
527.292	88.66
527.721	88.73
528.15	88.22
528.579	87.73
529.008	88
529.437	87.12
529.866	86.67
530.295	85.37
530.724	86.98
531.152	87.54
531.581	89.29
532.01	89
532.438	87.81
532.867	87.6
533.295	88.28
533.723	88.29
534.152	88.21
534.58	88.46
535.008	87.95
535.436	88.38
535.865	88.58
536.293	87.67
536.721	87.4
537.149	88.39
537.576	89.72
538.004	90.51
538.432	89.36
538.86	89.87
539.287	89.55
539.715	90.44
540.143	88.5
540.57	88.04
540.998	87.93
541.425	89.05
541.852	88.12
542.28	87.06
542.707	85.32
543.134	85.31
543.561	84.72
543.988	84.9
544.415	84.03
544.842	83.47
545.269	83.25
545.696	84.25
546.123	84.11
546.549	83.66
546.976	83.18
547.403	83.31
547.829	82.5
548.256	81.36
548.682	80.68
549.108	82.26
549.535	82.37
549.961	81.81
550.387	80.87
550.813	81.63
551.24	81.67
551.666	81.19
552.092	80.75
552.518	80.86
552.943	82.39
553.369	82.6
553.795	81.89
554.221	82.22
554.646	82.19
555.072	84.03
555.498	82.22
555.923	82.12
556.349	83.33
556.774	83.6
557.199	83.93
557.625	82.96
558.05	83.16
558.475	83.72
558.9	84.06
559.325	84.75
559.75	84.73
560.175	84.85
560.6	84.92
561.025	84.08
561.449	84.4
561.874	84.75
562.299	86.24
562.723	86.07
563.148	85.56
563.572	85.67
563.997	86.32
564.421	84.72
564.846	84.64
565.27	85.63
565.694	86.44
566.118	87.54
566.542	89.96
566.966	90.12
567.39	91.38
567.814	91.86
568.238	92.88
568.662	92.54
569.086	94.17
569.509	94.79
569.933	95.78
570.357	96.03
570.78	95.27
571.204	95.87
571.627	95.52
572.05	95.84
572.474	97.39
572.897	97.02
573.32	99.11
573.743	98.34
574.166	98.91
574.589	98.02
575.012	97.86
575.435	98.4
575.858	97.35
576.281	96.43
576.704	95.43
577.126	93.51
577.549	92.65
577.972	91.17
578.394	91.86
578.817	95.1
579.239	94.47
579.661	95.29
580.084	96.48
580.506	95.93
580.928	95.83
581.35	95.92
581.772	96.61
582.194	96.91
582.616	96.63
583.038	94.93
583.46	91.33
583.882	92.07
584.303	90.38
584.725	89
585.147	95.07
585.568	96.89
585.99	98.94
586.411	100.67
586.833	102.44
587.254	103.2
587.675	105.03
588.096	106.49
588.518	105.98
588.939	106.39
589.36	106.62
589.781	98.82
590.202	101.31
590.623	100.39
591.043	98.67
591.464	97.69
591.885	97.88
592.305	97.52
592.726	96.42
593.147	97.46
593.567	97.41
593.987	96.89
594.408	96.31
594.828	91.36
595.248	91.74
595.669	92.4
596.089	91.91
596.509	91.07
596.929	90.38
597.349	91
597.769	89.92
598.189	89.51
598.608	90.22
599.028	91.49
599.448	92.31
599.867	90.55
600.287	89.44
600.706	90.27
601.126	90.31
601.545	91.4
601.965	91.32
602.384	91
602.803	90.99
603.222	91.8
603.641	91.55
604.061	92.52
604.48	92.91
604.898	93.49
605.317	93.48
605.736	94.12
606.155	95.12
606.574	94.98
606.992	96.16
607.411	97.31
607.829	94.71
608.248	94.53
608.666	93.63
609.085	94.22
609.503	94.76
609.921	95.91
610.339	96.01
610.758	94.58
611.176	95.01
611.594	95.23
612.012	95.15
612.43	97.89
612.847	98.85
613.265	100.79
613.683	101.51
614.101	102.28
614.518	100.77
614.936	100.73
615.353	101.51
615.771	101.76
616.188	101.99
616.606	102.28
617.023	102.23
617.44	102.12
617.857	100.38
618.274	99.9
618.691	100.35
619.108	100.64
619.525	99.94
619.942	99.84
620.359	100.52
620.776	100.04
621.192	100.93
621.609	101.09
622.026	102.02
622.442	103.7
622.859	103.66
623.275	102.11
623.691	102.5
624.108	104.03
624.524	105.4
624.94	104.89
625.356	105.81
625.772	105.36
626.188	104.97
626.604	105.17
627.02	104.53
627.436	105.99
627.852	108.64
628.268	110.08
628.683	108.81
629.099	108.25
629.514	107.73
629.93	108.12
630.345	109.16
630.761	109.17
631.176	109.62
631.591	112.02
632.007	111.32
632.422	108.6
632.837	107.32
633.252	108.63
633.667	108.22
634.082	107.99
634.497	108.65
634.911	109.68
635.326	110.16
635.741	109.39
636.155	107.13
636.57	109.04
636.984	111.08
637.399	114.25
637.813	114.06
638.228	114.89
638.642	115.81
639.056	114.88
639.47	114.66
639.884	114.88
640.298	114.84
640.712	116.57
641.126	115.62
641.54	114.68
641.954	111.61
642.368	112.35
642.781	115.64
643.195	115.74
643.609	117.28
644.022	117.35
644.436	118.12
644.849	117.37
645.262	115.76
645.676	115.83
646.089	117.47
646.502	119.51
646.915	119.32
647.328	116.79
647.741	117.67
648.154	116.96
648.567	120.43
648.98	119.99
649.393	121.07
649.805	122.48
650.218	122.06
650.631	120.87
651.043	120.58
651.456	120.97
651.868	120.38
652.28	122.1
652.693	123.2
653.105	121.79
653.517	123.7
653.929	125.21
654.341	126.54
654.753	126.61
655.165	128.33
655.577	129.14
655.989	128.92
656.401	128.1
656.813	126.16
657.224	124.59
657.636	120.97
658.047	120.25
658.459	118.79
658.87	117.22
659.282	116.89
659.693	115.66
660.104	115.14
660.515	114.78
660.926	115.48
661.338	115.02
661.749	115.08
662.159	116.79
662.57	116.41
662.981	117.51
663.392	117.69
663.803	120.04
664.213	120.31
664.624	119.66
665.035	120.43
665.445	119.35
665.855	120.25
666.266	121.38
666.676	120.63
667.086	118.95
667.497	119.26
667.907	118.94
668.317	117.27
668.727	121.28
669.137	121.03
669.547	120.51
669.956	121
670.366	121.03
670.776	121.77
671.186	123.08
671.595	124.45
672.005	123.93
672.414	125.36
672.824	126.27
673.233	122.24
673.642	122.92
674.052	125.35
674.461	126.96
674.87	127.03
675.279	127.14
675.688	125.09
676.097	126.66
676.506	126.48
676.915	127.67
677.323	127.11
677.732	126.07
678.141	124.4
678.549	120.6
678.958	118.13
679.366	116.95
679.775	114.56
680.183	118.81
680.592	118.23
681	118.06
681.408	115.43
681.816	114.74
682.224	114.85
682.632	117.79
683.04	120.28
683.448	122.13
683.856	125.41
684.264	129.82
684.671	129.32
685.079	130.09
685.487	131.88
685.894	136.31
686.302	137.25
686.709	139.04
687.116	139.52
687.524	143.58
687.931	144.92
688.338	144.22
688.745	139.86
689.152	137.96
689.559	138.15
689.966	140.05
690.373	137.72
690.78	138
691.187	138.92
691.593	137.38
692	132.31
692.407	132.12
692.813	135.68
693.22	137.71
693.626	135.52
694.032	135.62
694.439	134.66
694.845	133.85
695.251	132.73
695.657	131.99
696.063	131.64
696.469	131.67
696.875	131.12
697.281	125.28
697.687	122.48
698.093	121.66
698.498	121.21
698.904	118.61
699.31	118.97
699.715	122.33
700.12	123.04
700.526	123.5
700.931	123.91
701.337	124.39
701.742	125.22
702.147	126.03
702.552	125.52
702.957	123.65
703.362	122.86
703.767	120.86
704.172	117.58
704.577	113.25
704.981	111.6
705.386	111.68
705.791	109.13
706.195	107.51
706.6	106.95
707.004	106.39
707.408	103.56
707.813	105.08
708.217	105.39
708.621	104.16
709.025	106.54
709.43	107.62
709.834	108.41
710.237	108.88
710.641	108.1
711.045	107.77
711.449	109.03
711.853	116.42
712.256	115.22
712.66	114.3
713.064	116.48
713.467	118.37
713.87	119.82
714.274	119.92
714.677	123.29
715.08	128.79
715.484	132.89
715.887	140.97
716.29	138.39
716.693	144.36
717.096	151.04
717.499	153.39
717.901	151.53
718.304	151.8
718.707	150.74
719.109	146.67
719.512	142.05
719.915	141.11
720.317	135.78
720.719	134.89
721.122	132.87
721.524	131.86
721.926	135.72
722.328	137.99
722.731	135.53
723.133	135
723.535	138.6
723.937	139.58
724.338	140.49
724.74	143.67
725.142	215.23
725.544	219.88
725.945	236.58
726.347	230.64
726.748	230.68
727.15	232.66
727.551	236.98
727.952	234.65
728.354	231.97
728.755	229.14
729.156	224.97
729.557	153.9
729.958	144.05
730.359	126.52
730.76	125.17
731.161	122.36
731.562	118.49
731.962	112.99
732.363	112.41
732.763	111.25
733.164	109.73
733.564	109.35
733.965	108.13
734.365	108.94
734.766	109.09
735.166	108.79
735.566	109.4
735.966	110.92
736.366	112.75
736.766	110.16
737.166	110.1
737.566	110.5
737.966	108.42
738.365	109.72
738.765	111.27
739.165	108.78
739.564	107.86
739.964	105.94
740.363	103.7
740.763	101.01
741.162	102.62
741.561	101.94
741.96	99.12
742.36	97.24
742.759	97.72
743.158	95.5
743.557	94.94
743.955	94.42
744.354	94.25
744.753	94.71
745.152	95.32
745.55	94.08
745.949	94.14
746.348	94.83
746.746	94.68
747.144	96.24
747.543	94.69
747.941	95.34
748.339	94.63
748.737	95.28
749.136	96.77
749.534	96.15
749.932	98.77
750.33	99.4
750.727	99.25
751.125	101.32
751.523	98.43
751.921	104.86
752.318	104.97
752.716	108.62
753.113	108.24
753.511	107.19
753.908	109.25
754.305	113.33
754.703	115.09
755.1	119.38
755.497	120.91
755.894	123.65
756.291	123.12
756.688	130.52
757.085	136.69
757.482	151.56
757.878	170.72
758.275	185.4
758.672	191.09
759.068	203.94
759.465	219.76
759.861	240.68
760.258	268.52
760.654	284.46
761.05	284.64
761.447	271.08
761.843	252.05
762.239	229.7
762.635	216.04
763.031	208.55
763.427	197.92
763.822	188
764.218	176.79
764.614	162.32
765.01	149.67
765.405	140.44
765.801	137.27
766.196	129.6
766.592	123.83
766.987	119.47
767.382	116.51
767.778	115.35
768.173	111.98
768.568	110.73
768.963	108.73
769.358	110.55
769.753	112
770.148	111.07
770.542	111.02
770.937	111
771.332	112.8
771.726	112.79
772.121	115.78
772.515	117.57
772.91	118.19
773.304	120.34
773.699	118.71
774.093	118.59
774.487	118.76
774.881	119.24
775.275	119.51
775.669	117.7
776.063	117.64
776.457	115.25
776.851	112.95
777.245	113.33
777.638	114.13
778.032	115.89
778.425	116.98
778.819	122.87
779.212	125.9
779.606	127.83
779.999	127.81
780.392	130.95
780.786	130.18
781.179	131.81
781.572	133.1
781.965	132.51
782.358	131.85
782.751	132.06
783.143	126.18
783.536	125.88
783.929	122.96
784.322	128.22
784.714	126.11
785.107	127.63
785.499	130.31
785.891	132.41
786.284	132.49
786.676	133.57
787.068	135.11
787.46	137.54
787.852	135.21
788.245	136.96
788.636	133.5
789.028	137.13
789.42	139.33
789.812	139.47
790.204	139.35
790.595	144.93
790.987	143.95
791.378	142.87
791.77	143.55
792.161	145.19
792.553	147.38
792.944	146.45
793.335	142.24
793.726	144.27
794.117	148.55
794.508	146.53
794.899	141.02
795.29	142.33
795.681	142.7
796.072	140.07
796.463	167.81
796.853	173.74
797.244	178.59
797.634	181
798.025	179.65
798.415	174.58
798.806	182.09
799.196	187.7
799.586	193.85
799.976	196.62
800.366	200.24
800.756	170.88
801.146	165.17
801.536	165.39
801.926	164.53
802.316	167.43
802.706	170.15
803.095	168.79
803.485	168.08
803.874	164.25
804.264	166.53
804.653	169.64
805.043	179.28
805.432	186.05
805.821	190.02
806.21	193.17
806.599	193.17
806.988	197.52
807.377	194.34
807.766	195.46
808.155	201.46
808.544	196.39
808.933	194.51
809.321	195.98
809.71	195.72
810.098	195.88
810.487	202.21
810.875	212.2
811.264	210.84
811.652	235.47
812.04	239.98
812.428	247.68
812.816	261.05
813.204	272.36
813.592	273.76
813.98	280.53
814.368	283.49
814.756	296.82
815.144	295.66
815.531	310.01
815.919	287.9
816.306	296.59
816.694	288.08
817.081	293.63
817.469	306.23
817.856	307.64
818.243	312.62
818.63	315.25
819.017	307.84
819.404	311.18
819.791	314.63
820.178	324.39
820.565	331.74
820.952	363.21
821.339	352.29
821.725	353.05
822.112	344.24
822.498	346.67
822.885	347.95
823.271	341.9
823.657	343.55
824.044	344.28
824.43	348.03
824.816	357.52
825.202	343.05
825.588	362.82
825.974	364.1
826.36	372.36
826.746	372.34
827.132	377.43
827.517	386.16
827.903	373.92
828.289	383.15
828.674	366.07
829.06	354.11
829.445	357.78
829.83	362.91
830.216	371
830.601	382.68
830.986	386.33
831.371	385.78
831.756	400.67
832.141	400.8
832.526	396.04
832.911	406.38
833.295	402.73
833.68	411.46
834.065	404.11
834.449	381.61
834.834	380.44
835.218	375.57
835.603	390.41
835.987	375.23
836.371	383.55
836.755	382.37
837.139	385.52
837.524	386.66
837.908	379.83
838.291	382.48
838.675	382.56
839.059	381
839.443	373.56
839.827	357.41
840.21	367.4
840.594	372.58
840.977	378.61
841.361	380.27
841.744	386.67
842.127	384.33
842.511	382.83
842.894	391.08
843.277	400.33
843.66	410.68
844.043	422.03
844.426	412.84
844.809	393.33
845.191	392.76
845.574	383.77
845.957	379.2
846.339	382.51
846.722	372.82
847.104	373.85
847.487	365.49
847.869	370.39
848.252	375.69
848.634	379.27
849.016	389.58
849.398	385.86
849.78	399.7
850.162	402.12
850.544	408.53
850.926	416.66
851.307	417.12
851.689	427.96
852.071	427.18
852.452	431.61
852.834	428.93
853.215	438.52
853.597	441.91
853.978	456.83
854.359	468.04
854.741	448.31
855.122	449.1
855.503	442.8
855.884	444.99
856.265	451.39
856.646	445.65
857.026	440.66
857.407	441.07
857.788	447.44
858.169	439.84
858.549	435.25
858.93	448.98
859.31	452.15
859.69	464.02
860.071	454.42
860.451	450.17
860.831	439.53
861.211	455.06
861.591	459.89
861.971	448.2
862.351	456.32
862.731	445.18
863.111	453.18
863.491	467.65
863.87	480.35
864.25	488.2
864.629	489.03
865.009	496.71
865.388	521.52
865.768	557.7
866.147	571.63
866.526	547.79
866.905	561.22
867.284	578.29
867.663	535.86
868.042	511.44
868.421	507
868.8	500.68
869.179	516.25
869.558	485.38
869.936	453.58
870.315	456.05
870.693	473.27
871.072	504.6
871.45	484.6
871.828	497.66
872.207	529.76
872.585	524.1
872.963	535.84
873.341	521.47
873.719	525.27
874.097	513.34
874.475	517.44
874.853	517.67
875.23	501.33
875.608	524.63
875.986	566.37
876.363	537.89
876.741	570.98
877.118	575.26
877.495	603.85
877.873	609.31
878.25	644.21
878.627	618.95
879.004	633.53
879.381	622.64
879.758	612.43
880.135	565.83
880.512	600.26
880.889	565.16
881.265	547.28
881.642	527.85
882.019	531.16
882.395	530.77
882.772	564.04
883.148	534.92
883.524	536.16
883.901	528.13
884.277	534.2
884.653	525.86
885.029	553.46
885.405	627.47
885.781	624.37
886.157	596.14
886.532	591.33
886.908	585.99
887.284	647.5
887.659	668.65
888.035	687.15
888.411	704.92
888.786	716.08
889.161	727.81
889.537	697.05
889.912	722.99
890.287	726.73
890.662	743.44
891.037	718.46
891.412	675.34
891.787	663.41
892.162	641.7
892.536	656.31
892.911	636.92
893.286	622.57
893.66	599.27
894.035	611.27
894.409	654.88
894.784	633.32
895.158	645.21
895.532	683.83
895.906	710.76
896.281	733.25
896.655	732.29
897.029	830.62
897.402	868.61
897.776	957.68
898.15	959.55
898.524	959.92
898.898	969.81
899.271	1105.87
899.645	962.06
900.018	920.91
900.392	944.24
900.765	929.89
901.138	856.8
901.511	828.84
901.884	779.29
902.258	723.46
902.631	753.32
903.003	859.6
903.376	766.32
903.749	854.61
904.122	904.68
904.495	987.95
904.867	1002.58
905.24	878.78
905.612	825.53
905.985	830.74
906.357	859.72
906.729	819.97
907.102	715.24
907.474	689.71
907.846	692.81
908.218	688.07
908.59	630.28
908.962	616.3
909.334	666.06
909.705	712.6
910.077	692.49
910.449	717.64
910.82	736.17
911.192	805.83
911.563	848.33
911.935	895.8
912.306	871.89
912.677	883.85
913.048	887.14
913.419	952.23
913.79	934.88
914.161	995.34
914.532	975.78
914.903	893.72
915.274	838.74
915.645	817.15
916.015	711.82
916.386	692.6
916.756	738.21
917.127	750.08
917.497	673.93
917.868	740.83
918.238	711.17
918.608	709.05
918.978	730.38
919.348	769.59
919.718	803.51
920.088	792.66
920.458	838.67
920.828	861.78
921.198	822.72
921.567	869.81
921.937	682.75
922.306	665.75
922.676	722.64
923.045	625.18
923.415	607.61
923.784	543.67
924.153	568.11
924.522	574.55
924.891	545.77
925.26	580.57
925.629	566.14
925.998	635.29
926.367	630.66
926.736	635.28
927.104	721.08
927.473	757.61
927.842	912.95
928.21	880.37
928.578	893.31
928.947	859.26
929.315	865.99
929.683	1056.76
930.051	1072.81
930.42	1253.59
930.788	1035.76
931.156	1043.3
931.523	1040.81
931.891	973.53
932.259	966.42
932.627	1148.73
932.994	1593.92
933.362	1376.39
933.729	1169.19
934.097	1131.36
934.464	975.29
934.831	1082.83
935.199	1077.3
935.566	1019.4
935.933	1002.37
936.3	1185.24
936.667	914.36
937.034	965.67
937.401	919.61
937.767	802.71
938.134	704.97
938.501	967.34
938.867	1087.49
939.234	1804.5
939.6	1471.6
939.967	1705.35
940.333	1183.35
940.699	978.85
941.065	638.05
941.431	859.93
941.798	910.05
942.163	1231.39
942.529	752.55
942.895	653.75
943.261	434.92
943.627	596.83
943.992	524.43
944.358	513.83
944.723	566.75
945.089	548.08
945.454	513.17
945.82	501.32
946.185	464.7
946.55	569.35
946.915	511.62
947.28	584.22
947.645	513.23
948.01	499.4
948.375	537.83
948.74	599.41
949.104	690.14
949.469	889.05
949.834	1555.27
950.198	1641.66
950.562	1000.36
950.927	871.55
951.291	1043.67
951.655	886.61
952.02	754.2
952.384	578.77
952.748	533.05
953.112	599.43
953.476	543.91
953.839	504.73
954.203	513
954.567	623.51
954.931	926.28
955.294	823.39
955.658	819.78
956.021	1448.17
956.385	2299.02
956.748	3400.88
957.111	4678.49
957.474	5068.89
957.837	5606.01
958.2	3839.64
958.563	1385.77
958.926	974.9
959.289	1407.95
959.652	1658.26
960.015	1239.21
960.377	1843.9
960.74	2071.61
961.102	3545.13
961.465	4130.62
961.827	2867.63
962.189	5549.38
962.552	3925.52
962.914	3154.91
963.276	2055.8
963.638	1631.13
964	1590.94
964.362	1104.34
964.724	1013.15
965.085	735.6
965.447	588.44
965.809	514.57
966.17	498
966.532	499.36
966.893	455.52
967.255	409.09
967.616	475.1
967.977	394.67
968.338	411.27
968.699	372.06
969.061	367.77
969.421	383.31
969.782	431.99
970.143	395.66
970.504	465.09
970.865	557.35
971.225	614.39
971.586	599.35
971.946	800.8
972.307	679.45
972.667	841.32
973.027	876.44
973.388	1025.06
973.748	725.9
974.108	804.43
974.468	950.65
974.828	798.75
975.188	564.58
975.548	519.76
975.907	460.46
976.267	516.01
976.627	470.93
976.986	462.63
977.346	425.65
977.705	399.59
978.064	348.3
978.424	312.03
978.783	253.7
979.142	292.26
979.501	297.5
979.86	321.78
980.219	301.09
980.578	342.52
980.937	383.35
981.296	367.64
981.654	385.88
982.013	539.68
982.371	734.5
982.73	773.51
983.088	889.42
983.447	933.73
983.805	1345.2
984.163	2920.31
984.521	3191.88
984.879	4541.65
985.237	-7385.94
985.595	7305.86
985.953	1804.98
986.311	910.87
986.669	513.3
987.026	434.31
987.384	503.73
987.741	455.54
988.099	413.5
988.456	355.73
988.814	392.62
989.171	329.98
989.528	264.17
989.885	265.49
990.242	247.11
990.599	271.91
990.956	213.37
991.313	168.96
991.67	160.13
992.027	213.41
992.383	190.07
992.74	167.61
993.096	182.52
993.453	199.09
993.809	216.63
994.165	275.79
994.522	343.83
994.878	380.61
995.234	467.72
995.59	442.44
995.946	311.48
996.302	369.81
996.658	399.04
997.013	426.87
997.369	579.56
997.725	778.12
998.08	481.98
998.436	441.34
998.791	638.34
999.147	672.65
999.502	730.12
999.857	510.47
1000.212	786.43
1000.567	1090.03
1000.922	680.79
1001.277	395.55
1001.632	276.71
1001.987	385.73
1002.342	308.13
1002.696	249.78
1003.051	228.53
1003.406	307.89
1003.76	284.07
1004.114	290.65
1004.469	286.23
1004.823	230.18
1005.177	207.11
1005.531	161.32
1005.885	160.06
1006.239	192.32
1006.593	278.09
1006.947	368.73
1007.301	254.51
1007.655	284.9
1008.008	224.78
1008.362	236.78
1008.715	334.21
1009.069	315.1
1009.422	600.36
1009.776	1136
1010.129	715.13
1010.482	464.95
1010.835	316.93
1011.188	568.04
1011.541	549.37
1011.894	-2775.06
1012.247	7424.45
1012.6	450.33
1012.952	365.67
1013.305	74.93
1013.657	66.93
1014.01	68.25
1014.362	63.22
1014.715	142.73
1015.067	147
1015.419	150.12
1015.771	145.17
1016.123	149.04
1016.475	164.66
1016.827	164.28
1017.179	204.44
1017.531	190.89
1017.883	195.23
1018.234	273.75
1018.586	294.17
1018.938	383.84
1019.289	543.01
1019.64	577.12
1019.992	481.88
1020.343	397.2
1020.694	389.24
1021.045	333.84
1021.396	367.17
1021.747	434.17
1022.098	359.17
1022.449	268.81
1022.8	211.95
1023.151	183.98
1023.501	193.85
1023.852	203.59
1024.202	246.47
1024.553	242.5
1024.903	273.43
1025.253	295.08
1025.604	270.48
1025.954	352.52
1026.304	361.57
1026.654	398.86
1027.004	461.97
1027.354	600.8
1027.703	707.16
1028.053	792.44
1028.403	1409.54
1028.753	1636.36
1029.102	1230.02
1029.452	2969.13
1029.801	28.11
1030.15	82.89
1030.499	23.38
897.758	2776.18
901.051	2731.87
904.343	2768.13
907.636	2766.41
910.928	2832.91
914.22	2738.15
917.511	2745.69
920.803	2809.51
924.094	2831.99
927.384	2804.82
930.675	2767.83
933.965	2718.1
937.255	2725.49
940.544	2692.13
943.834	2620.09
947.123	2565.45
950.411	2662.48
953.7	2632.31
956.988	2598.13
960.276	2535.75
963.563	2621.93
966.851	2611.35
970.138	2672.82
973.424	2661.11
976.711	2609.72
979.997	2753.58
983.283	2784.12
986.568	2683.71
989.853	2707.59
993.138	2732.4
996.423	2815.11
999.708	2744.99
1002.992	2818.25
1006.275	2640.96
1009.559	2694.54
1012.842	2810.16
1016.125	2740.24
1019.408	2718.85
1022.69	2810.32
1025.972	2820.64
1029.254	2792.51
1032.536	2718.9
1035.817	2749.03
1039.098	2683.9
1042.379	2841.44
1045.659	2831.29
1048.939	2761.25
1052.219	2779.18
1055.498	2794.89
1058.778	2773.76
1062.057	2762.25
1065.335	2781.92
1068.614	2803
1071.892	2779.25
1075.17	2859.31
1078.447	2840.34
1081.724	2830.13
1085.001	2869.55
1088.278	2843.97
1091.554	2853.71
1094.83	2852.89
1098.106	2872.24
1101.382	2920.39
1104.657	2918.81
1107.932	2913.91
1111.206	2873.92
1114.481	2834.05
1117.755	2837.69
1121.029	2808.36
1124.302	2858.28
1127.575	2806.61
1130.848	2791.59
1134.121	2751.4
1137.393	2696.48
1140.665	2762.8
1143.937	2735.81
1147.208	2701.54
1150.48	2733.72
1153.75	2716.78
1157.021	2758.49
1160.291	2724.52
1163.561	2766.27
1166.831	2761.21
1170.101	2793.04
1173.37	2773.03
1176.639	2714.23
1179.907	2778.01
1183.176	2776.02
1186.444	2785.61
1189.711	2813.71
1192.979	2820.29
1196.246	2783.16
1199.513	2799.11
1202.78	2795.26
1206.046	2804.56
1209.312	2827.87
1212.578	2855.85
1215.843	2802.18
1219.108	2780.32
1222.373	2803.84
1225.638	2766.19
1228.902	2750.29
1232.166	2720.19
1235.43	2703.58
1238.693	2725.17
1241.956	2725.49
1245.219	2761.94
1248.482	2755.37
1251.744	2751.87
1255.006	2902.91
1258.268	2861.53
1261.529	2805.41
1264.79	2813.62
1268.051	2912.23
1271.312	2927.82
1274.572	2887.74
1277.832	2877.84
1281.092	2868.32
1284.351	2837.04
1287.61	2813.06
1290.869	2727.09
1294.128	2695.64
1297.386	2796.04
1300.644	2779.95
1303.902	2792.7
1307.159	2656.64
1310.416	2710.84
1313.673	2734.02
1316.93	2718.86
1320.186	2767.62
1323.442	2811.85
1326.697	2797.53
1329.953	2797.88
1333.208	2811.96
1336.463	2799.69
1339.717	2736.49
1342.972	2878.17
1346.226	2859.41
1349.479	2790.82
1352.733	2761.11
1355.986	2792.07
1359.238	2772.48
1362.491	2775.9
1365.743	2781.66
1368.995	2781.32
1372.247	2800.53
1375.498	2826.71
1378.749	2835.85
1382	2795.07
1385.251	2851.58
1388.501	2819.89
1391.751	2800.79
1395	2777.3
1398.25	2813.06
1401.499	2819.13
1404.748	2745.7
1407.996	2735.74
1411.244	2721.41
1414.492	2700.79
1417.74	2681.98
1420.987	2694.81
1424.234	2750.85
1427.481	2735.35
1430.728	2792.74
1433.974	2765.78
1437.22	2786.32
1440.465	2786.67
1443.711	2743.38
1446.956	2781.18
1450.201	2769.55
1453.445	2815.06
1456.689	2789.52
1459.933	2802.15
1463.177	2831.79
1466.42	2802.84
1469.663	2781.95
1472.906	2767.22
1476.148	2848.42
1479.391	2804.18
1482.633	2773.52
1485.874	2783.66
1489.115	2763.39
1492.356	2767.92
1495.597	2742.29
1498.838	2741.84
1502.078	2706.05
1505.318	2651.99
1508.557	2694.65
1511.797	2662.31
1515.036	2734.13
1518.274	2723.59
1521.513	2698.09
1524.751	2718.59
1527.989	2728.22
1531.227	2736.59
1534.464	2721.68
1537.701	2748.42
1540.938	2767.62
1544.174	2719.25
1547.41	2717.23
1550.646	2756.81
1553.882	2784.14
1557.117	2834.53
1560.352	2847.19
1563.587	2803.52
1566.821	2759.97
1570.055	2801
1573.289	2766.04
1576.523	2841.57
1579.756	2843.64
1582.989	2862.45
1586.222	2818.71
1589.454	2861.81
1592.686	2827.78
1595.918	2852.28
1599.15	2837.09
1602.381	2920.22
1605.612	2867.74
1608.843	2956.97
1612.073	2867.71
1615.303	2853.35
1618.533	2836.98
1621.762	2848.28
1624.992	2835.69
1628.221	2818.59
1631.449	2803.14
1634.678	2864.33
1637.906	2814.59
1641.134	2853.9
1644.361	2808.48
1647.588	2802.22
1650.815	2816.08
1654.042	2802.78
1657.269	2826.09
1660.495	2773.04
1663.72	2803.1
1666.946	2769.77
1670.171	2710.03
1673.396	2686.17
1676.621	2679.51
1679.845	2705.54
1683.069	2728.32
1686.293	2774.56
1689.517	2740.12
1692.74	2668.48
1695.963	2701.28
1699.185	2706.89
1702.408	2681.88
1705.63	2726.33
1708.852	2737.03
1712.073	2710.46
1715.294	2691.64
1718.515	2754.9
1721.736	2696.98
1724.956	2701.15
1728.176	2729.08
1731.396	2750.49
1734.616	2744.34
1737.835	2771.5
1741.054	2751.35
1744.272	2743.78
1747.491	2774.2
1750.709	2834.98
1753.927	2732.08
1757.144	2785.6
1760.361	2817.93
1763.578	2818.72
1766.795	2757.91
1770.011	2772.47
1773.227	2814.06
1776.443	2851.94
1779.658	2898.05
1782.874	2840.74
1786.089	2817.86
1789.303	2821.57
1792.518	2829.95
1795.732	2821.44
1798.945	2826.08
1802.159	2878.74
1805.372	2771.28
1808.585	2758.11
1811.797	2756.75
1815.01	2811.28
1818.222	2811.77
1821.434	2784.19
1824.645	2846.02
1827.856	2825.41
1831.067	2861.51
1834.278	2827.83
1837.488	2812.34
1840.698	2967.77
1843.908	2890.79
1847.117	2854.5
1850.326	2732.55
1853.535	2849.26
1856.744	2883.68
1859.952	2799.1
1863.16	2802.18
1866.368	2829.79
1869.575	2935.09
1872.782	2828.61
1875.989	2774.87
1879.196	2869.3
1882.402	2867.99
1885.608	2917.15
1888.814	2814.77
1892.019	2707.99
1895.224	2765.89
1898.429	2753.04
1901.634	2732.72
1904.838	2713.13
1908.042	2765.63
1911.246	2772.15
1914.449	2698.08
1917.652	2702.51
1920.855	2682.05
1924.058	2737.67
1927.26	2774.98
1930.462	2802.38
1933.664	2826.34
1936.865	2760.47
1940.066	2766.46
1943.267	2712.31
1946.467	2729.77
1949.668	2758.04
1952.868	2823.85
1956.067	2799.53
1959.267	2725.73
1962.466	2754.53
1965.665	2738.53
1968.863	2734.71
1972.061	2753.94
1975.259	2753.19
1978.457	2835
1981.654	2789.97
1984.852	2791.2
1988.048	2717.95
1991.245	2723.16
1994.441	2810.4
1997.637	2799.04
2000.833	2782.88
2004.028	2823.26
2007.223	2874.9
2010.418	2850.37
2013.613	2811.77
2016.807	2777.9
2020.001	2788.16
2023.194	2833.68
2026.388	2811.12
2029.581	2753.33
2032.774	2800.45
2035.966	2802.71
2039.158	2729.18
2042.35	2756.52
2045.542	2684.38
2048.733	2785.24
2051.924	2816.19
2055.115	2843.57
2058.306	2785.18
2061.496	2843.53
2064.686	2913
2067.875	2827.09
2071.065	2844.74
2074.254	2875.26
2077.442	2827.22
2080.631	2918
2083.819	2802.96
2087.007	2779.42
2090.195	2750.34
2093.382	2786.83
2096.569	2765.75
2099.756	2717.09
2102.942	2738.48
2106.128	2743.59
2109.314	2731.45
2112.5	2688.58
2115.685	2668.53
2118.87	2678.36
2122.055	2746.04
2125.239	2706.57
2128.424	2679.77
2131.608	2792.61
2134.791	2770.37
2137.974	2833.31
2141.157	2817.03
2144.34	2767.56
2147.523	2787.82
2150.705	2796.64
2153.887	2778.02
2157.068	2722.35
2160.25	2731.59
2163.431	2771.44
2166.611	2712.94
2169.792	2728.66
2172.972	2617.5
2176.152	2704.13
2179.331	2740.36
2182.511	2719.21
2185.69	2751.01
2188.868	2743.63
2192.047	2807.74
2195.225	2790.5
2198.403	2743.55
2201.58	2734.72
2204.758	2733.66
2207.935	2819.23
2211.111	2700.72
2214.288	2686.97
2217.464	2727.63
2220.64	2700.71
2223.815	2761.89
2226.991	2677.6
2230.166	2698.24
2233.34	2720.72
2236.515	2752.23
2239.689	2830.4
2242.863	2773.62
2246.036	2828.92
2249.209	2831.75
2252.382	2868.7
2255.555	2853.27
2258.727	2784.79
2261.9	2828.2
2265.071	2821.09
2268.243	2827.55
2271.414	2754.35
2274.585	2706.83
2277.756	2776.57
2280.926	2735.67
2284.096	2777.16
2287.266	2680.24
2290.436	2738.61
2293.605	2770.06
2296.774	2799.69
2299.942	2825.69
2303.111	2839.86
2306.279	2889.39
2309.447	2877.16
2312.614	2853.25
2315.781	2872.14
2318.948	2840.99
2322.115	2882.56
2325.281	2781.57
2328.447	2803.2
2331.613	2779.76
2334.779	2746.33
2337.944	2755.9
2341.109	2750.54
2344.274	2735.8
2347.438	2697.5
2350.602	2724.84
2353.766	2741.35
2356.929	2725.55
2360.092	2771.91
2363.255	2722.34
2366.418	2645.98
2369.58	2770.41
2372.742	2534.92
2375.904	2556.37
2379.066	2528.95
2382.227	2569.13
2385.388	2528.18
2388.548	2451.97
2391.709	2509.39
2394.869	2487.65
2398.029	2594.27
2401.188	2613.92
2404.347	2541.96
2407.506	2700.49
2410.665	2723.68
2413.823	2733.39
2416.981	2686.65
2420.139	2722.25
2423.296	2774.85
2426.453	2749.25
2429.61	2773.24
2432.767	2698.61
2435.923	2735.25
2439.079	2692.22
2442.235	2744.22
2445.391	2670.89
2448.546	2697.86
2451.701	2751.06
2454.855	2716.92
2458.009	2775.21
2461.163	2780.12
2464.317	2732.95
2467.471	2771.09
2470.624	2812.38
2473.777	2788.35
2476.929	2802.42
2480.082	2827.51
2483.234	2791.48
2486.385	2746.06
2489.537	2738.62
2492.688	2694.45
2495.839	2708.38
2498.989	2720.2
2502.14	2703.08
2505.29	2682.72
2508.439	2709.67
2511.589	2626.48
2514.738	2640.27
2517.887	2674.22
2521.035	2737.41
2524.183	2724.31
2527.331	2702.73
2530.479	2675.73
2533.627	2688.23
