Data from N_3_DEC_NC_4N_Splice17_13-07-13-548.txt Node
Date: Sat Mar 14 13:07:13 EDT 2020
User: sa697716
Spectrometer: FLMS03696
Trigger mode: 0
Integration Time (sec): 3.180400E-1
Scans to average: 20
Electric dark correction enabled: true
Nonlinearity correction enabled: true
Boxcar width: 5
XAxis mode: Wavelengths
Number of Pixels in Spectrum: 2048
>>>>>Begin Spectral Data<<<<<
187.83	-243684.15
188.298	1805.61
188.766	1045.29
189.233	907.72
189.701	1320.39
190.169	1879.02
190.636	735.56
191.104	607.64
191.571	133.62
192.039	-36.03
192.506	-73.07
192.974	551.75
193.441	-1092.49
193.908	-376.11
194.375	-91.86
194.842	10.35
195.31	125.37
195.777	167.88
196.244	368.49
196.711	419.93
197.177	514.91
197.644	710.39
198.111	1249.58
198.578	1777.26
199.045	1419.58
199.511	2281.51
199.978	2667.24
200.445	2269.12
200.911	2509.46
201.378	2763.78
201.844	2518.86
202.31	4292.66
202.777	4515.85
203.243	2500.97
203.709	2391.04
204.176	2855.96
204.642	2377.83
205.108	2198.36
205.574	1779.17
206.04	1617.79
206.506	1542.28
206.972	1457.61
207.438	1413.52
207.903	1582.23
208.369	1379.99
208.835	1374.05
209.301	1439.9
209.766	1444.31
210.232	1427.01
210.697	1765.16
211.163	2165.92
211.628	3205.91
212.094	2694.89
212.559	3300.91
213.024	2070.05
213.49	2553.39
213.955	2475.71
214.42	2407.77
214.885	2247.51
215.35	2152.31
215.815	2087.75
216.28	2215.34
216.745	1802.33
217.21	1944.62
217.675	1755.71
218.14	1959.57
218.604	2158.24
219.069	2431.99
219.534	2534.06
219.998	2916.23
220.463	3495.5
220.927	4221.96
221.392	3939.88
221.856	3965.69
222.32	4942.64
222.785	6069.87
223.249	7579.09
223.713	8386.81
224.177	8341.23
224.642	10607.36
225.106	12986.85
225.57	14104.24
226.034	10487.55
226.497	15873.5
226.961	14311.27
227.425	16642.86
227.889	18463.39
228.353	18426.75
228.816	37972.87
229.28	36363.52
229.744	30668.3
230.207	18635.05
230.671	18320.64
231.134	30196.96
231.597	34895.79
232.061	34802.55
232.524	33858.1
232.987	23262.05
233.45	20904.17
233.914	18731.75
234.377	19135.59
234.84	17495.75
235.303	20588.1
235.766	22948.4
236.229	23666.65
236.691	14874.1
237.154	16689.63
237.617	12548.37
238.08	12830.81
238.542	14998.36
239.005	10737.45
239.468	10646.12
239.93	10022.28
240.393	9114.08
240.855	7996.84
241.317	8206.27
241.78	9965.06
242.242	10312.34
242.704	11138.13
243.166	9710.1
243.629	8839.62
244.091	10171.25
244.553	11152.34
245.015	12003.19
245.477	15509.84
245.939	22755.26
246.4	24109.87
246.862	23450.53
247.324	22100.08
247.786	24694.09
248.247	32280.26
248.709	33279.78
249.17	24888.12
249.632	23500.24
250.093	27241.66
250.555	23515.4
251.016	14344.64
251.477	13629.38
251.939	14711.33
252.4	15423.76
252.861	18342.29
253.322	17119.3
253.783	20363.44
254.244	26429.56
254.705	20816.11
255.166	18482.07
255.627	18219.35
256.088	25742.94
256.549	27336.9
257.009	23526.96
257.47	28541.89
257.931	23274.02
258.391	17435.94
258.852	17951.87
259.312	18840.22
259.773	23253.29
260.233	19720
260.694	16639.16
261.154	18876.54
261.614	15183.48
262.074	13596.21
262.534	14142.46
262.994	13333.19
263.455	17760.22
263.915	14987.49
264.374	14099.15
264.834	15408.62
265.294	17054.89
265.754	17689.13
266.214	16716.7
266.673	15648.94
267.133	19718.29
267.593	19555.19
268.052	23935.59
268.512	20818.22
268.971	25124.47
269.431	27539.99
269.89	24666.72
270.349	36955.05
270.809	41184.78
271.268	37064.24
271.727	83067.55
272.186	53903.99
272.645	40446.3
273.104	29161.83
273.563	42240.76
274.022	33213.2
274.481	28289.29
274.94	21815.67
275.399	16212.7
275.857	18889.92
276.316	25563.84
276.775	22759.31
277.233	22426.03
277.692	21020.95
278.15	23821.4
278.609	24559.26
279.067	22721.73
279.525	21117.8
279.984	27245.62
280.442	32801.74
280.9	32356.34
281.358	21291.97
281.816	19852
282.274	19437.1
282.732	20080.74
283.19	20166.11
283.648	17371.9
284.106	18526.51
284.564	18840.63
285.021	17510.2
285.479	13046.25
285.937	11852.96
286.394	10424.87
286.852	10736.36
287.309	11281.25
287.767	10920.66
288.224	10402.04
288.682	11424.84
289.139	12540.32
289.596	11491.69
290.053	11937.3
290.511	15052.95
290.968	18309.21
291.425	24815.83
291.882	20721.99
292.339	18070.97
292.796	17925.79
293.252	16884.44
293.709	13442.31
294.166	12060.8
294.623	13328.02
295.079	12774.19
295.536	12860.44
295.992	11666.76
296.449	11548.69
296.905	11976.82
297.362	11480.95
297.818	12065.27
298.274	12521.3
298.731	12726.88
299.187	12596.36
299.643	13537.4
300.099	16388.65
300.555	17952.51
301.011	15001.81
301.467	14464.52
301.923	16942.3
302.379	16555.07
302.835	16280.23
303.291	16298
303.746	18558.89
304.202	23445.46
304.658	23516.66
305.113	15815.11
305.569	15504.3
306.024	16507.24
306.479	15714.07
306.935	13245.16
307.39	14444.2
307.845	13324.85
308.301	13433.88
308.756	13102.04
309.211	12633.45
309.666	12958.37
310.121	16120.3
310.576	16357.76
311.031	16277.81
311.486	18600.64
311.94	18588.69
312.395	24914.52
312.85	46896.92
313.305	229818.8
313.759	1194397.98
314.214	86516.97
314.668	68689.11
315.123	57696.7
315.577	20707.42
316.032	18392.3
316.486	23115.37
316.94	18228.15
317.394	12709.93
317.849	9873.97
318.303	9375.73
318.757	8841.06
319.211	9781.82
319.665	8545.2
320.119	8675.01
320.572	12445.08
321.026	11650.06
321.48	9661.14
321.934	10532.95
322.387	10532.9
322.841	11374.39
323.295	10230.49
323.748	11749.55
324.202	11934.93
324.655	14346.8
325.108	20065.3
325.562	14207.4
326.015	16886.71
326.468	12817.37
326.921	14355.92
327.374	13400.51
327.827	13978.92
328.28	15847.28
328.733	10637.84
329.186	9357.27
329.639	8913.86
330.092	7497.85
330.545	7136.61
330.997	7191.83
331.45	7870.88
331.903	9242.68
332.355	15868.22
332.808	15417.67
333.26	12708
333.713	13808.36
334.165	13924.83
334.617	18587.22
335.069	15002.86
335.522	27079.42
335.974	30040.83
336.426	27397.8
336.878	18928.92
337.33	9633.3
337.782	9408.33
338.234	11798.95
338.686	14117.76
339.137	16695.14
339.589	15748.5
340.041	12391.46
340.493	10680.2
340.944	10922.82
341.396	11793.52
341.847	9953.02
342.299	11767.89
342.75	14397.14
343.201	12559.2
343.653	14458.47
344.104	17747.55
344.555	13981.4
345.006	21698.2
345.457	16686.69
345.908	13297.13
346.359	12510.04
346.81	10175.45
347.261	10702.39
347.712	10524.18
348.163	11275.48
348.613	11445.42
349.064	10690.07
349.515	9353.44
349.965	9598.34
350.416	11519.6
350.866	12620.79
351.317	14247.52
351.767	23648.87
352.217	29893.48
352.668	24825.01
353.118	22783.29
353.568	21888.59
354.018	17342.44
354.468	18316.34
354.918	13149.74
355.368	11500.1
355.818	16267.65
356.268	46819.01
356.718	196028
357.168	48888.6
357.617	24569.8
358.067	27243.67
358.517	25538.36
358.966	30034.68
359.416	33785.34
359.865	36595.65
360.315	43581.86
360.764	20310.29
361.213	11403.51
361.663	10769.25
362.112	13265.88
362.561	21425.49
363.01	16218.11
363.459	13682.91
363.908	14801.68
364.357	12596.35
364.806	21247.41
365.255	14584.76
365.703	13413.73
366.152	13441.89
366.601	10939.34
367.05	8911.08
367.498	8092.16
367.947	8467.29
368.395	8801.3
368.844	7796.43
369.292	9351.92
369.74	6467.92
370.189	9933.75
370.637	11635.03
371.085	10027.99
371.533	12180.3
371.981	11727.67
372.429	11185.73
372.877	11652.28
373.325	9769.19
373.773	9932.34
374.221	8840.73
374.669	10975.79
375.116	9482.4
375.564	9546.94
376.012	10693.74
376.459	8837.31
376.907	10544.24
377.354	12764.61
377.801	11910.78
378.249	13694.14
378.696	17527.68
379.143	21301.17
379.591	22693.68
380.038	38574.99
380.485	27958.58
380.932	30183.79
381.379	27666.43
381.826	20449.01
382.273	14554.12
382.72	12711.68
383.166	12404.65
383.613	8074.27
384.06	7284.47
384.506	8441.09
384.953	6183.22
385.4	6221.41
385.846	5463.52
386.292	5316.39
386.739	5200.76
387.185	5140.93
387.631	5157.26
388.078	5020.4
388.524	5372.08
388.97	4966.82
389.416	4156.5
389.862	4428.53
390.308	4205.51
390.754	4284.59
391.2	4666.39
391.645	4783.23
392.091	4596.04
392.537	4457.48
392.983	4453.82
393.428	4403.47
393.874	4723.82
394.319	4754.79
394.765	4530.39
395.21	4667.51
395.655	4360.62
396.101	4086.99
396.546	3697.25
396.991	3736.34
397.436	3471.88
397.881	3362.25
398.326	3175.8
398.771	3019.27
399.216	2642
399.661	2383.72
400.106	2388.38
400.551	2462.01
400.995	2207.72
401.44	2185.71
401.885	2052.74
402.329	2072.19
402.774	1989.37
403.218	1937.21
403.663	1862.45
404.107	1916.6
404.551	1934.55
404.995	1767.97
405.44	1701.99
405.884	1731.99
406.328	1673.66
406.772	1666.52
407.216	1518.35
407.66	1465.66
408.104	1385.27
408.547	1295.8
408.991	1252.19
409.435	1200.36
409.879	1183.79
410.322	1166.15
410.766	1126.31
411.209	1073.27
411.653	1028.81
412.096	1009.77
412.54	1010.65
412.983	1004.87
413.426	1007.51
413.869	1004.56
414.312	987.93
414.756	953.59
415.199	909.56
415.642	882.95
416.085	883.18
416.527	878.44
416.97	890.96
417.413	849.1
417.856	838.45
418.298	831.61
418.741	826.33
419.184	821.53
419.626	849.32
420.069	849.74
420.511	855.11
420.953	837.9
421.396	832.21
421.838	812.1
422.28	827.61
422.722	833.9
423.164	843.8
423.606	830.15
424.048	830.16
424.49	792.45
424.932	787.25
425.374	775.13
425.816	786.36
426.258	798.82
426.699	805.32
427.141	793.31
427.582	803.65
428.024	798.5
428.465	790.12
428.907	769.58
429.348	758.13
429.789	760.87
430.231	744.27
430.672	754.68
431.113	736.22
431.554	725.38
431.995	706.26
432.436	681.91
432.877	667.33
433.318	658.01
433.759	653.05
434.2	653.17
434.64	643.39
435.081	645.56
435.522	612.53
435.962	589.06
436.403	578.41
436.843	584.17
437.284	569.35
437.724	552.62
438.164	552.37
438.604	539.98
439.045	519.51
439.485	499.11
439.925	486.39
440.365	471.97
440.805	466.28
441.245	459.09
441.685	443.39
442.125	439.01
442.564	440.96
443.004	431.48
443.444	430.9
443.883	431.88
444.323	425.98
444.762	425.57
445.202	430.58
445.641	438.63
446.081	433.92
446.52	436.22
446.959	432.14
447.398	422.61
447.837	416.82
448.276	407.17
448.716	410.54
449.154	413.48
449.593	404.88
450.032	405.06
450.471	395.32
450.91	394.16
451.349	392.58
451.787	390.92
452.226	395.66
452.664	395.72
453.103	396.31
453.541	392.77
453.98	393.26
454.418	395.52
454.856	388.58
455.295	387.82
455.733	392.34
456.171	394.47
456.609	393.54
457.047	392.11
457.485	398.39
457.923	400.56
458.361	395.44
458.798	396.37
459.236	393.54
459.674	395.2
460.111	396.79
460.549	391.54
460.987	389.65
461.424	387.7
461.862	386.79
462.299	379.53
462.736	379.08
463.173	380.27
463.611	376.57
464.048	377.1
464.485	379.99
464.922	376.44
465.359	374.56
465.796	375.47
466.233	374.71
466.67	372.83
467.106	374.08
467.543	369.28
467.98	363.93
468.416	354.69
468.853	351.35
469.29	340.71
469.726	337.1
470.162	328.01
470.599	319.42
471.035	315.05
471.471	306.58
471.907	302.8
472.344	300.81
472.78	302.92
473.216	305.3
473.652	300.93
474.088	299.85
474.523	298.62
474.959	301.35
475.395	298.28
475.831	297.41
476.266	298.71
476.702	297.5
477.138	294.01
477.573	292.99
478.008	292.16
478.444	294.72
478.879	298.56
479.314	300.76
479.75	300.61
480.185	301.17
480.62	302.56
481.055	303.43
481.49	305.67
481.925	310.22
482.36	316.23
482.795	324.51
483.229	331.88
483.664	337.57
484.099	338.47
484.534	344.05
484.968	348.82
485.403	350.5
485.837	349.72
486.271	349.21
486.706	349.59
487.14	344.92
487.574	339.78
488.009	336.48
488.443	333.66
488.877	337.37
489.311	338.35
489.745	342.16
490.179	345.67
490.613	354.56
491.046	357.02
491.48	359.66
491.914	360.99
492.348	364.44
492.781	368.23
493.215	370.04
493.648	370.42
494.082	373.49
494.515	374.65
494.948	379.89
495.382	381.97
495.815	385.75
496.248	390.26
496.681	397.93
497.114	404.74
497.547	410.99
497.98	420.62
498.413	427.15
498.846	434.84
499.279	440.94
499.711	444.05
500.144	447.43
500.577	456.06
501.009	464.13
501.442	472.11
501.874	476.2
502.306	479.68
502.739	488.09
503.171	498.41
503.603	503.14
504.036	511.85
504.468	518.74
504.9	527.83
505.332	533.86
505.764	539.77
506.196	547.24
506.627	558.93
507.059	570.7
507.491	577.07
507.923	579.59
508.354	592.77
508.786	602.48
509.217	617.34
509.649	630.78
510.08	647.11
510.512	661.63
510.943	675.36
511.374	685.93
511.805	702.7
512.237	719.39
512.668	744.34
513.099	765.64
513.53	787.58
513.961	805.39
514.391	830.92
514.822	857.91
515.253	887.07
515.684	907.76
516.114	932.39
516.545	951.8
516.975	974.15
517.406	989.95
517.836	994.72
518.267	1002.71
518.697	1019.64
519.127	1025.55
519.558	1034.49
519.988	1039.66
520.418	1050.35
520.848	1065.95
521.278	1075.94
521.708	1107.87
522.138	1121.55
522.567	1147.86
522.997	1170.31
523.427	1184.82
523.857	1201.17
524.286	1211.62
524.716	1225.81
525.145	1243.67
525.575	1255.6
526.004	1268.19
526.433	1250.65
526.863	1252.13
527.292	1247.53
527.721	1253.66
528.15	1259.42
528.579	1261.08
529.008	1271.7
529.437	1291.53
529.866	1303.58
530.295	1317.78
530.724	1329.69
531.152	1351.68
531.581	1364.7
532.01	1379.88
532.438	1388.13
532.867	1400.79
533.295	1416.18
533.723	1421.09
534.152	1418.99
534.58	1419.01
535.008	1407.15
535.436	1409.54
535.865	1415.71
536.293	1426.95
536.721	1438.92
537.149	1458.43
537.576	1460.38
538.004	1469.66
538.432	1475.6
538.86	1474.69
539.287	1480.59
539.715	1491.69
540.143	1492.7
540.57	1489.83
540.998	1487.66
541.425	1470.13
541.852	1453.57
542.28	1452.28
542.707	1439.99
543.134	1429.79
543.561	1427.41
543.988	1420.52
544.415	1419.95
544.842	1415.53
545.269	1410.98
545.696	1411.94
546.123	1421.72
546.549	1414.4
546.976	1405.66
547.403	1406.01
547.829	1407.08
548.256	1408.53
548.682	1406.65
549.108	1401.36
549.535	1401.91
549.961	1403.45
550.387	1393.53
550.813	1389.74
551.24	1394.07
551.666	1394.85
552.092	1387.94
552.518	1383.34
552.943	1378.83
553.369	1384.86
553.795	1390.08
554.221	1390.72
554.646	1387.38
555.072	1395.34
555.498	1398.62
555.923	1405.86
556.349	1416.83
556.774	1422.62
557.199	1422.67
557.625	1427.03
558.05	1421.96
558.475	1428.02
558.9	1426.06
559.325	1420.18
559.75	1415.35
560.175	1409.57
560.6	1403.45
561.025	1401.58
561.449	1401.2
561.874	1404.93
562.299	1407.02
562.723	1411.14
563.148	1401.85
563.572	1404.04
563.997	1409.48
564.421	1411.11
564.846	1409.53
565.27	1410.76
565.694	1405.88
566.118	1413.96
566.542	1416.96
566.966	1409.72
567.39	1403.58
567.814	1393.23
568.238	1390.55
568.662	1392.31
569.086	1391.52
569.509	1395.2
569.933	1381.54
570.357	1374.01
570.78	1355.37
571.204	1343.87
571.627	1332.57
572.05	1328.41
572.474	1326.36
572.897	1314.56
573.32	1306.63
573.743	1297.24
574.166	1281.04
574.589	1279.1
575.012	1270.87
575.435	1267.31
575.858	1258.1
576.281	1248.52
576.704	1235.82
577.126	1224.4
577.549	1215.06
577.972	1206.16
578.394	1197.19
578.817	1191.47
579.239	1175.97
579.661	1166.21
580.084	1154.26
580.506	1144.04
580.928	1140.54
581.35	1132.47
581.772	1128.77
582.194	1117.75
582.616	1107.6
583.038	1096.1
583.46	1087.47
583.882	1085.05
584.303	1085.88
584.725	1081.98
585.147	1084.53
585.568	1091.12
585.99	1098
586.411	1102.25
586.833	1112.46
587.254	1112.57
587.675	1121.39
588.096	1128.46
588.518	1123.35
588.939	1110.97
589.36	1109.41
589.781	1098.83
590.202	1078.44
590.623	1070.52
591.043	1066.86
591.464	1056.77
591.885	1054.07
592.305	1050
592.726	1041.1
593.147	1041.73
593.567	1037.55
593.987	1030.73
594.408	1026.69
594.828	1024.2
595.248	1020.45
595.669	1006.96
596.089	1000.89
596.509	994.91
596.929	985.27
597.349	984.47
597.769	976.44
598.189	971.36
598.608	970.9
599.028	970.83
599.448	969.62
599.867	959.46
600.287	956.25
600.706	953.82
601.126	946.68
601.545	944.57
601.965	942.56
602.384	937.93
602.803	938.98
603.222	936.42
603.641	932.15
604.061	929.39
604.48	926.62
604.898	931.55
605.317	933.2
605.736	933.46
606.155	930.83
606.574	923.38
606.992	925.83
607.411	921.72
607.829	913.86
608.248	909.99
608.666	907.04
609.085	906
609.503	899.28
609.921	894.57
610.339	895.46
610.758	893.32
611.176	889.88
611.594	883.51
612.012	880.1
612.43	882.08
612.847	885
613.265	885.3
613.683	887.01
614.101	887.07
614.518	882.68
614.936	874.63
615.353	865.41
615.771	862.22
616.188	861.17
616.606	858.53
617.023	852.53
617.44	842.18
617.857	835.36
618.274	827.37
618.691	822.7
619.108	815.71
619.525	810.78
619.942	813.59
620.359	815
620.776	810.32
621.192	808.1
621.609	805.97
622.026	809.59
622.442	813.13
622.859	815.43
623.275	809.25
623.691	812.45
624.108	819.33
624.524	827.99
624.94	826.48
625.356	832.06
625.772	837.34
626.188	844.22
626.604	845.68
627.02	842.97
627.436	842.13
627.852	847.51
628.268	855.83
628.683	849.19
629.099	843.51
629.514	840.2
629.93	842.3
630.345	846.2
630.761	843.06
631.176	844.77
631.591	841.59
632.007	836.63
632.422	833.4
632.837	823.86
633.252	821.36
633.667	812.85
634.082	806.35
634.497	797.36
634.911	784.09
635.326	780.61
635.741	766.26
636.155	756.81
636.57	756.05
636.984	753.45
637.399	754.09
637.813	750.86
638.228	748.09
638.642	747.78
639.056	739.01
639.47	735.8
639.884	728.09
640.298	723.68
640.712	720.01
641.126	709.32
641.54	701.66
641.954	693.9
642.368	685.08
642.781	680.37
643.195	667.12
643.609	665.8
644.022	659.59
644.436	654.82
644.849	644.15
645.262	634.76
645.676	633.47
646.089	628.47
646.502	619.62
646.915	614.74
647.328	601.69
647.741	599.86
648.154	590.11
648.567	588.11
648.98	579.14
649.393	578.49
649.805	577.11
650.218	570.77
650.631	561.62
651.043	557.27
651.456	553.08
651.868	552.55
652.28	559.66
652.693	566.72
653.105	569.01
653.517	573.89
653.929	573.53
654.341	575.11
654.753	569.39
655.165	571.06
655.577	567.89
655.989	564.6
656.401	557.78
656.813	539.01
657.224	526.94
657.636	509.29
658.047	498.63
658.459	486.85
658.87	480.7
659.282	472.51
659.693	462.49
660.104	453.52
660.515	444.96
660.926	443.34
661.338	439.74
661.749	434.23
662.159	429.93
662.57	426.56
662.981	423.86
663.392	419.63
663.803	421.17
664.213	417.17
664.624	414.33
665.035	414.98
665.445	407.8
665.855	405.53
666.266	402.29
666.676	399.93
667.086	394.45
667.497	394.05
667.907	391.14
668.317	385.99
668.727	387.23
669.137	386.93
669.547	386.51
669.956	387.21
670.366	387.45
670.776	389.26
671.186	391.14
671.595	393.29
672.005	394.82
672.414	395.18
672.824	396.52
673.233	396.96
673.642	400.05
674.052	402.67
674.461	405.68
674.87	408.73
675.279	408.98
675.688	411.38
676.097	413.87
676.506	413.95
676.915	422.49
677.323	423.94
677.732	425.52
678.141	425.99
678.549	422.03
678.958	422.61
679.366	422.82
679.775	425.16
680.183	433.34
680.592	438.39
681	444.32
681.408	442.04
681.816	448.08
682.224	453.31
682.632	461.03
683.04	477.66
683.448	492.52
683.856	512.12
684.264	534.15
684.671	553.86
685.079	577.51
685.487	603.56
685.894	641.77
686.302	673.18
686.709	700.57
687.116	732.75
687.524	763.26
687.931	790.06
688.338	813.04
688.745	833.03
689.152	855.99
689.559	887.19
689.966	919.38
690.373	935.34
690.78	967.01
691.187	1011.66
691.593	1048.23
692	1078.99
692.407	1124.16
692.813	1179.95
693.22	1225.8
693.626	1272.05
694.032	1313.47
694.439	1371.69
694.845	1420.98
695.251	1478.96
695.657	1533.79
696.063	1609.68
696.469	1670.69
696.875	1728.02
697.281	1765.27
697.687	1809.57
698.093	1849.56
698.498	1913.83
698.904	1964.49
699.31	2039.58
699.715	2098.19
700.12	2177.11
700.526	2201.53
700.931	2263.46
701.337	2313.46
701.742	2348.77
702.147	2422.9
702.552	2454.28
702.957	2508.27
703.362	2533.27
703.767	2562.55
704.172	2601.38
704.577	2572.84
704.981	2618.11
705.386	2640.22
705.791	2641.52
706.195	2706.69
706.6	2721.28
707.004	2791.92
707.408	2775.29
707.813	2807.32
708.217	2807.59
708.621	2817.22
709.025	2902.25
709.43	2910.62
709.834	2967.63
710.237	3030.9
710.641	3025.97
711.045	3050.92
711.449	3053.59
711.853	3086.64
712.256	3123.97
712.66	3160.01
713.064	3227.34
713.467	3267.38
713.87	3365.35
714.274	3406.26
714.677	3502.73
715.08	3641.86
715.484	3786.94
715.887	3963.25
716.29	4132.76
716.693	4313.79
717.096	4522.29
717.499	4636.43
717.901	4665.43
718.304	4693.98
718.707	4722.74
719.109	4644.41
719.512	4624.19
719.915	4515.27
720.317	4472.15
720.719	4512.06
721.122	4489.54
721.524	4449.28
721.926	4422.22
722.328	4508.2
722.731	4503.63
723.133	4528.68
723.535	4694.24
723.937	4715.51
724.338	4764.5
724.74	4803.72
725.142	4767.89
725.544	4774.05
725.945	4801.82
726.347	4799.37
726.748	4798.82
727.15	4814.22
727.551	4786.91
727.952	4764.45
728.354	4742.59
728.755	4744.68
729.156	4711.41
729.557	4689.35
729.958	4583.27
730.359	4536.9
730.76	4520.63
731.161	4469.17
731.562	4449.9
731.962	4452
732.363	4399.22
732.763	4347.58
733.164	4380.65
733.564	4322.18
733.965	4242.2
734.365	4214.45
734.766	4238.73
735.166	4209.42
735.566	4165.51
735.966	4145.16
736.366	4143.57
736.766	4095.87
737.166	4121.77
737.566	4087.07
737.966	4066.51
738.365	4100.87
738.765	4097.72
739.165	4036.15
739.564	4014.96
739.964	4054.13
740.363	4014.02
740.763	4012.34
741.162	4000.29
741.561	3973.89
741.96	3933.59
742.36	3951.63
742.759	3957.7
743.158	3988.68
743.557	3999.96
743.955	4033.64
744.354	3994.14
744.753	4044.63
745.152	4011.2
745.55	4057.36
745.949	4053.43
746.348	4055.18
746.746	4067.7
747.144	4032.8
747.543	4017.67
747.941	4059.46
748.339	3999.72
748.737	3993.92
749.136	3988.58
749.534	4043.25
749.932	4019.77
750.33	4038.37
750.727	4086.9
751.125	4068.26
751.523	4056.3
751.921	4093.1
752.318	4064.55
752.716	4116.92
753.113	4129.92
753.511	4150.08
753.908	4149.21
754.305	4136.74
754.703	4191.63
755.1	4241.19
755.497	4292.1
755.894	4453.37
756.291	4606.78
756.688	4889.96
757.085	5264.83
757.482	5792.62
757.878	6369.75
758.275	6892.93
758.672	7606.94
759.068	8189.97
759.465	9026.94
759.861	10103.24
760.258	11356.77
760.654	11995.59
761.05	11896.19
761.447	11347.51
761.843	10562.43
762.239	9751.53
762.635	9383.66
763.031	9031.91
763.427	8524.85
763.822	7993.36
764.218	7468.84
764.614	6785.52
765.01	6330.09
765.405	6034.7
765.801	5810.6
766.196	5523.84
766.592	5362.35
766.987	5094.04
767.382	4911.02
767.778	4833.65
768.173	4724.6
768.568	4664.03
768.963	4556.8
769.358	4573.16
769.753	4534.1
770.148	4464.87
770.542	4465.3
770.937	4439.98
771.332	4518.24
771.726	4537.12
772.121	4484.23
772.515	4530.34
772.91	4515.28
773.304	4576.28
773.699	4518.16
774.093	4563.75
774.487	4607.07
774.881	4644.72
775.275	4638.87
775.669	4602.48
776.063	4641.96
776.457	4673.24
776.851	4609.86
777.245	4605.06
777.638	4632.14
778.032	4731.43
778.425	4701.03
778.819	4741.15
779.212	4705.06
779.606	4673.12
779.999	4689.07
780.392	4673.15
780.786	4742.9
781.179	4760.71
781.572	4796.28
781.965	4810.67
782.358	4762.89
782.751	4813.27
783.143	4769.35
783.536	4831.25
783.929	4870.94
784.322	4971.14
784.714	4998.08
785.107	4997.08
785.499	5058.67
785.891	5040.82
786.284	5022.15
786.676	5142.95
787.068	5124.94
787.46	5169.37
787.852	5189.28
788.245	5257.94
788.636	5281.56
789.028	5338.27
789.42	5368.16
789.812	5376.09
790.204	5457.98
790.595	5542.89
790.987	5374.75
791.378	5397.18
791.77	5511.57
792.161	5623.31
792.553	5672.65
792.944	5580.13
793.335	5525.43
793.726	5591.76
794.117	5668.81
794.508	5784.84
794.899	5759.25
795.29	5882.82
795.681	5930.3
796.072	5806.67
796.463	5654.42
796.853	5667.13
797.244	5802.15
797.634	5829.61
798.025	5828.16
798.415	5838.85
798.806	5917.58
799.196	5993.69
799.586	6037.41
799.976	6004.29
800.366	6204.85
800.756	6405.41
801.146	6369.65
801.536	6393.72
801.926	6458.92
802.316	6484.15
802.706	6547.43
803.095	6444.02
803.485	6533.62
803.874	6568.47
804.264	6793.09
804.653	6768.47
805.043	6896.14
805.432	6993.25
805.821	6994.18
806.21	7013.32
806.599	7114.15
806.988	7154.92
807.377	7248.12
807.766	7356.15
808.155	7599.42
808.544	7373
808.933	7388.85
809.321	7373.14
809.71	7624.75
810.098	7766.71
810.487	8167.29
810.875	8581
811.264	8597.03
811.652	8845.29
812.04	8975.05
812.428	9115
812.816	9770.56
813.204	10128.61
813.592	10602.91
813.98	10893.39
814.368	10813.14
814.756	11222.68
815.144	11153.3
815.531	11557.24
815.919	11498.29
816.306	11755.47
816.694	11493.83
817.081	11545.06
817.469	11845.68
817.856	11837.05
818.243	12071.43
818.63	12405.69
819.017	12045.08
819.404	12100.12
819.791	12423.53
820.178	12949.1
820.565	13162.68
820.952	13958.53
821.339	13531.62
821.725	13686.84
822.112	13058.78
822.498	13014.28
822.885	13121.22
823.271	13035
823.657	13391.29
824.044	13402.65
824.43	13458.73
824.816	13444.05
825.202	13076.05
825.588	13946.75
825.974	13959.59
826.36	14401.86
826.746	14432.49
827.132	14741.47
827.517	14726.88
827.903	14050.66
828.289	14082.33
828.674	13425.12
829.06	13332.27
829.445	13672.92
829.83	13982.21
830.216	14386.33
830.601	14699.59
830.986	14353.64
831.371	14240.16
831.756	14716.72
832.141	14354.77
832.526	14351.29
832.911	14586.58
833.295	14480.97
833.68	14882.25
834.065	14351.11
834.449	13568.41
834.834	13501.23
835.218	13497.69
835.603	13785.82
835.987	13600.52
836.371	14304.62
836.755	14208.38
837.139	14541.31
837.524	14749.04
837.908	14587.03
838.291	14631.98
838.675	14693.28
839.059	14867.7
839.443	14847.08
839.827	14654.09
840.21	15060.43
840.594	14939.35
840.977	15114.96
841.361	15104.94
841.744	15418.59
842.127	15285.78
842.511	15496.76
842.894	15988.89
843.277	16305.3
843.66	16771.77
844.043	16835.91
844.426	16150.02
844.809	15872.54
845.191	15902.44
845.574	15507.84
845.957	15197.38
846.339	15105.11
846.722	14652.72
847.104	14717.63
847.487	14570.7
847.869	14576.41
848.252	14814.16
848.634	15093.09
849.016	15326.03
849.398	15428.29
849.78	16152.39
850.162	16165.95
850.544	16519.92
850.926	17058.82
851.307	16978.98
851.689	17223.12
852.071	17612.67
852.452	17883.08
852.834	17872.29
853.215	18210.67
853.597	18346.22
853.978	18599.88
854.359	18987.53
854.741	18142.44
855.122	18061.9
855.503	17817.47
855.884	17936.69
856.265	17880.83
856.646	17978.72
857.026	17633.08
857.407	17580.54
857.788	17713.03
858.169	17948.47
858.549	17217.41
858.93	17740.2
859.31	17766.76
859.69	17952.02
860.071	17593.58
860.451	17412.38
860.831	16783.42
861.211	17777.93
861.591	18235.84
861.971	18214.27
862.351	18385.31
862.731	18715.15
863.111	18944.84
863.491	19235.77
863.87	19981.27
864.25	20285.68
864.629	19954.7
865.009	20397.49
865.388	21112.75
865.768	22631.59
866.147	22539.83
866.526	21290.67
866.905	21544.15
867.284	22747.94
867.663	21595.08
868.042	20691.23
868.421	20617.25
868.8	20953.98
869.179	21159.81
869.558	19934.56
869.936	18372.02
870.315	18699.78
870.693	19152.62
871.072	20655.38
871.45	19679.62
871.828	19939.47
872.207	20966.74
872.585	20663.06
872.963	21218.99
873.341	20489.34
873.719	20241.59
874.097	19995.85
874.475	20374.4
874.853	20849.48
875.23	19974.57
875.608	20824.39
875.986	22527.73
876.363	21540.88
876.741	22200.86
877.118	21649.01
877.495	22712.58
877.873	23099.64
878.25	24313.02
878.627	23312.61
879.004	23641.64
879.381	23525.76
879.758	22891.13
880.135	21306.34
880.512	22534.68
880.889	21928.78
881.265	21707.64
881.642	21528.23
882.019	21885.81
882.395	21434.73
882.772	22289.39
883.148	21308.38
883.524	21228.92
883.901	21108.68
884.277	21420.33
884.653	21280.7
885.029	21891.4
885.405	24241.41
885.781	24050.39
886.157	23057.03
886.532	23335.17
886.908	23328.44
887.284	25950.5
887.659	26809.72
888.035	27645.9
888.411	28365.93
888.786	28750.82
889.161	29738.87
889.537	29174.07
889.912	30096.15
890.287	30077.47
890.662	30855.98
891.037	30283.96
891.412	28232.99
891.787	27924.92
892.162	26946.68
892.536	27559.29
892.911	26508.42
893.286	25953.37
893.66	24913.29
894.035	25544.87
894.409	27797.85
894.784	26670.48
895.158	27106.57
895.532	28699.19
895.906	29479.35
896.281	30164.37
896.655	29689.67
897.029	33930.34
897.402	35326.33
897.776	39305.81
898.15	39160.46
898.524	38712.23
898.898	39211.69
899.271	43901.77
899.645	38029.85
900.018	36515.08
900.392	37854.06
900.765	38149.37
901.138	35295.58
901.511	34754.49
901.884	31909.84
902.258	29434.34
902.631	30423.45
903.003	35030.53
903.376	31619.92
903.749	35435.13
904.122	37940.77
904.495	41770.53
904.867	42299.53
905.24	36711.74
905.612	34183.02
905.985	34970.32
906.357	36567.17
906.729	34928.31
907.102	29840.78
907.474	28709.52
907.846	28918.17
908.218	28561.86
908.59	25269.13
908.962	24444.01
909.334	26335.31
909.705	27663.57
910.077	26859.75
910.449	27960.82
910.82	28737.62
911.192	31612.69
911.563	32835.13
911.935	35127.85
912.306	35176.71
912.677	36309.04
913.048	35950.76
913.419	39008.28
913.79	39243.96
914.161	42075.03
914.532	40239.36
914.903	36992.57
915.274	35139.1
915.645	34629.98
916.015	30478.71
916.386	29048.29
916.756	30923.92
917.127	31929.67
917.497	28546.1
917.868	31070.19
918.238	29532.85
918.608	30387.56
918.978	31028.5
919.348	32871.62
919.718	33961.35
920.088	32737.09
920.458	34021.38
920.828	35813.52
921.198	33899.96
921.567	36186.74
921.937	28029.48
922.306	28295.78
922.676	30514.96
923.045	25446.34
923.415	24167.5
923.784	22006.15
924.153	22622.18
924.522	22604.41
924.891	21239.78
925.26	22781.81
925.629	22246.49
925.998	25565.96
926.367	24971.16
926.736	23788.21
927.104	28330.38
927.473	30478.41
927.842	36836.43
928.21	36471.35
928.578	38320.96
928.947	36254.68
929.315	36465.11
929.683	42782
930.051	43151.47
930.42	50070.9
930.788	42761.33
931.156	42461.05
931.523	39798.89
931.891	36792.55
932.259	35345.82
932.627	40969.89
932.994	57939
933.362	47866.78
933.729	41565.32
934.097	39758.51
934.464	33648.62
934.831	38841.59
935.199	38281.72
935.566	37121.77
935.933	37559.01
936.3	45501.26
936.667	35429.62
937.034	31959.81
937.401	31623.82
937.767	27293.97
938.134	24318.92
938.501	34300.07
938.867	36599.1
939.234	61890.81
939.6	52777.16
939.967	58167.36
940.333	38960.16
940.699	33169.63
941.065	26637.8
941.431	34964.26
941.798	33750.13
942.163	44329.64
942.529	27699.52
942.895	25486.41
943.261	16501.05
943.627	21667.5
943.992	18995.58
944.358	19030.78
944.723	19102.85
945.089	18608.21
945.454	17173.56
945.82	18341
946.185	17654.83
946.55	20467.57
946.915	18364.56
947.28	21535.6
947.645	18968.9
948.01	17512.82
948.375	18246.46
948.74	21871.19
949.104	25529.23
949.469	36891.04
949.834	65156.31
950.198	61688.99
950.562	36968.71
950.927	30768.5
951.291	37009.63
951.655	31538.92
952.02	29629.39
952.384	22438.94
952.748	19562.1
953.112	19061.9
953.476	16600.88
953.839	15358.59
954.203	15198.87
954.567	19022.32
954.931	29968.86
955.294	25636.38
955.658	25759.15
956.021	43755.56
956.385	74077.71
956.748	109297.16
957.111	169558.76
957.474	190061.59
957.837	213899.71
958.2	161995.46
958.563	58225.5
958.926	39388.12
959.289	59809.74
959.652	66871.09
960.015	50211.2
960.377	72080.7
960.74	82246.39
961.102	142004.73
961.465	152325.91
961.827	81676.33
962.189	156716.9
962.552	108674.6
962.914	87074.5
963.276	56427.82
963.638	46625.19
964	46160.02
964.362	31185.38
964.724	30124.34
965.085	21484.17
965.447	17653.45
965.809	20101.83
966.17	20105.1
966.532	21745.79
966.893	19942.23
967.255	18156.69
967.616	21429.23
967.977	17149.47
968.338	18744.99
968.699	15400.27
969.061	15402.69
969.421	15465.68
969.782	17344.78
970.143	14652.78
970.504	15182.71
970.865	17267.26
971.225	17651.56
971.586	17266.3
971.946	24622.86
972.307	21366.51
972.667	27944.42
973.027	28793.14
973.388	34929.69
973.748	23761.38
974.108	25882.3
974.468	35003.87
974.828	26982.69
975.188	20764.81
975.548	19085.29
975.907	16010.08
976.267	17958.19
976.627	15094.23
976.986	15641.12
977.346	14917.45
977.705	14348.21
978.064	13070.24
978.424	10877.52
978.783	11240.47
979.142	12832.27
979.501	12264.47
979.86	12997.58
980.219	12517.66
980.578	16151.24
980.937	18072.92
981.296	16095.76
981.654	16546.71
982.013	25705.01
982.371	33360.5
982.73	31168.68
983.088	35288.2
983.447	37735.47
983.805	53936.71
984.163	112707.15
984.521	124935.69
984.879	182923.63
985.237	-298338.14
985.595	287927.53
985.953	71636.06
986.311	41393.72
986.669	24050.63
987.026	20761.86
987.384	27894.05
987.741	28820.02
988.099	20636.54
988.456	16470.41
988.814	15452.1
989.171	13416.06
989.528	13237.18
989.885	13992.38
990.242	11077.01
990.599	13786.76
990.956	11291.93
991.313	7911.43
991.67	6489.36
992.027	6878.46
992.383	6114.21
992.74	5361.3
993.096	5623.67
993.453	5832.87
993.809	6037.2
994.165	8048.55
994.522	7398.42
994.878	8154.07
995.234	10225.68
995.59	10097.03
995.946	9557.77
996.302	10898.58
996.658	12595.56
997.013	13877.76
997.369	16498.29
997.725	21087.84
998.08	13638.09
998.436	20981.39
998.791	28905.5
999.147	28847.37
999.502	31446.51
999.857	22840
1000.212	37224.15
1000.567	52964.6
1000.922	30566.29
1001.277	19384.89
1001.632	14394.19
1001.987	18557.19
1002.342	13301.57
1002.696	10640.52
1003.051	8486.61
1003.406	10284.84
1003.76	10249.47
1004.114	10114.78
1004.469	8511.33
1004.823	7037.66
1005.177	7610.5
1005.531	6040.89
1005.885	5352.79
1006.239	6045.2
1006.593	7595.98
1006.947	10160.7
1007.301	7619.25
1007.655	8274.4
1008.008	6067.19
1008.362	6844.97
1008.715	9789.44
1009.069	8850.72
1009.422	13357.38
1009.776	26896.56
1010.129	17892.31
1010.482	14892.69
1010.835	12603.97
1011.188	26196.27
1011.541	24674.48
1011.894	-151168.77
1012.247	443667.73
1012.6	30210.1
1012.952	19115.31
1013.305	9810.61
1013.657	7059.87
1014.01	6672.53
1014.362	5537.65
1014.715	4933
1015.067	4308.18
1015.419	4226.72
1015.771	3748.25
1016.123	3340.74
1016.475	3423.96
1016.827	3658.69
1017.179	3953.91
1017.531	3986.22
1017.883	4074.26
1018.234	3920.3
1018.586	4942.27
1018.938	5257.27
1019.289	7257.22
1019.64	8283.88
1019.992	7684.46
1020.343	7054.64
1020.694	5589.45
1021.045	4944.91
1021.396	5634.87
1021.747	6046.15
1022.098	7277.64
1022.449	5272.16
1022.8	4870.18
1023.151	3396.89
1023.501	3016.26
1023.852	3287.91
1024.202	3418.83
1024.553	3726.44
1024.903	3633.62
1025.253	3130.54
1025.604	2821.11
1025.954	3492.32
1026.304	4259.57
1026.654	4969.07
1027.004	7254.92
1027.354	11734.88
1027.703	11071.57
1028.053	14531.89
1028.403	21371.98
1028.753	30988.96
1029.102	41950.13
1029.452	215590.35
1029.801	9298.72
1030.15	6024.28
1030.499	5101.05
897.758	2704.61
901.051	2661.1
904.343	2696.31
907.636	2699.15
910.928	2762.51
914.22	2670.4
917.511	2680.31
920.803	2742.19
924.094	2762.43
927.384	2739.99
930.675	2703.14
933.965	2654.9
937.255	2664.6
940.544	2631.13
943.834	2565.43
947.123	2511.38
950.411	2609.01
953.7	2580
956.988	2550.64
960.276	2489.75
963.563	2572.05
966.851	2567.62
970.138	2628.27
973.424	2619.48
976.711	2567.92
979.997	2706.64
983.283	2739.94
986.568	2643.4
989.853	2662.66
993.138	2687.63
996.423	2769.16
999.708	2705.24
1002.992	2773.27
1006.275	2602.52
1009.559	2652.28
1012.842	2770.79
1016.125	2699.04
1019.408	2678.6
1022.69	2767.04
1025.972	2782.49
1029.254	2757.33
1032.536	2689.39
1035.817	2717.72
1039.098	2657.71
1042.379	2808.84
1045.659	2802.79
1048.939	2734.64
1052.219	2756.69
1055.498	2769.39
1058.778	2753.41
1062.057	2740.96
1065.335	2760.59
1068.614	2781.44
1071.892	2761.81
1075.17	2838.75
1078.447	2826.14
1081.724	2818.5
1085.001	2853.53
1088.278	2829.49
1091.554	2843.85
1094.83	2840.58
1098.106	2866.11
1101.382	2912.6
1104.657	2911.4
1107.932	2908.84
1111.206	2873.89
1114.481	2830.59
1117.755	2829.79
1121.029	2808.46
1124.302	2862.72
1127.575	2811.12
1130.848	2798.07
1134.121	2757.58
1137.393	2707.26
1140.665	2777.11
1143.937	2751.01
1147.208	2709.91
1150.48	2747.72
1153.75	2737.83
1157.021	2773.2
1160.291	2739.04
1163.561	2786.27
1166.831	2776.32
1170.101	2809.61
1173.37	2782.33
1176.639	2724.2
1179.907	2783.48
1183.176	2787.44
1186.444	2796.83
1189.711	2823.46
1192.979	2836.79
1196.246	2793.33
1199.513	2810.24
1202.78	2807.8
1206.046	2816.06
1209.312	2842.71
1212.578	2867.31
1215.843	2819.36
1219.108	2796.81
1222.373	2817.9
1225.638	2782.28
1228.902	2763.35
1232.166	2728.78
1235.43	2711.6
1238.693	2734.33
1241.956	2733.14
1245.219	2770.25
1248.482	2761.84
1251.744	2756.47
1255.006	2907.54
1258.268	2865.64
1261.529	2807
1264.79	2815.07
1268.051	2918.88
1271.312	2935.59
1274.572	2897.82
1277.832	2886.86
1281.092	2879.79
1284.351	2853.18
1287.61	2829.14
1290.869	2743.38
1294.128	2717.28
1297.386	2811.47
1300.644	2798.23
1303.902	2813.03
1307.159	2668.74
1310.416	2724.48
1313.673	2751.89
1316.93	2734.95
1320.186	2780.75
1323.442	2826.32
1326.697	2812.38
1329.953	2804.52
1333.208	2826.34
1336.463	2809.46
1339.717	2745.63
1342.972	2886.04
1346.226	2861.12
1349.479	2790.6
1352.733	2760.11
1355.986	2787.89
1359.238	2763.2
1362.491	2768.62
1365.743	2770.32
1368.995	2765.88
1372.247	2776.92
1375.498	2802.13
1378.749	2813.51
1382	2770.11
1385.251	2825.96
1388.501	2787.49
1391.751	2768.51
1395	2744.27
1398.25	2773.79
1401.499	2781.89
1404.748	2705.84
1407.996	2698.55
1411.244	2683.06
1414.492	2664.07
1417.74	2642.33
1420.987	2651.63
1424.234	2711.75
1427.481	2693.79
1430.728	2749.96
1433.974	2726.5
1437.22	2741.15
1440.465	2744.31
1443.711	2705.45
1446.956	2742.04
1450.201	2728.94
1453.445	2775.31
1456.689	2752.39
1459.933	2765.94
1463.177	2798.25
1466.42	2767.54
1469.663	2747.99
1472.906	2741.79
1476.148	2818.9
1479.391	2776.66
1482.633	2746.65
1485.874	2757.44
1489.115	2742.36
1492.356	2748.48
1495.597	2721
1498.838	2724.58
1502.078	2694.29
1505.318	2642.04
1508.557	2685.17
1511.797	2659.34
1515.036	2731.47
1518.274	2722.28
1521.513	2696.64
1524.751	2718.75
1527.989	2731.2
1531.227	2744.82
1534.464	2736.04
1537.701	2756.94
1540.938	2776.21
1544.174	2730.89
1547.41	2728.31
1550.646	2769.27
1553.882	2800.55
1557.117	2854.56
1560.352	2871.46
1563.587	2827.72
1566.821	2785.11
1570.055	2821.13
1573.289	2790.54
1576.523	2865.97
1579.756	2870.06
1582.989	2890.94
1586.222	2850.76
1589.454	2894.79
1592.686	2861.53
1595.918	2885.98
1599.15	2875.38
1602.381	2953.05
1605.612	2906.51
1608.843	3004.63
1612.073	2917.13
1615.303	2901.54
1618.533	2890.45
1621.762	2894.18
1624.992	2879.73
1628.221	2866.32
1631.449	2850.87
1634.678	2909.15
1637.906	2862.12
1641.134	2901.42
1644.361	2857.59
1647.588	2847.95
1650.815	2862.79
1654.042	2844.32
1657.269	2874.88
1660.495	2824.57
1663.72	2847.53
1666.946	2811.43
1670.171	2751.07
1673.396	2728.96
1676.621	2718.08
1679.845	2740.54
1683.069	2760.86
1686.293	2806.76
1689.517	2773.89
1692.74	2701.09
1695.963	2732.73
1699.185	2748.11
1702.408	2721.05
1705.63	2767.84
1708.852	2775.35
1712.073	2747.67
1715.294	2728.59
1718.515	2792.91
1721.736	2737.85
1724.956	2733.28
1728.176	2760.45
1731.396	2782.41
1734.616	2771.27
1737.835	2799.66
1741.054	2777.6
1744.272	2772.28
1747.491	2804.15
1750.709	2860.41
1753.927	2761.17
1757.144	2807.78
1760.361	2849.05
1763.578	2841.92
1766.795	2783.52
1770.011	2790.61
1773.227	2833.72
1776.443	2866.86
1779.658	2913.09
1782.874	2855.02
1786.089	2831.31
1789.303	2833.39
1792.518	2839.95
1795.732	2826.79
1798.945	2838.73
1802.159	2886.29
1805.372	2785.66
1808.585	2769.02
1811.797	2770.36
1815.01	2823.56
1818.222	2823.7
1821.434	2795.99
1824.645	2856.36
1827.856	2837.91
1831.067	2876.35
1834.278	2834.2
1837.488	2819.04
1840.698	2970.87
1843.908	2892.68
1847.117	2855.99
1850.326	2734.59
1853.535	2842.28
1856.744	2872.7
1859.952	2782.66
1863.16	2786.42
1866.368	2809.37
1869.575	2913.47
1872.782	2800.82
1875.989	2741.34
1879.196	2828.73
1882.402	2822.69
1885.608	2864.69
1888.814	2763.03
1892.019	2654.2
1895.224	2710.8
1898.429	2692
1901.634	2668.84
1904.838	2645.41
1908.042	2694.43
1911.246	2700.71
1914.449	2629.78
1917.652	2628.46
1920.855	2608.88
1924.058	2663.95
1927.26	2700.87
1930.462	2727.13
1933.664	2753.32
1936.865	2688.05
1940.066	2694.75
1943.267	2641.84
1946.467	2660.18
1949.668	2687.52
1952.868	2752.59
1956.067	2730.42
1959.267	2661.07
1962.466	2688.61
1965.665	2675.85
1968.863	2669.49
1972.061	2685.71
1975.259	2689.76
1978.457	2768.87
1981.654	2724.97
1984.852	2725.59
1988.048	2659.04
1991.245	2663.63
1994.441	2745.55
1997.637	2732.26
2000.833	2714.63
2004.028	2755.03
2007.223	2809.76
2010.418	2782.4
2013.613	2744.73
2016.807	2712.93
2020.001	2721.58
2023.194	2769.7
2026.388	2741.74
2029.581	2692.39
2032.774	2739.81
2035.966	2744.53
2039.158	2674.43
2042.35	2705.21
2045.542	2629.12
2048.733	2732.6
2051.924	2754.66
2055.115	2787.07
2058.306	2724.31
2061.496	2788.01
2064.686	2849.96
2067.875	2766.77
2071.065	2778.16
2074.254	2807.86
2077.442	2759.5
2080.631	2850.45
2083.819	2738.33
2087.007	2724.2
2090.195	2687.16
2093.382	2727.64
2096.569	2705.93
2099.756	2659.91
2102.942	2682.55
2106.128	2691.85
2109.314	2684.02
2112.5	2644.72
2115.685	2620.71
2118.87	2630.9
2122.055	2697.33
2125.239	2666.04
2128.424	2637.7
2131.608	2744.84
2134.791	2725.88
2137.974	2784.82
2141.157	2769.62
2144.34	2718.94
2147.523	2734.57
2150.705	2749.55
2153.887	2729.96
2157.068	2675.86
2160.25	2679.26
2163.431	2717.95
2166.611	2659.98
2169.792	2675.48
2172.972	2567.2
2176.152	2648.66
2179.331	2683.55
2182.511	2665.17
2185.69	2694.28
2188.868	2688.21
2192.047	2746.79
2195.225	2735.35
2198.403	2684.38
2201.58	2678.18
2204.758	2673.88
2207.935	2758.37
2211.111	2645.27
2214.288	2628.63
2217.464	2666.03
2220.64	2640.96
2223.815	2695.95
2226.991	2614.52
2230.166	2634.53
2233.34	2661.85
2236.515	2688.97
2239.689	2765.41
2242.863	2707.68
2246.036	2761.05
2249.209	2764.77
2252.382	2803.59
2255.555	2785.63
2258.727	2722.02
2261.9	2763.94
2265.071	2755.89
2268.243	2759.95
2271.414	2689.32
2274.585	2646.26
2277.756	2716.47
2280.926	2674.25
2284.096	2714.17
2287.266	2619.32
2290.436	2678.58
2293.605	2706.83
2296.774	2735.91
2299.942	2759.37
2303.111	2775.36
2306.279	2827.64
2309.447	2812.13
2312.614	2786.81
2315.781	2805.34
2318.948	2775.36
2322.115	2813.2
2325.281	2714.67
2328.447	2734.87
2331.613	2711.86
2334.779	2681.27
2337.944	2685.23
2341.109	2679.78
2344.274	2666.67
2347.438	2628.7
2350.602	2654.09
2353.766	2674.76
2356.929	2659.48
2360.092	2697.89
2363.255	2651.2
2366.418	2579.9
2369.58	2697.59
2372.742	2476.72
2375.904	2492.79
2379.066	2464.37
2382.227	2507.93
2385.388	2468.83
2388.548	2388.74
2391.709	2446.92
2394.869	2430.89
2398.029	2531.48
2401.188	2545.96
2404.347	2478.28
2407.506	2626.4
2410.665	2656.47
2413.823	2663.11
2416.981	2615.14
2420.139	2650.73
2423.296	2700.08
2426.453	2673.57
2429.61	2696
2432.767	2626.25
2435.923	2666.56
2439.079	2630
2442.235	2680.34
2445.391	2603.96
2448.546	2636.05
2451.701	2685.59
2454.855	2653.66
2458.009	2711.57
2461.163	2713.17
2464.317	2670.73
2467.471	2706.1
2470.624	2745.19
2473.777	2712.44
2476.929	2725.02
2480.082	2750.36
2483.234	2711.91
2486.385	2670.21
2489.537	2662.75
2492.688	2619.41
2495.839	2637.81
2498.989	2646.75
2502.14	2633.79
2505.29	2614.8
2508.439	2643
2511.589	2564.41
2514.738	2580.44
2517.887	2610.74
2521.035	2672.05
2524.183	2659.82
2527.331	2639.58
2530.479	2611.78
2533.627	2626.31
