Data from N_3_HIR_WI_4N_Splice17_13-12-15-122.txt Node
Date: Sat Mar 14 13:12:15 EDT 2020
User: sa697716
Spectrometer: FLMS03696
Trigger mode: 0
Integration Time (sec): 3.180400E-1
Scans to average: 20
Electric dark correction enabled: true
Nonlinearity correction enabled: true
Boxcar width: 5
XAxis mode: Wavelengths
Number of Pixels in Spectrum: 2048
>>>>>Begin Spectral Data<<<<<
187.83	-298502.45
188.298	2145.15
188.766	1193.94
189.233	1068.92
189.701	1506.35
190.169	2102.85
190.636	814.93
191.104	648.04
191.571	101.6
192.039	-86.01
192.506	-52.92
192.974	463.32
193.441	-900.75
193.908	-209.12
194.375	-47.83
194.842	24.47
195.31	160.27
195.777	204.52
196.244	428.82
196.711	490.06
197.177	607.41
197.644	862.7
198.111	1473.44
198.578	2061.97
199.045	1635.57
199.511	2656.85
199.978	3109
200.445	2637.76
200.911	2898.29
201.378	3247.08
201.844	2940.61
202.31	4965.65
202.777	5182.35
203.243	2868.76
203.709	2744.86
204.176	3271.41
204.642	2719.97
205.108	2544.32
205.574	2069.53
206.04	1885.54
206.506	1748.89
206.972	1660.53
207.438	1622.93
207.903	1834.25
208.369	1615.51
208.835	1611.15
209.301	1703.88
209.766	1732.01
210.232	1729.64
210.697	2164.17
211.163	2714.2
211.628	4169.31
212.094	3532.15
212.559	4382.36
213.024	2758.23
213.49	3392.11
213.955	3333.34
214.42	3270.52
214.885	3073.83
215.35	2950.82
215.815	2856.13
216.28	3051
216.745	2499.92
217.21	2751.85
217.675	2580.46
218.14	2968.73
218.604	3427.02
219.069	4015.54
219.534	4313.52
219.998	5126.53
220.463	6311.29
220.927	7932.45
221.392	7564.67
221.856	7753.38
222.32	9872.8
222.785	12272.77
223.249	15581.65
223.713	17439.99
224.177	17483.04
224.642	22510.56
225.106	27805.2
225.57	30474.85
226.034	22635.15
226.497	34496.16
226.961	31145.59
227.425	36294.38
227.889	40305.38
228.353	40264.8
228.816	83050.49
229.28	79563.7
229.744	67059.38
230.207	40722.9
230.671	40040.18
231.134	66335.34
231.597	76533.32
232.061	76517.05
232.524	74630.76
232.987	51355.1
233.45	46206.52
233.914	41472.58
234.377	42472.21
234.84	38871.55
235.303	45789.19
235.766	51092.14
236.229	52722.14
236.691	33152.75
237.154	37263.53
237.617	27996.62
238.08	28661.92
238.542	33523.43
239.005	23958.65
239.468	23750.19
239.93	22365.72
240.393	20336.46
240.855	17847.9
241.317	18281.45
241.78	22222.67
242.242	22938.45
242.704	24745.95
243.166	21532.14
243.629	19535.63
244.091	22504.28
244.553	24647.39
245.015	26472.55
245.477	34221.48
245.939	50098.23
246.4	53136.78
246.862	51631.01
247.324	48678.74
247.786	54453.65
248.247	71400.12
248.709	73670.36
249.17	55017.47
249.632	51807.8
250.093	60044.85
250.555	51821.9
251.016	31569.67
251.477	29905.8
251.939	32282.4
252.4	33819.23
252.861	40156.72
253.322	37282.64
253.783	44371.38
254.244	57493.67
254.705	45327.99
255.166	40272.2
255.627	39596.64
256.088	55814.32
256.549	59277.75
257.009	51008.2
257.47	61874.7
257.931	50422.54
258.391	37772.47
258.852	38919.84
259.312	40791.58
259.773	50326.99
260.233	42468.04
260.694	35792.64
261.154	40595.05
261.614	32552.36
262.074	29092.79
262.534	30213.65
262.994	28456.8
263.455	37902.79
263.915	31894.82
264.374	30017.89
264.834	32784.32
265.294	36336.72
265.754	37601.7
266.214	35559.01
266.673	33293.4
267.133	42002.02
267.593	41647.81
268.052	50874.85
268.512	44182.93
268.971	53229.83
269.431	58355.55
269.89	52179
270.349	78101.35
270.809	86957.78
271.268	78100.68
271.727	175064.98
272.186	113134.5
272.645	84722.16
273.104	61081.51
273.563	88379.8
274.022	69432.92
274.481	58990.06
274.94	45385.49
275.399	33705.75
275.857	39231.84
276.316	52983.05
276.775	47060.04
277.233	46368.89
277.692	43361.04
278.15	48993.79
278.609	50342.25
279.067	46548.7
279.525	43129.84
279.984	55632.12
280.442	66761.42
280.9	65715.74
281.358	43213.96
281.816	40240.75
282.274	39328.39
282.732	40581.86
283.19	40737.9
283.648	35110.19
284.106	37334.5
284.564	37948.56
285.021	35159.5
285.479	26194.81
285.937	23804.91
286.394	20852.91
286.852	21446.11
287.309	22512.21
287.767	21715.16
288.224	20632.9
288.682	22627.91
289.139	24828.52
289.596	22706.34
290.053	23554.61
290.511	29722.87
290.968	36009.25
291.425	48891.41
291.882	40635.43
292.339	35359.63
292.796	35103.6
293.252	33049.93
293.709	26206.58
294.166	23460.65
294.623	25926.1
295.079	24878.4
295.536	24933.92
295.992	22630.28
296.449	22330.28
296.905	23171.85
297.362	22173.44
297.818	23278.53
298.274	24121.37
298.731	24562.97
299.187	24281.65
299.643	26039.76
300.099	31444.32
300.555	34462.78
301.011	28767.3
301.467	27702.11
301.923	32420.02
302.379	31652.43
302.835	31075.46
303.291	31097.62
303.746	35384.04
304.202	44665.37
304.658	44771.49
305.113	30087.73
305.569	29467.07
306.024	31379.23
306.479	29851.6
306.935	25131.26
307.39	27394.02
307.845	25262.71
308.301	25370.23
308.756	24684.01
309.211	23753.91
309.666	24309.95
310.121	30139.43
310.576	30532.34
311.031	30268.82
311.486	34661.85
311.94	34596.11
312.395	46264.83
312.85	86883.04
313.305	426849.44
313.759	2205919.84
314.214	159760.84
314.668	126548.28
315.123	106320.42
315.577	38088.65
316.032	33798.52
316.486	42291.04
316.94	33356.3
317.394	23201.77
317.849	18013.23
318.303	17021.77
318.757	16057.06
319.211	17749.89
319.665	15517.85
320.119	15694.43
320.572	22513.68
321.026	21035.46
321.48	17494.19
321.934	19055.38
322.387	19089.2
322.841	20619.38
323.295	18511.65
323.748	21319.09
324.202	21570.74
324.655	25875.99
325.108	36137.78
325.562	25495.06
326.015	30288.48
326.468	22888.18
326.921	25540.99
327.374	23741.73
327.827	24674.21
328.28	27945.05
328.733	18710.73
329.186	16464.23
329.639	15680.39
330.092	13205.32
330.545	12563.99
330.997	12644.23
331.45	13798.81
331.903	16182.47
332.355	27837.6
332.808	27022.15
333.26	22264.52
333.713	24141.35
334.165	24261.07
334.617	32382.43
335.069	26131.88
335.522	47150.55
335.974	52248.5
336.426	47726.9
336.878	33010.37
337.33	16710.48
337.782	16322.59
338.234	20415.21
338.686	24369.9
339.137	28872.38
339.589	27149.72
340.041	21251.26
340.493	18276.55
340.944	18701.93
341.396	20150.57
341.847	16926.61
342.299	19989.92
342.75	24358.14
343.201	21307.04
343.653	24509.65
344.104	30101.11
344.555	23702.25
345.006	36880.24
345.457	28204.33
345.908	22380.65
346.359	21011.86
346.81	17099.11
347.261	18022.1
347.712	17715.09
348.163	18952.09
348.613	19184.79
349.064	17900.54
349.515	15664.52
349.965	16054.23
350.416	19330.64
350.866	21181.49
351.317	23886.54
351.767	39545.51
352.217	49864.71
352.668	41394.71
353.118	37871.91
353.568	36470
354.018	28810.2
354.468	30323.38
354.918	21715.94
355.368	18982.2
355.818	26842.04
356.268	77169.16
356.718	322371.28
357.168	80142.26
357.617	40146.34
358.067	44636.2
358.517	41821.47
358.966	49072.9
359.416	55024.02
359.865	59451.12
360.315	70602.35
360.764	32904.02
361.213	18452.5
361.663	17485.35
362.112	21561.93
362.561	34854.13
363.01	26261.49
363.459	22072.99
363.908	23839.64
364.357	20225.75
364.806	34080.07
365.255	23408.93
365.703	21417.6
366.152	21437.71
366.601	17352.46
367.05	14077.96
367.498	12773.14
367.947	13330.51
368.395	13848.47
368.844	12253.58
369.292	14734.37
369.74	10202.49
370.189	15633.73
370.637	18328.42
371.085	15754.08
371.533	19202.82
371.981	18500.02
372.429	17632.79
372.877	18361.21
373.325	15351.35
373.773	15628.23
374.221	13906.96
374.669	17204.72
375.116	14847.44
375.564	14911.64
376.012	16688.87
376.459	13752.74
376.907	16413.64
377.354	19814.75
377.801	18480.84
378.249	21235.7
378.696	27033.51
379.143	32742.3
379.591	34924.75
380.038	59129.44
380.485	42802.8
380.932	46228.22
381.379	42204.13
381.826	31061.81
382.273	22047.83
382.72	19228.48
383.166	18711.52
383.613	12156.26
384.06	10943.75
384.506	12663.59
384.953	9303.96
385.4	9359.04
385.846	8181.84
386.292	7970.53
386.739	7801.84
387.185	7725.75
387.631	7737.67
388.078	7509.8
388.524	8038.68
388.97	7432.61
389.416	6198.02
389.862	6580.29
390.308	6235.68
390.754	6326.79
391.2	6865.63
391.645	7019.63
392.091	6720.99
392.537	6491.56
392.983	6505.51
393.428	6398.33
393.874	6854.47
394.319	6876.37
394.765	6518.54
395.21	6700.1
395.655	6287.84
396.101	5887.98
396.546	5318.03
396.991	5346.59
397.436	4961.83
397.881	4781.3
398.326	4528.63
398.771	4279.22
399.216	3733.12
399.661	3360.52
400.106	3348.27
400.551	3425.54
400.995	3068.84
401.44	3026.79
401.885	2843.09
402.329	2872.82
402.774	2749.74
403.218	2653.44
403.663	2547.68
404.107	2614.16
404.551	2627.1
404.995	2400.62
405.44	2310.03
405.884	2338.85
406.328	2257.91
406.772	2244.19
407.216	2036.64
407.66	1967.97
408.104	1863.72
408.547	1746.09
408.991	1686.31
409.435	1618.83
409.879	1593.73
410.322	1566.37
410.766	1511.87
411.209	1432.7
411.653	1373.83
412.096	1343.65
412.54	1337.93
412.983	1328.71
413.426	1330.45
413.869	1328.36
414.312	1302.2
414.756	1254.63
415.199	1196.64
415.642	1158.99
416.085	1161.95
416.527	1154.24
416.97	1172.25
417.413	1114.5
417.856	1099.54
418.298	1085.16
418.741	1074.45
419.184	1068.2
419.626	1108.19
420.069	1105.76
420.511	1109.64
420.953	1086.58
421.396	1075.46
421.838	1044.81
422.28	1066.95
422.722	1073.92
423.164	1085.72
423.606	1069.19
424.048	1072.02
424.49	1017.09
424.932	1012.28
425.374	998.01
425.816	1013.38
426.258	1027.82
426.699	1039.31
427.141	1026
427.582	1039.81
428.024	1033.19
428.465	1023.39
428.907	993.78
429.348	982.57
429.789	981.14
430.231	961.82
430.672	972.78
431.113	952.79
431.554	938.19
431.995	911.53
432.436	877.04
432.877	859.1
433.318	844.73
433.759	839.89
434.2	838.56
434.64	827.94
435.081	829.88
435.522	787.49
435.962	755.52
436.403	737.94
436.843	747.91
437.284	732.49
437.724	712.06
438.164	712.08
438.604	695.65
439.045	668.73
439.485	643.97
439.925	627
440.365	611.08
440.805	602.57
441.245	597.84
441.685	576.9
442.125	572.05
442.564	576.92
443.004	565.46
443.444	565.88
443.883	568.08
444.323	561.99
444.762	562.58
445.202	569.62
445.641	580.63
446.081	575.93
446.52	579.75
446.959	575.74
447.398	561.93
447.837	556.75
448.276	546.94
448.716	553
449.154	557.7
449.593	547.59
450.032	546.14
450.471	537.25
450.91	537.39
451.349	536.98
451.787	534.7
452.226	542.28
452.664	540.64
453.103	541.9
453.541	540.79
453.98	542.88
454.418	547.22
454.856	540.67
455.295	539.53
455.733	545.52
456.171	549.03
456.609	548.06
457.047	547.78
457.485	558.24
457.923	559.89
458.361	551.31
458.798	551.13
459.236	547.62
459.674	550.85
460.111	553.98
460.549	547.63
460.987	544.88
461.424	542.69
461.862	540.12
462.299	530.32
462.736	529.54
463.173	532.69
463.611	528.86
464.048	529.44
464.485	532.33
464.922	526.49
465.359	523.38
465.796	519.32
466.233	516.63
466.67	512.86
467.106	511.91
467.543	505.4
467.98	497.82
468.416	483.74
468.853	477.94
469.29	463.89
469.726	459.53
470.162	446.57
470.599	438.03
471.035	433.91
471.471	423.06
471.907	419.96
472.344	418.37
472.78	419.96
473.216	425.41
473.652	421.53
474.088	420.13
474.523	418.15
474.959	422.29
475.395	419.45
475.831	417.34
476.266	420
476.702	418.76
477.138	414.46
477.573	413.69
478.008	412.6
478.444	414.6
478.879	419.56
479.314	422.15
479.75	422.64
480.185	423.83
480.62	427.66
481.055	429.37
481.49	433.6
481.925	439.82
482.36	447.81
482.795	459.82
483.229	472.24
483.664	481.49
484.099	482.99
484.534	490.77
484.968	497.08
485.403	498.91
485.837	499.18
486.271	498.33
486.706	498.91
487.14	493.31
487.574	485.29
488.009	481.25
488.443	477.14
488.877	483.04
489.311	485.14
489.745	491.21
490.179	496.34
490.613	506.35
491.046	511.23
491.48	515.65
491.914	517.73
492.348	522.83
492.781	527.01
493.215	529.57
493.648	532.07
494.082	537.04
494.515	538.41
494.948	545.51
495.382	550.54
495.815	555.74
496.248	562.3
496.681	573.56
497.114	584.58
497.547	595.52
497.98	609.77
498.413	618.12
498.846	629.73
499.279	639.47
499.711	646.25
500.144	651.1
500.577	663.01
501.009	674.99
501.442	687.33
501.874	692.7
502.306	697.41
502.739	707.64
503.171	722.26
503.603	728.2
504.036	739.63
504.468	749.05
504.9	762.61
505.332	771.45
505.764	779.53
506.196	789.72
506.627	806.82
507.059	823.11
507.491	833.35
507.923	836.64
508.354	853.65
508.786	866.93
509.217	886.26
509.649	903.84
510.08	926.03
510.512	945.22
510.943	962.01
511.374	975.67
511.805	997.37
512.237	1019.43
512.668	1052.58
513.099	1081.53
513.53	1111.78
513.961	1135.12
514.391	1168.08
514.822	1202.21
515.253	1239.25
515.684	1268.11
516.114	1299.95
516.545	1323.35
516.975	1352.03
517.406	1372.51
517.836	1379.29
518.267	1388.58
518.697	1409.8
519.127	1417.24
519.558	1426.86
519.988	1433.3
520.418	1445.64
520.848	1464.57
521.278	1476.03
521.708	1499.33
522.138	1514.29
522.567	1546.4
522.997	1572.48
523.427	1589.29
523.857	1607.48
524.286	1619.04
524.716	1635.5
525.145	1654.95
525.575	1667.4
526.004	1683.04
526.433	1673.91
526.863	1675.28
527.292	1666.46
527.721	1673.92
528.15	1679.96
528.579	1681.9
529.008	1694.88
529.437	1718.5
529.866	1733.66
530.295	1751.92
530.724	1765.34
531.152	1793.04
531.581	1807.38
532.01	1827.11
532.438	1836
532.867	1851.74
533.295	1871.22
533.723	1877.96
534.152	1875.57
534.58	1875.14
535.008	1858.72
535.436	1860.03
535.865	1867.94
536.293	1883.58
536.721	1898.33
537.149	1924.46
537.576	1926.29
538.004	1938.26
538.432	1945.05
538.86	1944.58
539.287	1952.02
539.715	1966.78
540.143	1969.72
540.57	1966.29
540.998	1961.24
541.425	1937.05
541.852	1915
542.28	1913.88
542.707	1899.5
543.134	1885.87
543.561	1881.2
543.988	1873.77
544.415	1872.72
544.842	1868.17
545.269	1861.06
545.696	1863.89
546.123	1878.48
546.549	1868.56
546.976	1855.6
547.403	1853.95
547.829	1855.69
548.256	1858.45
548.682	1854.96
549.108	1848.54
549.535	1848.52
549.961	1851.01
550.387	1837.43
550.813	1832.39
551.24	1839.05
551.666	1840.98
552.092	1831.44
552.518	1825.53
552.943	1820.09
553.369	1827.79
553.795	1833.97
554.221	1835.19
554.646	1831.67
555.072	1843.21
555.498	1847.77
555.923	1856.47
556.349	1872.3
556.774	1882.55
557.199	1883.97
557.625	1890.3
558.05	1884.54
558.475	1893.83
558.9	1894.04
559.325	1887.09
559.75	1881.2
560.175	1875.09
560.6	1869.99
561.025	1867.66
561.449	1867.45
561.874	1874
562.299	1878.79
562.723	1886.05
563.148	1877.58
563.572	1881.1
563.997	1890.7
564.421	1896.68
564.846	1896.73
565.27	1899.66
565.694	1896.25
566.118	1908.46
566.542	1916.46
566.966	1907.77
567.39	1902.6
567.814	1890.48
568.238	1888.64
568.662	1893.08
569.086	1893.57
569.509	1900.12
569.933	1882.5
570.357	1874.65
570.78	1851.63
571.204	1835.64
571.627	1824.58
572.05	1821.46
572.474	1819.29
572.897	1805.6
573.32	1796.86
573.743	1785.88
574.166	1766.58
574.589	1768.03
575.012	1759.63
575.435	1758.26
575.858	1749.58
576.281	1737.95
576.704	1720.68
577.126	1708.44
577.549	1697
577.972	1687.12
578.394	1677.07
578.817	1670.21
579.239	1650.6
579.661	1636.37
580.084	1620.39
580.506	1607.38
580.928	1603.38
581.35	1593.57
581.772	1589.71
582.194	1576.33
582.616	1563.36
583.038	1549.24
583.46	1537.51
583.882	1533.43
584.303	1538.96
584.725	1534.52
585.147	1535.2
585.568	1545.64
585.99	1557.04
586.411	1563.03
586.833	1577.62
587.254	1578.81
587.675	1592.57
588.096	1605.17
588.518	1599.74
588.939	1581.2
589.36	1578.62
589.781	1567.63
590.202	1538.7
590.623	1529.95
591.043	1526.86
591.464	1513.64
591.885	1509.64
592.305	1503.37
592.726	1488.85
593.147	1489.72
593.567	1484.67
593.987	1477.41
594.408	1472.96
594.828	1471.1
595.248	1465.96
595.669	1447.53
596.089	1441.04
596.509	1433.8
596.929	1420.52
597.349	1422.61
597.769	1412.46
598.189	1406.36
598.608	1407.59
599.028	1409.48
599.448	1409.44
599.867	1396.56
600.287	1391.48
600.706	1386.23
601.126	1377.45
601.545	1375.95
601.965	1373.92
602.384	1367.83
602.803	1370.14
603.222	1364.41
603.641	1356.65
604.061	1352.33
604.48	1346.68
604.898	1354.12
605.317	1358.72
605.736	1359.46
606.155	1355.37
606.574	1344.88
606.992	1350.09
607.411	1343.92
607.829	1334.53
608.248	1330.65
608.666	1327.23
609.085	1326.45
609.503	1316.95
609.921	1310.17
610.339	1310.28
610.758	1309.02
611.176	1303.4
611.594	1293.16
612.012	1288.65
612.43	1291.61
612.847	1296.97
613.265	1298.13
613.683	1301.24
614.101	1302.43
614.518	1297.56
614.936	1287.88
615.353	1273.14
615.771	1269.72
616.188	1269.13
616.606	1265.07
617.023	1256.5
617.44	1241.14
617.857	1231.8
618.274	1222
618.691	1214.9
619.108	1204.91
619.525	1197.62
619.942	1202.74
620.359	1204.2
620.776	1198.39
621.192	1194.47
621.609	1191.79
622.026	1198.68
622.442	1204.42
622.859	1207.34
623.275	1199.8
623.691	1204.11
624.108	1215.28
624.524	1228.33
624.94	1227.93
625.356	1236.39
625.772	1247.95
626.188	1259.63
626.604	1260.41
627.02	1255.16
627.436	1252.85
627.852	1259.11
628.268	1269.67
628.683	1259.93
629.099	1251.55
629.514	1246.78
629.93	1250.63
630.345	1253.98
630.761	1248.48
631.176	1250.62
631.591	1246.31
632.007	1240.14
632.422	1236.98
632.837	1226.24
633.252	1223.89
633.667	1213.09
634.082	1202.97
634.497	1190.2
634.911	1171.54
635.326	1167.51
635.741	1149.37
636.155	1135.55
636.57	1134.16
636.984	1132.66
637.399	1132.4
637.813	1128.71
638.228	1125.69
638.642	1127
639.056	1114.12
639.47	1111.29
639.884	1100.69
640.298	1091.94
640.712	1089.66
641.126	1075.76
641.54	1063.97
641.954	1056.26
642.368	1043.46
642.781	1032.84
643.195	1013.99
643.609	1012.6
644.022	1004.4
644.436	997.95
644.849	984.56
645.262	971.08
645.676	970.04
646.089	963.43
646.502	946.82
646.915	939.23
647.328	921.95
647.741	918.39
648.154	903.65
648.567	899.23
648.98	885.53
649.393	884.51
649.805	880.71
650.218	872.36
650.631	858.23
651.043	852.69
651.456	845.92
651.868	845.44
652.28	859.06
652.693	870.45
653.105	875.04
653.517	881.8
653.929	881.34
654.341	882.84
654.753	871.63
655.165	874.55
655.577	869.78
655.989	864.2
656.401	854.86
656.813	822.29
657.224	802.49
657.636	775.08
658.047	758.11
658.459	739.08
658.87	729.2
659.282	716.86
659.693	698.18
660.104	684.24
660.515	669.94
660.926	664.8
661.338	659.97
661.749	651.93
662.159	642
662.57	635.73
662.981	629.08
663.392	620.61
663.803	619.96
664.213	614.86
664.624	609.5
665.035	609.25
665.445	597.18
665.855	589.49
666.266	582.53
666.676	578.92
667.086	569.47
667.497	567.44
667.907	560.98
668.317	553.47
668.727	550.08
669.137	547.25
669.547	544.62
669.956	545.1
670.366	545.03
670.776	544.86
671.186	546.88
671.595	550.4
672.005	552
672.414	551.75
672.824	551.59
673.233	553.95
673.642	554.95
674.052	557.54
674.461	560.22
674.87	562.65
675.279	561.09
675.688	561.52
676.097	562.65
676.506	560.92
676.915	571.94
677.323	574.1
677.732	573.03
678.141	575.28
678.549	568.36
678.958	568.47
679.366	570.21
679.775	575.04
680.183	585.42
680.592	590.91
681	597.27
681.408	594.41
681.816	602.35
682.224	612.05
682.632	623.21
683.04	649.78
683.448	671.57
683.856	699.85
684.264	732.46
684.671	763.48
685.079	801.35
685.487	843.68
685.894	901.19
686.302	951.06
686.709	995.26
687.116	1044.47
687.524	1088.67
687.931	1129.22
688.338	1163.64
688.745	1194.43
689.152	1229.39
689.559	1275.25
689.966	1319.67
690.373	1343.93
690.78	1385.03
691.187	1448.83
691.593	1499.28
692	1541.07
692.407	1604.66
692.813	1681.46
693.22	1743
693.626	1806.47
694.032	1857.23
694.439	1932.73
694.845	1994.47
695.251	2071.28
695.657	2136.5
696.063	2233.97
696.469	2308.62
696.875	2376.3
697.281	2416.7
697.687	2463.38
698.093	2503.34
698.498	2578.36
698.904	2637.84
699.31	2724.95
699.715	2787.08
700.12	2879.08
700.526	2899.08
700.931	2969.21
701.337	3019.71
701.742	3053.29
702.147	3139.16
702.552	3169.65
702.957	3229.87
703.362	3250.05
703.767	3279.87
704.172	3318.64
704.577	3269.28
704.981	3315.5
705.386	3333.91
705.791	3328.11
706.195	3402.05
706.6	3410.71
707.004	3489.26
707.408	3458.88
707.813	3485.34
708.217	3473.38
708.621	3477.67
709.025	3575.17
709.43	3575.69
709.834	3632.74
710.237	3703.56
710.641	3688.33
711.045	3710.26
711.449	3706.36
711.853	3736.04
712.256	3777.58
712.66	3814.76
713.064	3888.55
713.467	3932.1
713.87	4042.91
714.274	4089.52
714.677	4199.06
715.08	4359.2
715.484	4529.37
715.887	4729.07
716.29	4925.52
716.693	5131.87
717.096	5368.09
717.499	5497.99
717.901	5523.81
718.304	5553.02
718.707	5575.79
719.109	5472.55
719.512	5440.67
719.915	5304.91
720.317	5250.65
720.719	5294.69
721.122	5266.94
721.524	5219.72
721.926	5181.57
722.328	5280
722.731	5272.25
723.133	5301.61
723.535	5490.35
723.937	5509.27
724.338	5558.95
724.74	5596.47
725.142	5542.34
725.544	5541.32
725.945	5568.08
726.347	5561.72
726.748	5552.04
727.15	5560.61
727.551	5521.98
727.952	5493.53
728.354	5466.25
728.755	5464.65
729.156	5423.9
729.557	5400.92
729.958	5279.47
730.359	5221.08
730.76	5201.02
731.161	5141.77
731.562	5116.68
731.962	5119.31
732.363	5058.16
732.763	4996.76
733.164	5031.9
733.564	4965
733.965	4870.6
734.365	4834.33
734.766	4863.01
735.166	4824.14
735.566	4771.64
735.966	4747.83
736.366	4743.29
736.766	4681.52
737.166	4709.99
737.566	4669.54
737.966	4644.9
738.365	4683.39
738.765	4680.05
739.165	4605.74
739.564	4579.49
739.964	4621.5
740.363	4575.37
740.763	4572.35
741.162	4561.81
741.561	4531.15
741.96	4485.1
742.36	4504.02
742.759	4510.48
743.158	4546.13
743.557	4560.29
743.955	4600.73
744.354	4556.55
744.753	4613.82
745.152	4571.14
745.55	4623.89
745.949	4616.62
746.348	4619.95
746.746	4636.62
747.144	4597.81
747.543	4576.78
747.941	4625.5
748.339	4557.28
748.737	4549.82
749.136	4539.87
749.534	4604.42
749.932	4576.61
750.33	4598.55
750.727	4652.75
751.125	4630.09
751.523	4614.54
751.921	4656.22
752.318	4623.29
752.716	4680.11
753.113	4695.51
753.511	4719.85
753.908	4718.53
754.305	4702.02
754.703	4763.09
755.1	4820.9
755.497	4877.06
755.894	5061.83
756.291	5235.88
756.688	5558.27
757.085	5984.05
757.482	6581.45
757.878	7237.26
758.275	7831.61
758.672	8645.86
759.068	9306.87
759.465	10251.6
759.861	11473.45
760.258	12886.24
760.654	13611.68
761.05	13494.32
761.447	12874.43
761.843	11987.37
762.239	11065.66
762.635	10656.88
763.031	10261.39
763.427	9691.54
763.822	9089.68
764.218	8494.39
764.614	7719.45
765.01	7201.44
765.405	6867.29
765.801	6615.84
766.196	6291.98
766.592	6114.33
766.987	5804.87
767.382	5595.03
767.778	5504.68
768.173	5378.15
768.568	5304.76
768.963	5180.27
769.358	5199.58
769.753	5152.78
770.148	5069.61
770.542	5068.59
770.937	5036.98
771.332	5123.14
771.726	5142.83
772.121	5082.44
772.515	5134.66
772.91	5122.95
773.304	5194.33
773.699	5131.61
774.093	5183.45
774.487	5236.29
774.881	5278.23
775.275	5271.16
775.669	5232.91
776.063	5273.7
776.457	5307.96
776.851	5237.73
777.245	5229.25
777.638	5263.96
778.032	5373.41
778.425	5336.32
778.819	5377.91
779.212	5333.75
779.606	5299.59
779.999	5318.29
780.392	5305.36
780.786	5386.91
781.179	5406.84
781.572	5450.33
781.965	5460.83
782.358	5405.89
782.751	5460.9
783.143	5413.33
783.536	5487.08
783.929	5528.14
784.322	5639.15
784.714	5665.51
785.107	5660.01
785.499	5731.38
785.891	5709.89
786.284	5689.05
786.676	5825.99
787.068	5808.78
787.46	5859.85
787.852	5873.46
788.245	5953.18
788.636	5983.2
789.028	6049.73
789.42	6093.55
789.812	6099.88
790.204	6195.32
790.595	6292.63
790.987	6105.76
791.378	6132.09
791.77	6260.49
792.161	6398.53
792.553	6455.63
792.944	6347.11
793.335	6284.84
793.726	6351.27
794.117	6443.2
794.508	6575.66
794.899	6547.7
795.29	6682.39
795.681	6735.47
796.072	6595.16
796.463	6416.31
796.853	6423.91
797.244	6575.89
797.634	6609.4
798.025	6610.74
798.415	6616.03
798.806	6701.55
799.196	6789.26
799.586	6840.65
799.976	6804.04
800.366	7032.81
800.756	7266.03
801.146	7228.55
801.536	7262.59
801.926	7330.99
802.316	7355.4
802.706	7428.66
803.095	7312.16
803.485	7410.36
803.874	7452.01
804.264	7704.89
804.653	7681.15
805.043	7823.11
805.432	7935.24
805.821	7937.14
806.21	7962.18
806.599	8082.42
806.988	8131.83
807.377	8234.78
807.766	8361.71
808.155	8637.45
808.544	8387.5
808.933	8408.25
809.321	8390.19
809.71	8677.14
810.098	8831.9
810.487	9284.32
810.875	9752.92
811.264	9773.37
811.652	10056.91
812.04	10200.91
812.428	10361.45
812.816	11107.06
813.204	11502.4
813.592	12038.75
813.98	12370.28
814.368	12278.22
814.756	12738.35
815.144	12663.5
815.531	13118.77
815.919	13057.6
816.306	13358.17
816.694	13051.92
817.081	13099.69
817.469	13440.45
817.856	13446.79
818.243	13712.36
818.63	14094.88
819.017	13696.75
819.404	13756.51
819.791	14129.34
820.178	14726.21
820.565	14971.56
820.952	15892.7
821.339	15411.1
821.725	15590.77
822.112	14865.15
822.498	14822.86
822.885	14948.68
823.271	14853.7
823.657	15267.21
824.044	15263.73
824.43	15329.55
824.816	15296.52
825.202	14868.86
825.588	15869.46
825.974	15895.77
826.36	16389.13
826.746	16414.9
827.132	16762.62
827.517	16735.87
827.903	15959.43
828.289	16009.75
828.674	15252.7
829.06	15149.27
829.445	15536.47
829.83	15876.72
830.216	16330.38
830.601	16687.67
830.986	16291.37
831.371	16154.32
831.756	16691.6
832.141	16272.16
832.526	16255.78
832.911	16522.54
833.295	16402
833.68	16851.99
834.065	16239.25
834.449	15349.14
834.834	15270.68
835.218	15267.48
835.603	15598.27
835.987	15392.22
836.371	16205.03
836.755	16106.46
837.139	16498.09
837.524	16735.97
837.908	16559.73
838.291	16624.91
838.675	16688.45
839.059	16888.46
839.443	16867.7
839.827	16645
840.21	17112.59
840.594	16963.41
840.977	17158.9
841.361	17131.77
841.744	17494.95
842.127	17339.65
842.511	17574.95
842.894	18148.36
843.277	18521.49
843.66	19052.9
844.043	19137.23
844.426	18354.85
844.809	18047.16
845.191	18075.39
845.574	17636.65
845.957	17279.78
846.339	17176.06
846.722	16664.86
847.104	16728.66
847.487	16561.05
847.869	16570.53
848.252	16831.96
848.634	17152.07
849.016	17411.77
849.398	17532.18
849.78	18347.71
850.162	18350.22
850.544	18756.41
850.926	19374.26
851.307	19298.13
851.689	19568.25
852.071	20008.75
852.452	20331.65
852.834	20307.67
853.215	20696.31
853.597	20841.14
853.978	21122.56
854.359	21568.63
854.741	20603.31
855.122	20496.94
855.503	20211.4
855.884	20346.36
856.265	20286.72
856.646	20389.7
857.026	20007.33
857.407	19936.12
857.788	20103.15
858.169	20393.15
858.549	19571.68
858.93	20172.49
859.31	20224.24
859.69	20427.95
860.071	20032.1
860.451	19820.9
860.831	19102.56
861.211	20231.2
861.591	20762.6
861.971	20727.84
862.351	20912.88
862.731	21288.18
863.111	21542.01
863.491	21868.12
863.87	22712.57
864.25	23047.98
864.629	22657.35
865.009	23153.77
865.388	23975.09
865.768	25692.61
866.147	25595.02
866.526	24179.12
866.905	24459.96
867.284	25841.64
867.663	24519.66
868.042	23494.3
868.421	23416.23
868.8	23815.04
869.179	24042.53
869.558	22630.78
869.936	20862.86
870.315	21234.4
870.693	21752.33
871.072	23459.89
871.45	22337.27
871.828	22629.03
872.207	23794.61
872.585	23445.6
872.963	24074.82
873.341	23251.92
873.719	22984.5
874.097	22707.77
874.475	23136.23
874.853	23661
875.23	22676.73
875.608	23635.83
875.986	25563
876.363	24440.3
876.741	25166.77
877.118	24538.48
877.495	25749.48
877.873	26184.3
878.25	27552.47
878.627	26426.83
879.004	26788.16
879.381	26655.99
879.758	25948.02
880.135	24161.08
880.512	25567.76
880.889	24894.52
881.265	24639.93
881.642	24432.56
882.019	24840.53
882.395	24335.47
882.772	25303.32
883.148	24207.1
883.524	24113.27
883.901	23973.82
884.277	24332.87
884.653	24176.5
885.029	24882.97
885.405	27552.4
885.781	27327.25
886.157	26200
886.532	26513.24
886.908	26497.75
887.284	29459.7
887.659	30407.6
888.035	31339.38
888.411	32142.31
888.786	32563.42
889.161	33673.37
889.537	33042.78
889.912	34104.79
890.287	34073.12
890.662	34946.93
891.037	34303.5
891.412	31985.45
891.787	31655.8
892.162	30555.61
892.536	31255.47
892.911	30058.7
893.286	29426.51
893.66	28230.61
894.035	28952.16
894.409	31503.78
894.784	30227.98
895.158	30714.1
895.532	32533.21
895.906	33422.06
896.281	34187.78
896.655	33647.39
897.029	38463.42
897.402	40047.45
897.776	44570.3
898.15	44403.33
898.524	43946.37
898.898	44519.29
899.271	49852.08
899.645	43159.85
900.018	41466.78
900.392	43013.16
900.765	43342.35
901.138	40103.38
901.511	39496.47
901.884	36276.46
902.258	33464.3
902.631	34583.82
903.003	39817.95
903.376	35930.15
903.749	40283.07
904.122	43111.35
904.495	47478.98
904.867	48097.87
905.24	41769.59
905.612	38880.74
905.985	39764.86
906.357	41557.88
906.729	39647.43
907.102	33868.57
907.474	32587.16
907.846	32809.68
908.218	32374.79
908.59	28607.49
908.962	27671.22
909.334	29778.95
909.705	31282.83
910.077	30369.97
910.449	31619.16
910.82	32512.56
911.192	35786.82
911.563	37182.15
911.935	39789.37
912.306	39852.68
912.677	41159.27
913.048	40768.2
913.419	44267.46
913.79	44531.95
914.161	47727.61
914.532	45623.42
914.903	41934.86
915.274	39823.83
915.645	39247.45
916.015	34543.79
916.386	32937.06
916.756	35063.28
917.127	36151.46
917.497	32283.3
917.868	35136.83
918.238	33407.65
918.608	34376.42
918.978	35080.34
919.348	37148.42
919.718	38369.88
920.088	36972.34
920.458	38414.25
920.828	40413.16
921.198	38312
921.567	40935.58
921.937	31696.19
922.306	31998.75
922.676	34503.66
923.045	28796.91
923.415	27370.6
923.784	24951.28
924.153	25652.74
924.522	25636.8
924.891	24100.16
925.26	25811.64
925.629	25217.34
925.998	28986.7
926.367	28310.79
926.736	26968.03
927.104	32106.82
927.473	34507.27
927.842	41632.37
928.21	41242.74
928.578	43374.51
928.947	41032.91
929.315	41292.14
929.683	48409.27
930.051	48820.86
930.42	56681.84
930.788	48463.38
931.156	48118.89
931.523	45093.58
931.891	41667.32
932.259	40012.49
932.627	46315.94
932.994	65523.23
933.362	54148.49
933.729	47045.37
934.097	45005.08
934.464	38062.16
934.831	43884.84
935.199	43214.78
935.566	41901.56
935.933	42435.13
936.3	51397.93
936.667	40022
937.034	36077.9
937.401	35689.43
937.767	30770.72
938.134	27411.03
938.501	38705.81
938.867	41236.71
939.234	69768.91
939.6	59525.78
939.967	65654.3
940.333	43935.59
940.699	37451.82
941.065	30069.56
941.431	39436.34
941.798	38043.13
942.163	49974.04
942.529	31191.15
942.895	28763.21
943.261	18613.93
943.627	24432.63
943.992	21411.29
944.358	21457.49
944.723	21525.2
945.089	21008.48
945.454	19405.6
945.82	20718.86
946.185	19901.78
946.55	23072.39
946.915	20677.77
947.28	24251.04
947.645	21345.41
948.01	19687.83
948.375	20520.18
948.74	24593.84
949.104	28654.95
949.469	41367.97
949.834	73098.93
950.198	69359.68
950.562	41591.56
950.927	34663.23
951.291	41724.43
951.655	35538.63
952.02	33394.42
952.384	25269.35
952.748	22001.39
953.112	21470.16
953.476	18691.59
953.839	17297.48
954.203	17088.69
954.567	21363.18
954.931	33633.67
955.294	28733.4
955.658	28930.03
956.021	49194.92
956.385	83294.57
956.748	122990.1
957.111	190636.25
957.474	213891.5
957.837	240703.11
958.2	182311.3
958.563	65537.09
958.926	44319.37
959.289	67394.71
959.652	75165.83
960.015	56412.21
960.377	81088.66
960.74	92446.53
961.102	159682.59
961.465	171475.57
961.827	91912.93
962.189	176360.24
962.552	122248.36
962.914	97985.61
963.276	63547.45
963.638	52592.66
964	52047.47
964.362	35145.81
964.724	34012.97
965.085	24249.2
965.447	19878.4
965.809	22631.27
966.17	22645.42
966.532	24503.93
966.893	22518.04
967.255	20477.69
967.616	24177.04
967.977	19363.69
968.338	21150.65
968.699	17370.52
969.061	17383.14
969.421	17498.65
969.782	19619.9
970.143	16602.32
970.504	17207.93
970.865	19525.28
971.225	19957.83
971.586	19520.55
971.946	27810.91
972.307	24162.08
972.667	31594.26
973.027	32505.15
973.388	39415.6
973.748	26838.08
974.108	29214.54
974.468	39535.15
974.828	30502.57
975.188	23474.89
975.548	21556.45
975.907	18133.6
976.267	20316.25
976.627	17061.61
976.986	17700.38
977.346	16882.95
977.705	16245.46
978.064	14772.67
978.424	12284.04
978.783	12688.71
979.142	14499.04
979.501	13871.15
979.86	14644.16
980.219	14119.05
980.578	18199.13
980.937	20369.13
981.296	18151.96
981.654	18661.99
982.013	29075.19
982.371	37707.6
982.73	35225.23
983.088	39854.44
983.447	42561.43
983.805	60816.07
984.163	127079.38
984.521	141129.5
984.879	206737.69
985.237	-336398.75
985.595	324463.25
985.953	80660.08
986.311	46601.93
986.669	27075.84
987.026	23390.66
987.384	31438.3
987.741	32464.07
988.099	23181.56
988.456	18469.26
988.814	17315.62
989.171	15048.83
989.528	14850.4
989.885	15677.6
990.242	12413.83
990.599	15456.12
990.956	12622.22
991.313	8835.01
991.67	7255.72
992.027	7689.22
992.383	6834.73
992.74	5983.47
993.096	6267.75
993.453	6494.74
993.809	6726.43
994.165	8972.98
994.522	8233.55
994.878	9065.15
995.234	11362.3
995.59	11236.79
995.946	10633.29
996.302	12108.12
996.658	14035.54
997.013	15490.48
997.369	18367.64
997.725	23538.75
998.08	15235.03
998.436	23460.65
998.791	32424.6
999.147	32394.86
999.502	35200.3
999.857	25617.11
1000.212	41844.4
1000.567	59472.86
1000.922	34321.33
1001.277	21819.93
1001.632	16161.72
1001.987	20814.7
1002.342	14938.27
1002.696	11948.55
1003.051	9543.28
1003.406	11597.15
1003.76	11534.33
1004.114	11356.48
1004.469	9558.34
1004.823	7900.34
1005.177	8520.31
1005.531	6735.01
1005.885	5978.53
1006.239	6747.88
1006.593	8468.38
1006.947	11307.07
1007.301	8477.13
1007.655	9253.17
1008.008	6806.75
1008.362	7632.21
1008.715	10887.42
1009.069	9885.39
1009.422	14897.47
1009.776	29890
1010.129	19882.56
1010.482	16606.15
1010.835	14044
1011.188	29161.09
1011.541	27415.47
1011.894	-167153.75
1012.247	492302.94
1012.6	33489.79
1012.952	21143.14
1013.305	10930.67
1013.657	7877.61
1014.01	7420.64
1014.362	6112.36
1014.715	5451.82
1015.067	4751.15
1015.419	4653.58
1015.771	4137.81
1016.123	3680.79
1016.475	3777.57
1016.827	4024.02
1017.179	4328.61
1017.531	4371.6
1017.883	4489.72
1018.234	4355.93
1018.586	5496.38
1018.938	5824.07
1019.289	8016.73
1019.64	9154.48
1019.992	8536.22
1020.343	7836.08
1020.694	6209.52
1021.045	5501.86
1021.396	6263.62
1021.747	6718.43
1022.098	8038.83
1022.449	5790.09
1022.8	5382.71
1023.151	3768.51
1023.501	3354.88
1023.852	3631.27
1024.202	3762.05
1024.553	4136.69
1024.903	4021.84
1025.253	3446.88
1025.604	3088.16
1025.954	3837.46
1026.304	4702.97
1026.654	5478.29
1027.004	8042.78
1027.354	12948.7
1027.703	12283.14
1028.053	16132.12
1028.403	23670.59
1028.753	34262.66
1029.102	46400.71
1029.452	238411.45
1029.801	10226.35
1030.15	6613.48
1030.499	5611.94
897.758	2759.39
901.051	2718.07
904.343	2753.39
907.636	2753.33
910.928	2817.94
914.22	2728.79
917.511	2737.33
920.803	2800.21
924.094	2824.42
927.384	2798.89
930.675	2764.18
933.965	2714.63
937.255	2720.78
940.544	2689.14
943.834	2617.06
947.123	2564.84
950.411	2659.78
953.7	2632.75
956.988	2601.72
960.276	2538.93
963.563	2628.35
966.851	2621.02
970.138	2684.52
973.424	2676.77
976.711	2624.37
979.997	2773.27
983.283	2804.64
986.568	2705.19
989.853	2724.97
993.138	2753.03
996.423	2839.04
999.708	2769.53
1002.992	2842.42
1006.275	2659.7
1009.559	2713.3
1012.842	2835.84
1016.125	2763.15
1019.408	2741.24
1022.69	2835.76
1025.972	2851.28
1029.254	2824.93
1032.536	2750.73
1035.817	2781.01
1039.098	2717.78
1042.379	2880.74
1045.659	2876.18
1048.939	2801.75
1052.219	2825.99
1055.498	2842.03
1058.778	2822.62
1062.057	2810.11
1065.335	2830.01
1068.614	2851.46
1071.892	2831.48
1075.17	2911.3
1078.447	2898.01
1081.724	2885.75
1085.001	2925.91
1088.278	2898.74
1091.554	2910.61
1094.83	2909.69
1098.106	2936.53
1101.382	2984.34
1104.657	2982.72
1107.932	2978.4
1111.206	2941.93
1114.481	2899.18
1117.755	2900.65
1121.029	2876.14
1124.302	2930
1127.575	2879.18
1130.848	2864.15
1134.121	2822.64
1137.393	2769.72
1140.665	2839.9
1143.937	2814.03
1147.208	2775.6
1150.48	2811.96
1153.75	2799.14
1157.021	2836.85
1160.291	2803.75
1163.561	2851.85
1166.831	2842.93
1170.101	2876.77
1173.37	2851.39
1176.639	2793.68
1179.907	2854.99
1183.176	2858.3
1186.444	2868.46
1189.711	2899.09
1192.979	2908.75
1196.246	2866.87
1199.513	2880.98
1202.78	2879.76
1206.046	2889.24
1209.312	2918.28
1212.578	2943.81
1215.843	2893.09
1219.108	2865
1222.373	2886.45
1225.638	2848.52
1228.902	2833.05
1232.166	2797.17
1235.43	2779.6
1238.693	2803.03
1241.956	2799.16
1245.219	2837.31
1248.482	2830.48
1251.744	2823.79
1255.006	2983.97
1258.268	2941.76
1261.529	2880.41
1264.79	2886.46
1268.051	2992.94
1271.312	3015.07
1274.572	2973.77
1277.832	2962.59
1281.092	2952.77
1284.351	2924.44
1287.61	2900.29
1290.869	2812.76
1294.128	2782.28
1297.386	2881.73
1300.644	2871
1303.902	2882.77
1307.159	2733.12
1310.416	2791.14
1313.673	2819.32
1316.93	2801.4
1320.186	2850.7
1323.442	2898.58
1326.697	2879.58
1329.953	2876.56
1333.208	2896.81
1336.463	2875.21
1339.717	2811.6
1342.972	2954.32
1346.226	2929.4
1349.479	2857.22
1352.733	2824.96
1355.986	2850.86
1359.238	2825.52
1362.491	2832.66
1365.743	2834.64
1368.995	2829.26
1372.247	2850.26
1375.498	2874.47
1378.749	2885.84
1382	2840.72
1385.251	2897.74
1388.501	2862.07
1391.751	2842.96
1395	2814.58
1398.25	2846.01
1401.499	2853.44
1404.748	2776.98
1407.996	2763.08
1411.244	2747.94
1414.492	2725.14
1417.74	2707.69
1420.987	2718.34
1424.234	2775.52
1427.481	2757.23
1430.728	2816.45
1433.974	2790.38
1437.22	2806.94
1440.465	2805.99
1443.711	2763.51
1446.956	2804.98
1450.201	2794.32
1453.445	2838.51
1456.689	2815.02
1459.933	2826.5
1463.177	2861.28
1466.42	2833.12
1469.663	2812.28
1472.906	2802.96
1476.148	2892.35
1479.391	2841.34
1482.633	2810.21
1485.874	2823.19
1489.115	2802.76
1492.356	2813.44
1495.597	2788.75
1498.838	2792.27
1502.078	2757.51
1505.318	2704.52
1508.557	2746.53
1511.797	2715.51
1515.036	2799.46
1518.274	2789.73
1521.513	2762.21
1524.751	2788.64
1527.989	2796.95
1531.227	2810.34
1534.464	2800.58
1537.701	2826.77
1540.938	2846.09
1544.174	2801.68
1547.41	2800.95
1550.646	2841.43
1553.882	2874.88
1557.117	2930.22
1560.352	2944.83
1563.587	2903.75
1566.821	2860.75
1570.055	2899.32
1573.289	2864.14
1576.523	2947.03
1579.756	2950.28
1582.989	2969.14
1586.222	2930.27
1589.454	2969.58
1592.686	2939.89
1595.918	2965.64
1599.15	2950.96
1602.381	3035.3
1605.612	2983.67
1608.843	3087.5
1612.073	2993.74
1615.303	2979.75
1618.533	2968.44
1621.762	2970.81
1624.992	2960.61
1628.221	2944.35
1631.449	2926.94
1634.678	2989.18
1637.906	2935.66
1641.134	2977.2
1644.361	2930.92
1647.588	2918.45
1650.815	2932.21
1654.042	2913.89
1657.269	2944.26
1660.495	2891.06
1663.72	2904.04
1666.946	2869.41
1670.171	2805.42
1673.396	2784.08
1676.621	2774.29
1679.845	2796.99
1683.069	2821.34
1686.293	2869.49
1689.517	2834.91
1692.74	2760.09
1695.963	2792.47
1699.185	2818.37
1702.408	2791.97
1705.63	2837.87
1708.852	2848.25
1712.073	2818.92
1715.294	2800.39
1718.515	2865.19
1721.736	2808.19
1724.956	2804.42
1728.176	2832.13
1731.396	2853.44
1734.616	2843.89
1737.835	2870.58
1741.054	2849.33
1744.272	2841.86
1747.491	2872.61
1750.709	2933.28
1753.927	2827.49
1757.144	2878.33
1760.361	2919.16
1763.578	2914.56
1766.795	2854.04
1770.011	2864.74
1773.227	2906.45
1776.443	2939.21
1779.658	2985.72
1782.874	2929.7
1786.089	2903.82
1789.303	2907.74
1792.518	2911.29
1795.732	2899.38
1798.945	2907.18
1802.159	2960.18
1805.372	2851.25
1808.585	2835.08
1811.797	2841.77
1815.01	2895.14
1818.222	2892.42
1821.434	2852.38
1824.645	2915.21
1827.856	2895.1
1831.067	2934.46
1834.278	2893.58
1837.488	2876.36
1840.698	3032.74
1843.908	2953.65
1847.117	2912.46
1850.326	2786.88
1853.535	2904.43
1856.744	2940.51
1859.952	2852.58
1863.16	2854.14
1866.368	2876.59
1869.575	2982.84
1872.782	2862.1
1875.989	2802.43
1879.196	2895.52
1882.402	2889.06
1885.608	2931.9
1888.814	2823.58
1892.019	2716.25
1895.224	2768.72
1898.429	2753.06
1901.634	2728.61
1904.838	2705.77
1908.042	2758.78
1911.246	2760.6
1914.449	2684.95
1917.652	2685.4
1920.855	2665.53
1924.058	2719.75
1927.26	2757
1930.462	2785.4
1933.664	2808.78
1936.865	2743.95
1940.066	2748.55
1943.267	2697.49
1946.467	2713.95
1949.668	2743.9
1952.868	2811.39
1956.067	2788.71
1959.267	2715.7
1962.466	2743.65
1965.665	2729.48
1968.863	2723.32
1972.061	2742.72
1975.259	2745.34
1978.457	2822.62
1981.654	2784.67
1984.852	2783.92
1988.048	2711.06
1991.245	2717.17
1994.441	2804.81
1997.637	2795.97
2000.833	2777.32
2004.028	2818.3
2007.223	2870.98
2010.418	2845.57
2013.613	2807.67
2016.807	2770.91
2020.001	2781.85
2023.194	2829.34
2026.388	2804.2
2029.581	2751.18
2032.774	2796.23
2035.966	2800.6
2039.158	2729.65
2042.35	2761.3
2045.542	2683.29
2048.733	2794.4
2051.924	2820.9
2055.115	2849.82
2058.306	2789.56
2061.496	2850.13
2064.686	2919.97
2067.875	2830.87
2071.065	2848.99
2074.254	2879.16
2077.442	2828.18
2080.631	2924.16
2083.819	2802.44
2087.007	2785.54
2090.195	2754.23
2093.382	2792.03
2096.569	2769.69
2099.756	2717.62
2102.942	2743.68
2106.128	2747.69
2109.314	2739.98
2112.5	2698.12
2115.685	2675.37
2118.87	2687.71
2122.055	2751.28
2125.239	2715.07
2128.424	2685.88
2131.608	2799.69
2134.791	2776.94
2137.974	2840.43
2141.157	2824.76
2144.34	2770.62
2147.523	2788.86
2150.705	2800.19
2153.887	2779.98
2157.068	2727.18
2160.25	2732.99
2163.431	2773.38
2166.611	2713.72
2169.792	2733.96
2172.972	2620.04
2176.152	2703.44
2179.331	2742.11
2182.511	2721.75
2185.69	2752.66
2188.868	2745.6
2192.047	2807.85
2195.225	2792.4
2198.403	2742.37
2201.58	2734.59
2204.758	2730.23
2207.935	2819.25
2211.111	2699.95
2214.288	2683.08
2217.464	2724.27
2220.64	2696.88
2223.815	2753.88
2226.991	2670.55
2230.166	2691.06
2233.34	2720.3
2236.515	2748.39
2239.689	2826.81
2242.863	2767.15
2246.036	2824.75
2249.209	2827.66
2252.382	2865.54
2255.555	2848.62
2258.727	2783.49
2261.9	2824.6
2265.071	2818.39
2268.243	2821.3
2271.414	2748.67
2274.585	2702.34
2277.756	2770.24
2280.926	2728.85
2284.096	2773.46
2287.266	2675.21
2290.436	2734.32
2293.605	2764.32
2296.774	2794.52
2299.942	2819.85
2303.111	2831.08
2306.279	2882.76
2309.447	2870.32
2312.614	2846.73
2315.781	2864.56
2318.948	2830.62
2322.115	2869.55
2325.281	2770.5
2328.447	2793.04
2331.613	2769.29
2334.779	2735.5
2337.944	2745.37
2341.109	2739.77
2344.274	2721.05
2347.438	2684.79
2350.602	2710.97
2353.766	2729.36
2356.929	2714.44
2360.092	2755.3
2363.255	2705.5
2366.418	2630.25
2369.58	2754.52
2372.742	2522.43
2375.904	2541.5
2379.066	2515.79
2382.227	2555.6
2385.388	2515.93
2388.548	2435.99
2391.709	2494.97
2394.869	2476.28
2398.029	2581.35
2401.188	2601.15
2404.347	2526.58
2407.506	2683.34
2410.665	2710.6
2413.823	2719.69
2416.981	2671.99
2420.139	2707.87
2423.296	2759.73
2426.453	2731.68
2429.61	2755.87
2432.767	2683.39
2435.923	2717.7
2439.079	2679.47
2442.235	2730.71
2445.391	2652.71
2448.546	2681.37
2451.701	2734.1
2454.855	2701.62
2458.009	2761.63
2461.163	2766.05
2464.317	2722.79
2467.471	2757.47
2470.624	2801.25
2473.777	2774.09
2476.929	2788.05
2480.082	2815.64
2483.234	2776.31
2486.385	2732.57
2489.537	2725.11
2492.688	2677.91
2495.839	2697.66
2498.989	2705.11
2502.14	2690.09
2505.29	2667.71
2508.439	2697.17
2511.589	2613.82
2514.738	2630.27
2517.887	2663
2521.035	2723.81
2524.183	2710.14
2527.331	2691.22
2530.479	2660.07
2533.627	2674.59
