Data from N_3_DEC_OH_4N_Splice17_13-27-08-504.txt Node
Date: Sat Mar 14 13:27:08 EDT 2020
User: sa697716
Spectrometer: FLMS03696
Trigger mode: 0
Integration Time (sec): 3.180400E-1
Scans to average: 20
Electric dark correction enabled: true
Nonlinearity correction enabled: true
Boxcar width: 5
XAxis mode: Wavelengths
Number of Pixels in Spectrum: 2048
>>>>>Begin Spectral Data<<<<<
187.83	-342839.93
188.298	2496.85
188.766	1304.84
189.233	1139.65
189.701	1581.82
190.169	2225.18
190.636	801.56
191.104	648.33
191.571	41.77
192.039	-173.58
192.506	-177.26
192.974	473.54
193.441	-579.9
193.908	-152.08
194.375	-83.58
194.842	-51.57
195.31	56.4
195.777	119.49
196.244	403.91
196.711	447.36
197.177	553.65
197.644	791.88
198.111	1397.93
198.578	1966.75
199.045	1570.03
199.511	2604.85
199.978	3014.35
200.445	2533.55
200.911	2832.12
201.378	3082.15
201.844	2801.24
202.31	4777.3
202.777	4994.72
203.243	2772.04
203.709	2641.23
204.176	3158.79
204.642	2568.68
205.108	2401.92
205.574	1968.76
206.04	1790.56
206.506	1694.59
206.972	1583.57
207.438	1536.48
207.903	1745.59
208.369	1539.72
208.835	1513.19
209.301	1581.99
209.766	1613.01
210.232	1590.02
210.697	1951.81
211.163	2394.81
211.628	3596.59
212.094	3040.49
212.559	3739.52
213.024	2341.06
213.49	2850
213.955	2781.98
214.42	2722.1
214.885	2542.03
215.35	2467.32
215.815	2404.69
216.28	2565.46
216.745	2087.11
217.21	2261.1
217.675	2065.2
218.14	2319.52
218.604	2587.89
219.069	2980.81
219.534	3157.56
219.998	3685.62
220.463	4468.62
220.927	5497.58
221.392	5176.67
221.856	5262.61
222.32	6635.98
222.785	8233.43
223.249	10363.3
223.713	11601.62
224.177	11592.66
224.642	14832.09
225.106	18299.91
225.57	20005.36
226.034	14869.85
226.497	22659.72
226.961	20486.02
227.425	23853
227.889	26367.49
228.353	26369.32
228.816	54420.95
229.28	52042.98
229.744	43866.88
230.207	26640.49
230.671	26191.91
231.134	43345.46
231.597	49976.6
232.061	49908.16
232.524	48678.47
232.987	33552.13
233.45	30157.23
233.914	27023.46
234.377	27696.18
234.84	25347.04
235.303	29809.38
235.766	33244.34
236.229	34254.41
236.691	21537.26
237.154	24172.93
237.617	18165.09
238.08	18591.35
238.542	21751.73
239.005	15532.42
239.468	15399.56
239.93	14491.02
240.393	13168.91
240.855	11556.08
241.317	11851.99
241.78	14404.43
242.242	14901.09
242.704	16089.99
243.166	14012.7
243.629	12739.93
244.091	14681.44
244.553	16080.03
245.015	17298.85
245.477	22373.37
245.939	32749.62
246.4	34748.42
246.862	33793.55
247.324	31840.47
247.786	35558.95
248.247	46544.75
248.709	47974.99
249.17	35881.22
249.632	33805.57
250.093	39194.91
250.555	33863.68
251.016	20663.21
251.477	19587.39
251.939	21141.6
252.4	22162.69
252.861	26365.53
253.322	24538.63
253.783	29194.39
254.244	37866.3
254.705	29838.29
255.166	26496.86
255.627	26074.18
256.088	36818.89
256.549	39062.08
257.009	33626.22
257.47	40791
257.931	33184.07
258.391	24843.61
258.852	25597.93
259.312	26811.63
259.773	33103.87
260.233	27995.57
260.694	23590.56
261.154	26694.77
261.614	21442.7
262.074	19153.03
262.534	19906.3
262.994	18770.41
263.455	24982.01
263.915	21030.53
264.374	19775.16
264.834	21567.94
265.294	23861.43
265.754	24719.19
266.214	23409.2
266.673	21921.65
267.133	27641.63
267.593	27374.58
268.052	33523.05
268.512	29153.38
268.971	35155.37
269.431	38573.38
269.89	34511.94
270.349	51729.28
270.809	57675.2
271.268	51806.34
271.727	116146.2
272.186	75241.41
272.645	56414.41
273.104	40617.08
273.563	58769.06
274.022	46182.6
274.481	39266.25
274.94	30285.74
275.399	22495.25
275.857	26154.43
276.316	35346.02
276.775	31449.99
277.233	30965.23
277.692	29001.6
278.15	32824.53
278.609	33783.29
279.067	31292.46
279.525	29121.86
279.984	37569.85
280.442	45146.94
280.9	44591.23
281.358	29378.43
281.816	27340.66
282.274	26755.86
282.732	27644.77
283.19	27771.71
283.648	23970.18
284.106	25481.96
284.564	25846.82
285.021	23986.2
285.479	17876.76
285.937	16245.13
286.394	14255.04
286.852	14675.43
287.309	15428.39
287.767	14922.81
288.224	14200.74
288.682	15585.65
289.139	17118.43
289.596	15689.06
290.053	16289.86
290.511	20552.79
290.968	24893.91
291.425	33741.26
291.882	28108.52
292.339	24470.94
292.796	24229.41
293.252	22825.99
293.709	18140.34
294.166	16255.52
294.623	17964.12
295.079	17245.43
295.536	17336.1
295.992	15752.48
296.449	15573.8
296.905	16196.94
297.362	15524.9
297.818	16318.45
298.274	16935.68
298.731	17226.31
299.187	17059.15
299.643	18290.85
300.099	22123.14
300.555	24250.21
301.011	20256.25
301.467	19576.72
301.923	22896.74
302.379	22381.33
302.835	22030.66
303.291	22064.76
303.746	25157.23
304.202	31799.92
304.658	31924.25
305.113	21490.3
305.569	21100.71
306.024	22521.7
306.479	21395.98
306.935	18055.41
307.39	19702.44
307.845	18196.39
308.301	18303.46
308.756	17850.29
309.211	17211.85
309.666	17667.47
310.121	21936.82
310.576	22237.67
311.031	22037.5
311.486	25233.79
311.94	25185.96
312.395	33710.61
312.85	63306.67
313.305	310684.96
313.759	1609709.25
314.214	116647
314.668	92399.61
315.123	77712.42
315.577	27890.3
316.032	24790.89
316.486	31091.09
316.94	24569.32
317.394	17111.19
317.849	13274.24
318.303	12583.59
318.757	11857.1
319.211	13081.35
319.665	11454.12
320.119	11581.55
320.572	16577.74
321.026	15489.84
321.48	12892.89
321.934	14030.86
322.387	14028.54
322.841	15185.99
323.295	13654.09
323.748	15707.33
324.202	15950.02
324.655	19145.92
325.108	26755.81
325.562	18905.09
326.015	22477.9
326.468	16980.43
326.921	18978.09
327.374	17736.59
327.827	18449.24
328.28	20879.9
328.733	13976.77
329.186	12296.98
329.639	11725.25
330.092	9882.75
330.545	9410.35
330.997	9491.75
331.45	10379.7
331.903	12176.15
332.355	20897.51
332.808	20306.22
333.26	16714.69
333.713	18171.87
334.165	18258.67
334.617	24309.47
335.069	19594.32
335.522	35428.28
335.974	39243.04
336.426	35809.25
336.878	24776.4
337.33	12571
337.782	12261.04
338.234	15414.38
338.686	18427.01
339.137	21851.12
339.589	20594.02
340.041	16174.03
340.493	13906.41
340.944	14216.94
341.396	15299.21
341.847	12872.64
342.299	15212.73
342.75	18590.92
343.201	16202.93
343.653	18643.07
344.104	22862.63
344.555	17993.31
345.006	27943.82
345.457	21401.4
345.908	16988.86
346.359	15979.53
346.81	13007.3
347.261	13685.59
347.712	13467.59
348.163	14432.96
348.613	14621.27
349.064	13669.13
349.515	11957.84
349.965	12257.59
350.416	14750.97
350.866	16209.05
351.317	18306.65
351.767	30300.19
352.217	38260.14
352.668	31749.4
353.118	29084.6
353.568	27956.28
354.018	22129.78
354.468	23340.75
354.918	16788.02
355.368	14667.86
355.818	20696.24
356.268	59587.93
356.718	249617.06
357.168	62111.87
357.617	31121.21
358.067	34559.49
358.517	32393.58
358.966	37981.28
359.416	42618.09
359.865	45957.41
360.315	54646.3
360.764	25513.66
361.213	14289.93
361.663	13521.2
362.112	16684.08
362.561	26982.66
363.01	20387.81
363.459	17138.72
363.908	18526.11
364.357	15774.22
364.806	26658.43
365.255	18331.54
365.703	16786.96
366.152	16824.98
366.601	13643.98
367.05	11086.09
367.498	10079.01
367.947	10517.12
368.395	10943.13
368.844	9682.06
369.292	11628.46
369.74	8028.94
370.189	12274.36
370.637	14398.47
371.085	12397.19
371.533	15063.87
371.981	14482.16
372.429	13779.82
372.877	14317.52
373.325	11968.58
373.773	12172.76
374.221	10845.99
374.669	13424.67
375.116	11602.85
375.564	11675.83
376.012	13064.77
376.459	10784.79
376.907	12892.61
377.354	15579.05
377.801	14564.42
378.249	16727.52
378.696	21367.43
379.143	25872.72
379.591	27547.34
380.038	46687.82
380.485	33786.35
380.932	36374.74
381.379	33281.42
381.826	24477.2
382.273	17372.56
382.72	15127.47
383.166	14717.6
383.613	9528.8
384.06	8540.96
384.506	9871.06
384.953	7212.28
385.4	7225.41
385.846	6310.08
386.292	6129.36
386.739	5980.65
387.185	5891.72
387.631	5894.74
388.078	5724.47
388.524	6112.04
388.97	5648.46
389.416	4707.91
389.862	5008.96
390.308	4755.53
390.754	4832.26
391.2	5240.31
391.645	5365.61
392.091	5155.05
392.537	4988.22
392.983	4988.46
393.428	4939.36
393.874	5290.21
394.319	5338.46
394.765	5086.63
395.21	5219.97
395.655	4902.23
396.101	4599.49
396.546	4165.03
396.991	4209.08
397.436	3914.99
397.881	3795.51
398.326	3599.3
398.771	3428.83
399.216	3002.17
399.661	2710.43
400.106	2725.77
400.551	2820.21
400.995	2554
401.44	2546.28
401.885	2410.04
402.329	2453.48
402.774	2372.66
403.218	2314.98
403.663	2243.05
404.107	2325.52
404.551	2364.92
404.995	2180.3
405.44	2106.27
405.884	2143.07
406.328	2085.88
406.772	2090.99
407.216	1919.65
407.66	1866.84
408.104	1779.64
408.547	1676.35
408.991	1630.18
409.435	1575.5
409.879	1560.23
410.322	1551.65
410.766	1507.82
411.209	1440.28
411.653	1390.62
412.096	1369.82
412.54	1378.03
412.983	1376.67
413.426	1392.82
413.869	1398.61
414.312	1377.86
414.756	1334.07
415.199	1278.35
415.642	1248.54
416.085	1253.57
416.527	1249.1
416.97	1272.17
417.413	1211.33
417.856	1202.55
418.298	1190.94
418.741	1185.48
419.184	1186.84
419.626	1239.91
420.069	1244.22
420.511	1255.16
420.953	1233.95
421.396	1225.43
421.838	1195.2
422.28	1223.23
422.722	1232.44
423.164	1250.69
423.606	1231.51
424.048	1229.76
424.49	1171.49
424.932	1166.05
425.374	1149.38
425.816	1168.67
426.258	1191.33
426.699	1207.31
427.141	1190.89
427.582	1207.66
428.024	1201.66
428.465	1193.43
428.907	1164.25
429.348	1149.02
429.789	1147.89
430.231	1124.73
430.672	1140.28
431.113	1111.35
431.554	1091.73
431.995	1064.38
432.436	1029.17
432.877	1007.26
433.318	992.81
433.759	987.61
434.2	989.11
434.64	978.82
435.081	982.56
435.522	932.17
435.962	900.4
436.403	884.98
436.843	898.24
437.284	878.64
437.724	854.36
438.164	856.11
438.604	840.34
439.045	812.45
439.485	781.75
439.925	766.12
440.365	749.9
440.805	742.76
441.245	736.47
441.685	711.3
442.125	709.78
442.564	719.48
443.004	708.35
443.444	711.39
443.883	714.39
444.323	713.29
444.762	719.87
445.202	734.3
445.641	755.31
446.081	756.16
446.52	767.92
446.959	766.18
447.398	753.87
447.837	749.44
448.276	741.94
448.716	755.43
449.154	766.5
449.593	753.3
450.032	754.5
450.471	743.03
450.91	746.81
451.349	750.16
451.787	750.24
452.226	764.22
452.664	768.15
453.103	771.73
453.541	772.63
453.98	774.37
454.418	782.28
454.856	772.54
455.295	772.69
455.733	780.68
456.171	785.66
456.609	787.44
457.047	787.84
457.485	800.64
457.923	803.01
458.361	792.96
458.798	795.48
459.236	792.91
459.674	797.64
460.111	801.91
460.549	794.4
460.987	791.78
461.424	788.57
461.862	782.84
462.299	767.94
462.736	765.36
463.173	765.98
463.611	757.67
464.048	754.75
464.485	760.38
464.922	750.71
465.359	744.47
465.796	733.95
466.233	727.68
466.67	721.23
467.106	719.35
467.543	711.84
467.98	703.6
468.416	684.36
468.853	678.55
469.29	658.49
469.726	653.66
470.162	636.5
470.599	628.41
471.035	623.85
471.471	610.08
471.907	607.66
472.344	604.97
472.78	608.04
473.216	617.15
473.652	611.48
474.088	610.97
474.523	610.42
474.959	618.42
475.395	614.7
475.831	613.32
476.266	618.35
476.702	618.25
477.138	612.44
477.573	611.57
478.008	611.24
478.444	616.05
478.879	623.19
479.314	627.35
479.75	628.16
480.185	632.26
480.62	638.53
481.055	642.16
481.49	648.2
481.925	659.54
482.36	672.86
482.795	693.38
483.229	713.48
483.664	730.64
484.099	734.12
484.534	747.01
484.968	756.17
485.403	760.64
485.837	762.38
486.271	763.65
486.706	766.01
487.14	758.13
487.574	747.52
488.009	741.81
488.443	737.03
488.877	746.92
489.311	751.61
489.745	762.66
490.179	772.63
490.613	789.89
491.046	798.52
491.48	808.33
491.914	813.79
492.348	822.64
492.781	831.86
493.215	838.03
493.648	843.6
494.082	854.53
494.515	859.33
494.948	873
495.382	883.3
495.815	893.59
496.248	905.14
496.681	926.6
497.114	947.19
497.547	966.11
497.98	987.81
498.413	1001.98
498.846	1020.59
499.279	1037.75
499.711	1049.83
500.144	1059.72
500.577	1079.88
501.009	1100.75
501.442	1119.51
501.874	1126.56
502.306	1134.97
502.739	1151.22
503.171	1176.66
503.603	1186.2
504.036	1204.87
504.468	1217.44
504.9	1236.79
505.332	1251.35
505.764	1260.31
506.196	1273.58
506.627	1297.67
507.059	1320.38
507.491	1336.23
507.923	1334.95
508.354	1358.11
508.786	1374.88
509.217	1400.73
509.649	1423.37
510.08	1451.17
510.512	1476.77
510.943	1498.07
511.374	1515.24
511.805	1542.73
512.237	1569.32
512.668	1616.01
513.099	1653.55
513.53	1690.79
513.961	1718.02
514.391	1760.66
514.822	1803.26
515.253	1849.62
515.684	1882
516.114	1918.3
516.545	1943.89
516.975	1976.35
517.406	1996.13
517.836	1994.43
518.267	1997.97
518.697	2016.88
519.127	2017.6
519.558	2022.29
519.988	2021.8
520.418	2030.71
520.848	2049.56
521.278	2055.69
521.708	2069.55
522.138	2080.58
522.567	2117.87
522.997	2146.75
523.427	2163.61
523.857	2180.27
524.286	2187.82
524.716	2203.46
525.145	2223.27
525.575	2232.3
526.004	2247.08
526.433	2235.06
526.863	2230.61
527.292	2213.14
527.721	2215.94
528.15	2219.13
528.579	2216.79
529.008	2228.69
529.437	2254.42
529.866	2269.24
530.295	2288.9
530.724	2301.79
531.152	2334.14
531.581	2349.22
532.01	2369.84
532.438	2377.94
532.867	2393.52
533.295	2414.1
533.723	2419.9
534.152	2413.8
534.58	2410.51
535.008	2386.2
535.436	2386.09
535.865	2394.19
536.293	2411.16
536.721	2429.26
537.149	2459.91
537.576	2461.79
538.004	2476.95
538.432	2482.9
538.86	2479.22
539.287	2487.59
539.715	2504.98
540.143	2507.52
540.57	2501.85
540.998	2496.04
541.425	2462.24
541.852	2434.95
542.28	2430.66
542.707	2407.18
543.134	2388.95
543.561	2383.41
543.988	2371.64
544.415	2370.26
544.842	2361.88
545.269	2351.14
545.696	2352.04
546.123	2370.56
546.549	2355.35
546.976	2338.91
547.403	2338.5
547.829	2341.62
548.256	2345.31
548.682	2341.1
549.108	2331.25
549.535	2330.85
549.961	2333.66
550.387	2317.88
550.813	2310.68
551.24	2320.25
551.666	2322.55
552.092	2312.72
552.518	2305.46
552.943	2297.95
553.369	2309.14
553.795	2318.03
554.221	2320.03
554.646	2319.36
555.072	2335.18
555.498	2344.91
555.923	2357.71
556.349	2379
556.774	2391.14
557.199	2394.77
557.625	2404.46
558.05	2399.89
558.475	2415.14
558.9	2417.81
559.325	2408.22
559.75	2403.05
560.175	2395.71
560.6	2391.19
561.025	2393.1
561.449	2399.43
561.874	2409.93
562.299	2420.13
562.723	2433.34
563.148	2425.13
563.572	2433.8
563.997	2451.32
564.421	2463.91
564.846	2468.93
565.27	2478.42
565.694	2479.76
566.118	2498.54
566.542	2514.15
566.966	2509.38
567.39	2508.13
567.814	2497.91
568.238	2502.97
568.662	2514.64
569.086	2520.76
569.509	2535.55
569.933	2518.17
570.357	2511.54
570.78	2487.75
571.204	2474.17
571.627	2464.32
572.05	2464.91
572.474	2468.85
572.897	2454.77
573.32	2449.54
573.743	2442.67
574.166	2422.6
574.589	2429.19
575.012	2422.92
575.435	2426.1
575.858	2418.42
576.281	2408.38
576.704	2392.34
577.126	2379.82
577.549	2369.86
577.972	2361.18
578.394	2350.22
578.817	2344.03
579.239	2320.53
579.661	2306.52
580.084	2287.39
580.506	2271.91
580.928	2270.43
581.35	2258.45
581.772	2256.22
582.194	2240.02
582.616	2225.18
583.038	2207.62
583.46	2196.03
583.882	2195.89
584.303	2205.96
584.725	2202.76
585.147	2206.75
585.568	2222.77
585.99	2242.02
586.411	2254.79
586.833	2279.29
587.254	2284.04
587.675	2308.35
588.096	2329.04
588.518	2322.79
588.939	2299.85
589.36	2300.48
589.781	2290.15
590.202	2250.77
590.623	2239.33
591.043	2236.81
591.464	2219.16
591.885	2215.08
592.305	2206.16
592.726	2187.96
593.147	2190.83
593.567	2184.63
593.987	2173.9
594.408	2166.87
594.828	2164.83
595.248	2157.53
595.669	2130.87
596.089	2121.29
596.509	2112.92
596.929	2094.42
597.349	2095.44
597.769	2080.98
598.189	2072.78
598.608	2075.84
599.028	2079.45
599.448	2080.94
599.867	2062.95
600.287	2057.86
600.706	2052.02
601.126	2038.4
601.545	2037.79
601.965	2037.36
602.384	2031.06
602.803	2036.8
603.222	2031.56
603.641	2022.9
604.061	2018.98
604.48	2014.96
604.898	2029.12
605.317	2039.84
605.736	2043.78
606.155	2041.9
606.574	2030.57
606.992	2041.43
607.411	2036.25
607.829	2026.02
608.248	2024.99
608.666	2025.21
609.085	2027.63
609.503	2017.92
609.921	2010.8
610.339	2017.67
610.758	2020.48
611.176	2017.15
611.594	2006.18
612.012	2004.71
612.43	2013.19
612.847	2025.83
613.265	2030.71
613.683	2041.5
614.101	2046.75
614.518	2045.74
614.936	2033.44
615.353	2013.07
615.771	2010.19
616.188	2014.45
616.606	2010.39
617.023	2001.67
617.44	1982.54
617.857	1973.65
618.274	1961.6
618.691	1954.02
619.108	1940.49
619.525	1933.54
619.942	1945.89
620.359	1951.68
620.776	1944.6
621.192	1940.97
621.609	1939.28
622.026	1950.97
622.442	1961.1
622.859	1967.63
623.275	1957.25
623.691	1967.34
624.108	1985.86
624.524	2007.32
624.94	2008.2
625.356	2024.13
625.772	2044.74
626.188	2063.85
626.604	2066.21
627.02	2060.1
627.436	2056.88
627.852	2066.75
628.268	2085.31
628.683	2070.54
629.099	2057.97
629.514	2051.38
629.93	2056.03
630.345	2062.55
630.761	2056.11
631.176	2059.67
631.591	2048.61
632.007	2038.6
632.422	2036.51
632.837	2018.14
633.252	2014.02
633.667	1997.06
634.082	1980.86
634.497	1960.96
634.911	1929.07
635.326	1922.24
635.741	1895.88
636.155	1881.06
636.57	1881.95
636.984	1879.6
637.399	1880.44
637.813	1878.44
638.228	1876.38
638.642	1882.63
639.056	1866.06
639.47	1866.28
639.884	1850.8
640.298	1838.9
640.712	1833.95
641.126	1812.23
641.54	1795.7
641.954	1787.02
642.368	1766.03
642.781	1751.27
643.195	1721.42
643.609	1718.88
644.022	1707.49
644.436	1699.46
644.849	1680.01
645.262	1661.64
645.676	1662.68
646.089	1653.9
646.502	1626.74
646.915	1616.79
647.328	1590.03
647.741	1584.98
648.154	1563.97
648.567	1556.87
648.98	1535.09
649.393	1534.4
649.805	1527.4
650.218	1515.36
650.631	1490.89
651.043	1482.54
651.456	1473.86
651.868	1473.46
652.28	1499.58
652.693	1519.76
653.105	1530.23
653.517	1545.68
653.929	1545.34
654.341	1552.8
654.753	1534.04
655.165	1543.31
655.577	1537.65
655.989	1529.7
656.401	1519.15
656.813	1462.29
657.224	1432.12
657.636	1387.68
658.047	1358.56
658.459	1328.92
658.87	1313.98
659.282	1293.69
659.693	1261.85
660.104	1237.93
660.515	1213.8
660.926	1205.14
661.338	1197.94
661.749	1183.12
662.159	1165.38
662.57	1153.46
662.981	1140.06
663.392	1123.24
663.803	1122.38
664.213	1111.14
664.624	1098.89
665.035	1096.04
665.445	1072.04
665.855	1055.75
666.266	1038.65
666.676	1028.26
667.086	1010.31
667.497	1003.04
667.907	988.04
668.317	970.29
668.727	960.83
669.137	955.01
669.547	946.76
669.956	944.04
670.366	939.05
670.776	936.15
671.186	935.14
671.595	935.12
672.005	934.51
672.414	930.25
672.824	923.94
673.233	924.2
673.642	924.19
674.052	924.81
674.461	925.01
674.87	928.6
675.279	922.9
675.688	922.58
676.097	922.05
676.506	916.05
676.915	932.58
677.323	935.73
677.732	933.86
678.141	933.47
678.549	922.58
678.958	922.51
679.366	925.34
679.775	934.37
680.183	953.09
680.592	966.5
681	982.05
681.408	981.59
681.816	1001.68
682.224	1024.56
682.632	1049.63
683.04	1099.24
683.448	1145.97
683.856	1202.61
684.264	1268.09
684.671	1329.71
685.079	1403.71
685.487	1484.65
685.894	1593.82
686.302	1686.04
686.709	1765.33
687.116	1857.9
687.524	1936.38
687.931	2005.19
688.338	2062.78
688.745	2110.88
689.152	2164.43
689.559	2231.33
689.966	2294.74
690.373	2321.27
690.78	2376.39
691.187	2462.3
691.593	2520.56
692	2568.4
692.407	2643.08
692.813	2734.84
693.22	2802.98
693.626	2870.74
694.032	2917.67
694.439	3001.47
694.845	3057.01
695.251	3134.01
695.657	3197.64
696.063	3305.12
696.469	3376.18
696.875	3436.5
697.281	3457.45
697.687	3487.72
698.093	3506.92
698.498	3574.28
698.904	3618.76
699.31	3704.73
699.715	3755.57
700.12	3842.98
700.526	3835.91
700.931	3894.72
701.337	3932.33
701.742	3944.93
702.147	4021.82
702.552	4031.62
702.957	4081.78
703.362	4079.13
703.767	4088.84
704.172	4112.33
704.577	4031.48
704.981	4065.75
705.386	4061.48
705.791	4028.22
706.195	4095.21
706.6	4085.38
707.004	4159.37
707.408	4100.32
707.813	4112.5
708.217	4076.59
708.621	4057.56
709.025	4147.68
709.43	4129.61
709.834	4177.81
710.237	4237.85
710.641	4202.68
711.045	4209.17
711.449	4185.72
711.853	4200.89
712.256	4229.56
712.66	4256.21
713.064	4322.86
713.467	4355.82
713.87	4462.06
714.274	4497.68
714.677	4600.61
715.08	4758.32
715.484	4925.86
715.887	5127.53
716.29	5325.39
716.693	5530.02
717.096	5767.53
717.499	5889.56
717.901	5895.36
718.304	5907.93
718.707	5917.06
719.109	5797.96
719.512	5751.9
719.915	5591.93
720.317	5517.32
720.719	5547.64
721.122	5506.23
721.524	5441.05
721.926	5386.89
722.328	5477.11
722.731	5453.84
723.133	5471.18
723.535	5651.3
723.937	5657.01
724.338	5698.3
724.74	5729.12
725.142	5664.77
725.544	5651.17
725.945	5671.09
726.347	5657.86
726.748	5642.88
727.15	5651.45
727.551	5607.62
727.952	5574.53
728.354	5539.12
728.755	5532.51
729.156	5483.5
729.557	5453.51
729.958	5324.88
730.359	5264.14
730.76	5240.77
731.161	5176.63
731.562	5143.48
731.962	5139.35
732.363	5069.91
732.763	5002.57
733.164	5032.96
733.564	4962.01
733.965	4866.13
734.365	4830.28
734.766	4849.84
735.166	4807.4
735.566	4751.25
735.966	4723.16
736.366	4717.25
736.766	4655.61
737.166	4684.32
737.566	4641.83
737.966	4614.47
738.365	4648.98
738.765	4642.33
739.165	4568.66
739.564	4541.42
739.964	4582.7
740.363	4536.93
740.763	4531.63
741.162	4519.71
741.561	4486.46
741.96	4441.33
742.36	4458
742.759	4460.86
743.158	4497.11
743.557	4509.62
743.955	4545.69
744.354	4498.68
744.753	4551.09
745.152	4507.6
745.55	4556.51
745.949	4548.66
746.348	4547.26
746.746	4562.68
747.144	4524.27
747.543	4498.12
747.941	4542.56
748.339	4474.11
748.737	4466.71
749.136	4458.53
749.534	4518.72
749.932	4489.36
750.33	4510.67
750.727	4563.48
751.125	4539.68
751.523	4521.81
751.921	4563.06
752.318	4531.7
752.716	4587.4
753.113	4599.49
753.511	4621.26
753.908	4620.71
754.305	4606.66
754.703	4664.59
755.1	4720.52
755.497	4777.75
755.894	4959.53
756.291	5128.99
756.688	5439.41
757.085	5855.02
757.482	6441.68
757.878	7086.43
758.275	7669.16
758.672	8468.48
759.068	9119.75
759.465	10052.38
759.861	11249.78
760.258	12639.51
760.654	13355.34
761.05	13256.23
761.447	12655.99
761.843	11777.33
762.239	10875.66
762.635	10465.86
763.031	10073.92
763.427	9511.55
763.822	8918.71
764.218	8335.18
764.614	7575.07
765.01	7066.92
765.405	6737.14
765.801	6485.57
766.196	6170.2
766.592	5987.54
766.987	5685.29
767.382	5479.35
767.778	5395.02
768.173	5271.76
768.568	5200.84
768.963	5079.85
769.358	5097.22
769.753	5052.28
770.148	4973.08
770.542	4971.79
770.937	4943.14
771.332	5032.1
771.726	5053.74
772.121	4992.07
772.515	5041
772.91	5026.66
773.304	5095.3
773.699	5032.25
774.093	5082.39
774.487	5132.52
774.881	5174.4
775.275	5167.88
775.669	5128.37
776.063	5168.87
776.457	5203.99
776.851	5131.97
777.245	5123.53
777.638	5154.51
778.032	5263.84
778.425	5228.52
778.819	5269.25
779.212	5226.69
779.606	5190.67
779.999	5208.73
780.392	5193.01
780.786	5268.27
781.179	5289.8
781.572	5329.04
781.965	5338.39
782.358	5282
782.751	5335.69
783.143	5289.92
783.536	5360.37
783.929	5401.58
784.322	5512.19
784.714	5538.69
785.107	5534.77
785.499	5601.66
785.891	5582.57
786.284	5567.28
786.676	5701.86
787.068	5685.12
787.46	5734.85
787.852	5756.44
788.245	5836.51
788.636	5858.69
789.028	5922.6
789.42	5960.85
789.812	5971.31
790.204	6063.53
790.595	6157.21
790.987	5971.99
791.378	5994.07
791.77	6118.27
792.161	6245.58
792.553	6302.38
792.944	6202.71
793.335	6142.31
793.726	6215.39
794.117	6303.84
794.508	6434.33
794.899	6410.02
795.29	6547.81
795.681	6606.26
796.072	6473.47
796.463	6304.13
796.853	6313.73
797.244	6462.97
797.634	6495.19
798.025	6491.35
798.415	6504.24
798.806	6591.48
799.196	6672
799.586	6724.79
799.976	6689.22
800.366	6908.54
800.756	7128.21
801.146	7092.55
801.536	7122.67
801.926	7192.82
802.316	7219.88
802.706	7286.56
803.095	7173.74
803.485	7273.49
803.874	7307.16
804.264	7555.69
804.653	7532.38
805.043	7678.94
805.432	7784.73
805.821	7791.83
806.21	7818.26
806.599	7935.93
806.988	7985.46
807.377	8085.85
807.766	8207.4
808.155	8484.4
808.544	8233.6
808.933	8246.08
809.321	8227.59
809.71	8508.06
810.098	8652.56
810.487	9091.73
810.875	9547.7
811.264	9566.8
811.652	9846.97
812.04	9989.56
812.428	10146.53
812.816	10867.77
813.204	11272.72
813.592	11790.99
813.98	12117.11
814.368	12033.08
814.756	12490.41
815.144	12413.66
815.531	12859.03
815.919	12789.27
816.306	13078.4
816.694	12780.09
817.081	12835.84
817.469	13169.88
817.856	13174.84
818.243	13427.34
818.63	13813.16
819.017	13414.44
819.404	13478.88
819.791	13847.78
820.178	14433.96
820.565	14681.81
820.952	15585.29
821.339	15119.98
821.725	15299.79
822.112	14591.76
822.498	14561.87
822.885	14682.26
823.271	14593.28
823.657	14988.28
824.044	14992.54
824.43	15064.81
824.816	15034.17
825.202	14610.98
825.588	15586.48
825.974	15596.67
826.36	16087.16
826.746	16117.55
827.132	16453.75
827.517	16434.53
827.903	15690.51
828.289	15723.51
828.674	14972.48
829.06	14870.14
829.445	15250.04
829.83	15595.38
830.216	16052.52
830.601	16399.21
830.986	16014.05
831.371	15885.68
831.756	16420.82
832.141	16009.34
832.526	16002.66
832.911	16277.57
833.295	16164.98
833.68	16610.25
834.065	16007.36
834.449	15123.83
834.834	15060.42
835.218	15046
835.603	15378.25
835.987	15166.2
836.371	15952.03
836.755	15853.51
837.139	16235.15
837.524	16463.24
837.908	16298.69
838.291	16355.86
838.675	16420.86
839.059	16605.63
839.443	16598.09
839.827	16357.28
840.21	16814.57
840.594	16670.76
840.977	16869.13
841.361	16843.23
841.744	17191.43
842.127	17023.58
842.511	17252
842.894	17818.24
843.277	18182.03
843.66	18683.1
844.043	18764.49
844.426	17983.26
844.809	17687.67
845.191	17705.75
845.574	17262.18
845.957	16916.84
846.339	16815.53
846.722	16312.22
847.104	16372.91
847.487	16200.46
847.869	16213.93
848.252	16473.64
848.634	16791.25
849.016	17042.3
849.398	17154.81
849.78	17958.3
850.162	17955.47
850.544	18348.74
850.926	18945.45
851.307	18859.49
851.689	19130.99
852.071	19554.45
852.452	19866.16
852.834	19853.24
853.215	20230.58
853.597	20392.66
853.978	20678.46
854.359	21123.68
854.741	20183.31
855.122	20086.53
855.503	19814.39
855.884	19943.52
856.265	19886.89
856.646	19991.21
857.026	19616.72
857.407	19554.79
857.788	19694.67
858.169	19963.85
858.549	19154.39
858.93	19750.7
859.31	19804.52
859.69	20021.82
860.071	19632.79
860.451	19439.79
860.831	18744.02
861.211	19845.13
861.591	20368.12
861.971	20353.78
862.351	20540.63
862.731	20914.27
863.111	21155.72
863.491	21475.43
863.87	22296.85
864.25	22644.39
864.629	22266.01
865.009	22753.23
865.388	23582.99
865.768	25278.22
866.147	25176.52
866.526	23790.31
866.905	24079.63
867.284	25441.71
867.663	24148.93
868.042	23141.51
868.421	23060.49
868.8	23438.97
869.179	23676.61
869.558	22286.11
869.936	20544.62
870.315	20908.1
870.693	21414.67
871.072	23097.84
871.45	22011.25
871.828	22293.36
872.207	23437.98
872.585	23082.08
872.963	23705.57
873.341	22894.94
873.719	22620.24
874.097	22345.24
874.475	22774.3
874.853	23294.03
875.23	22325.19
875.608	23260.78
875.986	25169.35
876.363	24083.13
876.741	24830.94
877.118	24208.46
877.495	25399.11
877.873	25822.99
878.25	27179.13
878.627	26069.25
879.004	26438.9
879.381	26308.1
879.758	25607.72
880.135	23834.95
880.512	25197.74
880.889	24524.43
881.265	24278.21
881.642	24071.88
882.019	24487.52
882.395	23987.41
882.772	24932.63
883.148	23840.84
883.524	23744.88
883.901	23598.32
884.277	23939.16
884.653	23775.7
885.029	24449
885.405	27072.32
885.781	26851.29
886.157	25736.41
886.532	26045.34
886.908	26038.22
887.284	28949.49
887.659	29885.98
888.035	30826.75
888.411	31623.59
888.786	32045.31
889.161	33148.01
889.537	32526.66
889.912	33574.94
890.287	33536.46
890.662	34389.11
891.037	33756.47
891.412	31472.45
891.787	31147.37
892.162	30043.47
892.536	30731.17
892.911	29567.47
893.286	28941.27
893.66	27769.31
894.035	28463.71
894.409	30984.87
894.784	29735.1
895.158	30222.07
895.532	32016.31
895.906	32894.56
896.281	33664.81
896.655	33135.45
897.029	37860.37
897.402	39418.16
897.776	43870.14
898.15	43714.53
898.524	43255.26
898.898	43821.25
899.271	49061.77
899.645	42494.05
900.018	40804.81
900.392	42311.9
900.765	42667.76
901.138	39498.99
901.511	38912.8
901.884	35729.52
902.258	32966.98
902.631	34056.39
903.003	39214.64
903.376	35382.96
903.749	39681.67
904.122	42477.45
904.495	46768.31
904.867	47336.23
905.24	41093.19
905.612	38261.86
905.985	39152.43
906.357	40933.36
906.729	39077.01
907.102	33378.4
907.474	32107.85
907.846	32323.21
908.218	31915.28
908.59	28238.18
908.962	27326.98
909.334	29431.87
909.705	30918.59
910.077	30017.06
910.449	31262.47
910.82	32151.91
911.192	35386.44
911.563	36767.95
911.935	39344.84
912.306	39403.44
912.677	40676.82
913.048	40296.79
913.419	43743.38
913.79	44019.19
914.161	47233.7
914.532	45144.07
914.903	41497.39
915.274	39432.66
915.645	38869.99
916.015	34214.56
916.386	32632.27
916.756	34733.6
917.127	35820.79
917.497	32007.31
917.868	34828.93
918.238	33087.08
918.608	34061.25
918.978	34769.67
919.348	36819.91
919.718	38053.06
920.088	36673.47
920.458	38112.53
920.828	40115.22
921.198	38064.51
921.567	40675.1
921.937	31525.64
922.306	31835.18
922.676	34338.33
923.045	28641.94
923.415	27208.05
923.784	24785.51
924.153	25493.99
924.522	25487.79
924.891	23966.16
925.26	25666.05
925.629	25061.57
925.998	28799.8
926.367	28115.66
926.736	26759.2
927.104	31876.74
927.473	34276.11
927.842	41404.18
928.21	41007.28
928.578	43097.63
928.947	40775.46
929.315	41032.37
929.683	48132.3
930.051	48508.88
930.42	56294.03
930.788	48153.25
931.156	47800.74
931.523	44841.52
931.891	41421.37
932.259	39743.16
932.627	46005.19
932.994	65096.22
933.362	53784.77
933.729	46676.13
934.097	44676.2
934.464	37818.05
934.831	43610.95
935.199	42992.51
935.566	41631.8
935.933	42166.95
936.3	51117.14
936.667	39814.17
937.034	35893.02
937.401	35490.69
937.767	30630.96
938.134	27275.4
938.501	38489.38
938.867	41005.93
939.234	69280.98
939.6	59160.77
939.967	65232.71
940.333	43674.8
940.699	37195.86
941.065	29844.47
941.431	39162.81
941.798	37787.26
942.163	49656.67
942.529	31027.05
942.895	28573.8
943.261	18510.85
943.627	24287.36
943.992	21282.79
944.358	21312.72
944.723	21413.63
945.089	20885.79
945.454	19278.74
945.82	20581.12
946.185	19768.41
946.55	22914.33
946.915	20592.78
947.28	24137.87
947.645	21270.38
948.01	19654.37
948.375	20501.49
948.74	24538.2
949.104	28659.27
949.469	41458.88
949.834	73358.84
950.198	69607.77
950.562	41702.84
950.927	34703.54
951.291	41787.38
951.655	35583.25
952.02	33389.08
952.384	25242.14
952.748	22001.85
953.112	21441.31
953.476	18631.52
953.839	17221.72
954.203	17043.61
954.567	21332.82
954.931	33600.12
955.294	28770.97
955.658	28916.46
956.021	49161.75
956.385	83431.11
956.748	123172.66
957.111	190994.49
957.474	214602.01
957.837	241534.72
958.2	182875.1
958.563	65766.89
958.926	44482.3
959.289	67488.82
959.652	75393.78
960.015	56629.48
960.377	81152.74
960.74	92644.55
961.102	159904.19
961.465	171739.37
961.827	92132.23
962.189	176746.17
962.552	122566.13
962.914	98174.28
963.276	63644.45
963.638	52667.45
964	52162.48
964.362	35283.1
964.724	34094.7
965.085	24325.31
965.447	19934.56
965.809	22692.35
966.17	22737.17
966.532	24606.31
966.893	22591.23
967.255	20587.27
967.616	24316.07
967.977	19467.56
968.338	21285.85
968.699	17500.38
969.061	17521.59
969.421	17638.9
969.782	19809.75
970.143	16729.47
970.504	17339.08
970.865	19734.84
971.225	20163.76
971.586	19717.7
971.946	28091.3
972.307	24381.89
972.667	31855.54
973.027	32760.03
973.388	39748.04
973.748	27029.67
974.108	29423.86
974.468	39772.74
974.828	30647.34
975.188	23580.04
975.548	21644.14
975.907	18181.72
976.267	20376.28
976.627	17138.54
976.986	17784.54
977.346	16941.8
977.705	16309.4
978.064	14851.05
978.424	12359.49
978.783	12771.04
979.142	14578.02
979.501	13958.68
979.86	14749.7
980.219	14224.39
980.578	18298.37
980.937	20489.47
981.296	18268.71
981.654	18805.45
982.013	29248.64
982.371	38008.18
982.73	35533.37
983.088	40238.03
983.447	43024.35
983.805	61578.06
984.163	128734.25
984.521	143111.62
984.879	209646.69
985.237	-341202.78
985.595	328671.31
985.953	81780.69
986.311	47163.51
986.669	27383.39
987.026	23662.59
987.384	31800.32
987.741	32843.26
988.099	23452.77
988.456	18684.9
988.814	17513.08
989.171	15229.73
989.528	15009.51
989.885	15851.52
990.242	12571.27
990.599	15664.7
990.956	12799.6
991.313	8949.15
991.67	7346.92
992.027	7805
992.383	6937.84
992.74	6081.39
993.096	6370.96
993.453	6609.6
993.809	6848.74
994.165	9118.33
994.522	8356.94
994.878	9206.07
995.234	11546.41
995.59	11379.82
995.946	10760.22
996.302	12293.7
996.658	14220.63
997.013	15696.11
997.369	18638.29
997.725	23885.4
998.08	15470.33
998.436	23875.18
998.791	32936.73
999.147	32945.33
999.502	35970
999.857	26189.51
1000.212	42681.38
1000.567	60762.27
1000.922	35006.22
1001.277	22264.61
1001.632	16522.96
1001.987	21270.8
1002.342	15257.08
1002.696	12222.99
1003.051	9753.59
1003.406	11822.7
1003.76	11747.18
1004.114	11603.2
1004.469	9755.21
1004.823	8078.78
1005.177	8704.35
1005.531	6888.04
1005.885	6125.52
1006.239	6914.92
1006.593	8685.34
1006.947	11625.59
1007.301	8725.83
1007.655	9522
1008.008	6967.81
1008.362	7842.3
1008.715	11238.54
1009.069	10211.75
1009.422	15401.32
1009.776	30831.87
1010.129	20469.52
1010.482	17079.12
1010.835	14463.11
1011.188	30134.14
1011.541	28355.5
1011.894	-173243.02
1012.247	509899.37
1012.6	34574.69
1012.952	21814.17
1013.305	11222.67
1013.657	8096.83
1014.01	7647.51
1014.362	6313.52
1014.715	5612.48
1015.067	4874.21
1015.419	4765.12
1015.771	4241.86
1016.123	3764.3
1016.475	3875.54
1016.827	4127.87
1017.179	4441.5
1017.531	4465.65
1017.883	4575.45
1018.234	4423.72
1018.586	5561.25
1018.938	5945.56
1019.289	8185.7
1019.64	9355.66
1019.992	8716.6
1020.343	7979.01
1020.694	6315.13
1021.045	5579.3
1021.396	6385.29
1021.747	6840.47
1022.098	8185.09
1022.449	5953.15
1022.8	5518.86
1023.151	3861.6
1023.501	3423.51
1023.852	3733.24
1024.202	3861.2
1024.553	4225.68
1024.903	4120.96
1025.253	3514.1
1025.604	3166.1
1025.954	3940.4
1026.304	4774.31
1026.654	5552.57
1027.004	8109.73
1027.354	13066.27
1027.703	12276.04
1028.053	16171.94
1028.403	23541.85
1028.753	34195.21
1029.102	46713.54
1029.452	239281.48
1029.801	10283.51
1030.15	6672.83
1030.499	5609.54
897.758	2954.55
901.051	2921.13
904.343	2956.61
907.636	2952.78
910.928	3021.13
914.22	2925.03
917.511	2936.17
920.803	3009.45
924.094	3042.71
927.384	3007.26
930.675	2971.85
933.965	2917.97
937.255	2920.61
940.544	2890.01
943.834	2790.65
947.123	2740.12
950.411	2838.99
953.7	2805.47
956.988	2764.92
960.276	2706.55
963.563	2806.69
966.851	2794.84
970.138	2862.54
973.424	2848.57
976.711	2797.48
979.997	2982.96
983.283	3009.09
986.568	2901.28
989.853	2932.15
993.138	2960.98
996.423	3043.57
999.708	2967.24
1002.992	3057.81
1006.275	2843.44
1009.559	2914.89
1012.842	3043.32
1016.125	2962.88
1019.408	2940.82
1022.69	3046.61
1025.972	3059.36
1029.254	3032.87
1032.536	2946.26
1035.817	2986.19
1039.098	2904.01
1042.379	3108.3
1045.659	3090.08
1048.939	3007.74
1052.219	3037.28
1055.498	3059.23
1058.778	3037.38
1062.057	3025.18
1065.335	3044.33
1068.614	3072.47
1071.892	3044.61
1075.17	3137.54
1078.447	3118.21
1081.724	3104.02
1085.001	3148.43
1088.278	3121.72
1091.554	3137.5
1094.83	3136.24
1098.106	3162.28
1101.382	3214.87
1104.657	3212.07
1107.932	3208.71
1111.206	3166.61
1114.481	3125.27
1117.755	3129.37
1121.029	3102.84
1124.302	3153.93
1127.575	3096.9
1130.848	3079.29
1134.121	3031.8
1137.393	2974.57
1140.665	3051.2
1143.937	3020.37
1147.208	2980.85
1150.48	3010.67
1153.75	2995.32
1157.021	3042.21
1160.291	3006.19
1163.561	3051.18
1166.831	3050.91
1170.101	3090.77
1173.37	3069.64
1176.639	3002.7
1179.907	3073.48
1183.176	3074.18
1186.444	3086.85
1189.711	3117.61
1192.979	3124.58
1196.246	3082.27
1199.513	3101.18
1202.78	3094.14
1206.046	3101.71
1209.312	3129.09
1212.578	3160.35
1215.843	3100.42
1219.108	3078.04
1222.373	3101.27
1225.638	3058.14
1228.902	3039.55
1232.166	3008.02
1235.43	2986.64
1238.693	3011.93
1241.956	3010.59
1245.219	3047.33
1248.482	3042.33
1251.744	3038.24
1255.006	3207.09
1258.268	3165.52
1261.529	3101.57
1264.79	3108.19
1268.051	3222.97
1271.312	3242.84
1274.572	3200.47
1277.832	3192.4
1281.092	3186.7
1284.351	3148.57
1287.61	3121.26
1290.869	3022.51
1294.128	2986.2
1297.386	3102.29
1300.644	3089.51
1303.902	3099.15
1307.159	2948.8
1310.416	3006.52
1313.673	3028.65
1316.93	3006.82
1320.186	3066
1323.442	3114.6
1326.697	3097.65
1329.953	3099.82
1333.208	3115.78
1336.463	3097.62
1339.717	3022.09
1342.972	3162.87
1346.226	3143.41
1349.479	3064.62
1352.733	3026.96
1355.986	3060.15
1359.238	3034.76
1362.491	3034.52
1365.743	3038.68
1368.995	3034.85
1372.247	3052.06
1375.498	3081.35
1378.749	3095.98
1382	3051.41
1385.251	3113.46
1388.501	3081.22
1391.751	3055.48
1395	3032.77
1398.25	3067.69
1401.499	3068.57
1404.748	2982.16
1407.996	2956.53
1411.244	2938.7
1414.492	2912.41
1417.74	2889.87
1420.987	2906.51
1424.234	2961.18
1427.481	2948.15
1430.728	3003.08
1433.974	2980.61
1437.22	3001.13
1440.465	3007.18
1443.711	2968.71
1446.956	3012.3
1450.201	3014.23
1453.445	3055.48
1456.689	3031.43
1459.933	3046.59
1463.177	3077.72
1466.42	3048.81
1469.663	3026.61
1472.906	3011.1
1476.148	3121.03
1479.391	3042.25
1482.633	3020.66
1485.874	3022.85
1489.115	3003.76
1492.356	3014.41
1495.597	2987.94
1498.838	2995.61
1502.078	2954.79
1505.318	2890.84
1508.557	2940.85
1511.797	2887.78
1515.036	3012.52
1518.274	2996.44
1521.513	2972.55
1524.751	3001.39
1527.989	3013.93
1531.227	3023.47
1534.464	3008.26
1537.701	3043.23
1540.938	3068.22
1544.174	3019.71
1547.41	3022.5
1550.646	3061.03
1553.882	3093.09
1557.117	3148.63
1560.352	3167.7
1563.587	3117.87
1566.821	3072.86
1570.055	3120.17
1573.289	3086.42
1576.523	3170.27
1579.756	3176.77
1582.989	3197.72
1586.222	3154.03
1589.454	3197.12
1592.686	3164.65
1595.918	3188.18
1599.15	3173.35
1602.381	3267.45
1605.612	3207.82
1608.843	3309.1
1612.073	3213.99
1615.303	3193.6
1618.533	3179.04
1621.762	3189.48
1624.992	3180.91
1628.221	3159.83
1631.449	3144.74
1634.678	3216.88
1637.906	3164.27
1641.134	3209.39
1644.361	3157.28
1647.588	3147.65
1650.815	3160.49
1654.042	3145.78
1657.269	3177.77
1660.495	3126.65
1663.72	3109.58
1666.946	3080.69
1670.171	3003.7
1673.396	2979.09
1676.621	2969.82
1679.845	3006.72
1683.069	3035.81
1686.293	3090.97
1689.517	3050.25
1692.74	2961.56
1695.963	2988.12
1699.185	3046.11
1702.408	3009.15
1705.63	3060.4
1708.852	3067.64
1712.073	3040.6
1715.294	3010.06
1718.515	3080.46
1721.736	3016.13
1724.956	3017.89
1728.176	3047.46
1731.396	3071.71
1734.616	3062.08
1737.835	3085.75
1741.054	3064.3
1744.272	3060.49
1747.491	3087.74
1750.709	3159.07
1753.927	3035.63
1757.144	3093.76
1760.361	3130.13
1763.578	3133.9
1766.795	3066.44
1770.011	3079.63
1773.227	3129.72
1776.443	3168.22
1779.658	3213.54
1782.874	3155.72
1786.089	3124.71
1789.303	3129.35
1792.518	3137.52
1795.732	3124.8
1798.945	3128.68
1802.159	3185.31
1805.372	3063.86
1808.585	3044.95
1811.797	3047.33
1815.01	3110.69
1818.222	3113.73
1821.434	3037.76
1824.645	3119.05
1827.856	3089.49
1831.067	3127.91
1834.278	3095.3
1837.488	3080.16
1840.698	3251.06
1843.908	3160.31
1847.117	3115.56
1850.326	2972.19
1853.535	3094.37
1856.744	3169.62
1859.952	3065.66
1863.16	3066.83
1866.368	3092.62
1869.575	3194.65
1872.782	3075.54
1875.989	3012.34
1879.196	3120.54
1882.402	3113.87
1885.608	3159.7
1888.814	3038.81
1892.019	2926.54
1895.224	2977.97
1898.429	2962.86
1901.634	2936.21
1904.838	2915.53
1908.042	2963.73
1911.246	2967.72
1914.449	2877.16
1917.652	2884.77
1920.855	2865.8
1924.058	2932.28
1927.26	2961.23
1930.462	2994.89
1933.664	3018.09
1936.865	2948.32
1940.066	2949.81
1943.267	2897.48
1946.467	2919.99
1949.668	2950.87
1952.868	3018.45
1956.067	2989.37
1959.267	2910.59
1962.466	2942.73
1965.665	2930.11
1968.863	2926.91
1972.061	2950.82
1975.259	2956.44
1978.457	3040.26
1981.654	2991.29
1984.852	2993.17
1988.048	2911.93
1991.245	2922.59
1994.441	3010.03
1997.637	3009.7
2000.833	2989.1
2004.028	3032.08
2007.223	3082.67
2010.418	3052.33
2013.613	3017.57
2016.807	2974.36
2020.001	2988.3
2023.194	3048.79
2026.388	3018.9
2029.581	2963.84
2032.774	3004.8
2035.966	3007.34
2039.158	2927.15
2042.35	2959.73
2045.542	2887.62
2048.733	2999.17
2051.924	3041.16
2055.115	3076.73
2058.306	3002.41
2061.496	3069.58
2064.686	3143.74
2067.875	3061.16
2071.065	3083.72
2074.254	3117.43
2077.442	3066.13
2080.631	3163.25
2083.819	3029.93
2087.007	3000.61
2090.195	2964.99
2093.382	3011.78
2096.569	2987.04
2099.756	2934.19
2102.942	2946.82
2106.128	2945.23
2109.314	2936.96
2112.5	2887.89
2115.685	2866.51
2118.87	2879.52
2122.055	2952.51
2125.239	2907.29
2128.424	2869.56
2131.608	3005.02
2134.791	2982.24
2137.974	3055.36
2141.157	3038.75
2144.34	2978.61
2147.523	3006.93
2150.705	3011.92
2153.887	2995.33
2157.068	2931.06
2160.25	2945.63
2163.431	2996.82
2166.611	2923.81
2169.792	2940.3
2172.972	2818.27
2176.152	2913.09
2179.331	2955.59
2182.511	2928.5
2185.69	2960.47
2188.868	2949.57
2192.047	3021.1
2195.225	2996.93
2198.403	2944.22
2201.58	2938.65
2204.758	2937.01
2207.935	3028.25
2211.111	2901.86
2214.288	2880.97
2217.464	2921.43
2220.64	2901.07
2223.815	2962.83
2226.991	2874.59
2230.166	2896.85
2233.34	2918.84
2236.515	2951.68
2239.689	3032.35
2242.863	2971.45
2246.036	3029.13
2249.209	3040.13
2252.382	3083.41
2255.555	3060.12
2258.727	2986.76
2261.9	3031.02
2265.071	3024.03
2268.243	3030.05
2271.414	2951.3
2274.585	2900.18
2277.756	2971.68
2280.926	2926.67
2284.096	2974.06
2287.266	2869.21
2290.436	2931.83
2293.605	2965.9
2296.774	2991.96
2299.942	3025.07
2303.111	3041.14
2306.279	3085.08
2309.447	3071.91
2312.614	3049.46
2315.781	3066.01
2318.948	3030.12
2322.115	3069
2325.281	2969.2
2328.447	2999.28
2331.613	2975.73
2334.779	2932.55
2337.944	2945.25
2341.109	2941.27
2344.274	2918.64
2347.438	2882.28
2350.602	2910.64
2353.766	2930.26
2356.929	2912.98
2360.092	2957.71
2363.255	2896.85
2366.418	2811.44
2369.58	2955.06
2372.742	2682.49
2375.904	2710.02
2379.066	2681.15
2382.227	2725.86
2385.388	2685.33
2388.548	2596.15
2391.709	2660.38
2394.869	2634.7
2398.029	2761.45
2401.188	2784.49
2404.347	2699.5
2407.506	2880.41
2410.665	2904.68
2413.823	2923.3
2416.981	2863.11
2420.139	2907.97
2423.296	2961.88
2426.453	2937.12
2429.61	2961.98
2432.767	2873.82
2435.923	2913.94
2439.079	2842.99
2442.235	2907.45
2445.391	2823.38
2448.546	2840.35
2451.701	2904.45
2454.855	2858.55
2458.009	2928.68
2461.163	2937.8
2464.317	2889.78
2467.471	2926.58
2470.624	2972.44
2473.777	2970.39
2476.929	2979.77
2480.082	3006.95
2483.234	2967.97
2486.385	2893.73
2489.537	2886.25
2492.688	2830.4
2495.839	2847.1
2498.989	2854.34
2502.14	2835.36
2505.29	2808.64
2508.439	2842.75
2511.589	2752.47
2514.738	2773.71
2517.887	2809.66
2521.035	2903.85
2524.183	2897.73
2527.331	2872.34
2530.479	2835.19
2533.627	2850.15
