Data from N_3_DEC_ON_6N_Splice17_13-37-46-646.txt Node
Date: Sat Mar 14 13:37:46 EDT 2020
User: sa697716
Spectrometer: FLMS03696
Trigger mode: 0
Integration Time (sec): 3.180400E-1
Scans to average: 20
Electric dark correction enabled: true
Nonlinearity correction enabled: true
Boxcar width: 5
XAxis mode: Wavelengths
Number of Pixels in Spectrum: 2048
>>>>>Begin Spectral Data<<<<<
187.83	-375788.54
188.298	2701.48
188.766	1497.42
189.233	1380.4
189.701	1913.86
190.169	2625.25
190.636	959.25
191.104	814.1
191.571	89.38
192.039	-143.36
192.506	-190.79
192.974	503.96
193.441	-1029.61
193.908	-260.88
194.375	-6.33
194.842	10.05
195.31	86.99
195.777	176.39
196.244	449.03
196.711	500.82
197.177	640.93
197.644	921.98
198.111	1614.98
198.578	2319.81
199.045	1852.61
199.511	2996.6
199.978	3509.11
200.445	3002.06
200.911	3290.81
201.378	3661.75
201.844	3327.59
202.31	5701.22
202.777	5884.19
203.243	3284.59
203.709	3109.11
204.176	3717.53
204.642	3054.2
205.108	2876.44
205.574	2315.08
206.04	2116.84
206.506	1991.59
206.972	1874.72
207.438	1808.47
207.903	2065.95
208.369	1800.89
208.835	1798.3
209.301	1882
209.766	1920.29
210.232	1873.13
210.697	2320.22
211.163	2838.95
211.628	4274.59
212.094	3576.08
212.559	4387.2
213.024	2694.1
213.49	3252.8
213.955	3132.71
214.42	3009.56
214.885	2800.45
215.35	2682.09
215.815	2604.34
216.28	2742.26
216.745	2185.66
217.21	2325.23
217.675	2064.19
218.14	2278.7
218.604	2480.6
219.069	2770.48
219.534	2876.47
219.998	3262.77
220.463	3864.91
220.927	4575.15
221.392	4245.02
221.856	4270.75
222.32	5302.7
222.785	6514.18
223.249	8111.78
223.713	8994.06
224.177	8963.78
224.642	11364.14
225.106	13925.99
225.57	15150.62
226.034	11306.3
226.497	17142.21
226.961	15440.86
227.425	17979.03
227.889	19813.41
228.353	19765.11
228.816	40739.27
229.28	38851.47
229.744	32709.35
230.207	19875.86
230.671	19499.55
231.134	32068.11
231.597	36982.3
232.061	36854.91
232.524	35798.67
232.987	24643.24
233.45	22254.13
233.914	19952.36
234.377	20364.11
234.84	18637.97
235.303	21878.83
235.766	24421.41
236.229	25173.64
236.691	15816.83
237.154	17738.49
237.617	13363.45
238.08	13682.53
238.542	15934.1
239.005	11384.71
239.468	11319.94
239.93	10675.74
240.393	9723.86
240.855	8539.34
241.317	8758.41
241.78	10642.78
242.242	11013.32
242.704	11898.43
243.166	10357.73
243.629	9438.8
244.091	10860.02
244.553	11872.49
245.015	12722.57
245.477	16413.16
245.939	24001.37
246.4	25462.02
246.862	24718.84
247.324	23294.62
247.786	26022.41
248.247	34078.51
248.709	34991.38
249.17	26165.02
249.632	24763.12
250.093	28811.06
250.555	24891.34
251.016	15228.15
251.477	14447.77
251.939	15608.41
252.4	16344.58
252.861	19417.04
253.322	18098.88
253.783	21551.16
254.244	27972.33
254.705	21977.83
255.166	19500.13
255.627	19195.83
256.088	27103.5
256.549	28768.11
257.009	24744.6
257.47	30083.55
257.931	24476
258.391	18322.73
258.852	18902.25
259.312	19793.91
259.773	24486.28
260.233	20743.74
260.694	17512.74
261.154	19812.41
261.614	15946.09
262.074	14268.58
262.534	14823.07
262.994	13989.66
263.455	18637.91
263.915	15725.22
264.374	14794.1
264.834	16128.53
265.294	17816.65
265.754	18451.18
266.214	17445.06
266.673	16310.21
267.133	20559.17
267.593	20370.94
268.052	24917.99
268.512	21644.43
268.971	26134.35
269.431	28681.67
269.89	25670.29
270.349	38526.05
270.809	42984.53
271.268	38671.5
271.727	86686.09
272.186	56167.44
272.645	42067.87
273.104	30322.03
273.563	43938.53
274.022	34423.94
274.481	29314.32
274.94	22605.06
275.399	16791.53
275.857	19520.7
276.316	26367.53
276.775	23472.58
277.233	23139.85
277.692	21725.42
278.15	24591.19
278.609	25330.12
279.067	23500.59
279.525	21857.62
279.984	28212.1
280.442	33939.71
280.9	33565.77
281.358	22139.77
281.816	20668.09
282.274	20256.02
282.732	20911.28
283.19	21026.03
283.648	18139.86
284.106	19336.87
284.564	19645.44
285.021	18291.48
285.479	13609.42
285.937	12351.28
286.394	10855.44
286.852	11184.64
287.309	11767.11
287.767	11405.57
288.224	10870.89
288.682	11933.61
289.139	13117.72
289.596	12025.7
290.053	12461.51
290.511	15742.69
290.968	19126.69
291.425	25879.47
291.882	21557.32
292.339	18758.23
292.796	18590.91
293.252	17499.47
293.709	13926.95
294.166	12477.55
294.623	13782.92
295.079	13206.56
295.536	13288.18
295.992	12064.61
296.449	11943.93
296.905	12408.39
297.362	11940.06
297.818	12544.86
298.274	13032.94
298.731	13262.71
299.187	13078.83
299.643	14030.85
300.099	17017.99
300.555	18635.5
301.011	15574.79
301.467	15078.96
301.923	17657.45
302.379	17210.99
302.835	16918.47
303.291	16963.92
303.746	19324.73
304.202	24491.84
304.658	24627.86
305.113	16563.26
305.569	16267.56
306.024	17333.74
306.479	16474.64
306.935	13893.99
307.39	15159.79
307.845	14029.41
308.301	14118.29
308.756	13740.73
309.211	13241.84
309.666	13576.62
310.121	16903.41
310.576	17153.94
311.031	17030.64
311.486	19472.78
311.94	19450.25
312.395	26031.44
312.85	48973.59
313.305	240212.79
313.759	1251255.41
314.214	90828.7
314.668	72051.15
315.123	60630.19
315.577	21811.29
316.032	19448.66
316.486	24381.51
316.94	19293.22
317.394	13441.92
317.849	10437.95
318.303	9870.34
318.757	9291.93
319.211	10258.6
319.665	8985.33
320.119	9079.66
320.572	12968.77
321.026	12134
321.48	10115.38
321.934	10993.62
322.387	11010.05
322.841	11898.88
323.295	10786.92
323.748	12392.49
324.202	12597.84
324.655	15146.71
325.108	21235.26
325.562	15055.07
326.015	17861.55
326.468	13491.9
326.921	15120.49
327.374	14123.32
327.827	14754.62
328.28	16621.19
328.733	11183.1
329.186	9840.8
329.639	9394.88
330.092	7921.88
330.545	7542.79
330.997	7625.44
331.45	8391.06
331.903	9842.13
332.355	16940.93
332.808	16419.32
333.26	13565.07
333.713	14767.14
334.165	14891.17
334.617	19852.11
335.069	15986.12
335.522	28920.17
335.974	32069.36
336.426	29093.91
336.878	20164.99
337.33	10233.85
337.782	10003.99
338.234	12585.88
338.686	15036.73
339.137	17832.7
339.589	16797.79
340.041	13212.14
340.493	11379.07
340.944	11639.15
341.396	12590.45
341.847	10620.18
342.299	12557.4
342.75	15396.57
343.201	13391.7
343.653	15358.06
344.104	18868.66
344.555	14849.83
345.006	23061.62
345.457	17694.08
345.908	14052.85
346.359	13220.46
346.81	10732.57
347.261	11312.3
347.712	11107.02
348.163	11916.92
348.613	12141.35
349.064	11315.5
349.515	9890.38
349.965	10149.31
350.416	12205.1
350.866	13393.14
351.317	15125.23
351.767	25095.45
352.217	31755.43
352.668	26361.32
353.118	24174.76
353.568	23242.87
354.018	18433.81
354.468	19561.24
354.918	14065.17
355.368	12302.98
355.818	17433.32
356.268	50250.92
356.718	211196.84
357.168	52632.07
357.617	26426.79
358.067	29379.05
358.517	27555.58
358.966	32360.88
359.416	36315.85
359.865	39229.37
360.315	46827.82
360.764	21909.08
361.213	12279.59
361.663	11628.15
362.112	14337.47
362.561	23269.26
363.01	17640.63
363.459	14884.19
363.908	16151.79
364.357	13769.81
364.806	23367.66
365.255	16126.31
365.703	14884.98
366.152	15020.07
366.601	12245.89
367.05	10041.57
367.498	9200.87
367.947	9664.02
368.395	10154.86
368.844	9090.21
369.292	11024.36
369.74	7707.68
370.189	11923.33
370.637	14070.84
371.085	12273.95
371.533	15118.88
371.981	14758.68
372.429	14248.54
372.877	15043.72
373.325	12791.85
373.773	13223.66
374.221	11985.75
374.669	15099.31
375.116	13273.65
375.564	13648.9
376.012	15540.87
376.459	13083.71
376.907	15936.4
377.354	19666.06
377.801	18788.82
378.249	21974.23
378.696	28713.54
379.143	35545.73
379.591	38844.1
380.038	67385.17
380.485	49905.95
380.932	55124.6
381.379	51610.5
381.826	38852.75
382.273	28284.84
382.72	25280.43
383.166	25233.28
383.613	16733.26
384.06	15415.35
384.506	18236.18
384.953	13686.74
385.4	14075.03
385.846	12619.68
386.292	12593.75
386.739	12604.52
387.185	12693.78
387.631	12953.69
388.078	12829.41
388.524	14006.2
388.97	13207.18
389.416	11227.52
389.862	12176.22
390.308	11750.79
390.754	12124.5
391.2	13364.22
391.645	13895.74
392.091	13488.16
392.537	13231.22
392.983	13457.05
393.428	13393.79
393.874	14563.44
394.319	14786.61
394.765	14180.66
395.21	14777.4
395.655	14045.53
396.101	13311.69
396.546	12139.55
396.991	12407.67
397.436	11636.06
397.881	11352.02
398.326	10881.46
398.771	10366.95
399.216	9158.14
399.661	8322.31
400.106	8345.31
400.551	8598.09
400.995	7766.79
401.44	7738.49
401.885	7317.83
402.329	7449.23
402.774	7183.7
403.218	6963.17
403.663	6745.28
404.107	6957.35
404.551	7028.59
404.995	6478.12
405.44	6268.96
405.884	6398.31
406.328	6223.26
406.772	6230.8
407.216	5685.2
407.66	5520.36
408.104	5280.63
408.547	4960.93
408.991	4818.11
409.435	4657.41
409.879	4600.81
410.322	4552.24
410.766	4397.8
411.209	4182.41
411.653	4016.11
412.096	3939.46
412.54	3945.59
412.983	3922.87
413.426	3932.84
413.869	3937.23
414.312	3864.35
414.756	3726.87
415.199	3558.13
415.642	3451.54
416.085	3459.09
416.527	3441.26
416.97	3500.94
417.413	3323.88
417.856	3299.51
418.298	3274.6
418.741	3259.17
419.184	3259.49
419.626	3408.28
420.069	3416.13
420.511	3439.37
420.953	3362.98
421.396	3334.97
421.838	3257.32
422.28	3332.82
422.722	3339.51
423.164	3387.92
423.606	3329.26
424.048	3326.56
424.49	3157.71
424.932	3144.65
425.374	3107.44
425.816	3167.55
426.258	3226.79
426.699	3259.9
427.141	3210.41
427.582	3263.37
428.024	3245.23
428.465	3229.93
428.907	3145.78
429.348	3104.73
429.789	3096.17
430.231	3019.42
430.672	3058.92
431.113	2984.34
431.554	2934.27
431.995	2859.07
432.436	2747.75
432.877	2681.12
433.318	2625.1
433.759	2610.85
434.2	2609.45
434.64	2580.34
435.081	2589.89
435.522	2447.78
435.962	2358.22
436.403	2304.67
436.843	2336.65
437.284	2292.03
437.724	2237.43
438.164	2251.74
438.604	2204.89
439.045	2119.14
439.485	2030.04
439.925	1990.79
440.365	1946.5
440.805	1924.22
441.245	1902.11
441.685	1836.58
442.125	1829.56
442.564	1844.96
443.004	1805.96
443.444	1809.36
443.883	1819.58
444.323	1819.17
444.762	1832.54
445.202	1863.87
445.641	1900.68
446.081	1900.37
446.52	1920.24
446.959	1904.31
447.398	1858.77
447.837	1841.49
448.276	1812.56
448.716	1833.55
449.154	1856.05
449.593	1815.21
450.032	1814.57
450.471	1789.46
450.91	1796.96
451.349	1795.74
451.787	1793.5
452.226	1828.52
452.664	1833.17
453.103	1842.14
453.541	1845.96
453.98	1840.5
454.418	1858.23
454.856	1829.37
455.295	1828.31
455.733	1841.89
456.171	1857.8
456.609	1860.42
457.047	1862.57
457.485	1887.2
457.923	1889.33
458.361	1867.08
458.798	1876.73
459.236	1871.19
459.674	1886.03
460.111	1893.34
460.549	1874.98
460.987	1867.55
461.424	1864.58
461.862	1852.19
462.299	1824.71
462.736	1819.82
463.173	1823.13
463.611	1795.11
464.048	1786.88
464.485	1799.94
464.922	1784.92
465.359	1775.54
465.796	1737.07
466.233	1719.01
466.67	1697.5
467.106	1689.42
467.543	1673.85
467.98	1654.39
468.416	1616.98
468.853	1607.24
469.29	1559.27
469.726	1542.85
470.162	1503.26
470.599	1497.09
471.035	1487.67
471.471	1457.19
471.907	1454.28
472.344	1447.66
472.78	1450.98
473.216	1473.45
473.652	1458.06
474.088	1457.5
474.523	1455.23
474.959	1472.4
475.395	1461.33
475.831	1454.13
476.266	1464.59
476.702	1464.49
477.138	1451.51
477.573	1450.37
478.008	1446.24
478.444	1454.63
478.879	1468.31
479.314	1476.2
479.75	1478.25
480.185	1488.93
480.62	1506.53
481.055	1517.81
481.49	1529.39
481.925	1554.13
482.36	1580.67
482.795	1629.34
483.229	1677.02
483.664	1715.46
484.099	1726.29
484.534	1752.87
484.968	1769.42
485.403	1776.52
485.837	1777.05
486.271	1778.11
486.706	1782.07
487.14	1765.39
487.574	1736.16
488.009	1720.56
488.443	1707.93
488.877	1723.26
489.311	1730.82
489.745	1752.38
490.179	1768.14
490.613	1797.4
491.046	1811.15
491.48	1824.75
491.914	1826.63
492.348	1840.65
492.781	1851.31
493.215	1855.07
493.648	1858.88
494.082	1872.19
494.515	1871.57
494.948	1890.04
495.382	1904.58
495.815	1914.77
496.248	1925.48
496.681	1957.49
497.114	1985.97
497.547	2009.59
497.98	2038.72
498.413	2049.4
498.846	2069.31
499.279	2088.11
499.711	2093.97
500.144	2094.43
500.577	2113.42
501.009	2135.01
501.442	2149.89
501.874	2141.82
502.306	2137.05
502.739	2142.06
503.171	2169.84
503.603	2166.31
504.036	2177.45
504.468	2179.24
504.9	2193.07
505.332	2195.19
505.764	2189.91
506.196	2191.1
506.627	2210
507.059	2224.17
507.491	2231.24
507.923	2207.3
508.354	2222.01
508.786	2225.35
509.217	2244.82
509.649	2257.04
510.08	2279.31
510.512	2294.01
510.943	2305.16
511.374	2307.59
511.805	2329.5
512.237	2347.32
512.668	2392.2
513.099	2426.09
513.53	2456.72
513.961	2471.95
514.391	2509.15
514.822	2545.89
515.253	2587.92
515.684	2610.3
516.114	2639.17
516.545	2650.9
516.975	2671.63
517.406	2677.44
517.836	2654.11
518.267	2639.97
518.697	2646.74
519.127	2628.72
519.558	2617.55
519.988	2600.68
520.418	2594.51
520.848	2602.13
521.278	2594.61
521.708	2587.34
522.138	2586.36
522.567	2617.52
522.997	2638.71
523.427	2643.87
523.857	2651.77
524.286	2649.14
524.716	2655.66
525.145	2669.39
525.575	2668.57
526.004	2676.06
526.433	2658.05
526.863	2643.62
527.292	2613.67
527.721	2609.17
528.15	2605.29
528.579	2594.05
529.008	2599.28
529.437	2623.13
529.866	2632.88
530.295	2650.11
530.724	2658.08
531.152	2691.59
531.581	2705.29
532.01	2722.05
532.438	2727.36
532.867	2742.81
533.295	2762.8
533.723	2765.94
534.152	2756.93
534.58	2751.08
535.008	2721.63
535.436	2718.08
535.865	2723.84
536.293	2740.38
536.721	2760.74
537.149	2793.32
537.576	2793.33
538.004	2808.29
538.432	2814.79
538.86	2807.87
539.287	2813.46
539.715	2831.31
540.143	2833.2
540.57	2823.84
540.998	2813.9
541.425	2777.45
541.852	2744.54
542.28	2739.97
542.707	2714.08
543.134	2693.01
543.561	2685.84
543.988	2673.99
544.415	2670.67
544.842	2661.69
545.269	2651.86
545.696	2654.34
546.123	2672.51
546.549	2658.27
546.976	2638.86
547.403	2639.82
547.829	2641.79
548.256	2645.65
548.682	2641.14
549.108	2630.44
549.535	2630.65
549.961	2633.21
550.387	2615.18
550.813	2608.97
551.24	2618.93
551.666	2621.93
552.092	2609.15
552.518	2602.56
552.943	2595
553.369	2608.33
553.795	2620.2
554.221	2623.76
554.646	2622.53
555.072	2641.98
555.498	2652.89
555.923	2671.26
556.349	2697.71
556.774	2716.1
557.199	2722.61
557.625	2736.7
558.05	2734.56
558.475	2755.28
558.9	2761.47
559.325	2756.84
559.75	2754.03
560.175	2751.3
560.6	2745.76
561.025	2750.88
561.449	2757.98
561.874	2774.22
562.299	2789.32
562.723	2808.25
563.148	2803.46
563.572	2819.68
563.997	2843.41
564.421	2862.43
564.846	2872.88
565.27	2889.71
565.694	2897.57
566.118	2929.67
566.542	2952.9
566.966	2954.41
567.39	2957.47
567.814	2950.26
568.238	2959.72
568.662	2982.02
569.086	2999.74
569.509	3026.29
569.933	3014.82
570.357	3014.27
570.78	2991.77
571.204	2982.95
571.627	2978.93
572.05	2990.99
572.474	3004.07
572.897	2995.93
573.32	2994.33
573.743	2989.81
574.166	2969.7
574.589	2984.52
575.012	2985.75
575.435	2997.35
575.858	2994.76
576.281	2988.5
576.704	2972.73
577.126	2964.79
577.549	2958.56
577.972	2955.4
578.394	2950.31
578.817	2949.21
579.239	2925.43
579.661	2910.98
580.084	2891.39
580.506	2878.55
580.928	2881.69
581.35	2872
581.772	2873.94
582.194	2858.84
582.616	2845.51
583.038	2827.02
583.46	2817.79
583.882	2820.92
584.303	2838.89
584.725	2841.4
585.147	2849.61
585.568	2877.5
585.99	2908.87
586.411	2927.65
586.833	2964.17
587.254	2973.1
587.675	3008.84
588.096	3040.65
588.518	3037.5
588.939	3011.08
589.36	3013.25
589.781	3003.79
590.202	2951.77
590.623	2940.77
591.043	2942.33
591.464	2921.46
591.885	2918.76
592.305	2911.19
592.726	2889.18
593.147	2896.93
593.567	2892.06
593.987	2882.12
594.408	2877.32
594.828	2881.68
595.248	2872.21
595.669	2840.07
596.089	2831.14
596.509	2822.17
596.929	2800.19
597.349	2804.56
597.769	2788.97
598.189	2779.56
598.608	2785.2
599.028	2793.25
599.448	2794.76
599.867	2774.63
600.287	2770.59
600.706	2765.84
601.126	2749.91
601.545	2750.53
601.965	2752.29
602.384	2744.87
602.803	2755.12
603.222	2749.6
603.641	2741.41
604.061	2739.17
604.48	2737.37
604.898	2758.65
605.317	2775.28
605.736	2787.33
606.155	2788.61
606.574	2778.04
606.992	2796.49
607.411	2794.57
607.829	2786.48
608.248	2787.64
608.666	2793.61
609.085	2800.82
609.503	2793.75
609.921	2789.87
610.339	2804.05
610.758	2813.29
611.176	2814.02
611.594	2805.21
612.012	2807.78
612.43	2825.06
612.847	2850.57
613.265	2861.05
613.683	2881.88
614.101	2893.98
614.518	2896.18
614.936	2884.53
615.353	2862.2
615.771	2863.24
616.188	2872.67
616.606	2874.7
617.023	2867.46
617.44	2843.99
617.857	2838.4
618.274	2825.84
618.691	2818.84
619.108	2804.8
619.525	2797.75
619.942	2819.01
620.359	2830.78
620.776	2827.21
621.192	2823.65
621.609	2823.41
622.026	2842.27
622.442	2859.84
622.859	2873.39
623.275	2862.83
623.691	2879.23
624.108	2908.34
624.524	2943.32
624.94	2945.81
625.356	2970.37
625.772	3002.95
626.188	3033.67
626.604	3039.21
627.02	3031.13
627.436	3028.15
627.852	3043.15
628.268	3072.33
628.683	3053.98
629.099	3037.13
629.514	3030.64
629.93	3040.77
630.345	3052.59
630.761	3047.42
631.176	3058.87
631.591	3048.1
632.007	3036.62
632.422	3038.85
632.837	3018.28
633.252	3016.31
633.667	2997.4
634.082	2980.03
634.497	2955.12
634.911	2914.33
635.326	2912.16
635.741	2877.31
636.155	2863.27
636.57	2874.05
636.984	2880.49
637.399	2892.29
637.813	2902.48
638.228	2911.26
638.642	2933.62
639.056	2921.44
639.47	2935.71
639.884	2925.98
640.298	2924.54
640.712	2932.91
641.126	2914.22
641.54	2906.69
641.954	2909.48
642.368	2891.11
642.781	2878.86
643.195	2848.41
643.609	2861.31
644.022	2857.58
644.436	2859.81
644.849	2842.66
645.262	2825.87
645.676	2843.99
646.089	2843.3
646.502	2813.6
646.915	2811.83
647.328	2780.68
647.741	2782.8
648.154	2757.69
648.567	2754.76
648.98	2727.81
649.393	2734.65
649.805	2730.49
650.218	2715.18
650.631	2677.38
651.043	2665.34
651.456	2653.86
651.868	2662.39
652.28	2716.16
652.693	2761.98
653.105	2789.04
653.517	2821.85
653.929	2829.35
654.341	2850.76
654.753	2825.67
655.165	2851.43
655.577	2853.99
655.989	2851.24
656.401	2841.29
656.813	2746.55
657.224	2698.51
657.636	2630.85
658.047	2588.85
658.459	2543.17
658.87	2531.45
659.282	2509.1
659.693	2457.99
660.104	2425.12
660.515	2395.46
660.926	2396.79
661.338	2399.01
661.749	2388.96
662.159	2368.23
662.57	2363.19
662.981	2356.74
663.392	2339.65
663.803	2354.08
664.213	2353.34
664.624	2344.92
665.035	2354.48
665.445	2317.7
665.855	2295.57
666.266	2271.05
666.676	2263.7
667.086	2237.69
667.497	2232.63
667.907	2210.42
668.317	2183.21
668.727	2163.25
669.137	2163.73
669.547	2155.51
669.956	2161.16
670.366	2163.33
670.776	2163.89
671.186	2171.25
671.595	2175.7
672.005	2182.98
672.414	2176.57
672.824	2164.81
673.233	2179.73
673.642	2179.68
674.052	2180.12
674.461	2175.82
674.87	2182.93
675.279	2168.23
675.688	2169.93
676.097	2165.24
676.506	2150.59
676.915	2187.65
677.323	2190.43
677.732	2180.84
678.141	2175.55
678.549	2144.75
678.958	2143.07
679.366	2141.32
679.775	2159.49
680.183	2182.74
680.592	2203.53
681	2221.58
681.408	2204.53
681.816	2230.95
682.224	2260.78
682.632	2289.77
683.04	2377.39
683.448	2450.19
683.856	2536.3
684.264	2633.3
684.671	2726.58
685.079	2836.29
685.487	2953.11
685.894	3116.6
686.302	3242.27
686.709	3334.72
687.116	3445.71
687.524	3519.78
687.931	3568.24
688.338	3601.37
688.745	3616.06
689.152	3635.16
689.559	3674.34
689.966	3706.24
690.373	3678.58
690.78	3695.61
691.187	3760.75
691.593	3785.18
692	3792.3
692.407	3843.52
692.813	3915.38
693.22	3951.55
693.626	3991.25
694.032	3999.77
694.439	4059.57
694.845	4084.61
695.251	4140.23
695.657	4176.33
696.063	4271.77
696.469	4318.64
696.875	4351.51
697.281	4335.51
697.687	4337.06
698.093	4325.36
698.498	4373.14
698.904	4393.5
699.31	4462.71
699.715	4486.99
700.12	4560.27
700.526	4518.3
700.931	4555.91
701.337	4571.41
701.742	4559.43
702.147	4620.31
702.552	4601.9
702.957	4633.76
703.362	4606.94
703.767	4595.01
704.172	4600.67
704.577	4489.14
704.981	4507.5
705.386	4486.26
705.791	4430.87
706.195	4484.15
706.6	4455.33
707.004	4520.12
707.408	4440.9
707.813	4440.4
708.217	4389.65
708.621	4357.35
709.025	4441.86
709.43	4409.12
709.834	4448.68
710.237	4500.55
710.641	4452.63
711.045	4448.71
711.449	4412.78
711.853	4420.63
712.256	4438.65
712.66	4455.25
713.064	4515.05
713.467	4537.08
713.87	4639.61
714.274	4666.48
714.677	4768.18
715.08	4926.19
715.484	5088.06
715.887	5290.01
716.29	5481.87
716.693	5687.58
717.096	5922.15
717.499	6039.57
717.901	6040.2
718.304	6043.61
718.707	6043.22
719.109	5907.52
719.512	5850.58
719.915	5687.31
720.317	5604.2
720.719	5628.49
721.122	5577.11
721.524	5507.86
721.926	5447.62
722.328	5532.69
722.731	5506.29
723.133	5519.52
723.535	5702.31
723.937	5704.18
724.338	5741.3
724.74	5763.83
725.142	5701.38
725.544	5683.95
725.945	5701.32
726.347	5681.24
726.748	5663.19
727.15	5663.44
727.551	5616.85
727.952	5577.17
728.354	5536.79
728.755	5523.59
729.156	5472.36
729.557	5433.76
729.958	5302.22
730.359	5232.87
730.76	5205.82
731.161	5138.94
731.562	5107.03
731.962	5098.85
732.363	5026.85
732.763	4960.45
733.164	4990.02
733.564	4919.33
733.965	4818.87
734.365	4781.51
734.766	4803.48
735.166	4762.26
735.566	4703.54
735.966	4673.25
736.366	4664.86
736.766	4599.2
737.166	4623.12
737.566	4580.47
737.966	4551.1
738.365	4584.2
738.765	4573.9
739.165	4497.6
739.564	4468.94
739.964	4508.83
740.363	4460.7
740.763	4454.64
741.162	4444.31
741.561	4412.37
741.96	4363.73
742.36	4379.89
742.759	4385.47
743.158	4420.23
743.557	4432.31
743.955	4466.55
744.354	4420.89
744.753	4474.64
745.152	4434.21
745.55	4483.46
745.949	4472.95
746.348	4474.32
746.746	4489.57
747.144	4449.67
747.543	4428.56
747.941	4473.54
748.339	4407.07
748.737	4399
749.136	4387.67
749.534	4447.03
749.932	4421.57
750.33	4446.19
750.727	4497.96
751.125	4474.95
751.523	4459.42
751.921	4501.44
752.318	4468.75
752.716	4525.13
753.113	4537.82
753.511	4561.46
753.908	4561.8
754.305	4544.93
754.703	4600.83
755.1	4656.88
755.497	4711.42
755.894	4889.92
756.291	5055.31
756.688	5365.4
757.085	5776.36
757.482	6356.5
757.878	6995.12
758.275	7570.53
758.672	8355.27
759.068	8996.64
759.465	9910.18
759.861	11093.75
760.258	12463.5
760.654	13173.24
761.05	13069.48
761.447	12460.44
761.843	11600.97
762.239	10702.39
762.635	10300.13
763.031	9920.41
763.427	9361.96
763.822	8779.14
764.218	8203
764.614	7455.74
765.01	6952.28
765.405	6627.72
765.801	6386.9
766.196	6073.18
766.592	5901.13
766.987	5605.08
767.382	5402.73
767.778	5321.71
768.173	5202.12
768.568	5133.02
768.963	5012.85
769.358	5029.6
769.753	4987.3
770.148	4907.69
770.542	4903.98
770.937	4872.91
771.332	4956.86
771.726	4977.34
772.121	4917.53
772.515	4968.4
772.91	4955.92
773.304	5023.6
773.699	4960.69
774.093	5005.88
774.487	5059.57
774.881	5099.86
775.275	5096.5
775.669	5053.67
776.063	5090.47
776.457	5123.25
776.851	5051.56
777.245	5042.78
777.638	5073.18
778.032	5184.2
778.425	5154.76
778.819	5195.94
779.212	5161.26
779.606	5126.25
779.999	5150.32
780.392	5139.1
780.786	5219.46
781.179	5239.68
781.572	5281.71
781.965	5295.03
782.358	5240.35
782.751	5293.42
783.143	5244.9
783.536	5310.47
783.929	5350.45
784.322	5457.66
784.714	5486.31
785.107	5481.76
785.499	5553.69
785.891	5531.78
786.284	5515.55
786.676	5648.02
787.068	5627.09
787.46	5678.37
787.852	5696.65
788.245	5774.76
788.636	5799.94
789.028	5865.23
789.42	5905.27
789.812	5911.2
790.204	6006.56
790.595	6098.49
790.987	5914.71
791.378	5939.47
791.77	6059.44
792.161	6188.75
792.553	6246.4
792.944	6144.89
793.335	6077.81
793.726	6147.06
794.117	6232.94
794.508	6359.24
794.899	6333.19
795.29	6468.37
795.681	6524.61
796.072	6391.7
796.463	6234.23
796.853	6245.15
797.244	6395.34
797.634	6430.8
798.025	6430.34
798.415	6441.34
798.806	6528.93
799.196	6613.97
799.586	6668.48
799.976	6638.39
800.366	6861.21
800.756	7076.74
801.146	7039.83
801.536	7072.16
801.926	7139.45
802.316	7164.51
802.706	7234.08
803.095	7120.23
803.485	7217.39
803.874	7250.93
804.264	7494.75
804.653	7470.94
805.043	7611.86
805.432	7715.87
805.821	7717.33
806.21	7743.79
806.599	7859.77
806.988	7905.03
807.377	8006.35
807.766	8129.63
808.155	8401.51
808.544	8149.96
808.933	8166.39
809.321	8146.8
809.71	8426.08
810.098	8572.34
810.487	9012.35
810.875	9467.39
811.264	9489.31
811.652	9774.44
812.04	9913.02
812.428	10067.56
812.816	10795.4
813.204	11188.65
813.592	11711.69
813.98	12033.98
814.368	11953.7
814.756	12411.48
815.144	12340.06
815.531	12783.36
815.919	12705.74
816.306	12999.76
816.694	12713.05
817.081	12767.26
817.469	13099.03
817.856	13099.13
818.243	13359.82
818.63	13735
819.017	13339.94
819.404	13398.27
819.791	13769.36
820.178	14353.27
820.565	14595.61
820.952	15486.71
821.339	15024.87
821.725	15205.38
822.112	14498.31
822.498	14462.28
822.885	14590.38
823.271	14494.26
823.657	14898.75
824.044	14908.94
824.43	14980.14
824.816	14957.57
825.202	14541.34
825.588	15507.43
825.974	15528.62
826.36	16028.45
826.746	16056.85
827.132	16387.01
827.517	16366.19
827.903	15617.34
828.289	15646.85
828.674	14904.44
829.06	14798.48
829.445	15172.63
829.83	15507.68
830.216	15955.59
830.601	16294.26
830.986	15904.39
831.371	15784.34
831.756	16313.71
832.141	15898.05
832.526	15887.39
832.911	16152.73
833.295	16032.29
833.68	16474.87
834.065	15884.08
834.449	15010.02
834.834	14935.56
835.218	14930.75
835.603	15245.86
835.987	15045.11
836.371	15831.17
836.755	15734.44
837.139	16104.12
837.524	16323.08
837.908	16144.18
838.291	16198.54
838.675	16261.2
839.059	16454.66
839.443	16432.59
839.827	16207.6
840.21	16653.11
840.594	16510
840.977	16698.25
841.361	16684.5
841.744	17047.69
842.127	16904.72
842.511	17126.31
842.894	17686.88
843.277	18036.68
843.66	18546.7
844.043	18625.45
844.426	17861.09
844.809	17563.51
845.191	17601.08
845.574	17164.37
845.957	16812.12
846.339	16710.58
846.722	16218.59
847.104	16283.36
847.487	16128.76
847.869	16142.96
848.252	16406.29
848.634	16713.08
849.016	16961.05
849.398	17071.41
849.78	17867.28
850.162	17869.45
850.544	18259.33
850.926	18851.47
851.307	18762.15
851.689	19016.74
852.071	19443.69
852.452	19740.26
852.834	19732.93
853.215	20108
853.597	20252.48
853.978	20541.12
854.359	20985.45
854.741	20040.22
855.122	19946.08
855.503	19684.55
855.884	19818.7
856.265	19754.03
856.646	19865.56
857.026	19489.84
857.407	19432.11
857.788	19576.56
858.169	19836.67
858.549	19034.87
858.93	19628.06
859.31	19675.75
859.69	19867.38
860.071	19485.33
860.451	19288.88
860.831	18592.06
861.211	19679.59
861.591	20193.64
861.971	20166.68
862.351	20357.69
862.731	20723.41
863.111	20979.28
863.491	21299.92
863.87	22133.53
864.25	22469.81
864.629	22100.07
865.009	22591.6
865.388	23407.03
865.768	25090.11
866.147	25006.87
866.526	23621.61
866.905	23904.51
867.284	25233.2
867.663	23947.31
868.042	22946.8
868.421	22874.84
868.8	23251.18
869.179	23480.47
869.558	22106.04
869.936	20374.86
870.315	20734.24
870.693	21248.19
871.072	22903.75
871.45	21818.29
871.828	22101.14
872.207	23240.52
872.585	22892.93
872.963	23513.88
873.341	22705.91
873.719	22449.86
874.097	22189.01
874.475	22615.53
874.853	23125.07
875.23	22182.42
875.608	23114.47
875.986	25003.28
876.363	23898.1
876.741	24626.43
877.118	24014.02
877.495	25199.91
877.873	25612.92
878.25	26943.56
878.627	25833.83
879.004	26192.61
879.381	26050.41
879.758	25371.98
880.135	23621.71
880.512	24972.92
880.889	24307.53
881.265	24046.95
881.642	23833.28
882.019	24232.29
882.395	23736.74
882.772	24687.67
883.148	23611.03
883.524	23513.62
883.901	23382.04
884.277	23736.05
884.653	23596.56
885.029	24268.45
885.405	26875.83
885.781	26665.38
886.157	25554.17
886.532	25858.81
886.908	25833.87
887.284	28722.85
887.659	29655.5
888.035	30571
888.411	31349.42
888.786	31752.49
889.161	32849.97
889.537	32237.97
889.912	33266.06
890.287	33244.93
890.662	34091.68
891.037	33470.95
891.412	31204.87
891.787	30885.22
892.162	29789.07
892.536	30480.27
892.911	29338.64
893.286	28714.82
893.66	27545.1
894.035	28239.07
894.409	30745.64
894.784	29509.83
895.158	29988.87
895.532	31771.32
895.906	32636.37
896.281	33403.26
896.655	32860.36
897.029	37529.1
897.402	39075.98
897.776	43499.37
898.15	43361.82
898.524	42882.98
898.898	43443.59
899.271	48642.9
899.645	42122.56
900.018	40474.33
900.392	41984.03
900.765	42327.2
901.138	39181.56
901.511	38583.95
901.884	35434.56
902.258	32681.26
902.631	33788.35
903.003	38892.64
903.376	35105.91
903.749	39366
904.122	42130.66
904.495	46393.96
904.867	46977.45
905.24	40793.71
905.612	37993.15
905.985	38869.15
906.357	40647.88
906.729	38770.24
907.102	33127.1
907.474	31858.73
907.846	32079.19
908.218	31671.22
908.59	27991.86
908.962	27076.02
909.334	29171.58
909.705	30659.89
910.077	29770.01
910.449	30996.61
910.82	31876.95
911.192	35069.59
911.563	36439.57
911.935	38992.15
912.306	39035.45
912.677	40332.68
913.048	39937.5
913.419	43307.7
913.79	43519.1
914.161	46645.79
914.532	44593.16
914.903	40988.88
915.274	38938.32
915.645	38380.22
916.015	33794.5
916.386	32228.68
916.756	34291.08
917.127	35392.39
917.497	31643.81
917.868	34480.44
918.238	32785.69
918.608	33725.56
918.978	34437.79
919.348	36483.51
919.718	37701.89
920.088	36313.25
920.458	37754.22
920.828	39754.06
921.198	37700.45
921.567	40286.92
921.937	31181.45
922.306	31481
922.676	33948.66
923.045	28316.16
923.415	26906.94
923.784	24506.28
924.153	25200.1
924.522	25157.22
924.891	23635.96
925.26	25327.79
925.629	24724.77
925.998	28423.78
926.367	27759.34
926.736	26458.54
927.104	31520.12
927.473	33871.79
927.842	40905.4
928.21	40510.46
928.578	42605.39
928.947	40325.3
929.315	40591.73
929.683	47597.68
930.051	47991.46
930.42	55739.46
930.788	47625.07
931.156	47281.66
931.523	44381.31
931.891	41034.85
932.259	39417.56
932.627	45671.75
932.994	64593.03
933.362	53353.43
933.729	46380.18
934.097	44353.09
934.464	37514.48
934.831	43273.06
935.199	42657.38
935.566	41377.2
935.933	41870.98
936.3	50754.37
936.667	39545.83
937.034	35709.42
937.401	35320.61
937.767	30478.33
938.134	27177.16
938.501	38364.69
938.867	40908.95
939.234	69138.53
939.6	58932.55
939.967	65082.73
940.333	43561.84
940.699	37084.44
941.065	29741.99
941.431	39000.9
941.798	37624.5
942.163	49415.58
942.529	30882.29
942.895	28472.81
943.261	18462.72
943.627	24242.99
943.992	21252.53
944.358	21289.16
944.723	21381.24
945.089	20856.44
945.454	19287.29
945.82	20597.57
946.185	19794.22
946.55	22922.66
946.915	20543.71
947.28	24076.08
947.645	21197.28
948.01	19564.29
948.375	20400.85
948.74	24445.31
949.104	28493.79
949.469	41090.59
949.834	72603.73
950.198	68906.59
950.562	41298.82
950.927	34387.01
951.291	41381.62
951.655	35227.67
952.02	33015.73
952.384	24941.02
952.748	21720.61
953.112	21195.36
953.476	18439.29
953.839	17034.42
954.203	16854.64
954.567	21059.33
954.931	33178.22
955.294	28362.46
955.658	28505.29
956.021	48489.15
956.385	82343.59
956.748	121482.94
957.111	188283.75
957.474	211249.95
957.837	237919.32
958.2	179927.78
958.563	64743.85
958.926	43781.38
959.289	66472.78
959.652	74320.44
960.015	55800.99
960.377	79956.98
960.74	91181.59
961.102	157320.08
961.465	169063.05
961.827	90736.34
962.189	174221.31
962.552	120800.03
962.914	96851.94
963.276	62854.17
963.638	51937.2
964	51429.95
964.362	34793.57
964.724	33630.34
965.085	23983.1
965.447	19671.88
965.809	22402.92
966.17	22408.06
966.532	24230.5
966.893	22246.8
967.255	20242.28
967.616	23906.21
967.977	19142.21
968.338	20909.03
968.699	17193.5
969.061	17189.94
969.421	17308.38
969.782	19417.99
970.143	16422.39
970.504	17028.89
970.865	19360.2
971.225	19784.65
971.586	19351.55
971.946	27596.12
972.307	23931.76
972.667	31282.91
973.027	32248.59
973.388	39079.81
973.748	26575.85
974.108	28946.9
974.468	39153.88
974.828	30180.95
975.188	23223.1
975.548	21319.16
975.907	17877.04
976.267	20078.8
976.627	16888.04
976.986	17485.95
977.346	16658.24
977.705	16022.43
978.064	14569.97
978.424	12141.25
978.783	12545.33
979.142	14332.34
979.501	13738.33
979.86	14554.28
980.219	13998.28
980.578	18012.43
980.937	20194
981.296	17999.74
981.654	18516.2
982.013	28835.45
982.371	37399.83
982.73	34916.82
983.088	39496.18
983.447	42142.33
983.805	60252.03
984.163	126103.55
984.521	140209.31
984.879	205684.22
985.237	-334915.59
985.595	322872.54
985.953	80204.91
986.311	46288.71
986.669	26920.69
987.026	23271.87
987.384	31309.65
987.741	32335.21
988.099	23113.93
988.456	18421.15
988.814	17228.68
989.171	14992.04
989.528	14781.83
989.885	15616.97
990.242	12377.96
990.599	15395.8
990.956	12592.59
991.313	8795.27
991.67	7214.33
992.027	7674.91
992.383	6820.8
992.74	5985.57
993.096	6289.4
993.453	6526.52
993.809	6765.17
994.165	8991.42
994.522	8281.85
994.878	9118.04
995.234	11467.33
995.59	11321.5
995.946	10675.81
996.302	12181.18
996.658	14084.71
997.013	15470.39
997.369	18378.75
997.725	23562.21
998.08	15286.25
998.436	23416.29
998.791	32295.3
999.147	32245.62
999.502	35157.05
999.857	25551.27
1000.212	41685.26
1000.567	59409.32
1000.922	34328.75
1001.277	21748.35
1001.632	16128.11
1001.987	20811.12
1002.342	14957.72
1002.696	11998.72
1003.051	9576.39
1003.406	11624.54
1003.76	11557.6
1004.114	11388.37
1004.469	9574.31
1004.823	7917.42
1005.177	8560.1
1005.531	6781.98
1005.885	6016.75
1006.239	6792.01
1006.593	8523.7
1006.947	11393.28
1007.301	8531.35
1007.655	9306.9
1008.008	6826.5
1008.362	7678.49
1008.715	10966.4
1009.069	9940.56
1009.422	15002.23
1009.776	30068.51
1010.129	19993.19
1010.482	16650.5
1010.835	14095.06
1011.188	29288.76
1011.541	27660.32
1011.894	-169661.74
1012.247	498411.43
1012.6	33859.2
1012.952	21400.97
1013.305	10990.83
1013.657	7925.98
1014.01	7493.58
1014.362	6208.32
1014.715	5536.53
1015.067	4840.65
1015.419	4726.15
1015.771	4173.15
1016.123	3711.87
1016.475	3825.52
1016.827	4083.51
1017.179	4402.68
1017.531	4436.4
1017.883	4532.37
1018.234	4396.35
1018.586	5547.52
1018.938	5882.79
1019.289	8117.56
1019.64	9324.81
1019.992	8708.5
1020.343	7971.95
1020.694	6334.4
1021.045	5592.64
1021.396	6376.59
1021.747	6875.71
1022.098	8179.92
1022.449	5943.18
1022.8	5518.97
1023.151	3853.01
1023.501	3412.41
1023.852	3711.28
1024.202	3876.06
1024.553	4239.51
1024.903	4163.3
1025.253	3587.47
1025.604	3228.59
1025.954	4016.54
1026.304	4902.63
1026.654	5724.31
1027.004	8414.1
1027.354	13613.23
1027.703	12858.02
1028.053	16826.01
1028.403	24741.57
1028.753	35625.95
1029.102	48287.49
1029.452	246962.92
1029.801	10638.34
1030.15	6831.08
1030.499	5774.4
897.758	3281.79
901.051	3262.05
904.343	3300.68
907.636	3294.73
910.928	3366.43
914.22	3265.9
917.511	3278.11
920.803	3364.46
924.094	3412.46
927.384	3363.58
930.675	3326.43
933.965	3265.41
937.255	3262.51
940.544	3228.04
943.834	3079.41
947.123	3035.79
950.411	3144.54
953.7	3105.96
956.988	3053.21
960.276	2998.61
963.563	3120.03
966.851	3100.64
970.138	3178.19
973.424	3153.98
976.711	3099.23
979.997	3354.49
983.283	3371.32
986.568	3239.19
989.853	3285.28
993.138	3317.72
996.423	3401.09
999.708	3315.33
1002.992	3433.68
1006.275	3160.98
1009.559	3268.99
1012.842	3411.24
1016.125	3314.36
1019.408	3291.83
1022.69	3419.47
1025.972	3425.43
1029.254	3392.44
1032.536	3284.49
1035.817	3328.12
1039.098	3230.79
1042.379	3498.29
1045.659	3448.04
1048.939	3358.5
1052.219	3400.05
1055.498	3426.65
1058.778	3396.87
1062.057	3389
1065.335	3405.81
1068.614	3439.01
1071.892	3405.21
1075.17	3505.77
1078.447	3483.84
1081.724	3468.02
1085.001	3521.69
1088.278	3485.28
1091.554	3509.55
1094.83	3506.44
1098.106	3529.22
1101.382	3594.28
1104.657	3594.09
1107.932	3590.92
1111.206	3535.21
1114.481	3493
1117.755	3501.88
1121.029	3462.36
1124.302	3515.06
1127.575	3443.23
1130.848	3420.27
1134.121	3369.72
1137.393	3302.63
1140.665	3386.13
1143.937	3363.07
1147.208	3269.17
1150.48	3295.5
1153.75	3279.88
1157.021	3347.98
1160.291	3301.1
1163.561	3345.21
1166.831	3365.13
1170.101	3402.96
1173.37	3389.3
1176.639	3308.74
1179.907	3384.25
1183.176	3439.31
1186.444	3444.39
1189.711	3475.13
1192.979	3479.5
1196.246	3437.35
1199.513	3458.56
1202.78	3454.72
1206.046	3460.35
1209.312	3493.38
1212.578	3529.25
1215.843	3458.69
1219.108	3437.32
1222.373	3463.32
1225.638	3410.85
1228.902	3383.99
1232.166	3353.81
1235.43	3329.54
1238.693	3345.64
1241.956	3348.01
1245.219	3384.46
1248.482	3389.33
1251.744	3377.59
1255.006	3566.11
1258.268	3527.59
1261.529	3454.72
1264.79	3470.31
1268.051	3596.08
1271.312	3618.33
1274.572	3568.18
1277.832	3565.07
1281.092	3560.1
1284.351	3506.39
1287.61	3479.15
1290.869	3363.43
1294.128	3312.28
1297.386	3452.71
1300.644	3438.39
1303.902	3449.41
1307.159	3290.66
1310.416	3352.59
1313.673	3366.9
1316.93	3342.74
1320.186	3412.43
1323.442	3467.51
1326.697	3444.54
1329.953	3459.06
1333.208	3469.01
1336.463	3452.22
1339.717	3377.65
1342.972	3470.94
1346.226	3478.29
1349.479	3388.94
1352.733	3339.96
1355.986	3383.05
1359.238	3351.33
1362.491	3352.06
1365.743	3354.79
1368.995	3357.11
1372.247	3374.16
1375.498	3389.78
1378.749	3454.86
1382	3390.58
1385.251	3469.39
1388.501	3435.62
1391.751	3404.03
1395	3382.86
1398.25	3425.75
1401.499	3419.83
1404.748	3330.69
1407.996	3241.13
1411.244	3236.63
1414.492	3210.25
1417.74	3181.69
1420.987	3202.23
1424.234	3260.77
1427.481	3256.8
1430.728	3316.64
1433.974	3288.74
1437.22	3321.02
1440.465	3324.08
1443.711	3329.96
1446.956	3363.8
1450.201	3373.4
1453.445	3421.77
1456.689	3384.95
1459.933	3401.3
1463.177	3431.53
1466.42	3398.3
1469.663	3375.97
1472.906	3344.85
1476.148	3491.68
1479.391	3367.59
1482.633	3356.27
1485.874	3356.17
1489.115	3319.36
1492.356	3347.81
1495.597	3316.66
1498.838	3333.72
1502.078	3280.36
1505.318	3198.63
1508.557	3255.32
1511.797	3168.97
1515.036	3352.55
1518.274	3331.63
1521.513	3311.83
1524.751	3346.48
1527.989	3351.53
1531.227	3358.89
1534.464	3326.26
1537.701	3379.35
1540.938	3410.59
1544.174	3365.24
1547.41	3378.3
1550.646	3414.27
1553.882	3440.41
1557.117	3493.38
1560.352	3519.74
1563.587	3468.13
1566.821	3415.28
1570.055	3474.97
1573.289	3433.38
1576.523	3534.02
1579.756	3535.39
1582.989	3552.46
1586.222	3508.95
1589.454	3561.14
1592.686	3526.03
1595.918	3546.77
1599.15	3525.02
1602.381	3639.48
1605.612	3562.95
1608.843	3670.38
1612.073	3562.3
1615.303	3540.74
1618.533	3516.9
1621.762	3532.19
1624.992	3529.99
1628.221	3496.63
1631.449	3481.73
1634.678	3571.62
1637.906	3509.09
1641.134	3567.22
1644.361	3510.71
1647.588	3495.08
1650.815	3503.51
1654.042	3497.52
1657.269	3537.31
1660.495	3485.88
1663.72	3421.78
1666.946	3409.96
1670.171	3311.59
1673.396	3288.29
1676.621	3284.28
1679.845	3334.14
1683.069	3377.84
1686.293	3439.72
1689.517	3390.35
1692.74	3279.92
1695.963	3299.29
1699.185	3404.9
1702.408	3348.93
1705.63	3407.35
1708.852	3413.52
1712.073	3384.61
1715.294	3346.35
1718.515	3370.39
1721.736	3314.86
1724.956	3273.89
1728.176	3309.87
1731.396	3327.82
1734.616	3327.62
1737.835	3334.12
1741.054	3331.77
1744.272	3328.89
1747.491	3342.43
1750.709	3432.29
1753.927	3332.48
1757.144	3389.15
1760.361	3467.26
1763.578	3476.87
1766.795	3404.47
1770.011	3423.73
1773.227	3490.64
1776.443	3517.48
1779.658	3563.71
1782.874	3505.66
1786.089	3468.47
1789.303	3472.96
1792.518	3488.21
1795.732	3475.06
1798.945	3478.58
1802.159	3541.44
1805.372	3396.43
1808.585	3365.81
1811.797	3370.24
1815.01	3450.89
1818.222	3458.12
1821.434	3322.59
1824.645	3436.63
1827.856	3391.69
1831.067	3442.48
1834.278	3359.87
1837.488	3351.09
1840.698	3539.69
1843.908	3436.06
1847.117	3392.62
1850.326	3217.2
1853.535	3360.08
1856.744	3493.89
1859.952	3366.51
1863.16	3364.54
1866.368	3388.55
1869.575	3551.04
1872.782	3421.94
1875.989	3360.9
1879.196	3495.34
1882.402	3489.17
1885.608	3540.97
1888.814	3395.03
1892.019	3266.11
1895.224	3318.69
1898.429	3316.26
1901.634	3283.66
1904.838	3266.73
1908.042	3309.66
1911.246	3312.07
1914.449	3198.22
1917.652	3212.38
1920.855	3196.79
1924.058	3275.69
1927.26	3305.22
1930.462	3342.67
1933.664	3355.8
1936.865	3285.71
1940.066	3281.83
1943.267	3230.39
1946.467	3256.81
1949.668	3295.38
1952.868	3363.82
1956.067	3321.7
1959.267	3239.7
1962.466	3273.41
1965.665	3260.84
1968.863	3256.95
1972.061	3291.53
1975.259	3293.6
1978.457	3383.06
1981.654	3330.4
1984.852	3331.13
1988.048	3235.62
1991.245	3258.72
1994.441	3348.4
1997.637	3362.76
2000.833	3343.51
2004.028	3392.71
2007.223	3435.02
2010.418	3399.27
2013.613	3366.54
2016.807	3307.6
2020.001	3329.49
2023.194	3407.6
2026.388	3368.83
2029.581	3315.94
2032.774	3348.69
2035.966	3347.79
2039.158	3255.35
2042.35	3295.69
2045.542	3217.72
2048.733	3352.17
2051.924	3411.23
2055.115	3458.5
2058.306	3366.32
2061.496	3438.16
2064.686	3518.33
2067.875	3439.16
2071.065	3468.66
2074.254	3507.64
2077.442	3456.14
2080.631	3561.95
2083.819	3394.27
2087.007	3362.68
2090.195	3311.72
2093.382	3372.49
2096.569	3344.57
2099.756	3284.12
2102.942	3284.32
2106.128	3277.89
2109.314	3273.79
2112.5	3205.27
2115.685	3191.49
2118.87	3206.24
2122.055	3278.01
2125.239	3226.81
2128.424	3178.45
2131.608	3342.22
2134.791	3323.61
2137.974	3411.88
2141.157	3387.4
2144.34	3313.47
2147.523	3331.69
2150.705	3325.47
2153.887	3321.92
2157.068	3243.49
2160.25	3270.28
2163.431	3333.31
2166.611	3245.18
2169.792	3257.59
2172.972	3122.11
2176.152	3244.87
2179.331	3291.38
2182.511	3273.41
2185.69	3310.81
2188.868	3294.33
2192.047	3378.94
2195.225	3339.23
2198.403	3284.44
2201.58	3286.46
2204.758	3286.61
2207.935	3386.34
2211.111	3231.04
2214.288	3209.2
2217.464	3259.11
2220.64	3244.07
2223.815	3309.79
2226.991	3214.91
2230.166	3239.51
2233.34	3254.79
2236.515	3290.73
2239.689	3382.99
2242.863	3316.1
2246.036	3382.1
2249.209	3405.11
2252.382	3457.07
2255.555	3423.23
2258.727	3338.69
2261.9	3390.56
2265.071	3381.71
2268.243	3391.65
2271.414	3304.94
2274.585	3232.47
2277.756	3313.16
2280.926	3265.96
2284.096	3320.77
2287.266	3198.03
2290.436	3270.09
2293.605	3313.47
2296.774	3331.44
2299.942	3378.71
2303.111	3397.2
2306.279	3439.13
2309.447	3430.1
2312.614	3407.32
2315.781	3422.37
2318.948	3377.59
2322.115	3421.17
2325.281	3317.88
2328.447	3350.67
2331.613	3333.63
2334.779	3276.98
2337.944	3292.19
2341.109	3284.63
2344.274	3259.87
2347.438	3222.23
2350.602	3255.82
2353.766	3278.67
2356.929	3258.53
2360.092	3305.43
2363.255	3234.09
2366.418	3123.16
2369.58	3298.54
2372.742	2963.16
2375.904	3001.94
2379.066	2961.99
2382.227	3012.89
2385.388	2968.98
2388.548	2866.51
2391.709	2942.51
2394.869	2912.36
2398.029	3067.92
2401.188	3104.31
2404.347	3001.41
2407.506	3225.66
2410.665	3249.14
2413.823	3279.59
2416.981	3203.79
2420.139	3257.33
2423.296	3320.44
2426.453	3292.27
2429.61	3320.58
2432.767	3209.57
2435.923	3265.6
2439.079	3137.46
2442.235	3229.75
2445.391	3132.87
2448.546	3140.38
2451.701	3215.34
2454.855	3152.34
2458.009	3236.47
2461.163	3257.04
2464.317	3195.42
2467.471	3237.55
2470.624	3274.47
2473.777	3331.41
2476.929	3321.18
2480.082	3352.68
2483.234	3320.45
2486.385	3186.22
2489.537	3188.74
2492.688	3114.99
2495.839	3131.61
2498.989	3137.29
2502.14	3117.29
2505.29	3084.71
2508.439	3117.22
2511.589	3016.96
2514.738	3043.32
2517.887	3072.43
2521.035	3235.05
2524.183	3227.89
2527.331	3193.21
2530.479	3144.01
2533.627	3164.3
