Data from N_3_HIR_IL_4N_Splice17_13-40-23-940.txt Node
Date: Sat Mar 14 13:40:23 EDT 2020
User: sa697716
Spectrometer: FLMS03696
Trigger mode: 0
Integration Time (sec): 3.180400E-1
Scans to average: 20
Electric dark correction enabled: true
Nonlinearity correction enabled: true
Boxcar width: 5
XAxis mode: Wavelengths
Number of Pixels in Spectrum: 2048
>>>>>Begin Spectral Data<<<<<
187.83	-416516.94
188.298	3145.54
188.766	1657.86
189.233	1476.19
189.701	2045.04
190.169	2894.59
190.636	1132.9
191.104	899.9
191.571	121.95
192.039	-137.2
192.506	-185.73
192.974	521.68
193.441	-740.16
193.908	-202.7
194.375	-52.14
194.842	-30.32
195.31	116.46
195.777	218.57
196.244	468.02
196.711	518.55
197.177	648.45
197.644	927.27
198.111	1607.07
198.578	2270.69
199.045	1834.69
199.511	3007.42
199.978	3522.29
200.445	3022.88
200.911	3331.97
201.378	3725.4
201.844	3394.77
202.31	5816.23
202.777	6057.73
203.243	3374.98
203.709	3235.82
204.176	3864.57
204.642	3177.1
205.108	2961.34
205.574	2383.43
206.04	2145.73
206.506	2001.18
206.972	1877.21
207.438	1808.51
207.903	2054.22
208.369	1806.26
208.835	1778.66
209.301	1859.76
209.766	1890.95
210.232	1880.26
210.697	2326.97
211.163	2901.52
211.628	4337
212.094	3652.82
212.559	4492.88
213.024	2784.28
213.49	3413.22
213.955	3321.23
214.42	3215.05
214.885	3018.34
215.35	2890.89
215.815	2810.76
216.28	3002.62
216.745	2474.98
217.21	2675.8
217.675	2448.47
218.14	2761.06
218.604	3069.63
219.069	3558.11
219.534	3772.7
219.998	4379.84
220.463	5312.93
220.927	6530.57
221.392	6145.45
221.856	6226.22
222.32	7877.46
222.785	9765.92
223.249	12324.79
223.713	13810.57
224.177	13793.5
224.642	17675.82
225.106	21772.71
225.57	23834.93
226.034	17810.88
226.497	27172.29
226.961	24558.09
227.425	28629.09
227.889	31768.56
228.353	31767.98
228.816	65590.67
229.28	62742.96
229.744	53010.68
230.207	32254.06
230.671	31771.58
231.134	52427.03
231.597	60477.79
232.061	60467.78
232.524	58957.68
232.987	40575.39
233.45	36553.88
233.914	32817.61
234.377	33616.25
234.84	30706.41
235.303	36144.05
235.766	40329.07
236.229	41696.69
236.691	26240.19
237.154	29516.04
237.617	22195.09
238.08	22728.87
238.542	26575.26
239.005	18970.02
239.468	18865.97
239.93	17787.25
240.393	16193.08
240.855	14208.12
241.317	14561.9
241.78	17711.65
242.242	18294.04
242.704	19766.89
243.166	17221.56
243.629	15680.21
244.091	18076.59
244.553	19801.96
245.015	21306.02
245.477	27560.72
245.939	40433.48
246.4	42876.14
246.862	41692.48
247.324	39356
247.786	44019.37
248.247	57774.94
248.709	59571.06
249.17	44576.13
249.632	42033.65
250.093	48734.24
250.555	42104.49
251.016	25677.76
251.477	24390.08
251.939	26367.87
252.4	27643.5
252.861	32894.47
253.322	30594.96
253.783	36424.31
254.244	47249.69
254.705	37231.08
255.166	33123.99
255.627	32646.68
256.088	46088.08
256.549	48953.49
257.009	42079.64
257.47	51081.67
257.931	41619.06
258.391	31195.95
258.852	32192.27
259.312	33772.96
259.773	41755.06
260.233	35334.59
260.694	29805
261.154	33825.96
261.614	27199
262.074	24371.77
262.534	25339.08
262.994	23872.44
263.455	31816.9
263.915	26806.98
264.374	25250
264.834	27571.3
265.294	30561.64
265.754	31661.99
266.214	29951.46
266.673	28039.92
267.133	35394.94
267.593	35125.84
268.052	43042.14
268.512	37473.76
268.971	45193.52
269.431	49589.8
269.89	44412.1
270.349	66593.45
270.809	74356.45
271.268	66900.45
271.727	150093.31
272.186	97281.4
272.645	73051.01
273.104	52697.98
273.563	76266.64
274.022	59961.59
274.481	51012.09
274.94	39328.39
275.399	29227.95
275.857	33980.2
276.316	45931.49
276.775	40868.85
277.233	40249.01
277.692	37676.65
278.15	42636.41
278.609	43867
279.067	40621.44
279.525	37763.9
279.984	48748.17
280.442	58568.65
280.9	57792.77
281.358	38022.19
281.816	35430.83
282.274	34652.04
282.732	35751.88
283.19	35885.27
283.648	30972.04
284.106	32963.45
284.564	33510.62
285.021	31063.35
285.479	23120.35
285.937	20999.75
286.394	18423.51
286.852	18959.66
287.309	19910.28
287.767	19220.08
288.224	18278
288.682	20032.92
289.139	21982.13
289.596	20083.53
290.053	20864.42
290.511	26344.17
290.968	31964.45
291.425	43370.4
291.882	36083.37
292.339	31424.56
292.796	31201.16
293.252	29394.98
293.709	23364.92
294.166	20934.47
294.623	23113.02
295.079	22155.28
295.536	22244.43
295.992	20174.57
296.449	19923.35
296.905	20663.25
297.362	19784.91
297.818	20787
298.274	21564.05
298.731	21922.14
299.187	21668.07
299.643	23256.73
300.099	28128.36
300.555	30844.4
301.011	25780.49
301.467	24876.91
301.923	29158.09
302.379	28462.84
302.835	27951.18
303.291	27943.25
303.746	31798.25
304.202	40207.91
304.658	40355.45
305.113	27123.12
305.569	26546.55
306.024	28265.31
306.479	26881.72
306.935	22624.37
307.39	24670.72
307.845	22738.88
308.301	22879.14
308.756	22283.69
309.211	21426.01
309.666	21930.83
310.121	27193.94
310.576	27551.4
311.031	27289.41
311.486	31186.64
311.94	31107.91
312.395	41577.74
312.85	78173.57
313.305	383261.13
313.759	1984317.01
314.214	143824.71
314.668	113959.49
315.123	95771.6
315.577	34392.86
316.032	30628.06
316.486	38347.81
316.94	30252.05
317.394	21074.18
317.849	16364.1
318.303	15488.66
318.757	14602.06
319.211	16125.74
319.665	14101.84
320.119	14264.75
320.572	20422.02
321.026	19076.35
321.48	15888.28
321.934	17343.01
322.387	17399.42
322.841	18780.08
323.295	16914.58
323.748	19451.71
324.202	19744.59
324.655	23759.08
325.108	33235.74
325.562	23457.53
326.015	27835.91
326.468	21037.82
326.921	23516.15
327.374	21872.62
327.827	22781.32
328.28	25764.14
328.733	17267.23
329.186	15162.78
329.639	14418.51
330.092	12145.08
330.545	11575.28
330.997	11678.87
331.45	12769.21
331.903	14926.08
332.355	25679.34
332.808	24953.94
333.26	20566.23
333.713	22345.76
334.165	22509.87
334.617	30002.4
335.069	24192.55
335.522	43667.6
335.974	48307.02
336.426	44093.4
336.878	30552
337.33	15473.4
337.782	15069.66
338.234	18867.05
338.686	22533.38
339.137	26685.68
339.589	25149.71
340.041	19708.62
340.493	16960.32
340.944	17358.16
341.396	18693.23
341.847	15731.29
342.299	18582.96
342.75	22770.08
343.201	19869.57
343.653	22851.04
344.104	28072.15
344.555	22087.79
345.006	34369.17
345.457	26362.42
345.908	20912.51
346.359	19646.39
346.81	16003.19
347.261	16868.92
347.712	16568.97
348.163	17783.95
348.613	18008.97
349.064	16814.87
349.515	14709.21
349.965	15096.8
350.416	18169.45
350.866	19970.13
351.317	22571.59
351.767	37315.19
352.217	47079.33
352.668	39067.18
353.118	35790.57
353.568	34553.63
354.018	27298.92
354.468	28833.93
354.918	20679.91
355.368	18061.47
355.818	25488.97
356.268	73287.96
356.718	307205.59
357.168	76455.07
357.617	38421.67
358.067	42656.29
358.517	39837.79
358.966	46661.15
359.416	52305.55
359.865	56476.43
360.315	67204.36
360.764	31385.68
361.213	17589.94
361.663	16627.22
362.112	20503.05
362.561	33044.85
363.01	24895.15
363.459	20979.62
363.908	22705.31
364.357	19274.35
364.806	32490.23
365.255	22300.44
365.703	20437.71
366.152	20462.66
366.601	16576.97
367.05	13465.89
367.498	12227.29
367.947	12764.75
368.395	13236.07
368.844	11728.16
369.292	14106.72
369.74	9759.55
370.189	14967
370.637	17525.19
371.085	15076.59
371.533	18343.98
371.981	17639.12
372.429	16827.32
372.877	17523.01
373.325	14661.29
373.773	14906.73
374.221	13252.41
374.669	16405.52
375.116	14145.94
375.564	14217.64
376.012	15923.92
376.459	13138.36
376.907	15716.94
377.354	18933.81
377.801	17636.46
378.249	20291.82
378.696	25894.5
379.143	31334.53
379.591	33324.4
380.038	56250.93
380.485	40666.13
380.932	43867.57
381.379	40051
381.826	29462.82
382.273	20927.96
382.72	18255.9
383.166	17772.45
383.613	11524.29
384.06	10390.95
384.506	12039.03
384.953	8836.57
385.4	8877.36
385.846	7753.44
386.292	7539
386.739	7351.97
387.185	7258.08
387.631	7261.62
388.078	7060.42
388.524	7527.65
388.97	6938.69
389.416	5784.44
389.862	6150
390.308	5821.19
390.754	5903.55
391.2	6411.48
391.645	6563.66
392.091	6291.79
392.537	6077.99
392.983	6062.89
393.428	5997.25
393.874	6427.9
394.319	6454.02
394.765	6132.61
395.21	6307.46
395.655	5913.16
396.101	5532.73
396.546	4994.87
396.991	5029.18
397.436	4671.86
397.881	4514.34
398.326	4260.38
398.771	4036.51
399.216	3523.68
399.661	3171.19
400.106	3161.4
400.551	3248.56
400.995	2920.93
401.44	2887.95
401.885	2715.81
402.329	2745.95
402.774	2642.2
403.218	2575.74
403.663	2480.1
404.107	2553.22
404.551	2575.97
404.995	2364.49
405.44	2279.07
405.884	2313.15
406.328	2243.33
406.772	2243.76
407.216	2046.08
407.66	1976.41
408.104	1866.77
408.547	1751.84
408.991	1696.46
409.435	1636.05
409.879	1616.31
410.322	1597.22
410.766	1547.6
411.209	1473.76
411.653	1415.13
412.096	1391.56
412.54	1392.79
412.983	1388.14
413.426	1396.3
413.869	1396.9
414.312	1373.3
414.756	1326.37
415.199	1264.51
415.642	1228.58
416.085	1232.58
416.527	1225.31
416.97	1244.07
417.413	1183.92
417.856	1172.27
418.298	1158.35
418.741	1151.61
419.184	1147.48
419.626	1194.11
420.069	1196.64
420.511	1203.36
420.953	1177.95
421.396	1166.92
421.838	1138.36
422.28	1164.16
422.722	1171.32
423.164	1188.75
423.606	1168.85
424.048	1165.57
424.49	1109.52
424.932	1103.57
425.374	1088.92
425.816	1106.16
426.258	1128
426.699	1140.31
427.141	1125.26
427.582	1139.33
428.024	1132.6
428.465	1124.2
428.907	1098.67
429.348	1084.91
429.789	1086.92
430.231	1064.22
430.672	1079.96
431.113	1053.61
431.554	1036.04
431.995	1006.81
432.436	971.21
432.877	950.64
433.318	937.45
433.759	930.3
434.2	927
434.64	915.13
435.081	917.09
435.522	868.54
435.962	837.65
436.403	820.46
436.843	831.72
437.284	814.63
437.724	789.15
438.164	788.49
438.604	772.72
439.045	744.79
439.485	716.2
439.925	700.09
440.365	682.38
440.805	672.02
441.245	664.87
441.685	641.94
442.125	636.39
442.564	641.33
443.004	627.02
443.444	624.3
443.883	625.8
444.323	617.82
444.762	617.26
445.202	624.3
445.641	637.3
446.081	630.69
446.52	634.4
446.959	628.67
447.398	614.61
447.837	607.1
448.276	596.1
448.716	601.38
449.154	606.69
449.593	594.96
450.032	593.34
450.471	579.79
450.91	581.88
451.349	581.16
451.787	577.29
452.226	586.32
452.664	586.96
453.103	589.17
453.541	587.88
453.98	589.36
454.418	591.88
454.856	584
455.295	581.61
455.733	585.75
456.171	587.76
456.609	587.94
457.047	585.81
457.485	594.61
457.923	595.65
458.361	586.56
458.798	586.83
459.236	583.84
459.674	585.38
460.111	588.81
460.549	582.34
460.987	579.66
461.424	577.89
461.862	574.25
462.299	562.62
462.736	561.02
463.173	561.65
463.611	556.57
464.048	556.51
464.485	560.45
464.922	554.03
465.359	549.36
465.796	548.52
466.233	544.7
466.67	541.9
467.106	542.74
467.543	536.08
467.98	529.61
468.416	514.07
468.853	508.1
469.29	492.53
469.726	487.8
470.162	475.4
470.599	464
471.035	459.76
471.471	447.96
471.907	443.9
472.344	441.63
472.78	443.86
473.216	449.22
473.652	444.88
474.088	445.32
474.523	445.33
474.959	450.05
475.395	445.93
475.831	443.89
476.266	445.66
476.702	445.07
477.138	440.05
477.573	438.04
478.008	437.04
478.444	439.74
478.879	444.27
479.314	446.35
479.75	445.87
480.185	448.15
480.62	451.01
481.055	453.46
481.49	457.39
481.925	464.77
482.36	475.3
482.795	488.69
483.229	500.96
483.664	510.75
484.099	511.76
484.534	519.25
484.968	523.6
485.403	524.45
485.837	523.14
486.271	521.61
486.706	521.43
487.14	513.15
487.574	504.03
488.009	499.46
488.443	494.04
488.877	499.02
489.311	500.52
489.745	507.02
490.179	513.25
490.613	524.5
491.046	528.45
491.48	532.2
491.914	532.35
492.348	536.7
492.781	540.42
493.215	541.87
493.648	542.95
494.082	547.34
494.515	547.83
494.948	554.38
495.382	556.96
495.815	560.58
496.248	565.75
496.681	576.7
497.114	585.98
497.547	594.08
497.98	606.79
498.413	612.83
498.846	621.69
499.279	628.53
499.711	632.02
500.144	634.79
500.577	645.45
501.009	654.64
501.442	664.97
501.874	667.65
502.306	670.03
502.739	679.17
503.171	692.15
503.603	696.94
504.036	707.27
504.468	713.45
504.9	725.58
505.332	732.34
505.764	738.87
506.196	746.17
506.627	760.88
507.059	775.15
507.491	782.3
507.923	784.31
508.354	799.98
508.786	811.33
509.217	830
509.649	845.04
510.08	864.36
510.512	882.23
510.943	898.59
511.374	911.35
511.805	932.31
512.237	952.32
512.668	982.86
513.099	1008.55
513.53	1036
513.961	1057.67
514.391	1089.64
514.822	1123.65
515.253	1158.14
515.684	1184.48
516.114	1215.19
516.545	1238.15
516.975	1266.34
517.406	1287.31
517.836	1294.42
518.267	1304.43
518.697	1325.75
519.127	1333.77
519.558	1343.49
519.988	1350.43
520.418	1364.31
520.848	1383.01
521.278	1395.83
521.708	1434.83
522.138	1450.94
522.567	1482.9
522.997	1511.31
523.427	1528.95
523.857	1548.78
524.286	1561.9
524.716	1580.12
525.145	1601.89
525.575	1617.04
526.004	1633.45
526.433	1613.27
526.863	1617.32
527.292	1612.49
527.721	1620.5
528.15	1629.71
528.579	1633.2
529.008	1646.77
529.437	1672.27
529.866	1687.64
530.295	1706.34
530.724	1721.96
531.152	1750.67
531.581	1766.25
532.01	1785.2
532.438	1795.01
532.867	1811.25
533.295	1831.66
533.723	1839.31
534.152	1840.39
534.58	1842.52
535.008	1828.01
535.436	1830.22
535.865	1838.6
536.293	1853.74
536.721	1869.94
537.149	1897.47
537.576	1900.43
538.004	1914.05
538.432	1922.75
538.86	1920.42
539.287	1926.75
539.715	1941.43
540.143	1945.25
540.57	1942.27
540.998	1939.26
541.425	1917.85
541.852	1896.24
542.28	1895.5
542.707	1878.76
543.134	1865.92
543.561	1862.63
543.988	1856.85
544.415	1857.9
544.842	1854.14
545.269	1847.82
545.696	1851.39
546.123	1865.69
546.549	1856.91
546.976	1845.46
547.403	1846.33
547.829	1849.65
548.256	1853.43
548.682	1850.99
549.108	1844.34
549.535	1844.61
549.961	1848.29
550.387	1835.65
550.813	1831.84
551.24	1839.68
551.666	1841.75
552.092	1833.68
552.518	1828.24
552.943	1822.71
553.369	1831.57
553.795	1838.7
554.221	1841.36
554.646	1838.74
555.072	1851.03
555.498	1855.92
555.923	1866.14
556.349	1883.97
556.774	1894.62
557.199	1897.11
557.625	1904.11
558.05	1899.78
558.475	1910.2
558.9	1910.27
559.325	1904.34
559.75	1899.06
560.175	1892.81
560.6	1888.05
561.025	1885.53
561.449	1887.24
561.874	1893.12
562.299	1898.84
562.723	1905.44
563.148	1896.12
563.572	1899.41
563.997	1908.58
564.421	1913.43
564.846	1915.1
565.27	1918.39
565.694	1915.47
566.118	1927.59
566.542	1936.07
566.966	1929.29
567.39	1925.19
567.814	1914.36
568.238	1913.15
568.662	1918.25
569.086	1920.69
569.509	1927.29
569.933	1909.56
570.357	1901.34
570.78	1878.6
571.204	1864.21
571.627	1852.62
572.05	1848.99
572.474	1848.66
572.897	1836.36
573.32	1828.73
573.743	1818.16
574.166	1798.81
574.589	1800.12
575.012	1793.18
575.435	1791.73
575.858	1783.12
576.281	1770.99
576.704	1754.76
577.126	1742.22
577.549	1730.75
577.972	1720.97
578.394	1710.79
578.817	1704.83
579.239	1685.35
579.661	1670.98
580.084	1656.13
580.506	1642.32
580.928	1639.24
581.35	1628.87
581.772	1624.69
582.194	1611.09
582.616	1598.33
583.038	1583.4
583.46	1571.93
583.882	1568.48
584.303	1572.31
584.725	1567.26
585.147	1570.73
585.568	1581.65
585.99	1595.76
586.411	1602.29
586.833	1617.47
587.254	1617.87
587.675	1632.91
588.096	1645.67
588.518	1640.02
588.939	1622.69
589.36	1620.24
589.781	1607.3
590.202	1578.33
590.623	1568.02
591.043	1566.01
591.464	1552.04
591.885	1547.98
592.305	1541.01
592.726	1527.16
593.147	1528.25
593.567	1522.8
593.987	1514.25
594.408	1508.56
594.828	1505.46
595.248	1499.65
595.669	1480.96
596.089	1474.51
596.509	1468.74
596.929	1455.17
597.349	1456.13
597.769	1445.57
598.189	1439.9
598.608	1441.67
599.028	1443.42
599.448	1443.76
599.867	1429.89
600.287	1424.93
600.706	1420.8
601.126	1411.36
601.545	1411.05
601.965	1408.39
602.384	1402.98
602.803	1404.83
603.222	1400.54
603.641	1394.31
604.061	1389.68
604.48	1385.51
604.898	1392.6
605.317	1396.19
605.736	1396.4
606.155	1393.16
606.574	1384.7
606.992	1389.44
607.411	1384.3
607.829	1374.54
608.248	1369.38
608.666	1366.46
609.085	1365.61
609.503	1357.6
609.921	1352.06
610.339	1354.08
610.758	1351.78
611.176	1346.06
611.594	1336.35
612.012	1331.71
612.43	1334.04
612.847	1339.7
613.265	1341.49
613.683	1344.02
614.101	1344.44
614.518	1338.81
614.936	1327.74
615.353	1311.86
615.771	1308.25
616.188	1308.17
616.606	1304.77
617.023	1296.49
617.44	1281.98
617.857	1272.87
618.274	1264.14
618.691	1257.52
619.108	1247.46
619.525	1240.8
619.942	1247.13
620.359	1249.07
620.776	1242.81
621.192	1239.37
621.609	1237.47
622.026	1244.8
622.442	1250.75
622.859	1253.48
623.275	1244.64
623.691	1250.01
624.108	1260.67
624.524	1274.19
624.94	1273.59
625.356	1283.77
625.772	1294.68
626.188	1306.29
626.604	1306.5
627.02	1301.58
627.436	1299.62
627.852	1307.28
628.268	1319.13
628.683	1309.66
629.099	1301.84
629.514	1296.58
629.93	1300.06
630.345	1303.85
630.761	1298.74
631.176	1301.99
631.591	1296.59
632.007	1290.08
632.422	1286.5
632.837	1273.23
633.252	1270.9
633.667	1259.22
634.082	1248.7
634.497	1235.37
634.911	1216.16
635.326	1211.91
635.741	1194.07
636.155	1182.35
636.57	1183.77
636.984	1183.21
637.399	1185.76
637.813	1183.38
638.228	1181.43
638.642	1185.25
639.056	1172.87
639.47	1171.52
639.884	1161.09
640.298	1153.3
640.712	1150.34
641.126	1135.3
641.54	1123.17
641.954	1115.4
642.368	1101.96
642.781	1092.13
643.195	1072.61
643.609	1070.78
644.022	1061.93
644.436	1055.85
644.849	1040.1
645.262	1026.84
645.676	1024.91
646.089	1018.4
646.502	1002.4
646.915	994.02
647.328	976.2
647.741	971.61
648.154	957.9
648.567	954.61
648.98	941.11
649.393	939.87
649.805	934.59
650.218	926.06
650.631	910.67
651.043	901.99
651.456	895.87
651.868	894.37
652.28	908.27
652.693	918.75
653.105	922.05
653.517	928.69
653.929	928.01
654.341	931.24
654.753	918.35
655.165	921.95
655.577	919.35
655.989	913.32
656.401	903.84
656.813	870.37
657.224	850.17
657.636	820.66
658.047	802.31
658.459	782.74
658.87	771.23
659.282	758.16
659.693	737.91
660.104	722.05
660.515	706.92
660.926	701.58
661.338	695.11
661.749	685.3
662.159	675.86
662.57	668.58
662.981	662.39
663.392	653.67
663.803	653.69
664.213	647.76
664.624	640.89
665.035	639.9
665.445	626.32
665.855	619.41
666.266	611.9
666.676	607.13
667.086	597.37
667.497	594.21
667.907	586.69
668.317	577.44
668.727	575.32
669.137	572.63
669.547	569.49
669.956	569.57
670.366	568.63
670.776	568.48
671.186	570.37
671.595	572.62
672.005	573.33
672.414	572.86
672.824	571.23
673.233	571.14
673.642	572.68
674.052	575.59
674.461	578.73
674.87	580.52
675.279	579.63
675.688	578.8
676.097	580.9
676.506	578.76
676.915	589.69
677.323	592.35
677.732	591.38
678.141	590.85
678.549	581.16
678.958	579.06
679.366	579.06
679.775	582.29
680.183	594.03
680.592	598.89
681	605.29
681.408	601.39
681.816	609.44
682.224	618.13
682.632	631.46
683.04	659.62
683.448	683.46
683.856	713.82
684.264	747.16
684.671	777.11
685.079	814.32
685.487	856.23
685.894	915.38
686.302	966.08
686.709	1012.39
687.116	1062.6
687.524	1109.22
687.931	1149.27
688.338	1185.51
688.745	1216.23
689.152	1252.63
689.559	1299.36
689.966	1347.76
690.373	1374.14
690.78	1416.8
691.187	1479.96
691.593	1532
692	1574.75
692.407	1639.82
692.813	1718.9
693.22	1784.5
693.626	1849.6
694.032	1902.91
694.439	1980.46
694.845	2043.06
695.251	2122.08
695.657	2192.03
696.063	2293.63
696.469	2371.44
696.875	2442.67
697.281	2485.18
697.687	2533.76
698.093	2575.99
698.498	2655.54
698.904	2717.51
699.31	2807.26
699.715	2875.36
700.12	2969.49
700.526	2987.81
700.931	3061.17
701.337	3117.73
701.742	3152.32
702.147	3240.66
702.552	3276.92
702.957	3342.15
703.362	3365.26
703.767	3395.88
704.172	3435.85
704.577	3389.18
704.981	3440.67
705.386	3457.62
705.791	3449.52
706.195	3525.78
706.6	3537.69
707.004	3619.3
707.408	3585.04
707.813	3613.07
708.217	3603.7
708.621	3605.4
709.025	3705.81
709.43	3707.36
709.834	3769.59
710.237	3839.85
710.641	3823.64
711.045	3842.98
711.449	3836.48
711.853	3868.43
712.256	3910.62
712.66	3948.59
713.064	4025.23
713.467	4067.14
713.87	4179
714.274	4227.09
714.677	4340.35
715.08	4508.87
715.484	4683.31
715.887	4889.89
716.29	5090.76
716.693	5303.28
717.096	5548.43
717.499	5684.52
717.901	5711.24
718.304	5741.16
718.707	5763.41
719.109	5658.88
719.512	5621.66
719.915	5482.18
720.317	5423.92
720.719	5467.56
721.122	5434.43
721.524	5385.2
721.926	5342
722.328	5444.31
722.731	5434.58
723.133	5461.62
723.535	5657.05
723.937	5676.38
724.338	5729.94
724.74	5771.1
725.142	5731.66
725.544	5730.66
725.945	5759.15
726.347	5752.95
726.748	5743.52
727.15	5754.07
727.551	5716.75
727.952	5685.02
728.354	5655.48
728.755	5653.26
729.156	5608.97
729.557	5568.66
729.958	5442.53
730.359	5380.06
730.76	5362.13
731.161	5298.96
731.562	5271.8
731.962	5271.2
732.363	5205.48
732.763	5140.05
733.164	5175.08
733.564	5107.38
733.965	5011.44
734.365	4976.3
734.766	5004.52
735.166	4962.6
735.566	4908.1
735.966	4884.09
736.366	4879.01
736.766	4816.42
737.166	4850.11
737.566	4807.45
737.966	4778.45
738.365	4819.17
738.765	4815.05
739.165	4736.12
739.564	4708.16
739.964	4752.27
740.363	4703.31
740.763	4700.24
741.162	4689.34
741.561	4653.97
741.96	4607.52
742.36	4628.03
742.759	4633.47
743.158	4668.7
743.557	4684.65
743.955	4726.56
744.354	4682.28
744.753	4740.03
745.152	4698.14
745.55	4752.37
745.949	4747.92
746.348	4751.36
746.746	4768.72
747.144	4730.09
747.543	4708.85
747.941	4760.91
748.339	4691.42
748.737	4682.47
749.136	4675.46
749.534	4741.97
749.932	4717.18
750.33	4740.77
750.727	4795.79
751.125	4769.65
751.523	4750.98
751.921	4797.67
752.318	4760.88
752.716	4821.13
753.113	4835.6
753.511	4860.67
753.908	4859.35
754.305	4840.02
754.703	4901.66
755.1	4962.2
755.497	5025.91
755.894	5218.96
756.291	5395.74
756.688	5725.97
757.085	6164.95
757.482	6784.86
757.878	7466.21
758.275	8082.27
758.672	8925.77
759.068	9615.78
759.465	10598.81
759.861	11863.56
760.258	13329.36
760.654	14086.75
761.05	13978.49
761.447	13336.82
761.843	12413.73
762.239	11455.29
762.635	11024.15
763.031	10607.73
763.427	10011.39
763.822	9386.25
764.218	8766.28
764.614	7962.76
765.01	7427.99
765.405	7079.11
765.801	6815.94
766.196	6480.34
766.592	6292.58
766.987	5975.57
767.382	5761.82
767.778	5670.41
768.173	5538.68
768.568	5465.69
768.963	5341.54
769.358	5358.79
769.753	5313.19
770.148	5229.32
770.542	5230.32
770.937	5200.55
771.332	5292.1
771.726	5313.71
772.121	5253.04
772.515	5307.42
772.91	5291.71
773.304	5364.26
773.699	5297.67
774.093	5354.88
774.487	5411.47
774.881	5454.62
775.275	5449.45
775.669	5408.21
776.063	5454.22
776.457	5492.17
776.851	5417.21
777.245	5412.49
777.638	5448.4
778.032	5568.19
778.425	5529.55
778.819	5575.55
779.212	5534.68
779.606	5496.33
779.999	5518.53
780.392	5502.94
780.786	5583.08
781.179	5605.6
781.572	5648.28
781.965	5658.35
782.358	5599.19
782.751	5657.31
783.143	5606.7
783.536	5678.74
783.929	5721.67
784.322	5837.49
784.714	5865.57
785.107	5864.09
785.499	5939.52
785.891	5920.74
786.284	5903.37
786.676	6045.79
787.068	6029.35
787.46	6084.83
787.852	6105.47
788.245	6191.35
788.636	6218.63
789.028	6290.39
789.42	6332.59
789.812	6339.83
790.204	6431.35
790.595	6531.69
790.987	6334.87
791.378	6354.54
791.77	6478.43
792.161	6612.27
792.553	6666.68
792.944	6555.67
793.335	6486.18
793.726	6558.09
794.117	6650.39
794.508	6789.33
794.899	6758.66
795.29	6901.24
795.681	6961.79
796.072	6823.44
796.463	6652.18
796.853	6667.31
797.244	6825.46
797.634	6863.27
798.025	6860.31
798.415	6870.3
798.806	6966.25
799.196	7057.32
799.586	7109.7
799.976	7072.4
800.366	7307.01
800.756	7539.51
801.146	7496.76
801.536	7531.27
801.926	7607.2
802.316	7636.24
802.706	7712.59
803.095	7586.58
803.485	7686.06
803.874	7725.82
804.264	7991.12
804.653	7971.2
805.043	8119.03
805.432	8233.55
805.821	8238.02
806.21	8259.74
806.599	8384.7
806.988	8433.06
807.377	8546.04
807.766	8679.25
808.155	8978.31
808.544	8709.57
808.933	8722.66
809.321	8708.22
809.71	9012.26
810.098	9177.29
810.487	9650.57
810.875	10139.75
811.264	10170.98
811.652	10475.59
812.04	10632.7
812.428	10791.6
812.816	11572.68
813.204	12000.64
813.592	12559.92
813.98	12901.03
814.368	12804.81
814.756	13295.35
815.144	13217.24
815.531	13695.18
815.919	13619.95
816.306	13929.33
816.694	13625.17
817.081	13685.69
817.469	14039.81
817.856	14041.62
818.243	14320.2
818.63	14728.86
819.017	14302.39
819.404	14371.19
819.791	14760.12
820.178	15388.26
820.565	15645.56
820.952	16598.03
821.339	16102.27
821.725	16290.56
822.112	15538.06
822.498	15504.6
822.885	15633.88
823.271	15537.2
823.657	15961.48
824.044	15965.69
824.43	16035.27
824.816	16005.27
825.202	15559.12
825.588	16586.63
825.974	16596.17
826.36	17119.4
826.746	17139.81
827.132	17492.51
827.517	17462.44
827.903	16650.28
828.289	16682.68
828.674	15890.69
829.06	15771.19
829.445	16173.9
829.83	16528.96
830.216	17010.95
830.601	17377.43
830.986	16960.53
831.371	16822.07
831.756	17380.2
832.141	16936.38
832.526	16930.7
832.911	17209.16
833.295	17089.85
833.68	17560.81
834.065	16931.63
834.449	16008.11
834.834	15927.36
835.218	15921.96
835.603	16264.05
835.987	16046.2
836.371	16888.17
836.755	16773.77
837.139	17174.41
837.524	17421.71
837.908	17229.46
838.291	17292.3
838.675	17353.51
839.059	17553.76
839.443	17539.21
839.827	17301.68
840.21	17785.39
840.594	17636.17
840.977	17842
841.361	17813.12
841.744	18185.09
842.127	18025.25
842.511	18265.95
842.894	18865.03
843.277	19244.5
843.66	19791.45
844.043	19876.51
844.426	19068.58
844.809	18766.44
845.191	18799.26
845.574	18334.61
845.957	17965.76
846.339	17866.89
846.722	17335.12
847.104	17405.03
847.487	17239.7
847.869	17250.33
848.252	17537.49
848.634	17866.58
849.016	18119.31
849.398	18248.28
849.78	19114.86
850.162	19118.12
850.544	19529.09
850.926	20172.31
851.307	20089.45
851.689	20369.61
852.071	20830.43
852.452	21159.12
852.834	21139.31
853.215	21561.5
853.597	21722.01
853.978	22013.99
854.359	22478.78
854.741	21476.62
855.122	21376.36
855.503	21082.17
855.884	21216.54
856.265	21152.38
856.646	21254.13
857.026	20859.89
857.407	20787.12
857.788	20943.26
858.169	21238.16
858.549	20388.05
858.93	21019.36
859.31	21069.65
859.69	21284.61
860.071	20885.25
860.451	20668.38
860.831	19925.84
861.211	21090.96
861.591	21636.67
861.971	21598.52
862.351	21792.71
862.731	22175.74
863.111	22440.72
863.491	22779.18
863.87	23661.14
864.25	23995.38
864.629	23591.51
865.009	24105.26
865.388	24964.38
865.768	26752.22
866.147	26650.39
866.526	25173.39
866.905	25474.8
867.284	26898.51
867.663	25521.07
868.042	24440.94
868.421	24375.41
868.8	24775.64
869.179	25030.82
869.558	23573.25
869.936	21729.54
870.315	22117.84
870.693	22657.63
871.072	24444.13
871.45	23282.57
871.828	23584.79
872.207	24802.38
872.585	24415.06
872.963	25073.34
873.341	24194.41
873.719	23903.16
874.097	23604.72
874.475	24055.82
874.853	24600.66
875.23	23556.89
875.608	24535.62
875.986	26529.39
876.363	25373.6
876.741	26157.65
877.118	25506.59
877.495	26770.8
877.873	27215.08
878.25	28651.89
878.627	27472.15
879.004	27847.02
879.381	27718.33
879.758	27004.27
880.135	25147.3
880.512	26588.75
880.889	25875.57
881.265	25611.97
881.642	25389.6
882.019	25813.7
882.395	25289.34
882.772	26295.04
883.148	25157.66
883.524	25064.37
883.901	24914.13
884.277	25286.18
884.653	25123.47
885.029	25849.32
885.405	28619.65
885.781	28394.46
886.157	27234.21
886.532	27554.88
886.908	27534.92
887.284	30614.75
887.659	31605.87
888.035	32581.19
888.411	33421.3
888.786	33852.34
889.161	35016.19
889.537	34364.29
889.912	35472.68
890.287	35428.65
890.662	36339.78
891.037	35694.15
891.412	33279.05
891.787	32944.44
892.162	31808.43
892.536	32540.43
892.911	31329.24
893.286	30668.64
893.66	29435.52
894.035	30184.4
894.409	32869.64
894.784	31546.33
895.158	32060.26
895.532	33955.65
895.906	34870.94
896.281	35677.18
896.655	35118.14
897.029	40106.63
897.402	41768.39
897.776	46470.34
898.15	46287.87
898.524	45783.93
898.898	46392.12
899.271	51947.52
899.645	45003.53
900.018	43238.42
900.392	44840.49
900.765	45182.46
901.138	41845.11
901.511	41203.09
901.884	37854.55
902.258	34942.96
902.631	36116.43
903.003	41577.24
903.376	37517.98
903.749	42074.86
904.122	45031.99
904.495	49600.46
904.867	50247.22
905.24	43597.2
905.612	40584.47
905.985	41492.39
906.357	43360.04
906.729	41369.93
907.102	35319.7
907.474	33967.91
907.846	34187.12
908.218	33740.45
908.59	29807.08
908.962	28819.43
909.334	31065.81
909.705	32627.05
910.077	31682.99
910.449	32968.53
910.82	33897.89
911.192	37307.97
911.563	38741.36
911.935	41451.33
912.306	41490.79
912.677	42836.71
913.048	42432.49
913.419	46011.9
913.79	46286.25
914.161	49624.69
914.532	47445.54
914.903	43591.43
915.274	41409.64
915.645	40814.11
916.015	35920.31
916.386	34268.26
916.756	36476.62
917.127	37614.22
917.497	33599.66
917.868	36578.17
918.238	34749.44
918.608	35747.38
918.978	36486.83
919.348	38639.34
919.718	39936.25
920.088	38468.05
920.458	39967.07
920.828	42075.84
921.198	39898.82
921.567	42643.94
921.937	33032.76
922.306	33373.51
922.676	36002.39
923.045	30057.99
923.415	28559.89
923.784	25994.54
924.153	26739.81
924.522	26729.51
924.891	25124.97
925.26	26915.65
925.629	26276.72
925.998	30208.54
926.367	29483.27
926.736	28094.23
927.104	33445.09
927.473	35972.8
927.842	43475.37
928.21	43053.57
928.578	45237.22
928.947	42801.68
929.315	43077.93
929.683	50550.71
930.051	50970.6
930.42	59233.74
930.788	50637.19
931.156	50248.68
931.523	47094.98
931.891	43537.83
932.259	41835.13
932.627	48519.78
932.994	68643.12
933.362	56757.17
933.729	49267.31
934.097	47174.85
934.464	39911.95
934.831	46050.33
935.199	45459.68
935.566	44100.14
935.933	44643.46
936.3	54118.19
936.667	42134.3
937.034	38060.95
937.401	37622.19
937.767	32503.52
938.134	28921.59
938.501	40807.62
938.867	43508.38
939.234	73586.7
939.6	62839.59
939.967	69373.61
940.333	46433.38
940.699	39562.48
941.065	31682.29
941.431	41595.27
941.798	40144.1
942.163	52725.68
942.529	32933.56
942.895	30330.47
943.261	19603.73
943.627	25740.19
943.992	22547.48
944.358	22586.24
944.723	22655.29
945.089	22103.03
945.454	20401.03
945.82	21746.11
946.185	20919.2
946.55	24229.63
946.915	21701.41
947.28	25462.11
947.645	22397.27
948.01	20665.93
948.375	21525.8
948.74	25806.51
949.104	30081.9
949.469	43484.83
949.834	76820.64
950.198	72806.68
950.562	43666.1
950.927	36454.55
951.291	43875.5
951.655	37378.21
952.02	35111.31
952.384	26544.16
952.748	23100.73
953.112	22544.4
953.476	19616.95
953.839	18154.93
954.203	17987.39
954.567	22470.5
954.931	35350.93
955.294	30229.41
955.658	30363.24
956.021	51617.59
956.385	87560.61
956.748	129100.53
957.111	200115.58
957.474	224430.35
957.837	252633.07
958.2	191056.23
958.563	68715.79
958.926	46479.49
959.289	70598.78
959.652	78831.73
960.015	59166.31
960.377	84858.53
960.74	96859.32
961.102	167136.37
961.465	179432.48
961.827	96288.75
962.189	184560.58
962.552	128092.2
962.914	102559.64
963.276	66473.99
963.638	54992.41
964	54389.86
964.362	36799.63
964.724	35563.43
965.085	25362.57
965.447	20772.67
965.809	23606.92
966.17	23638.47
966.532	25563.71
966.893	23456.05
967.255	21352.68
967.616	25215.66
967.977	20196.83
968.338	22046.88
968.699	18123.86
969.061	18126.28
969.421	18251.2
969.782	20498.41
970.143	17322.61
970.504	17939.51
970.865	20416.49
971.225	20863.22
971.586	20383.63
971.946	29057.48
972.307	25212.72
972.667	32919.07
973.027	33883.7
973.388	41075.81
973.748	27926.95
974.108	30421.35
974.468	41138.22
974.828	31687.66
975.188	24394.97
975.548	22412.19
975.907	18828.97
976.267	21116.15
976.627	17752.4
976.986	18418.57
977.346	17582.92
977.705	16901.84
978.064	15378.04
978.424	12797.36
978.783	13224.14
979.142	15089.33
979.501	14453.92
979.86	15279.88
980.219	14733.99
980.578	19002.83
980.937	21257.35
981.296	18914.17
981.654	19454.36
982.013	30291.59
982.371	39358.92
982.73	36757.01
983.088	41621.17
983.447	44452.59
983.805	63504.03
984.163	132789.41
984.521	147597.57
984.879	216441.31
985.237	-352545.92
985.595	340561.66
985.953	84590.84
986.311	48753.67
986.669	28330.58
987.026	24466.6
987.384	32900.09
987.741	34048.65
988.099	24306.78
988.456	19336.27
988.814	18121.2
989.171	15746.87
989.528	15524.06
989.885	16398.19
990.242	13004.63
990.599	16199.09
990.956	13248.35
991.313	9263.42
991.67	7596.94
992.027	8074.76
992.383	7181.94
992.74	6306.97
993.096	6626.91
993.453	6875.2
993.809	7127
994.165	9501.27
994.522	8732.09
994.878	9611.2
995.234	12055.95
995.59	11900.84
995.946	11241.64
996.302	12829.61
996.658	14799.02
997.013	16265.18
997.369	19311.3
997.725	24745.38
998.08	16006.01
998.436	24609.53
998.791	33897.47
999.147	33868.34
999.502	36908.78
999.857	26862.34
1000.212	43877.21
1000.567	62638.43
1000.922	36201.77
1001.277	22932.79
1001.632	17003.79
1001.987	21940.23
1002.342	15720.73
1002.696	12611.51
1003.051	10071.68
1003.406	12206.82
1003.76	12127.38
1004.114	11919.9
1004.469	10000.64
1004.823	8280.24
1005.177	8953.69
1005.531	7085.43
1005.885	6275.58
1006.239	7097.25
1006.593	8912.33
1006.947	11931.23
1007.301	8933.7
1007.655	9746.64
1008.008	7171.9
1008.362	8076.43
1008.715	11526.78
1009.069	10474.28
1009.422	15842.55
1009.776	31883.61
1010.129	21130.62
1010.482	17644.8
1010.835	14889.82
1011.188	31108.99
1011.541	29238.81
1011.894	-178407.99
1012.247	523836.94
1012.6	35685.47
1012.952	22498.42
1013.305	11573.12
1013.657	8314.16
1014.01	7895.37
1014.362	6520.37
1014.715	5824.52
1015.067	5065.81
1015.419	4970.62
1015.771	4388.67
1016.123	3906.94
1016.475	4007.94
1016.827	4276.8
1017.179	4590.42
1017.531	4625.39
1017.883	4703.45
1018.234	4545.96
1018.586	5731.01
1018.938	6115.78
1019.289	8417.9
1019.64	9696.49
1019.992	9002.67
1020.343	8250.36
1020.694	6514.83
1021.045	5751.64
1021.396	6572.58
1021.747	7084.41
1022.098	8532.31
1022.449	6193.11
1022.8	5717.7
1023.151	3985.49
1023.501	3547.91
1023.852	3875.11
1024.202	4011.46
1024.553	4403.49
1024.903	4328.89
1025.253	3721.67
1025.604	3349.99
1025.954	4140.32
1026.304	5010.41
1026.654	5834.33
1027.004	8558.23
1027.354	13811.66
1027.703	13026.14
1028.053	17172.09
1028.403	25002.65
1028.753	36040.9
1029.102	48845.2
1029.452	250683.17
1029.801	10786.48
1030.15	6996.69
1030.499	5922.64
897.758	3362.58
901.051	3348.47
904.343	3388.92
907.636	3378.96
910.928	3449.35
914.22	3348.71
917.511	3362.35
920.803	3453.25
924.094	3503.67
927.384	3449.01
930.675	3414.14
933.965	3352.35
937.255	3345.45
940.544	3307.92
943.834	3149.87
947.123	3109.1
950.411	3220.04
953.7	3178.73
956.988	3120.62
960.276	3067.24
963.563	3195.37
966.851	3175.41
970.138	3256.39
973.424	3230.69
976.711	3179.06
979.997	3447.93
983.283	3463.9
986.568	3325.3
989.853	3378.36
993.138	3410.47
996.423	3494.51
999.708	3403.19
1002.992	3526.16
1006.275	3237.9
1009.559	3351.72
1012.842	3495.51
1016.125	3397.62
1019.408	3373.46
1022.69	3506.29
1025.972	3508.08
1029.254	3477.66
1032.536	3363.82
1035.817	3409.32
1039.098	3303.75
1042.379	3590.5
1045.659	3534.8
1048.939	3443.96
1052.219	3488.23
1055.498	3517.94
1058.778	3487.98
1062.057	3476.93
1065.335	3492.98
1068.614	3530.05
1071.892	3493.11
1075.17	3600.73
1078.447	3574.57
1081.724	3559.51
1085.001	3612.55
1088.278	3577.71
1091.554	3601.41
1094.83	3599.43
1098.106	3626.66
1101.382	3694.77
1104.657	3691.82
1107.932	3690.21
1111.206	3633.23
1114.481	3589.58
1117.755	3601.06
1121.029	3559.67
1124.302	3606.52
1127.575	3534.3
1130.848	3506.68
1134.121	3457.11
1137.393	3384.28
1140.665	3468.76
1143.937	3451
1147.208	3340.99
1150.48	3369.84
1153.75	3348.52
1157.021	3423.96
1160.291	3378.22
1163.561	3420.65
1166.831	3444.68
1170.101	3481.44
1173.37	3457.77
1176.639	3375.89
1179.907	3445.74
1183.176	3516.02
1186.444	3515.76
1189.711	3549.75
1192.979	3548.72
1196.246	3508.96
1199.513	3532.95
1202.78	3525.31
1206.046	3528.3
1209.312	3580.89
1212.578	3615.65
1215.843	3545.65
1219.108	3521.34
1222.373	3549.05
1225.638	3494.19
1228.902	3466.1
1232.166	3421.17
1235.43	3394.88
1238.693	3409.4
1241.956	3415.34
1245.219	3442.01
1248.482	3454.61
1251.744	3440.33
1255.006	3637.6
1258.268	3595.56
1261.529	3520.71
1264.79	3542.86
1268.051	3682.34
1271.312	3704.41
1274.572	3660.01
1277.832	3652.16
1281.092	3654.05
1284.351	3594.63
1287.61	3567.1
1290.869	3445.93
1294.128	3399
1297.386	3545.32
1300.644	3525.01
1303.902	3540.29
1307.159	3379.02
1310.416	3438.54
1313.673	3457.08
1316.93	3426.59
1320.186	3500.58
1323.442	3556.94
1326.697	3529.39
1329.953	3542.56
1333.208	3554.52
1336.463	3538.4
1339.717	3464.11
1342.972	3544.72
1346.226	3557.15
1349.479	3464
1352.733	3414.31
1355.986	3458.3
1359.238	3428.62
1362.491	3427.78
1365.743	3433.92
1368.995	3434.72
1372.247	3448.43
1375.498	3459.77
1378.749	3537.15
1382	3468.6
1385.251	3550.04
1388.501	3523.31
1391.751	3488.92
1395	3468.11
1398.25	3510.38
1401.499	3503.07
1404.748	3413.34
1407.996	3314
1411.244	3310.27
1414.492	3283.76
1417.74	3256.8
1420.987	3279.02
1424.234	3329.66
1427.481	3333.56
1430.728	3390.11
1433.974	3364.29
1437.22	3397.7
1440.465	3398.45
1443.711	3414.31
1446.956	3447.94
1450.201	3457.29
1453.445	3506.6
1456.689	3466.3
1459.933	3486.42
1463.177	3516.7
1466.42	3483.98
1469.663	3461.44
1472.906	3427.03
1476.148	3581.28
1479.391	3446.65
1482.633	3436.86
1485.874	3433.07
1489.115	3393.45
1492.356	3426.91
1495.597	3393.46
1498.838	3405.34
1502.078	3349.41
1505.318	3263.58
1508.557	3322.94
1511.797	3226.32
1515.036	3423.57
1518.274	3402.88
1521.513	3389.68
1524.751	3424.22
1527.989	3423.12
1531.227	3428.62
1534.464	3394.04
1537.701	3451.47
1540.938	3482.95
1544.174	3439.74
1547.41	3454.71
1550.646	3491.35
1553.882	3512.97
1557.117	3564.8
1560.352	3591.76
1563.587	3543.14
1566.821	3488.99
1570.055	3554.85
1573.289	3510.43
1576.523	3616.54
1579.756	3611.07
1582.989	3625.29
1586.222	3582.93
1589.454	3636.64
1592.686	3597.6
1595.918	3620.76
1599.15	3595.72
1602.381	3710.64
1605.612	3627.4
1608.843	3735.38
1612.073	3630.36
1615.303	3609.68
1618.533	3587.61
1621.762	3597.5
1624.992	3601.15
1628.221	3565.34
1631.449	3545.24
1634.678	3642.6
1637.906	3583.89
1641.134	3642.37
1644.361	3582.85
1647.588	3563.97
1650.815	3572.3
1654.042	3571.17
1657.269	3614.17
1660.495	3560.83
1663.72	3488.12
1666.946	3482.58
1670.171	3377.88
1673.396	3352.5
1676.621	3355.16
1679.845	3407.61
1683.069	3451.92
1686.293	3517.78
1689.517	3465.7
1692.74	3349.94
1695.963	3367.93
1699.185	3483.47
1702.408	3423.81
1705.63	3483.68
1708.852	3490.46
1712.073	3456.35
1715.294	3420.72
1718.515	3432.86
1721.736	3381.62
1724.956	3328.33
1728.176	3369.84
1731.396	3387.45
1734.616	3388.14
1737.835	3390.05
1741.054	3389.87
1744.272	3388.18
1747.491	3399.07
1750.709	3490.84
1753.927	3396.61
1757.144	3453.17
1760.361	3542.18
1763.578	3550.67
1766.795	3478.09
1770.011	3499.33
1773.227	3568.09
1776.443	3595.17
1779.658	3639.15
1782.874	3583.68
1786.089	3544.64
1789.303	3551.13
1792.518	3562.82
1795.732	3551.73
1798.945	3552.71
1802.159	3616.85
1805.372	3466.51
1808.585	3433.53
1811.797	3441.13
1815.01	3528.57
1818.222	3533.6
1821.434	3386.37
1824.645	3504.64
1827.856	3455.32
1831.067	3512.44
1834.278	3419.46
1837.488	3411.54
1840.698	3605.16
1843.908	3499.48
1847.117	3455.25
1850.326	3270.09
1853.535	3416.56
1856.744	3566.34
1859.952	3435.47
1863.16	3435.05
1866.368	3454.85
1869.575	3630.58
1872.782	3499.26
1875.989	3442.65
1879.196	3580.72
1882.402	3574.71
1885.608	3628.14
1888.814	3480.37
1892.019	3345.68
1895.224	3398.72
1898.429	3393.28
1901.634	3361.71
1904.838	3347.87
1908.042	3387.61
1911.246	3384.84
1914.449	3268.68
1917.652	3286.4
1920.855	3272.22
1924.058	3352.91
1927.26	3380.05
1930.462	3417.77
1933.664	3433.45
1936.865	3359.18
1940.066	3350.09
1943.267	3304.41
1946.467	3330.1
1949.668	3370.37
1952.868	3436.77
1956.067	3391.86
1959.267	3309.2
1962.466	3345.04
1965.665	3332.92
1968.863	3330.63
1972.061	3370.16
1975.259	3376.71
1978.457	3465.18
1981.654	3415.53
1984.852	3415.5
1988.048	3315.09
1991.245	3338.88
1994.441	3428.83
1997.637	3446
2000.833	3425.96
2004.028	3475.2
2007.223	3515.7
2010.418	3476.93
2013.613	3443.4
2016.807	3379.81
2020.001	3408.55
2023.194	3486.56
2026.388	3446.6
2029.581	3396.98
2032.774	3429.16
2035.966	3426.97
2039.158	3334.01
2042.35	3373.69
2045.542	3296.03
2048.733	3437.52
2051.924	3500.54
2055.115	3544.37
2058.306	3452.17
2061.496	3523.83
2064.686	3607.53
2067.875	3527.6
2071.065	3560.75
2074.254	3597.85
2077.442	3546.46
2080.631	3653.55
2083.819	3477.2
2087.007	3441.91
2090.195	3393.23
2093.382	3459.81
2096.569	3433.32
2099.756	3366.61
2102.942	3364.96
2106.128	3356.09
2109.314	3357.86
2112.5	3285.84
2115.685	3270.58
2118.87	3285.63
2122.055	3364.47
2125.239	3306.14
2128.424	3254.44
2131.608	3427.48
2134.791	3407.53
2137.974	3498.3
2141.157	3477.36
2144.34	3398.13
2147.523	3405.54
2150.705	3400.36
2153.887	3397.55
2157.068	3310.32
2160.25	3344.29
2163.431	3409.93
2166.611	3313.08
2169.792	3327.87
2172.972	3191.11
2176.152	3315.35
2179.331	3361.51
2182.511	3354.62
2185.69	3390.57
2188.868	3377.13
2192.047	3465.19
2195.225	3420.05
2198.403	3365.53
2201.58	3371.98
2204.758	3370
2207.935	3474.32
2211.111	3315.83
2214.288	3293.45
2217.464	3344.32
2220.64	3324.73
2223.815	3389.46
2226.991	3292.92
2230.166	3319.72
2233.34	3332.67
2236.515	3369.37
2239.689	3466.45
2242.863	3392.73
2246.036	3461.28
2249.209	3488.94
2252.382	3544.48
2255.555	3516.97
2258.727	3428.63
2261.9	3481.6
2265.071	3472.31
2268.243	3482.87
2271.414	3391.35
2274.585	3318.37
2277.756	3400.07
2280.926	3350.54
2284.096	3407.32
2287.266	3278.31
2290.436	3349.72
2293.605	3394.99
2296.774	3415.6
2299.942	3461.82
2303.111	3478.07
2306.279	3519.39
2309.447	3510.9
2312.614	3494.28
2315.781	3508.31
2318.948	3462.13
2322.115	3507.73
2325.281	3402.47
2328.447	3441.68
2331.613	3421.02
2334.779	3364.8
2337.944	3382.21
2341.109	3375.81
2344.274	3347.87
2347.438	3302.52
2350.602	3339.84
2353.766	3362.16
2356.929	3342.89
2360.092	3392.79
2363.255	3315.33
2366.418	3200.48
2369.58	3387.04
2372.742	3035.64
2375.904	3077.49
2379.066	3035.87
2382.227	3087.06
2385.388	3045.81
2388.548	2940.57
2391.709	3016.87
2394.869	2983.53
2398.029	3146.08
2401.188	3187.82
2404.347	3074.27
2407.506	3312.68
2410.665	3335.63
2413.823	3367.96
2416.981	3294.05
2420.139	3344.71
2423.296	3410.24
2426.453	3384.47
2429.61	3414.06
2432.767	3296.71
2435.923	3354.46
2439.079	3215.21
2442.235	3311.4
2445.391	3212.52
2448.546	3219.57
2451.701	3298.58
2454.855	3230.47
2458.009	3319.4
2461.163	3338.03
2464.317	3275.49
2467.471	3321.78
2470.624	3358.35
2473.777	3426.88
2476.929	3413.46
2480.082	3442.06
2483.234	3410.67
2486.385	3259.56
2489.537	3266.29
2492.688	3182.72
2495.839	3202.65
2498.989	3205.64
2502.14	3183.14
2505.29	3148.6
2508.439	3180.32
2511.589	3075.07
2514.738	3106.67
2517.887	3134.75
2521.035	3310.86
2524.183	3304.71
2527.331	3272.74
2530.479	3219.19
2533.627	3242.24
