Data from N_3_DIV_WI_4N_Splice17_12-58-00-181.txt Node
Date: Sat Mar 14 12:58:00 EDT 2020
User: sa697716
Spectrometer: FLMS03696
Trigger mode: 0
Integration Time (sec): 3.180400E-1
Scans to average: 20
Electric dark correction enabled: true
Nonlinearity correction enabled: true
Boxcar width: 5
XAxis mode: Wavelengths
Number of Pixels in Spectrum: 2048
>>>>>Begin Spectral Data<<<<<
187.83	-325009.55
188.298	2481.88
188.766	1299.44
189.233	1106.33
189.701	1561.74
190.169	2183.68
190.636	796.95
191.104	617.1
191.571	54.53
192.039	-111.4
192.506	-176.94
192.974	392.72
193.441	-687.41
193.908	-277.03
194.375	-92.69
194.842	-60.67
195.31	-20.78
195.777	106.77
196.244	321.21
196.711	332.79
197.177	414.77
197.644	553.41
198.111	986.56
198.578	1413.19
199.045	1152.53
199.511	1818.44
199.978	2132.74
200.445	1845.75
200.911	2060.4
201.378	2250.39
201.844	2055.52
202.31	3474.89
202.777	3651.27
203.243	2042.86
203.709	1945.59
204.176	2316.23
204.642	1934.74
205.108	1811
205.574	1466.81
206.04	1319.18
206.506	1251.54
206.972	1181.15
207.438	1147.68
207.903	1302.55
208.369	1141.2
208.835	1147.6
209.301	1195.35
209.766	1229.3
210.232	1237.14
210.697	1539.22
211.163	1905.47
211.628	2872.22
212.094	2472.87
212.559	3120.65
213.024	1965.89
213.49	2424.5
213.955	2386.39
214.42	2364.5
214.885	2233.81
215.35	2156.86
215.815	2140.48
216.28	2329.53
216.745	1943.93
217.21	2146.84
217.675	2019.25
218.14	2374.59
218.604	2763.49
219.069	3294.53
219.534	3586.83
219.998	4299.82
220.463	5365.3
220.927	6780.48
221.392	6503.5
221.856	6697.68
222.32	8567.45
222.785	10694.94
223.249	13610.56
223.713	15316.61
224.177	15438.29
224.642	19919.34
225.106	24690.37
225.57	27160.32
226.034	20311.78
226.497	31096.58
226.961	28235.35
227.425	33085.59
227.889	36872.12
228.353	37034.15
228.816	76769.7
229.28	73526.96
229.744	62274.05
230.207	37916.6
230.671	37387.28
231.134	62064.98
231.597	71682.46
232.061	71787.91
232.524	70083.46
232.987	48431.07
233.45	43665.94
233.914	39264.66
234.377	40372.76
234.84	37025.38
235.303	43779.75
235.766	49005.27
236.229	50676.43
236.691	31996.1
237.154	36028.79
237.617	27173.72
238.08	27865.07
238.542	32688.06
239.005	23402.76
239.468	23282.68
239.93	21982.46
240.393	19981.47
240.855	17537.48
241.317	18005.94
241.78	21940.31
242.242	22707.91
242.704	24534.05
243.166	21403.88
243.629	19448.09
244.091	22440.12
244.553	24646.94
245.015	26528.32
245.477	34436.53
245.939	50597.33
246.4	53779.63
246.862	52442.67
247.324	49587.86
247.786	55656.27
248.247	73110.43
248.709	75734.67
249.17	56795.05
249.632	53578.69
250.093	62244.26
250.555	53869.71
251.016	32950.02
251.477	31323.13
251.939	33872.15
252.4	35615.88
252.861	42447.93
253.322	39567.6
253.783	47221.46
254.244	61347.2
254.705	48517
255.166	43252.47
255.627	42673.82
256.088	60269.72
256.549	64162.72
257.009	55364.47
257.47	67299.58
257.931	54890.02
258.391	41225.92
258.852	42534.55
259.312	44744.33
259.773	55355.46
260.233	46839.58
260.694	39553.93
261.154	44996.47
261.614	36163.01
262.074	32412.41
262.534	33750.64
262.994	31879.92
263.455	42601.84
263.915	35954.45
264.374	33927.3
264.834	37123.11
265.294	41273.55
265.754	42852.38
266.214	40603.47
266.673	38106.01
267.133	48169.43
267.593	47881.16
268.052	58660.5
268.512	51050.16
268.971	61584.65
269.431	67508.17
269.89	60516.93
270.349	90781.05
270.809	101176.48
271.268	91019.04
271.727	204475.47
272.186	132490.36
272.645	99342.76
273.104	71759.04
273.563	103939.54
274.022	81882.64
274.481	69666.9
274.94	53637.79
275.399	39868.04
275.857	46484.8
276.316	62947.99
276.775	56007.81
277.233	55135.1
277.692	51625.12
278.15	58349.72
278.609	60009.77
279.067	55557.62
279.525	51637.98
279.984	66705.07
280.442	80116.47
280.9	78920.26
281.358	51861.68
281.816	48276.19
282.274	47245.76
282.732	48795.45
283.19	49017.64
283.648	42276.84
284.106	44984.87
284.564	45724.33
285.021	42394.23
285.479	31587.61
285.937	28753.33
286.394	25219.56
286.852	25980.98
287.309	27318.88
287.767	26386.86
288.224	25127.13
288.682	27609.81
289.139	30315.85
289.596	27772.99
290.053	28913.28
290.511	36572.92
290.968	44433.8
291.425	60436.05
291.882	50334.76
292.339	43905.38
292.796	43666.49
293.252	41201.47
293.709	32732.88
294.166	29394.42
294.623	32517.42
295.079	31207.34
295.536	31339.6
295.992	28443.48
296.449	28130.33
296.905	29225.63
297.362	28000.73
297.818	29458.66
298.274	30551.12
298.731	31141.33
299.187	30836.09
299.643	33114.15
300.099	40073.66
300.555	43928.02
301.011	36697.29
301.467	35332.9
301.923	41421.08
302.379	40447.68
302.835	39721.93
303.291	39757.1
303.746	45280.91
304.202	57155.25
304.658	57387.38
305.113	38559.52
305.569	37791.84
306.024	40282.84
306.479	38369.79
306.935	32279.83
307.39	35256.66
307.845	32524.35
308.301	32699.16
308.756	31846.9
309.211	30641.32
309.666	31381.55
310.121	38884.87
310.576	39471.52
311.031	39174.92
311.486	44832.72
311.94	44848.43
312.395	59891.05
312.85	112467.68
313.305	552967.47
313.759	2856061.11
314.214	206922.48
314.668	163970.55
315.123	137951.84
315.577	49404.58
316.032	43893.04
316.486	55070.97
316.94	43409.46
317.394	30241.01
317.849	23516.87
318.303	22296.53
318.757	21086.26
319.211	23350.18
319.665	20454.07
320.119	20738.22
320.572	29785
321.026	27852.51
321.48	23179.18
321.934	25325.83
322.387	25400.13
322.841	27471.91
323.295	24639.11
323.748	28399.08
324.202	28759.98
324.655	34513.45
325.108	48134.04
325.562	34007.77
326.015	40423.01
326.468	30574.73
326.921	34179.81
327.374	31860.58
327.827	33167.13
328.28	37574.09
328.733	25148.22
329.186	22140.1
329.639	21096.52
330.092	17789.68
330.545	16934.73
330.997	17078.42
331.45	18631.84
331.903	21807.45
332.355	37514.57
332.808	36424.42
333.26	30050.34
333.713	32594.11
334.165	32825.47
334.617	43820.77
335.069	35475.24
335.522	64096.12
335.974	70919.62
336.426	64812.75
336.878	44930.28
337.33	22762.86
337.782	22226.77
338.234	27823.26
338.686	33340.61
339.137	39478.01
339.589	37220.65
340.041	29168.19
340.493	25114.27
340.944	25740.66
341.396	27731.36
341.847	23317.42
342.299	27566.11
342.75	33676.81
343.201	29495.34
343.653	33976.05
344.104	41856.44
344.555	32985.4
345.006	51437.43
345.457	39373.94
345.908	31336.34
346.359	29503.34
346.81	24062.83
347.261	25402.89
347.712	25036.02
348.163	26854.18
348.613	27154.03
349.064	25361.83
349.515	22213.45
349.965	22763.49
350.416	27448.04
350.866	30111.52
351.317	34085.21
351.767	56471.96
352.217	71351.93
352.668	59238.17
353.118	54312.94
353.568	52433.36
354.018	41453.62
354.468	43665.22
354.918	31348.27
355.368	27401.21
355.818	38764.95
356.268	111629.03
356.718	466275.39
357.168	115856.96
357.617	58187.48
358.067	64766.3
358.517	60633.87
358.966	71017.29
359.416	79613.03
359.865	86131.65
360.315	102774.83
360.764	47947.68
361.213	26834.35
361.663	25479.67
362.112	31499.79
362.561	50869.59
363.01	38312.87
363.459	32289.57
363.908	34962.11
364.357	29668.51
364.806	50079.79
365.255	34388.1
365.703	31490.55
366.152	31561.36
366.601	25581.58
367.05	20735.07
367.498	18808.23
367.947	19654.55
368.395	20434.04
368.844	18084.79
369.292	21852.44
369.74	15086.09
370.189	23088.05
370.637	27059.59
371.085	23342.27
371.533	28413.13
371.981	27448.79
372.429	26116.3
372.877	27206.45
373.325	22747.51
373.773	23190.37
374.221	20648.3
374.669	25585.23
375.116	22143.01
375.564	22295.35
376.012	24907.86
376.459	20503.96
376.907	24444.07
377.354	29604.81
377.801	27565.04
378.249	31658.37
378.696	40440.84
379.143	48858.66
379.591	52065.51
380.038	87950.11
380.485	63506.31
380.932	68472.3
381.379	62534.73
381.826	45915.31
382.273	32596.4
382.72	28463.94
383.166	27701.23
383.613	17925.14
384.06	16158.53
384.506	18658.63
384.953	13688.61
385.4	13768.03
385.846	12048.22
386.292	11731.21
386.739	11474.03
387.185	11334.36
387.631	11318.29
388.078	10947.81
388.524	11692.7
388.97	10761.38
389.416	8966.65
389.862	9520.06
390.308	8996.92
390.754	9107.37
391.2	9860.55
391.645	10080.81
392.091	9600.21
392.537	9258.68
392.983	9261.89
393.428	9070.74
393.874	9708.1
394.319	9704.99
394.765	9155.07
395.21	9390.81
395.655	8797.56
396.101	8222.63
396.546	7405.95
396.991	7467.79
397.436	6928.47
397.881	6686.05
398.326	6333.8
398.771	5984.89
399.216	5230.85
399.661	4710.84
400.106	4687.24
400.551	4787.28
400.995	4295.8
401.44	4250.2
401.885	3991.18
402.329	4029.99
402.774	3860.12
403.218	3731.07
403.663	3591.75
404.107	3684.1
404.551	3709.5
404.995	3398.97
405.44	3272.17
405.884	3320.13
406.328	3206.48
406.772	3193.91
407.216	2899.82
407.66	2799.3
408.104	2655.58
408.547	2479.38
408.991	2400.29
409.435	2307.59
409.879	2270.78
410.322	2239.24
410.766	2157.76
411.209	2047.62
411.653	1962.28
412.096	1920.27
412.54	1918.02
412.983	1901.04
413.426	1905.43
413.869	1901.24
414.312	1860.32
414.756	1792.9
415.199	1707.99
415.642	1657.12
416.085	1657.54
416.527	1645.17
416.97	1670.92
417.413	1585.74
417.856	1571.76
418.298	1558.02
418.741	1549.17
419.184	1547.16
419.626	1612.81
420.069	1613.9
420.511	1619.46
420.953	1583.71
421.396	1569.49
421.838	1528.94
422.28	1562.97
422.722	1568.63
423.164	1587.21
423.606	1558.37
424.048	1556.04
424.49	1477.16
424.932	1469.42
425.374	1449.26
425.816	1475.06
426.258	1504.63
426.699	1522.71
427.141	1500.97
427.582	1525.57
428.024	1515.35
428.465	1501.62
428.907	1459.56
429.348	1439.52
429.789	1433.03
430.231	1401.26
430.672	1418.35
431.113	1379.45
431.554	1350.94
431.995	1311.56
432.436	1258.26
432.877	1227.45
433.318	1203.91
433.759	1196.22
434.2	1194.54
434.64	1181.14
435.081	1181.78
435.522	1117.65
435.962	1076.13
436.403	1054.04
436.843	1067.05
437.284	1044.51
437.724	1016.61
438.164	1020.52
438.604	999.03
439.045	958.42
439.485	916.26
439.925	895.92
440.365	871.44
440.805	857.9
441.245	846.7
441.685	816.71
442.125	809.61
442.564	813.46
443.004	792.29
443.444	789.58
443.883	791.5
444.323	786.71
444.762	787.03
445.202	795.8
445.641	809.14
446.081	803.63
446.52	808.23
446.959	799.73
447.398	779.13
447.837	770.41
448.276	756.63
448.716	762.2
449.154	768.27
449.593	750.98
450.032	749.25
450.471	734.94
450.91	734.72
451.349	732.55
451.787	729.38
452.226	740.12
452.664	741.17
453.103	742.13
453.541	740.31
453.98	742.31
454.418	747.56
454.856	736.68
455.295	735.87
455.733	741.79
456.171	746.61
456.609	746.19
457.047	747.29
457.485	758.11
457.923	760.05
458.361	749.17
458.798	749.08
459.236	746.9
459.674	750.4
460.111	754.04
460.549	745.45
460.987	742.53
461.424	740.27
461.862	735.48
462.299	722.93
462.736	720.83
463.173	723.55
463.611	714.83
464.048	712.92
464.485	718.14
464.922	711.1
465.359	707.56
465.796	697.89
466.233	692.57
466.67	685.85
467.106	684.2
467.543	677.23
467.98	669.22
468.416	653.44
468.853	647.43
469.29	628.71
469.726	621.98
470.162	606.88
470.599	599.47
471.035	593.53
471.471	580
471.907	576.19
472.344	573
472.78	575.43
473.216	583.33
473.652	577.25
474.088	576.37
474.523	574.98
474.959	580.27
475.395	575.04
475.831	573.69
476.266	576.33
476.702	574.96
477.138	568.36
477.573	565.94
478.008	562.72
478.444	565.28
478.879	570.61
479.314	573.51
479.75	573.38
480.185	575.8
480.62	581.2
481.055	585.37
481.49	590.62
481.925	600.73
482.36	611.71
482.795	629.94
483.229	646.99
483.664	660.6
484.099	663.03
484.534	673.15
484.968	680.35
485.403	681.4
485.837	680.18
486.271	678.77
486.706	679.83
487.14	673.06
487.574	662.41
488.009	658.24
488.443	653.35
488.877	660.83
489.311	663.89
489.745	671.66
490.179	678.15
490.613	691.08
491.046	697.06
491.48	702.58
491.914	703.12
492.348	708.01
492.781	710.68
493.215	712.33
493.648	712.85
494.082	717.3
494.515	717.28
494.948	725.64
495.382	730.25
495.815	735.47
496.248	740.99
496.681	754.14
497.114	766.1
497.547	777.13
497.98	790.44
498.413	797.55
498.846	809.37
499.279	818.77
499.711	823.85
500.144	827.68
500.577	838.22
501.009	848.3
501.442	858.23
501.874	859.89
502.306	861.19
502.739	869.02
503.171	884
503.603	886.09
504.036	896.2
504.468	901.25
504.9	911.72
505.332	917.75
505.764	921.38
506.196	927.62
506.627	941.57
507.059	955.58
507.491	963.26
507.923	958.85
508.354	972.81
508.786	982.13
509.217	998.85
509.649	1011.81
510.08	1029.33
510.512	1044.64
510.943	1056.94
511.374	1064.86
511.805	1081.61
512.237	1097.78
512.668	1127.74
513.099	1149.82
513.53	1172.68
513.961	1187.75
514.391	1213.82
514.822	1241.52
515.253	1272.62
515.684	1292.91
516.114	1317.38
516.545	1332.42
516.975	1353.13
517.406	1365.99
517.836	1365.29
518.267	1367.18
518.697	1381.49
519.127	1382.31
519.558	1384.29
519.988	1381.71
520.418	1387.67
520.848	1399.41
521.278	1403.9
521.708	1407.48
522.138	1414.19
522.567	1438.05
522.997	1456.65
523.427	1465.53
523.857	1476.95
524.286	1482.73
524.716	1493.29
525.145	1506.49
525.575	1512.36
526.004	1521.19
526.433	1518.58
526.863	1515.35
527.292	1503.52
527.721	1505.29
528.15	1508.92
528.579	1506.67
529.008	1513.28
529.437	1530.41
529.866	1540.71
530.295	1553.57
530.724	1563.67
531.152	1584.68
531.581	1595.21
532.01	1608.38
532.438	1613.91
532.867	1623.45
533.295	1637.87
533.723	1641.88
534.152	1639.54
534.58	1637.45
535.008	1622.86
535.436	1622.69
535.865	1629.15
536.293	1641.45
536.721	1654.91
537.149	1676.71
537.576	1679.27
538.004	1688.99
538.432	1694.28
538.86	1691.05
539.287	1696.13
539.715	1707.6
540.143	1708.85
540.57	1705.13
540.998	1700.1
541.425	1679
541.852	1659.94
542.28	1657.32
542.707	1641.99
543.134	1629.4
543.561	1625.16
543.988	1618.34
544.415	1616.68
544.842	1611.1
545.269	1604.04
545.696	1606.25
546.123	1617.08
546.549	1607.82
546.976	1595.52
547.403	1596.28
547.829	1598.56
548.256	1600.99
548.682	1597.08
549.108	1591.24
549.535	1591.32
549.961	1593.05
550.387	1581.58
550.813	1577.82
551.24	1583.53
551.666	1585.06
552.092	1576.03
552.518	1569.98
552.943	1564.47
553.369	1572.03
553.795	1577.76
554.221	1579.22
554.646	1577.39
555.072	1587.48
555.498	1591.9
555.923	1600.06
556.349	1614.05
556.774	1623.63
557.199	1626.22
557.625	1632.81
558.05	1629.47
558.475	1639.23
558.9	1639.89
559.325	1634.43
559.75	1631.3
560.175	1626.55
560.6	1623.07
561.025	1622.43
561.449	1624.13
561.874	1629.95
562.299	1636.09
562.723	1643.74
563.148	1638.38
563.572	1644.69
563.997	1655.38
564.421	1661.99
564.846	1665.14
565.27	1670.47
565.694	1672.48
566.118	1686.57
566.542	1697.78
566.966	1695.01
567.39	1693.21
567.814	1683.81
568.238	1684.53
568.662	1692.69
569.086	1697.54
569.509	1706.96
569.933	1695.47
570.357	1690.75
570.78	1673.17
571.204	1663.04
571.627	1655.46
572.05	1657.36
572.474	1661
572.897	1652.38
573.32	1647.52
573.743	1641.03
574.166	1626.61
574.589	1629.87
575.012	1625.37
575.435	1627.6
575.858	1621.69
576.281	1614.54
576.704	1601.36
577.126	1591.89
577.549	1584.45
577.972	1577.31
578.394	1569.16
578.817	1565.12
579.239	1549.07
579.661	1538.36
580.084	1525.43
580.506	1516.06
580.928	1514.41
581.35	1505.7
581.772	1504
582.194	1492.69
582.616	1481.61
583.038	1469.18
583.46	1461.31
583.882	1459.34
584.303	1464.82
584.725	1462.12
585.147	1463.83
585.568	1474.38
585.99	1487.53
586.411	1493.2
586.833	1508.35
587.254	1510.69
587.675	1526.27
588.096	1539.2
588.518	1535.39
588.939	1520.46
589.36	1519.02
589.781	1510.28
590.202	1483.9
590.623	1476.17
591.043	1475.25
591.464	1464.2
591.885	1462.04
592.305	1457.13
592.726	1443.45
593.147	1447.05
593.567	1442.29
593.987	1435.3
594.408	1431.06
594.828	1429.55
595.248	1425.1
595.669	1408.68
596.089	1401.87
596.509	1396.15
596.929	1383.88
597.349	1385.86
597.769	1375.79
598.189	1371.06
598.608	1374.23
599.028	1376.99
599.448	1377.95
599.867	1365.64
600.287	1362.55
600.706	1359.08
601.126	1350.41
601.545	1350.54
601.965	1349.35
602.384	1345.07
602.803	1348.55
603.222	1344.11
603.641	1337.6
604.061	1334.6
604.48	1331.89
604.898	1340.11
605.317	1346.72
605.736	1349.27
606.155	1347.13
606.574	1339.68
606.992	1346.5
607.411	1343.2
607.829	1341.44
608.248	1341
608.666	1339.52
609.085	1340.59
609.503	1333.7
609.921	1329.37
610.339	1333.65
610.758	1334.13
611.176	1331.12
611.594	1323.08
612.012	1320.78
612.43	1320.17
612.847	1327.2
613.265	1329.84
613.683	1335.64
614.101	1339.37
614.518	1336.44
614.936	1327.63
615.353	1314.52
615.771	1312.17
616.188	1313.6
616.606	1310.1
617.023	1304.47
617.44	1291.57
617.857	1285.99
618.274	1277.26
618.691	1271.16
619.108	1262.48
619.525	1257.07
619.942	1264.24
620.359	1268
620.776	1263.63
621.192	1261.82
621.609	1260.15
622.026	1267.15
622.442	1273.61
622.859	1277.89
623.275	1269.93
623.691	1276.5
624.108	1288.36
624.524	1302.64
624.94	1302.9
625.356	1312.89
625.772	1325.59
626.188	1337.38
626.604	1338.94
627.02	1335.1
627.436	1332.9
627.852	1340.38
628.268	1351.59
628.683	1342.48
629.099	1333.58
629.514	1328.49
629.93	1331.97
630.345	1336.51
630.761	1332.92
631.176	1335.77
631.591	1330.37
632.007	1325.2
632.422	1323.93
632.837	1312.48
633.252	1310.13
633.667	1300.14
634.082	1292.08
634.497	1280.06
634.911	1260.39
635.326	1257.18
635.741	1241.61
636.155	1230.67
636.57	1232.8
636.984	1233.03
637.399	1236.36
637.813	1235.46
638.228	1235.67
638.642	1240.5
639.056	1230.55
639.47	1231.65
639.884	1224.06
640.298	1218.46
640.712	1218.28
641.126	1205.29
641.54	1196.45
641.954	1191.3
642.368	1180.95
642.781	1172.57
643.195	1153.97
643.609	1155.87
644.022	1150.22
644.436	1145.47
644.849	1133.11
645.262	1120.72
645.676	1124.11
646.089	1119.55
646.502	1104.97
646.915	1100.4
647.328	1085.83
647.741	1085.11
648.154	1072.14
648.567	1071.57
648.98	1058.96
649.393	1059.07
649.805	1058.44
650.218	1049.27
650.631	1033.84
651.043	1027.83
651.456	1021.89
651.868	1021.43
652.28	1040.22
652.693	1054.52
653.105	1060.65
653.517	1070.29
653.929	1072.78
654.341	1078.62
654.753	1067.56
655.165	1075.65
655.577	1073.04
655.989	1068.78
656.401	1062.24
656.813	1024.3
657.224	1003.15
657.636	974.17
658.047	957.05
658.459	936
658.87	927.27
659.282	916.37
659.693	893.88
660.104	878.82
660.515	865.02
660.926	863.06
661.338	860.94
661.749	854.18
662.159	844.33
662.57	839.05
662.981	835.64
663.392	826.01
663.803	828.18
664.213	826.41
664.624	821.92
665.035	824.43
665.445	808.89
665.855	800.52
666.266	792.49
666.676	789.19
667.086	778.63
667.497	775.49
667.907	769.26
668.317	759.31
668.727	755.13
669.137	754.62
669.547	751.09
669.956	752.84
670.366	752.99
670.776	753.08
671.186	755.59
671.595	757.59
672.005	758.91
672.414	756.68
672.824	754.3
673.233	757.19
673.642	759.4
674.052	760.36
674.461	761.1
674.87	763.97
675.279	760.51
675.688	761.62
676.097	763.32
676.506	760.49
676.915	773.6
677.323	775.86
677.732	772.51
678.141	770.64
678.549	759.89
678.958	759.59
679.366	759.64
679.775	764.62
680.183	773.8
680.592	779.35
681	785.7
681.408	780.16
681.816	788.06
682.224	797.51
682.632	808.35
683.04	839.27
683.448	864.37
683.856	895.43
684.264	931.89
684.671	966.54
685.079	1007.4
685.487	1053.02
685.894	1116.03
686.302	1167.98
686.709	1210.73
687.116	1259.74
687.524	1298.93
687.931	1332.3
688.338	1360.36
688.745	1382.1
689.152	1406.64
689.559	1442.85
689.966	1476.34
690.373	1488.75
690.78	1518.26
691.187	1568.35
691.593	1602.65
692	1630.43
692.407	1675.98
692.813	1733.73
693.22	1776.26
693.626	1819.83
694.032	1850.27
694.439	1905.15
694.845	1941.97
695.251	1995.03
695.657	2041.26
696.063	2113.93
696.469	2163.92
696.875	2209.04
697.281	2226.19
697.687	2251.46
698.093	2267.5
698.498	2318.49
698.904	2351.31
699.31	2411.19
699.715	2448.62
700.12	2507.64
700.526	2508.69
700.931	2552.64
701.337	2581.57
701.742	2595.49
702.147	2651.16
702.552	2665.14
702.957	2700.25
703.362	2703.76
703.767	2715.99
704.172	2736.12
704.577	2686.99
704.981	2712.15
705.386	2713.83
705.791	2696.03
706.195	2743.82
706.6	2740.45
707.004	2792.34
707.408	2756.52
707.813	2768.9
708.217	2748.53
708.621	2740.14
709.025	2806.36
709.43	2799.73
709.834	2837.21
710.237	2881.31
710.641	2861.48
711.045	2870.77
711.449	2857.83
711.853	2872.1
712.256	2896.96
712.66	2918.81
713.064	2967.49
713.467	2991.71
713.87	3067.95
714.274	3094.6
714.677	3168.21
715.08	3281.79
715.484	3398.64
715.887	3543.7
716.29	3683.29
716.693	3826.41
717.096	3991.6
717.499	4079.61
717.901	4088.85
718.304	4099.74
718.707	4108.37
719.109	4027.85
719.512	3995.42
719.915	3888.53
720.317	3839.51
720.719	3864.6
721.122	3838.08
721.524	3796.17
721.926	3762.22
722.328	3826.81
722.731	3811.49
723.133	3825.62
723.535	3956.07
723.937	3966.76
724.338	3998.84
724.74	4021.72
725.142	3993.9
725.544	3987.25
725.945	4010.69
726.347	4001.17
726.748	3993.07
727.15	4000.2
727.551	3971.91
727.952	3947.65
728.354	3922.89
728.755	3919.38
729.156	3886.73
729.557	3851.56
729.958	3761.02
730.359	3712.64
730.76	3697.02
731.161	3653.83
731.562	3633.86
731.962	3632.3
732.363	3586.69
732.763	3538.55
733.164	3561.91
733.564	3511.65
733.965	3443.7
734.365	3417.88
734.766	3434.02
735.166	3406.11
735.566	3366.5
735.966	3346.42
736.366	3340.32
736.766	3297.1
737.166	3319.26
737.566	3288.86
737.966	3270.11
738.365	3298.4
738.765	3296.32
739.165	3244.74
739.564	3224.53
739.964	3254.05
740.363	3220.3
740.763	3216.68
741.162	3207.94
741.561	3183.31
741.96	3151.06
742.36	3164.98
742.759	3165.8
743.158	3189.57
743.557	3197.62
743.955	3225.63
744.354	3192.31
744.753	3233.21
745.152	3207.54
745.55	3243.21
745.949	3239.05
746.348	3238.14
746.746	3247.61
747.144	3220.4
747.543	3203.71
747.941	3236.59
748.339	3187.52
748.737	3182.39
749.136	3176.1
749.534	3217.53
749.932	3200.46
750.33	3218.12
750.727	3257.61
751.125	3241.48
751.523	3230.33
751.921	3261.45
752.318	3239.69
752.716	3280.9
753.113	3289.75
753.511	3305.47
753.908	3306.93
754.305	3296.29
754.703	3338.23
755.1	3378.47
755.497	3420.37
755.894	3549.83
756.291	3669.67
756.688	3890.65
757.085	4184.16
757.482	4603.55
757.878	5060.26
758.275	5471.86
758.672	6031.8
759.068	6489.21
759.465	7144.95
759.861	7988.16
760.258	8962.65
760.654	9468.7
761.05	9389.8
761.447	8955.36
761.843	8332.99
762.239	7696.04
762.635	7403.88
763.031	7128.82
763.427	6730.26
763.822	6313.55
764.218	5900.45
764.614	5366.91
765.01	5007.98
765.405	4780
765.801	4606.55
766.196	4383.83
766.592	4258.86
766.987	4046.1
767.382	3903.19
767.778	3842.93
768.173	3755.15
768.568	3708.69
768.963	3624.42
769.358	3636.72
769.753	3604.85
770.148	3550.45
770.542	3549.22
770.937	3528.88
771.332	3594.52
771.726	3608.34
772.121	3568.32
772.515	3607.65
772.91	3597.62
773.304	3647.64
773.699	3603.46
774.093	3639.47
774.487	3676.21
774.881	3708.16
775.275	3706.42
775.669	3674.71
776.063	3702.7
776.457	3726.17
776.851	3674.11
777.245	3669.39
777.638	3692.9
778.032	3769.85
778.425	3748.03
778.819	3781.83
779.212	3755.43
779.606	3726.37
779.999	3741.43
780.392	3732.92
780.786	3789.7
781.179	3804.84
781.572	3834.63
781.965	3842.27
782.358	3805.94
782.751	3842
783.143	3805.11
783.536	3852.96
783.929	3881.11
784.322	3958.28
784.714	3977.25
785.107	3973.86
785.499	4022.23
785.891	4006.02
786.284	3992.23
786.676	4088.76
787.068	4077.94
787.46	4112.89
787.852	4123.26
788.245	4182.07
788.636	4202.9
789.028	4250.38
789.42	4278.63
789.812	4286.48
790.204	4351.58
790.595	4422.93
790.987	4288.49
791.378	4303.77
791.77	4392.05
792.161	4484.88
792.553	4524.99
792.944	4448.34
793.335	4401.1
793.726	4451.4
794.117	4515.93
794.508	4606.59
794.899	4584.12
795.29	4678.81
795.681	4717.52
796.072	4618.85
796.463	4503.27
796.853	4510.23
797.244	4617.38
797.634	4641.3
798.025	4636.23
798.415	4637.09
798.806	4702.12
799.196	4761.54
799.586	4796
799.976	4771.78
800.366	4929.72
800.756	5081.66
801.146	5052.33
801.536	5073.31
801.926	5124.39
802.316	5145.95
802.706	5201.41
803.095	5117.46
803.485	5183.72
803.874	5212.51
804.264	5388.18
804.653	5373.17
805.043	5476.09
805.432	5552.52
805.821	5559.78
806.21	5573.83
806.599	5654.31
806.988	5683.11
807.377	5751.51
807.766	5840.04
808.155	6032.72
808.544	5853.23
808.933	5862.05
809.321	5850.13
809.71	6051.07
810.098	6156.03
810.487	6468.1
810.875	6790.97
811.264	6800.53
811.652	7002.98
812.04	7098.08
812.428	7211.04
812.816	7723.54
813.204	8008.21
813.592	8370.78
813.98	8598.38
814.368	8530.38
814.756	8857.19
815.144	8804.98
815.531	9125.19
815.919	9070.86
816.306	9284.85
816.694	9071.36
817.081	9115.19
817.469	9344.24
817.856	9345.81
818.243	9525.37
818.63	9793.21
819.017	9509.65
819.404	9558.59
819.791	9810.85
820.178	10223.49
820.565	10390.74
820.952	11030.51
821.339	10695.75
821.725	10828.02
822.112	10331.25
822.498	10307.23
822.885	10391.07
823.271	10320.34
823.657	10595.94
824.044	10606.68
824.43	10660.77
824.816	10638.59
825.202	10340.19
825.588	11022.89
825.974	11033.78
826.36	11378.57
826.746	11394.15
827.132	11635.83
827.517	11623.72
827.903	11088.85
828.289	11115.32
828.674	10586.54
829.06	10514.5
829.445	10780.44
829.83	11020.62
830.216	11341.15
830.601	11592.63
830.986	11328.65
831.371	11239.45
831.756	11617.57
832.141	11330.22
832.526	11325.14
832.911	11519.24
833.295	11440.11
833.68	11762.43
834.065	11344.19
834.449	10721.58
834.834	10667.57
835.218	10657.78
835.603	10887.96
835.987	10742.9
836.371	11306.03
836.755	11238.83
837.139	11501.67
837.524	11667.29
837.908	11539.81
838.291	11576.76
838.675	11619.06
839.059	11759.38
839.443	11749.14
839.827	11589.34
840.21	11909.9
840.594	11813.79
840.977	11943.96
841.361	11935.11
841.744	12182.9
842.127	12071.64
842.511	12242.12
842.894	12638.07
843.277	12887.33
843.66	13253.31
844.043	13305.46
844.426	12765.69
844.809	12551.97
845.191	12579.88
845.574	12262.36
845.957	12016.6
846.339	11945.87
846.722	11587.89
847.104	11631.92
847.487	11518.9
847.869	11519.69
848.252	11700.43
848.634	11922.02
849.016	12095.74
849.398	12169.5
849.78	12748.54
850.162	12752.85
850.544	13035.08
850.926	13450.86
851.307	13396.7
851.689	13585.93
852.071	13885.72
852.452	14110.75
852.834	14086.32
853.215	14346.77
853.597	14450.03
853.978	14644.43
854.359	14943.48
854.741	14269.38
855.122	14201.63
855.503	14011.32
855.884	14094.19
856.265	14058.88
856.646	14132.85
857.026	13875.03
857.407	13839.31
857.788	13942.66
858.169	14130.2
858.549	13570.24
858.93	13995.25
859.31	14032.34
859.69	14174.76
860.071	13906.24
860.451	13757.91
860.831	13262.94
861.211	14039.69
861.591	14399.9
861.971	14386.03
862.351	14513.62
862.731	14771.56
863.111	14944.22
863.491	15167.65
863.87	15753.7
864.25	15979.32
864.629	15715.79
865.009	16057.45
865.388	16625.84
865.768	17808.81
866.147	17740.81
866.526	16763.95
866.905	16954.54
867.284	17902.17
867.663	16985.84
868.042	16262.86
868.421	16213.62
868.8	16474.87
869.179	16630.36
869.558	15659.29
869.936	14440.3
870.315	14693.38
870.693	15050.65
871.072	16225.01
871.45	15449.16
871.828	15651.34
872.207	16468.98
872.585	16224.24
872.963	16676.25
873.341	16106.78
873.719	15916.02
874.097	15718.71
874.475	16008.35
874.853	16373.75
875.23	15698.29
875.608	16361.09
875.986	17705.75
876.363	16921.95
876.741	17432.44
877.118	16990.26
877.495	17825.43
877.873	18119.7
878.25	19067.79
878.627	18293.39
879.004	18540.17
879.381	18452.93
879.758	17970.62
880.135	16718.66
880.512	17680.23
880.889	17203.1
881.265	17015.93
881.642	16868.34
882.019	17145.63
882.395	16804.27
882.772	17481.36
883.148	16716.7
883.524	16644.27
883.901	16540.7
884.277	16784.38
884.653	16671.29
885.029	17142.55
885.405	18990.83
885.781	18844.04
886.157	18066.68
886.532	18283.46
886.908	18267.4
887.284	20311.08
887.659	20982.84
888.035	21639.28
888.411	22195.05
888.786	22491.35
889.161	23277.19
889.537	22845.99
889.912	23566.38
890.287	23549.76
890.662	24145.73
891.037	23712.95
891.412	22124.83
891.787	21887.34
892.162	21116.2
892.536	21614.07
892.911	20803.42
893.286	20370.2
893.66	19547.45
894.035	20047.43
894.409	21829.93
894.784	20944.04
895.158	21279.8
895.532	22525.27
895.906	23134.03
896.281	23683.21
896.655	23306.68
897.029	26627.39
897.402	27716.68
897.776	30843.65
898.15	30743.75
898.524	30402.54
898.898	30809.27
899.271	34478.31
899.645	29876.69
900.018	28687.57
900.392	29734.41
900.765	29963.58
901.138	27718.38
901.511	27300.84
901.884	25064.66
902.258	23120.39
902.631	23886.72
903.003	27496.38
903.376	24821.26
903.749	27821.39
904.122	29801.8
904.495	32813.77
904.867	33211.09
905.24	28824.93
905.612	26823.13
905.985	27421.63
906.357	28658.77
906.729	27368.51
907.102	23376.01
907.474	22484.96
907.846	22632.54
908.218	22329.49
908.59	19731.64
908.962	19087.7
909.334	20568.7
909.705	21612.04
910.077	20975.07
910.449	21823.08
910.82	22423.03
911.192	24659.46
911.563	25596.38
911.935	27366.73
912.306	27384.87
912.677	28259.87
913.048	27984.78
913.419	30362.59
913.79	30532.3
914.161	32755.13
914.532	31345.93
914.903	28781.65
915.274	27328.92
915.645	26941.6
916.015	23712.83
916.386	22616.55
916.756	24082.5
917.127	24839.88
917.497	22191.22
917.868	24148.21
918.238	22945.03
918.608	23581.66
918.978	24078.65
919.348	25512.59
919.718	26360.94
920.088	25398.42
920.458	26380.11
920.828	27749.92
921.198	26302.63
921.567	28083.79
921.937	21738.93
922.306	21947.85
922.676	23652.07
923.045	19750.32
923.415	18763.63
923.784	17075.53
924.153	17561.48
924.522	17556.06
924.891	16497.41
925.26	17666.38
925.629	17235.94
925.998	19821.03
926.367	19331.06
926.736	18420.74
927.104	21908.34
927.473	23536.91
927.842	28429.07
928.21	28125.93
928.578	29557.09
928.947	27949
929.315	28125.13
929.683	33026.23
930.051	33283.26
930.42	38636.58
930.788	33013.89
931.156	32773.85
931.523	30723.09
931.891	28373.28
932.259	27241.59
932.627	31566.34
932.994	44674.77
933.362	36909.12
933.729	31992.42
934.097	30565.57
934.464	25852.74
934.831	29803.38
935.199	29361.85
935.566	28443.11
935.933	28867.07
936.3	34944.63
936.667	27150.73
937.034	24503.15
937.401	24193.94
937.767	20881.33
938.134	18602.92
938.501	26241.65
938.867	27996.95
939.234	47327.87
939.6	40350.01
939.967	44294.16
940.333	29658.09
940.699	25271.79
941.065	20241.31
941.431	26568.65
941.798	25650.04
942.163	33742.07
942.529	21087.43
942.895	19386.86
943.261	12535.95
943.627	16485.09
943.992	14456.72
944.358	14496.95
944.723	14569.43
945.089	14199.27
945.454	13111.82
945.82	13975.61
946.185	13416.44
946.55	15560.2
946.915	13974.51
947.28	16413.92
947.645	14431.97
948.01	13346.46
948.375	13923.08
948.74	16675.63
949.104	19445.46
949.469	28048.4
949.834	49597.76
950.198	47045.88
950.562	28214.49
950.927	23489.09
951.291	28252.69
951.655	24101.91
952.02	22619.08
952.384	17077.12
952.748	14874.54
953.112	14529.07
953.476	12663.65
953.839	11713.19
954.203	11598.79
954.567	14482.44
954.931	22775.48
955.294	19485.3
955.658	19573.19
956.021	33231.33
956.385	56384.68
956.748	83167.83
957.111	128877.7
957.474	144424.38
957.837	162654.8
958.2	122907.44
958.563	44245.75
958.926	29940.74
959.289	45413.96
959.652	50777.13
960.015	38147.42
960.377	54695.57
960.74	62339.98
961.102	107607.61
961.465	115763.08
961.827	62193.77
962.189	119367.18
962.552	82646.91
962.914	66125.34
963.276	42878.92
963.638	35428.74
964	35067.31
964.362	23726.87
964.724	22918.88
965.085	16341.1
965.447	13387.8
965.809	15203.41
966.17	15205.55
966.532	16443.38
966.893	15114.79
967.255	13749.45
967.616	16209.25
967.977	12958.86
968.338	14128.32
968.699	11611.96
969.061	11602.53
969.421	11674.98
969.782	13099.24
970.143	11068.37
970.504	11487.52
970.865	13056.97
971.225	13370.64
971.586	13087.65
971.946	18645.02
972.307	16190.74
972.667	21154.3
973.027	21759.41
973.388	26348.81
973.748	17896.91
974.108	19500.22
974.468	26339.86
974.828	20331.66
975.188	15624.94
975.548	14343.43
975.907	12044.75
976.267	13510.95
976.627	11377
976.986	11804.82
977.346	11254.8
977.705	10853.27
978.064	9885.03
978.424	8223.63
978.783	8492.39
979.142	9689.69
979.501	9285.59
979.86	9826.38
980.219	9458.61
980.578	12161.04
980.937	13590.54
981.296	12105.18
981.654	12423.12
982.013	19303.34
982.371	25033.41
982.73	23375.34
983.088	26452.18
983.447	28213.69
983.805	40339.43
984.163	84309.84
984.521	93532.48
984.879	137197.52
985.237	-222875.26
985.595	214930.23
985.953	53275.85
986.311	30727.03
986.669	17826.57
987.026	15406.43
987.384	20674.03
987.741	21334.45
988.099	15271.18
988.456	12184.72
988.814	11414.86
989.171	9935.88
989.528	9787.69
989.885	10342.23
990.242	8204.97
990.599	10193.76
990.956	8328.49
991.313	5835.79
991.67	4792.72
992.027	5097.51
992.383	4530.66
992.74	3979.35
993.096	4182.43
993.453	4347.4
993.809	4505.56
994.165	5989.99
994.522	5529.87
994.878	6080.32
995.234	7607.71
995.59	7491.52
995.946	7047.75
996.302	8026.16
996.658	9261.02
997.013	10181.03
997.369	12080.56
997.725	15474.66
998.08	10045.5
998.436	15380.72
998.791	21266.54
999.147	21229.15
999.502	23102.01
999.857	16783.16
1000.212	27399.15
1000.567	39010.44
1000.922	22439.93
1001.277	14241.73
1001.632	10571.34
1001.987	13587.57
1002.342	9746.9
1002.696	7801.07
1003.051	6246.57
1003.406	7590.59
1003.76	7550.84
1004.114	7430.61
1004.469	6262.54
1004.823	5191.92
1005.177	5595.45
1005.531	4426.36
1005.885	3926.18
1006.239	4425.34
1006.593	5553.51
1006.947	7446.16
1007.301	5581.99
1007.655	6088.17
1008.008	4484.32
1008.362	5016.21
1008.715	7146.47
1009.069	6471.08
1009.422	9772.86
1009.776	19605.96
1010.129	13050.45
1010.482	10830.34
1010.835	9096.66
1011.188	18898.52
1011.541	17815.01
1011.894	-108349.19
1012.247	318175.44
1012.6	21681.65
1012.952	13734.26
1013.305	7050.31
1013.657	5108.28
1014.01	4824
1014.362	3975.12
1014.715	3578.09
1015.067	3139.35
1015.419	3073.51
1015.771	2755.17
1016.123	2472.39
1016.475	2546.65
1016.827	2710.94
1017.179	2942.18
1017.531	2951.65
1017.883	3004.44
1018.234	2956.92
1018.586	3693.7
1018.938	3916.88
1019.289	5385.14
1019.64	6116.46
1019.992	5683.39
1020.343	5204.63
1020.694	4137.96
1021.045	3623.59
1021.396	4134.78
1021.747	4468.45
1022.098	5259.78
1022.449	3815.72
1022.8	3541.89
1023.151	2496.11
1023.501	2220.66
1023.852	2404.26
1024.202	2499.42
1024.553	2719.68
1024.903	2676.88
1025.253	2301.45
1025.604	2067.56
1025.954	2565.31
1026.304	3129.36
1026.654	3662.36
1027.004	5289.18
1027.354	8522.47
1027.703	8080.94
1028.053	10544.08
1028.403	15365.84
1028.753	22112.87
1029.102	29686.11
1029.452	151124.98
1029.801	6496.74
1030.15	4183.08
1030.499	3466.76
897.758	2645.99
901.051	2598.38
904.343	2633.22
907.636	2635.74
910.928	2701.2
914.22	2608.65
917.511	2617.32
920.803	2678.19
924.094	2695.08
927.384	2677.21
930.675	2639.86
933.965	2593.16
937.255	2606.97
940.544	2573.27
943.834	2516.81
947.123	2457.76
950.411	2557.13
953.7	2527.62
956.988	2498.9
960.276	2439.53
963.563	2514.43
966.851	2512
970.138	2567.59
973.424	2560.69
976.711	2511.29
979.997	2634.16
983.283	2671.51
986.568	2576.06
989.853	2590.32
993.138	2615.44
996.423	2697.06
999.708	2637.97
1002.992	2696.63
1006.275	2540.01
1009.559	2577.26
1012.842	2691.56
1016.125	2627.07
1019.408	2603.12
1022.69	2689.9
1025.972	2708.29
1029.254	2683.41
1032.536	2617.08
1035.817	2643.41
1039.098	2588.77
1042.379	2724.91
1045.659	2727.08
1048.939	2659.95
1052.219	2676.02
1055.498	2688.63
1058.778	2671.54
1062.057	2654.29
1065.335	2674.12
1068.614	2692.93
1071.892	2673.18
1075.17	2747.23
1078.447	2736.26
1081.724	2728.27
1085.001	2763.9
1088.278	2738.17
1091.554	2747.54
1094.83	2742.48
1098.106	2771.06
1101.382	2815.28
1104.657	2814.15
1107.932	2811.98
1111.206	2777.19
1114.481	2733.08
1117.755	2733.7
1121.029	2712.4
1124.302	2766.83
1127.575	2721.14
1130.848	2709.13
1134.121	2671.95
1137.393	2621.91
1140.665	2689.36
1143.937	2663.33
1147.208	2623.71
1150.48	2662.64
1153.75	2651.08
1157.021	2680.24
1160.291	2649.15
1163.561	2694.89
1166.831	2683.35
1170.101	2712.5
1173.37	2686.09
1176.639	2630.07
1179.907	2687.89
1183.176	2696.18
1186.444	2703.8
1189.711	2732.06
1192.979	2743.46
1196.246	2699.96
1199.513	2715.55
1202.78	2715.74
1206.046	2725.33
1209.312	2750.07
1212.578	2774.33
1215.843	2729.42
1219.108	2701.63
1222.373	2725.8
1225.638	2690.97
1228.902	2674.38
1232.166	2641.3
1235.43	2626.32
1238.693	2648.11
1241.956	2645.98
1245.219	2688.39
1248.482	2679.1
1251.744	2674.6
1255.006	2820.68
1258.268	2773.07
1261.529	2715.96
1264.79	2724.37
1268.051	2826.47
1271.312	2841.58
1274.572	2803.51
1277.832	2793.1
1281.092	2779.7
1284.351	2753.89
1287.61	2732.44
1290.869	2650.22
1294.128	2630.13
1297.386	2715.08
1300.644	2701.43
1303.902	2715.89
1307.159	2573.96
1310.416	2631.82
1313.673	2656.37
1316.93	2643.07
1320.186	2688.83
1323.442	2729.51
1326.697	2717.35
1329.953	2711.02
1333.208	2737.03
1336.463	2720.58
1339.717	2659.66
1342.972	2793.99
1346.226	2770.05
1349.479	2704.29
1352.733	2677.73
1355.986	2701.32
1359.238	2677.4
1362.491	2685.63
1365.743	2685.55
1368.995	2679.28
1372.247	2693.56
1375.498	2717.4
1378.749	2736.55
1382	2692.57
1385.251	2745.85
1388.501	2707.2
1391.751	2692.42
1395	2667.38
1398.25	2696.4
1401.499	2707.41
1404.748	2638.73
1407.996	2627.33
1411.244	2616.69
1414.492	2598.87
1417.74	2575.52
1420.987	2585.75
1424.234	2646.39
1427.481	2623.76
1430.728	2682.84
1433.974	2658.63
1437.22	2673.81
1440.465	2673.52
1443.711	2642.32
1446.956	2675.29
1450.201	2658.61
1453.445	2710.42
1456.689	2688.8
1459.933	2698.78
1463.177	2732.5
1466.42	2702.27
1469.663	2685.26
1472.906	2680.27
1476.148	2751.16
1479.391	2717.69
1482.633	2685.4
1485.874	2699.47
1489.115	2681.47
1492.356	2684.59
1495.597	2659.01
1498.838	2657.73
1502.078	2628.68
1505.318	2577.63
1508.557	2616.44
1511.797	2595.23
1515.036	2657.66
1518.274	2644.68
1521.513	2613.87
1524.751	2634.29
1527.989	2646.85
1531.227	2660.21
1534.464	2657.32
1537.701	2674.04
1540.938	2691.15
1544.174	2644.52
1547.41	2642.43
1550.646	2677.96
1553.882	2718.01
1557.117	2768.65
1560.352	2784.86
1563.587	2741.25
1566.821	2701.91
1570.055	2735.06
1573.289	2705.98
1576.523	2780.37
1579.756	2785.89
1582.989	2803.05
1586.222	2763.77
1589.454	2803.41
1592.686	2776.24
1595.918	2800.05
1599.15	2788.69
1602.381	2861.32
1605.612	2815.16
1608.843	2911.12
1612.073	2826.44
1615.303	2811.06
1618.533	2803.71
1621.762	2807.27
1624.992	2786.82
1628.221	2776.42
1631.449	2761.34
1634.678	2817.54
1637.906	2769.74
1641.134	2807.8
1644.361	2764.33
1647.588	2751.95
1650.815	2770.57
1654.042	2746.5
1657.269	2775.39
1660.495	2732.36
1663.72	2751.66
1666.946	2718.16
1670.171	2662
1673.396	2639.9
1676.621	2626.79
1679.845	2645.09
1683.069	2664.68
1686.293	2705.46
1689.517	2679.78
1692.74	2611.8
1695.963	2639.2
1699.185	2656.66
1702.408	2631.29
1705.63	2671.55
1708.852	2681.31
1712.073	2657.49
1715.294	2645.29
1718.515	2705.59
1721.736	2653.06
1724.956	2646.61
1728.176	2673.01
1731.396	2696.3
1734.616	2683.18
1737.835	2711.55
1741.054	2690.55
1744.272	2685.61
1747.491	2717.56
1750.709	2769.21
1753.927	2676.84
1757.144	2721.51
1760.361	2766.07
1763.578	2755.6
1766.795	2698.85
1770.011	2706.27
1773.227	2746.3
1776.443	2782.66
1779.658	2828.41
1782.874	2769.54
1786.089	2749.79
1789.303	2752.06
1792.518	2757.73
1795.732	2743.15
1798.945	2757.21
1802.159	2804.02
1805.372	2710.11
1808.585	2695.9
1811.797	2699.2
1815.01	2745.1
1818.222	2750.5
1821.434	2731.54
1824.645	2788.33
1827.856	2776.09
1831.067	2813.58
1834.278	2766.36
1837.488	2753.88
1840.698	2903.17
1843.908	2827.56
1847.117	2789.75
1850.326	2678.95
1853.535	2780.4
1856.744	2799.84
1859.952	2716.07
1863.16	2718.95
1866.368	2742.99
1869.575	2849.82
1872.782	2734.65
1875.989	2673.82
1879.196	2758.31
1882.402	2754.16
1885.608	2797.19
1888.814	2701.63
1892.019	2598.33
1895.224	2652.36
1898.429	2632.24
1901.634	2609.48
1904.838	2590.36
1908.042	2644.21
1911.246	2648.56
1914.449	2581.71
1917.652	2580.13
1920.855	2559.91
1924.058	2609.14
1927.26	2646.95
1930.462	2674.59
1933.664	2703.48
1936.865	2643.61
1940.066	2649.23
1943.267	2592.97
1946.467	2612.16
1949.668	2640.08
1952.868	2705.68
1956.067	2685.52
1959.267	2616.9
1962.466	2644.57
1965.665	2628.24
1968.863	2622.34
1972.061	2635.38
1975.259	2635.69
1978.457	2715.21
1981.654	2671.65
1984.852	2670.36
1988.048	2604.45
1991.245	2609.44
1994.441	2695.51
1997.637	2674.79
2000.833	2657.7
2004.028	2695.21
2007.223	2750.41
2010.418	2727.44
2013.613	2686.83
2016.807	2658.26
2020.001	2667.69
2023.194	2709.04
2026.388	2681
2029.581	2628.31
2032.774	2681.17
2035.966	2684.77
2039.158	2619.7
2042.35	2645
2045.542	2571.43
2048.733	2672.26
2051.924	2691.51
2055.115	2716.16
2058.306	2660.41
2061.496	2720.4
2064.686	2781.67
2067.875	2695.3
2071.065	2712.25
2074.254	2737.25
2077.442	2687.03
2080.631	2778.97
2083.819	2673.16
2087.007	2657.69
2090.195	2628.17
2093.382	2660.99
2096.569	2641.32
2099.756	2596
2102.942	2622.83
2106.128	2631.12
2109.314	2621.4
2112.5	2587.22
2115.685	2559.21
2118.87	2568.88
2122.055	2634.29
2125.239	2603.73
2128.424	2578.35
2131.608	2678.94
2134.791	2659.41
2137.974	2713.77
2141.157	2695.46
2144.34	2650.84
2147.523	2663.96
2150.705	2678.63
2153.887	2659.42
2157.068	2609.47
2160.25	2608.1
2163.431	2645.27
2166.611	2592.31
2169.792	2608.16
2172.972	2504.54
2176.152	2583.58
2179.331	2616.26
2182.511	2601.13
2185.69	2630.68
2188.868	2623.88
2192.047	2678.24
2195.225	2671.18
2198.403	2622.39
2201.58	2614.11
2204.758	2607.74
2207.935	2692.54
2211.111	2582.12
2214.288	2567.48
2217.464	2607.1
2220.64	2575.99
2223.815	2633.48
2226.991	2552.38
2230.166	2573.73
2233.34	2606.29
2236.515	2630.32
2239.689	2706.15
2242.863	2648.65
2246.036	2702.92
2249.209	2700.91
2252.382	2734.91
2255.555	2721.48
2258.727	2658.64
2261.9	2700.69
2265.071	2690.95
2268.243	2690.08
2271.414	2623.87
2274.585	2587.65
2277.756	2654.91
2280.926	2609.43
2284.096	2651.81
2287.266	2560.47
2290.436	2617.58
2293.605	2643.62
2296.774	2675.36
2299.942	2698.08
2303.111	2716.1
2306.279	2765.09
2309.447	2749.29
2312.614	2724.3
2315.781	2745.96
2318.948	2714.8
2322.115	2752.45
2325.281	2652.96
2328.447	2674.63
2331.613	2646.9
2334.779	2618.54
2337.944	2621.76
2341.109	2621.46
2344.274	2605.68
2347.438	2569.48
2350.602	2593.61
2353.766	2609.84
2356.929	2596.17
2360.092	2639.43
2363.255	2592.62
2366.418	2530.4
2369.58	2643.27
2372.742	2432.6
2375.904	2444.93
2379.066	2421.85
2382.227	2459.74
2385.388	2422.29
2388.548	2349.54
2391.709	2403.89
2394.869	2385.96
2398.029	2481.01
2401.188	2490.78
2404.347	2425.35
2407.506	2566.18
2410.665	2595.5
2413.823	2598.41
2416.981	2556.41
2420.139	2586.58
2423.296	2637.02
2426.453	2610.93
2429.61	2631.02
2432.767	2568.03
2435.923	2610.73
2439.079	2568.06
2442.235	2617.16
2445.391	2544.41
2448.546	2576.25
2451.701	2623.23
2454.855	2598.34
2458.009	2650.97
2461.163	2647.92
2464.317	2611.4
2467.471	2643.3
2470.624	2679.77
2473.777	2655.07
2476.929	2666.89
2480.082	2692.82
2483.234	2657.8
2486.385	2611.13
2489.537	2603.86
2492.688	2563.57
2495.839	2587.09
2498.989	2600.41
2502.14	2584.12
2505.29	2566.92
2508.439	2593.1
2511.589	2518.28
2514.738	2527.59
2517.887	2556.99
2521.035	2623.46
2524.183	2604.31
2527.331	2587.37
2530.479	2560.08
2533.627	2567
