Data from N_3_DIV_OH_2N_Splice17_12-49-35-737.txt Node
Date: Sat Mar 14 12:49:35 EDT 2020
User: sa697716
Spectrometer: FLMS03696
Trigger mode: 0
Integration Time (sec): 3.180400E-1
Scans to average: 20
Electric dark correction enabled: true
Nonlinearity correction enabled: true
Boxcar width: 5
XAxis mode: Wavelengths
Number of Pixels in Spectrum: 2048
>>>>>Begin Spectral Data<<<<<
187.83	-355695.71
188.298	2624.52
188.766	1403.23
189.233	1269.88
189.701	1869.14
190.169	2584.28
190.636	1004.64
191.104	814.1
191.571	137.44
192.039	-66.22
192.506	-62.65
192.974	561.56
193.441	-843.2
193.908	-117.07
194.375	4.48
194.842	86.46
195.31	236.26
195.777	243.29
196.244	506.71
196.711	594.97
197.177	754.35
197.644	1076.37
198.111	1858.41
198.578	2569.55
199.045	1994.12
199.511	3212.28
199.978	3703.09
200.445	3118.54
200.911	3412.83
201.378	3751.06
201.844	3353.39
202.31	5622.66
202.777	5710.12
203.243	3107.03
203.709	2930.73
204.176	3472.25
204.642	2845.96
205.108	2649.52
205.574	2117.31
206.04	1913.55
206.506	1787.01
206.972	1674.79
207.438	1594.21
207.903	1800.06
208.369	1578.6
208.835	1559.78
209.301	1629.46
209.766	1642.15
210.232	1610.41
210.697	1974.43
211.163	2391.67
211.628	3546.01
212.094	2937.73
212.559	3605.76
213.024	2221.72
213.49	2694.18
213.955	2581.52
214.42	2468.61
214.885	2286.79
215.35	2177.22
215.815	2092.95
216.28	2195.39
216.745	1733.84
217.21	1805.58
217.675	1557.54
218.14	1648.13
218.604	1681.28
219.069	1781.45
219.534	1751.22
219.998	1873.58
220.463	2078.99
220.927	2273.24
221.392	1980.16
221.856	1894.66
222.32	2208.23
222.785	2580.28
223.249	3060.94
223.713	3272.06
224.177	3120.39
224.642	3815.64
225.106	4450.71
225.57	4679.03
226.034	3477.92
226.497	5141.5
226.961	4585.56
227.425	5228.61
227.889	5584.76
228.353	5444.07
228.816	10886.63
229.28	10208.28
229.744	8316.38
230.207	5056.15
230.671	4915.16
231.134	7806.67
231.597	8973.24
232.061	8674.22
232.524	8198.56
232.987	5639.65
233.45	5081.97
233.914	4539.68
234.377	4573.89
234.84	4163.88
235.303	4801.34
235.766	5311.97
236.229	5432.09
236.691	3340.69
237.154	3719.18
237.617	2853.31
238.08	2886.76
238.542	3329.17
239.005	2376.95
239.468	2373.92
239.93	2248.57
240.393	2047.35
240.855	1795.31
241.317	1827.41
241.78	2206.62
242.242	2301.13
242.704	2512.46
243.166	2201.76
243.629	2045.94
244.091	2353.96
244.553	2554.61
245.015	2752.09
245.477	3547.54
245.939	5149.34
246.4	5474.5
246.862	5309.09
247.324	4983.49
247.786	5489.94
248.247	7118.22
248.709	7164.46
249.17	5389.25
249.632	5187.4
250.093	6053.84
250.555	5231.3
251.016	3238.28
251.477	3074.6
251.939	3346.49
252.4	3491.34
252.861	4108.49
253.322	3860.71
253.783	4573.83
254.244	5896.36
254.705	4583.73
255.166	4022.21
255.627	3961.01
256.088	5614.19
256.549	5999.94
257.009	5143.86
257.47	6246.03
257.931	5057.91
258.391	3792.89
258.852	3916.92
259.312	4076.94
259.773	5026.15
260.233	4305.93
260.694	3668.74
261.154	4114.45
261.614	3327.06
262.074	2944.58
262.534	3063.2
262.994	2900.99
263.455	3798.93
263.915	3193.34
264.374	2979.14
264.834	3216.26
265.294	3509.69
265.754	3609.79
266.214	3376.99
266.673	3125.12
267.133	3913.82
267.593	3828.35
268.052	4658.52
268.512	4034.12
268.971	4952.32
269.431	5458.7
269.89	4864.9
270.349	7273.01
270.809	8101.45
271.268	7317.65
271.727	16194.48
272.186	10509.87
272.645	7874.27
273.104	5655.63
273.563	8198.31
274.022	6301.21
274.481	5412.18
274.94	4236.96
275.399	3145.25
275.857	3648.73
276.316	4905.05
276.775	4398.09
277.233	4355.5
277.692	4175.61
278.15	4766.54
278.609	5005.82
279.067	4654.34
279.525	4361.68
279.984	5605.31
280.442	6763.41
280.9	6800.34
281.358	4501.81
281.816	4251.27
282.274	4203.13
282.732	4296.55
283.19	4314.6
283.648	3725.07
284.106	3991.82
284.564	4045.94
285.021	3817.46
285.479	2864.92
285.937	2568.6
286.394	2298.51
286.852	2366.49
287.309	2489.81
287.767	2467.45
288.224	2377.36
288.682	2600.2
289.139	2894.11
289.596	2670.85
290.053	2753.63
290.511	3464.47
290.968	4224.52
291.425	5671.28
291.882	4784.59
292.339	4193.5
292.796	4077.53
293.252	3828.13
293.709	3090.79
294.166	2747.26
294.623	3020.11
295.079	2867.61
295.536	2908.47
295.992	2653.57
296.449	2627.85
296.905	2735.6
297.362	2623.46
297.818	2764
298.274	2886.23
298.731	2899.96
299.187	2865.64
299.643	3068.81
300.099	3751.1
300.555	4079.55
301.011	3380.97
301.467	3342.09
301.923	3827.67
302.379	3747.92
302.835	3691.78
303.291	3700.1
303.746	4210.11
304.202	5325.2
304.658	5328.01
305.113	3596.4
305.569	3562.2
306.024	3797.93
306.479	3552.74
306.935	3076.41
307.39	3353.02
307.845	3110.29
308.301	3158.45
308.756	3094.55
309.211	3020.63
309.666	3139.44
310.121	3969.95
310.576	4022.53
311.031	4011.09
311.486	4570.56
311.94	4540.55
312.395	6111.72
312.85	11499.21
313.305	55732.77
313.759	295212.11
314.214	21496.46
314.668	17165.17
315.123	14403.71
315.577	5222.22
316.032	4701.68
316.486	5928.07
316.94	4706.71
317.394	3308.11
317.849	2574.84
318.303	2452.8
318.757	2322.62
319.211	2569.27
319.665	2243.94
320.119	2280.25
320.572	3238.15
321.026	3044.99
321.48	2522.35
321.934	2712.2
322.387	2695.79
322.841	2940.52
323.295	2705.73
323.748	3041.8
324.202	3074.63
324.655	3718.48
325.108	5278.06
325.562	3774.87
326.015	4444.04
326.468	3398.49
326.921	3844.53
327.374	3633.74
327.827	3824.39
328.28	4326.25
328.733	2941.02
329.186	2614.43
329.639	2494.23
330.092	2099.02
330.545	2006.79
330.997	2055.87
331.45	2295.54
331.903	2729.27
332.355	4640.04
332.808	4483.43
333.26	3671.73
333.713	4029.09
334.165	4029.82
334.617	5369.05
335.069	4263.36
335.522	7680.91
335.974	8534.63
336.426	7680.51
336.878	5229.13
337.33	2705.71
337.782	2669.53
338.234	3416.12
338.686	4106.53
339.137	4898.5
339.589	4611.61
340.041	3648.89
340.493	3135.89
340.944	3194.43
341.396	3461.88
341.847	2950.82
342.299	3514.64
342.75	4323.51
343.201	3689.21
343.653	4194.63
344.104	5131.06
344.555	4059.1
345.006	6198.26
345.457	4834.47
345.908	3824.44
346.359	3668.28
346.81	2993.78
347.261	3125.94
347.712	3024.88
348.163	3266.79
348.613	3364.75
349.064	3153.24
349.515	2750.25
349.965	2873.54
350.416	3458.86
350.866	3775.23
351.317	4176.99
351.767	6906.37
352.217	8678.9
352.668	7328.46
353.118	6734.2
353.568	6436.62
354.018	5141.05
354.468	5471.68
354.918	3964.78
355.368	3437.63
355.818	4895.96
356.268	14051.97
356.718	59924.17
357.168	15059.55
357.617	7524.11
358.067	8330.94
358.517	7796.75
358.966	9216.61
359.416	10474.72
359.865	11248.63
360.315	13401.49
360.764	6300.02
361.213	3567.5
361.663	3308.05
362.112	4075.36
362.561	6570.81
363.01	5002.02
363.459	4220.87
363.908	4525.24
364.357	3860.78
364.806	6467.46
365.255	4467.23
365.703	4144.41
366.152	4164.09
366.601	3408.84
367.05	2794.89
367.498	2579.65
367.947	2692.07
368.395	2800.94
368.844	2524.18
369.292	2993.54
369.74	2099.97
370.189	3217.64
370.637	3770.88
371.085	3263.66
371.533	3995.22
371.981	3823.54
372.429	3692.87
372.877	3832.58
373.325	3231.7
373.773	3270.17
374.221	2915.32
374.669	3617.9
375.116	3140.45
375.564	3145.05
376.012	3498.11
376.459	2892.3
376.907	3439.19
377.354	4093.07
377.801	3879.88
378.249	4499.93
378.696	5718.98
379.143	6961.49
379.591	7372.79
380.038	12543.26
380.485	9198.89
380.932	9977.81
381.379	9305.3
381.826	6971.76
382.273	4995.29
382.72	4363.51
383.166	4269.03
383.613	2817.36
384.06	2576.19
384.506	3046.51
384.953	2261.55
385.4	2293.16
385.846	2060.46
386.292	2023.69
386.739	2052.21
387.185	2089.6
387.631	2169.97
388.078	2223.23
388.524	2475.93
388.97	2391.21
389.416	2072.41
389.862	2272.84
390.308	2225.96
390.754	2340.12
391.2	2662.16
391.645	2873.43
392.091	2964.79
392.537	3052.65
392.983	3199.2
393.428	3317.31
393.874	3710.6
394.319	3990.11
394.765	4139.75
395.21	4714.79
395.655	4909.94
396.101	5094.67
396.546	5072.25
396.991	5620.97
397.436	5757.48
397.881	6163.4
398.326	6492.52
398.771	6823.04
399.216	6594.7
399.661	6514.23
400.106	7047.56
400.551	7786.65
400.995	7502.39
401.44	7924.04
401.885	7902.57
402.329	8457.9
402.774	8541.04
403.218	8666.35
403.663	8791.97
404.107	9498.38
404.551	10068.96
404.995	9753.77
405.44	9969.58
405.884	10709.87
406.328	10930.93
406.772	11433.19
407.216	10899.94
407.66	11081.82
408.104	11159.24
408.547	11011.45
408.991	11180.29
409.435	11244.73
409.879	11492.79
410.322	11723.95
410.766	11702.58
411.209	11520.52
411.653	11495.46
412.096	11668.86
412.54	12093.91
412.983	12374.71
413.426	12730.94
413.869	13088.87
414.312	13152.18
414.756	13019.93
415.199	12750.9
415.642	12671.04
416.085	12959.35
416.527	13131.24
416.97	13614.77
417.413	13108.27
417.856	13187.88
418.298	13233.45
418.741	13272.12
419.184	13372.3
419.626	14071.81
420.069	14178.07
420.511	14366.81
420.953	14190.54
421.396	14215.55
421.838	14031.74
422.28	14519.62
422.722	14738.07
423.164	15212.67
423.606	15201.43
424.048	15469.16
424.49	14897.39
424.932	15059.72
425.374	15086.31
425.816	15492.8
426.258	15771.14
426.699	15784.48
427.141	15245.39
427.582	15243.09
428.024	15000.08
428.465	14972.94
428.907	14795.26
429.348	14930.34
429.789	15175.74
430.231	15039.61
430.672	15462.34
431.113	15409.46
431.554	15677.92
431.995	16007.57
432.436	16074.46
432.877	16308.95
433.318	16426.74
433.759	16710.04
434.2	16961.35
434.64	17031.29
435.081	17327.74
435.522	16689.24
435.962	16410.47
436.403	16312.36
436.843	16830.42
437.284	16747.46
437.724	16525.39
438.164	16821.13
438.604	16609.82
439.045	16113.5
439.485	15608.36
439.925	15535.74
440.365	15398.19
440.805	15398.73
441.245	15355.66
441.685	14889.88
442.125	14895.36
442.564	15055.19
443.004	14724.8
443.444	14741.87
443.883	14832.27
444.323	14887.09
444.762	15084.72
445.202	15399.35
445.641	15705.02
446.081	15760.21
446.52	15965.27
446.959	15890.5
447.398	15612.57
447.837	15592.61
448.276	15465.99
448.716	15706.3
449.154	15895.3
449.593	15441.25
450.032	15331
450.471	15076.65
450.91	15062.74
451.349	14947.06
451.787	14846.43
452.226	14999
452.664	14912.23
453.103	14850.27
453.541	14791.61
453.98	14635.32
454.418	14719.83
454.856	14406.79
455.295	14319.85
455.733	14329.47
456.171	14356.06
456.609	14271.46
457.047	14192.38
457.485	14290.84
457.923	14238.72
458.361	14011.4
458.798	14064.04
459.236	14022.14
459.674	14188.19
460.111	14284.57
460.549	14186.24
460.987	14209.48
461.424	14239.68
461.862	14226.94
462.299	14076.84
462.736	14095.29
463.173	14195.9
463.611	14008.03
464.048	13998.36
464.485	14152.37
464.922	14112.53
465.359	14157.78
465.796	13848.83
466.233	13838.42
466.67	13763.49
467.106	13804.62
467.543	13805.86
467.98	13748.4
468.416	13589.65
468.853	13647.57
469.29	13375.86
469.726	13331.26
470.162	13062.97
470.599	13164.03
471.035	13149.18
471.471	12940.21
471.907	12991.74
472.344	12976.47
472.78	13010.85
473.216	13192.26
473.652	13007.83
474.088	12966.71
474.523	12878.17
474.959	12976.2
475.395	12819.77
475.831	12668.85
476.266	12681.94
476.702	12587.03
477.138	12369.9
477.573	12268.18
478.008	12134.27
478.444	12079.6
478.879	12056.09
479.314	12005.23
479.75	11883.28
480.185	11838.14
480.62	11831.2
481.055	11769.8
481.49	11701.46
481.925	11713.7
482.36	11682.11
482.795	11806
483.229	11919.73
483.664	11951.95
484.099	11802.35
484.534	11787.45
484.968	11728.93
485.403	11621
485.837	11489.21
486.271	11353.08
486.706	11268.84
487.14	11123.56
487.574	10910.62
488.009	10785.95
488.443	10661.73
488.877	10692.41
489.311	10668.99
489.745	10713.46
490.179	10726.27
490.613	10802.41
491.046	10821.64
491.48	10827.86
491.914	10758.4
492.348	10762.49
492.781	10751.41
493.215	10722.31
493.648	10716.8
494.082	10749
494.515	10694.48
494.948	10734.57
495.382	10764.04
495.815	10746.94
496.248	10740.02
496.681	10847.51
497.114	10931.02
497.547	10971.98
497.98	11028.62
498.413	10969.5
498.846	10975.65
499.279	10988.13
499.711	10953.86
500.144	10883.41
500.577	10902.2
501.009	10941.44
501.442	10936.57
501.874	10828.95
502.306	10771.4
502.739	10746.82
503.171	10870.66
503.603	10820.69
504.036	10836.8
504.468	10791.23
504.9	10810.55
505.332	10783.49
505.764	10714.72
506.196	10690
506.627	10738.12
507.059	10754.33
507.491	10755.06
507.923	10572.75
508.354	10595.96
508.786	10573.77
509.217	10624.66
509.649	10640.28
510.08	10695.69
510.512	10705.23
510.943	10702.19
511.374	10658.08
511.805	10700.8
512.237	10736.88
512.668	10902.1
513.099	10993.88
513.53	11053.19
513.961	11033.01
514.391	11111.98
514.822	11179.44
515.253	11291.29
515.684	11311.4
516.114	11371.2
516.545	11356.61
516.975	11386.47
517.406	11349.69
517.836	11211.72
518.267	11123.25
518.697	11135.38
519.127	11049.06
519.558	10992.16
519.988	10899.51
520.418	10864.74
520.848	10878.64
521.278	10827.82
521.708	10548.15
522.138	10528.66
522.567	10630.81
522.997	10680.03
523.427	10659.37
523.857	10636.73
524.286	10583.29
524.716	10571.02
525.145	10582.42
525.575	10553.44
526.004	10556.99
526.433	10677.58
526.863	10594.97
527.292	10447.2
527.721	10420.41
528.15	10414.38
528.579	10380.46
529.008	10406.9
529.437	10501.48
529.866	10526.64
530.295	10567.62
530.724	10568.73
531.152	10662.95
531.581	10681.63
532.01	10737.1
532.438	10737.03
532.867	10775.58
533.295	10835.8
533.723	10826.74
534.152	10772.68
534.58	10737.26
535.008	10618.24
535.436	10599.89
535.865	10621.81
536.293	10680.92
536.721	10738.61
537.149	10841.48
537.576	10814.26
538.004	10859.24
538.432	10887.59
538.86	10862.81
539.287	10896.52
539.715	10962.87
540.143	10983.32
540.57	10964.84
540.998	10957.57
541.425	10829.72
541.852	10741.56
542.28	10762.05
542.707	10701.1
543.134	10643.52
543.561	10642.79
543.988	10620.56
544.415	10643.57
544.842	10634.79
545.269	10611.28
545.696	10635.69
546.123	10745.9
546.549	10704.03
546.976	10645.79
547.403	10657.88
547.829	10692.23
548.256	10729.57
548.682	10728.33
549.108	10702.65
549.535	10723.68
549.961	10756.07
550.387	10697.24
550.813	10671.53
551.24	10727.37
551.666	10754.15
552.092	10715.46
552.518	10698.07
552.943	10669.97
553.369	10732.85
553.795	10779.9
554.221	10789.09
554.646	10780.06
555.072	10837.36
555.498	10875.4
555.923	10926.93
556.349	11009.34
556.774	11056.13
557.199	11058.75
557.625	11109.37
558.05	11072.02
558.475	11140.62
558.9	11139.04
559.325	11091.22
559.75	11066.81
560.175	11041.56
560.6	11020.13
561.025	11021.56
561.449	11040.12
561.874	11079.83
562.299	11094.47
562.723	11139.68
563.148	11070.83
563.572	11094.84
563.997	11156.95
564.421	11193.42
564.846	11192.95
565.27	11201.63
565.694	11177.77
566.118	11231.42
566.542	11260.13
566.966	11212.68
567.39	11168.13
567.814	11090
568.238	11080.66
568.662	11111.6
569.086	11127.9
569.509	11190.89
569.933	11116.83
570.357	11111.4
570.78	11026.77
571.204	10986.49
571.627	10977.8
572.05	11031.07
572.474	11094.16
572.897	11091.39
573.32	11112.48
573.743	11136.05
574.166	11087.58
574.589	11171.4
575.012	11194.16
575.435	11268.58
575.858	11291.76
576.281	11303.31
576.704	11288.68
577.126	11306.53
577.549	11321.39
577.972	11352.07
578.394	11363.49
578.817	11386.28
579.239	11347.05
579.661	11339.72
580.084	11302.58
580.506	11299.86
580.928	11361.58
581.35	11366.68
581.772	11407.42
582.194	11377.58
582.616	11344.42
583.038	11307.12
583.46	11303.21
583.882	11329.99
584.303	11420.64
584.725	11449.91
585.147	11457.48
585.568	11546.46
585.99	11623.42
586.411	11654.57
586.833	11749.74
587.254	11756.17
587.675	11869.48
588.096	11971.6
588.518	11939.61
588.939	11816.35
589.36	11806.48
589.781	11796.85
590.202	11586.08
590.623	11571.68
591.043	11609.45
591.464	11552.07
591.885	11546.42
592.305	11516.84
592.726	11423.44
593.147	11434.31
593.567	11394.57
593.987	11330.49
594.408	11277.54
594.828	11275.06
595.248	11196.79
595.669	11019.13
596.089	10940.5
596.509	10873.18
596.929	10736.9
597.349	10703.78
597.769	10590.02
598.189	10496.3
598.608	10463.64
599.028	10431.07
599.448	10391.1
599.867	10267.22
600.287	10215.6
600.706	10153.26
601.126	10050.66
601.545	10015.97
601.965	9991.63
602.384	9942.55
602.803	9956.65
603.222	9912.16
603.641	9868.4
604.061	9840.46
604.48	9822.36
604.898	9889.38
605.317	9941.16
605.736	9970.98
606.155	9962.39
606.574	9911.29
606.992	9968.12
607.411	9951.37
607.829	9926.9
608.248	9934.77
608.666	9950.86
609.085	9973.02
609.503	9937.19
609.921	9917.57
610.339	9962.79
610.758	9996.05
611.176	9996.93
611.594	9963.04
612.012	9977.36
612.43	10026.17
612.847	10103.53
613.265	10127.35
613.683	10189.56
614.101	10229.99
614.518	10242.18
614.936	10205.7
615.353	10128.29
615.771	10139.57
616.188	10179.23
616.606	10189.25
617.023	10177.19
617.44	10108.35
617.857	10113.53
618.274	10092.2
618.691	10076.24
619.108	10035.33
619.525	10014.45
619.942	10084.93
620.359	10121.94
620.776	10095.21
621.192	10062.87
621.609	10043.43
622.026	10084.12
622.442	10117.76
622.859	10139.36
623.275	10081.81
623.691	10120.16
624.108	10204.62
624.524	10314.72
624.94	10304.92
625.356	10372.23
625.772	10477.38
626.188	10570.77
626.604	10580.12
627.02	10542.32
627.436	10514.79
627.852	10555.78
628.268	10637.91
628.683	10561.04
629.099	10492.09
629.514	10464.57
629.93	10506.36
630.345	10550
630.761	10534.11
631.176	10581.3
631.591	10541.19
632.007	10514.37
632.422	10538.84
632.837	10483.06
633.252	10488.81
633.667	10445.21
634.082	10409.73
634.497	10342.3
634.911	10217.03
635.326	10237.95
635.741	10148.26
636.155	10135.5
636.57	10194.59
636.984	10245.04
637.399	10305.58
637.813	10375.16
638.228	10430.09
638.642	10534.79
639.056	10522.19
639.47	10606.31
639.884	10606.34
640.298	10630.13
640.712	10695.05
641.126	10676.33
641.54	10694.61
641.954	10764.43
642.368	10738.07
642.781	10728.5
643.195	10651.78
643.609	10734.93
644.022	10761.48
644.436	10797.26
644.849	10758.2
645.262	10715.08
645.676	10802.13
646.089	10805.84
646.502	10687.17
646.915	10693.88
647.328	10604.05
647.741	10644.25
648.154	10577.95
648.567	10575.36
648.98	10488.34
649.393	10547.19
649.805	10567.31
650.218	10546.59
650.631	10433.07
651.043	10433.45
651.456	10413.75
651.868	10459.46
652.28	10659.41
652.693	10784.34
653.105	10822.11
653.517	10857.07
653.929	10796.29
654.341	10815.25
654.753	10664.07
655.165	10744.84
655.577	10744.82
655.989	10745.77
656.401	10737.05
656.813	10421.24
657.224	10330.13
657.636	10196.99
658.047	10175.36
658.459	10138.37
658.87	10210.03
659.282	10230.03
659.693	10099.01
660.104	10033.83
660.515	9976.41
660.926	10044.67
661.338	10117.38
661.749	10139.86
662.159	10100.57
662.57	10150.82
662.981	10175.32
663.392	10153.28
663.803	10269.45
664.213	10322.27
664.624	10342.88
665.035	10453.36
665.445	10347.6
665.855	10299.63
666.266	10234.08
666.676	10259.37
667.086	10182.04
667.497	10195.87
667.907	10139.29
668.317	10040.16
668.727	9960.06
669.137	9987.78
669.547	9953.29
669.956	9991.34
670.366	10017.7
670.776	10028.59
671.186	10071.8
671.595	10091.52
672.005	10130.75
672.414	10088.37
672.824	10035.57
673.233	10121.75
673.642	10120.44
674.052	10118.36
674.461	10091.63
674.87	10121.02
675.279	10038.23
675.688	10033.34
676.097	9994.67
676.506	9906.37
676.915	10058.91
677.323	10048.82
677.732	9974.08
678.141	9920.97
678.549	9750.31
678.958	9703.7
679.366	9644.05
679.775	9669.21
680.183	9688.78
680.592	9698.09
681	9686.13
681.408	9509
681.816	9509.78
682.224	9516.96
682.632	9492.85
683.04	9690.34
683.448	9772.65
683.856	9841.17
684.264	9892.39
684.671	9910.39
685.079	9970.27
685.487	10054.8
685.894	10281.5
686.302	10365.36
686.709	10327.62
687.116	10347.74
687.524	10276.05
687.931	10190.87
688.338	10130.5
688.745	10084.74
689.152	10059.05
689.559	10079.14
689.966	10050.69
690.373	9858.31
690.78	9779.57
691.187	9830.97
691.593	9764.35
692	9660.05
692.407	9660.24
692.813	9708.7
693.22	9684.77
693.626	9691.19
694.032	9635.23
694.439	9721.5
694.845	9735.43
695.251	9824.06
695.657	9868.96
696.063	10058.54
696.469	10118.85
696.875	10148.62
697.281	10058.47
697.687	9987.7
698.093	9869.99
698.498	9889.02
698.904	9844.04
699.31	9904.58
699.715	9876.79
700.12	9974.54
700.526	9836.88
700.931	9892.52
701.337	9904.07
701.742	9865.51
702.147	9997.76
702.552	9967.11
702.957	10035.37
703.362	9984.96
703.767	9974.9
704.172	10003.51
704.577	9766.66
704.981	9809.64
705.386	9756.31
705.791	9631.09
706.195	9749.46
706.6	9678.14
707.004	9814.82
707.408	9644.67
707.813	9633.88
708.217	9513.62
708.621	9436.04
709.025	9616.58
709.43	9532.46
709.834	9607.43
710.237	9710.53
710.641	9591.96
711.045	9574.56
711.449	9476.57
711.853	9456.99
712.256	9476.17
712.66	9481.76
713.064	9561.36
713.467	9522.76
713.87	9618.5
714.274	9512.62
714.677	9514.99
715.08	9594.8
715.484	9653.48
715.887	9750.24
716.29	9830.22
716.693	9888.63
717.096	9992.31
717.499	9923.39
717.901	9747.49
718.304	9679.11
718.707	9711.47
719.109	9593.07
719.512	9633.4
719.915	9491.16
720.317	9484.01
720.719	9629.69
721.122	9637.74
721.524	9594
721.926	9530.73
722.328	9691.78
722.731	9603.65
723.133	9543.18
723.535	9760.04
723.937	9665.49
724.338	9635.76
724.74	9608.92
725.142	9388.63
725.544	9351.08
725.945	9361.23
726.347	9338.92
726.748	9304.24
727.15	9318.61
727.551	9238.4
727.952	9175.83
728.354	9112.7
728.755	9121.01
729.156	9081.12
729.557	9159.91
729.958	9013.42
730.359	9003.15
730.76	9063.87
731.161	9062.15
731.562	9118.13
731.962	9224.09
732.363	9199.44
732.763	9167.43
733.164	9298.31
733.564	9224.25
733.965	9079.08
734.365	9034.25
734.766	9097.93
735.166	9022.9
735.566	8908.85
735.966	8837.87
736.366	8808.25
736.766	8688.42
737.166	8742.82
737.566	8668.32
737.966	8622.99
738.365	8689.57
738.765	8674.86
739.165	8533.35
739.564	8484.47
739.964	8572.57
740.363	8500.73
740.763	8513.94
741.162	8495.51
741.561	8440.38
741.96	8358.65
742.36	8399.44
742.759	8419.34
743.158	8497.72
743.557	8527.5
743.955	8601.7
744.354	8515.06
744.753	8612.91
745.152	8523.23
745.55	8614.92
745.949	8592.79
746.348	8580.11
746.746	8593.41
747.144	8497.83
747.543	8437.32
747.941	8502.84
748.339	8350.38
748.737	8308.06
749.136	8266.48
749.534	8361.56
749.932	8283.29
750.33	8300.14
750.727	8380.31
751.125	8321.36
751.523	8279.33
751.921	8338.51
752.318	8263.48
752.716	8350.4
753.113	8362.68
753.511	8389.32
753.908	8368.77
754.305	8320.52
754.703	8404.62
755.1	8484.22
755.497	8554.95
755.894	8818.55
756.291	8978.29
756.688	9251.77
757.085	9522.2
757.482	9869.83
757.878	10122.81
758.275	10190.4
758.672	10488.23
759.068	10541.14
759.465	10800.5
759.861	11160.94
760.258	11547.59
760.654	11385.16
761.05	10844.5
761.447	10309.35
761.843	9852.14
762.239	9501.68
762.635	9562.98
763.031	9582.04
763.427	9393.01
763.822	9176.74
764.218	8996.1
764.614	8611.46
765.01	8463.96
765.405	8472.91
765.801	8530.88
766.196	8445.52
766.592	8500.82
766.987	8332.39
767.382	8251.51
767.778	8307.86
768.173	8262.83
768.568	8264.53
768.963	8158.41
769.358	8246.92
769.753	8221.32
770.148	8122.95
770.542	8145.33
770.937	8107.28
771.332	8255.9
771.726	8286.24
772.121	8177.7
772.515	8253.71
772.91	8226
773.304	8327.35
773.699	8215.04
774.093	8286.76
774.487	8360.99
774.881	8408.79
775.275	8381.48
775.669	8296.95
776.063	8346.39
776.457	8384.54
776.851	8250.84
777.245	8212.07
777.638	8235.86
778.032	8384.21
778.425	8300.12
778.819	8336.48
779.212	8249.51
779.606	8166.89
779.999	8170.84
780.392	8120.21
780.786	8214.53
781.179	8214.03
781.572	8250.55
781.965	8243.64
782.358	8126.56
782.751	8180.39
783.143	8076.74
783.536	8148.33
783.929	8174.45
784.322	8293.41
784.714	8292.94
785.107	8243.08
785.499	8294.87
785.891	8209.96
786.284	8121.96
786.676	8255.7
787.068	8161.91
787.46	8169.03
787.852	8127.08
788.245	8176.28
788.636	8155.54
789.028	8183.95
789.42	8171.96
789.812	8127.47
790.204	8197.75
790.595	8278.66
790.987	7987.91
791.378	7982.14
791.77	8109
792.161	8247.96
792.553	8282.39
792.944	8105.37
793.335	7974.13
793.726	8024.47
794.117	8096.4
794.508	8229.54
794.899	8162.47
795.29	8299.59
795.681	8333.46
796.072	8124.28
796.463	7858.3
796.853	7824.8
797.244	7967.37
797.634	7971.57
798.025	7928.86
798.415	7900.43
798.806	7947.53
799.196	7982
799.586	7980.76
799.976	7872.24
800.366	8066.14
800.756	8271.24
801.146	8167.45
801.536	8142.24
801.926	8164.68
802.316	8144.05
802.706	8174.87
803.095	8005.63
803.485	8075.32
803.874	8078.36
804.264	8313.13
804.653	8246.89
805.043	8355.09
805.432	8416.85
805.821	8368.88
806.21	8332.36
806.599	8379.03
806.988	8345.45
807.377	8366.1
807.766	8405.5
808.155	8577.19
808.544	8213.56
808.933	8115.94
809.321	7981.94
809.71	8133.22
810.098	8137.17
810.487	8392.18
810.875	8641.88
811.264	8469.53
811.652	8514.43
812.04	8414.55
812.428	8327.48
812.816	8689.63
813.204	8758.3
813.592	8895.98
813.98	8887.24
814.368	8604.25
814.756	8724.69
815.144	8488.3
815.531	8631.41
815.919	8448.25
816.306	8531.45
816.694	8247.32
817.081	8226.96
817.469	8432.39
817.856	8459.19
818.243	8656
818.63	8913.25
819.017	8663.33
819.404	8665.09
819.791	8805.57
820.178	9045.14
820.565	9078.99
820.952	9558.02
821.339	9199.57
821.725	9223.72
822.112	8719.65
822.498	8613.26
822.885	8608.8
823.271	8500.38
823.657	8732.64
824.044	8783.53
824.43	8876.28
824.816	8887.63
825.202	8611.15
825.588	9125.8
825.974	9051.68
826.36	9229.12
826.746	9151.21
827.132	9248.87
827.517	9142.71
827.903	8622.65
828.289	8561.97
828.674	8084.49
829.06	7961.3
829.445	8103.16
829.83	8231.29
830.216	8422.38
830.601	8562.4
830.986	8308.59
831.371	8200.37
831.756	8442.24
832.141	8218.08
832.526	8178.18
832.911	8298.59
833.295	8226.1
833.68	8451.52
834.065	8150.17
834.449	7698.5
834.834	7663.32
835.218	7661.32
835.603	7825.99
835.987	7703.27
836.371	8086.23
836.755	8025.02
837.139	8202.09
837.524	8300.75
837.908	8188.75
838.291	8187.75
838.675	8192.55
839.059	8260.19
839.443	8219.41
839.827	8074.33
840.21	8265.82
840.594	8155.14
840.977	8204.04
841.361	8145.54
841.744	8270.1
842.127	8159.3
842.511	8236.29
842.894	8471.73
843.277	8599.79
843.66	8800.9
844.043	8799.1
844.426	8405.33
844.809	8225.21
845.191	8213.58
845.574	7979.86
845.957	7785.27
846.339	7691.54
846.722	7397.67
847.104	7355.22
847.487	7214.03
847.869	7164.07
848.252	7219.57
848.634	7296.06
849.016	7354.37
849.398	7340.77
849.78	7621.3
850.162	7570.95
850.544	7670.52
850.926	7842.36
851.307	7725.23
851.689	7744.33
852.071	7826.95
852.452	7873.36
852.834	7798.08
853.215	7889.84
853.597	7892.08
853.978	7957.1
854.359	8076.38
854.741	7690.82
855.122	7655.53
855.503	7579.68
855.884	7658.93
856.265	7656.45
856.646	7697.75
857.026	7549.2
857.407	7503.63
857.788	7540.73
858.169	7614.25
858.549	7286.61
858.93	7483.41
859.31	7475.78
859.69	7509.58
860.071	7334.29
860.451	7220.76
860.831	6931.85
861.211	7300.21
861.591	7447.07
861.971	7386.31
862.351	7395.93
862.731	7452.65
863.111	7463.08
863.491	7484.04
863.87	7690.23
864.25	7709.34
864.629	7504.58
865.009	7581.17
865.388	7772.9
865.768	8260.25
866.147	8174.5
866.526	7680.98
866.905	7748.22
867.284	8158.26
867.663	7746.47
868.042	7424.2
868.421	7395.44
868.8	7504.82
869.179	7580.7
869.558	7134.82
869.936	6565.99
870.315	6662.9
870.693	6816.2
871.072	7326.68
871.45	6960.82
871.828	7030.85
872.207	7363.88
872.585	7233.71
872.963	7401.48
873.341	7132.2
873.719	7034.14
874.097	6930.96
874.475	7047.99
874.853	7182.86
875.23	6871.65
875.608	7146.59
875.986	7706.32
876.363	7353.89
876.741	7572.15
877.118	7376.05
877.495	7699.41
877.873	7779.5
878.25	8141.32
878.627	7775.01
879.004	7857.37
879.381	7782.21
879.758	7551.18
880.135	7002.18
880.512	7377.82
880.889	7138.76
881.265	7032.87
881.642	6947.05
882.019	7050.64
882.395	6909.01
882.772	7162.87
883.148	6825.13
883.524	6769.77
883.901	6701.98
884.277	6768.92
884.653	6683.16
885.029	6859.94
885.405	7578.77
885.781	7490.74
886.157	7147.33
886.532	7194.92
886.908	7156.9
887.284	7921.08
887.659	8156.63
888.035	8377.24
888.411	8564.62
888.786	8657.21
889.161	8908.4
889.537	8686.29
889.912	8913.8
890.287	8848.87
890.662	9014.22
891.037	8785.31
891.412	8132.3
891.787	7976.4
892.162	7618.39
892.536	7708.61
892.911	7321.22
893.286	7057.91
893.66	6667.05
894.035	6726.76
894.409	7191.7
894.784	6789.31
895.158	6784.02
895.532	7056.55
895.906	7107.55
896.281	7130.95
896.655	6890.93
897.029	7740.98
897.402	7939.46
897.776	8707.77
898.15	8564.28
898.524	8388.38
898.898	8390.44
899.271	9302.51
899.645	7995.21
900.018	7641.27
900.392	7925.95
900.765	8001.64
901.138	7440.96
901.511	7371.82
901.884	6841.55
902.258	6381.62
902.631	6679.41
903.003	7769.23
903.376	7076.37
903.749	7997.83
904.122	8612.83
904.495	9495.63
904.867	9595.99
905.24	8285.72
905.612	7667.98
905.985	7741.53
906.357	7999.42
906.729	7524.59
907.102	6345.71
907.474	6024.25
907.846	5984.63
908.218	5842.41
908.59	5137.3
908.962	4941.56
909.334	5296.1
909.705	5547.13
910.077	5372.02
910.449	5558.26
910.82	5710.03
911.192	6259.14
911.563	6487.78
911.935	6920.87
912.306	6902.1
912.677	7085.28
913.048	6998.54
913.419	7546.24
913.79	7524.85
914.161	8035.13
914.532	7684.99
914.903	7022.12
915.274	6653.46
915.645	6539.11
916.015	5753.55
916.386	5512.15
916.756	5878.94
917.127	6067.33
917.497	5468.4
917.868	6017.98
918.238	5775.73
918.608	5971.34
918.978	6137.27
919.348	6559.73
919.718	6846.3
920.088	6637.83
920.458	6942.02
920.828	7331.62
921.198	6987.75
921.567	7462.84
921.937	5766.72
922.306	5800.57
922.676	6226
923.045	5209.38
923.415	4937.95
923.784	4479.27
924.153	4608.91
924.522	4588.66
924.891	4299.02
925.26	4572.33
925.629	4420.9
925.998	5037.96
926.367	4875.67
926.736	4631.59
927.104	5422.94
927.473	5726.91
927.842	6788.6
928.21	6561.5
928.578	6688.33
928.947	6169.61
929.315	6054.08
929.683	6945.33
930.051	6799.5
930.42	7658.43
930.788	6325.87
931.156	6088.36
931.523	5570.39
931.891	5002.31
932.259	4663.53
932.627	5302.62
932.994	7296.41
933.362	5942.54
933.729	5062.61
934.097	4770.6
934.464	4004.58
934.831	4548.6
935.199	4445.3
935.566	4312.86
935.933	4338.81
936.3	5314.66
936.667	4171.34
937.034	3945.72
937.401	3929.11
937.767	3450.11
938.134	3144.14
938.501	4511.15
938.867	4948.23
939.234	8538.96
939.6	7374.3
939.967	8400.06
940.333	5740.11
940.699	4929.96
941.065	3884.79
941.431	5157.43
941.798	5093.72
942.163	6739.59
942.529	4203.57
942.895	3850.36
943.261	2507.02
943.627	3295.77
943.992	2890.34
944.358	2866.86
944.723	2911.71
945.089	2819.68
945.454	2615.11
945.82	2739.96
946.185	2624.08
946.55	3070.62
946.915	2770.45
947.28	3256.7
947.645	2865.44
948.01	2664.54
948.375	2827.47
948.74	3353.98
949.104	3904.97
949.469	5550.47
949.834	9798.97
950.198	9416.02
950.562	5638.09
950.927	4715.95
951.291	5616.8
951.655	4779.51
952.02	4420.03
952.384	3327.29
952.748	2933.3
953.112	2915.71
953.476	2537.63
953.839	2339.26
954.203	2327.79
954.567	2886.59
954.931	4464.34
955.294	3860.87
955.658	3881.26
956.021	6644.71
956.385	11106.27
956.748	16305.84
957.111	24863.49
957.474	27916.85
957.837	31340.42
958.2	23252.05
958.563	8366.46
958.926	5725.69
959.289	8676.53
959.652	9729.18
960.015	7329.63
960.377	10571.29
960.74	12056.3
961.102	20773.96
961.465	22591.55
961.827	12773.77
962.189	24665.59
962.552	17288.84
962.914	13920.43
963.276	9010.01
963.638	7487.02
964	7401.46
964.362	5061.65
964.724	4899.77
965.085	3534.31
965.447	2914.59
965.809	3203.51
966.17	3214.38
966.532	3477.3
966.893	3212.27
967.255	2965.17
967.616	3508.13
967.977	2845.06
968.338	3130.57
968.699	2633.58
969.061	2661.79
969.421	2710.68
969.782	3076.7
970.143	2652.73
970.504	2830.23
970.865	3285.96
971.225	3404.9
971.586	3370.45
971.946	4790.85
972.307	4158.82
972.667	5400.23
973.027	5550.11
973.388	6662.54
973.748	4527.21
974.108	4911.78
974.468	6504.04
974.828	5030.48
975.188	3821.07
975.548	3489.41
975.907	2948.57
976.267	3299.15
976.627	2805.67
976.986	2909.31
977.346	2782.74
977.705	2693.91
978.064	2464.82
978.424	2073.08
978.783	2102.16
979.142	2405.38
979.501	2329.3
979.86	2475.04
980.219	2394.95
980.578	3052.34
980.937	3431.41
981.296	3090.32
981.654	3187.26
982.013	4941.23
982.371	6466.18
982.73	6112.83
983.088	7034.41
983.447	7581.36
983.805	10908.95
984.163	22894.02
984.521	25573.78
984.879	37502.16
985.237	-61448.56
985.595	59933.61
985.953	14856.53
986.311	8520.79
986.669	4956.06
987.026	4252.51
987.384	5653.87
987.741	5867.51
988.099	4305.59
988.456	3449.63
988.814	3275.28
989.171	2865.92
989.528	2812.49
989.885	2986.73
990.242	2398.41
990.599	2980.63
990.956	2462.51
991.313	1738.61
991.67	1439.25
992.027	1579.08
992.383	1422.69
992.74	1252.85
993.096	1330.69
993.453	1376.76
993.809	1443.73
994.165	1914.06
994.522	1844.9
994.878	2039.77
995.234	2570.74
995.59	2525.07
995.946	2303.1
996.302	2620.48
996.658	3023.12
997.013	3295.78
997.369	3965.04
997.725	5112.89
998.08	3313.68
998.436	4857.13
998.791	6704.31
999.147	6723.22
999.502	7337.58
999.857	5303.75
1000.212	8701.12
1000.567	12520.64
1000.922	7300.2
1001.277	4664.66
1001.632	3466.1
1001.987	4510.74
1002.342	3256.47
1002.696	2634.2
1003.051	2134.36
1003.406	2614.58
1003.76	2642.39
1004.114	2608.74
1004.469	2205.71
1004.823	1817.99
1005.177	1952.44
1005.531	1545.72
1005.885	1405.79
1006.239	1608.97
1006.593	2033.67
1006.947	2732.88
1007.301	2057.85
1007.655	2230.21
1008.008	1666.94
1008.362	1890.53
1008.715	2737.33
1009.069	2472.53
1009.422	3867.09
1009.776	7690.72
1010.129	5092.22
1010.482	4265.14
1010.835	3562.99
1011.188	7417.54
1011.541	6951.99
1011.894	-41995.86
1012.247	122795.38
1012.6	8369.26
1012.952	5469.2
1013.305	2698.62
1013.657	1954.8
1014.01	1872.05
1014.362	1531.96
1014.715	1436.77
1015.067	1278.37
1015.419	1270.22
1015.771	1154.55
1016.123	1058.98
1016.475	1099.65
1016.827	1166.55
1017.179	1314.91
1017.531	1341.74
1017.883	1383.81
1018.234	1410.16
1018.586	1769.09
1018.938	1927.96
1019.289	2697.01
1019.64	3062.63
1019.992	2816.44
1020.343	2585.69
1020.694	2122.99
1021.045	1867.08
1021.396	2112.12
1021.747	2299.2
1022.098	2667.11
1022.449	1937.58
1022.8	1778.33
1023.151	1253.41
1023.501	1144.38
1023.852	1250.16
1024.202	1324.63
1024.553	1410.19
1024.903	1401.23
1025.253	1254.56
1025.604	1144.47
1025.954	1431.27
1026.304	1717.52
1026.654	2013.95
1027.004	2948.55
1027.354	4636.47
1027.703	4513.87
1028.053	5782.02
1028.403	8805.79
1028.753	12433.86
1029.102	16276.97
1029.452	81323.14
1029.801	3489.83
1030.15	2282.84
1030.499	1894.15
897.758	2795.4
901.051	2757.15
904.343	2787.51
907.636	2787.49
910.928	2854.57
914.22	2760.21
917.511	2769.49
920.803	2839.05
924.094	2859.59
927.384	2834.46
930.675	2799.08
933.965	2748.77
937.255	2754.48
940.544	2726.78
943.834	2649.27
947.123	2595.32
950.411	2695.98
953.7	2665.27
956.988	2627.54
960.276	2571.63
963.563	2657.9
966.851	2650.67
970.138	2714.5
973.424	2705.75
976.711	2651.92
979.997	2805.39
983.283	2838.48
986.568	2737.77
989.853	2759.06
993.138	2786.78
996.423	2869.72
999.708	2804.14
1002.992	2878.48
1006.275	2690.26
1009.559	2746.18
1012.842	2866.67
1016.125	2793.63
1019.408	2771.89
1022.69	2865.58
1025.972	2883.6
1029.254	2856.91
1032.536	2783.23
1035.817	2812.44
1039.098	2748.01
1042.379	2917.58
1045.659	2906.21
1048.939	2835.37
1052.219	2859.27
1055.498	2874.08
1058.778	2855.4
1062.057	2838.32
1065.335	2861.64
1068.614	2881.68
1071.892	2862.77
1075.17	2944.04
1078.447	2929.09
1081.724	2920.95
1085.001	2959.81
1088.278	2933.33
1091.554	2945.48
1094.83	2944.29
1098.106	2971.99
1101.382	3020.31
1104.657	3020.77
1107.932	3015.01
1111.206	2978.3
1114.481	2934.79
1117.755	2936.83
1121.029	2914.4
1124.302	2968.21
1127.575	2916.3
1130.848	2900.67
1134.121	2859.39
1137.393	2804.78
1140.665	2879.41
1143.937	2854.46
1147.208	2811.7
1150.48	2851.51
1153.75	2837.93
1157.021	2873.84
1160.291	2843.17
1163.561	2889.17
1166.831	2879.18
1170.101	2914.08
1173.37	2891.49
1176.639	2829.89
1179.907	2891.95
1183.176	2894.88
1186.444	2903.7
1189.711	2933.1
1192.979	2944.03
1196.246	2898.5
1199.513	2916.81
1202.78	2917.62
1206.046	2927.03
1209.312	2950.29
1212.578	2977.67
1215.843	2925.89
1219.108	2904.89
1222.373	2925.38
1225.638	2886.99
1228.902	2868.74
1232.166	2834.82
1235.43	2817.45
1238.693	2838.1
1241.956	2835.01
1245.219	2876.37
1248.482	2869.68
1251.744	2863.72
1255.006	3020.36
1258.268	2978.4
1261.529	2917.64
1264.79	2926.42
1268.051	3035.92
1271.312	3054.25
1274.572	3015.96
1277.832	3004.64
1281.092	2994.18
1284.351	2963.95
1287.61	2940.29
1290.869	2847.5
1294.128	2820.61
1297.386	2919.31
1300.644	2907.03
1303.902	2919.25
1307.159	2769.47
1310.416	2827.8
1313.673	2854.28
1316.93	2837.46
1320.186	2886.77
1323.442	2933.58
1326.697	2924.72
1329.953	2914
1333.208	2939.24
1336.463	2920
1339.717	2853.48
1342.972	2998.08
1346.226	2974.48
1349.479	2901.21
1352.733	2869.6
1355.986	2896.28
1359.238	2870.29
1362.491	2870.79
1365.743	2877
1368.995	2870.36
1372.247	2883.22
1375.498	2910.35
1378.749	2921.6
1382	2876.58
1385.251	2936.16
1388.501	2896.64
1391.751	2878.12
1395	2850.09
1398.25	2883.58
1401.499	2889.07
1404.748	2810.59
1407.996	2802.99
1411.244	2786.76
1414.492	2765.86
1417.74	2740.75
1420.987	2753.13
1424.234	2813.72
1427.481	2793.14
1430.728	2855.85
1433.974	2827.62
1437.22	2845.03
1440.465	2846.87
1443.711	2804.63
1446.956	2842.34
1450.201	2831.89
1453.445	2880.61
1456.689	2854.84
1459.933	2867.46
1463.177	2899.64
1466.42	2870.23
1469.663	2850.29
1472.906	2841.49
1476.148	2930.88
1479.391	2874.38
1482.633	2848.07
1485.874	2857.24
1489.115	2840.67
1492.356	2848.61
1495.597	2823.31
1498.838	2826.23
1502.078	2790.53
1505.318	2735.73
1508.557	2783.3
1511.797	2746.99
1515.036	2837.6
1518.274	2821.54
1521.513	2799.56
1524.751	2820.79
1527.989	2831.18
1531.227	2843.17
1534.464	2837.18
1537.701	2860.49
1540.938	2882.58
1544.174	2832.92
1547.41	2833.43
1550.646	2876.48
1553.882	2913.41
1557.117	2964.98
1560.352	2982.75
1563.587	2940.43
1566.821	2898.05
1570.055	2935.39
1573.289	2904.22
1576.523	2984.96
1579.756	2991.99
1582.989	3008.49
1586.222	2964.96
1589.454	3005.25
1592.686	2974.1
1595.918	2999.56
1599.15	2986.99
1602.381	3066
1605.612	3016.68
1608.843	3116.55
1612.073	3026.07
1615.303	3006.83
1618.533	3000.03
1621.762	3004.99
1624.992	2992.32
1628.221	2977.47
1631.449	2962.43
1634.678	3024.2
1637.906	2976.66
1641.134	3018.15
1644.361	2972.92
1647.588	2957.7
1650.815	2974.97
1654.042	2951.9
1657.269	2985.41
1660.495	2931.76
1663.72	2938.57
1666.946	2900.59
1670.171	2834.87
1673.396	2812.46
1676.621	2801.42
1679.845	2824.09
1683.069	2848.87
1686.293	2893.66
1689.517	2861.95
1692.74	2783.08
1695.963	2817.16
1699.185	2849.35
1702.408	2825.33
1705.63	2869.15
1708.852	2878.59
1712.073	2851.19
1715.294	2833.42
1718.515	2897.41
1721.736	2841.19
1724.956	2837.45
1728.176	2864.45
1731.396	2888.81
1734.616	2875.8
1737.835	2900.53
1741.054	2882.36
1744.272	2877.35
1747.491	2905.75
1750.709	2966.74
1753.927	2862.04
1757.144	2911.77
1760.361	2953.77
1763.578	2949.51
1766.795	2887.07
1770.011	2899.6
1773.227	2942.1
1776.443	2978.8
1779.658	3022.04
1782.874	2965.73
1786.089	2940.24
1789.303	2943.73
1792.518	2951.26
1795.732	2938.23
1798.945	2947.97
1802.159	3000.07
1805.372	2890.66
1808.585	2877.71
1811.797	2876.91
1815.01	2932.54
1818.222	2930.61
1821.434	2884.76
1824.645	2949.82
1827.856	2928.21
1831.067	2966.6
1834.278	2924.43
1837.488	2907.65
1840.698	3064.85
1843.908	2981.81
1847.117	2946.04
1850.326	2819.4
1853.535	2932.14
1856.744	2980.08
1859.952	2887.92
1863.16	2891.75
1866.368	2913.46
1869.575	3020.25
1872.782	2901.25
1875.989	2838.6
1879.196	2931.7
1882.402	2923.29
1885.608	2966.32
1888.814	2863.35
1892.019	2748.95
1895.224	2803.98
1898.429	2784.37
1901.634	2761.92
1904.838	2736.93
1908.042	2790.47
1911.246	2795.91
1914.449	2719.35
1917.652	2715.26
1920.855	2701.2
1924.058	2755.47
1927.26	2793.46
1930.462	2824.1
1933.664	2850.39
1936.865	2785.81
1940.066	2792.26
1943.267	2736.12
1946.467	2755.39
1949.668	2784.69
1952.868	2858.82
1956.067	2828.82
1959.267	2756.6
1962.466	2784.53
1965.665	2768.52
1968.863	2765.23
1972.061	2780.71
1975.259	2782.1
1978.457	2863.21
1981.654	2818.85
1984.852	2819.69
1988.048	2745.15
1991.245	2753.01
1994.441	2840.85
1997.637	2828.28
2000.833	2806
2004.028	2848.89
2007.223	2900.32
2010.418	2876.94
2013.613	2837.97
2016.807	2804.2
2020.001	2814.31
2023.194	2862.6
2026.388	2835.79
2029.581	2777.77
2032.774	2828.3
2035.966	2834.49
2039.158	2761.05
2042.35	2792.06
2045.542	2717.15
2048.733	2823.16
2051.924	2851.81
2055.115	2881.82
2058.306	2820.09
2061.496	2882.81
2064.686	2952.66
2067.875	2864.72
2071.065	2881.92
2074.254	2911.27
2077.442	2860.75
2080.631	2955.53
2083.819	2837.62
2087.007	2819.25
2090.195	2784.78
2093.382	2823.84
2096.569	2800.97
2099.756	2752.91
2102.942	2774.59
2106.128	2779.56
2109.314	2771.22
2112.5	2730.61
2115.685	2706.13
2118.87	2717.17
2122.055	2782.24
2125.239	2748.23
2128.424	2720.95
2131.608	2830.54
2134.791	2812.79
2137.974	2877.13
2141.157	2860.49
2144.34	2806.06
2147.523	2826.22
2150.705	2837.1
2153.887	2818.64
2157.068	2763.23
2160.25	2767.49
2163.431	2809.14
2166.611	2751.65
2169.792	2766.68
2172.972	2652.36
2176.152	2737.92
2179.331	2776.76
2182.511	2754.79
2185.69	2786.68
2188.868	2781.58
2192.047	2841.5
2195.225	2828.62
2198.403	2773.16
2201.58	2769.2
2204.758	2764.79
2207.935	2852.73
2211.111	2736.3
2214.288	2716.58
2217.464	2760.02
2220.64	2732.76
2223.815	2788.49
2226.991	2705
2230.166	2726.42
2233.34	2759.18
2236.515	2783.82
2239.689	2858.35
2242.863	2803.14
2246.036	2858.86
2249.209	2862.86
2252.382	2900.72
2255.555	2882.91
2258.727	2818.13
2261.9	2860.8
2265.071	2851.48
2268.243	2854.33
2271.414	2779.81
2274.585	2740.27
2277.756	2806.22
2280.926	2760.08
2284.096	2806.33
2287.266	2704.42
2290.436	2765.64
2293.605	2793.04
2296.774	2823.64
2299.942	2846.49
2303.111	2863.46
2306.279	2915.9
2309.447	2901.21
2312.614	2878.7
2315.781	2896.69
2318.948	2864.26
2322.115	2906.19
2325.281	2801.42
2328.447	2826.62
2331.613	2799.31
2334.779	2771
2337.944	2774.69
2341.109	2771.03
2344.274	2752.83
2347.438	2715.08
2350.602	2745.8
2353.766	2761.36
2356.929	2745.32
2360.092	2790.2
2363.255	2739.47
2366.418	2668.29
2369.58	2792.58
2372.742	2554.35
2375.904	2574.86
2379.066	2548.15
2382.227	2586.06
2385.388	2544.83
2388.548	2466.01
2391.709	2524.78
2394.869	2504.25
2398.029	2608.84
2401.188	2623.69
2404.347	2551.24
2407.506	2711.65
2410.665	2738.35
2413.823	2746.42
2416.981	2700.14
2420.139	2738.12
2423.296	2789.47
2426.453	2763.83
2429.61	2785.28
2432.767	2713.48
2435.923	2753.69
2439.079	2706.42
2442.235	2759.48
2445.391	2679.88
2448.546	2710.62
2451.701	2763.98
2454.855	2729.58
2458.009	2786.94
2461.163	2790.55
2464.317	2749.92
2467.471	2785.37
2470.624	2828.52
2473.777	2808.92
2476.929	2817.38
2480.082	2846.9
2483.234	2807.17
2486.385	2760.67
2489.537	2752.54
2492.688	2709.05
2495.839	2726.27
2498.989	2737.06
2502.14	2718.47
2505.29	2699.57
2508.439	2722.95
2511.589	2644.41
2514.738	2658.67
2517.887	2690.78
2521.035	2758.69
2524.183	2743.22
2527.331	2721.38
2530.479	2691.81
2533.627	2702.99
