Data from N_3_DEC_ON_6N_Splice17_13-37-22-899.txt Node
Date: Sat Mar 14 13:37:22 EDT 2020
User: sa697716
Spectrometer: FLMS03696
Trigger mode: 0
Integration Time (sec): 3.180400E-1
Scans to average: 20
Electric dark correction enabled: true
Nonlinearity correction enabled: true
Boxcar width: 5
XAxis mode: Wavelengths
Number of Pixels in Spectrum: 2048
>>>>>Begin Spectral Data<<<<<
187.83	-364090.28
188.298	2644.61
188.766	1397.25
189.233	1254.16
189.701	1744.93
190.169	2386.73
190.636	891.5
191.104	637.98
191.571	25.75
192.039	-113.44
192.506	-75.93
192.974	694.67
193.441	-1157.06
193.908	-383.98
194.375	-118.61
194.842	-70.49
195.31	6.63
195.777	181.07
196.244	432.99
196.711	482.92
197.177	620.73
197.644	856.52
198.111	1473.31
198.578	2030.9
199.045	1602.88
199.511	2587.85
199.978	2987.63
200.445	2550.4
200.911	2820.15
201.378	3071.35
201.844	2794.04
202.31	4765.74
202.777	4999.84
203.243	2738.4
203.709	2601.92
204.176	3087.12
204.642	2531.96
205.108	2361.31
205.574	1892.77
206.04	1691.38
206.506	1590.55
206.972	1478.66
207.438	1423.69
207.903	1594.72
208.369	1420.81
208.835	1413.32
209.301	1487.63
209.766	1506.35
210.232	1494.87
210.697	1860.28
211.163	2270.97
211.628	3403.11
212.094	2856.28
212.559	3528.15
213.024	2218.8
213.49	2732.73
213.955	2676.96
214.42	2563.29
214.885	2383.94
215.35	2284.59
215.815	2225.42
216.28	2370.8
216.745	1919.26
217.21	2062.3
217.675	1825.95
218.14	2014.67
218.604	2167.24
219.069	2411.95
219.534	2515.4
219.998	2874.18
220.463	3400.95
220.927	4048.14
221.392	3750.57
221.856	3761.24
222.32	4645.73
222.785	5748.84
223.249	7195.85
223.713	7986
224.177	7935.34
224.642	10106.87
225.106	12438.15
225.57	13552.69
226.034	10123.92
226.497	15363.49
226.961	13888.41
227.425	16214
227.889	17879.65
228.353	17825.41
228.816	36756.1
229.28	35203.05
229.744	29556.9
230.207	17936.46
230.671	17654.96
231.134	29000.94
231.597	33508.51
232.061	33425.25
232.524	32479.2
232.987	22360.32
233.45	20128.97
233.914	18070.2
234.377	18479.39
234.84	16924.33
235.303	19922.76
235.766	22208.47
236.229	22913.34
236.691	14379.75
237.154	16127.27
237.617	12166.83
238.08	12455.27
238.542	14560.81
239.005	10404.44
239.468	10334.44
239.93	9738.27
240.393	8838.41
240.855	7765.34
241.317	7959.65
241.78	9694.13
242.242	10041.46
242.704	10854.39
243.166	9454.12
243.629	8620.56
244.091	9948.5
244.553	10909.45
245.015	11765.08
245.477	15235.1
245.939	22315.81
246.4	23730.08
246.862	23052.19
247.324	21738.99
247.786	24298.08
248.247	31886.23
248.709	32815.42
249.17	24562.49
249.632	23257.7
250.093	27002.28
250.555	23363.78
251.016	14280.61
251.477	13553.92
251.939	14665.48
252.4	15410.92
252.861	18323.1
253.322	17083.47
253.783	20313.92
254.244	26341.51
254.705	20711.5
255.166	18415.81
255.627	18122.88
256.088	25605.14
256.549	27205.97
257.009	23392.34
257.47	28316.16
257.931	23074.57
258.391	17277.98
258.852	17815.49
259.312	18662.28
259.773	23070.94
260.233	19516.47
260.694	16517.65
261.154	18736.52
261.614	15096.47
262.074	13513.71
262.534	14084.98
262.994	13325.56
263.455	17756.79
263.915	14999.95
264.374	14134.72
264.834	15436.2
265.294	17106.31
265.754	17713.09
266.214	16769.58
266.673	15711.52
267.133	19851.29
267.593	19667.02
268.052	24064.79
268.512	20949.72
268.971	25346.8
269.431	27835.33
269.89	24930.7
270.349	37402.48
270.809	41705.18
271.268	37560.17
271.727	84235.99
272.186	54657.76
272.645	41109.81
273.104	29649.44
273.563	42966.22
274.022	33729.5
274.481	28778.21
274.94	22201.88
275.399	16504.57
275.857	19234.91
276.316	26003.58
276.775	23156.75
277.233	22822.04
277.692	21402.51
278.15	24250.8
278.609	24993.95
279.067	23153.53
279.525	21517.5
279.984	27770.28
280.442	33401.3
280.9	33067.16
281.358	21779.38
281.816	20328.68
282.274	19905.97
282.732	20559.22
283.19	20653.73
283.648	17824.25
284.106	18999.88
284.564	19316.27
285.021	17961.86
285.479	13402.97
285.937	12160.39
286.394	10714.34
286.852	11022.21
287.309	11605.23
287.767	11243.61
288.224	10704.81
288.682	11738.54
289.139	12932.45
289.596	11864.53
290.053	12345.68
290.511	15595.27
290.968	18950.68
291.425	25672.31
291.882	21448.62
292.339	18685.34
292.796	18504.11
293.252	17420.59
293.709	13881.31
294.166	12441.62
294.623	13758.89
295.079	13211.5
295.536	13288.38
295.992	12083.92
296.449	11949.67
296.905	12420.2
297.362	11921.11
297.818	12553.67
298.274	13071.48
298.731	13301.21
299.187	13130.3
299.643	14078.04
300.099	17009.84
300.555	18665.38
301.011	15599.61
301.467	15102.99
301.923	17649.86
302.379	17260.51
302.835	16952.3
303.291	16975.95
303.746	19383.92
304.202	24543.39
304.658	24692.62
305.113	16639.28
305.569	16296.19
306.024	17375.01
306.479	16497.56
306.935	13928.59
307.39	15206.55
307.845	14053.21
308.301	14170.41
308.756	13795.57
309.211	13313.47
309.666	13619.77
310.121	16959.46
310.576	17213.6
311.031	17070.36
311.486	19515.7
311.94	19507.32
312.395	26049.83
312.85	49002.06
313.305	240201.61
313.759	1250203.23
314.214	90568.22
314.668	72099.59
315.123	60609.11
315.577	21817.09
316.032	19421.29
316.486	24427.48
316.94	19320.86
317.394	13496.18
317.849	10510.43
318.303	9945.77
318.757	9355.26
319.211	10363.51
319.665	9061.14
320.119	9187.87
320.572	13168.11
321.026	12336.33
321.48	10284.12
321.934	11189.84
322.387	11209.28
322.841	12106.58
323.295	10959.86
323.748	12597.73
324.202	12773.32
324.655	15347.24
325.108	21503.36
325.562	15217.49
326.015	18067.52
326.468	13646.5
326.921	15296.15
327.374	14300.28
327.827	14934.58
328.28	16861.03
328.733	11358.33
329.186	9999.16
329.639	9539.14
330.092	8030.74
330.545	7650.65
330.997	7729.34
331.45	8468.5
331.903	9939.36
332.355	17040.76
332.808	16561.55
333.26	13666.71
333.713	14845.23
334.165	14942.54
334.617	19947.6
335.069	16039.88
335.522	28881.54
335.974	31976.14
336.426	29150.33
336.878	20157.06
337.33	10251.65
337.782	9992.2
338.234	12569.72
338.686	15035.51
339.137	17867.77
339.589	16862.12
340.041	13290.87
340.493	11487.85
340.944	11770.61
341.396	12692.43
341.847	10719.12
342.299	12703.81
342.75	15564.76
343.201	13523.13
343.653	15507.98
344.104	19014.54
344.555	14953.56
345.006	23194.14
345.457	17818.12
345.908	14155.24
346.359	13372.77
346.81	10867.58
347.261	11426.27
347.712	11230.47
348.163	12056.96
348.613	12281.04
349.064	11492.38
349.515	10058.25
349.965	10342.42
350.416	12429.67
350.866	13634.71
351.317	15358.65
351.767	25462.75
352.217	32204.36
352.668	26759.73
353.118	24513.3
353.568	23577.85
354.018	18702.53
354.468	19778.75
354.918	14204.52
355.368	12431.58
355.818	17609.46
356.268	50722.08
356.718	212420.72
357.168	52865.03
357.617	26520.2
358.067	29553.95
358.517	27708.85
358.966	32538.08
359.416	36571.58
359.865	39572.17
360.315	47198.92
360.764	22072.67
361.213	12389.16
361.663	11759.39
362.112	14529.58
362.561	23528.46
363.01	17784.48
363.459	14987.11
363.908	16229.39
364.357	13835.73
364.806	23389.98
365.255	16120.94
365.703	14826.47
366.152	14918.18
366.601	12150.31
367.05	9925
367.498	9062.98
367.947	9506.91
368.395	9921.08
368.844	8837.55
369.292	10671.39
369.74	7441.49
370.189	11468.12
370.637	13532.79
371.085	11724.78
371.533	14345.18
371.981	13927.56
372.429	13391.67
372.877	14083.04
373.325	11921.31
373.773	12254.41
374.221	11030.53
374.669	13822.49
375.116	12073.52
375.564	12285.51
376.012	13926.69
376.459	11653.23
376.907	14057.2
377.354	17158.42
377.801	16233.01
378.249	18940.26
378.696	24540.95
379.143	30150.73
379.591	32584.79
380.038	55921.38
380.485	41092.73
380.932	45009.66
381.379	41797.3
381.826	31277.12
382.273	22624.11
382.72	20067.97
383.166	19852.68
383.613	13096.68
384.06	11996.43
384.506	14107.28
384.953	10533.73
385.4	10771.9
385.846	9582.1
386.292	9482.2
386.739	9426.47
387.185	9465
387.631	9607.72
388.078	9455.11
388.524	10247.19
388.97	9593.35
389.416	8116.16
389.862	8756.72
390.308	8400.85
390.754	8640.8
391.2	9486.75
391.645	9821.43
392.091	9477.12
392.537	9254.04
392.983	9374.17
393.428	9307.97
393.874	10074.72
394.319	10203.17
394.765	9758.59
395.21	10139.39
395.655	9598.19
396.101	9078.61
396.546	8269.66
396.991	8432.14
397.436	7891.95
397.881	7682.78
398.326	7341.37
398.771	6989.54
399.216	6161.84
399.661	5587.05
400.106	5605.16
400.551	5770.23
400.995	5208.95
401.44	5184.58
401.885	4900.5
402.329	4982.08
402.774	4802.01
403.218	4661.55
403.663	4516.34
404.107	4663.41
404.551	4715.55
404.995	4337.83
405.44	4200.35
405.884	4278.04
406.328	4154.2
406.772	4153.93
407.216	3791.37
407.66	3674.29
408.104	3503.44
408.547	3288.84
408.991	3189.79
409.435	3084.38
409.879	3048.75
410.322	3017.76
410.766	2920.18
411.209	2779.13
411.653	2673.22
412.096	2622.22
412.54	2632.11
412.983	2621.33
413.426	2631.95
413.869	2634.5
414.312	2583.36
414.756	2493.25
415.199	2379.61
415.642	2311.09
416.085	2318.16
416.527	2305.3
416.97	2349.19
417.413	2227.61
417.856	2207.08
418.298	2188.63
418.741	2176.59
419.184	2176.7
419.626	2271.72
420.069	2277.68
420.511	2293.4
420.953	2246.54
421.396	2231.73
421.838	2174.9
422.28	2229.17
422.722	2241.61
423.164	2276.93
423.606	2240.71
424.048	2237.89
424.49	2127.28
424.932	2116.17
425.374	2089.05
425.816	2125.8
426.258	2158.97
426.699	2177.33
427.141	2133.22
427.582	2159.23
428.024	2141.11
428.465	2125.1
428.907	2073.82
429.348	2048.04
429.789	2045.26
430.231	2000.95
430.672	2027.53
431.113	1980.1
431.554	1955.37
431.995	1916.66
432.436	1853.21
432.877	1818.03
433.318	1790.95
433.759	1785.96
434.2	1788.5
434.64	1773.87
435.081	1779.77
435.522	1687.58
435.962	1631.37
436.403	1600
436.843	1625.85
437.284	1596.83
437.724	1559.72
438.164	1569.11
438.604	1538.36
439.045	1484.39
439.485	1427.38
439.925	1406.26
440.365	1379.31
440.805	1368.31
441.245	1357.59
441.685	1312.14
442.125	1309.29
442.564	1321.04
443.004	1295.14
443.444	1296.53
443.883	1304.06
444.323	1302.49
444.762	1311.74
445.202	1335.84
445.641	1365.15
446.081	1366.96
446.52	1384.72
446.959	1379.59
447.398	1352.83
447.837	1344.08
448.276	1327.89
448.716	1345.54
449.154	1362.59
449.593	1334.7
450.032	1335.63
450.471	1315.08
450.91	1317.04
451.349	1316.86
451.787	1311.55
452.226	1333.98
452.664	1337.58
453.103	1342.88
453.541	1345.62
453.98	1344.71
454.418	1356.43
454.856	1335.14
455.295	1333.96
455.733	1347.25
456.171	1357.03
456.609	1358.04
457.047	1358.51
457.485	1376.97
457.923	1377.06
458.361	1359.45
458.798	1365.88
459.236	1363.61
459.674	1375.72
460.111	1383.68
460.549	1369.37
460.987	1367.78
461.424	1366.86
461.862	1362.46
462.299	1342.66
462.736	1341.82
463.173	1347.64
463.611	1331.14
464.048	1326.11
464.485	1337.83
464.922	1327.76
465.359	1323.61
465.796	1300.29
466.233	1291.84
466.67	1280.38
467.106	1279.88
467.543	1271.15
467.98	1256.98
468.416	1229.15
468.853	1223.75
469.29	1189.92
469.726	1181.62
470.162	1154.74
470.599	1150.03
471.035	1144.8
471.471	1122.56
471.907	1121.82
472.344	1118.96
472.78	1125.92
473.216	1144.07
473.652	1134.18
474.088	1136.63
474.523	1136.24
474.959	1150.61
475.395	1143.65
475.831	1139.2
476.266	1148.73
476.702	1146.66
477.138	1137.32
477.573	1136.17
478.008	1134.25
478.444	1141.13
478.879	1151.61
479.314	1157.45
479.75	1156.13
480.185	1160.96
480.62	1171.18
481.055	1176.3
481.49	1184.03
481.925	1199.45
482.36	1215.62
482.795	1245.49
483.229	1274.12
483.664	1294.05
484.099	1294.96
484.534	1312.57
484.968	1322.97
485.403	1326.08
485.837	1323.2
486.271	1320.73
486.706	1323.25
487.14	1312.13
487.574	1294.69
488.009	1287.86
488.443	1281.96
488.877	1296.52
489.311	1302.66
489.745	1319.61
490.179	1333.23
490.613	1358.9
491.046	1371.25
491.48	1383.02
491.914	1386.09
492.348	1398.43
492.781	1408.44
493.215	1413.49
493.648	1418.85
494.082	1433.18
494.515	1436.83
494.948	1453.46
495.382	1465.45
495.815	1476.4
496.248	1488.2
496.681	1515.93
497.114	1539.54
497.547	1559.36
497.98	1583.5
498.413	1593.86
498.846	1610.19
499.279	1626.67
499.711	1634.46
500.144	1638.89
500.577	1658.44
501.009	1679.03
501.442	1694.97
501.874	1695.17
502.306	1698.88
502.739	1712.77
503.171	1742.64
503.603	1749.03
504.036	1765.38
504.468	1773.72
504.9	1791.4
505.332	1802.26
505.764	1806.09
506.196	1815.87
506.627	1839.92
507.059	1860.13
507.491	1873.13
507.923	1862.46
508.354	1884.26
508.786	1897.24
509.217	1923.31
509.649	1943.44
510.08	1969.47
510.512	1990.86
510.943	2007.84
511.374	2017.1
511.805	2043.11
512.237	2066.71
512.668	2113.3
513.099	2147.27
513.53	2178.64
513.961	2196.33
514.391	2234.14
514.822	2273.43
515.253	2317.78
515.684	2344.21
516.114	2376.91
516.545	2397.8
516.975	2427
517.406	2443.61
517.836	2435.87
518.267	2438.02
518.697	2460.87
519.127	2460.45
519.558	2463.59
519.988	2460.5
520.418	2470.26
520.848	2491.89
521.278	2497.33
521.708	2504.92
522.138	2515.33
522.567	2557.14
522.997	2585.29
523.427	2596.12
523.857	2608.25
524.286	2609.97
524.716	2621.39
525.145	2639.72
525.575	2646.73
526.004	2659.52
526.433	2648.74
526.863	2641.82
527.292	2618.21
527.721	2623.46
528.15	2631.08
528.579	2630.89
529.008	2646.3
529.437	2678.09
529.866	2692.63
530.295	2711.11
530.724	2721.31
531.152	2754.23
531.581	2767.6
532.01	2788.41
532.438	2795.49
532.867	2812.24
533.295	2834.18
533.723	2837.98
534.152	2830.91
534.58	2827.13
535.008	2801.67
535.436	2802.88
535.865	2812.6
536.293	2830.76
536.721	2849.72
537.149	2880.68
537.576	2875.78
538.004	2889.61
538.432	2898.24
538.86	2891.23
539.287	2901.25
539.715	2918.14
540.143	2921.07
540.57	2913.36
540.998	2908.27
541.425	2874.34
541.852	2845.54
542.28	2847.88
542.707	2826.85
543.134	2809.1
543.561	2808.24
543.988	2798.91
544.415	2801.47
544.842	2793.61
545.269	2785.86
545.696	2791.39
546.123	2813.76
546.549	2800.95
546.976	2784.06
547.403	2786.64
547.829	2792.39
548.256	2797.33
548.682	2794.38
549.108	2787.03
549.535	2791.78
549.961	2798.14
550.387	2780.91
550.813	2775.27
551.24	2788.89
551.666	2793.04
552.092	2781.48
552.518	2775.18
552.943	2768.36
553.369	2782.29
553.795	2790.48
554.221	2791.72
554.646	2787.9
555.072	2805.08
555.498	2813.2
555.923	2825.84
556.349	2849.27
556.774	2861.29
557.199	2861.78
557.625	2872.32
558.05	2865.07
558.475	2885.89
558.9	2888.3
559.325	2878.17
559.75	2871.32
560.175	2866.61
560.6	2860.78
561.025	2862.15
561.449	2868.52
561.874	2881.84
562.299	2891.66
562.723	2904.83
563.148	2889.17
563.572	2898.09
563.997	2917.98
564.421	2930.59
564.846	2933.86
565.27	2944.05
565.694	2942.34
566.118	2962.92
566.542	2977.16
566.966	2970.78
567.39	2966.57
567.814	2953.05
568.238	2956.66
568.662	2968.82
569.086	2979.64
569.509	2999.38
569.933	2980.52
570.357	2979.96
570.78	2957.25
571.204	2944.74
571.627	2937.37
572.05	2944.46
572.474	2956.57
572.897	2946.3
573.32	2942.91
573.743	2934.9
574.166	2911.65
574.589	2921.92
575.012	2915.8
575.435	2920.26
575.858	2913.01
576.281	2901.09
576.704	2884.17
577.126	2872.03
577.549	2861.95
577.972	2855.58
578.394	2847.21
578.817	2843.55
579.239	2819.04
579.661	2803.23
580.084	2784.64
580.506	2770.42
580.928	2773.82
581.35	2762.99
581.772	2762.77
582.194	2745.16
582.616	2727.45
583.038	2705.58
583.46	2691.62
583.882	2690.24
584.303	2701.56
584.725	2697.32
585.147	2699.89
585.568	2714.97
585.99	2729.92
586.411	2734.57
586.833	2755.07
587.254	2754.3
587.675	2778.13
588.096	2798.38
588.518	2787.37
588.939	2756.7
589.36	2752.71
589.781	2738.13
590.202	2690.28
590.623	2681.79
591.043	2684.99
591.464	2670.04
591.885	2667.24
592.305	2659.81
592.726	2637.72
593.147	2642.94
593.567	2636.21
593.987	2624.17
594.408	2616.09
594.828	2616.22
595.248	2606.3
595.669	2573.83
596.089	2561.85
596.509	2551.78
596.929	2529.39
597.349	2531.94
597.769	2513.35
598.189	2501.14
598.608	2504.08
599.028	2508.24
599.448	2508.92
599.867	2487.53
600.287	2482
600.706	2475.67
601.126	2460.62
601.545	2460.36
601.965	2459.19
602.384	2451.46
602.803	2460.76
603.222	2454.34
603.641	2445.2
604.061	2440.02
604.48	2435.58
604.898	2451.41
605.317	2461.54
605.736	2467.02
606.155	2462.53
606.574	2447.72
606.992	2459.22
607.411	2452.1
607.829	2438.57
608.248	2434.91
608.666	2434.54
609.085	2435.59
609.503	2422.9
609.921	2415.4
610.339	2421.51
610.758	2422.78
611.176	2417.98
611.594	2405.21
612.012	2401.79
612.43	2411.5
612.847	2426.07
613.265	2428.21
613.683	2439.61
614.101	2446.1
614.518	2442.16
614.936	2427.97
615.353	2406.43
615.771	2405.72
616.188	2410.02
616.606	2409.16
617.023	2401.85
617.44	2380.7
617.857	2374.98
618.274	2363.43
618.691	2355.1
619.108	2341.8
619.525	2334.05
619.942	2348.54
620.359	2355.01
620.776	2347.67
621.192	2339.72
621.609	2333.8
622.026	2347.02
622.442	2356.08
622.859	2362.55
623.275	2348.35
623.691	2358.97
624.108	2379.44
624.524	2404.75
624.94	2404.04
625.356	2421.03
625.772	2445.89
626.188	2468.96
626.604	2469.97
627.02	2463.3
627.436	2458.06
627.852	2470.29
628.268	2490.81
628.683	2472.67
629.099	2456.69
629.514	2448.87
629.93	2456.76
630.345	2464.71
630.761	2458.15
631.176	2465.61
631.591	2452.66
632.007	2444.2
632.422	2442.86
632.837	2423.59
633.252	2421.67
633.667	2405.98
634.082	2389.97
634.497	2366.99
634.911	2333.37
635.326	2329.38
635.741	2301.06
636.155	2288.18
636.57	2291.47
636.984	2293.89
637.399	2299.96
637.813	2302.16
638.228	2303.87
638.642	2315.51
639.056	2302.85
639.47	2307.23
639.884	2295.39
640.298	2287.43
640.712	2289.52
641.126	2271.16
641.54	2258.99
641.954	2256.06
642.368	2236.53
642.781	2224.56
643.195	2195.25
643.609	2198.39
644.022	2189.97
644.436	2183.62
644.849	2161.77
645.262	2140.69
645.676	2145.56
646.089	2138.47
646.502	2108.01
646.915	2100.34
647.328	2069.76
647.741	2068.25
648.154	2045.2
648.567	2040.82
648.98	2016.88
649.393	2020.92
649.805	2017.16
650.218	2005.25
650.631	1977.38
651.043	1969.61
651.456	1960.58
651.868	1963.7
652.28	1997.86
652.693	2026.12
653.105	2038.82
653.517	2057.29
653.929	2057.13
654.341	2067.36
654.753	2044.54
655.165	2058.49
655.577	2053.74
655.989	2046.92
656.401	2036.68
656.813	1968.66
657.224	1934.43
657.636	1883.94
658.047	1854.26
658.459	1821.89
658.87	1810.81
659.282	1791.75
659.693	1753.2
660.104	1727.94
660.515	1704.62
660.926	1701.19
661.338	1696.22
661.749	1683.67
662.159	1663.93
662.57	1656
662.981	1645.92
663.392	1629.15
663.803	1635.08
664.213	1630.2
664.624	1618.83
665.035	1620.04
665.445	1590.66
665.855	1572.25
666.266	1551.6
666.676	1543.7
667.086	1522.18
667.497	1514.87
667.907	1498.23
668.317	1475.6
668.727	1459.7
669.137	1456.52
669.547	1447.11
669.956	1446.6
670.366	1445.67
670.776	1443.35
671.186	1445.86
671.595	1446.1
672.005	1448.17
672.414	1441.59
672.824	1432.89
673.233	1438.2
673.642	1437.25
674.052	1438.09
674.461	1435.2
674.87	1439.85
675.279	1430.15
675.688	1428.49
676.097	1426.26
676.506	1417.42
676.915	1439.94
677.323	1441.64
677.732	1434.69
678.141	1430.63
678.549	1409.63
678.958	1408.66
679.366	1407.58
679.775	1417.96
680.183	1437.71
680.592	1451.66
681	1464.18
681.408	1455.92
681.816	1475.38
682.224	1497.72
682.632	1521.49
683.04	1583.9
683.448	1635.61
683.856	1696.83
684.264	1764.75
684.671	1828.36
685.079	1905.58
685.487	1989.71
685.894	2106.91
686.302	2199.19
686.709	2274.38
687.116	2359.73
687.524	2422.79
687.931	2474.44
688.338	2513.87
688.745	2545.63
689.152	2580.9
689.559	2629.31
689.966	2674.29
690.373	2673.79
690.78	2707.26
691.187	2773.87
691.593	2812.16
692	2838.24
692.407	2893.66
692.813	2968.55
693.22	3015.92
693.626	3066.22
694.032	3095.18
694.439	3162.63
694.845	3204.17
695.251	3270.55
695.657	3320.13
696.063	3416.18
696.469	3472.83
696.875	3519.31
697.281	3524.03
697.687	3540.62
698.093	3543.58
698.498	3597.76
698.904	3625.5
699.31	3694.85
699.715	3727.43
700.12	3800.94
700.526	3783.28
700.931	3829.95
701.337	3857.65
701.742	3864.06
702.147	3932.08
702.552	3936.37
702.957	3977.35
703.362	3969.62
703.767	3972.31
704.172	3991.44
704.577	3906.86
704.981	3932.6
705.386	3922.21
705.791	3886.49
706.195	3942.47
706.6	3927.89
707.004	3991.84
707.408	3930.78
707.813	3938.05
708.217	3904.07
708.621	3883.08
709.025	3968.43
709.43	3947.68
709.834	3993.16
710.237	4045.98
710.641	4007.28
711.045	4011.09
711.449	3986.51
711.853	3997.87
712.256	4020.4
712.66	4038.96
713.064	4094.82
713.467	4112.91
713.87	4202.51
714.274	4216.74
714.677	4294.35
715.08	4422.65
715.484	4550.25
715.887	4709.38
716.29	4862
716.693	5023.85
717.096	5210.34
717.499	5297.75
717.901	5290.36
718.304	5290.6
718.707	5303.8
719.109	5203.75
719.512	5170.49
719.915	5041.11
720.317	4983.76
720.719	5020.02
721.122	4988.03
721.524	4937.08
721.926	4893.02
722.328	4976.94
722.731	4953.95
723.133	4960.83
723.535	5118.11
723.937	5118.25
724.338	5148.69
724.74	5173.87
725.142	5135.02
725.544	5123.08
725.945	5145.83
726.347	5133.16
726.748	5120.39
727.15	5125.59
727.551	5090.28
727.952	5056.24
728.354	5023.06
728.755	5018.63
729.156	4977.31
729.557	4932.52
729.958	4825.75
730.359	4770.24
730.76	4755.95
731.161	4707.78
731.562	4691.13
731.962	4695.1
732.363	4643.17
732.763	4593.02
733.164	4628.51
733.564	4568.75
733.965	4485.51
734.365	4453.12
734.766	4477.7
735.166	4440.79
735.566	4385.25
735.966	4358.46
736.366	4351.11
736.766	4293.91
737.166	4317.58
737.566	4278.01
737.966	4255
738.365	4289.21
738.765	4282.89
739.165	4213.82
739.564	4189.21
739.964	4229.92
740.363	4188.14
740.763	4185.54
741.162	4175.53
741.561	4147.42
741.96	4106.36
742.36	4122.35
742.759	4126.47
743.158	4159.71
743.557	4173.31
743.955	4208.54
744.354	4167.87
744.753	4218.9
745.152	4180.81
745.55	4228.02
745.949	4222.06
746.348	4220.87
746.746	4234.21
747.144	4199.02
747.543	4178.85
747.941	4222.59
748.339	4157.71
748.737	4148.33
749.136	4138.47
749.534	4193.46
749.932	4168.03
750.33	4186.06
750.727	4235.19
751.125	4214.29
751.523	4196.69
751.921	4236.3
752.318	4207.05
752.716	4260.72
753.113	4275.33
753.511	4297.94
753.908	4298.71
754.305	4285.92
754.703	4342.61
755.1	4397.58
755.497	4451.34
755.894	4617.78
756.291	4761.04
756.688	5023.1
757.085	5365.96
757.482	5843.1
757.878	6357.77
758.275	6808.89
758.672	7442.8
759.068	7938.23
759.465	8666.06
759.861	9605.46
760.258	10694.64
760.654	11224.17
761.05	11097.57
761.447	10587.28
761.843	9884.16
762.239	9167.2
762.635	8862.77
763.031	8562.68
763.427	8124.34
763.822	7660.01
764.218	7198.76
764.614	6588.82
765.01	6189.91
765.405	5944.85
765.801	5765.14
766.196	5518.74
766.592	5390.41
766.987	5148.88
767.382	4994.45
767.778	4935.28
768.173	4839.6
768.568	4789.02
768.963	4690.02
769.358	4716.46
769.753	4682.51
770.148	4614.7
770.542	4618.8
770.937	4594.98
771.332	4678.85
771.726	4695.04
772.121	4645.8
772.515	4693.1
772.91	4685.05
773.304	4749.81
773.699	4694.65
774.093	4742.03
774.487	4791.12
774.881	4829.94
775.275	4825.96
775.669	4784.36
776.063	4823.69
776.457	4852.11
776.851	4788.08
777.245	4778.57
777.638	4806.48
778.032	4903.59
778.425	4870.88
778.819	4905.96
779.212	4869.71
779.606	4833.85
779.999	4854.04
780.392	4840.34
780.786	4911.16
781.179	4925.68
781.572	4964.98
781.965	4975.04
782.358	4922.34
782.751	4968.61
783.143	4926.02
783.536	4985.89
783.929	5017.05
784.322	5114.8
784.714	5135.55
785.107	5126.8
785.499	5186.26
785.891	5158.11
786.284	5134.21
786.676	5251.33
787.068	5230.45
787.46	5268.83
787.852	5276.06
788.245	5343.55
788.636	5362.5
789.028	5417.47
789.42	5445.78
789.812	5447.73
790.204	5525.67
790.595	5611.93
790.987	5442.13
791.378	5457.52
791.77	5566.71
792.161	5678.7
792.553	5729.62
792.944	5630.5
793.335	5564.6
793.726	5625.79
794.117	5699.58
794.508	5814.43
794.899	5784.57
795.29	5901.52
795.681	5945.37
796.072	5820.76
796.463	5676.56
796.853	5680.63
797.244	5812.41
797.634	5841.74
798.025	5834.86
798.415	5840.56
798.806	5915.6
799.196	5982.46
799.586	6022.02
799.976	5987.17
800.366	6176.52
800.756	6360.85
801.146	6321.51
801.536	6339.92
801.926	6391.96
802.316	6411.65
802.706	6470.01
803.095	6362.68
803.485	6445.41
803.874	6473.41
804.264	6691.1
804.653	6668.71
805.043	6788.67
805.432	6876.77
805.821	6875.64
806.21	6891.19
806.599	6984.55
806.988	7017.7
807.377	7094.06
807.766	7192.99
808.155	7423.58
808.544	7188.39
808.933	7184.64
809.321	7159.99
809.71	7389.96
810.098	7501.91
810.487	7867.15
810.875	8244.57
811.264	8241.22
811.652	8470.11
812.04	8566.47
812.428	8675.64
812.816	9272.67
813.204	9588.87
813.592	10000.45
813.98	10249.25
814.368	10156.82
814.756	10523.01
815.144	10442.99
815.531	10800.37
815.919	10719.46
816.306	10951.82
816.694	10696.39
817.081	10739.47
817.469	11021.17
817.856	11023.35
818.243	11251.33
818.63	11569.9
819.017	11231.44
819.404	11275.22
819.791	11571.26
820.178	12051.3
820.565	12245.42
820.952	12989.3
821.339	12587.02
821.725	12723.58
822.112	12124.8
822.498	12075.18
822.885	12164.68
823.271	12085.02
823.657	12418.76
824.044	12430.46
824.43	12489.87
824.816	12468.05
825.202	12111.43
825.588	12911.1
825.974	12916.3
826.36	13324.11
826.746	13339.01
827.132	13614.79
827.517	13585.21
827.903	12957.21
828.289	12980.37
828.674	12356.45
829.06	12267.9
829.445	12575.76
829.83	12850.9
830.216	13216.26
830.601	13492.95
830.986	13172.07
831.371	13057.67
831.756	13498.96
832.141	13141.34
832.526	13124.87
832.911	13341.63
833.295	13240.57
833.68	13602.56
834.065	13117.41
834.449	12397.96
834.834	12330.82
835.218	12323.86
835.603	12594.39
835.987	12421.02
836.371	13079.81
836.755	12998.45
837.139	13305.25
837.524	13488.03
837.908	13343.7
838.291	13384.11
838.675	13432.72
839.059	13590.85
839.443	13575.27
839.827	13377.69
840.21	13734.31
840.594	13609.04
840.977	13757.73
841.361	13740.33
841.744	14023.27
842.127	13892.24
842.511	14076.8
842.894	14535.61
843.277	14830.98
843.66	15239.63
844.043	15305.29
844.426	14687.72
844.809	14441.86
845.191	14461.28
845.574	14098.94
845.957	13815
846.339	13734.19
846.722	13314.96
847.104	13352.35
847.487	13205.89
847.869	13207.11
848.252	13413.95
848.634	13655.79
849.016	13851.52
849.398	13942
849.78	14579.71
850.162	14583.26
850.544	14885.5
850.926	15355.19
851.307	15278.06
851.689	15485.82
852.071	15817.64
852.452	16048.29
852.834	16023.71
853.215	16322.98
853.597	16435.63
853.978	16665.04
854.359	17003.23
854.741	16245.28
855.122	16172.98
855.503	15953.6
855.884	16058.55
856.265	16026.66
856.646	16119.94
857.026	15828.74
857.407	15782.83
857.788	15902.2
858.169	16115.65
858.549	15469.68
858.93	15949.45
859.31	15996.73
859.69	16164.25
860.071	15854.12
860.451	15688.64
860.831	15123.53
861.211	16007.59
861.591	16411.75
861.971	16386.85
862.351	16533.72
862.731	16823.75
863.111	17011.24
863.491	17246.26
863.87	17900.53
864.25	18158.99
864.629	17840.39
865.009	18222.2
865.388	18860
865.768	20212.03
866.147	20115.41
866.526	18995.74
866.905	19217.56
867.284	20294.17
867.663	19266.19
868.042	18465.54
868.421	18399.45
868.8	18703.91
869.179	18899.79
869.558	17799.74
869.936	16405.72
870.315	16708.18
870.693	17117.44
871.072	18451.22
871.45	17575.29
871.828	17806.59
872.207	18719.81
872.585	18431.04
872.963	18931.4
873.341	18268.74
873.719	18053.44
874.097	17833.37
874.475	18171.8
874.853	18584.18
875.23	17807.71
875.608	18548.26
875.986	20069.8
876.363	19193.32
876.741	19784.55
877.118	19282.27
877.495	20223.24
877.873	20554.31
878.25	21619.66
878.627	20731.17
879.004	21014.59
879.381	20917.53
879.758	20371.85
880.135	18941
880.512	20026.29
880.889	19486.63
881.265	19284.01
881.642	19112.69
882.019	19422.27
882.395	19043.18
882.772	19806.15
883.148	18944.9
883.524	18868.12
883.901	18753.98
884.277	19030.2
884.653	18896.18
885.029	19439.35
885.405	21529.56
885.781	21356.78
886.157	20468.25
886.532	20704.02
886.908	20672.89
887.284	22975.28
887.659	23711.05
888.035	24435.13
888.411	25063.97
888.786	25389.94
889.161	26250.86
889.537	25748.42
889.912	26572.92
890.287	26543.69
890.662	27206.23
891.037	26693.72
891.412	24871.96
891.787	24603.66
892.162	23728.79
892.536	24261.98
892.911	23346.68
893.286	22840.39
893.66	21892.46
894.035	22423.02
894.409	24396.94
894.784	23403.42
895.158	23780.56
895.532	25177.52
895.906	25855.49
896.281	26449.94
896.655	26023.92
897.029	29712.89
897.402	30931.17
897.776	34414.92
898.15	34283.28
898.524	33888.59
898.898	34332.69
899.271	38446.23
899.645	33309.94
900.018	31986.21
900.392	33170.35
900.765	33429.82
901.138	30929.44
901.511	30451.74
901.884	27976.13
902.258	25832.27
902.631	26725.58
903.003	30763.87
903.376	27749.4
903.749	31126.07
904.122	33325.18
904.495	36682.89
904.867	37150.84
905.24	32248.82
905.612	30026.26
905.985	30693.04
906.357	32067.85
906.729	30592.19
907.102	26111.44
907.474	25107.42
907.846	25242.23
908.218	24899.64
908.59	22019.08
908.962	21292.35
909.334	22948.99
909.705	24116.76
910.077	23420.88
910.449	24375.27
910.82	25059.77
911.192	27576.57
911.563	28666.79
911.935	30655.5
912.306	30688.01
912.677	31671.36
913.048	31357.2
913.419	34002.4
913.79	34169.66
914.161	36645.97
914.532	35038.45
914.903	32196.29
915.274	30584.23
915.645	30123.45
916.015	26537.63
916.386	25310.47
916.756	26948.87
917.127	27803.76
917.497	24864.41
917.868	27084.77
918.238	25748.2
918.608	26491.04
918.978	27057.5
919.348	28663.21
919.718	29673.99
920.088	28610.65
920.458	29736.02
920.828	31294.59
921.198	29692.82
921.567	31705.03
921.937	24566.57
922.306	24791.5
922.676	26731.75
923.045	22325.36
923.415	21221.67
923.784	19299.94
924.153	19853.63
924.522	19839.14
924.891	18659.16
925.26	19970.77
925.629	19482.92
925.998	22383.28
926.367	21850.37
926.736	20821.94
927.104	24746.56
927.473	26586.74
927.842	32093.32
928.21	31733.66
928.578	33350.67
928.947	31533.23
929.315	31718.26
929.683	37221.05
930.051	37484.64
930.42	43493.96
930.788	37152.55
931.156	36858.67
931.523	34527.83
931.891	31893.62
932.259	30622.54
932.627	35466.92
932.994	50115.94
933.362	41415.21
933.729	35938.15
934.097	34376.48
934.464	29074.18
934.831	33522.54
935.199	33020.64
935.566	32034.78
935.933	32418.76
936.3	39300.92
936.667	30584.73
937.034	27669.43
937.401	27386.77
937.767	23628.5
938.134	21079.21
938.501	29782.62
938.867	31795.34
939.234	53810.59
939.6	45890.11
939.967	50692.1
940.333	33979.16
940.699	28967.86
941.065	23193.66
941.431	30427.52
941.798	29416.45
942.163	38630.78
942.529	24125.3
942.895	22193.1
943.261	14370.57
943.627	18869.79
943.992	16529.15
944.358	16536.1
944.723	16607.9
945.089	16195.46
945.454	14953.85
945.82	15951.73
946.185	15322.82
946.55	17756.15
946.915	15922.1
947.28	18685.44
947.645	16475.46
948.01	15234.81
948.375	15878.66
948.74	18999.96
949.104	22151.95
949.469	31975.21
949.834	56502.06
950.198	53581.79
950.562	32120
950.927	26773.45
951.291	32218.69
951.655	27417.67
952.02	25679.46
952.384	19419.42
952.748	16929.6
953.112	16522.68
953.476	14364.79
953.839	13278.78
954.203	13168.49
954.567	16474.77
954.931	25914.81
955.294	22201.19
955.658	22285.98
956.021	37882.41
956.385	64228.5
956.748	94776.14
957.111	146765.66
957.474	164631.84
957.837	185225.58
958.2	139805.62
958.563	50296.54
958.926	34077.14
959.289	51649.45
959.652	57798.39
960.015	43427.64
960.377	62271.22
960.74	70974.13
961.102	122518.41
961.465	131828.73
961.827	70980.66
962.189	136313.28
962.552	94336.83
962.914	75483.9
963.276	48969.82
963.638	40458.28
964	40027.22
964.362	27085.37
964.724	26179.47
965.085	18682.19
965.447	15298.74
965.809	17364.39
966.17	17379.55
966.532	18833.52
966.893	17279.59
967.255	15735.95
967.616	18569.62
967.977	14878.56
968.338	16237.55
968.699	13352.55
969.061	13352.23
969.421	13438.64
969.782	15066.96
970.143	12740.06
970.504	13216.24
970.865	15051.22
971.225	15391.39
971.586	15062.94
971.946	21456.38
972.307	18625.15
972.667	24336.47
973.027	25039.63
973.388	30359.11
973.748	20659.48
974.108	22499.56
974.468	30374.53
974.828	23455.98
975.188	18025.05
975.548	16573.73
975.907	13929.3
976.267	15617.1
976.627	13132.2
976.986	13626.63
977.346	12985.72
977.705	12495.18
978.064	11364.04
978.424	9464.18
978.783	9752.75
979.142	11140.49
979.501	10662.09
979.86	11280.55
980.219	10882.57
980.578	14028.27
980.937	15721.04
981.296	14033.14
981.654	14430.8
982.013	22461.33
982.371	29128.19
982.73	27272.81
983.088	30888.91
983.447	32976.51
983.805	47161.17
984.163	98437.03
984.521	109331.23
984.879	160189.22
985.237	-260847.37
985.595	251928.88
985.953	62652.34
986.311	36206.93
986.669	21009.66
987.026	18134.29
987.384	24368.49
987.741	25167.74
988.099	18052.61
988.456	14385.12
988.814	13468.57
989.171	11686.17
989.528	11511.09
989.885	12137.71
990.242	9627.31
990.599	11993.87
990.956	9807.87
991.313	6863.9
991.67	5632.26
992.027	5998.26
992.383	5341.97
992.74	4691.62
993.096	4934.83
993.453	5121.47
993.809	5317.65
994.165	7089.52
994.522	6529.05
994.878	7203.11
995.234	9043.31
995.59	8923.78
995.946	8393.27
996.302	9564.87
996.658	11048.03
997.013	12162.35
997.369	14426.45
997.725	18515.12
998.08	11963.41
998.436	18314.18
998.791	25260.83
999.147	25241.57
999.502	27546.23
999.857	19954.54
1000.212	32495.76
1000.567	46275.26
1000.922	26684.38
1001.277	16985.41
1001.632	12571.76
1001.987	16241.24
1002.342	11634.18
1002.696	9307.16
1003.051	7434.87
1003.406	8993.54
1003.76	8968.38
1004.114	8842.82
1004.469	7440.78
1004.823	6162.8
1005.177	6628.25
1005.531	5255.81
1005.885	4658.53
1006.239	5274.42
1006.593	6626.35
1006.947	8871.55
1007.301	6649.16
1007.655	7257.15
1008.008	5333.68
1008.362	6006.06
1008.715	8590.84
1009.069	7793.16
1009.422	11782.5
1009.776	23718.91
1010.129	15803.37
1010.482	13199.45
1010.835	11150.2
1011.188	23270.46
1011.541	21953.75
1011.894	-134686.51
1012.247	394651.76
1012.6	26824.63
1012.952	17042.72
1013.305	8705.9
1013.657	6276.27
1014.01	5927.86
1014.362	4877.21
1014.715	4367.45
1015.067	3812.36
1015.419	3727.48
1015.771	3303.66
1016.123	2959.87
1016.475	3056.12
1016.827	3250.93
1017.179	3531.37
1017.531	3534.88
1017.883	3602.78
1018.234	3505.28
1018.586	4412.6
1018.938	4727.24
1019.289	6523.65
1019.64	7454.41
1019.992	6923.1
1020.343	6293.48
1020.694	4987.03
1021.045	4412.85
1021.396	5077.15
1021.747	5501.73
1022.098	6568.12
1022.449	4755.55
1022.8	4376.94
1023.151	3073.74
1023.501	2734.33
1023.852	2977.78
1024.202	3118.05
1024.553	3422.49
1024.903	3353.3
1025.253	2888.85
1025.604	2601.45
1025.954	3226.5
1026.304	3919.98
1026.654	4578.88
1027.004	6614.9
1027.354	10628.69
1027.703	10008.78
1028.053	13073.34
1028.403	19151.71
1028.753	27420.35
1029.102	36761.12
1029.452	186468.45
1029.801	8045.8
1030.15	5197.88
1030.499	4360.22
897.758	3278.99
901.051	3265.6
904.343	3301.95
907.636	3294.45
910.928	3365.39
914.22	3267.15
917.511	3280.11
920.803	3367.16
924.094	3414.2
927.384	3365.44
930.675	3331.13
933.965	3272.81
937.255	3265.75
940.544	3232.16
943.834	3084.29
947.123	3040.77
950.411	3147.09
953.7	3107.07
956.988	3055.52
960.276	3001.24
963.563	3123.13
966.851	3102.7
970.138	3180.04
973.424	3154.77
976.711	3105.05
979.997	3360.45
983.283	3378.27
986.568	3247.24
989.853	3294.44
993.138	3325.49
996.423	3409.63
999.708	3323.71
1002.992	3440.05
1006.275	3167.2
1009.559	3276.15
1012.842	3416.81
1016.125	3320.56
1019.408	3298.05
1022.69	3425.2
1025.972	3430.84
1029.254	3397.54
1032.536	3287.65
1035.817	3333.18
1039.098	3236
1042.379	3505.22
1045.659	3454.67
1048.939	3363.93
1052.219	3404.63
1055.498	3431.9
1058.778	3401.55
1062.057	3391.61
1065.335	3411.63
1068.614	3446.59
1071.892	3408.32
1075.17	3509.25
1078.447	3486.76
1081.724	3471.73
1085.001	3524.22
1088.278	3488.34
1091.554	3515.06
1094.83	3512.85
1098.106	3538.6
1101.382	3599.55
1104.657	3598.39
1107.932	3594.77
1111.206	3539.9
1114.481	3496.31
1117.755	3508.11
1121.029	3467.91
1124.302	3518.89
1127.575	3444.26
1130.848	3421.13
1134.121	3371.98
1137.393	3304.5
1140.665	3385.73
1143.937	3365.84
1147.208	3269.84
1150.48	3295.44
1153.75	3275.57
1157.021	3346.78
1160.291	3300.28
1163.561	3342.55
1166.831	3364.04
1170.101	3398.02
1173.37	3385.98
1176.639	3307.31
1179.907	3383.19
1183.176	3435.25
1186.444	3439.53
1189.711	3472.43
1192.979	3472.56
1196.246	3432.68
1199.513	3456.33
1202.78	3447.98
1206.046	3455.1
1209.312	3490.23
1212.578	3524.48
1215.843	3452.43
1219.108	3433.69
1222.373	3461.77
1225.638	3407.11
1228.902	3382.63
1232.166	3352.02
1235.43	3326.42
1238.693	3344.84
1241.956	3349.71
1245.219	3380.62
1248.482	3386.12
1251.744	3373.85
1255.006	3565.94
1258.268	3527.54
1261.529	3455.9
1264.79	3467.5
1268.051	3596.04
1271.312	3616.03
1274.572	3567.53
1277.832	3560.04
1281.092	3559.78
1284.351	3506.64
1287.61	3477.91
1290.869	3361.7
1294.128	3309.54
1297.386	3452.04
1300.644	3440.37
1303.902	3448.35
1307.159	3292.98
1310.416	3354.55
1313.673	3371.18
1316.93	3341.95
1320.186	3413.47
1323.442	3470.34
1326.697	3444.42
1329.953	3459.3
1333.208	3468.2
1336.463	3451.55
1339.717	3376.44
1342.972	3467.22
1346.226	3472.74
1349.479	3382.83
1352.733	3335.25
1355.986	3376.32
1359.238	3344.03
1362.491	3347.6
1365.743	3351.27
1368.995	3353.57
1372.247	3367.25
1375.498	3384.38
1378.749	3446.69
1382	3384.8
1385.251	3463.06
1388.501	3434.5
1391.751	3399.71
1395	3383.33
1398.25	3421.21
1401.499	3413
1404.748	3322.47
1407.996	3237.12
1411.244	3230.92
1414.492	3206.32
1417.74	3178.71
1420.987	3198.04
1424.234	3252.83
1427.481	3256.39
1430.728	3311.08
1433.974	3284.03
1437.22	3319.47
1440.465	3322.3
1443.711	3327.66
1446.956	3361.53
1450.201	3370.62
1453.445	3417.92
1456.689	3382.98
1459.933	3401.25
1463.177	3427.51
1466.42	3393.52
1469.663	3375.46
1472.906	3342.41
1476.148	3488.65
1479.391	3365.16
1482.633	3353.82
1485.874	3353.02
1489.115	3315.61
1492.356	3342.15
1495.597	3310.07
1498.838	3326.39
1502.078	3274.35
1505.318	3189.44
1508.557	3245.52
1511.797	3159.36
1515.036	3340.72
1518.274	3321.34
1521.513	3303.3
1524.751	3337.22
1527.989	3342.33
1531.227	3346.8
1534.464	3313.06
1537.701	3367.36
1540.938	3397.96
1544.174	3353.91
1547.41	3366.67
1550.646	3403.55
1553.882	3427.52
1557.117	3481.53
1560.352	3509.32
1563.587	3460.75
1566.821	3408.67
1570.055	3468.41
1573.289	3427.69
1576.523	3527.47
1579.756	3529.82
1582.989	3542.61
1586.222	3497.11
1589.454	3553.98
1592.686	3515.45
1595.918	3534.84
1599.15	3510.64
1602.381	3624.07
1605.612	3549.22
1608.843	3654.71
1612.073	3550.06
1615.303	3528.11
1618.533	3507.78
1621.762	3524.36
1624.992	3520.6
1628.221	3486.78
1631.449	3472.49
1634.678	3564.1
1637.906	3505.47
1641.134	3560.94
1644.361	3501.71
1647.588	3487.17
1650.815	3493.91
1654.042	3490.31
1657.269	3528.58
1660.495	3475.51
1663.72	3414.43
1666.946	3400.45
1670.171	3300.93
1673.396	3279.59
1676.621	3278.56
1679.845	3330.09
1683.069	3373.27
1686.293	3434.97
1689.517	3383.75
1692.74	3274.64
1695.963	3292.39
1699.185	3398.06
1702.408	3344.35
1705.63	3405.13
1708.852	3405.2
1712.073	3376.23
1715.294	3338.71
1718.515	3362.38
1721.736	3306.65
1724.956	3268.15
1728.176	3305.1
1731.396	3322.59
1734.616	3320.82
1737.835	3327.96
1741.054	3319.75
1744.272	3320.82
1747.491	3330.46
1750.709	3421.59
1753.927	3319.69
1757.144	3378.37
1760.361	3454.66
1763.578	3465.33
1766.795	3394.42
1770.011	3414.79
1773.227	3481.31
1776.443	3510
1779.658	3555.39
1782.874	3500.32
1786.089	3460.43
1789.303	3465.6
1792.518	3478.55
1795.732	3466.25
1798.945	3466.56
1802.159	3532.25
1805.372	3386.52
1808.585	3352.48
1811.797	3359.35
1815.01	3442.16
1818.222	3448.06
1821.434	3315.76
1824.645	3430.07
1827.856	3387.75
1831.067	3438.15
1834.278	3358.79
1837.488	3345.85
1840.698	3533.38
1843.908	3432.8
1847.117	3389.06
1850.326	3210.64
1853.535	3354.2
1856.744	3490.02
1859.952	3361.73
1863.16	3359.52
1866.368	3385.1
1869.575	3546.58
1872.782	3419.83
1875.989	3361.38
1879.196	3494.16
1882.402	3487.24
1885.608	3538.89
1888.814	3392.85
1892.019	3262.28
1895.224	3314.89
1898.429	3312.46
1901.634	3278.07
1904.838	3263.53
1908.042	3304.57
1911.246	3305.41
1914.449	3193.23
1917.652	3209.52
1920.855	3196.38
1924.058	3276.94
1927.26	3306.06
1930.462	3340.11
1933.664	3354.43
1936.865	3283.03
1940.066	3277.66
1943.267	3225.45
1946.467	3255.71
1949.668	3293.67
1952.868	3359.3
1956.067	3316.13
1959.267	3233.98
1962.466	3268.06
1965.665	3260.66
1968.863	3255.34
1972.061	3290.13
1975.259	3294.15
1978.457	3387.03
1981.654	3330.5
1984.852	3332.39
1988.048	3236.83
1991.245	3260.09
1994.441	3346.6
1997.637	3362.61
2000.833	3344.92
2004.028	3393.35
2007.223	3436.44
2010.418	3399.68
2013.613	3366.87
2016.807	3308.37
2020.001	3331.68
2023.194	3411.53
2026.388	3371.82
2029.581	3321.92
2032.774	3353.33
2035.966	3348.79
2039.158	3257.32
2042.35	3298.17
2045.542	3219.68
2048.733	3355
2051.924	3417.23
2055.115	3460.48
2058.306	3367.73
2061.496	3440.01
2064.686	3520.81
2067.875	3442.35
2071.065	3473.66
2074.254	3511.18
2077.442	3459.29
2080.631	3565.09
2083.819	3395.86
2087.007	3362.21
2090.195	3314.25
2093.382	3374.57
2096.569	3347.06
2099.756	3287.89
2102.942	3287.75
2106.128	3279.03
2109.314	3275.73
2112.5	3207.67
2115.685	3192.3
2118.87	3208.46
2122.055	3280.79
2125.239	3227.47
2128.424	3180.64
2131.608	3346.71
2134.791	3325.28
2137.974	3411.14
2141.157	3388.72
2144.34	3314.55
2147.523	3332.9
2150.705	3327.68
2153.887	3322.5
2157.068	3241.2
2160.25	3270.03
2163.431	3334.5
2166.611	3245.48
2169.792	3254.48
2172.972	3122.97
2176.152	3245.73
2179.331	3293.52
2182.511	3275.52
2185.69	3312.3
2188.868	3298.85
2192.047	3382.68
2195.225	3342.19
2198.403	3287.8
2201.58	3287.97
2204.758	3290.23
2207.935	3389.6
2211.111	3236.46
2214.288	3212.33
2217.464	3263.22
2220.64	3251.21
2223.815	3316.69
2226.991	3221.93
2230.166	3247.29
2233.34	3259.55
2236.515	3297.07
2239.689	3392.74
2242.863	3324.76
2246.036	3388.09
2249.209	3413.71
2252.382	3465.43
2255.555	3433.03
2258.727	3345.85
2261.9	3399.07
2265.071	3391.55
2268.243	3402.53
2271.414	3313.05
2274.585	3241.62
2277.756	3322.85
2280.926	3274.21
2284.096	3329.43
2287.266	3205.68
2290.436	3274.9
2293.605	3317.79
2296.774	3337.14
2299.942	3382.07
2303.111	3402.19
2306.279	3446.89
2309.447	3433.54
2312.614	3412.1
2315.781	3428.41
2318.948	3382.21
2322.115	3426.39
2325.281	3321.51
2328.447	3359.71
2331.613	3341.59
2334.779	3286.29
2337.944	3297.07
2341.109	3288
2344.274	3266.98
2347.438	3223.63
2350.602	3257.99
2353.766	3282.37
2356.929	3261.89
2360.092	3310.02
2363.255	3234.7
2366.418	3122.27
2369.58	3298.24
2372.742	2964.7
2375.904	3004.28
2379.066	2962.13
2382.227	3013.84
2385.388	2971.84
2388.548	2868.13
2391.709	2944.55
2394.869	2914.83
2398.029	3070.96
2401.188	3108.83
2404.347	3004.83
2407.506	3230.49
2410.665	3254.08
2413.823	3284
2416.981	3212.46
2420.139	3264.52
2423.296	3329.38
2426.453	3301.34
2429.61	3329.46
2432.767	3217.54
2435.923	3272.74
2439.079	3144.38
2442.235	3237.35
2445.391	3139.67
2448.546	3148.41
2451.701	3223.76
2454.855	3161.09
2458.009	3242.17
2461.163	3264.84
2464.317	3203.76
2467.471	3247.89
2470.624	3284.49
2473.777	3341.67
2476.929	3331.82
2480.082	3363.85
2483.234	3331.17
2486.385	3194.04
2489.537	3196.1
2492.688	3122.05
2495.839	3139.23
2498.989	3142.72
2502.14	3121.02
2505.29	3088.28
2508.439	3120.68
2511.589	3018.78
2514.738	3044.49
2517.887	3073.01
2521.035	3238.35
2524.183	3231.68
2527.331	3198.79
2530.479	3146.31
2533.627	3167.43
