Data from N_3_DEC_OH_4N_Splice17_13-35-12-301.txt Node
Date: Sat Mar 14 13:35:12 EDT 2020
User: sa697716
Spectrometer: FLMS03696
Trigger mode: 0
Integration Time (sec): 3.180400E-1
Scans to average: 20
Electric dark correction enabled: true
Nonlinearity correction enabled: true
Boxcar width: 5
XAxis mode: Wavelengths
Number of Pixels in Spectrum: 2048
>>>>>Begin Spectral Data<<<<<
187.83	-416046.67
188.298	2894.13
188.766	1606.26
189.233	1440.32
189.701	2082.54
190.169	2939.43
190.636	1132.68
191.104	935.21
191.571	148.88
192.039	-68.28
192.506	-26.03
192.974	562.29
193.441	-1090.54
193.908	-224.24
194.375	-87.72
194.842	62.58
195.31	240.41
195.777	247.55
196.244	512.8
196.711	549.57
197.177	683.52
197.644	976.16
198.111	1666.09
198.578	2337.47
199.045	1856.67
199.511	3058.18
199.978	3512.93
200.445	2998.45
200.911	3301.27
201.378	3646.53
201.844	3311.98
202.31	5699.63
202.777	5921.3
203.243	3275.97
203.709	3101.96
204.176	3702.25
204.642	3027.9
205.108	2845.76
205.574	2292.78
206.04	2091.41
206.506	1974.6
206.972	1864.67
207.438	1791.35
207.903	2026.24
208.369	1781.74
208.835	1775.81
209.301	1867.18
209.766	1915.72
210.232	1900.64
210.697	2353.17
211.163	2907.57
211.628	4385.33
212.094	3692.54
212.559	4540.95
213.024	2826.58
213.49	3465.03
213.955	3379.26
214.42	3273.9
214.885	3059.74
215.35	2937.82
215.815	2875.9
216.28	3049.55
216.745	2490.99
217.21	2712.94
217.675	2515.26
218.14	2869.56
218.604	3249.01
219.069	3762.9
219.534	4025.68
219.998	4730.2
220.463	5788.49
220.927	7186.88
221.392	6841.29
221.856	6992.92
222.32	8870.6
222.785	11003.66
223.249	13916.29
223.713	15563.26
224.177	15665.01
224.642	20136.14
225.106	24852.92
225.57	27207.92
226.034	20277.73
226.497	30878.68
226.961	27912.39
227.425	32558.64
227.889	36189.01
228.353	36245.69
228.816	74936.21
229.28	71652.76
229.744	60404.19
230.207	36714.01
230.671	36126.97
231.134	59765.45
231.597	68956.94
232.061	69031.08
232.524	67332.77
232.987	46380.42
233.45	41723.68
233.914	37488.83
234.377	38404.77
234.84	35179.2
235.303	41506.03
235.766	46351.61
236.229	47896.63
236.691	30184.38
237.154	33884.42
237.617	25474.9
238.08	26106.45
238.542	30567.58
239.005	21832.85
239.468	21662.61
239.93	20419.77
240.393	18563.01
240.855	16299.47
241.317	16692.43
241.78	20308.57
242.242	21033.39
242.704	22719.93
243.166	19782.06
243.629	17975.45
244.091	20723.34
244.553	22733.15
245.015	24431.85
245.477	31575.82
245.939	46331.98
246.4	49199.8
246.862	47839.29
247.324	45098.19
247.786	50557.88
248.247	66331.74
248.709	68436.33
249.17	51173.93
249.632	48269.25
250.093	55984.49
250.555	48410.28
251.016	29507.63
251.477	27992.09
251.939	30224.98
252.4	31713.72
252.861	37688.21
253.322	35036.36
253.783	41784.25
254.244	54228.22
254.705	42755.17
255.166	38060.87
255.627	37514.51
256.088	52900.73
256.549	56263.49
257.009	48466.76
257.47	58791.68
257.931	47903.68
258.391	35934.22
258.852	37034.53
259.312	38834.82
259.773	48018.06
260.233	40589.51
260.694	34257.17
261.154	38970.59
261.614	31295.05
262.074	28021.52
262.534	29135.46
262.994	27488.3
263.455	36629.47
263.915	30866.2
264.374	29121.22
264.834	31826.93
265.294	35327.34
265.754	36622.71
266.214	34678.27
266.673	32522.33
267.133	41062.82
267.593	40809.41
268.052	49983.67
268.512	43512.66
268.971	52554.38
269.431	57662.4
269.89	51699.72
270.349	77544.16
270.809	86541.97
271.268	77861.16
271.727	174699.99
272.186	113256.68
272.645	84971.91
273.104	61320.96
273.563	88884.79
274.022	69979.09
274.481	59581.89
274.94	45876.3
275.399	34142.34
275.857	39801.97
276.316	53855.52
276.775	47951.8
277.233	47281.28
277.692	44290
278.15	50153.98
278.609	51616.2
279.067	47771.58
279.525	44372.08
279.984	57393.03
280.442	68941.97
280.9	67872.8
281.358	44671.89
281.816	41623.32
282.274	40746.43
282.732	42095.09
283.19	42319.45
283.648	36569.26
284.106	38947.11
284.564	39606.45
285.021	36701.53
285.479	27369.13
285.937	24918.37
286.394	21860.94
286.852	22531.78
287.309	23685.88
287.767	22904.73
288.224	21780.45
288.682	23884.65
289.139	26241.92
289.596	24020.22
290.053	24967.32
290.511	31499.12
290.968	38214.29
291.425	51878.59
291.882	43139.45
292.339	37563.31
292.796	37278.52
293.252	35130.13
293.709	27911.5
294.166	25002.31
294.623	27644.11
295.079	26543.54
295.536	26671.97
295.992	24225.8
296.449	23947.89
296.905	24892.81
297.362	23850.99
297.818	25093.36
298.274	26043.15
298.731	26540.05
299.187	26265
299.643	28207.09
300.099	34139.21
300.555	37449.81
301.011	31263.85
301.467	30151.07
301.923	35323.17
302.379	34507.43
302.835	33873.53
303.291	33902.1
303.746	38600.79
304.202	48778
304.658	48991.11
305.113	32913.9
305.569	32243.2
306.024	34393.29
306.479	32736.19
306.935	27592.39
307.39	30149.81
307.845	27839.52
308.301	28028.88
308.756	27294.52
309.211	26301.3
309.666	26927.44
310.121	33422.14
310.576	33924.88
311.031	33660.14
311.486	38529.24
311.94	38501.82
312.395	51498.3
312.85	96842.5
313.305	475319.71
313.759	2460610.45
314.214	178300.08
314.668	141318.16
315.123	118899.9
315.577	42608.28
316.032	37922.93
316.486	47607.54
316.94	37574.8
317.394	26141.09
317.849	20312.6
318.303	19250.19
318.757	18175.25
319.211	20090.11
319.665	17606.47
320.119	17831.43
320.572	25606.94
321.026	23926.29
321.48	19888.34
321.934	21680.48
322.387	21735.56
322.841	23477.33
323.295	21098.25
323.748	24311.2
324.202	24639.89
324.655	29547.57
325.108	41292.23
325.562	29135.63
326.015	34611.3
326.468	26172.08
326.921	29267.28
327.374	27285.84
327.827	28409.7
328.28	32160.71
328.733	21537.63
329.186	18949.58
329.639	18066
330.092	15204.96
330.545	14493.81
330.997	14605.11
331.45	15974.69
331.903	18720.2
332.355	32221.97
332.808	31317.09
333.26	25805.96
333.713	28013.67
334.165	28239.46
334.617	37713.25
335.069	30499.11
335.522	55085.24
335.974	61030.96
336.426	55654.19
336.878	38540.06
337.33	19521.44
337.782	19052.31
338.234	23869.71
338.686	28509.69
339.137	33745.1
339.589	31798.33
340.041	24913.33
340.493	21424.96
340.944	21947.7
341.396	23658.91
341.847	19888.53
342.299	23515.23
342.75	28680.03
343.201	25067.83
343.653	28843.51
344.104	35501.47
344.555	27947.36
345.006	43503.85
345.457	33298.37
345.908	26454.64
346.359	24905.86
346.81	20305.14
347.261	21364.56
347.712	21064.47
348.163	22608.51
348.613	22904.47
349.064	21376.54
349.515	18709.55
349.965	19205.04
350.416	23124
350.866	25379.79
351.317	28667.63
351.767	47460.14
352.217	60033.7
352.668	49798.1
353.118	45605.49
353.568	43987.5
354.018	34781.29
354.468	36696.43
354.918	26343.81
355.368	23084.55
355.818	32653.01
356.268	94081.77
356.718	393612.65
357.168	97885.65
357.617	49144.41
358.067	54671.35
358.517	51220.13
358.966	60061.65
359.416	67306.47
359.865	72622.57
360.315	86462.45
360.764	40333.05
361.213	22587.12
361.663	21391.25
362.112	26405.38
362.561	42639.41
363.01	32140.08
363.459	27100.05
363.908	29379.06
364.357	24978.71
364.806	42203.08
365.255	28978.24
365.703	26500.35
366.152	26513.08
366.601	21503.82
367.05	17451.41
367.498	15848.61
367.947	16545.33
368.395	17163.96
368.844	15154.09
369.292	18241.29
369.74	12601.12
370.189	19294.33
370.637	22601.01
371.085	19483.15
371.533	23702.62
371.981	22819.55
372.429	21741.33
372.877	22644.37
373.325	18930.52
373.773	19292.33
374.221	17188.54
374.669	21282.99
375.116	18408.99
375.564	18578.99
376.012	20786.01
376.459	17123.51
376.907	20431.27
377.354	24690.59
377.801	23032.91
378.249	26453.05
378.696	33768.99
379.143	40854.05
379.591	43509.19
380.038	73431.58
380.485	52908.07
380.932	57030.26
381.379	52139.43
381.826	38369.92
382.273	27309.69
382.72	23804.95
383.166	23188.65
383.613	15033.22
384.06	13521.5
384.506	15650.17
384.953	11498.7
385.4	11592.54
385.846	10152.15
386.292	9883.53
386.739	9669.18
387.185	9539.99
387.631	9544.66
388.078	9255.82
388.524	9892.75
388.97	9130.08
389.416	7605.88
389.862	8080.1
390.308	7645.2
390.754	7759.84
391.2	8424.54
391.645	8623.9
392.091	8256.14
392.537	7988.9
392.983	8008.06
393.428	7893.87
393.874	8467.46
394.319	8510.98
394.765	8081.9
395.21	8318.02
395.655	7796.92
396.101	7306.29
396.546	6604.06
396.991	6657.78
397.436	6184.79
397.881	5984.85
398.326	5658.85
398.771	5355.69
399.216	4678.44
399.661	4209.07
400.106	4204.89
400.551	4315.62
400.995	3874.44
401.44	3833.47
401.885	3602.78
402.329	3638.56
402.774	3482.9
403.218	3375.06
403.663	3252.01
404.107	3342.53
404.551	3367.08
404.995	3078.82
405.44	2959.56
405.884	3000.35
406.328	2902.78
406.772	2892.39
407.216	2635.18
407.66	2546.99
408.104	2415.29
408.547	2259.45
408.991	2185.51
409.435	2103.96
409.879	2073.33
410.322	2046.14
410.766	1976.28
411.209	1877.54
411.653	1802.83
412.096	1764.09
412.54	1765.31
412.983	1751.92
413.426	1757.33
413.869	1755.11
414.312	1719.87
414.756	1656.53
415.199	1578.77
415.642	1528.66
416.085	1528.37
416.527	1516.69
416.97	1538.95
417.413	1458.33
417.856	1444.15
418.298	1424.34
418.741	1411.58
419.184	1406.61
419.626	1463.12
420.069	1463.85
420.511	1475.07
420.953	1444.47
421.396	1429.52
421.838	1392.95
422.28	1423.44
422.722	1427.99
423.164	1448.89
423.606	1426.93
424.048	1424.28
424.49	1352.98
424.932	1342.61
425.374	1320.09
425.816	1340.18
426.258	1361.11
426.699	1373.41
427.141	1353.76
427.582	1374.64
428.024	1363.68
428.465	1352.9
428.907	1318.26
429.348	1299.13
429.789	1299.61
430.231	1274.64
430.672	1291.13
431.113	1261.61
431.554	1242.75
431.995	1206.89
432.436	1163.06
432.877	1138.39
433.318	1120.42
433.759	1114.01
434.2	1115.2
434.64	1100.63
435.081	1101.31
435.522	1041.24
435.962	1001.74
436.403	980.65
436.843	994.67
437.284	970.54
437.724	943.28
438.164	943.36
438.604	922.42
439.045	889.03
439.485	855.23
439.925	837.01
440.365	817.41
440.805	808.48
441.245	799.01
441.685	770.92
442.125	766.29
442.564	771.63
443.004	756.45
443.444	755.73
443.883	757.6
444.323	753.04
444.762	755.85
445.202	767.36
445.641	785.13
446.081	783.05
446.52	792.45
446.959	788.77
447.398	774.25
447.837	766.72
448.276	757.12
448.716	766.78
449.154	775.4
449.593	760.62
450.032	762.07
450.471	749.58
450.91	751.09
451.349	751.57
451.787	749.46
452.226	761.53
452.664	764.09
453.103	766.84
453.541	766.85
453.98	768.26
454.418	773.76
454.856	763.28
455.295	761.92
455.733	769.08
456.171	773.66
456.609	774.84
457.047	775.46
457.485	787.75
457.923	790.15
458.361	780.22
458.798	781.89
459.236	781.18
459.674	786.04
460.111	788.64
460.549	781.31
460.987	778.5
461.424	776.2
461.862	772.91
462.299	758.88
462.736	756.35
463.173	758.28
463.611	752.4
464.048	748.91
464.485	754.73
464.922	749.05
465.359	743.91
465.796	736.42
466.233	730.59
466.67	723.51
467.106	723.24
467.543	716.51
467.98	708.07
468.416	688.09
468.853	684.15
469.29	663.41
469.726	656.58
470.162	641.12
470.599	630.96
471.035	626.23
471.471	612.47
471.907	609.4
472.344	606.3
472.78	609.97
473.216	617.93
473.652	611.26
474.088	611.72
474.523	610.5
474.959	617.2
475.395	612.43
475.831	609.38
476.266	613.32
476.702	612.29
477.138	607.3
477.573	604.29
478.008	602.98
478.444	607.11
478.879	613.89
479.314	618.39
479.75	618.94
480.185	623.65
480.62	630.7
481.055	635.67
481.49	641.52
481.925	651.82
482.36	666.77
482.795	686.42
483.229	705.6
483.664	721.39
484.099	724.06
484.534	736.95
484.968	746.08
485.403	749.91
485.837	750.1
486.271	751.31
486.706	753.29
487.14	744.59
487.574	735.15
488.009	730.14
488.443	724.87
488.877	735.59
489.311	739.43
489.745	749.36
490.179	758.99
490.613	775.41
491.046	782.57
491.48	791.07
491.914	795.15
492.348	803.88
492.781	811.89
493.215	816.66
493.648	820.8
494.082	830.35
494.515	834.21
494.948	846.29
495.382	855.58
495.815	865.28
496.248	875.96
496.681	895.64
497.114	913.76
497.547	930.04
497.98	951.6
498.413	963.83
498.846	980.73
499.279	996.62
499.711	1006.8
500.144	1014.13
500.577	1032.28
501.009	1050.25
501.442	1067.87
501.874	1073.37
502.306	1081.5
502.739	1095.83
503.171	1119.85
503.603	1128.37
504.036	1145.18
504.468	1157.12
504.9	1176.94
505.332	1190.65
505.764	1201.48
506.196	1214
506.627	1238.17
507.059	1259.64
507.491	1274.78
507.923	1274.68
508.354	1298.49
508.786	1314.93
509.217	1341.63
509.649	1364.3
510.08	1391.65
510.512	1415.75
510.943	1438.17
511.374	1454.8
511.805	1483.25
512.237	1509.96
512.668	1555.8
513.099	1594.08
513.53	1632.04
513.961	1660.5
514.391	1702.97
514.822	1747.77
515.253	1794.03
515.684	1826.26
516.114	1864.3
516.545	1891.61
516.975	1924.94
517.406	1946.14
517.836	1945.58
518.267	1951.71
518.697	1972.17
519.127	1974.16
519.558	1980.48
519.988	1983.25
520.418	1995.74
520.848	2016.61
521.278	2023.51
521.708	2044.56
522.138	2057.17
522.567	2095.57
522.997	2126.26
523.427	2143.4
523.857	2161.38
524.286	2170.91
524.716	2187.87
525.145	2209.1
525.575	2219.97
526.004	2237.33
526.433	2223.97
526.863	2222.63
527.292	2206.51
527.721	2211.29
528.15	2216.59
528.579	2216.62
529.008	2229.75
529.437	2257.48
529.866	2272.85
530.295	2293.24
530.724	2307.1
531.152	2341.66
531.581	2356.84
532.01	2377.62
532.438	2386.43
532.867	2404.08
533.295	2426.6
533.723	2433.13
534.152	2428.87
534.58	2427.49
535.008	2405.48
535.436	2405.88
535.865	2413.86
536.293	2431.77
536.721	2452.51
537.149	2483.57
537.576	2484.59
538.004	2499.09
538.432	2506.22
538.86	2503.27
539.287	2511.2
539.715	2528.43
540.143	2530.9
540.57	2523.95
540.998	2518.21
541.425	2485.27
541.852	2458.26
542.28	2456.35
542.707	2433.98
543.134	2416.05
543.561	2409.13
543.988	2399.35
544.415	2396.48
544.842	2387.81
545.269	2377.66
545.696	2380.41
546.123	2398.01
546.549	2382.88
546.976	2364.73
547.403	2365.6
547.829	2368.31
548.256	2372.5
548.682	2367.59
549.108	2360.15
549.535	2361.64
549.961	2364.8
550.387	2347.73
550.813	2340.66
551.24	2348.86
551.666	2352.74
552.092	2341.25
552.518	2332.64
552.943	2324.56
553.369	2334.31
553.795	2340.62
554.221	2342.28
554.646	2340.55
555.072	2357.72
555.498	2366.55
555.923	2382.17
556.349	2404.37
556.774	2417.14
557.199	2421.89
557.625	2432.68
558.05	2427.98
558.475	2446.62
558.9	2448.83
559.325	2440.3
559.75	2432.66
560.175	2426.02
560.6	2420.18
561.025	2419.74
561.449	2423.34
561.874	2432.84
562.299	2440.67
562.723	2453
563.148	2440.5
563.572	2448.18
563.997	2464.66
564.421	2476.06
564.846	2480.95
565.27	2488.62
565.694	2487.35
566.118	2506.6
566.542	2520.88
566.966	2515.29
567.39	2512.33
567.814	2500.84
568.238	2505.01
568.662	2515.73
569.086	2522.76
569.509	2535.89
569.933	2517.98
570.357	2513.33
570.78	2488.34
571.204	2474.54
571.627	2463.03
572.05	2463.77
572.474	2467.2
572.897	2451.64
573.32	2443.72
573.743	2432.69
574.166	2410
574.589	2413.33
575.012	2405.23
575.435	2406.99
575.858	2395.88
576.281	2384.03
576.704	2366.06
577.126	2353.16
577.549	2341.53
577.972	2329.78
578.394	2318.54
578.817	2312.11
579.239	2289.01
579.661	2272.07
580.084	2251.84
580.506	2235.49
580.928	2233.06
581.35	2219.94
581.772	2216.3
582.194	2200.04
582.616	2186.22
583.038	2169.14
583.46	2157.19
583.882	2155.75
584.303	2164.05
584.725	2160.91
585.147	2166.63
585.568	2184.32
585.99	2203.98
586.411	2215.06
586.833	2238.42
587.254	2242.33
587.675	2263.2
588.096	2281.4
588.518	2274.42
588.939	2251.97
589.36	2250.62
589.781	2237.07
590.202	2196.11
590.623	2184.36
591.043	2181.84
591.464	2164.18
591.885	2159.15
592.305	2152.14
592.726	2133.6
593.147	2136.87
593.567	2129.69
593.987	2119.78
594.408	2111.42
594.828	2109.37
595.248	2100.54
595.669	2073.62
596.089	2064.43
596.509	2055.71
596.929	2036.1
597.349	2037.97
597.769	2023.44
598.189	2014.77
598.608	2016.93
599.028	2022.57
599.448	2023.13
599.867	2005.37
600.287	2000.25
600.706	1993.81
601.126	1980.25
601.545	1979.86
601.965	1978.22
602.384	1972.23
602.803	1977.64
603.222	1970.92
603.641	1962.42
604.061	1957.59
604.48	1952.91
604.898	1966.21
605.317	1976.08
605.736	1980.36
606.155	1977.51
606.574	1965.39
606.992	1973.76
607.411	1968.74
607.829	1959.21
608.248	1956.48
608.666	1956.34
609.085	1957.73
609.503	1947.06
609.921	1939.59
610.339	1945.35
610.758	1946.63
611.176	1942.39
611.594	1931.33
612.012	1927.88
612.43	1934.7
612.847	1945.22
613.265	1948.5
613.683	1956.91
614.101	1960.46
614.518	1956.05
614.936	1941.94
615.353	1921.64
615.771	1918.17
616.188	1919.29
616.606	1915.22
617.023	1905.39
617.44	1885.27
617.857	1876.05
618.274	1864.32
618.691	1855.46
619.108	1842.57
619.525	1835.05
619.942	1845.62
620.359	1850.26
620.776	1843.74
621.192	1838.49
621.609	1836.08
622.026	1846.07
622.442	1854.58
622.859	1859.35
623.275	1850.04
623.691	1857.6
624.108	1875.72
624.524	1895.86
624.94	1896.55
625.356	1911.26
625.772	1931.23
626.188	1948.55
626.604	1951.37
627.02	1946.15
627.436	1944.15
627.852	1953.26
628.268	1971.29
628.683	1955.3
629.099	1942.1
629.514	1934.65
629.93	1939.73
630.345	1945.98
630.761	1938.75
631.176	1944.06
631.591	1933.23
632.007	1921.96
632.422	1918.65
632.837	1902.39
633.252	1899.02
633.667	1884.27
634.082	1869.42
634.497	1850.57
634.911	1820.35
635.326	1815.54
635.741	1788.22
636.155	1772.55
636.57	1773.78
636.984	1772.39
637.399	1771.4
637.813	1769.7
638.228	1765.98
638.642	1770.45
639.056	1752.86
639.47	1750.88
639.884	1735.26
640.298	1724.29
640.712	1719.52
641.126	1699.69
641.54	1683.87
641.954	1674.54
642.368	1654.09
642.781	1638.75
643.195	1609.17
643.609	1606.25
644.022	1593.9
644.436	1584.37
644.849	1563.08
645.262	1544.41
645.676	1543.1
646.089	1533.65
646.502	1508.62
646.915	1497.5
647.328	1472.02
647.741	1467.94
648.154	1447.23
648.567	1441.02
648.98	1420.85
649.393	1420.21
649.805	1411.93
650.218	1399.52
650.631	1375.65
651.043	1367.13
651.456	1357.85
651.868	1358.56
652.28	1381.57
652.693	1399.59
653.105	1408.24
653.517	1420.48
653.929	1419.4
654.341	1427.86
654.753	1409.94
655.165	1418.72
655.577	1413.76
655.989	1405.34
656.401	1392.09
656.813	1340.47
657.224	1310.15
657.636	1268.76
658.047	1242.74
658.459	1213.86
658.87	1198.25
659.282	1179.87
659.693	1148.59
660.104	1125.39
660.515	1104.4
660.926	1096.75
661.338	1088.18
661.749	1076.65
662.159	1060.04
662.57	1048.9
662.981	1038.02
663.392	1023.96
663.803	1023.94
664.213	1014.12
664.624	1002.61
665.035	999.96
665.445	978.68
665.855	963.75
666.266	948.09
666.676	939.8
667.086	924.38
667.497	918.34
667.907	905.46
668.317	888.35
668.727	881.34
669.137	878.73
669.547	872.3
669.956	871.7
670.366	870.36
670.776	868.93
671.186	869.85
671.595	870.15
672.005	870.32
672.414	867.21
672.824	863.94
673.233	865.37
673.642	865.4
674.052	867.96
674.461	869.02
674.87	872.81
675.279	869.62
675.688	870.03
676.097	871.65
676.506	868.93
676.915	885.14
677.323	888.13
677.732	887.41
678.141	888.51
678.549	876.84
678.958	877.71
679.366	879.75
679.775	887.54
680.183	903.55
680.592	914.66
681	925.71
681.408	923.32
681.816	938.36
682.224	955.55
682.632	974.25
683.04	1018.73
683.448	1056.86
683.856	1105.07
684.264	1160.57
684.671	1213.43
685.079	1276.85
685.487	1347.52
685.894	1441.64
686.302	1523.41
686.709	1594.86
687.116	1676.74
687.524	1746.06
687.931	1808.53
688.338	1862.3
688.745	1907.82
689.152	1956.53
689.559	2020.01
689.966	2083.23
690.373	2114.26
690.78	2172.17
691.187	2255.9
691.593	2316.02
692	2367.21
692.407	2445.46
692.813	2539.63
693.22	2610.31
693.626	2684.99
694.032	2739.77
694.439	2827.62
694.845	2890.78
695.251	2972.75
695.657	3045.85
696.063	3164.27
696.469	3245.48
696.875	3315.34
697.281	3347.19
697.687	3391.01
698.093	3422.46
698.498	3501.07
698.904	3556.58
699.31	3652.18
699.715	3713.67
700.12	3810.38
700.526	3812.47
700.931	3879.35
701.337	3926.46
701.742	3949.04
702.147	4037.55
702.552	4058.59
702.957	4114.21
703.362	4121.19
703.767	4137.91
704.172	4170.04
704.577	4093.7
704.981	4135.4
705.386	4140.47
705.791	4114.24
706.195	4188.82
706.6	4182.33
707.004	4262.82
707.408	4210.33
707.813	4228.35
708.217	4198.59
708.621	4187.93
709.025	4291.62
709.43	4277.63
709.834	4336.25
710.237	4404.77
710.641	4374.02
711.045	4388.09
711.449	4366.26
711.853	4388.27
712.256	4423.43
712.66	4456.96
713.064	4529.91
713.467	4564.94
713.87	4680.4
714.274	4719.25
714.677	4833.38
715.08	5004.03
715.484	5183.13
715.887	5402.59
716.29	5614.5
716.693	5837.01
717.096	6091.54
717.499	6225.72
717.901	6239.86
718.304	6258.2
718.707	6273.79
719.109	6143.61
719.512	6095.04
719.915	5930.86
720.317	5854.66
720.719	5889.43
721.122	5845.1
721.524	5782.06
721.926	5726.34
722.328	5825.53
722.731	5804.73
723.133	5821.73
723.535	6024.8
723.937	6038.65
724.338	6085.43
724.74	6123.61
725.142	6060.92
725.544	6051.29
725.945	6074.38
726.347	6062.8
726.748	6049.68
727.15	6056.98
727.551	6012
727.952	5974.35
728.354	5937.11
728.755	5929.86
729.156	5876.25
729.557	5846.26
729.958	5710.2
730.359	5641.22
730.76	5616.04
731.161	5545.18
731.562	5514.91
731.962	5515.53
732.363	5446.18
732.763	5376.3
733.164	5411.19
733.564	5339.11
733.965	5234.79
734.365	5197.84
734.766	5224.03
735.166	5179.07
735.566	5120.36
735.966	5091.72
736.366	5082.74
736.766	5013.58
737.166	5043.75
737.566	5000.14
737.966	4969.04
738.365	5007.99
738.765	4997.68
739.165	4918.93
739.564	4891.46
739.964	4936.7
740.363	4885.01
740.763	4880.74
741.162	4867.32
741.561	4832.16
741.96	4782.31
742.36	4803.56
742.759	4805.58
743.158	4845.93
743.557	4862.16
743.955	4902.38
744.354	4853.8
744.753	4913.49
745.152	4868.3
745.55	4925.27
745.949	4918.89
746.348	4918.94
746.746	4933.34
747.144	4891.46
747.543	4866.23
747.941	4912.65
748.339	4836.96
748.737	4826.74
749.136	4815.82
749.534	4881.53
749.932	4849.93
750.33	4873.28
750.727	4930.61
751.125	4906.56
751.523	4890.85
751.921	4935.38
752.318	4898.92
752.716	4962.06
753.113	4975.95
753.511	5000.95
753.908	5001.29
754.305	4985.58
754.703	5046.22
755.1	5107.55
755.497	5168.06
755.894	5362.11
756.291	5546.37
756.688	5889.16
757.085	6343.04
757.482	6981.65
757.878	7680.53
758.275	8309.18
758.672	9175.24
759.068	9884.29
759.465	10891.23
759.861	12181.66
760.258	13689.09
760.654	14465.78
761.05	14346.25
761.447	13679.18
761.843	12732.19
762.239	11758.59
762.635	11321.57
763.031	10898.21
763.427	10287.35
763.822	9645.82
764.218	9018.39
764.614	8191.67
765.01	7641.79
765.405	7288.38
765.801	7021.87
766.196	6680.27
766.592	6485.43
766.987	6157.86
767.382	5936.42
767.778	5844.34
768.173	5711.41
768.568	5637.22
768.963	5512.06
769.358	5530.15
769.753	5481.14
770.148	5395.47
770.542	5391.43
770.937	5359.71
771.332	5455.85
771.726	5476.66
772.121	5413.68
772.515	5467.44
772.91	5452.76
773.304	5524.02
773.699	5455.15
774.093	5507.86
774.487	5563.43
774.881	5607.8
775.275	5602.49
775.669	5558.38
776.063	5602.53
776.457	5636.47
776.851	5563.54
777.245	5555.07
777.638	5590.74
778.032	5709.06
778.425	5669.3
778.819	5709.06
779.212	5664.42
779.606	5622.93
779.999	5640.35
780.392	5624.17
780.786	5708.54
781.179	5726.77
781.572	5768.69
781.965	5779.8
782.358	5722.6
782.751	5781.64
783.143	5735.08
783.536	5813.77
783.929	5856.6
784.322	5975.7
784.714	6006.66
785.107	6001.46
785.499	6076.53
785.891	6054.36
786.284	6034.86
786.676	6182.65
787.068	6168
787.46	6221.77
787.852	6242.05
788.245	6333.03
788.636	6360.06
789.028	6428.02
789.42	6470.64
789.812	6482.32
790.204	6584.5
790.595	6687.38
790.987	6482.74
791.378	6506.29
791.77	6642.27
792.161	6779.98
792.553	6836.08
792.944	6728.61
793.335	6662.49
793.726	6740.58
794.117	6833.28
794.508	6977.92
794.899	6947.22
795.29	7095.35
795.681	7155.22
796.072	7007.7
796.463	6824.57
796.853	6836.87
797.244	7000.09
797.634	7034.71
798.025	7034.91
798.415	7047.51
798.806	7138.1
799.196	7228.45
799.586	7280.87
799.976	7241.79
800.366	7478.93
800.756	7722.3
801.146	7681.97
801.536	7714.04
801.926	7789.12
802.316	7820.11
802.706	7898.96
803.095	7773.26
803.485	7882.68
803.874	7926.67
804.264	8195.04
804.653	8172.85
805.043	8327.75
805.432	8442.24
805.821	8448.43
806.21	8479.63
806.599	8600.95
806.988	8648.23
807.377	8763.01
807.766	8899.92
808.155	9194.33
808.544	8927.32
808.933	8943.87
809.321	8924.62
809.71	9236.29
810.098	9398.87
810.487	9870.28
810.875	10370.51
811.264	10396.49
811.652	10700.83
812.04	10852.49
812.428	11027.72
812.816	11823.42
813.204	12258.59
813.592	12830.18
813.98	13179.74
814.368	13094.32
814.756	13600.15
815.144	13518.01
815.531	14004.02
815.919	13923.39
816.306	14242.97
816.694	13921.6
817.081	13976.25
817.469	14339.12
817.856	14334.83
818.243	14616.27
818.63	15017.34
819.017	14579.31
819.404	14643.44
819.791	15035.89
820.178	15676.01
820.565	15942.35
820.952	16911.37
821.339	16397.09
821.725	16591.5
822.112	15825.25
822.498	15789.06
822.885	15927.61
823.271	15834.65
823.657	16277.66
824.044	16285.29
824.43	16368.17
824.816	16337.57
825.202	15878.55
825.588	16943.99
825.974	16959.74
826.36	17496.47
826.746	17522.21
827.132	17885.45
827.517	17857.41
827.903	17035.43
828.289	17077.46
828.674	16253.38
829.06	16139.54
829.445	16557.33
829.83	16920.54
830.216	17405.51
830.601	17782.4
830.986	17357.4
831.371	17217.64
831.756	17795.53
832.141	17347.15
832.526	17338.24
832.911	17638.4
833.295	17513.74
833.68	17997.8
834.065	17349.13
834.449	16402.67
834.834	16325.57
835.218	16318.81
835.603	16662.05
835.987	16445.02
836.371	17305.68
836.755	17189.84
837.139	17596.78
837.524	17837.81
837.908	17640.07
838.291	17697.74
838.675	17764.64
839.059	17972.83
839.443	17960.39
839.827	17721.31
840.21	18202.25
840.594	18039.57
840.977	18254.4
841.361	18235.39
841.744	18626.25
842.127	18461.7
842.511	18713.64
842.894	19324.33
843.277	19711.19
843.66	20266.71
844.043	20345.42
844.426	19526.64
844.809	19200.85
845.191	19231.8
845.574	18748.38
845.957	18360.37
846.339	18247.94
846.722	17708.14
847.104	17772.3
847.487	17588.94
847.869	17596.36
848.252	17888.09
848.634	18214.28
849.016	18492.27
849.398	18617.11
849.78	19495.13
850.162	19502.98
850.544	19935.22
850.926	20573.92
851.307	20484.52
851.689	20777.9
852.071	21249.22
852.452	21571.89
852.834	21545.82
853.215	21947.62
853.597	22112.04
853.978	22414.09
854.359	22886.63
854.741	21859.44
855.122	21756.09
855.503	21468.34
855.884	21601.88
856.265	21530.49
856.646	21659.21
857.026	21257.74
857.407	21186.84
857.788	21334.48
858.169	21625.14
858.549	20752.77
858.93	21397.91
859.31	21452.98
859.69	21659.64
860.071	21243.25
860.451	21016.17
860.831	20245.31
861.211	21430.56
861.591	21999.79
861.971	21974.49
862.351	22173.27
862.731	22570.05
863.111	22837.81
863.491	23178.97
863.87	24085.17
864.25	24447.93
864.629	24048.32
865.009	24583.22
865.388	25474.68
865.768	27298.43
866.147	27201.23
866.526	25697.97
866.905	26003.58
867.284	27452.58
867.663	26061.17
868.042	24962.46
868.421	24880.93
868.8	25294.34
869.179	25547.02
869.558	24048.92
869.936	22174.8
870.315	22559.78
870.693	23107.14
871.072	24921.5
871.45	23752.3
871.828	24063.95
872.207	25307.6
872.585	24918.14
872.963	25594.08
873.341	24714.24
873.719	24429.98
874.097	24121.35
874.475	24593.24
874.853	25155.6
875.23	24103.73
875.608	25113.15
875.986	27161.13
876.363	25979.66
876.741	26779.83
877.118	26124.16
877.495	27406.28
877.873	27862.5
878.25	29330.89
878.627	28126.5
879.004	28528.85
879.381	28395.48
879.758	27640.94
880.135	25736.83
880.512	27215.38
880.889	26499.91
881.265	26214.34
881.642	25986.84
882.019	26413.71
882.395	25877.68
882.772	26893.93
883.148	25713.2
883.524	25618.98
883.901	25472.78
884.277	25841.56
884.653	25677.4
885.029	26401.09
885.405	29227.21
885.781	29004.57
886.157	27813.92
886.532	28141.58
886.908	28125.48
887.284	31280.95
887.659	32283.74
888.035	33271.06
888.411	34123.64
888.786	34558.44
889.161	35757.27
889.537	35094.83
889.912	36190.94
890.287	36143.01
890.662	37069.02
891.037	36390
891.412	33910.35
891.787	33562.81
892.162	32399.46
892.536	33144.17
892.911	31902.65
893.286	31217.08
893.66	29949.18
894.035	30713.39
894.409	33424.14
894.784	32058.58
895.158	32573.37
895.532	34504.3
895.906	35436.16
896.281	36262.19
896.655	35692.24
897.029	40777.27
897.402	42469.76
897.776	47281.17
898.15	47129.83
898.524	46634.44
898.898	47271.63
899.271	52953.44
899.645	45869.48
900.018	44078.6
900.392	45696.95
900.765	46053.53
901.138	42608.51
901.511	41955.56
901.884	38500.86
902.258	35512.79
902.631	36714.35
903.003	42247.21
903.376	38116.07
903.749	42713.22
904.122	45705.41
904.495	50331.67
904.867	50982.03
905.24	44272.51
905.612	41209.46
905.985	42148.29
906.357	44064.97
906.729	42036.7
907.102	35913.84
907.474	34531.41
907.846	34775.66
908.218	34311.7
908.59	30326.15
908.962	29328.85
909.334	31577.81
909.705	33178.02
910.077	32211.93
910.449	33520.23
910.82	34464.3
911.192	37912.35
911.563	39400.56
911.935	42147.03
912.306	42211.92
912.677	43612.95
913.048	43182.41
913.419	46830.18
913.79	47081.16
914.161	50471.29
914.532	48243.99
914.903	44341.68
915.274	42129.48
915.645	41516.1
916.015	36549.09
916.386	34848.15
916.756	37069.99
917.127	38226.27
917.497	34152.34
917.868	37187.16
918.238	35359.41
918.608	36392.96
918.978	37138.17
919.348	39325.68
919.718	40647.25
920.088	39163.42
920.458	40710.73
920.828	42849.6
921.198	40640.35
921.567	43454.28
921.937	33661.51
922.306	34001.49
922.676	36663.42
923.045	30604.6
923.415	29091.35
923.784	26505.56
924.153	27254.17
924.522	27210.93
924.891	25574.59
925.26	27388.05
925.629	26747.89
925.998	30742.73
926.367	30002.74
926.736	28586.38
927.104	34053.59
927.473	36605.18
927.842	44214.45
928.21	43789.16
928.578	46039.69
928.947	43563.68
929.315	43864.07
929.683	51454.17
930.051	51920.1
930.42	60292.2
930.788	51521.01
931.156	51136.74
931.523	47936.74
931.891	44295.81
932.259	42561.7
932.627	49349.24
932.994	69800.72
933.362	57680.12
933.729	50079.24
934.097	47892.33
934.464	40531.98
934.831	46765.32
935.199	46092.32
935.566	44697.96
935.933	45208.84
936.3	54772.55
936.667	42629.73
937.034	38468.47
937.401	38025.13
937.767	32814.51
938.134	29230.47
938.501	41202.84
938.867	43950.94
939.234	74282.88
939.6	63347.09
939.967	69975.57
940.333	46817.07
940.699	39852.9
941.065	31951.62
941.431	41930.11
941.798	40401.65
942.163	53055.69
942.529	33125.77
942.895	30441.56
943.261	19677.95
943.627	25837.59
943.992	22580.92
944.358	22613.95
944.723	22715.65
945.089	22133.08
945.454	20443.76
945.82	21815.99
946.185	20938.84
946.55	24295.66
946.915	21822.01
947.28	25612.31
947.645	22565.67
948.01	20854.93
948.375	21792.44
948.74	26095.85
949.104	30450.38
949.469	43963.46
949.834	77763.18
950.198	73820.08
950.562	44208.83
950.927	36848.76
951.291	44381.92
951.655	37770.79
952.02	35439.85
952.384	26724.43
952.748	23266.87
953.112	22704.85
953.476	19746.72
953.839	18241.21
954.203	18023.94
954.567	22538.32
954.931	35450.61
955.294	30315.18
955.658	30464.5
956.021	51806.11
956.385	87832.96
956.748	129563
957.111	200789.98
957.474	225314.65
957.837	253780.37
958.2	192321.09
958.563	69233.75
958.926	46823
959.289	71024.42
959.652	79358.3
960.015	59609.95
960.377	85570.44
960.74	97733.21
961.102	168722.16
961.465	181364.68
961.827	97293.84
962.189	186535.98
962.552	129284.77
962.914	103645.18
963.276	67261.8
963.638	55628.51
964	55052.76
964.362	37223.06
964.724	35969.4
965.085	25663.14
965.447	21021.57
965.809	23933.59
966.17	23957.62
966.532	25914.53
966.893	23788.87
967.255	21639.77
967.616	25526.53
967.977	20443.79
968.338	22320.2
968.699	18340.84
969.061	18315.09
969.421	18428.58
969.782	20669
970.143	17460.52
970.504	18117.43
970.865	20597.44
971.225	21064.69
971.586	20637.57
971.946	29405.8
972.307	25525.36
972.667	33364.29
973.027	34402.85
973.388	41756.43
973.748	28403.64
974.108	30956.28
974.468	41795.12
974.828	32227.4
975.188	24800.14
975.548	22774.1
975.907	19121.06
976.267	21438.74
976.627	18027.8
976.986	18692.43
977.346	17820.1
977.705	17157.54
978.064	15616.07
978.424	13009.71
978.783	13438.49
979.142	15349.82
979.501	14682.33
979.86	15553.99
980.219	14999.27
980.578	19323.9
980.937	21624.05
981.296	19271.57
981.654	19815.3
982.013	30840.37
982.371	40061.99
982.73	37395.7
983.088	42355.52
983.447	45273.01
983.805	64612.14
984.163	135108.4
984.521	150004.04
984.879	219848.93
985.237	-357562.53
985.595	344846.08
985.953	85669.15
986.311	49396.73
986.669	28700.98
987.026	24738.33
987.384	33225.04
987.741	34299.84
988.099	24507.66
988.456	19524.51
988.814	18296.57
989.171	15893.54
989.528	15662.9
989.885	16539.73
990.242	13106.06
990.599	16341.6
990.956	13371.89
991.313	9369.41
991.67	7708.65
992.027	8192.21
992.383	7296.73
992.74	6394.3
993.096	6715.77
993.453	6972.21
993.809	7239.21
994.165	9636.08
994.522	8829.54
994.878	9721.72
995.234	12187.58
995.59	12008.8
995.946	11342.67
996.302	12933.75
996.658	14991.41
997.013	16493.1
997.369	19570.65
997.725	25015.69
998.08	16226.39
998.436	24976.06
998.791	34524.54
999.147	34458.28
999.502	37574.36
999.857	27307.3
1000.212	44464.78
1000.567	63168.76
1000.922	36477.25
1001.277	23159.13
1001.632	17208.34
1001.987	22154.65
1002.342	15939.73
1002.696	12727.17
1003.051	10149.14
1003.406	12306.52
1003.76	12220.08
1004.114	12028.53
1004.469	10130.39
1004.823	8384.48
1005.177	9048.33
1005.531	7155.69
1005.885	6348.8
1006.239	7173.05
1006.593	9035.89
1006.947	12106.43
1007.301	9065.34
1007.655	9917.86
1008.008	7288.71
1008.362	8186.15
1008.715	11722.33
1009.069	10645.76
1009.422	16033.59
1009.776	32162.27
1010.129	21309.94
1010.482	17740.39
1010.835	14987.23
1011.188	31252.2
1011.541	29372.9
1011.894	-179471.36
1012.247	528245.93
1012.6	35805.67
1012.952	22657.12
1013.305	11676.97
1013.657	8429.05
1014.01	7974.28
1014.362	6581.7
1014.715	5857.76
1015.067	5103.4
1015.419	4989.31
1015.771	4436.59
1016.123	3966.8
1016.475	4081.64
1016.827	4343.22
1017.179	4672
1017.531	4693.02
1017.883	4785.6
1018.234	4633.6
1018.586	5849.05
1018.938	6227.91
1019.289	8588.64
1019.64	9798.25
1019.992	9073.14
1020.343	8311.42
1020.694	6563.03
1021.045	5807.32
1021.396	6640.12
1021.747	7152.91
1022.098	8537.52
1022.449	6192.37
1022.8	5726.25
1023.151	4000.77
1023.501	3565.32
1023.852	3880.58
1024.202	4029.22
1024.553	4400.27
1024.903	4322.55
1025.253	3708.87
1025.604	3332.3
1025.954	4147.58
1026.304	5068.68
1026.654	5901.34
1027.004	8629.93
1027.354	13966.72
1027.703	13150.94
1028.053	17283.25
1028.403	25236.57
1028.753	36252.07
1029.102	49206.35
1029.452	252853.97
1029.801	10902.48
1030.15	7009.95
1030.499	5918.17
897.758	3288.06
901.051	3275.13
904.343	3310.49
907.636	3302.92
910.928	3374.05
914.22	3275.48
917.511	3288.75
920.803	3376.87
924.094	3425.68
927.384	3373.72
930.675	3338.09
933.965	3279.63
937.255	3270.25
940.544	3237.57
943.834	3088.74
947.123	3045.74
950.411	3153.3
953.7	3113.8
956.988	3062.17
960.276	3008.43
963.563	3132
966.851	3110.2
970.138	3189.82
973.424	3165.33
976.711	3114.07
979.997	3372.85
983.283	3386.94
986.568	3253.56
989.853	3304.74
993.138	3333.13
996.423	3413.02
999.708	3323.53
1002.992	3444.39
1006.275	3168.63
1009.559	3279.07
1012.842	3419.65
1016.125	3321.14
1019.408	3299.04
1022.69	3428.37
1025.972	3427.37
1029.254	3394.53
1032.536	3287.12
1035.817	3337.68
1039.098	3235.42
1042.379	3506.99
1045.659	3457.48
1048.939	3366.1
1052.219	3411.56
1055.498	3442.23
1058.778	3410.06
1062.057	3404.89
1065.335	3423.02
1068.614	3457.19
1071.892	3413.87
1075.17	3521.75
1078.447	3495.6
1081.724	3478.31
1085.001	3532.91
1088.278	3493.25
1091.554	3519.42
1094.83	3516.6
1098.106	3540.4
1101.382	3606.02
1104.657	3603.06
1107.932	3600.76
1111.206	3546.97
1114.481	3505.29
1117.755	3516.82
1121.029	3478.82
1124.302	3525.84
1127.575	3453
1130.848	3429.1
1134.121	3379.49
1137.393	3307.74
1140.665	3391.91
1143.937	3371.78
1147.208	3270.7
1150.48	3298.08
1153.75	3278.55
1157.021	3349.12
1160.291	3305.99
1163.561	3344.76
1166.831	3369.12
1170.101	3403.37
1173.37	3392.98
1176.639	3312.58
1179.907	3388.03
1183.176	3444.46
1186.444	3448.06
1189.711	3479.37
1192.979	3477.28
1196.246	3437.5
1199.513	3460.39
1202.78	3454.01
1206.046	3460.07
1209.312	3498.06
1212.578	3534.02
1215.843	3463.04
1219.108	3442.67
1222.373	3467.64
1225.638	3414.39
1228.902	3388.06
1232.166	3356.03
1235.43	3333.12
1238.693	3348.02
1241.956	3354.46
1245.219	3381.28
1248.482	3387.23
1251.744	3375.47
1255.006	3565.67
1258.268	3527.03
1261.529	3455.25
1264.79	3471.73
1268.051	3601.34
1271.312	3621.22
1274.572	3575.06
1277.832	3563.41
1281.092	3566.52
1284.351	3510.92
1287.61	3480.8
1290.869	3367.5
1294.128	3317.55
1297.386	3462.91
1300.644	3445.77
1303.902	3457.09
1307.159	3298.23
1310.416	3358.62
1313.673	3381.04
1316.93	3348.79
1320.186	3418.32
1323.442	3476.01
1326.697	3448.67
1329.953	3463.43
1333.208	3470.71
1336.463	3459.49
1339.717	3381.3
1342.972	3473.67
1346.226	3481.37
1349.479	3386.71
1352.733	3341.36
1355.986	3388.93
1359.238	3357.91
1362.491	3354
1365.743	3361.16
1368.995	3365.68
1372.247	3378.23
1375.498	3392.46
1378.749	3458.1
1382	3395.84
1385.251	3474.51
1388.501	3447.92
1391.751	3412.47
1395	3392.38
1398.25	3435.46
1401.499	3425.19
1404.748	3331.34
1407.996	3243.53
1411.244	3240.2
1414.492	3212.46
1417.74	3182.79
1420.987	3206.91
1424.234	3255.92
1427.481	3260.41
1430.728	3318.13
1433.974	3288.73
1437.22	3325.22
1440.465	3327.35
1443.711	3332.11
1446.956	3365.12
1450.201	3375.67
1453.445	3423.37
1456.689	3383.75
1459.933	3403.7
1463.177	3428.41
1466.42	3395.94
1469.663	3376.99
1472.906	3341.56
1476.148	3492
1479.391	3369.26
1482.633	3358.05
1485.874	3354.1
1489.115	3315.34
1492.356	3346.19
1495.597	3312.35
1498.838	3331.2
1502.078	3276.46
1505.318	3194.17
1508.557	3248.32
1511.797	3157.11
1515.036	3336.64
1518.274	3319.75
1521.513	3308.82
1524.751	3344.19
1527.989	3344.78
1531.227	3349.01
1534.464	3308.54
1537.701	3367.1
1540.938	3397.73
1544.174	3355.14
1547.41	3370.54
1550.646	3406.73
1553.882	3426.46
1557.117	3477.27
1560.352	3504.88
1563.587	3455.9
1566.821	3403.93
1570.055	3470.59
1573.289	3425.62
1576.523	3527.73
1579.756	3528.71
1582.989	3540.06
1586.222	3499.74
1589.454	3555.59
1592.686	3515.6
1595.918	3535.24
1599.15	3511.14
1602.381	3627.37
1605.612	3548.08
1608.843	3650.2
1612.073	3545.29
1615.303	3523.14
1618.533	3502.43
1621.762	3517.2
1624.992	3517.45
1628.221	3480.49
1631.449	3463.81
1634.678	3560.73
1637.906	3499.25
1641.134	3556.08
1644.361	3500.43
1647.588	3484.86
1650.815	3491.96
1654.042	3491.7
1657.269	3529.08
1660.495	3476.4
1663.72	3417.26
1666.946	3405.43
1670.171	3302.39
1673.396	3282.82
1676.621	3279.24
1679.845	3331.99
1683.069	3376.24
1686.293	3439.85
1689.517	3385.8
1692.74	3274.78
1695.963	3291.54
1699.185	3395.01
1702.408	3340.03
1705.63	3399.24
1708.852	3401.62
1712.073	3373.7
1715.294	3334.32
1718.515	3356.63
1721.736	3300.02
1724.956	3262.07
1728.176	3300.3
1731.396	3317.86
1734.616	3318.08
1737.835	3323.19
1741.054	3319.59
1744.272	3320.22
1747.491	3328.83
1750.709	3421.6
1753.927	3319.03
1757.144	3382.24
1760.361	3454.34
1763.578	3467.28
1766.795	3395.11
1770.011	3418.15
1773.227	3483.95
1776.443	3512.09
1779.658	3556.39
1782.874	3503.45
1786.089	3466.24
1789.303	3471.2
1792.518	3481.22
1795.732	3472.56
1798.945	3471.34
1802.159	3533.31
1805.372	3384.53
1808.585	3355.83
1811.797	3359.23
1815.01	3444.46
1818.222	3449.15
1821.434	3313.57
1824.645	3427.57
1827.856	3384.07
1831.067	3434.18
1834.278	3355.36
1837.488	3347.17
1840.698	3535.51
1843.908	3431.56
1847.117	3389.7
1850.326	3206.77
1853.535	3351.41
1856.744	3484.34
1859.952	3355.64
1863.16	3351.14
1866.368	3379.25
1869.575	3538.04
1872.782	3415.55
1875.989	3357.73
1879.196	3494.54
1882.402	3487.6
1885.608	3540.41
1888.814	3395.78
1892.019	3266.28
1895.224	3319.63
1898.429	3320.8
1901.634	3285.51
1904.838	3270.35
1908.042	3310.91
1911.246	3312.18
1914.449	3196
1917.652	3216.86
1920.855	3200.95
1924.058	3278.65
1927.26	3307.74
1930.462	3347.57
1933.664	3357.41
1936.865	3288.65
1940.066	3280.13
1943.267	3230.53
1946.467	3261.29
1949.668	3298.52
1952.868	3362.12
1956.067	3321.14
1959.267	3240.99
1962.466	3276.14
1965.665	3262.44
1968.863	3259.93
1972.061	3293.2
1975.259	3304.69
1978.457	3393.35
1981.654	3336.73
1984.852	3337.14
1988.048	3239.41
1991.245	3262.93
1994.441	3349.1
1997.637	3366.93
2000.833	3348.48
2004.028	3396.12
2007.223	3442.28
2010.418	3400.18
2013.613	3369.88
2016.807	3308.91
2020.001	3337.88
2023.194	3416.59
2026.388	3378.4
2029.581	3324.32
2032.774	3356.91
2035.966	3353.21
2039.158	3259.15
2042.35	3295.18
2045.542	3221.61
2048.733	3356.4
2051.924	3420.13
2055.115	3463.37
2058.306	3370.82
2061.496	3441.32
2064.686	3526.88
2067.875	3448.36
2071.065	3481.6
2074.254	3521.38
2077.442	3471.38
2080.631	3575.35
2083.819	3404.41
2087.007	3368.5
2090.195	3320.42
2093.382	3383.77
2096.569	3356.62
2099.756	3296.91
2102.942	3292.46
2106.128	3283.44
2109.314	3280.85
2112.5	3209.86
2115.685	3197.46
2118.87	3212.16
2122.055	3287.95
2125.239	3231.36
2128.424	3183.65
2131.608	3350.84
2134.791	3329.08
2137.974	3419.77
2141.157	3394.99
2144.34	3319.95
2147.523	3338.44
2150.705	3330.01
2153.887	3327.65
2157.068	3244.05
2160.25	3277.73
2163.431	3339.59
2166.611	3249.6
2169.792	3261.29
2172.972	3126.87
2176.152	3250.05
2179.331	3296.88
2182.511	3278.99
2185.69	3314.18
2188.868	3299.7
2192.047	3385.32
2195.225	3339.11
2198.403	3285.43
2201.58	3286.8
2204.758	3290.03
2207.935	3387.61
2211.111	3235.82
2214.288	3211.62
2217.464	3263.26
2220.64	3257.1
2223.815	3321.46
2226.991	3227.25
2230.166	3252.39
2233.34	3265.74
2236.515	3304.85
2239.689	3395.64
2242.863	3329.62
2246.036	3393.05
2249.209	3418.61
2252.382	3471
2255.555	3433.47
2258.727	3346.91
2261.9	3402.09
2265.071	3392.92
2268.243	3408.8
2271.414	3316.54
2274.585	3243.32
2277.756	3322.66
2280.926	3275.68
2284.096	3334.34
2287.266	3208.44
2290.436	3279.44
2293.605	3321.47
2296.774	3338.41
2299.942	3385.62
2303.111	3399.49
2306.279	3443.68
2309.447	3433.8
2312.614	3413.11
2315.781	3428.91
2318.948	3383.84
2322.115	3426.93
2325.281	3323.9
2328.447	3365.12
2331.613	3343.72
2334.779	3289.56
2337.944	3304.43
2341.109	3292.94
2344.274	3271.84
2347.438	3230.72
2350.602	3265.43
2353.766	3288.25
2356.929	3269.44
2360.092	3317.22
2363.255	3239.22
2366.418	3128.36
2369.58	3307.56
2372.742	2970.17
2375.904	3014.71
2379.066	2972.94
2382.227	3025.52
2385.388	2980.76
2388.548	2876.18
2391.709	2951.12
2394.869	2920.77
2398.029	3082.2
2401.188	3121.8
2404.347	3015.54
2407.506	3241.43
2410.665	3259.91
2413.823	3292.98
2416.981	3218.24
2420.139	3274.76
2423.296	3338.71
2426.453	3312.86
2429.61	3338.6
2432.767	3221.18
2435.923	3274.61
2439.079	3145.01
2442.235	3241.85
2445.391	3144.74
2448.546	3148.56
2451.701	3224.44
2454.855	3157.4
2458.009	3242.49
2461.163	3263.42
2464.317	3205.18
2467.471	3249.32
2470.624	3288.28
2473.777	3348.32
2476.929	3333.2
2480.082	3365.7
2483.234	3334.75
2486.385	3198.19
2489.537	3202.59
2492.688	3126.73
2495.839	3145.57
2498.989	3145.44
2502.14	3126.92
2505.29	3090
2508.439	3119.03
2511.589	3017.76
2514.738	3049.83
2517.887	3077.47
2521.035	3241.71
2524.183	3235.47
2527.331	3201.19
2530.479	3147.59
2533.627	3172.03
