Data from N_3_DEC_CT_2N_Splice17_13-02-24-476.txt Node
Date: Sat Mar 14 13:02:24 EDT 2020
User: sa697716
Spectrometer: FLMS03696
Trigger mode: 0
Integration Time (sec): 3.180400E-1
Scans to average: 20
Electric dark correction enabled: true
Nonlinearity correction enabled: true
Boxcar width: 5
XAxis mode: Wavelengths
Number of Pixels in Spectrum: 2048
>>>>>Begin Spectral Data<<<<<
187.83	-295071.41
188.298	2208.38
188.766	1204.13
189.233	1052.81
189.701	1613.98
190.169	2291.7
190.636	844.48
191.104	654.48
191.571	108.52
192.039	-69.44
192.506	-116.53
192.974	462.07
193.441	-706.18
193.908	-186.18
194.375	-88.98
194.842	82.47
195.31	220.15
195.777	199.45
196.244	414.5
196.711	497.37
197.177	626.87
197.644	899.94
198.111	1539.91
198.578	2181.36
199.045	1753.19
199.511	2895.31
199.978	3355.16
200.445	2847.23
200.911	3146.85
201.378	3515.43
201.844	3193.28
202.31	5441.81
202.777	5661.09
203.243	3180.08
203.709	3011.42
204.176	3573.45
204.642	2942.38
205.108	2754.61
205.574	2238.2
206.04	2047.69
206.506	1910.22
206.972	1803.82
207.438	1752.58
207.903	1996.73
208.369	1750.38
208.835	1746.67
209.301	1855.11
209.766	1901
210.232	1891.84
210.697	2354.09
211.163	2923.09
211.628	4453.06
212.094	3752.19
212.559	4599.22
213.024	2860.77
213.49	3476.01
213.955	3410.23
214.42	3322.96
214.885	3099.16
215.35	2964.9
215.815	2858.22
216.28	3028.43
216.745	2485.5
217.21	2694.68
217.675	2499.93
218.14	2842.86
218.604	3212.08
219.069	3710.51
219.534	3935.21
219.998	4623.96
220.463	5666.89
220.927	7065.46
221.392	6723.73
221.856	6843.14
222.32	8697.7
222.785	10780.75
223.249	13637.78
223.713	15289.82
224.177	15361.65
224.642	19775.24
225.106	24420.53
225.57	26757.22
226.034	19929.88
226.497	30334.39
226.961	27455.14
227.425	31963.02
227.889	35579.76
228.353	35624.99
228.816	73560.03
229.28	70254.14
229.744	59279.95
230.207	36067.72
230.671	35526.36
231.134	58871.87
231.597	67887.24
232.061	67887.19
232.524	66311.61
232.987	45659.14
233.45	41097.58
233.914	36903.23
234.377	37876.53
234.84	34672.24
235.303	40903.54
235.766	45646.09
236.229	47124.28
236.691	29701.52
237.154	33392.13
237.617	25127.21
238.08	25749.76
238.542	30156.9
239.005	21579.28
239.468	21433.46
239.93	20209.92
240.393	18362.35
240.855	16125.47
241.317	16526.88
241.78	20115.25
242.242	20793.6
242.704	22447.02
243.166	19537.43
243.629	17740.75
244.091	20457.83
244.553	22421.9
245.015	24096.77
245.477	31178.89
245.939	45757.23
246.4	48601.53
246.862	47302.24
247.324	44593.69
247.786	49943.05
248.247	65516.87
248.709	67675.61
249.17	50614.91
249.632	47677.28
250.093	55357.68
250.555	47841.06
251.016	29182.99
251.477	27685.75
251.939	29891.53
252.4	31372.53
252.861	37328.81
253.322	34759.53
253.783	41432.11
254.244	53740.75
254.705	42396.15
255.166	37708.18
255.627	37175.78
256.088	52414.09
256.549	55725.25
257.009	48048.39
257.47	58360.83
257.931	47592.62
258.391	35673.29
258.852	36781.72
259.312	38617.88
259.773	47781.9
260.233	40369.71
260.694	34062.89
261.154	38672.78
261.614	31065.46
262.074	27774.46
262.534	28875.11
262.994	27211.11
263.455	36301.88
263.915	30581.38
264.374	28805.53
264.834	31480.09
265.294	34940.29
265.754	36184.09
266.214	34273.55
266.673	32128.84
267.133	40599.14
267.593	40327.88
268.052	49384.5
268.512	42964.15
268.971	51831.09
269.431	56889.17
269.89	50940.12
270.349	76391.44
270.809	85254.81
271.268	76648.58
271.727	171861.38
272.186	111275.96
272.645	83424.85
273.104	60206.05
273.563	87163.74
274.022	68570.35
274.481	58326.37
274.94	44933.13
275.399	33386.3
275.857	38864
276.316	52614.76
276.775	46825.88
277.233	46163.02
277.692	43215.96
278.15	48900.81
278.609	50308.38
279.067	46549.34
279.525	43248.94
279.984	55862.16
280.442	67132.34
280.9	66186.62
281.358	43484.65
281.816	40513.54
282.274	39597.59
282.732	40918.15
283.19	41105.75
283.648	35462.2
284.106	37784.86
284.564	38397.97
285.021	35591.65
285.479	26527.96
285.937	24132.88
286.394	21201.52
286.852	21824.04
287.309	22962.22
287.767	22188.06
288.224	21097.53
288.682	23178.23
289.139	25436.85
289.596	23299.02
290.053	24240.73
290.511	30635.98
290.968	37149.76
291.425	50405.99
291.882	41942.98
292.339	36489.32
292.796	36216.3
293.252	34125.05
293.709	27094.52
294.166	24300.47
294.623	26850.35
295.079	25751.79
295.536	25846.51
295.992	23471.67
296.449	23207.1
296.905	24103.58
297.362	23105.77
297.818	24287.78
298.274	25176.08
298.731	25642.64
299.187	25356.91
299.643	27229.07
300.099	32942.58
300.555	36096.26
301.011	30154.12
301.467	29026.3
301.923	34018.44
302.379	33230.68
302.835	32633.81
303.291	32694.38
303.746	37217.47
304.202	47083.82
304.658	47202.31
305.113	31737.98
305.569	31110.94
306.024	33169.99
306.479	31583.4
306.935	26632.87
307.39	29102.68
307.845	26878.73
308.301	27024.48
308.756	26330.9
309.211	25349.09
309.666	26000.95
310.121	32256.99
310.576	32743.17
311.031	32487.98
311.486	37225.81
311.94	37171.25
312.395	49714.31
312.85	93483.88
313.305	459614.99
313.759	2376160.49
314.214	172087.66
314.668	136293.89
315.123	114618.49
315.577	41092.27
316.032	36522.86
316.486	45823.1
316.94	36158.41
317.394	25128
317.849	19517.48
318.303	18460.47
318.757	17414.6
319.211	19259.5
319.665	16874.49
320.119	17077.57
320.572	24508.94
321.026	22879.08
321.48	19018.64
321.934	20715.13
322.387	20763.54
322.841	22391.8
323.295	20143.76
323.748	23205.91
324.202	23507.46
324.655	28203.66
325.108	39337.94
325.562	27747.86
326.015	32972.31
326.468	24939.65
326.921	27884.04
327.374	25960.72
327.827	27011.3
328.28	30528.4
328.733	20425.85
329.186	17970.4
329.639	17130.8
330.092	14445.68
330.545	13765.26
330.997	13887.44
331.45	15153.03
331.903	17760.38
332.355	30568.57
332.808	29757.71
333.26	24574.64
333.713	26689.1
334.165	26865.32
334.617	35822.21
335.069	28983.99
335.522	52364.6
335.974	57957.85
336.426	52895.42
336.878	36578.31
337.33	18529.68
337.782	18073.1
338.234	22596.28
338.686	27049.55
339.137	32040.14
339.589	30169.13
340.041	23621.17
340.493	20290.13
340.944	20765.94
341.396	22386.35
341.847	18852.16
342.299	22291.42
342.75	27195.95
343.201	23754.51
343.653	27308.06
344.104	33540.6
344.555	26376.32
345.006	41002.29
345.457	31376.52
345.908	24941.73
346.359	23451.89
346.81	19088.55
347.261	20070.9
347.712	19765.88
348.163	21180.8
348.613	21395.1
349.064	19972.43
349.515	17486.1
349.965	17942.64
350.416	21602.16
350.866	23691.14
351.317	26800.26
351.767	44353.27
352.217	55978.17
352.668	46412.27
353.118	42529.9
353.568	41048.47
354.018	32445.39
354.468	34210.57
354.918	24522.09
355.368	21464.97
355.818	30292.12
356.268	87055.35
356.718	364103.83
357.168	90645.61
357.617	45482.94
358.067	50653.79
358.517	47552.62
358.966	55734.12
359.416	62433.59
359.865	67391.46
360.315	80135.29
360.764	37374.05
361.213	20945.76
361.663	19807.63
362.112	24441.94
362.561	39453.3
363.01	29709.96
363.459	24948.32
363.908	26972.24
364.357	22925.42
364.806	38768.4
365.255	26645.29
365.703	24398.26
366.152	24377.45
366.601	19799.35
367.05	16069.86
367.498	14608.55
367.947	15242.6
368.395	15857.37
368.844	14021.06
369.292	16846.04
369.74	11624.42
370.189	17792.03
370.637	20855.81
371.085	18025.97
371.533	21910.51
371.981	21119.23
372.429	20101.49
372.877	20941.98
373.325	17497.43
373.773	17839.8
374.221	15883.22
374.669	19676.24
375.116	16996.07
375.564	17090.06
376.012	19046.38
376.459	15697.62
376.907	18728.91
377.354	22618.8
377.801	21073.34
378.249	24190.03
378.696	30882.1
379.143	37356.35
379.591	39740.42
380.038	67130.66
380.485	48525.07
380.932	52293.77
381.379	47758.2
381.826	35086.73
382.273	24900.09
382.72	21737.85
383.166	21140.72
383.613	13694.08
384.06	12323.22
384.506	14257.66
384.953	10442.18
385.4	10489.17
385.846	9199.25
386.292	8943.83
386.739	8744.67
387.185	8638.8
387.631	8616.25
388.078	8347.82
388.524	8920
388.97	8223.1
389.416	6842.98
389.862	7263.42
390.308	6873.95
390.754	6958.6
391.2	7540.34
391.645	7694.45
392.091	7343.65
392.537	7083.8
392.983	7084.32
393.428	6944.42
393.874	7428.78
394.319	7441.86
394.765	7053.73
395.21	7225.59
395.655	6756.41
396.101	6312.72
396.546	5695.11
396.991	5737.66
397.436	5323.92
397.881	5138.57
398.326	4861.86
398.771	4589.83
399.216	4002.55
399.661	3591.18
400.106	3579.02
400.551	3661.02
400.995	3282.02
401.44	3244.03
401.885	3042.16
402.329	3075.53
402.774	2942.26
403.218	2839.35
403.663	2731.05
404.107	2804.89
404.551	2830.69
404.995	2588.27
405.44	2489.31
405.884	2524.14
406.328	2436.82
406.772	2422.74
407.216	2199.77
407.66	2123.65
408.104	2015.45
408.547	1886.52
408.991	1822.62
409.435	1753.59
409.879	1729.37
410.322	1706.35
410.766	1646.63
411.209	1565.85
411.653	1503.25
412.096	1472.52
412.54	1476.25
412.983	1468.01
413.426	1471.86
413.869	1471
414.312	1439.51
414.756	1384.43
415.199	1319.33
415.642	1279.52
416.085	1279.63
416.527	1268.77
416.97	1286.85
417.413	1218.26
417.856	1204.23
418.298	1192.28
418.741	1183.45
419.184	1177.97
419.626	1225.8
420.069	1224.53
420.511	1229.99
420.953	1203.8
421.396	1193.46
421.838	1160.51
422.28	1187.11
422.722	1190.61
423.164	1206
423.606	1186.49
424.048	1185.65
424.49	1130.22
424.932	1125.71
425.374	1109.1
425.816	1126.76
426.258	1148.25
426.699	1162.41
427.141	1142.12
427.582	1159.84
428.024	1152.39
428.465	1141.67
428.907	1110.55
429.348	1092.22
429.789	1090.56
430.231	1069.08
430.672	1080.82
431.113	1052.72
431.554	1035.22
431.995	1010.38
432.436	972.84
432.877	949.76
433.318	934.61
433.759	931.81
434.2	933.86
434.64	922.29
435.081	924.05
435.522	875.88
435.962	845.36
436.403	828.17
436.843	836.54
437.284	818.58
437.724	796.45
438.164	799.15
438.604	782.35
439.045	753.5
439.485	724.51
439.925	708.44
440.365	691.5
440.805	683.07
441.245	675.7
441.685	652.01
442.125	646.24
442.564	650.71
443.004	633.4
443.444	630.45
443.883	630.87
444.323	624.57
444.762	623.49
445.202	631.85
445.641	642.56
446.081	636.85
446.52	641.93
446.959	636.76
447.398	622.44
447.837	615.03
448.276	604.56
448.716	609.32
449.154	614.19
449.593	602.15
450.032	599.04
450.471	586.5
450.91	585.2
451.349	582.92
451.787	578.84
452.226	585.93
452.664	586.96
453.103	587.84
453.541	586.88
453.98	586.23
454.418	587.47
454.856	580.08
455.295	578.46
455.733	584.2
456.171	587.28
456.609	586.91
457.047	586.67
457.485	594.79
457.923	595.16
458.361	585.95
458.798	587.05
459.236	585.16
459.674	586.08
460.111	588.95
460.549	582.13
460.987	578.14
461.424	576.1
461.862	572.29
462.299	561.94
462.736	561.31
463.173	563.2
463.611	557.37
464.048	558.16
464.485	562.97
464.922	557.67
465.359	553.7
465.796	550.34
466.233	548.2
466.67	544.41
467.106	544.1
467.543	537.61
467.98	530.97
468.416	516.3
468.853	511.19
469.29	495.73
469.726	490.46
470.162	477.53
470.599	468.55
471.035	463.76
471.471	452.01
471.907	448.23
472.344	445.5
472.78	446.5
473.216	452.16
473.652	445.82
474.088	444.94
474.523	442.94
474.959	447.82
475.395	444.85
475.831	441.64
476.266	442.8
476.702	441.61
477.138	436.83
477.573	434.88
478.008	432.9
478.444	435.81
478.879	439.57
479.314	441.76
479.75	441.68
480.185	442.18
480.62	445.56
481.055	448.27
481.49	450.97
481.925	457.01
482.36	465.85
482.795	478.73
483.229	490.63
483.664	501.15
484.099	502.55
484.534	509.54
484.968	514.57
485.403	515.98
485.837	515.11
486.271	514.28
486.706	515.22
487.14	508.29
487.574	499.89
488.009	495.21
488.443	489.42
488.877	494.77
489.311	496.27
489.745	501.18
490.179	505.87
490.613	515.6
491.046	518.98
491.48	522.04
491.914	522.59
492.348	525.78
492.781	529.05
493.215	531.15
493.648	531.49
494.082	535.2
494.515	536.75
494.948	543.22
495.382	546.65
495.815	551.73
496.248	557.37
496.681	567.75
497.114	577.73
497.547	586.66
497.98	598.28
498.413	605.05
498.846	614.43
499.279	622.07
499.711	625.9
500.144	629.22
500.577	639.59
501.009	648.71
501.442	658.16
501.874	660.56
502.306	663.69
502.739	672.47
503.171	685.62
503.603	689.98
504.036	699.45
504.468	706.64
504.9	718.56
505.332	726.53
505.764	733.4
506.196	742.28
506.627	758.44
507.059	772.35
507.491	782.31
507.923	784.23
508.354	801.22
508.786	814.53
509.217	833.47
509.649	850.42
510.08	870.1
510.512	888.92
510.943	905.77
511.374	919.59
511.805	941.84
512.237	962.75
512.668	995.93
513.099	1023
513.53	1051.25
513.961	1075.81
514.391	1108.74
514.822	1143.51
515.253	1179.98
515.684	1209.58
516.114	1241.27
516.545	1266.73
516.975	1296.37
517.406	1318.85
517.836	1327.1
518.267	1338.88
518.697	1360.54
519.127	1370.18
519.558	1381.94
519.988	1390.18
520.418	1404.12
520.848	1426.08
521.278	1439.42
521.708	1467.48
522.138	1483.84
522.567	1518.86
522.997	1548.14
523.427	1566.94
523.857	1587.24
524.286	1601.74
524.716	1620.71
525.145	1642.78
525.575	1657.49
526.004	1674.9
526.433	1666.28
526.863	1669.93
527.292	1661.96
527.721	1669.88
528.15	1678.08
528.579	1681.14
529.008	1694.37
529.437	1720.13
529.866	1736.15
530.295	1754.75
530.724	1768.4
531.152	1798.36
531.581	1815.03
532.01	1836.69
532.438	1847.74
532.867	1864.27
533.295	1885.19
533.723	1893.02
534.152	1892.28
534.58	1893.76
535.008	1878.08
535.436	1882.06
535.865	1890.4
536.293	1905.9
536.721	1922.41
537.149	1948.83
537.576	1952.98
538.004	1966.74
538.432	1975.38
538.86	1974.88
539.287	1982.75
539.715	1999.17
540.143	2002.34
540.57	1999.4
540.998	1995.76
541.425	1972.65
541.852	1950.97
542.28	1950.12
542.707	1932.21
543.134	1917.91
543.561	1914.67
543.988	1907.06
544.415	1907.06
544.842	1901.72
545.269	1894.86
545.696	1897.45
546.123	1911.71
546.549	1902.37
546.976	1889.1
547.403	1890.83
547.829	1894.29
548.256	1896.6
548.682	1893.92
549.108	1886.1
549.535	1886.71
549.961	1889.28
550.387	1875.58
550.813	1870
551.24	1877.81
551.666	1880.18
552.092	1870.49
552.518	1863.24
552.943	1856.43
553.369	1864.8
553.795	1872.07
554.221	1873.78
554.646	1870.24
555.072	1882.16
555.498	1888.37
555.923	1897.51
556.349	1913.16
556.774	1923.15
557.199	1925.53
557.625	1932.14
558.05	1925.6
558.475	1936.46
558.9	1935.02
559.325	1927.31
559.75	1921.55
560.175	1913.63
560.6	1906.24
561.025	1903.34
561.449	1902.8
561.874	1908.22
562.299	1912.44
562.723	1919.45
563.148	1907.76
563.572	1912.1
563.997	1919.61
564.421	1922.54
564.846	1921.82
565.27	1923.95
565.694	1920.2
566.118	1930.88
566.542	1936.82
566.966	1928.14
567.39	1921.5
567.814	1908.28
568.238	1904.6
568.662	1910.17
569.086	1910.84
569.509	1916.28
569.933	1898.73
570.357	1889.19
570.78	1864.95
571.204	1849.46
571.627	1837.16
572.05	1833.53
572.474	1831.22
572.897	1817.18
573.32	1806.19
573.743	1795.11
574.166	1773.67
574.589	1772.34
575.012	1762.86
575.435	1760.71
575.858	1748.36
576.281	1735.57
576.704	1718.17
577.126	1704.7
577.549	1692.44
577.972	1682.09
578.394	1670.47
578.817	1664.25
579.239	1644.82
579.661	1631.36
580.084	1615.13
580.506	1603.03
580.928	1598.06
581.35	1586.34
581.772	1580.89
582.194	1566.43
582.616	1552.81
583.038	1536.73
583.46	1524.33
583.882	1520.49
584.303	1523.5
584.725	1518.92
585.147	1520.15
585.568	1530.61
585.99	1543.34
586.411	1549.67
586.833	1564.55
587.254	1565.26
587.675	1579.86
588.096	1592.9
588.518	1587.25
588.939	1569.07
589.36	1566.17
589.781	1553.96
590.202	1525.31
590.623	1514.16
591.043	1510.91
591.464	1496.08
591.885	1491.65
592.305	1485.32
592.726	1470.54
593.147	1470.4
593.567	1464.8
593.987	1456.54
594.408	1452.4
594.828	1449.71
595.248	1443.74
595.669	1424.99
596.089	1418
596.509	1410.6
596.929	1396.78
597.349	1396.29
597.769	1385.74
598.189	1379.35
598.608	1379.68
599.028	1379.62
599.448	1379.42
599.867	1365.5
600.287	1360.6
600.706	1356.54
601.126	1347.64
601.545	1346.1
601.965	1344.89
602.384	1338.03
602.803	1339.93
603.222	1334.55
603.641	1327.57
604.061	1322.2
604.48	1318.13
604.898	1325.25
605.317	1328.04
605.736	1327.13
606.155	1322.9
606.574	1311.96
606.992	1317.01
607.411	1310.82
607.829	1307.12
608.248	1303.44
608.666	1299.96
609.085	1298.11
609.503	1288.88
609.921	1282.86
610.339	1284.93
610.758	1283.01
611.176	1278.13
611.594	1268.43
612.012	1264.37
612.43	1261.61
612.847	1266.22
613.265	1266.5
613.683	1269.95
614.101	1269.91
614.518	1264.36
614.936	1252.8
615.353	1237.95
615.771	1233.46
616.188	1231.6
616.606	1226.54
617.023	1217.57
617.44	1202.57
617.857	1193.86
618.274	1183.93
618.691	1176.25
619.108	1166.46
619.525	1160.15
619.942	1165.28
620.359	1167.17
620.776	1162.12
621.192	1157.55
621.609	1155.09
622.026	1161.27
622.442	1166.88
622.859	1169.08
623.275	1162.74
623.691	1167.34
624.108	1176.73
624.524	1188.64
624.94	1188.54
625.356	1197.71
625.772	1209.79
626.188	1219.92
626.604	1220.61
627.02	1216.53
627.436	1214.63
627.852	1221.08
628.268	1232.68
628.683	1224.55
629.099	1217.73
629.514	1212.56
629.93	1215.22
630.345	1218.12
630.761	1214
631.176	1217.13
631.591	1211.37
632.007	1205.98
632.422	1202.8
632.837	1190.09
633.252	1187.89
633.667	1176.03
634.082	1166.15
634.497	1153.01
634.911	1134.99
635.326	1129.83
635.741	1111.08
636.155	1099.6
636.57	1098.4
636.984	1095.31
637.399	1095.18
637.813	1091.06
638.228	1087.64
638.642	1089.37
639.056	1077.38
639.47	1073.55
639.884	1063.07
640.298	1055.21
640.712	1050.75
641.126	1036.86
641.54	1025.89
641.954	1016.14
642.368	1002.49
642.781	993.15
643.195	974.11
643.609	970.25
644.022	962.3
644.436	954.5
644.849	940.67
645.262	926.6
645.676	924.12
646.089	917.52
646.502	903.95
646.915	897.31
647.328	880.41
647.741	875.95
648.154	864.08
648.567	861.06
648.98	850.62
649.393	849.24
649.805	846.21
650.218	838.74
650.631	824.61
651.043	819.14
651.456	813.14
651.868	812.23
652.28	824.85
652.693	834.47
653.105	837.16
653.517	843.57
653.929	843.21
654.341	846.14
654.753	835.47
655.165	839.28
655.577	835.52
655.989	829.71
656.401	822.04
656.813	792.91
657.224	775.12
657.636	750.49
658.047	734.59
658.459	717.91
658.87	707.88
659.282	696.2
659.693	679.19
660.104	665.89
660.515	653.71
660.926	650.65
661.338	646.53
661.749	640.64
662.159	632.55
662.57	627.3
662.981	622.37
663.392	616.21
663.803	618.6
664.213	615.37
664.624	611.36
665.035	613.4
665.445	602.11
665.855	595.84
666.266	590.04
666.676	587.61
667.086	579.38
667.497	577.79
667.907	572.4
668.317	564.86
668.727	562.91
669.137	562.73
669.547	560.75
669.956	562.64
670.366	563.86
670.776	564.94
671.186	568.43
671.595	572.52
672.005	575.87
672.414	576.83
672.824	576.97
673.233	579.82
673.642	582.03
674.052	584.59
674.461	587.07
674.87	593.06
675.279	592.86
675.688	593.22
676.097	595.49
676.506	593.2
676.915	605.12
677.323	607.37
677.732	607.63
678.141	608.42
678.549	601.82
678.958	601.98
679.366	600.86
679.775	604.89
680.183	615.97
680.592	621.35
681	627.92
681.408	624.92
681.816	633.22
682.224	641.09
682.632	651.34
683.04	677.62
683.448	699.18
683.856	726.73
684.264	757.5
684.671	785.69
685.079	821.57
685.487	860.34
685.894	913.49
686.302	958.9
686.709	998.52
687.116	1044.92
687.524	1084
687.931	1119.23
688.338	1150.81
688.745	1179.04
689.152	1211.81
689.559	1254.82
689.966	1299.5
690.373	1324.77
690.78	1367.03
691.187	1429.12
691.593	1477.95
692	1523
692.407	1587.61
692.813	1666.03
693.22	1730.42
693.626	1797.84
694.032	1852.38
694.439	1932.22
694.845	1996.25
695.251	2076.07
695.657	2148.73
696.063	2253.68
696.469	2334
696.875	2409.83
697.281	2456.16
697.687	2511.36
698.093	2557.68
698.498	2641.12
698.904	2707.02
699.31	2802.06
699.715	2874.22
700.12	2972.99
700.526	3001.29
700.931	3077.61
701.337	3136.94
701.742	3176.13
702.147	3266.77
702.552	3304.68
702.957	3371.66
703.362	3396.59
703.767	3432.28
704.172	3476.65
704.577	3434.19
704.981	3485.82
705.386	3507.58
705.791	3504.01
706.195	3587.54
706.6	3599.94
707.004	3683.49
707.408	3655.29
707.813	3689.06
708.217	3680.37
708.621	3686.25
709.025	3790.8
709.43	3793.86
709.834	3860.48
710.237	3936.98
710.641	3923.53
711.045	3950.81
711.449	3952.62
711.853	3984.86
712.256	4029.78
712.66	4071.92
713.064	4154.51
713.467	4202.57
713.87	4323.22
714.274	4374.36
714.677	4490.71
715.08	4662.93
715.484	4845.42
715.887	5059.73
716.29	5272.34
716.693	5494.81
717.096	5751.14
717.499	5891.76
717.901	5918.18
718.304	5949.66
718.707	5978.34
719.109	5872.93
719.512	5840
719.915	5695.02
720.317	5633.34
720.719	5682.22
721.122	5651.83
721.524	5599.77
721.926	5558.65
722.328	5664.91
722.731	5655.86
723.133	5683.73
723.535	5888.22
723.937	5910.71
724.338	5967.05
724.74	6011.07
725.142	5938.19
725.544	5938.63
725.945	5965.97
726.347	5961.93
726.748	5957.27
727.15	5970.08
727.551	5932.5
727.952	5899.68
728.354	5868.28
728.755	5867.18
729.156	5826.86
729.557	5816.87
729.958	5685.76
730.359	5629.47
730.76	5606.65
731.161	5542.3
731.562	5517.69
731.962	5518.66
732.363	5455.31
732.763	5388.98
733.164	5426.27
733.564	5353.07
733.965	5254.08
734.365	5215.47
734.766	5243.4
735.166	5203.71
735.566	5143.63
735.966	5116.76
736.366	5112.96
736.766	5045.8
737.166	5079.44
737.566	5038.17
737.966	5009.73
738.365	5051.78
738.765	5047.61
739.165	4968.79
739.564	4940.91
739.964	4991.99
740.363	4941.55
740.763	4937.56
741.162	4927.64
741.561	4894.99
741.96	4848.44
742.36	4871.88
742.759	4875.18
743.158	4915.77
743.557	4933.03
743.955	4976.59
744.354	4927.53
744.753	4987.6
745.152	4942.17
745.55	4999.44
745.949	4991.04
746.348	4989.71
746.746	5005.06
747.144	4965.78
747.543	4943.53
747.941	4994.07
748.339	4918.64
748.737	4910.69
749.136	4903.19
749.534	4976.36
749.932	4946.8
750.33	4972.31
750.727	5031.91
751.125	5009.01
751.523	4992.49
751.921	5038.24
752.318	5001.89
752.716	5065.11
753.113	5078.61
753.511	5103.95
753.908	5101.31
754.305	5080.8
754.703	5145.4
755.1	5209.64
755.497	5272.61
755.894	5473.3
756.291	5660.63
756.688	6009.44
757.085	6469.6
757.482	7116.7
757.878	7826.25
758.275	8467.24
758.672	9353.59
759.068	10073.19
759.465	11099.83
759.861	12417.34
760.258	13943.61
760.654	14733.93
761.05	14609.64
761.447	13940.22
761.843	12983.87
762.239	11989.35
762.635	11539.05
763.031	11108.31
763.427	10483.29
763.822	9826.58
764.218	9181.8
764.614	8344.03
765.01	7785.71
765.405	7421.56
765.801	7145.85
766.196	6796.61
766.592	6602.94
766.987	6273.19
767.382	6049.74
767.778	5958.35
768.173	5823.26
768.568	5747.25
768.963	5618.4
769.358	5638.03
769.753	5590.08
770.148	5503.81
770.542	5500.53
770.937	5468.53
771.332	5563.89
771.726	5585
772.121	5517.89
772.515	5572.85
772.91	5559.54
773.304	5633.23
773.699	5563.02
774.093	5620.44
774.487	5679.95
774.881	5725.83
775.275	5720.1
775.669	5679.07
776.063	5725.9
776.457	5764.18
776.851	5687.99
777.245	5680.47
777.638	5714.73
778.032	5837.86
778.425	5801.18
778.819	5844.17
779.212	5800.52
779.606	5760.84
779.999	5779.12
780.392	5761.42
780.786	5849.01
781.179	5871.39
781.572	5916.93
781.965	5933.92
782.358	5869.88
782.751	5928.23
783.143	5877.72
783.536	5957.12
783.929	5999.66
784.322	6120.04
784.714	6150.71
785.107	6145.84
785.499	6224.07
785.891	6197.22
786.284	6178.49
786.676	6329.54
787.068	6308.97
787.46	6365.98
787.852	6388.06
788.245	6479.3
788.636	6514.78
789.028	6588.89
789.42	6631.52
789.812	6640.42
790.204	6747.25
790.595	6848.11
790.987	6642
791.378	6668.42
791.77	6803.03
792.161	6942.93
792.553	7000.62
792.944	6886.56
793.335	6814.86
793.726	6892.01
794.117	6991.25
794.508	7133.62
794.899	7103.89
795.29	7257.18
795.681	7322.02
796.072	7173.57
796.463	6979.23
796.853	6992.59
797.244	7156.99
797.634	7193.18
798.025	7193.53
798.415	7203.57
798.806	7300.32
799.196	7394.23
799.586	7446.73
799.976	7405.78
800.366	7656.6
800.756	7914.09
801.146	7870.02
801.536	7901.76
801.926	7981.57
802.316	8007.6
802.706	8087.22
803.095	7960.95
803.485	8070.23
803.874	8118.12
804.264	8397.31
804.653	8368.71
805.043	8524.18
805.432	8644.21
805.821	8649.66
806.21	8681.29
806.599	8811.32
806.988	8859.38
807.377	8972.44
807.766	9113.49
808.155	9414.27
808.544	9131.92
808.933	9152.18
809.321	9129.71
809.71	9447.96
810.098	9616.03
810.487	10103.97
810.875	10621.6
811.264	10647.13
811.652	10957.89
812.04	11110.69
812.428	11288.46
812.816	12101.82
813.204	12544.21
813.592	13131.69
813.98	13490.16
814.368	13393.05
814.756	13899.29
815.144	13814.1
815.531	14321.88
815.919	14247.49
816.306	14577.14
816.694	14247.52
817.081	14310.77
817.469	14675.96
817.856	14682.08
818.243	14968.46
818.63	15394.41
819.017	14953.15
819.404	15015.63
819.791	15420.79
820.178	16069.49
820.565	16332.92
820.952	17325.63
821.339	16791.29
821.725	16990.09
822.112	16196.87
822.498	16152.62
822.885	16279.71
823.271	16175.01
823.657	16622.56
824.044	16623.85
824.43	16712.35
824.816	16684.84
825.202	16224.98
825.588	17314.96
825.974	17331.75
826.36	17876.69
826.746	17908.29
827.132	18297.38
827.517	18261.07
827.903	17416.77
828.289	17445.36
828.674	16614.49
829.06	16501.14
829.445	16923.09
829.83	17302.75
830.216	17808.46
830.601	18196.1
830.986	17762.34
831.371	17613.48
831.756	18212.39
832.141	17766.12
832.526	17766.98
832.911	18057.38
833.295	17929.29
833.68	18420.66
834.065	17760.2
834.449	16781.89
834.834	16704.54
835.218	16701.74
835.603	17059.79
835.987	16831.89
836.371	17709.42
836.755	17594.32
837.139	18022.96
837.524	18278.83
837.908	18091.41
838.291	18158.56
838.675	18233.01
839.059	18449.65
839.443	18432.66
839.827	18181.86
840.21	18691.46
840.594	18519.51
840.977	18738.94
841.361	18714.51
841.744	19109.51
842.127	18934.46
842.511	19191.25
842.894	19821.39
843.277	20218.2
843.66	20789.31
844.043	20881.34
844.426	20026.58
844.809	19707.63
845.191	19731.52
845.574	19240.34
845.957	18850.34
846.339	18745.45
846.722	18187.69
847.104	18260.56
847.487	18083.43
847.869	18106.12
848.252	18404.01
848.634	18755.71
849.016	19038.53
849.398	19176.24
849.78	20076.03
850.162	20077.01
850.544	20507.7
850.926	21180.15
851.307	21085.11
851.689	21378.15
852.071	21855.86
852.452	22190.32
852.834	22173.74
853.215	22590.54
853.597	22748.44
853.978	23063.15
854.359	23547.29
854.741	22505.07
855.122	22388.87
855.503	22089.58
855.884	22227.51
856.265	22157.46
856.646	22279.73
857.026	21859.83
857.407	21787.98
857.788	21962.25
858.169	22279.67
858.549	21396.91
858.93	22052.48
859.31	22105.21
859.69	22322.45
860.071	21901.95
860.451	21679.84
860.831	20906.68
861.211	22139.78
861.591	22734.26
861.971	22701.15
862.351	22905.94
862.731	23308.32
863.111	23588.83
863.491	23939.95
863.87	24874.2
864.25	25258.1
864.629	24834.49
865.009	25376.01
865.388	26275.32
865.768	28149.98
866.147	28064.36
866.526	26513.44
866.905	26837.16
867.284	28356.74
867.663	26929.16
868.042	25809.79
868.421	25717.41
868.8	26150.3
869.179	26411.04
869.558	24872.81
869.936	22928.13
870.315	23337.55
870.693	23896.67
871.072	25768.86
871.45	24549.03
871.828	24873.39
872.207	26157.59
872.585	25775.17
872.963	26476.65
873.341	25562.33
873.719	25269.54
874.097	24975.68
874.475	25434.88
874.853	26029.22
875.23	24954.59
875.608	26001.07
875.986	28123.77
876.363	26913.47
876.741	27732.92
877.118	27043.62
877.495	28390.47
877.873	28878.76
878.25	30397.06
878.627	29188.78
879.004	29597.6
879.381	29462.57
879.758	28691.07
880.135	26715.87
880.512	28245.86
880.889	27502.49
881.265	27219.13
881.642	27002.91
882.019	27467.13
882.395	26901.56
882.772	27971.56
883.148	26775.24
883.524	26674.33
883.901	26515.68
884.277	26919.28
884.653	26753.4
885.029	27527
885.405	30496.08
885.781	30248.52
886.157	28993.43
886.532	29360.41
886.908	29343.14
887.284	32623.11
887.659	33707.79
888.035	34780.75
888.411	35683.94
888.786	36156.1
889.161	37417.99
889.537	36729.14
889.912	37915.76
890.287	37893.52
890.662	38880.06
891.037	38175.78
891.412	35609.22
891.787	35243.59
892.162	34004.19
892.536	34794.82
892.911	33499.31
893.286	32778.53
893.66	31453.77
894.035	32255.13
894.409	35119.1
894.784	33708.5
895.158	34267.47
895.532	36297.58
895.906	37286.05
896.281	38177.16
896.655	37584.4
897.029	42937.13
897.402	44738.43
897.776	49802.05
898.15	49632.82
898.524	49099.69
898.898	49752.44
899.271	55718.77
899.645	48252.78
900.018	46342.99
900.392	48050.02
900.765	48435.12
901.138	44816.53
901.511	44150.74
901.884	40543.89
902.258	37427.12
902.631	38683.32
903.003	44537.05
903.376	40183.85
903.749	45076.92
904.122	48280.95
904.495	53199.62
904.867	53903.77
905.24	46831.58
905.612	43610.65
905.985	44631.37
906.357	46642.75
906.729	44542.4
907.102	38066.22
907.474	36642.47
907.846	36885.5
908.218	36420.69
908.59	32192.87
908.962	31124.83
909.334	33535.15
909.705	35235.1
910.077	34212.08
910.449	35624.76
910.82	36629.34
911.192	40289.66
911.563	41848.31
911.935	44781.04
912.306	44826.39
912.677	46274.74
913.048	45828.77
913.419	49706.09
913.79	49974.63
914.161	53605.01
914.532	51257.72
914.903	47092.92
915.274	44762.72
915.645	44136.33
916.015	38855.6
916.386	37061.17
916.756	39456.87
917.127	40725.25
917.497	36411.86
917.868	39657.2
918.238	37685.95
918.608	38777.92
918.978	39602.26
919.348	41939.43
919.718	43327.74
920.088	41759.79
920.458	43391.2
920.828	45662.99
921.198	43287.86
921.567	46248.38
921.937	35836.74
922.306	36193.72
922.676	39049.46
923.045	32577.23
923.415	30965.08
923.784	28216.54
924.153	29019.13
924.522	29020.61
924.891	27292.66
925.26	29231.53
925.629	28552.67
925.998	32821.41
926.367	32053.45
926.736	30531.76
927.104	36378.74
927.473	39089.26
927.842	47200.72
928.21	46762.67
928.578	49141.69
928.947	46486.93
929.315	46797.56
929.683	54880.97
930.051	55322.02
930.42	64212.73
930.788	54865.56
931.156	54476.14
931.523	51068.47
931.891	47188.17
932.259	45327.28
932.627	52475.3
932.994	74276.83
933.362	61371.37
933.729	53281.26
934.097	51010.63
934.464	43172.61
934.831	49822.59
935.199	49103.73
935.566	47605
935.933	48312.34
936.3	58451.77
936.667	45553.19
937.034	41049.76
937.401	40632.5
937.767	35062.8
938.134	31221.08
938.501	44044.66
938.867	46956.07
939.234	79449.74
939.6	67849.92
939.967	74701.03
940.333	50054.42
940.699	42635.5
941.065	34267.56
941.431	44924.68
941.798	43327.86
942.163	56859.29
942.529	35574.61
942.895	32764.38
943.261	21198.82
943.627	27840.48
943.992	24355.76
944.358	24434.86
944.723	24532.46
945.089	23895.62
945.454	22075.33
945.82	23610.27
946.185	22718.02
946.55	26328.07
946.915	23627.89
947.28	27708.9
947.645	24385.14
948.01	22534.69
948.375	23503.51
948.74	28176.7
949.104	32907.32
949.469	47585.34
949.834	84090.21
950.198	79663.06
950.562	47649.08
950.927	39653.3
951.291	47725.06
951.655	40689.22
952.02	38242.39
952.384	28898.2
952.748	25183.48
953.112	24532.21
953.476	21323.78
953.839	19711.89
954.203	19512.99
954.567	24441.3
954.931	38552.08
955.294	32973.74
955.658	33140.49
956.021	56326.27
956.385	95500.87
956.748	140767.5
957.111	218505.33
957.474	245280.66
957.837	276370.65
958.2	209239.98
958.563	75173.4
958.926	50799.25
959.289	77107.22
959.652	86185.03
960.015	64637.07
960.377	92749.62
960.74	105829.77
961.102	182784.9
961.465	196287.61
961.827	104995.35
962.189	201318.81
962.552	139714.71
962.914	112053.91
963.276	72746.9
963.638	60122.42
964	59610.02
964.362	40287.21
964.724	38993.71
965.085	27782.06
965.447	22791.05
965.809	26002.1
966.17	26062.51
966.532	28199.53
966.893	25868.58
967.255	23518.39
967.616	27760.37
967.977	22208.97
968.338	24278.96
968.699	19935.83
969.061	19967.34
969.421	20090.28
969.782	22527.7
970.143	19030.77
970.504	19717.12
970.865	22400.24
971.225	22906.91
971.586	22404.45
971.946	31924.24
972.307	27702.54
972.667	36238.91
973.027	37274.99
973.388	45196.6
973.748	30759.59
974.108	33477.71
974.468	45303.76
974.828	34959.73
975.188	26908.92
975.548	24735.3
975.907	20796
976.267	23307.29
976.627	19574.22
976.986	20291.04
977.346	19347.23
977.705	18609.85
978.064	16918.12
978.424	14082.25
978.783	14565.02
979.142	16634.17
979.501	15892.29
979.86	16771.82
980.219	16171.09
980.578	20853.02
980.937	23359.7
981.296	20805.46
981.654	21420.62
982.013	33415.52
982.371	43316.88
982.73	40481.92
983.088	45746.4
983.447	48903.41
983.805	69963.53
984.163	146321.74
984.521	162465.09
984.879	238450.22
985.237	-387846.37
985.595	373577.51
985.953	92785.72
986.311	53640.94
986.669	31146.68
987.026	26928.47
987.384	36232.06
987.741	37435.29
988.099	26702.22
988.456	21273.85
988.814	19902.42
989.171	17312.83
989.528	17101.52
989.885	18059.04
990.242	14289.12
990.599	17797.75
990.956	14566.55
991.313	10198.47
991.67	8371.62
992.027	8875.95
992.383	7895.36
992.74	6916.23
993.096	7255.95
993.453	7514.13
993.809	7788.93
994.165	10387.11
994.522	9499.69
994.878	10464.45
995.234	13103.65
995.59	12930.85
995.946	12253.31
996.302	13961.11
996.658	16162.79
997.013	17795.91
997.369	21106.04
997.725	27050.68
998.08	17507.22
998.436	27009.18
998.791	37317.18
999.147	37278.54
999.502	40677.27
999.857	29556.12
1000.212	48178.34
1000.567	68615.6
1000.922	39579.56
1001.277	25204.04
1001.632	18665.31
1001.987	24029.9
1002.342	17269.66
1002.696	13779.16
1003.051	10978.87
1003.406	13288.87
1003.76	13249.45
1004.114	13070.19
1004.469	10974.63
1004.823	9104.71
1005.177	9811.46
1005.531	7785.08
1005.885	6915.18
1006.239	7806.96
1006.593	9789.59
1006.947	13139.75
1007.301	9861.05
1007.655	10748.14
1008.008	7892.61
1008.362	8872.39
1008.715	12651.21
1009.069	11473.36
1009.422	17249.25
1009.776	34538.33
1010.129	22893.45
1010.482	19161.18
1010.835	16181.7
1011.188	33709.04
1011.541	31772.87
1011.894	-193971.03
1012.247	569879.22
1012.6	38806.11
1012.952	24527.21
1013.305	12639.86
1013.657	9123.75
1014.01	8626.41
1014.362	7120.81
1014.715	6316.03
1015.067	5495.46
1015.419	5361.1
1015.771	4753.11
1016.123	4229.3
1016.475	4334.86
1016.827	4623.92
1017.179	4964.94
1017.531	5013.57
1017.883	5124.36
1018.234	4916.27
1018.586	6212.94
1018.938	6568.67
1019.289	9044.3
1019.64	10333.68
1019.992	9626.76
1020.343	8847.21
1020.694	6978.39
1021.045	6203.37
1021.396	7087.13
1021.747	7603.7
1022.098	9179.95
1022.449	6664.92
1022.8	6185.39
1023.151	4302.42
1023.501	3808.21
1023.852	4147.93
1024.202	4279.49
1024.553	4682.48
1024.903	4547.84
1025.253	3881.36
1025.604	3492.44
1025.954	4335.06
1026.304	5293.59
1026.654	6195.13
1027.004	9170.39
1027.354	14929.83
1027.703	14026
1028.053	18581.39
1028.403	27320.14
1028.753	39653.41
1029.102	53817.06
1029.452	276215.36
1029.801	11889.6
1030.15	7673.2
1030.499	6505.16
897.758	2675.74
901.051	2633.53
904.343	2667.06
907.636	2667.58
910.928	2731.08
914.22	2640.54
917.511	2649.25
920.803	2708.98
924.094	2729.65
927.384	2709.28
930.675	2674.1
933.965	2626.18
937.255	2631.07
940.544	2598.97
943.834	2539.65
947.123	2484.82
950.411	2582.99
953.7	2553.95
956.988	2525.57
960.276	2465.82
963.563	2546.31
966.851	2541.04
970.138	2599.81
973.424	2596.5
976.711	2544.73
979.997	2676.87
983.283	2714.8
986.568	2618
989.853	2633.46
993.138	2662.94
996.423	2744.82
999.708	2683.49
1002.992	2748.29
1006.275	2582.24
1009.559	2628.92
1012.842	2744.55
1016.125	2675.35
1019.408	2652.5
1022.69	2739.89
1025.972	2761.09
1029.254	2733.66
1032.536	2667.29
1035.817	2694.17
1039.098	2639.76
1042.379	2783.68
1045.659	2783.61
1048.939	2717.83
1052.219	2741.76
1055.498	2749.98
1058.778	2739.1
1062.057	2721.92
1065.335	2742.81
1068.614	2764.09
1071.892	2746.1
1075.17	2820.01
1078.447	2812.42
1081.724	2800.02
1085.001	2837.81
1088.278	2810.52
1091.554	2826.29
1094.83	2820.48
1098.106	2850.83
1101.382	2895.59
1104.657	2894.58
1107.932	2890.35
1111.206	2857.39
1114.481	2812.06
1117.755	2815.13
1121.029	2796.07
1124.302	2850.93
1127.575	2801.83
1130.848	2786.31
1134.121	2746.7
1137.393	2697.41
1140.665	2764.27
1143.937	2741.12
1147.208	2698.63
1150.48	2740.87
1153.75	2728.55
1157.021	2760.57
1160.291	2729.68
1163.561	2776.04
1166.831	2765.85
1170.101	2799.55
1173.37	2769.61
1176.639	2713.77
1179.907	2774.45
1183.176	2781.71
1186.444	2788.17
1189.711	2817.64
1192.979	2827.08
1196.246	2784.44
1199.513	2802.13
1202.78	2798.05
1206.046	2808.03
1209.312	2835.75
1212.578	2861.54
1215.843	2810.95
1219.108	2784.42
1222.373	2809.41
1225.638	2771.95
1228.902	2757.19
1232.166	2719.3
1235.43	2700.72
1238.693	2727.75
1241.956	2723.43
1245.219	2764.47
1248.482	2754.61
1251.744	2750.46
1255.006	2900.64
1258.268	2854.83
1261.529	2796.98
1264.79	2802.95
1268.051	2908.83
1271.312	2927.75
1274.572	2889.89
1277.832	2876.06
1281.092	2868.04
1284.351	2841.76
1287.61	2820.01
1290.869	2734.97
1294.128	2710.18
1297.386	2802.06
1300.644	2790.95
1303.902	2803.79
1307.159	2656.91
1310.416	2715.18
1313.673	2744.34
1316.93	2725.13
1320.186	2772.47
1323.442	2814.47
1326.697	2802.05
1329.953	2792.39
1333.208	2816.2
1336.463	2796.76
1339.717	2734.47
1342.972	2873.23
1346.226	2845.76
1349.479	2775.89
1352.733	2749.91
1355.986	2770.64
1359.238	2747.9
1362.491	2754.85
1365.743	2756.99
1368.995	2750.66
1372.247	2767.33
1375.498	2793.61
1378.749	2810.32
1382	2763.61
1385.251	2818.13
1388.501	2776.07
1391.751	2762.54
1395	2733.25
1398.25	2763.73
1401.499	2773.1
1404.748	2698.34
1407.996	2684.35
1411.244	2668.96
1414.492	2648.8
1417.74	2628.99
1420.987	2636.78
1424.234	2698.28
1427.481	2676.97
1430.728	2735.02
1433.974	2707.91
1437.22	2723.84
1440.465	2727.28
1443.711	2690.37
1446.956	2727
1450.201	2715.21
1453.445	2759.63
1456.689	2741.43
1459.933	2752.21
1463.177	2786.86
1466.42	2758.55
1469.663	2739.96
1472.906	2734.91
1476.148	2810.43
1479.391	2770.22
1482.633	2739.72
1485.874	2751.02
1489.115	2739.21
1492.356	2743.3
1495.597	2717.98
1498.838	2721.04
1502.078	2690.61
1505.318	2639.79
1508.557	2682.19
1511.797	2658.28
1515.036	2732.49
1518.274	2718
1521.513	2690.69
1524.751	2712.7
1527.989	2725.65
1531.227	2741.46
1534.464	2736.05
1537.701	2755.48
1540.938	2774.34
1544.174	2727.85
1547.41	2725.97
1550.646	2765.34
1553.882	2805.79
1557.117	2858.06
1560.352	2873.81
1563.587	2832.79
1566.821	2790.36
1570.055	2825.27
1573.289	2798.02
1576.523	2876.48
1579.756	2885.08
1582.989	2902.32
1586.222	2862.14
1589.454	2902.25
1592.686	2874.97
1595.918	2901.36
1599.15	2889.93
1602.381	2965.84
1605.612	2920.82
1608.843	3020.44
1612.073	2929.21
1615.303	2910.51
1618.533	2906.78
1621.762	2907.36
1624.992	2892.96
1628.221	2879.8
1631.449	2865.21
1634.678	2920.39
1637.906	2872.47
1641.134	2910.05
1644.361	2864.18
1647.588	2854.45
1650.815	2870.88
1654.042	2848.7
1657.269	2879.9
1660.495	2831.38
1663.72	2852.57
1666.946	2814.42
1670.171	2757.75
1673.396	2734.97
1676.621	2722.72
1679.845	2742.32
1683.069	2761.89
1686.293	2806
1689.517	2774.69
1692.74	2704.32
1695.963	2733.22
1699.185	2752.3
1702.408	2726.4
1705.63	2769.31
1708.852	2780.71
1712.073	2752.8
1715.294	2737.59
1718.515	2798.55
1721.736	2743.26
1724.956	2737.52
1728.176	2764.4
1731.396	2789.3
1734.616	2773.83
1737.835	2802.87
1741.054	2780.63
1744.272	2772.64
1747.491	2805.86
1750.709	2860.73
1753.927	2764.16
1757.144	2812.34
1760.361	2853.82
1763.578	2846.75
1766.795	2785.16
1770.011	2790.63
1773.227	2833.15
1776.443	2867.15
1779.658	2912.78
1782.874	2854.78
1786.089	2832.15
1789.303	2835.32
1792.518	2836.81
1795.732	2826.1
1798.945	2836.14
1802.159	2886.03
1805.372	2790.76
1808.585	2774.35
1811.797	2777.67
1815.01	2826.11
1818.222	2827.73
1821.434	2799.05
1824.645	2859.32
1827.856	2847.09
1831.067	2882.87
1834.278	2836.48
1837.488	2820.34
1840.698	2971.63
1843.908	2893.8
1847.117	2856.24
1850.326	2740.04
1853.535	2844.87
1856.744	2870.04
1859.952	2781.41
1863.16	2782.59
1866.368	2804.72
1869.575	2909.16
1872.782	2791.62
1875.989	2725.5
1879.196	2814
1882.402	2803.36
1885.608	2845.31
1888.814	2742.83
1892.019	2637.17
1895.224	2690.42
1898.429	2671.61
1901.634	2646.43
1904.838	2623.22
1908.042	2674.27
1911.246	2682.46
1914.449	2608.82
1917.652	2606.82
1920.855	2586.74
1924.058	2640.08
1927.26	2675.82
1930.462	2701.59
1933.664	2727.42
1936.865	2665.99
1940.066	2675.1
1943.267	2619.15
1946.467	2635
1949.668	2663.81
1952.868	2731.47
1956.067	2709.09
1959.267	2639.18
1962.466	2667.89
1965.665	2653.81
1968.863	2649.88
1972.061	2663.13
1975.259	2662.73
1978.457	2746.01
1981.654	2702.37
1984.852	2700.53
1988.048	2634.38
1991.245	2639.37
1994.441	2725.97
1997.637	2711.16
2000.833	2693.47
2004.028	2732.49
2007.223	2785.58
2010.418	2760.39
2013.613	2721.76
2016.807	2694.17
2020.001	2701.75
2023.194	2744.62
2026.388	2719.55
2029.581	2665.57
2032.774	2714.68
2035.966	2719.54
2039.158	2648.26
2042.35	2679.88
2045.542	2606.56
2048.733	2705.24
2051.924	2729.47
2055.115	2761.36
2058.306	2704.69
2061.496	2764.07
2064.686	2827.52
2067.875	2741.61
2071.065	2754.53
2074.254	2782.34
2077.442	2733.98
2080.631	2824.87
2083.819	2716.57
2087.007	2698.38
2090.195	2665.07
2093.382	2701.06
2096.569	2680.95
2099.756	2632.67
2102.942	2657.86
2106.128	2665.26
2109.314	2659.4
2112.5	2620.87
2115.685	2597.35
2118.87	2606.45
2122.055	2669.16
2125.239	2637.18
2128.424	2608.43
2131.608	2713.65
2134.791	2696.99
2137.974	2753.68
2141.157	2740.51
2144.34	2689.42
2147.523	2704.92
2150.705	2718.32
2153.887	2699.46
2157.068	2649.68
2160.25	2650.88
2163.431	2688.78
2166.611	2631.47
2169.792	2647.71
2172.972	2541.97
2176.152	2621.51
2179.331	2656.79
2182.511	2638.19
2185.69	2667.03
2188.868	2659.9
2192.047	2716.47
2195.225	2704.42
2198.403	2657.11
2201.58	2648.28
2204.758	2644.18
2207.935	2726.85
2211.111	2615.48
2214.288	2599.29
2217.464	2639.41
2220.64	2610.54
2223.815	2668.02
2226.991	2588.33
2230.166	2608.87
2233.34	2636.99
2236.515	2666.64
2239.689	2739.7
2242.863	2683
2246.036	2737.68
2249.209	2736.75
2252.382	2774.3
2255.555	2760.31
2258.727	2695.73
2261.9	2736.37
2265.071	2728.33
2268.243	2729.3
2271.414	2659.15
2274.585	2618.92
2277.756	2688.88
2280.926	2642.9
2284.096	2685.11
2287.266	2587.76
2290.436	2645.06
2293.605	2672.34
2296.774	2704.41
2299.942	2726.88
2303.111	2746.07
2306.279	2794.1
2309.447	2780.47
2312.614	2751
2315.781	2772.24
2318.948	2739.96
2322.115	2780.09
2325.281	2682.76
2328.447	2703.94
2331.613	2674.27
2334.779	2645.78
2337.944	2648.24
2341.109	2646.09
2344.274	2630.52
2347.438	2593.72
2350.602	2617.57
2353.766	2638.84
2356.929	2624.5
2360.092	2664.5
2363.255	2615.69
2366.418	2550.42
2369.58	2666.68
2372.742	2451.59
2375.904	2466
2379.066	2440.39
2382.227	2481.77
2385.388	2443.74
2388.548	2365.49
2391.709	2421.26
2394.869	2402.9
2398.029	2501.87
2401.188	2515.37
2404.347	2445.13
2407.506	2587.34
2410.665	2617.92
2413.823	2624.1
2416.981	2580.2
2420.139	2613.9
2423.296	2661.86
2426.453	2634.11
2429.61	2657.94
2432.767	2592.02
2435.923	2632.06
2439.079	2593.78
2442.235	2644.94
2445.391	2569.34
2448.546	2600.55
2451.701	2647.92
2454.855	2618.71
2458.009	2677.41
2461.163	2679.47
2464.317	2633.52
2467.471	2668.37
2470.624	2707.75
2473.777	2680.41
2476.929	2693.3
2480.082	2719.37
2483.234	2681.81
2486.385	2637.12
2489.537	2628.39
2492.688	2585.7
2495.839	2606.66
2498.989	2620.64
2502.14	2604.76
2505.29	2582.71
2508.439	2609.61
2511.589	2531.44
2514.738	2545.31
2517.887	2576.13
2521.035	2641.85
2524.183	2624.48
2527.331	2604.65
2530.479	2575.22
2533.627	2586.56
