Data from N_3_DEC_CT_2N_Splice17_13-01-54-796.txt Node
Date: Sat Mar 14 13:01:54 EDT 2020
User: sa697716
Spectrometer: FLMS03696
Trigger mode: 0
Integration Time (sec): 3.180400E-1
Scans to average: 20
Electric dark correction enabled: true
Nonlinearity correction enabled: true
Boxcar width: 5
XAxis mode: Wavelengths
Number of Pixels in Spectrum: 2048
>>>>>Begin Spectral Data<<<<<
187.83	-247323.54
188.298	1898.31
188.766	1092.2
189.233	1080.59
189.701	1514.52
190.169	2117.12
190.636	782.18
191.104	623.26
191.571	84.3
192.039	-54.05
192.506	-37.42
192.974	494.57
193.441	-643.15
193.908	22.89
194.375	69.04
194.842	118.73
195.31	215.39
195.777	220.94
196.244	418.37
196.711	467.35
197.177	571.35
197.644	782.91
198.111	1364.77
198.578	1909.98
199.045	1514.73
199.511	2494.41
199.978	2891.84
200.445	2486.74
200.911	2747.5
201.378	3071
201.844	2790.05
202.31	4782.01
202.777	5023.4
203.243	2777
203.709	2660.26
204.176	3184.57
204.642	2626.35
205.108	2470.51
205.574	2003.37
206.04	1825.39
206.506	1706.05
206.972	1617.96
207.438	1573.23
207.903	1794.59
208.369	1575.14
208.835	1561.1
209.301	1640.75
209.766	1693.17
210.232	1683.64
210.697	2090.48
211.163	2580.14
211.628	3923.93
212.094	3292.66
212.559	4032.51
213.024	2506.67
213.49	3057.54
213.955	2988.56
214.42	2921.21
214.885	2683.61
215.35	2583.83
215.815	2499.08
216.28	2661.99
216.745	2159.82
217.21	2345.55
217.675	2170.02
218.14	2462.31
218.604	2773.74
219.069	3200.97
219.534	3382.56
219.998	3974.53
220.463	4832.62
220.927	5984.5
221.392	5634.79
221.856	5744.38
222.32	7240.04
222.785	8953.95
223.249	11287.8
223.713	12608.37
224.177	12614.9
224.642	16203.77
225.106	19937.04
225.57	21777.54
226.034	16164.31
226.497	24670.64
226.961	22244.27
227.425	25977.52
227.889	28808.15
228.353	28784.06
228.816	59504.05
229.28	56748.31
229.744	47814.06
230.207	29081.27
230.671	28637.03
231.134	47424.78
231.597	54735.31
232.061	54796.52
232.524	53437.18
232.987	36796.79
233.45	33141.95
233.914	29679.92
234.377	30448.71
234.84	27884.94
235.303	32870.56
235.766	36692.46
236.229	37908.98
236.691	23842.64
237.154	26789.98
237.617	20136.08
238.08	20625.18
238.542	24162.08
239.005	17285.25
239.468	17165.56
239.93	16180.23
240.393	14702.29
240.855	12888.55
241.317	13187.13
241.78	16043.94
242.242	16574.95
242.704	17914.77
243.166	15597.61
243.629	14139.23
244.091	16292.86
244.553	17862.82
245.015	19206.41
245.477	24830.85
245.939	36401.47
246.4	38668.02
246.862	37536.18
247.324	35402.91
247.786	39636.36
248.247	51985.1
248.709	53690.19
249.17	40198.17
249.632	37869.82
250.093	43902.64
250.555	37944.76
251.016	23166.34
251.477	21986.76
251.939	23774.76
252.4	24959.17
252.861	29652
253.322	27612.27
253.783	32904.91
254.244	42666.93
254.705	33663.93
255.166	29946.98
255.627	29534.6
256.088	41686.61
256.549	44304.52
257.009	38184.08
257.47	46354.32
257.931	37754.73
258.391	28271.34
258.852	29159.1
259.312	30583.45
259.773	37809.58
260.233	31973.93
260.694	26974.14
261.154	30631.57
261.614	24591.4
262.074	21995.15
262.534	22860.54
262.994	21574.33
263.455	28764.28
263.915	24231.13
264.374	22843.48
264.834	24951.58
265.294	27665.42
265.754	28680.58
266.214	27151.79
266.673	25467.46
267.133	32157.74
267.593	31932.53
268.052	39100.83
268.512	34035.23
268.971	41090.19
269.431	45064.73
269.89	40359.28
270.349	60515.68
270.809	67493.3
271.268	60643.46
271.727	135880.47
272.186	88024.17
272.645	66026.19
273.104	47625.81
273.563	68980.05
274.022	54282.62
274.481	46189.93
274.94	35589.58
275.399	26480.65
275.857	30852.21
276.316	41788.83
276.775	37237.08
277.233	36709.71
277.692	34384.63
278.15	38917.61
278.609	40064.83
279.067	37076.68
279.525	34479.31
279.984	44539.06
280.442	53463.21
280.9	52728.79
281.358	34678.05
281.816	32327.45
282.274	31625.94
282.732	32650.41
283.19	32828.68
283.648	28345.28
284.106	30157.56
284.564	30623.7
285.021	28441.34
285.479	21206.25
285.937	19277.07
286.394	16911.06
286.852	17429.34
287.309	18330.98
287.767	17729.85
288.224	16857.23
288.682	18482.03
289.139	20304.13
289.596	18595.67
290.053	19309.05
290.511	24374.09
290.968	29558.89
291.425	40170.62
291.882	33389.16
292.339	29076.52
292.796	28840.23
293.252	27217.29
293.709	21619.53
294.166	19360.28
294.623	21410.36
295.079	20552.02
295.536	20645.47
295.992	18750.35
296.449	18511.72
296.905	19237.6
297.362	18432.36
297.818	19390.03
298.274	20103.89
298.731	20488.92
299.187	20289.19
299.643	21769.72
300.099	26319.55
300.555	28866.1
301.011	24106.02
301.467	23216.1
301.923	27162.92
302.379	26534.1
302.835	26044.71
303.291	26045.77
303.746	29646.09
304.202	37453.44
304.658	37602.26
305.113	25291.76
305.569	24810.18
306.024	26430.86
306.479	25217.19
306.935	21251.9
307.39	23186.51
307.845	21421.47
308.301	21549.95
308.756	20965.73
309.211	20202.11
309.666	20684.08
310.121	25674.94
310.576	26028.25
311.031	25821.1
311.486	29541.14
311.94	29510.62
312.395	39483.14
312.85	74202.76
313.305	364472
313.759	1889681.41
314.214	136860.73
314.668	108568.82
315.123	91171.22
315.577	32663.84
316.032	29040.42
316.486	36410.53
316.94	28735.01
317.394	20002.69
317.849	15531.7
318.303	14706.92
318.757	13882.88
319.211	15355.1
319.665	13430.52
320.119	13590.2
320.572	19527.98
321.026	18258.33
321.48	15177.45
321.934	16539.6
322.387	16590.75
322.841	17943.3
323.295	16121.76
323.748	18549.29
324.202	18810.98
324.655	22571.82
325.108	31560.26
325.562	22265.42
326.015	26469.43
326.468	20037.78
326.921	22407.49
327.374	20851.44
327.827	21680.62
328.28	24557.31
328.733	16421.91
329.186	14430.88
329.639	13746.7
330.092	11579.99
330.545	11023.3
330.997	11105.84
331.45	12130.13
331.903	14229.11
332.355	24480.38
332.808	23794.83
333.26	19637.41
333.713	21324.78
334.165	21459.09
334.617	28651.07
335.069	23133.53
335.522	41769.86
335.974	46258.48
336.426	42172.74
336.878	29169.73
337.33	14800.42
337.782	14435.75
338.234	18051.73
338.686	21639.51
339.137	25645.58
339.589	24159.74
340.041	18907.85
340.493	16239.66
340.944	16607.32
341.396	17909.68
341.847	15056.72
342.299	17765.07
342.75	21709.98
343.201	18961.99
343.653	21768.78
344.104	26762.91
344.555	21085.44
345.006	32873.18
345.457	25204.26
345.908	20016.07
346.359	18812.3
346.81	15331.92
347.261	16130.95
347.712	15870.35
348.163	17018.4
348.613	17228.7
349.064	16076.09
349.515	14049.01
349.965	14421.98
350.416	17342.61
350.866	19037.87
351.317	21492.6
351.767	35540.83
352.217	44848.38
352.668	37196.29
353.118	34060.79
353.568	32835.5
354.018	25997.81
354.468	27416.54
354.918	19645.87
355.368	17174.16
355.818	24274.9
356.268	69895.34
356.718	292679.3
357.168	73016.49
357.617	36599.77
358.067	40629.78
358.517	38008.62
358.966	44502.52
359.416	49846.83
359.865	53827.46
360.315	64207.72
360.764	29943.4
361.213	16766.21
361.663	15878.08
362.112	19564.02
362.561	31617.15
363.01	23858.53
363.459	20091.57
363.908	21710.64
364.357	18446.54
364.806	31187.82
365.255	21412.96
365.703	19626.72
366.152	19653.84
366.601	15916.89
367.05	12916.61
367.498	11738.45
367.947	12252.41
368.395	12716.06
368.844	11245.47
369.292	13550.9
369.74	9344.01
370.189	14284.14
370.637	16740.9
371.085	14429.26
371.533	17547.29
371.981	16907.97
372.429	16115.18
372.877	16783.07
373.325	14047.92
373.773	14291.52
374.221	12713.34
374.669	15759.88
375.116	13645.05
375.564	13721.03
376.012	15351.91
376.459	12648.09
376.907	15072.77
377.354	18181
377.801	16941.58
378.249	19458.95
378.696	24915.65
379.143	30130.36
379.591	32025.8
380.038	54016.6
380.485	38958.69
380.932	41911.34
381.379	38314.63
381.826	28237.15
382.273	20050.31
382.72	17515.86
383.166	17059.05
383.613	11056.87
384.06	9945.73
384.506	11503.61
384.953	8427.52
385.4	8471.06
385.846	7409.97
386.292	7222.32
386.739	7060.73
387.185	6968.62
387.631	6952.17
388.078	6731.86
388.524	7169.67
388.97	6619.13
389.416	5525.58
389.862	5867.78
390.308	5556.99
390.754	5639.03
391.2	6102.52
391.645	6223.39
392.091	5950.78
392.537	5744.37
392.983	5744.69
393.428	5654.12
393.874	6040.68
394.319	6035.8
394.765	5726.3
395.21	5872.88
395.655	5495.4
396.101	5139.28
396.546	4633.66
396.991	4655.04
397.436	4324.33
397.881	4167.16
398.326	3933.56
398.771	3718.91
399.216	3244.28
399.661	2915.24
400.106	2903.22
400.551	2966.02
400.995	2652.36
401.44	2620.88
401.885	2459.61
402.329	2477.17
402.774	2376.31
403.218	2304.9
403.663	2213.07
404.107	2270.94
404.551	2283.34
404.995	2087.54
405.44	2008.82
405.884	2033.2
406.328	1961.64
406.772	1954.66
407.216	1778.4
407.66	1715.08
408.104	1618.94
408.547	1517.62
408.991	1467.55
409.435	1410.19
409.879	1388.56
410.322	1370.13
410.766	1325.07
411.209	1259.98
411.653	1205.91
412.096	1181.05
412.54	1178.03
412.983	1170.33
413.426	1172.89
413.869	1170.69
414.312	1150.11
414.756	1108.94
415.199	1056.36
415.642	1022.63
416.085	1022.66
416.527	1015.49
416.97	1028.23
417.413	977.76
417.856	966.48
418.298	954.51
418.741	945.77
419.184	938.57
419.626	974.61
420.069	972.87
420.511	980.09
420.953	956.13
421.396	946.8
421.838	921.56
422.28	940.42
422.722	945.41
423.164	957.07
423.606	942.49
424.048	941.18
424.49	894.03
424.932	887.96
425.374	872.47
425.816	891.01
426.258	905.74
426.699	916.86
427.141	904.44
427.582	915.68
428.024	911.76
428.465	905.48
428.907	883.49
429.348	872.13
429.789	872.6
430.231	857.24
430.672	866.2
431.113	847.05
431.554	830.8
431.995	808.49
432.436	781.4
432.877	763.49
433.318	750.79
433.759	745.95
434.2	745.31
434.64	737.61
435.081	738.34
435.522	701.09
435.962	675.1
436.403	662.48
436.843	671.88
437.284	655.19
437.724	633.66
438.164	632.73
438.604	618.57
439.045	596.81
439.485	573.25
439.925	559.67
440.365	543.48
440.805	535.29
441.245	527.79
441.685	506.9
442.125	502.19
442.564	506.49
443.004	496.02
443.444	493.72
443.883	493.99
444.323	487.65
444.762	485.99
445.202	491.95
445.641	501.54
446.081	498.02
446.52	502.16
446.959	497.92
447.398	487.33
447.837	480.73
448.276	472.27
448.716	475.3
449.154	479.65
449.593	470.21
450.032	468.24
450.471	457.08
450.91	455.9
451.349	455.16
451.787	452.48
452.226	457.93
452.664	456.67
453.103	458.3
453.541	456.7
453.98	455.42
454.418	457.22
454.856	450.75
455.295	450.4
455.733	453.02
456.171	453.99
456.609	454.29
457.047	453.83
457.485	460.59
457.923	460.28
458.361	452.67
458.798	453.66
459.236	451.8
459.674	452.51
460.111	455.29
460.549	453.04
460.987	449.99
461.424	449.01
461.862	446.3
462.299	439.61
462.736	439.62
463.173	441.41
463.611	437.79
464.048	437.48
464.485	442.05
464.922	436.8
465.359	431.46
465.796	430.86
466.233	427.16
466.67	424.27
467.106	423.23
467.543	416.82
467.98	411.02
468.416	399.55
468.853	395.59
469.29	382.65
469.726	378.69
470.162	369.63
470.599	361.1
471.035	357.08
471.471	347.41
471.907	343.62
472.344	341.8
472.78	344.22
473.216	346.52
473.652	341.94
474.088	340.87
474.523	340.04
474.959	343.38
475.395	339.41
475.831	337.79
476.266	339.49
476.702	339.57
477.138	336.65
477.573	333.71
478.008	332.8
478.444	334.63
478.879	338.67
479.314	339.96
479.75	339.24
480.185	340.71
480.62	342.12
481.055	343.3
481.49	345.54
481.925	349.46
482.36	357.65
482.795	367.12
483.229	375.84
483.664	382.55
484.099	382.83
484.534	388.86
484.968	392.1
485.403	393.08
485.837	391.62
486.271	389.66
486.706	389.77
487.14	383.1
487.574	376.86
488.009	373.11
488.443	368.85
488.877	372.52
489.311	372.34
489.745	377.3
490.179	380.74
490.613	388.91
491.046	391.63
491.48	393.91
491.914	393.95
492.348	397.24
492.781	400.42
493.215	401.36
493.648	402.04
494.082	406.13
494.515	405.55
494.948	411.46
495.382	413.58
495.815	416.82
496.248	420.71
496.681	429.23
497.114	435.93
497.547	442.19
497.98	452.27
498.413	458.34
498.846	464.93
499.279	471.86
499.711	474.71
500.144	477.73
500.577	486.51
501.009	494.9
501.442	503.95
501.874	507.46
502.306	511.2
502.739	519.17
503.171	529.63
503.603	534.8
504.036	543.24
504.468	549.72
504.9	559.28
505.332	566.16
505.764	572.77
506.196	580.19
506.627	593.72
507.059	605.72
507.491	613.6
507.923	617.12
508.354	630.23
508.786	641.01
509.217	656.83
509.649	671.31
510.08	688.84
510.512	704.54
510.943	719.18
511.374	731.5
511.805	750.25
512.237	768.94
512.668	795.97
513.099	819.86
513.53	845.89
513.961	866.87
514.391	895.61
514.822	925.72
515.253	957.47
515.684	982.44
516.114	1009.83
516.545	1032.15
516.975	1057.18
517.406	1076.84
517.836	1085.51
518.267	1096.36
518.697	1116.86
519.127	1127.17
519.558	1138.27
519.988	1146.57
520.418	1160.25
520.848	1179.61
521.278	1191.42
521.708	1224.89
522.138	1240.38
522.567	1270.08
522.997	1294.35
523.427	1310.81
523.857	1329.35
524.286	1343.52
524.716	1362
525.145	1381.04
525.575	1394.21
526.004	1410.79
526.433	1397.16
526.863	1400.89
527.292	1396.77
527.721	1406.2
528.15	1413.75
528.579	1416.62
529.008	1427.66
529.437	1448.5
529.866	1464.17
530.295	1481.26
530.724	1494.48
531.152	1519.86
531.581	1534.79
532.01	1551.96
532.438	1560.68
532.867	1576.91
533.295	1595.54
533.723	1603.65
534.152	1603.86
534.58	1604.53
535.008	1592.01
535.436	1595.15
535.865	1603.27
536.293	1615.5
536.721	1631.45
537.149	1655.03
537.576	1658.22
538.004	1670.62
538.432	1678.12
538.86	1677.71
539.287	1684.88
539.715	1698.42
540.143	1700.7
540.57	1697.92
540.998	1696.36
541.425	1676.78
541.852	1658.19
542.28	1656.33
542.707	1641.89
543.134	1630.14
543.561	1626.36
543.988	1620.48
544.415	1620
544.842	1616.93
545.269	1611.31
545.696	1613.61
546.123	1624.49
546.549	1617.01
546.976	1606.23
547.403	1606
547.829	1607.77
548.256	1610.44
548.682	1607.84
549.108	1602.65
549.535	1602.96
549.961	1605.3
550.387	1594.91
550.813	1591.53
551.24	1597.45
551.666	1599.49
552.092	1591.5
552.518	1585.78
552.943	1580.68
553.369	1587.01
553.795	1591.04
554.221	1590.04
554.646	1587.4
555.072	1596.29
555.498	1599.53
555.923	1607.06
556.349	1620.53
556.774	1627.88
557.199	1629.71
557.625	1634.2
558.05	1628.73
558.475	1638.85
558.9	1638.64
559.325	1631.64
559.75	1625.34
560.175	1618.31
560.6	1611.11
561.025	1606.78
561.449	1606.95
561.874	1609.03
562.299	1612.22
562.723	1616.22
563.148	1605.04
563.572	1605.98
563.997	1611.58
564.421	1613.61
564.846	1611.9
565.27	1613.04
565.694	1608.34
566.118	1615.53
566.542	1620.67
566.966	1611.94
567.39	1605.36
567.814	1593.67
568.238	1591.15
568.662	1593.09
569.086	1592.07
569.509	1595.97
569.933	1579.55
570.357	1570.97
570.78	1549.02
571.204	1534.71
571.627	1522.51
572.05	1517.41
572.474	1514.39
572.897	1501.45
573.32	1491.6
573.743	1479.88
574.166	1461.59
574.589	1459.17
575.012	1450.37
575.435	1448.13
575.858	1437.07
576.281	1426.74
576.704	1412.91
577.126	1399.2
577.549	1387.76
577.972	1376.75
578.394	1368.06
578.817	1361.34
579.239	1343.59
579.661	1330.36
580.084	1315.27
580.506	1302.66
580.928	1296.95
581.35	1285.45
581.772	1280.24
582.194	1266.89
582.616	1255.64
583.038	1241.28
583.46	1230.82
583.882	1227.32
584.303	1229.58
584.725	1224.51
585.147	1226.33
585.568	1232.94
585.99	1241.59
586.411	1247.11
586.833	1258.45
587.254	1259.05
587.675	1269.32
588.096	1277.88
588.518	1272.13
588.939	1257.55
589.36	1254.67
589.781	1244.37
590.202	1221.8
590.623	1213.74
591.043	1209.52
591.464	1198.43
591.885	1193.37
592.305	1187.68
592.726	1176.44
593.147	1177.1
593.567	1171.88
593.987	1165.27
594.408	1159.95
594.828	1156.74
595.248	1151
595.669	1135.23
596.089	1129.06
596.509	1124.16
596.929	1112.88
597.349	1112.02
597.769	1103.45
598.189	1098.07
598.608	1098.57
599.028	1099.29
599.448	1098.94
599.867	1089.04
600.287	1085.48
600.706	1081.6
601.126	1072.98
601.545	1071.52
601.965	1070.2
602.384	1064.89
602.803	1066.08
603.222	1061.13
603.641	1055.14
604.061	1051.29
604.48	1046.83
604.898	1051.55
605.317	1053.12
605.736	1053.94
606.155	1051.37
606.574	1042.42
606.992	1045.7
607.411	1040.41
607.829	1037.25
608.248	1033.94
608.666	1031.04
609.085	1029.44
609.503	1021.78
609.921	1015.93
610.339	1015.52
610.758	1012.52
611.176	1007.39
611.594	998.68
612.012	995.09
612.43	991.69
612.847	993.65
613.265	992.13
613.683	993.35
614.101	992.76
614.518	987.46
614.936	978.21
615.353	966.14
615.771	962.6
616.188	960.66
616.606	956.49
617.023	949.43
617.44	938.47
617.857	931.68
618.274	922.69
618.691	917.12
619.108	909.82
619.525	904.56
619.942	908.38
620.359	909.07
620.776	904.73
621.192	900.81
621.609	899.14
622.026	902.9
622.442	906.7
622.859	909.61
623.275	904.41
623.691	907.67
624.108	915.25
624.524	924.97
624.94	924.61
625.356	931.49
625.772	940.32
626.188	947.5
626.604	948.43
627.02	944.92
627.436	943.09
627.852	947.43
628.268	956.16
628.683	949.47
629.099	942.2
629.514	938.26
629.93	940.38
630.345	942
630.761	938.89
631.176	940.58
631.591	936.78
632.007	931.99
632.422	928.94
632.837	919.06
633.252	917.3
633.667	908.93
634.082	900.82
634.497	889.76
634.911	875.77
635.326	871.13
635.741	856.95
636.155	846.67
636.57	845.37
636.984	842.35
637.399	841.83
637.813	836.68
638.228	832.82
638.642	831.92
639.056	822.22
639.47	818.48
639.884	809.49
640.298	801.74
640.712	798.11
641.126	786.08
641.54	776.84
641.954	768.79
642.368	757.49
642.781	751
643.195	736.58
643.609	733.95
644.022	727.58
644.436	721.56
644.849	710.87
645.262	699.63
645.676	698.2
646.089	693.47
646.502	682.38
646.915	677.34
647.328	663.01
647.741	659.36
648.154	648.51
648.567	645.01
648.98	635.59
649.393	634.52
649.805	632.6
650.218	625.32
650.631	613.46
651.043	608.25
651.456	604.34
651.868	603.83
652.28	613.67
652.693	620.98
653.105	623.07
653.517	628.42
653.929	627.24
654.341	628.18
654.753	620.62
655.165	624.2
655.577	621.41
655.989	615.75
656.401	609.15
656.813	586.76
657.224	574.76
657.636	555.71
658.047	544.44
658.459	531.4
658.87	524.34
659.282	516.11
659.693	503.27
660.104	494.19
660.515	485.87
660.926	483.79
661.338	481.45
661.749	475.17
662.159	470.47
662.57	465.26
662.981	462.51
663.392	458.29
663.803	459.36
664.213	456.7
664.624	453.75
665.035	454.98
665.445	446.77
665.855	443.17
666.266	439.94
666.676	437.93
667.086	433.38
667.497	432.43
667.907	428.25
668.317	423.97
668.727	424.75
669.137	424.2
669.547	423.25
669.956	424.52
670.366	425.69
670.776	426.24
671.186	429.1
671.595	432.05
672.005	434.07
672.414	435.16
672.824	435.41
673.233	436.04
673.642	439.34
674.052	442.15
674.461	445.55
674.87	448.75
675.279	449.65
675.688	451.12
676.097	453.2
676.506	453.79
676.915	463.82
677.323	465.73
677.732	466.26
678.141	467.51
678.549	462.6
678.958	462.18
679.366	463.16
679.775	467.11
680.183	475.94
680.592	480.61
681	484.56
681.408	480.85
681.816	486.65
682.224	493.07
682.632	500.47
683.04	519.55
683.448	536
683.856	555.9
684.264	579.03
684.671	599.09
685.079	624.11
685.487	654.15
685.894	694.77
686.302	730.07
686.709	760.03
687.116	795.54
687.524	826.51
687.931	855
688.338	881.52
688.745	903.81
689.152	931.84
689.559	969.45
689.966	1006.21
690.373	1030.16
690.78	1066.81
691.187	1119.29
691.593	1161.07
692	1201.45
692.407	1256.17
692.813	1321.48
693.22	1378.68
693.626	1435.69
694.032	1484.06
694.439	1553.47
694.845	1610.37
695.251	1680.32
695.657	1744.01
696.063	1834.64
696.469	1906.78
696.875	1977.07
697.281	2021.76
697.687	2071.12
698.093	2117.06
698.498	2193.08
698.904	2254.52
699.31	2341.17
699.715	2408.58
700.12	2498.94
700.526	2528.36
700.931	2597.28
701.337	2651.3
701.742	2693.71
702.147	2780.29
702.552	2817.13
702.957	2879.36
703.362	2907.91
703.767	2946.13
704.172	2990.97
704.577	2960.49
704.981	3011.77
705.386	3035.32
705.791	3040.02
706.195	3114.93
706.6	3131.34
707.004	3214.26
707.408	3195.41
707.813	3229.28
708.217	3225.96
708.621	3236.55
709.025	3333.32
709.43	3344.28
709.834	3409.72
710.237	3481.22
710.641	3475.82
711.045	3503.86
711.449	3507.11
711.853	3543.88
712.256	3589.99
712.66	3630.17
713.064	3707.07
713.467	3752.98
713.87	3864.44
714.274	3915.93
714.677	4026.23
715.08	4185.52
715.484	4354.15
715.887	4553.28
716.29	4746.57
716.693	4951.69
717.096	5189.22
717.499	5322.61
717.901	5353.54
718.304	5388.98
718.707	5418.83
719.109	5327.54
719.512	5303.21
719.915	5175.5
720.317	5125.68
720.719	5174.99
721.122	5152.87
721.524	5110.82
721.926	5076.07
722.328	5179.34
722.731	5171.64
723.133	5203.08
723.535	5394.68
723.937	5417.92
724.338	5472.99
724.74	5513.28
725.142	5457.41
725.544	5458.95
725.945	5487.52
726.347	5484.11
726.748	5482.56
727.15	5501.39
727.551	5467.98
727.952	5442.57
728.354	5418.81
728.755	5422.21
729.156	5386.21
729.557	5374.15
729.958	5254.99
730.359	5202.83
730.76	5190.16
731.161	5131.77
731.562	5107.39
731.962	5113.01
732.363	5052.28
732.763	4991.57
733.164	5030.19
733.564	4965.35
733.965	4873.3
734.365	4843.15
734.766	4873
735.166	4834.46
735.566	4781.24
735.966	4756.52
736.366	4751.53
736.766	4693.53
737.166	4724.32
737.566	4684.76
737.966	4661.81
738.365	4701.4
738.765	4695.78
739.165	4620.94
739.564	4597.6
739.964	4643.16
740.363	4599.44
740.763	4598.21
741.162	4586.71
741.561	4556.13
741.96	4510.88
742.36	4530.76
742.759	4536.67
743.158	4573.51
743.557	4590.79
743.955	4631.2
744.354	4587.2
744.753	4643.3
745.152	4602.99
745.55	4657.87
745.949	4653.38
746.348	4657.29
746.746	4673.82
747.144	4634.82
747.543	4615.46
747.941	4662.78
748.339	4593.4
748.737	4587.55
749.136	4578.82
749.534	4644.51
749.932	4618.63
750.33	4642.88
750.727	4697.65
751.125	4674.7
751.523	4659.98
751.921	4703.23
752.318	4670.4
752.716	4726.64
753.113	4738.49
753.511	4764.79
753.908	4762.16
754.305	4743.62
754.703	4803.51
755.1	4861.58
755.497	4920.68
755.894	5108.07
756.291	5282.22
756.688	5604.47
757.085	6035.98
757.482	6641.22
757.878	7302.61
758.275	7904.43
758.672	8727.23
759.068	9395.36
759.465	10350.86
759.861	11582.08
760.258	13012.33
760.654	13752.05
761.05	13645.83
761.447	13021.37
761.843	12124.98
762.239	11197.34
762.635	10775
763.031	10374.79
763.427	9792.08
763.822	9180.38
764.218	8581.73
764.614	7798.02
765.01	7272.67
765.405	6934.23
765.801	6678.41
766.196	6352.22
766.592	6165.52
766.987	5855.4
767.382	5644.83
767.778	5560.07
768.173	5432.73
768.568	5360.16
768.963	5237.88
769.358	5257.31
769.753	5212.12
770.148	5130.41
770.542	5129.18
770.937	5101.87
771.332	5191.62
771.726	5212.15
772.121	5147.58
772.515	5201.71
772.91	5186.24
773.304	5255.04
773.699	5190.99
774.093	5244.83
774.487	5300.04
774.881	5339.7
775.275	5335.66
775.669	5296.21
776.063	5335.71
776.457	5373.81
776.851	5299.9
777.245	5291.2
777.638	5324.59
778.032	5435.54
778.425	5395.61
778.819	5435.83
779.212	5393.53
779.606	5351.58
779.999	5369.04
780.392	5356.17
780.786	5434.9
781.179	5456.44
781.572	5500.72
781.965	5514.85
782.358	5456.16
782.751	5513.48
783.143	5467.58
783.536	5540.47
783.929	5581.21
784.322	5692.04
784.714	5722.19
785.107	5719.13
785.499	5790.24
785.891	5766.08
786.284	5744.35
786.676	5885.25
787.068	5862.62
787.46	5911.57
787.852	5932.45
788.245	6017.91
788.636	6050.12
789.028	6115
789.42	6154.31
789.812	6161.3
790.204	6256.01
790.595	6355.29
790.987	6165.35
791.378	6189.31
791.77	6313.46
792.161	6445.24
792.553	6501.84
792.944	6392.8
793.335	6329.25
793.726	6396.98
794.117	6485.14
794.508	6620.55
794.899	6589.6
795.29	6727.22
795.681	6788.76
796.072	6651.06
796.463	6472.09
796.853	6482
797.244	6631.19
797.634	6662.96
798.025	6663.64
798.415	6676.28
798.806	6764.04
799.196	6850.73
799.586	6904.62
799.976	6866.16
800.366	7096.7
800.756	7330.25
801.146	7293.54
801.536	7327.28
801.926	7395.4
802.316	7426.67
802.706	7498.02
803.095	7379.24
803.485	7480.67
803.874	7515.78
804.264	7768.73
804.653	7742.12
805.043	7886.28
805.432	7992.5
805.821	7999.07
806.21	8026.43
806.599	8141.01
806.988	8190.57
807.377	8298.97
807.766	8427.18
808.155	8713.99
808.544	8457.12
808.933	8474.59
809.321	8459.6
809.71	8753.37
810.098	8911.4
810.487	9368.21
810.875	9843.31
811.264	9863.72
811.652	10153.22
812.04	10294.26
812.428	10453.79
812.816	11207.47
813.204	11616.06
813.592	12151.48
813.98	12481.09
814.368	12383.53
814.756	12855.77
815.144	12777.33
815.531	13241.67
815.919	13160.63
816.306	13459.71
816.694	13157.86
817.081	13208.48
817.469	13554.68
817.856	13560.31
818.243	13824.82
818.63	14217.41
819.017	13802.8
819.404	13870.03
819.791	14242.95
820.178	14856.43
820.565	15111.21
820.952	16023.19
821.339	15548.5
821.725	15729.05
822.112	14995.66
822.498	14963.11
822.885	15085.48
823.271	14990.5
823.657	15402.56
824.044	15409.75
824.43	15483.28
824.816	15458.02
825.202	15034.08
825.588	16029.35
825.974	16047.09
826.36	16554.81
826.746	16584.76
827.132	16941.74
827.517	16916.97
827.903	16134.9
828.289	16167.35
828.674	15391.45
829.06	15279.38
829.445	15668.4
829.83	16028.66
830.216	16492.58
830.601	16851.04
830.986	16442.2
831.371	16298.29
831.756	16845.16
832.141	16426.26
832.526	16419.72
832.911	16697.79
833.295	16580.24
833.68	17035.61
834.065	16419.44
834.449	15522.26
834.834	15444.11
835.218	15443.8
835.603	15782.34
835.987	15572.61
836.371	16390.5
836.755	16290.54
837.139	16673.92
837.524	16903.47
837.908	16723.62
838.291	16774.76
838.675	16844.56
839.059	17053.17
839.443	17039.11
839.827	16808.97
840.21	17276.36
840.594	17122.04
840.977	17315.23
841.361	17305.75
841.744	17680
842.127	17528.37
842.511	17770.74
842.894	18347.8
843.277	18716.63
843.66	19251.88
844.043	19334.56
844.426	18545.79
844.809	18244.29
845.191	18278.32
845.574	17827.92
845.957	17467.53
846.339	17362.92
846.722	16847.91
847.104	16910.19
847.487	16738.12
847.869	16750.36
848.252	17017.52
848.634	17343.05
849.016	17594.69
849.398	17708.05
849.78	18531.04
850.162	18534.17
850.544	18935.54
850.926	19541.76
851.307	19463.23
851.689	19738.51
852.071	20167.58
852.452	20489.14
852.834	20463.95
853.215	20860.59
853.597	21013.54
853.978	21301.67
854.359	21751.5
854.741	20782.5
855.122	20691.14
855.503	20401.85
855.884	20531.09
856.265	20471.89
856.646	20570.17
857.026	20192.49
857.407	20127.43
857.788	20285.44
858.169	20565.13
858.549	19728.95
858.93	20340.3
859.31	20383.06
859.69	20583.44
860.071	20190.5
860.451	19978.96
860.831	19270.24
861.211	20405.06
861.591	20930.27
861.971	20905.47
862.351	21092.89
862.731	21475.39
863.111	21725.73
863.491	22050.18
863.87	22909.42
864.25	23248.89
864.629	22868.45
865.009	23360.33
865.388	24178.89
865.768	25930.02
866.147	25837.3
866.526	24418.64
866.905	24715.17
867.284	26103.03
867.663	24792.34
868.042	23748.41
868.421	23673.58
868.8	24062.65
869.179	24299.49
869.558	22882.89
869.936	21084.13
870.315	21456.99
870.693	21976.28
871.072	23693.04
871.45	22571.89
871.828	22863.48
872.207	24057.57
872.585	23691.72
872.963	24335.11
873.341	23503.82
873.719	23225.93
874.097	22949.13
874.475	23380.8
874.853	23910.31
875.23	22919.28
875.608	23878.56
875.986	25826.49
876.363	24687.8
876.741	25445.91
877.118	24802.26
877.495	26030.87
877.873	26463.57
878.25	27840.08
878.627	26710.41
879.004	27089.03
879.381	26962.02
879.758	26245.2
880.135	24424.28
880.512	25832.51
880.889	25141.88
881.265	24892.46
881.642	24674.13
882.019	25099.2
882.395	24583.33
882.772	25553.11
883.148	24440.39
883.524	24340.58
883.901	24208.1
884.277	24582.35
884.653	24420.35
885.029	25116.34
885.405	27806.8
885.781	27587.77
886.157	26447.5
886.532	26777.49
886.908	26757.42
887.284	29753.4
887.659	30729.91
888.035	31682.1
888.411	32490.74
888.786	32917.5
889.161	34048.19
889.537	33412.72
889.912	34468.73
890.287	34435.21
890.662	35321.06
891.037	34674.2
891.412	32327.8
891.787	31982.68
892.162	30861.17
892.536	31565.05
892.911	30376.94
893.286	29743.39
893.66	28537.33
894.035	29271.42
894.409	31869
894.784	30568.42
895.158	31067.09
895.532	32908.52
895.906	33798.08
896.281	34592.57
896.655	34050.02
897.029	38905.58
897.402	40495.76
897.776	45091.28
898.15	44926.52
898.524	44424.46
898.898	45033.5
899.271	50443.54
899.645	43664.37
900.018	41957.37
900.392	43504.73
900.765	43850.63
901.138	40582.13
901.511	39984.22
901.884	36701.99
902.258	33848.48
902.631	34984.21
903.003	40261.63
903.376	36329.94
903.749	40774.22
904.122	43654.65
904.495	48066.81
904.867	48665.93
905.24	42237.64
905.612	39318.23
905.985	40205.77
906.357	42067.72
906.729	40140.74
907.102	34265.06
907.474	32942.62
907.846	33121.19
908.218	32657.87
908.59	28868.72
908.962	27925.32
909.334	30081.14
909.705	31602.03
910.077	30674.24
910.449	31915.05
910.82	32824.57
911.192	36147.98
911.563	37566.96
911.935	40210.82
912.306	40286.88
912.677	41591.6
913.048	41184.34
913.419	44689.83
913.79	44938.92
914.161	48201.94
914.532	46086.5
914.903	42346.91
915.274	40236.24
915.645	39633.61
916.015	34905.73
916.386	33281.27
916.756	35416.44
917.127	36539.7
917.497	32650.56
917.868	35532.47
918.238	33772.98
918.608	34751.68
918.978	35468.53
919.348	37539.21
919.718	38806.07
920.088	37371.33
920.458	38846.22
920.828	40893.7
921.198	38776.28
921.567	41418.7
921.937	32096.08
922.306	32396.39
922.676	34934.72
923.045	29157.58
923.415	27710.59
923.784	25234.42
924.153	25946.34
924.522	25913.07
924.891	24356.03
925.26	26087.17
925.629	25487.09
925.998	29308.63
926.367	28620.26
926.736	27266.2
927.104	32485.64
927.473	34917.42
927.842	42174.49
928.21	41766.91
928.578	43897.08
928.947	41549.58
929.315	41809.98
929.683	49001.78
930.051	49365.86
930.42	57341.23
930.788	48997.05
931.156	48606.34
931.523	45562.45
931.891	42102.84
932.259	40441.79
932.627	46891.71
932.994	66273.49
933.362	54718.41
933.729	47523.1
934.097	45484.84
934.464	38481.37
934.831	44335.02
935.199	43685.31
935.566	42349.58
935.933	42995.15
936.3	52086.55
936.667	40523.24
937.034	36552.97
937.401	36182.39
937.767	31199.51
938.134	27775.72
938.501	39184.29
938.867	41834.81
939.234	70799.52
939.6	60456.79
939.967	66489.26
940.333	44489.16
940.699	37895.95
941.065	30435.73
941.431	39923.44
941.798	38584.13
942.163	50657.17
942.529	31648.44
942.895	29134.12
943.261	18852.64
943.627	24749.35
943.992	21661.66
944.358	21725.34
944.723	21810.16
945.089	21276.71
945.454	19670.35
945.82	20999.42
946.185	20218.85
946.55	23438.71
946.915	21041.04
947.28	24697.54
947.645	21749.82
948.01	20086.45
948.375	20946.72
948.74	25142.87
949.104	29332.38
949.469	42371.27
949.834	74857.33
950.198	70925.32
950.562	42480.65
950.927	35383.19
951.291	42569.09
951.655	36265.97
952.02	34064.36
952.384	25752.36
952.748	22417.91
953.112	21872.18
953.476	19005.29
953.839	17571.3
954.203	17383.85
954.567	21740.54
954.931	34240.18
955.294	29271.75
955.658	29415
956.021	49970.69
956.385	84729.48
956.748	124867.88
957.111	193422.72
957.474	217208.67
957.837	244547.41
958.2	185193.56
958.563	66681.91
958.926	45065.69
959.289	68384.95
959.652	76401.31
960.015	57392.86
960.377	82321.88
960.74	93969.28
961.102	162280.79
961.465	174252.35
961.827	93337.18
962.189	179156.64
962.552	124048.34
962.914	99449.44
963.276	64544.16
963.638	53377.89
964	52763.8
964.362	35657.92
964.724	34445.91
965.085	24548.22
965.447	20109.44
965.809	22900.45
966.17	22923.46
966.532	24818.79
966.893	22778.06
967.255	20717.18
967.616	24445.03
967.977	19600.21
968.338	21421.42
968.699	17616.77
969.061	17625.81
969.421	17742.54
969.782	19909.83
970.143	16816.04
970.504	17407.74
970.865	19771.97
971.225	20225.35
971.586	19791.62
971.946	28194.63
972.307	24463.56
972.667	31948
973.027	32908.64
973.388	39911.37
973.748	27171.07
974.108	29560.14
974.468	40012.9
974.828	30859.18
975.188	23714.19
975.548	21763.15
975.907	18272.43
976.267	20478.99
976.627	17231.45
976.986	17850.56
977.346	17020.08
977.705	16390.83
978.064	14934.69
978.424	12430.25
978.783	12860.17
979.142	14704.44
979.501	14062.22
979.86	14851.55
980.219	14322.21
980.578	18462.93
980.937	20674.03
981.296	18426.89
981.654	18935.85
982.013	29479.5
982.371	38245.07
982.73	35699.89
983.088	40393.99
983.447	43193.63
983.805	61780.32
984.163	129168.33
984.521	143330.73
984.879	210069.28
985.237	-341960.18
985.595	330013.93
985.953	81957.56
986.311	47292.67
986.669	27464.48
987.026	23722.31
987.384	31892.33
987.741	32924.79
988.099	23512.59
988.456	18745.87
988.814	17551.28
989.171	15252.22
989.528	15025.71
989.885	15863.14
990.242	12577.06
990.599	15672.73
990.956	12787.48
991.313	8947.21
991.67	7363.07
992.027	7799.3
992.383	6923.63
992.74	6062.61
993.096	6355.55
993.453	6585.68
993.809	6826.62
994.165	9098.02
994.522	8344.2
994.878	9208.38
995.234	11553.92
995.59	11391.3
995.946	10795
996.302	12327.39
996.658	14278.82
997.013	15732.51
997.369	18659.23
997.725	23883.26
998.08	15446.81
998.436	23806.44
998.791	32846.07
999.147	32729.67
999.502	35684.22
999.857	25907.98
1000.212	42227.07
1000.567	60122.95
1000.922	34716.7
1001.277	22067.01
1001.632	16385.2
1001.987	21134.52
1002.342	15147.35
1002.696	12116.81
1003.051	9685.37
1003.406	11755.49
1003.76	11708.5
1004.114	11558.18
1004.469	9718.89
1004.823	8034.94
1005.177	8661.37
1005.531	6861.97
1005.885	6072.81
1006.239	6844.7
1006.593	8580.48
1006.947	11480.24
1007.301	8581.89
1007.655	9362.23
1008.008	6863.95
1008.362	7710.83
1008.715	11014.35
1009.069	10010.38
1009.422	15108.04
1009.776	30424.82
1010.129	20250.79
1010.482	16942.82
1010.835	14335.98
1011.188	29903.09
1011.541	28152.09
1011.894	-171664.36
1012.247	503375.79
1012.6	34133.47
1012.952	21536.76
1013.305	11039.21
1013.657	7939.63
1014.01	7492.9
1014.362	6179.35
1014.715	5483.36
1015.067	4787.71
1015.419	4693.13
1015.771	4170.41
1016.123	3726.24
1016.475	3849.01
1016.827	4100.69
1017.179	4418.67
1017.531	4450.18
1017.883	4549.05
1018.234	4400.46
1018.586	5563.46
1018.938	5867.26
1019.289	8068.58
1019.64	9238.72
1019.992	8593.37
1020.343	7847.1
1020.694	6221.42
1021.045	5478.84
1021.396	6264.09
1021.747	6741.02
1022.098	8054
1022.449	5835.4
1022.8	5428.25
1023.151	3790.98
1023.501	3352.5
1023.852	3656.93
1024.202	3797.68
1024.553	4158.95
1024.903	4087.95
1025.253	3486.67
1025.604	3144.11
1025.954	3926.26
1026.304	4796.43
1026.654	5590.34
1027.004	8187.94
1027.354	13277.79
1027.703	12456.53
1028.053	16329.73
1028.403	23935.17
1028.753	34616.17
1029.102	47124.67
1029.452	240891.11
1029.801	10339.13
1030.15	6662.06
1030.499	5650.8
897.758	2670.95
901.051	2629.84
904.343	2663.67
907.636	2664.8
910.928	2727.69
914.22	2637.03
917.511	2649.08
920.803	2709.44
924.094	2727.99
927.384	2705.62
930.675	2675.07
933.965	2627.92
937.255	2633.19
940.544	2601.58
943.834	2541.8
947.123	2487.36
950.411	2585.73
953.7	2556.21
956.988	2526.82
960.276	2469.45
963.563	2549.39
966.851	2541.91
970.138	2602.51
973.424	2598.68
976.711	2544.99
979.997	2679.63
983.283	2715.25
986.568	2619.18
989.853	2635.23
993.138	2662.88
996.423	2744.64
999.708	2684.34
1002.992	2748.87
1006.275	2581.58
1009.559	2626.16
1012.842	2746.77
1016.125	2675.84
1019.408	2653.6
1022.69	2742.32
1025.972	2760.79
1029.254	2735.44
1032.536	2668.05
1035.817	2694.63
1039.098	2640.24
1042.379	2784.71
1045.659	2784.41
1048.939	2716.63
1052.219	2738.18
1055.498	2749.1
1058.778	2734.76
1062.057	2719.96
1065.335	2738.83
1068.614	2761.74
1071.892	2741.94
1075.17	2816.59
1078.447	2808.25
1081.724	2799.97
1085.001	2834.78
1088.278	2809.89
1091.554	2824.69
1094.83	2819.6
1098.106	2847.22
1101.382	2894.78
1104.657	2891.9
1107.932	2888.74
1111.206	2853.51
1114.481	2810.28
1117.755	2810.72
1121.029	2790.73
1124.302	2843.01
1127.575	2795.16
1130.848	2779.98
1134.121	2742.8
1137.393	2691.76
1140.665	2757.5
1143.937	2734.72
1147.208	2694.25
1150.48	2733.72
1153.75	2722.11
1157.021	2755.41
1160.291	2726.35
1163.561	2771.47
1166.831	2761.76
1170.101	2793.55
1173.37	2764.85
1176.639	2709.98
1179.907	2770.3
1183.176	2776.64
1186.444	2782.91
1189.711	2812.44
1192.979	2823.61
1196.246	2779.95
1199.513	2797.82
1202.78	2794.97
1206.046	2805.67
1209.312	2831.14
1212.578	2856.78
1215.843	2805.29
1219.108	2779.15
1222.373	2804.77
1225.638	2766.82
1228.902	2750.93
1232.166	2713.28
1235.43	2696.25
1238.693	2720.49
1241.956	2716.68
1245.219	2760.12
1248.482	2751.56
1251.744	2747.39
1255.006	2898.44
1258.268	2852.39
1261.529	2795.79
1264.79	2802.82
1268.051	2908.08
1271.312	2925.64
1274.572	2887.41
1277.832	2876.67
1281.092	2865.57
1284.351	2837.67
1287.61	2815.9
1290.869	2731
1294.128	2706.32
1297.386	2797.56
1300.644	2784.02
1303.902	2798.15
1307.159	2651.92
1310.416	2710.98
1313.673	2735.92
1316.93	2720.87
1320.186	2767.66
1323.442	2810.84
1326.697	2796.66
1329.953	2789.04
1333.208	2811.32
1336.463	2792.64
1339.717	2729.95
1342.972	2869.22
1346.226	2844.43
1349.479	2775.27
1352.733	2745.82
1355.986	2769.58
1359.238	2745.61
1362.491	2752.56
1365.743	2753.69
1368.995	2749
1372.247	2762.2
1375.498	2788.71
1378.749	2802.82
1382	2757.91
1385.251	2812.12
1388.501	2772.99
1391.751	2756
1395	2730.33
1398.25	2761.27
1401.499	2768.33
1404.748	2694.35
1407.996	2684.43
1411.244	2669.05
1414.492	2649.58
1417.74	2625.27
1420.987	2636.35
1424.234	2695.76
1427.481	2675.97
1430.728	2731.88
1433.974	2706.07
1437.22	2723.62
1440.465	2724.89
1443.711	2689.14
1446.956	2724.24
1450.201	2714.1
1453.445	2761.84
1456.689	2739.34
1459.933	2750.48
1463.177	2785.17
1466.42	2757.18
1469.663	2738.27
1472.906	2732.85
1476.148	2810.03
1479.391	2769.07
1482.633	2739.55
1485.874	2748.68
1489.115	2733.95
1492.356	2741.04
1495.597	2716.68
1498.838	2717.73
1502.078	2686.96
1505.318	2635.57
1508.557	2678.27
1511.797	2652.71
1515.036	2724
1518.274	2713.18
1521.513	2685.25
1524.751	2708.72
1527.989	2718.54
1531.227	2733.17
1534.464	2730.1
1537.701	2749.11
1540.938	2768.07
1544.174	2719.23
1547.41	2718.99
1550.646	2757.91
1553.882	2794.46
1557.117	2848.91
1560.352	2863.49
1563.587	2823.22
1566.821	2780.45
1570.055	2815.55
1573.289	2786.73
1576.523	2863.9
1579.756	2873.42
1582.989	2890.35
1586.222	2853.36
1589.454	2891.38
1592.686	2861.54
1595.918	2888.75
1599.15	2876.02
1602.381	2955.01
1605.612	2907.58
1608.843	3006.64
1612.073	2918.03
1615.303	2899.93
1618.533	2894.61
1621.762	2895.07
1624.992	2882.44
1628.221	2870.25
1631.449	2854.4
1634.678	2909.14
1637.906	2861.42
1641.134	2902.03
1644.361	2855.87
1647.588	2843.62
1650.815	2861.1
1654.042	2837.55
1657.269	2868.73
1660.495	2821
1663.72	2843.25
1666.946	2806.54
1670.171	2752.19
1673.396	2725.85
1676.621	2712.61
1679.845	2732.15
1683.069	2754.39
1686.293	2798.15
1689.517	2766.98
1692.74	2696.2
1695.963	2725.94
1699.185	2742.39
1702.408	2713.93
1705.63	2756.11
1708.852	2767.94
1712.073	2741.79
1715.294	2727.63
1718.515	2786.87
1721.736	2731.36
1724.956	2729.07
1728.176	2755.43
1731.396	2778.65
1734.616	2764.37
1737.835	2794.53
1741.054	2774.26
1744.272	2766.63
1747.491	2795.67
1750.709	2854.03
1753.927	2757.64
1757.144	2805.01
1760.361	2846.28
1763.578	2838.1
1766.795	2777.8
1770.011	2784.5
1773.227	2825.78
1776.443	2861.73
1779.658	2907.79
1782.874	2850.68
1786.089	2825.59
1789.303	2829.31
1792.518	2833.07
1795.732	2820.36
1798.945	2832.68
1802.159	2880.95
1805.372	2786.68
1808.585	2771.55
1811.797	2771.06
1815.01	2819.22
1818.222	2821.97
1821.434	2793.96
1824.645	2851.83
1827.856	2837.56
1831.067	2877.34
1834.278	2830.1
1837.488	2815.12
1840.698	2964.26
1843.908	2887.53
1847.117	2849.59
1850.326	2734.75
1853.535	2840.79
1856.744	2866.82
1859.952	2779.87
1863.16	2783.38
1866.368	2802.5
1869.575	2908.68
1872.782	2790.95
1875.989	2728.35
1879.196	2815.45
1882.402	2806.99
1885.608	2846.85
1888.814	2743.65
1892.019	2637.67
1895.224	2691.69
1898.429	2669.45
1901.634	2645.07
1904.838	2622.57
1908.042	2673.08
1911.246	2677.52
1914.449	2605.26
1917.652	2606.23
1920.855	2586.67
1924.058	2637.7
1927.26	2672.51
1930.462	2700.84
1933.664	2727.16
1936.865	2665.89
1940.066	2673.33
1943.267	2619.59
1946.467	2637.64
1949.668	2663.93
1952.868	2731.32
1956.067	2709.67
1959.267	2644.53
1962.466	2672.33
1965.665	2655.8
1968.863	2652.68
1972.061	2667.13
1975.259	2665.13
1978.457	2748.21
1981.654	2705.13
1984.852	2705.83
1988.048	2637.81
1991.245	2639.99
1994.441	2722.91
1997.637	2709.32
2000.833	2690.16
2004.028	2728.55
2007.223	2781.65
2010.418	2759.53
2013.613	2720.03
2016.807	2690.16
2020.001	2695.17
2023.194	2740.93
2026.388	2718.65
2029.581	2663.53
2032.774	2714.65
2035.966	2720.53
2039.158	2650.77
2042.35	2681.38
2045.542	2608.25
2048.733	2709.81
2051.924	2731.65
2055.115	2765.25
2058.306	2705.86
2061.496	2766.25
2064.686	2830.47
2067.875	2741.18
2071.065	2757.64
2074.254	2784.87
2077.442	2736.16
2080.631	2825.87
2083.819	2714.79
2087.007	2700.99
2090.195	2667.35
2093.382	2702.86
2096.569	2681.35
2099.756	2635.56
2102.942	2661.66
2106.128	2665.42
2109.314	2657.95
2112.5	2619.73
2115.685	2593.57
2118.87	2604.38
2122.055	2667.06
2125.239	2633.5
2128.424	2605.47
2131.608	2709.59
2134.791	2691.24
2137.974	2749.12
2141.157	2736.98
2144.34	2685.96
2147.523	2700.48
2150.705	2716.25
2153.887	2696.1
2157.068	2644.14
2160.25	2647.51
2163.431	2686.42
2166.611	2630.19
2169.792	2646.69
2172.972	2540.17
2176.152	2619.21
2179.331	2655.75
2182.511	2638.52
2185.69	2667.57
2188.868	2659.38
2192.047	2718.65
2195.225	2707.76
2198.403	2658.89
2201.58	2651.71
2204.758	2646.83
2207.935	2730.92
2211.111	2619.51
2214.288	2602.36
2217.464	2642.48
2220.64	2614.12
2223.815	2672.74
2226.991	2588.68
2230.166	2609.24
2233.34	2636.86
2236.515	2665.95
2239.689	2740.38
2242.863	2683.18
2246.036	2736.26
2249.209	2736.72
2252.382	2772.69
2255.555	2758.14
2258.727	2694.05
2261.9	2735.7
2265.071	2727.61
2268.243	2729.44
2271.414	2657.76
2274.585	2618.19
2277.756	2687.02
2280.926	2643
2284.096	2685.24
2287.266	2590.72
2290.436	2645.5
2293.605	2674.51
2296.774	2703.86
2299.942	2726.68
2303.111	2745.05
2306.279	2793.1
2309.447	2778.96
2312.614	2752.18
2315.781	2772.11
2318.948	2739.3
2322.115	2777.42
2325.281	2682.02
2328.447	2702.26
2331.613	2675.75
2334.779	2646.33
2337.944	2650.02
2341.109	2648.14
2344.274	2631.54
2347.438	2597.2
2350.602	2623.03
2353.766	2642.08
2356.929	2627.49
2360.092	2667.91
2363.255	2619.1
2366.418	2553.8
2369.58	2670.15
2372.742	2453.68
2375.904	2469.14
2379.066	2445.03
2382.227	2481.29
2385.388	2441.16
2388.548	2365.08
2391.709	2421
2394.869	2404.86
2398.029	2503.88
2401.188	2516.44
2404.347	2447.86
2407.506	2591.56
2410.665	2619.91
2413.823	2627.04
2416.981	2583.56
2420.139	2618.69
2423.296	2668.57
2426.453	2642.69
2429.61	2663.08
2432.767	2597.1
2435.923	2636.75
2439.079	2599.12
2442.235	2650.14
2445.391	2576.99
2448.546	2605.51
2451.701	2653.18
2454.855	2624.87
2458.009	2678.95
2461.163	2680.93
2464.317	2636.94
2467.471	2670.81
2470.624	2709.3
2473.777	2683.31
2476.929	2694.77
2480.082	2719.57
2483.234	2683.02
2486.385	2639.53
2489.537	2630.35
2492.688	2590.36
2495.839	2607.83
2498.989	2622.67
2502.14	2606.33
2505.29	2590.22
2508.439	2614.24
2511.589	2535.18
2514.738	2546.87
2517.887	2578.98
2521.035	2644.66
2524.183	2626.83
2527.331	2606.85
2530.479	2579.61
2533.627	2589.23
