Data from N_3_DIV_OH_2N_Splice17_12-49-56-780.txt Node
Date: Sat Mar 14 12:49:56 EDT 2020
User: sa697716
Spectrometer: FLMS03696
Trigger mode: 0
Integration Time (sec): 3.180400E-1
Scans to average: 20
Electric dark correction enabled: true
Nonlinearity correction enabled: true
Boxcar width: 5
XAxis mode: Wavelengths
Number of Pixels in Spectrum: 2048
>>>>>Begin Spectral Data<<<<<
187.83	-298949.19
188.298	2172.47
188.766	1212.37
189.233	1099.89
189.701	1598.75
190.169	2237.86
190.636	884.98
191.104	733.52
191.571	122.52
192.039	-88.23
192.506	-100.53
192.974	359.44
193.441	-614.25
193.908	5.11
194.375	3.28
194.842	85.51
195.31	198.63
195.777	216.6
196.244	439.3
196.711	503.76
197.177	651.73
197.644	919.46
198.111	1576.55
198.578	2213.96
199.045	1780.72
199.511	2925.22
199.978	3422.99
200.445	2914.2
200.911	3229.61
201.378	3628.14
201.844	3286.44
202.31	5573.66
202.777	5818.03
203.243	3249.33
203.709	3111.64
204.176	3693.51
204.642	3043.49
205.108	2822.38
205.574	2296.54
206.04	2074.5
206.506	1924.76
206.972	1809.07
207.438	1758.26
207.903	1998.64
208.369	1742.16
208.835	1728.6
209.301	1807.81
209.766	1849.97
210.232	1847.98
210.697	2283.91
211.163	2839.42
211.628	4299.43
212.094	3642.01
212.559	4435.14
213.024	2763.3
213.49	3394.23
213.955	3323.55
214.42	3253.99
214.885	3037.7
215.35	2912.62
215.815	2820.3
216.28	2999.24
216.745	2429.43
217.21	2614.69
217.675	2406.88
218.14	2682.64
218.604	2971.81
219.069	3378.59
219.534	3523.32
219.998	4079.13
220.463	4924.62
220.927	6021.45
221.392	5651.6
221.856	5731.61
222.32	7224.26
222.785	8911.75
223.249	11247.01
223.713	12564.52
224.177	12526.87
224.642	16102.14
225.106	19798.43
225.57	21613.71
226.034	16059.1
226.497	24475.44
226.961	22083.08
227.425	25653.54
227.889	28449.99
228.353	28416.24
228.816	58705.45
229.28	56160.89
229.744	47351.29
230.207	28789.61
230.671	28351.79
231.134	46906.33
231.597	54059.16
232.061	53976.28
232.524	52710.58
232.987	36328.35
233.45	32688.32
233.914	29276.61
234.377	29978.59
234.84	27388.13
235.303	32253.05
235.766	35964.01
236.229	37106.2
236.691	23348.38
237.154	26248.75
237.617	19718.17
238.08	20135.89
238.542	23568.22
239.005	16847.33
239.468	16723.74
239.93	15748.85
240.393	14319.46
240.855	12559.18
241.317	12862.95
241.78	15653.89
242.242	16169.27
242.704	17440.29
243.166	15195.31
243.629	13789.13
244.091	15863.05
244.553	17368.48
245.015	18651.69
245.477	24118.31
245.939	35364.56
246.4	37489.48
246.862	36406.72
247.324	34305.08
247.786	38408.69
248.247	50319.47
248.709	51907.02
249.17	38836.54
249.632	36599.19
250.093	42477.71
250.555	36638.41
251.016	22300.63
251.477	21166.87
251.939	22803.24
252.4	23909.02
252.861	28394.74
253.322	26391.55
253.783	31375.29
254.244	40649.3
254.705	32004.74
255.166	28429.46
255.627	27971.97
256.088	39436.58
256.549	41826.76
257.009	35960.13
257.47	43593.04
257.931	35465.49
258.391	26537.99
258.852	27307.85
259.312	28588.9
259.773	35265.27
260.233	29765.42
260.694	25082.35
261.154	28389.5
261.614	22790.48
262.074	20393.9
262.534	21194.03
262.994	19967.43
263.455	26601.79
263.915	22394.63
264.374	21072.48
264.834	23003.46
265.294	25453.91
265.754	26349.45
266.214	24977.94
266.673	23365.12
267.133	29457.28
267.593	29167.9
268.052	35619.04
268.512	30945.84
268.971	37321.56
269.431	40900.8
269.89	36603.37
270.349	54889.88
270.809	61227.59
271.268	54935.24
271.727	123195.18
272.186	79749.64
272.645	59793.74
273.104	43161.58
273.563	62429.65
274.022	49053.64
274.481	41742.23
274.94	32171.57
275.399	23894.31
275.857	27768.64
276.316	37554.94
276.775	33411.75
277.233	32881.19
277.692	30791.98
278.15	34796.9
278.609	35817.45
279.067	33155.71
279.525	30799.15
279.984	39726.75
280.442	47717.51
280.9	47042.83
281.358	30945.99
281.816	28856.62
282.274	28232.97
282.732	29140.42
283.19	29303.27
283.648	25283.27
284.106	26945.91
284.564	27386.02
285.021	25401.62
285.479	18946.31
285.937	17237.58
286.394	15133.29
286.852	15539.39
287.309	16337.88
287.767	15786.2
288.224	14998.68
288.682	16448.72
289.139	18018.37
289.596	16456.26
290.053	17071.82
290.511	21492.23
290.968	26019.55
291.425	35251.7
291.882	29346.6
292.339	25525.52
292.796	25294.11
293.252	23858.14
293.709	18929.28
294.166	16955.79
294.623	18742.03
295.079	17978.26
295.536	18083.2
295.992	16412.37
296.449	16214.67
296.905	16831.86
297.362	16136
297.818	16966.11
298.274	17574.16
298.731	17879.47
299.187	17666.08
299.643	18972.29
300.099	22952.31
300.555	25152.22
301.011	21008.11
301.467	20266.76
301.923	23712.16
302.379	23164.03
302.835	22729.4
303.291	22775.9
303.746	25976.04
304.202	32870.67
304.658	32971.39
305.113	22148.88
305.569	21676.85
306.024	23138.42
306.479	22005.63
306.935	18557.66
307.39	20255.25
307.845	18717.87
308.301	18816.41
308.756	18336.47
309.211	17652.97
309.666	18082.09
310.121	22476.3
310.576	22838.3
311.031	22653.65
311.486	25934.22
311.94	25907.15
312.395	34649.44
312.85	65129.18
313.305	319649.49
313.759	1655481.02
314.214	120035.14
314.668	95056.09
315.123	79980.69
315.577	28651.6
316.032	25504.62
316.486	32000.98
316.94	25273.23
317.394	17586.14
317.849	13688.52
318.303	12954.5
318.757	12211.26
319.211	13496.59
319.665	11833.99
320.119	11966.93
320.572	17159.07
321.026	15989.23
321.48	13305.09
321.934	14495.51
322.387	14503.51
322.841	15639.49
323.295	14098.32
323.748	16245.18
324.202	16467.04
324.655	19746.13
325.108	27611.01
325.562	19530.72
326.015	23222.98
326.468	17549.43
326.921	19632.23
327.374	18357.51
327.827	19160.63
328.28	21682.79
328.733	14505.91
329.186	12775.53
329.639	12196.44
330.092	10280.33
330.545	9790.13
330.997	9891.9
331.45	10822.19
331.903	12705.08
332.355	21834.79
332.808	21190.47
333.26	17450.27
333.713	18956.81
334.165	19087.01
334.617	25503.45
335.069	20600.95
335.522	37243.43
335.974	41266.97
336.426	37764.52
336.878	26105.18
337.33	13247.08
337.782	12928.07
338.234	16211.36
338.686	19439.75
339.137	23042.54
339.589	21712.48
340.041	17007.15
340.493	14618.84
340.944	14966.23
341.396	16109.65
341.847	13574.19
342.299	16032.67
342.75	19590.97
343.201	17107.73
343.653	19644.01
344.104	24155.63
344.555	18964.43
345.006	29523.87
345.457	22597.93
345.908	17946.66
346.359	16889.99
346.81	13758.92
347.261	14479.76
347.712	14242.1
348.163	15311.08
348.613	15505.44
349.064	14464.92
349.515	12659.78
349.965	12978.48
350.416	15658
350.866	17167.93
351.317	19407.06
351.767	32179.55
352.217	40685.13
352.668	33781.1
353.118	30917.73
353.568	29804.26
354.018	23572.57
354.468	24897.79
354.918	17891.56
355.368	15652.6
355.818	22143.41
356.268	63548.2
356.718	265844.76
357.168	66142.87
357.617	33253.94
358.067	36933.51
358.517	34584.47
358.966	40636.57
359.416	45713.25
359.865	49445.5
360.315	58775.51
360.764	27464.49
361.213	15414.77
361.663	14573.99
362.112	17981.37
362.561	29005.94
363.01	21885.35
363.459	18444.74
363.908	19931.75
364.357	16917.41
364.806	28550.3
365.255	19650.09
365.703	18024.59
366.152	18047.21
366.601	14642.98
367.05	11918.28
367.498	10840.09
367.947	11332.85
368.395	11768.78
368.844	10433.38
369.292	12550.38
369.74	8678.31
370.189	13267.96
370.637	15506.76
371.085	13377.05
371.533	16277.28
371.981	15700.57
372.429	14996.45
372.877	15645.08
373.325	13120.33
373.773	13365.94
374.221	11901.73
374.669	14718.42
375.116	12742.09
375.564	12838.63
376.012	14361.27
376.459	11858.53
376.907	14140.35
377.354	17042.3
377.801	15881.21
378.249	18271.36
378.696	23319.81
379.143	28273.75
379.591	30174.04
380.038	51269.6
380.485	37218.6
380.932	40230.34
381.379	36860.76
381.826	27210.64
382.273	19413.11
382.72	16991.23
383.166	16591.05
383.613	10799.71
384.06	9754.08
384.506	11333.3
384.953	8317.04
385.4	8381.87
385.846	7364.32
386.292	7183.31
386.739	7050.69
387.185	6994.22
387.631	7013.55
388.078	6831.16
388.524	7319.44
388.97	6777.12
389.416	5672.34
389.862	6044.25
390.308	5730.46
390.754	5833.59
391.2	6350.21
391.645	6502.49
392.091	6234.56
392.537	6038.81
392.983	6059.98
393.428	5984.67
393.874	6433.11
394.319	6465.22
394.765	6147.02
395.21	6344.15
395.655	5942.01
396.101	5565.58
396.546	5035.28
396.991	5074.04
397.436	4719.32
397.881	4557.8
398.326	4310.93
398.771	4077.71
399.216	3562.94
399.661	3207.73
400.106	3194.91
400.551	3272.9
400.995	2937.81
401.44	2901.84
401.885	2727.85
402.329	2752.15
402.774	2635.7
403.218	2555.65
403.663	2458.92
404.107	2525.33
404.551	2540.77
404.995	2321.69
405.44	2236.66
405.884	2266.14
406.328	2185.38
406.772	2172.98
407.216	1975.33
407.66	1904.06
408.104	1801.82
408.547	1683.58
408.991	1627.22
409.435	1563.51
409.879	1541.11
410.322	1520.64
410.766	1468.79
411.209	1396.18
411.653	1339.91
412.096	1313.74
412.54	1314.4
412.983	1304.71
413.426	1308.14
413.869	1306.45
414.312	1280.6
414.756	1231.47
415.199	1170.99
415.642	1135.19
416.085	1137.01
416.527	1125.98
416.97	1140.72
417.413	1083.08
417.856	1070.78
418.298	1057.03
418.741	1045.2
419.184	1040.86
419.626	1081.88
420.069	1081.03
420.511	1085.95
420.953	1061.5
421.396	1051.53
421.838	1022.4
422.28	1042.41
422.722	1047.17
423.164	1060.16
423.606	1041.94
424.048	1038.03
424.49	987.02
424.932	980.07
425.374	963.55
425.816	978.97
426.258	997.85
426.699	1005.85
427.141	993.28
427.582	1002.48
428.024	994.77
428.465	987.5
428.907	963.51
429.348	951.1
429.789	951.28
430.231	932.79
430.672	945.31
431.113	921.02
431.554	909.12
431.995	883.41
432.436	856.54
432.877	839.1
433.318	828.68
433.759	825.27
434.2	823.73
434.64	815.44
435.081	817.25
435.522	776.27
435.962	749.09
436.403	734.92
436.843	744.97
437.284	727.13
437.724	709.31
438.164	708.27
438.604	693.39
439.045	670.14
439.485	644.62
439.925	631.98
440.365	616.07
440.805	607.58
441.245	599.93
441.685	579.95
442.125	576.72
442.564	579.78
443.004	569.18
443.444	569.15
443.883	571.61
444.323	567.44
444.762	567.64
445.202	576.66
445.641	591.57
446.081	589.22
446.52	595.56
446.959	592.9
447.398	581.87
447.837	576.53
448.276	567.65
448.716	573.3
449.154	581.23
449.593	571.29
450.032	569.8
450.471	558.65
450.91	560.36
451.349	560.77
451.787	557.23
452.226	565.99
452.664	565.79
453.103	567.17
453.541	567.98
453.98	567.54
454.418	570.66
454.856	563.88
455.295	563.3
455.733	568.66
456.171	570.39
456.609	571.8
457.047	572.84
457.485	582.25
457.923	583.66
458.361	575.68
458.798	578.17
459.236	577.82
459.674	581.01
460.111	583.64
460.549	577.69
460.987	575.52
461.424	575.16
461.862	571.61
462.299	563.26
462.736	563.67
463.173	564.43
463.611	558.83
464.048	558.42
464.485	562.32
464.922	557.27
465.359	554.06
465.796	551.8
466.233	547.04
466.67	542.36
467.106	541.94
467.543	535.27
467.98	529.09
468.416	514.41
468.853	509.05
469.29	493.81
469.726	487.91
470.162	475.13
470.599	465.84
471.035	461.6
471.471	450.56
471.907	446.29
472.344	443.91
472.78	446.62
473.216	451.63
473.652	445.85
474.088	444.11
474.523	443.25
474.959	448.18
475.395	443.92
475.831	441.82
476.266	443.84
476.702	443.38
477.138	439.44
477.573	436.72
478.008	435.42
478.444	438.11
478.879	443.77
479.314	446.28
479.75	446.2
480.185	447.9
480.62	451.35
481.055	453.59
481.49	456.88
481.925	464.04
482.36	474.06
482.795	487.02
483.229	500.67
483.664	512.18
484.099	514.08
484.534	522.98
484.968	529.43
485.403	531.66
485.837	531.72
486.271	531.65
486.706	532.45
487.14	526.45
487.574	519.21
488.009	515.12
488.443	510.87
488.877	518.06
489.311	519.88
489.745	527.17
490.179	534.22
490.613	547.25
491.046	553.08
491.48	559.38
491.914	562.38
492.348	569.06
492.781	575.29
493.215	578.58
493.648	581.09
494.082	588.69
494.515	592.37
494.948	601.79
495.382	608.63
495.815	615.57
496.248	623.75
496.681	638.67
497.114	652.55
497.547	666.41
497.98	683.21
498.413	695.11
498.846	709.23
499.279	721.81
499.711	729.64
500.144	736.67
500.577	752.91
501.009	768.56
501.442	783.43
501.874	790.67
502.306	798.06
502.739	811.75
503.171	831.08
503.603	839.52
504.036	854.27
504.468	866.97
504.9	883.69
505.332	895.91
505.764	906.4
506.196	919.49
506.627	940.07
507.059	960.33
507.491	974.47
507.923	977.67
508.354	999.85
508.786	1017.21
509.217	1042.2
509.649	1063.7
510.08	1090.72
510.512	1114.05
510.943	1135.61
511.374	1153.54
511.805	1178.96
512.237	1206.07
512.668	1247.59
513.099	1282.21
513.53	1317.47
513.961	1344.76
514.391	1385.05
514.822	1425.51
515.253	1469.43
515.684	1502.79
516.114	1540.3
516.545	1569.46
516.975	1602.06
517.406	1626.44
517.836	1632.52
518.267	1642.32
518.697	1665.45
519.127	1673.46
519.558	1684.99
519.988	1691.71
520.418	1706.07
520.848	1729.25
521.278	1741.5
521.708	1750
522.138	1764.98
522.567	1803.39
522.997	1835.28
523.427	1855.05
523.857	1876.56
524.286	1889.87
524.716	1910.87
525.145	1932.96
525.575	1946.26
526.004	1964.38
526.433	1972.64
526.863	1974.48
527.292	1963.56
527.721	1970.68
528.15	1978.51
528.579	1980
529.008	1992.63
529.437	2019.33
529.866	2036.61
530.295	2057.07
530.724	2071.57
531.152	2103.68
531.581	2121.55
532.01	2142.67
532.438	2153.19
532.867	2171.02
533.295	2192.16
533.723	2201.13
534.152	2198.18
534.58	2198.23
535.008	2180.21
535.436	2182.5
535.865	2191.57
536.293	2207.86
536.721	2226.88
537.149	2257.05
537.576	2261.25
538.004	2276.93
538.432	2284.67
538.86	2282.49
539.287	2290.79
539.715	2307.01
540.143	2310.53
540.57	2304.89
540.998	2300.65
541.425	2271.55
541.852	2246.31
542.28	2243.22
542.707	2221.86
543.134	2204.41
543.561	2199.7
543.988	2190.74
544.415	2189.21
544.842	2182.18
545.269	2174.88
545.696	2177.74
546.123	2193.03
546.549	2179.71
546.976	2164.58
547.403	2165.14
547.829	2168.43
548.256	2170.39
548.682	2167.08
549.108	2158.94
549.535	2158.03
549.961	2160.2
550.387	2143.5
550.813	2136.85
551.24	2145.8
551.666	2146.84
552.092	2135.99
552.518	2128.5
552.943	2121.3
553.369	2128.8
553.795	2135.21
554.221	2137.54
554.646	2133.49
555.072	2146.59
555.498	2153.45
555.923	2163.19
556.349	2180.9
556.774	2192.08
557.199	2193.76
557.625	2201.3
558.05	2194.87
558.475	2205.82
558.9	2203.87
559.325	2194.81
559.75	2187.46
560.175	2179.76
560.6	2172.22
561.025	2170.09
561.449	2171.1
561.874	2178.19
562.299	2183.29
562.723	2190.63
563.148	2179.12
563.572	2184.28
563.997	2195
564.421	2201.93
564.846	2202.37
565.27	2207.52
565.694	2203.86
566.118	2216.57
566.542	2224.9
566.966	2217.13
567.39	2211.81
567.814	2198.41
568.238	2197.36
568.662	2203.67
569.086	2206.19
569.509	2213.54
569.933	2193.54
570.357	2182.42
570.78	2156.59
571.204	2139.21
571.627	2124.67
572.05	2122.78
572.474	2121.16
572.897	2104.88
573.32	2094.49
573.743	2081.58
574.166	2059.87
574.589	2059.16
575.012	2050.89
575.435	2049.25
575.858	2039.24
576.281	2026.62
576.704	2006.45
577.126	1991.81
577.549	1978.83
577.972	1967.04
578.394	1954.61
578.817	1945.48
579.239	1923.38
579.661	1906.64
580.084	1887.08
580.506	1869.36
580.928	1863.98
581.35	1851.22
581.772	1846.4
582.194	1830.88
582.616	1814.78
583.038	1796.29
583.46	1782.77
583.882	1777.52
584.303	1781.98
584.725	1776.92
585.147	1779.71
585.568	1791.83
585.99	1805.05
586.411	1811.87
586.833	1828
587.254	1829.65
587.675	1847.24
588.096	1861.5
588.518	1855.33
588.939	1836.61
589.36	1834.29
589.781	1822.06
590.202	1788.25
590.623	1777.66
591.043	1775.07
591.464	1758.97
591.885	1754.16
592.305	1746.31
592.726	1730.7
593.147	1732.2
593.567	1725.49
593.987	1716.58
594.408	1709.69
594.828	1706.01
595.248	1697.56
595.669	1675.21
596.089	1667.14
596.509	1659.51
596.929	1643.04
597.349	1644.56
597.769	1633.23
598.189	1624.87
598.608	1624.88
599.028	1627.22
599.448	1627.6
599.867	1612.83
600.287	1607.68
600.706	1602.54
601.126	1590.65
601.545	1589.46
601.965	1586.84
602.384	1579.78
602.803	1583.65
603.222	1577.5
603.641	1569.56
604.061	1564.86
604.48	1560.48
604.898	1569.22
605.317	1573.75
605.736	1575.16
606.155	1571.52
606.574	1560.46
606.992	1566.04
607.411	1559.63
607.829	1550.56
608.248	1545.97
608.666	1542.35
609.085	1541.19
609.503	1531.2
609.921	1523.42
610.339	1525.22
610.758	1523.52
611.176	1516.95
611.594	1505.77
612.012	1501.07
612.43	1503.68
612.847	1509.32
613.265	1509.77
613.683	1512.73
614.101	1513.13
614.518	1508.3
614.936	1495.69
615.353	1476.83
615.771	1471.83
616.188	1471.1
616.606	1465.14
617.023	1456.29
617.44	1439.42
617.857	1430.4
618.274	1419.91
618.691	1411.08
619.108	1399.5
619.525	1391.33
619.942	1399.1
620.359	1401.28
620.776	1394.46
621.192	1389.17
621.609	1385.72
622.026	1391.81
622.442	1397.31
622.859	1400.18
623.275	1391.7
623.691	1397.4
624.108	1410.38
624.524	1424.61
624.94	1424.16
625.356	1434.53
625.772	1449.02
626.188	1461.7
626.604	1463.36
627.02	1457.78
627.436	1455.45
627.852	1462.91
628.268	1475.67
628.683	1464.36
629.099	1455.04
629.514	1448.71
629.93	1452.51
630.345	1456.32
630.761	1450.58
631.176	1453.57
631.591	1447.61
632.007	1439.31
632.422	1435.96
632.837	1421.58
633.252	1418.48
633.667	1405.47
634.082	1394.89
634.497	1378.98
634.911	1356.53
635.326	1351.17
635.741	1330.72
636.155	1316.49
636.57	1316.27
636.984	1314.19
637.399	1315.2
637.813	1311.37
638.228	1307.61
638.642	1308.74
639.056	1294.73
639.47	1291.15
639.884	1279.16
640.298	1269.53
640.712	1265.51
641.126	1248.78
641.54	1236.15
641.954	1225.83
642.368	1209.63
642.781	1198.88
643.195	1177.48
643.609	1174.48
644.022	1165.48
644.436	1157.41
644.849	1141.21
645.262	1125.27
645.676	1124.22
646.089	1116.11
646.502	1097.85
646.915	1089.84
647.328	1068.84
647.741	1064.49
648.154	1048.59
648.567	1041.79
648.98	1025.63
649.393	1023.29
649.805	1018.81
650.218	1007.98
650.631	989.77
651.043	982.01
651.456	974.35
651.868	973.78
652.28	988.13
652.693	999.5
653.105	1004.52
653.517	1011.67
653.929	1010.1
654.341	1012.27
654.753	997.96
655.165	1001.47
655.577	996.17
655.989	989.22
656.401	977.58
656.813	939.96
657.224	917.77
657.636	886.67
658.047	867.97
658.459	846.59
658.87	834.17
659.282	820.83
659.693	797.5
660.104	780.63
660.515	762.98
660.926	758.31
661.338	750.73
661.749	739.99
662.159	728.9
662.57	718.93
662.981	709.93
663.392	699.33
663.803	697.32
664.213	691.24
664.624	682.65
665.035	681.57
665.445	664.72
665.855	655.21
666.266	645.34
666.676	637.92
667.086	626.22
667.497	622.04
667.907	614.53
668.317	603.66
668.727	599.91
669.137	597.57
669.547	593.73
669.956	593.01
670.366	592.44
670.776	591.59
671.186	593.49
671.595	596.76
672.005	599.24
672.414	598.05
672.824	597.42
673.233	596.87
673.642	597.74
674.052	600.35
674.461	602.41
674.87	606.26
675.279	604.95
675.688	606.37
676.097	607
676.506	604.34
676.915	614.99
677.323	616.37
677.732	616.99
678.141	617.49
678.549	610.02
678.958	610.94
679.366	612.09
679.775	618.1
680.183	630.24
680.592	637.73
681	645.78
681.408	645.05
681.816	656.01
682.224	667.96
682.632	682.64
683.04	712.36
683.448	738.79
683.856	772.36
684.264	809.77
684.671	845.52
685.079	890.12
685.487	939.68
685.894	1004.11
686.302	1062.22
686.709	1112.18
687.116	1169.64
687.524	1221.61
687.931	1269.2
688.338	1310.34
688.745	1347.62
689.152	1389.2
689.559	1442.29
689.966	1494.63
690.373	1526.12
690.78	1576.3
691.187	1651.76
691.593	1710.41
692	1762.35
692.407	1835.49
692.813	1925.9
693.22	1999.26
693.626	2072.42
694.032	2132.4
694.439	2220.76
694.845	2291.29
695.251	2379.83
695.657	2456.18
696.063	2570.49
696.469	2657.5
696.875	2736.72
697.281	2781.72
697.687	2837.93
698.093	2886.49
698.498	2975.24
698.904	3043.88
699.31	3146.28
699.715	3218.92
700.12	3326.19
700.526	3349.44
700.931	3431.39
701.337	3492.98
701.742	3534.53
702.147	3631.92
702.552	3670.42
702.957	3741.9
703.362	3768.26
703.767	3803.26
704.172	3849.27
704.577	3797.28
704.981	3853.38
705.386	3875.14
705.791	3868.94
706.195	3955.63
706.6	3967.09
707.004	4059.01
707.408	4022.57
707.813	4054.51
708.217	4041.66
708.621	4048.07
709.025	4159.89
709.43	4161.95
709.834	4230.05
710.237	4309.31
710.641	4292.41
711.045	4319.41
711.449	4313.2
711.853	4347.15
712.256	4395.06
712.66	4438.66
713.064	4523.74
713.467	4572.22
713.87	4701.78
714.274	4755.12
714.677	4882.03
715.08	5069.79
715.484	5260.94
715.887	5493.7
716.29	5721.48
716.693	5962.24
717.096	6238.41
717.499	6387.87
717.901	6415.57
718.304	6445.51
718.707	6471.97
719.109	6353.33
719.512	6313.83
719.915	6157.87
720.317	6090.22
720.719	6140.51
721.122	6107.06
721.524	6048.52
721.926	6002.32
722.328	6115.13
722.731	6104.31
723.133	6137.56
723.535	6356.27
723.937	6378.23
724.338	6436.41
724.74	6484.02
725.142	6406.53
725.544	6400.84
725.945	6430.27
726.347	6423.82
726.748	6417.19
727.15	6430.14
727.551	6382.58
727.952	6351.96
728.354	6315.47
728.755	6318.41
729.156	6270.75
729.557	6259.26
729.958	6117.84
730.359	6052.79
730.76	6032.1
731.161	5959.61
731.562	5930.81
731.962	5934.64
732.363	5861.69
732.763	5791.96
733.164	5829.72
733.564	5751.81
733.965	5643.19
734.365	5605.95
734.766	5636.46
735.166	5588.76
735.566	5527.19
735.966	5495.6
736.366	5489.48
736.766	5417.32
737.166	5450.99
737.566	5405.49
737.966	5375.17
738.365	5418.35
738.765	5407.49
739.165	5322.4
739.564	5293.83
739.964	5346.86
740.363	5294.47
740.763	5290.78
741.162	5276.98
741.561	5240.06
741.96	5184.67
742.36	5205.91
742.759	5211.31
743.158	5255.67
743.557	5273.95
743.955	5318.34
744.354	5262.66
744.753	5326.35
745.152	5278.12
745.55	5338.61
745.949	5329.94
746.348	5334.86
746.746	5352.31
747.144	5308.43
747.543	5281.78
747.941	5334.38
748.339	5254.78
748.737	5248.24
749.136	5240.57
749.534	5313.46
749.932	5284.7
750.33	5311.53
750.727	5369.97
751.125	5343.48
751.523	5323.29
751.921	5372.75
752.318	5332.39
752.716	5398.47
753.113	5415.33
753.511	5442.86
753.908	5441
754.305	5419.62
754.703	5488.04
755.1	5558.83
755.497	5627
755.894	5844.04
756.291	6044.56
756.688	6418.63
757.085	6914.5
757.482	7605.55
757.878	8365.12
758.275	9055.76
758.672	9999.98
759.068	10772.09
759.465	11876.62
759.861	13299.03
760.258	14946.61
760.654	15798.7
761.05	15669.51
761.447	14944.24
761.843	13916.29
762.239	12846.54
762.635	12366.15
763.031	11905.46
763.427	11236.62
763.822	10527.81
764.218	9836.48
764.614	8933.56
765.01	8332.49
765.405	7947.34
765.801	7655.58
766.196	7279.39
766.592	7069.95
766.987	6714.11
767.382	6475.97
767.778	6374.45
768.173	6228.4
768.568	6143.72
768.963	6003.62
769.358	6022.27
769.753	5965.46
770.148	5869.74
770.542	5866.86
770.937	5830.87
771.332	5934.52
771.726	5956.23
772.121	5887.94
772.515	5948.48
772.91	5930.96
773.304	6013.79
773.699	5941.34
774.093	6002.05
774.487	6063.87
774.881	6111.2
775.275	6107.08
775.669	6057.34
776.063	6104.53
776.457	6143.85
776.851	6060.37
777.245	6051.74
777.638	6080.88
778.032	6210.24
778.425	6169.94
778.819	6217.94
779.212	6170.15
779.606	6123.48
779.999	6146.03
780.392	6125.83
780.786	6219.15
781.179	6240.15
781.572	6290.18
781.965	6308.89
782.358	6243.38
782.751	6306.15
783.143	6252.71
783.536	6336.2
783.929	6384.93
784.322	6511.74
784.714	6550.05
785.107	6543.84
785.499	6629.56
785.891	6602.1
786.284	6581.86
786.676	6741.46
787.068	6722.3
787.46	6783.28
787.852	6808.83
788.245	6904.76
788.636	6936.19
789.028	7009.63
789.42	7053.32
789.812	7059.78
790.204	7166.31
790.595	7278.38
790.987	7061.37
791.378	7086.62
791.77	7225.2
792.161	7374.27
792.553	7441.1
792.944	7322.24
793.335	7247.79
793.726	7330.09
794.117	7433.73
794.508	7589.8
794.899	7553.41
795.29	7707.33
795.681	7770.93
796.072	7620.29
796.463	7415.11
796.853	7421.65
797.244	7594.35
797.634	7629.64
798.025	7630.99
798.415	7641.57
798.806	7747.19
799.196	7840.19
799.586	7900.08
799.976	7859.35
800.366	8112.17
800.756	8383.19
801.146	8340.1
801.536	8372.63
801.926	8456.64
802.316	8478.54
802.706	8562.49
803.095	8423.54
803.485	8540.31
803.874	8590.87
804.264	8881.6
804.653	8849.86
805.043	9012.21
805.432	9133.88
805.821	9137.7
806.21	9160.07
806.599	9298.22
806.988	9346.1
807.377	9464.58
807.766	9611.95
808.155	9924.94
808.544	9632.81
808.933	9652.79
809.321	9631.14
809.71	9965.59
810.098	10138.9
810.487	10661.78
810.875	11200.38
811.264	11226.36
811.652	11550.36
812.04	11712.63
812.428	11894.29
812.816	12741.49
813.204	13210.17
813.592	13818.54
813.98	14185.34
814.368	14091.32
814.756	14618.36
815.144	14535.14
815.531	15058.17
815.919	14974.61
816.306	15316.77
816.694	14964.77
817.081	15033.8
817.469	15416.94
817.856	15418.79
818.243	15730.83
818.63	16168.26
819.017	15703.76
819.404	15770.94
819.791	16196.96
820.178	16890.65
820.565	17166.59
820.952	18221.23
821.339	17666.94
821.725	17880.56
822.112	17054.69
822.498	17007.64
822.885	17159.43
823.271	17046.25
823.657	17523.22
824.044	17535.35
824.43	17610.78
824.816	17578.64
825.202	17089.35
825.588	18227.94
825.974	18242.58
826.36	18817.8
826.746	18849.58
827.132	19245.19
827.517	19227.41
827.903	18337.57
828.289	18375.05
828.674	17507.82
829.06	17390.57
829.445	17835.02
829.83	18236.29
830.216	18776.86
830.601	19183.33
830.986	18731.99
831.371	18570.15
831.756	19191.66
832.141	18708.41
832.526	18709.92
832.911	19019.43
833.295	18892.07
833.68	19413.28
834.065	18718.14
834.449	17691.69
834.834	17611.5
835.218	17602.13
835.603	17989.1
835.987	17749.51
836.371	18681.11
836.755	18555.7
837.139	19004.51
837.524	19272.15
837.908	19072.24
838.291	19143.01
838.675	19219.64
839.059	19456.02
839.443	19448.95
839.827	19184.74
840.21	19716.78
840.594	19548.98
840.977	19779.08
841.361	19757.43
841.744	20170.26
842.127	19993.84
842.511	20255.62
842.894	20913.7
843.277	21317.37
843.66	21915.05
844.043	22011.76
844.426	21111.98
844.809	20762.6
845.191	20794.84
845.574	20273.57
845.957	19864.18
846.339	19736.88
846.722	19154.03
847.104	19223.85
847.487	19038.33
847.869	19049.21
848.252	19348.52
848.634	19720.34
849.016	20012.53
849.398	20154.01
849.78	21100.09
850.162	21106.64
850.544	21565.11
850.926	22261.41
851.307	22166.75
851.689	22470.16
852.071	22970.74
852.452	23333.43
852.834	23292.31
853.215	23733.52
853.597	23899.67
853.978	24224.62
854.359	24737.52
854.741	23639.89
855.122	23529.05
855.503	23211.48
855.884	23364.94
856.265	23305.12
856.646	23444.35
857.026	23021.28
857.407	22949.02
857.788	23119.54
858.169	23446.69
858.549	22494.05
858.93	23183.91
859.31	23243.58
859.69	23469.41
860.071	23010.02
860.451	22765.06
860.831	21932.19
861.211	23225.17
861.591	23837.85
861.971	23817.44
862.351	24020.83
862.731	24455
863.111	24753
863.491	25116.18
863.87	26098.55
864.25	26502.04
864.629	26065.32
865.009	26639.15
865.388	27579.8
865.768	29547.8
866.147	29428.99
866.526	27817.67
866.905	28152.17
867.284	29734.4
867.663	28232.77
868.042	27066.04
868.421	26977.29
868.8	27416.06
869.179	27681.53
869.558	26074.99
869.936	24030.19
870.315	24458.14
870.693	25051.29
871.072	27013.15
871.45	25727.46
871.828	26059.82
872.207	27390.42
872.585	26971.46
872.963	27713.91
873.341	26770.88
873.719	26455.92
874.097	26153.22
874.475	26648.39
874.853	27256.43
875.23	26122.18
875.608	27219.94
875.986	29442.21
876.363	28151.74
876.741	29016.76
877.118	28293.13
877.495	29680.76
877.873	30163.11
878.25	31723.65
878.627	30429.18
879.004	30851.17
879.381	30710.67
879.758	29907.81
880.135	27852.78
880.512	29453.46
880.889	28670.52
881.265	28360.02
881.642	28111.55
882.019	28607.09
882.395	28033.3
882.772	29144.5
883.148	27871.43
883.524	27742.57
883.901	27575.79
884.277	27988.53
884.653	27807.66
885.029	28607.99
885.405	31674.54
885.781	31423.44
886.157	30110.57
886.532	30467.09
886.908	30451.2
887.284	33864.59
887.659	34980.31
888.035	36069.5
888.411	36984.93
888.786	37480.07
889.161	38766.9
889.537	38060.48
889.912	39290.57
890.287	39247.74
890.662	40268.42
891.037	39532.02
891.412	36850.43
891.787	36464.81
892.162	35180.17
892.536	35994.05
892.911	34623.44
893.286	33898.31
893.66	32517.73
894.035	33334.23
894.409	36295.09
894.784	34818.88
895.158	35386.41
895.532	37484.27
895.906	38512.71
896.281	39417.13
896.655	38788.59
897.029	44316
897.402	46132.63
897.776	51354.24
898.15	51162.86
898.524	50612
898.898	51311.11
899.271	57454.47
899.645	49778.37
900.018	47811.98
900.392	49592.9
900.765	49985.88
901.138	46269.09
901.511	45583.45
901.884	41860.99
902.258	38631.9
902.631	39908.62
903.003	45903.06
903.376	41432.44
903.749	46448.39
904.122	49758.88
904.495	54805.96
904.867	55518.18
905.24	48232.73
905.612	44910.78
905.985	45939.34
906.357	48026.01
906.729	45868.9
907.102	39207.13
907.474	37704.22
907.846	37960.19
908.218	37448.97
908.59	33094.03
908.962	32000.98
909.334	34448.95
909.705	36189.29
910.077	35113.89
910.449	36571.36
910.82	37588.31
911.192	41352.85
911.563	42974.64
911.935	45988.11
912.306	46035.37
912.677	47530.05
913.048	47079.28
913.419	51099.86
913.79	51373.39
914.161	55081.02
914.532	52635.29
914.903	48370.43
915.274	45930.48
915.645	45258.13
916.015	39827.12
916.386	37984.67
916.756	40430.68
917.127	41708.35
917.497	37262.98
917.868	40560.26
918.238	38580.24
918.608	39708.56
918.978	40546.33
919.348	42951.45
919.718	44382.77
920.088	42737.83
920.458	44408.82
920.828	46758.5
921.198	44312.81
921.567	47353.84
921.937	36693.88
922.306	37054.61
922.676	39950.61
923.045	33314.07
923.415	31656.13
923.784	28822.05
924.153	29657.3
924.522	29621.61
924.891	27826.74
925.26	29816.93
925.629	29107.88
925.998	33444.34
926.367	32620.04
926.736	31058.71
927.104	36993.93
927.473	39771.64
927.842	48059.65
928.21	47600.13
928.578	50046.59
928.947	47313.94
929.315	47577.8
929.683	55810.72
930.051	56297.7
930.42	65433.81
930.788	55975.51
931.156	55579.32
931.523	52107.07
931.891	48135.41
932.259	46211.84
932.627	53553.15
932.994	75807.48
933.362	62703.53
933.729	54429.41
934.097	52078.36
934.464	44051.54
934.831	50790.58
935.199	50059.24
935.566	48527.23
935.933	49151.54
936.3	59553.9
936.667	46360.72
937.034	41834.79
937.401	41371.53
937.767	35745.21
938.134	31829.81
938.501	44906.32
938.867	47908.26
939.234	81054.44
939.6	69188.21
939.967	76339.92
940.333	51096.58
940.699	43487.71
941.065	34874.64
941.431	45721.53
941.798	43972.22
942.163	57680.47
942.529	36007.53
942.895	33110.26
943.261	21408.43
943.627	28065.41
943.992	24557.07
944.358	24583.06
944.723	24658.98
945.089	24048.09
945.454	22223.8
945.82	23744.91
946.185	22831.11
946.55	26461.51
946.915	23753.4
947.28	27866.91
947.645	24565.2
948.01	22681.18
948.375	23655.05
948.74	28369.4
949.104	33089.32
949.469	47784.37
949.834	84501.13
950.198	80092.88
950.562	48030.09
950.927	39999.17
951.291	48159.09
951.655	40998.82
952.02	38535.09
952.384	29158.52
952.748	25397.46
953.112	24773.26
953.476	21540.78
953.839	19898.24
954.203	19700.05
954.567	24638.73
954.931	38846.84
955.294	33200.34
955.658	33394.3
956.021	56744.84
956.385	96238.47
956.748	142061.88
957.111	220349.82
957.474	247420.61
957.837	279188.65
958.2	211398.92
958.563	76019.23
958.926	51375.76
959.289	78068.07
959.652	87273.34
960.015	65539.63
960.377	94137.25
960.74	107492.06
961.102	185694.42
961.465	199552.68
961.827	106799.36
962.189	205156.62
962.552	142281.98
962.914	114102.79
963.276	73956.43
963.638	61124.39
964	60520.49
964.362	40905.54
964.724	39514.41
965.085	28165.3
965.447	23093.62
965.809	26337.9
966.17	26340.09
966.532	28507.77
966.893	26150.19
967.255	23819.97
967.616	28124.1
967.977	22524.31
968.338	24592.97
968.699	20206.07
969.061	20198.01
969.421	20336.55
969.782	22825.91
970.143	19288.21
970.504	19969.2
970.865	22701.91
971.225	23199.64
971.586	22693.63
971.946	32328.76
972.307	28043.11
972.667	36697.57
973.027	37847.65
973.388	45879.68
973.748	31182.35
974.108	33984.06
974.468	46027.14
974.828	35510.98
975.188	27331.23
975.548	25098.52
975.907	21071.77
976.267	23631.29
976.627	19868.44
976.986	20590.34
977.346	19621.72
977.705	18874.01
978.064	17180.99
978.424	14280.38
978.783	14755.42
979.142	16846.81
979.501	16132.16
979.86	17039.6
980.219	16436.05
980.578	21190.89
980.937	23709.69
981.296	21161.54
981.654	21775.86
982.013	33915.02
982.371	44029.54
982.73	41135.65
983.088	46552.48
983.447	49694.99
983.805	71144.09
984.163	148656.34
984.521	164954.9
984.879	241898.51
985.237	-392947.51
985.595	378680.04
985.953	93957.88
986.311	54319.93
986.669	31563.15
987.026	27266.88
987.384	36662.5
987.741	37936.69
988.099	27103.83
988.456	21626.67
988.814	20270.36
989.171	17622.11
989.528	17401.84
989.885	18350.6
990.242	14523.18
990.599	18071.56
990.956	14770.59
991.313	10339.33
991.67	8484.33
992.027	8997.91
992.383	7985.8
992.74	7003.85
993.096	7343.55
993.453	7619.51
993.809	7919.24
994.165	10549.11
994.522	9658
994.878	10657.71
995.234	13383.95
995.59	13185.55
995.946	12485.43
996.302	14251.66
996.658	16459.05
997.013	18163.28
997.369	21524.14
997.725	27536.79
998.08	17845.76
998.436	27562.37
998.791	38036.28
999.147	37920
999.502	41404.54
999.857	30090.41
1000.212	49031.97
1000.567	69849.3
1000.922	40237.57
1001.277	25598.2
1001.632	18996.2
1001.987	24467.79
1002.342	17550.28
1002.696	14029.17
1003.051	11193.49
1003.406	13567.39
1003.76	13512.63
1004.114	13322.64
1004.469	11200.17
1004.823	9258.7
1005.177	9976.77
1005.531	7904.57
1005.885	7012.73
1006.239	7926.77
1006.593	9937.85
1006.947	13323.59
1007.301	9989.38
1007.655	10882.59
1008.008	7990.48
1008.362	8966.44
1008.715	12850.94
1009.069	11668.54
1009.422	17554.45
1009.776	35219.22
1010.129	23299.43
1010.482	19450.72
1010.835	16411.99
1011.188	34118.19
1011.541	32113.21
1011.894	-196103.65
1012.247	577322.77
1012.6	39149.82
1012.952	24718.83
1013.305	12773.8
1013.657	9205.15
1014.01	8735.38
1014.362	7212.47
1014.715	6405.25
1015.067	5575.87
1015.419	5475.66
1015.771	4848.92
1016.123	4323.24
1016.475	4459.22
1016.827	4760.81
1017.179	5107.21
1017.531	5160.16
1017.883	5268.41
1018.234	5085.06
1018.586	6408.39
1018.938	6815.38
1019.289	9361.32
1019.64	10727.71
1019.992	9986.06
1020.343	9112.74
1020.694	7186.77
1021.045	6353.08
1021.396	7223.73
1021.747	7745.12
1022.098	9341.82
1022.449	6808.77
1022.8	6307.35
1023.151	4402.6
1023.501	3897.76
1023.852	4233.8
1024.202	4403.78
1024.553	4814.49
1024.903	4701.46
1025.253	4020.92
1025.604	3628.01
1025.954	4475.62
1026.304	5460.39
1026.654	6367.44
1027.004	9308.25
1027.354	15138.33
1027.703	14232.03
1028.053	18696.79
1028.403	27385.55
1028.753	39781.43
1029.102	54191.76
1029.452	277829.19
1029.801	11986.04
1030.15	7727.04
1030.499	6541.8
897.758	2784.47
901.051	2749.67
904.343	2780.96
907.636	2781.73
910.928	2847.9
914.22	2755.28
917.511	2765.32
920.803	2831.3
924.094	2852.59
927.384	2827.97
930.675	2793.84
933.965	2744.89
937.255	2747.89
940.544	2719.89
943.834	2642.79
947.123	2588.82
950.411	2688.24
953.7	2659.26
956.988	2624.74
960.276	2567.77
963.563	2653.92
966.851	2647.12
970.138	2709.65
973.424	2703.58
976.711	2649.75
979.997	2803.67
983.283	2838.25
986.568	2737.58
989.853	2755.54
993.138	2784.87
996.423	2868.72
999.708	2800.67
1002.992	2875.23
1006.275	2688.28
1009.559	2744.28
1012.842	2865.24
1016.125	2790.24
1019.408	2770.01
1022.69	2862.19
1025.972	2883.46
1029.254	2855.13
1032.536	2782.13
1035.817	2813.1
1039.098	2748.31
1042.379	2916.29
1045.659	2906.23
1048.939	2834.79
1052.219	2862.44
1055.498	2873.28
1058.778	2858.33
1062.057	2840.52
1065.335	2863.38
1068.614	2884.28
1071.892	2866.95
1075.17	2947.91
1078.447	2934.44
1081.724	2925.51
1085.001	2966.27
1088.278	2937.46
1091.554	2953.78
1094.83	2946.38
1098.106	2975.51
1101.382	3024.87
1104.657	3024.5
1107.932	3019.72
1111.206	2981.63
1114.481	2938.77
1117.755	2939.72
1121.029	2917.39
1124.302	2970.71
1127.575	2917.11
1130.848	2906.75
1134.121	2865.16
1137.393	2809.07
1140.665	2882.84
1143.937	2857.25
1147.208	2816.76
1150.48	2857.13
1153.75	2842.7
1157.021	2877.51
1160.291	2846.53
1163.561	2894.38
1166.831	2883.81
1170.101	2918.9
1173.37	2894.76
1176.639	2833.38
1179.907	2896.58
1183.176	2899.06
1186.444	2907.73
1189.711	2937.74
1192.979	2949.86
1196.246	2904.83
1199.513	2920.92
1202.78	2922.5
1206.046	2929.89
1209.312	2957.12
1212.578	2986.21
1215.843	2932.9
1219.108	2910.78
1222.373	2933.57
1225.638	2893.95
1228.902	2873.87
1232.166	2840.8
1235.43	2822.54
1238.693	2842.17
1241.956	2843.63
1245.219	2881.91
1248.482	2873.17
1251.744	2868.44
1255.006	3025.81
1258.268	2980.19
1261.529	2920.63
1264.79	2931.45
1268.051	3040.53
1271.312	3058.79
1274.572	3021.24
1277.832	3009.03
1281.092	2998.87
1284.351	2968.96
1287.61	2945.89
1290.869	2853.65
1294.128	2827.67
1297.386	2926.33
1300.644	2912.28
1303.902	2922.67
1307.159	2775
1310.416	2832
1313.673	2857.11
1316.93	2841.93
1320.186	2890.87
1323.442	2936.86
1326.697	2925.93
1329.953	2915.36
1333.208	2940.76
1336.463	2919.9
1339.717	2854.84
1342.972	3001.16
1346.226	2976.57
1349.479	2902.22
1352.733	2870.01
1355.986	2897.5
1359.238	2869.26
1362.491	2871.89
1365.743	2878.4
1368.995	2870.94
1372.247	2884.09
1375.498	2911.38
1378.749	2920.79
1382	2877.13
1385.251	2935.62
1388.501	2895.39
1391.751	2876.42
1395	2850.63
1398.25	2882.78
1401.499	2886.9
1404.748	2808.36
1407.996	2801.59
1411.244	2784.28
1414.492	2763.25
1417.74	2740.87
1420.987	2752.52
1424.234	2813.12
1427.481	2791.67
1430.728	2851.57
1433.974	2827.59
1437.22	2846.3
1440.465	2847.24
1443.711	2804.63
1446.956	2844.26
1450.201	2831.96
1453.445	2877.6
1456.689	2854.07
1459.933	2866.69
1463.177	2901.35
1466.42	2874.86
1469.663	2851.41
1472.906	2842.35
1476.148	2932.7
1479.391	2876.76
1482.633	2849.53
1485.874	2859.53
1489.115	2843.57
1492.356	2851.71
1495.597	2828.57
1498.838	2830.31
1502.078	2793.23
1505.318	2739.01
1508.557	2785.61
1511.797	2750.68
1515.036	2840.46
1518.274	2824.55
1521.513	2800.86
1524.751	2823.83
1527.989	2835.4
1531.227	2846.49
1534.464	2842.27
1537.701	2865.42
1540.938	2886.48
1544.174	2838.62
1547.41	2836.38
1550.646	2881.87
1553.882	2919.47
1557.117	2975.32
1560.352	2990.76
1563.587	2947.47
1566.821	2904.74
1570.055	2941.07
1573.289	2912.07
1576.523	2992.73
1579.756	3000.04
1582.989	3017.78
1586.222	2974.09
1589.454	3014.54
1592.686	2981.92
1595.918	3009.33
1599.15	2995.48
1602.381	3077.28
1605.612	3027.67
1608.843	3127.87
1612.073	3036.77
1615.303	3017.5
1618.533	3011.61
1621.762	3014.7
1624.992	3004.21
1628.221	2988.68
1631.449	2974.54
1634.678	3036.31
1637.906	2986.33
1641.134	3027.83
1644.361	2981.43
1647.588	2966.72
1650.815	2983.45
1654.042	2961.53
1657.269	2994.75
1660.495	2939.51
1663.72	2946.2
1666.946	2908.72
1670.171	2843.61
1673.396	2819.81
1676.621	2809.32
1679.845	2833.97
1683.069	2857.63
1686.293	2903.23
1689.517	2872.14
1692.74	2794.64
1695.963	2828.04
1699.185	2863.02
1702.408	2835.65
1705.63	2879.33
1708.852	2891.47
1712.073	2862.87
1715.294	2843
1718.515	2907.95
1721.736	2852.5
1724.956	2845.13
1728.176	2872.7
1731.396	2896.24
1734.616	2881.86
1737.835	2908.12
1741.054	2888.97
1744.272	2882.47
1747.491	2911.87
1750.709	2972.06
1753.927	2867.66
1757.144	2914.5
1760.361	2960.53
1763.578	2953.93
1766.795	2892.58
1770.011	2902.83
1773.227	2945.01
1776.443	2982.4
1779.658	3026.76
1782.874	2969.71
1786.089	2944.02
1789.303	2948.56
1792.518	2958.08
1795.732	2942.12
1798.945	2952.94
1802.159	3003.46
1805.372	2895.71
1808.585	2883.22
1811.797	2883.66
1815.01	2937.03
1818.222	2935.09
1821.434	2889.07
1824.645	2953.86
1827.856	2931.49
1831.067	2971.66
1834.278	2928.39
1837.488	2911.79
1840.698	3071.48
1843.908	2986.96
1847.117	2949.42
1850.326	2823.7
1853.535	2937.72
1856.744	2984.3
1859.952	2890.66
1863.16	2893.79
1866.368	2914.9
1869.575	3022.47
1872.782	2900.56
1875.989	2836.45
1879.196	2929.79
1882.402	2920.32
1885.608	2964.24
1888.814	2858.38
1892.019	2747.06
1895.224	2800.48
1898.429	2781.04
1901.634	2757.3
1904.838	2731.18
1908.042	2787.03
1911.246	2792.26
1914.449	2716.34
1917.652	2714.53
1920.855	2696.52
1924.058	2751.34
1927.26	2787.28
1930.462	2819.27
1933.664	2847.1
1936.865	2781.62
1940.066	2789.83
1943.267	2733.31
1946.467	2751.73
1949.668	2780.11
1952.868	2851.94
1956.067	2824.46
1959.267	2752.4
1962.466	2781.2
1965.665	2765.27
1968.863	2760.73
1972.061	2775.5
1975.259	2776.51
1978.457	2854.73
1981.654	2812.47
1984.852	2813.2
1988.048	2739.6
1991.245	2747.53
1994.441	2834.21
1997.637	2821.9
2000.833	2800.64
2004.028	2842.46
2007.223	2896.51
2010.418	2872.72
2013.613	2835.12
2016.807	2799.56
2020.001	2811.76
2023.194	2856.93
2026.388	2830.76
2029.581	2774.33
2032.774	2822.81
2035.966	2828.28
2039.158	2757.04
2042.35	2785.27
2045.542	2712.28
2048.733	2818.55
2051.924	2847.66
2055.115	2876.42
2058.306	2817.24
2061.496	2879.11
2064.686	2949.2
2067.875	2862.72
2071.065	2878.95
2074.254	2906.96
2077.442	2860.02
2080.631	2953.1
2083.819	2836.68
2087.007	2815.66
2090.195	2782.81
2093.382	2821.71
2096.569	2799.07
2099.756	2748.59
2102.942	2770.43
2106.128	2778.25
2109.314	2767.81
2112.5	2725.3
2115.685	2699.6
2118.87	2710.31
2122.055	2779.17
2125.239	2742.18
2128.424	2713.79
2131.608	2825.5
2134.791	2808.66
2137.974	2872.17
2141.157	2854.76
2144.34	2802.43
2147.523	2821.84
2150.705	2834.57
2153.887	2816.04
2157.068	2759.07
2160.25	2763.2
2163.431	2807.46
2166.611	2746.37
2169.792	2762.77
2172.972	2650.34
2176.152	2734.29
2179.331	2771.9
2182.511	2752.13
2185.69	2782.37
2188.868	2777.77
2192.047	2836.5
2195.225	2824.25
2198.403	2768.4
2201.58	2763.62
2204.758	2759.17
2207.935	2844.32
2211.111	2726.06
2214.288	2709.3
2217.464	2751.3
2220.64	2724.72
2223.815	2779.94
2226.991	2698.17
2230.166	2720.23
2233.34	2750.47
2236.515	2779.13
2239.689	2854.05
2242.863	2796.63
2246.036	2856.34
2249.209	2857.6
2252.382	2894.65
2255.555	2879.1
2258.727	2812.87
2261.9	2855.75
2265.071	2847.29
2268.243	2847.2
2271.414	2773.08
2274.585	2732.42
2277.756	2803.79
2280.926	2757.26
2284.096	2802.82
2287.266	2699.64
2290.436	2762.59
2293.605	2789.68
2296.774	2821.89
2299.942	2845.17
2303.111	2865.13
2306.279	2914.85
2309.447	2899.85
2312.614	2874.93
2315.781	2894.98
2318.948	2861.51
2322.115	2905.16
2325.281	2798.48
2328.447	2825.1
2331.613	2796.59
2334.779	2766.05
2337.944	2769.03
2341.109	2766.69
2344.274	2748.96
2347.438	2711.6
2350.602	2736.83
2353.766	2753.95
2356.929	2738.96
2360.092	2782.03
2363.255	2730.57
2366.418	2657.8
2369.58	2781
2372.742	2545.42
2375.904	2565.94
2379.066	2537.18
2382.227	2578.49
2385.388	2539.47
2388.548	2460.67
2391.709	2519.14
2394.869	2497.5
2398.029	2602.76
2401.188	2618.52
2404.347	2547.41
2407.506	2708.13
2410.665	2735.56
2413.823	2743.72
2416.981	2693.51
2420.139	2732.6
2423.296	2783
2426.453	2757.44
2429.61	2779.81
2432.767	2708.74
2435.923	2748.02
2439.079	2702.01
2442.235	2754.73
2445.391	2675.07
2448.546	2705.64
2451.701	2757.7
2454.855	2722.81
2458.009	2780.48
2461.163	2783.74
2464.317	2743.41
2467.471	2778.59
2470.624	2822.3
2473.777	2800.79
2476.929	2809.88
2480.082	2837.07
2483.234	2797.61
2486.385	2753.46
2489.537	2744.25
2492.688	2703.39
2495.839	2719.08
2498.989	2730.7
2502.14	2712.75
2505.29	2692.02
2508.439	2716.23
2511.589	2636.93
2514.738	2651.93
2517.887	2682.75
2521.035	2749.06
2524.183	2737.26
2527.331	2714.3
2530.479	2686.08
2533.627	2696.54
