Data from N_3_DIV_IL_4N_Splice17_13-20-39-674.txt Node
Date: Sat Mar 14 13:20:39 EDT 2020
User: sa697716
Spectrometer: FLMS03696
Trigger mode: 0
Integration Time (sec): 3.180400E-1
Scans to average: 20
Electric dark correction enabled: true
Nonlinearity correction enabled: true
Boxcar width: 5
XAxis mode: Wavelengths
Number of Pixels in Spectrum: 2048
>>>>>Begin Spectral Data<<<<<
187.83	-339663.26
188.298	2388.91
188.766	1248.62
189.233	1161.25
189.701	1647.46
190.169	2266.27
190.636	923.84
191.104	710.31
191.571	111.57
192.039	-122
192.506	-89.94
192.974	447.41
193.441	-928.23
193.908	-246.33
194.375	-73.2
194.842	-33.71
195.31	43.04
195.777	194.36
196.244	400.96
196.711	442.27
197.177	525.23
197.644	739.5
198.111	1265.11
198.578	1817.8
199.045	1426.49
199.511	2382.98
199.978	2785.41
200.445	2343.61
200.911	2602.93
201.378	2881.19
201.844	2609.22
202.31	4482.06
202.777	4723.41
203.243	2597.69
203.709	2446.59
204.176	2907.49
204.642	2367.93
205.108	2230.5
205.574	1820.48
206.04	1625.74
206.506	1524.06
206.972	1451.2
207.438	1399.35
207.903	1573.05
208.369	1401.18
208.835	1396.37
209.301	1466.64
209.766	1500.1
210.232	1481.36
210.697	1842.21
211.163	2266.8
211.628	3385.25
212.094	2819.52
212.559	3457.12
213.024	2152.88
213.49	2621.24
213.955	2567.24
214.42	2472.3
214.885	2284.22
215.35	2171.85
215.815	2095.77
216.28	2218.4
216.745	1799.36
217.21	1940.61
217.675	1739.16
218.14	1921.85
218.604	2083.75
219.069	2330.72
219.534	2435.79
219.998	2780.13
220.463	3293.27
220.927	3947.9
221.392	3669.16
221.856	3673.35
222.32	4537.77
222.785	5568.08
223.249	6923.15
223.713	7688.23
224.177	7630.23
224.642	9695.48
225.106	11885.57
225.57	12957.4
226.034	9659.47
226.497	14707.51
226.961	13315.87
227.425	15522.59
227.889	17203.67
228.353	17240.56
228.816	35596.53
229.28	34076.68
229.744	28756.67
230.207	17496.13
230.671	17231.07
231.134	28418.7
231.597	32748.52
232.061	32714.65
232.524	31854.19
232.987	21962.16
233.45	19798.92
233.914	17746.18
234.377	18186.01
234.84	16621.97
235.303	19612.75
235.766	21855.79
236.229	22589.69
236.691	14215.52
237.154	15956.65
237.617	12022.6
238.08	12326.68
238.542	14436.19
239.005	10331.54
239.468	10278.01
239.93	9711.2
240.393	8835.39
240.855	7790.63
241.317	7988.63
241.78	9734.13
242.242	10087.38
242.704	10927.26
243.166	9510.87
243.629	8652.91
244.091	9986.63
244.553	10943.78
245.015	11794.3
245.477	15246.21
245.939	22320.85
246.4	23747.76
246.862	23099.46
247.324	21801.5
247.786	24433.01
248.247	32084.42
248.709	33105.01
249.17	24819.14
249.632	23486.85
250.093	27271.54
250.555	23589.18
251.016	14434.38
251.477	13695.08
251.939	14810.73
252.4	15543.46
252.861	18435.56
253.322	17158.22
253.783	20426.92
254.244	26487.15
254.705	20850.41
255.166	18547.88
255.627	18297
256.088	25802.92
256.549	27434.06
257.009	23614.16
257.47	28653.59
257.931	23371.92
258.391	17535.36
258.852	18076.02
259.312	18953.53
259.773	23411.52
260.233	19784.53
260.694	16698.13
261.154	18948.57
261.614	15215.56
262.074	13608.79
262.534	14152.49
262.994	13342.71
263.455	17746.08
263.915	14945.51
264.374	14072.99
264.834	15348.08
265.294	16978.92
265.754	17567.46
266.214	16596.29
266.673	15541.88
267.133	19570.79
267.593	19342.74
268.052	23637.98
268.512	20525.87
268.971	24792.68
269.431	27168.14
269.89	24306.27
270.349	36406.78
270.809	40568.12
271.268	36482.35
271.727	81643.07
272.186	52810.43
272.645	39675.27
273.104	28566.83
273.563	41349.16
274.022	32420.32
274.481	27579.05
274.94	21236.12
275.399	15779.8
275.857	18361.65
276.316	24802.41
276.775	22090.77
277.233	21784.36
277.692	20399.16
278.15	23089.57
278.609	23804.23
279.067	22025.44
279.525	20465.68
279.984	26399.98
280.442	31712.92
280.9	31318.48
281.358	20624.2
281.816	19217.72
282.274	18818.8
282.732	19419.45
283.19	19540.92
283.648	16843.62
284.106	17960.49
284.564	18255.64
285.021	16975.23
285.479	12659.64
285.937	11497.45
286.394	10111.14
286.852	10423.47
287.309	10970.76
287.767	10633.47
288.224	10132.22
288.682	11135.83
289.139	12252.11
289.596	11238.44
290.053	11697.3
290.511	14768.67
290.968	17940.88
291.425	24325.23
291.882	20292.02
292.339	17657.55
292.796	17477.35
293.252	16464.21
293.709	13099.99
294.166	11750.32
294.623	12969.11
295.079	12446.23
295.536	12541.38
295.992	11382.63
296.449	11273.81
296.905	11707.67
297.362	11248.8
297.818	11854.36
298.274	12321.69
298.731	12548.97
299.187	12411.23
299.643	13362.49
300.099	16171.44
300.555	17747.19
301.011	14854.45
301.467	14325.66
301.923	16718.1
302.379	16340.85
302.835	16058.73
303.291	16072.38
303.746	18311.12
304.202	23183.33
304.658	23269.48
305.113	15659.99
305.569	15348.19
306.024	16326.32
306.479	15532.36
306.935	13158.38
307.39	14375.44
307.845	13321.67
308.301	13441.77
308.756	13129.92
309.211	12658.52
309.666	12970.18
310.121	16150.18
310.576	16372.48
311.031	16305.9
311.486	18726.63
311.94	18706.19
312.395	25025.08
312.85	46966.87
313.305	230376.44
313.759	1196099.48
314.214	86835.33
314.668	68900.96
315.123	58069.58
315.577	20902.01
316.032	18618.26
316.486	23318.33
316.94	18436.56
317.394	12885.4
317.849	10030.02
318.303	9509.65
318.757	8982.1
319.211	9925.89
319.665	8727.27
320.119	8832.54
320.572	12680.45
321.026	11864.96
321.48	9889.89
321.934	10771.86
322.387	10784.33
322.841	11661.37
323.295	10544.12
323.748	12119.93
324.202	12336.58
324.655	14819.6
325.108	20773.34
325.562	14705.55
326.015	17460.52
326.468	13225.34
326.921	14828.44
327.374	13886.14
327.827	14527.74
328.28	16444.78
328.733	11032.81
329.186	9704.51
329.639	9233.9
330.092	7776.88
330.545	7400.89
330.997	7493.73
331.45	8196.31
331.903	9624.01
332.355	16531.42
332.808	16029.87
333.26	13221.79
333.713	14427.14
334.165	14552.26
334.617	19467.53
335.069	15681.52
335.522	28371.49
335.974	31437.43
336.426	28722.99
336.878	19891.49
337.33	10105.33
337.782	9875.22
338.234	12394.05
338.686	14776.82
339.137	17508.66
339.589	16508.01
340.041	13010.93
340.493	11178.85
340.944	11458.93
341.396	12371.83
341.847	10428.89
342.299	12347.18
342.75	15125.34
343.201	13189.73
343.653	15170.37
344.104	18627.32
344.555	14656.88
345.006	22710.61
345.457	17452.91
345.908	13873.2
346.359	13061.08
346.81	10638.69
347.261	11166.21
347.712	10972.4
348.163	11754.24
348.613	11946.73
349.064	11198.05
349.515	9806.97
349.965	10097.92
350.416	12137.6
350.866	13275.55
351.317	15006.93
351.767	24869.17
352.217	31441.91
352.668	26087.59
353.118	23966.5
353.568	23021.87
354.018	18171.61
354.468	19164.57
354.918	13754.41
355.368	12053.63
355.818	17083.8
356.268	49102.57
356.718	205491.52
357.168	51188.23
357.617	25661.46
358.067	28456.07
358.517	26711.64
358.966	31316.71
359.416	35278.01
359.865	38123.41
360.315	45388.1
360.764	21160.3
361.213	11857.97
361.663	11210.11
362.112	13828.64
362.561	22438.02
363.01	16971.31
363.459	14284.13
363.908	15451.96
364.357	13116.66
364.806	22088.63
365.255	15190.72
365.703	13958.61
366.152	14012.68
366.601	11379.29
367.05	9249.05
367.498	8371.74
367.947	8730.78
368.395	9056.64
368.844	8049.41
369.292	9663.58
369.74	6682.52
370.189	10198.3
370.637	11898.9
371.085	10236.49
371.533	12456.5
371.981	11972.87
372.429	11446.36
372.877	11917.72
373.325	9992.83
373.773	10128.92
374.221	9023.38
374.669	11205.25
375.116	9676.46
375.564	9753.11
376.012	10879.59
376.459	8973.44
376.907	10717.69
377.354	12944.96
377.801	12087.23
378.249	13891.4
378.696	17709.87
379.143	21450.18
379.591	22718.18
380.038	38585.84
380.485	27970.37
380.932	30268.45
381.379	27731.21
381.826	20408.13
382.273	14473.87
382.72	12604.22
383.166	12262.95
383.613	7961.39
384.06	7148.7
384.506	8297.42
384.953	6059.26
385.4	6071.72
385.846	5294.65
386.292	5117.63
386.739	4999.59
387.185	4928.93
387.631	4922.83
388.078	4780.64
388.524	5099.21
388.97	4700.8
389.416	3913.82
389.862	4160.31
390.308	3935.05
390.754	3992.31
391.2	4322.85
391.645	4407.04
392.091	4225.19
392.537	4078.58
392.983	4056.03
393.428	4003.82
393.874	4281.09
394.319	4297.19
394.765	4085.77
395.21	4193.99
395.655	3931.42
396.101	3686.23
396.546	3326.4
396.991	3343.89
397.436	3102.34
397.881	3000.97
398.326	2823.19
398.771	2674.54
399.216	2330.99
399.661	2093.88
400.106	2091.13
400.551	2145.52
400.995	1926.95
401.44	1911.98
401.885	1798.79
402.329	1818.51
402.774	1745.07
403.218	1704.67
403.663	1644.79
404.107	1698.27
404.551	1712.29
404.995	1571.52
405.44	1512.03
405.884	1535.55
406.328	1481.29
406.772	1477.71
407.216	1349.01
407.66	1308.16
408.104	1234.49
408.547	1157.38
408.991	1120.53
409.435	1080.28
409.879	1067.75
410.322	1057.06
410.766	1024.58
411.209	982.19
411.653	944.73
412.096	930.69
412.54	930.86
412.983	929.72
413.426	936.23
413.869	934.69
414.312	922.83
414.756	890.65
415.199	851.51
415.642	830.74
416.085	833.7
416.527	830.21
416.97	842.32
417.413	803.73
417.856	794.65
418.298	789.15
418.741	785.8
419.184	782.37
419.626	814.09
420.069	815.23
420.511	821.45
420.953	804.67
421.396	797.55
421.838	779.28
422.28	799.74
422.722	808.41
423.164	817.41
423.606	807.17
424.048	805.83
424.49	770.2
424.932	766.78
425.374	756.4
425.816	769.55
426.258	785.01
426.699	794.11
427.141	783.79
427.582	792.98
428.024	790.69
428.465	783.21
428.907	762.8
429.348	750.13
429.789	751.06
430.231	736.39
430.672	745.78
431.113	730.35
431.554	719.09
431.995	698.17
432.436	678.31
432.877	663.99
433.318	656.33
433.759	654.7
434.2	655.49
434.64	648.34
435.081	650.46
435.522	618.64
435.962	593.63
436.403	582.42
436.843	589.29
437.284	573.5
437.724	556.77
438.164	554.47
438.604	542.34
439.045	524.66
439.485	504.87
439.925	490.7
440.365	477.76
440.805	472.39
441.245	468.23
441.685	452.49
442.125	448.1
442.564	450.64
443.004	443
443.444	442.82
443.883	441.91
444.323	436.65
444.762	438.27
445.202	444.6
445.641	455.11
446.081	450.88
446.52	454.99
446.959	454.13
447.398	447.51
447.837	443.77
448.276	436.88
448.716	441.9
449.154	447.18
449.593	438.62
450.032	437.02
450.471	428.04
450.91	428.6
451.349	428.84
451.787	424.83
452.226	429.87
452.664	428.35
453.103	428.98
453.541	429.27
453.98	430.08
454.418	432.38
454.856	427.88
455.295	426.95
455.733	429.52
456.171	431.61
456.609	432.52
457.047	432.11
457.485	439.69
457.923	441.06
458.361	434.22
458.798	434.46
459.236	433.16
459.674	433.9
460.111	434.29
460.549	431.98
460.987	429.19
461.424	427.9
461.862	425.77
462.299	419.25
462.736	418.55
463.173	420.08
463.611	417.81
464.048	417.7
464.485	421.77
464.922	418.81
465.359	416.06
465.796	416.87
466.233	414.74
466.67	412.2
467.106	411.93
467.543	407.86
467.98	402.97
468.416	390.89
468.853	386.48
469.29	375.17
469.726	371.1
470.162	360.13
470.599	350.73
471.035	346.19
471.471	337.4
471.907	334.66
472.344	332.17
472.78	333.09
473.216	337.1
473.652	334.64
474.088	333.67
474.523	334.23
474.959	338.98
475.395	336.12
475.831	335.78
476.266	337.65
476.702	336.92
477.138	333.98
477.573	333.68
478.008	333.37
478.444	335.57
478.879	340.42
479.314	342.08
479.75	341.87
480.185	343.9
480.62	346.92
481.055	349.25
481.49	352
481.925	358.24
482.36	366.39
482.795	376.32
483.229	386.29
483.664	393.73
484.099	395.2
484.534	401.37
484.968	406.79
485.403	408.1
485.837	407.38
486.271	407.05
486.706	407.08
487.14	400.97
487.574	395.14
488.009	392.25
488.443	389.68
488.877	394.65
489.311	396.88
489.745	402.18
490.179	407.18
490.613	416.97
491.046	421.09
491.48	425.94
491.914	428.65
492.348	434.53
492.781	439.39
493.215	441.78
493.648	444.51
494.082	450.01
494.515	452
494.948	460.02
495.382	464.72
495.815	471.06
496.248	477.33
496.681	488.81
497.114	498.49
497.547	508.52
497.98	521.7
498.413	530.51
498.846	541.35
499.279	551.35
499.711	557.42
500.144	563.92
500.577	575.81
501.009	587.88
501.442	599.64
501.874	605.87
502.306	611.67
502.739	623.34
503.171	639.01
503.603	646.83
504.036	659.24
504.468	668.95
504.9	682.15
505.332	692.33
505.764	701.15
506.196	711.92
506.627	728.28
507.059	744.06
507.491	754.79
507.923	758.34
508.354	774.93
508.786	788.86
509.217	809.02
509.649	826.92
510.08	847.3
510.512	866.42
510.943	883.66
511.374	898.16
511.805	919.5
512.237	940.26
512.668	970.89
513.099	998.12
513.53	1025.18
513.961	1046.98
514.391	1077.97
514.822	1111.44
515.253	1146.3
515.684	1173.01
516.114	1203.55
516.545	1226.54
516.975	1253.5
517.406	1273.62
517.836	1280.24
518.267	1290.8
518.697	1311.35
519.127	1319.38
519.558	1328.3
519.988	1334.45
520.418	1346.55
520.848	1365.16
521.278	1375.37
521.708	1405.26
522.138	1420.05
522.567	1451.26
522.997	1476.27
523.427	1490.08
523.857	1507.68
524.286	1519.96
524.716	1535.51
525.145	1554.63
525.575	1565.96
526.004	1581.5
526.433	1565.89
526.863	1567.04
527.292	1559.68
527.721	1566.57
528.15	1575.02
528.579	1577.27
529.008	1588.42
529.437	1611.61
529.866	1625.2
530.295	1641.98
530.724	1655.01
531.152	1680.99
531.581	1695.85
532.01	1712.54
532.438	1721.54
532.867	1736.13
533.295	1753.22
533.723	1759.9
534.152	1756.54
534.58	1756.68
535.008	1741.84
535.436	1743.64
535.865	1751.38
536.293	1764.91
536.721	1779.62
537.149	1801.71
537.576	1803.81
538.004	1815.55
538.432	1822.68
538.86	1822.31
539.287	1827.77
539.715	1840.49
540.143	1842.65
540.57	1837.88
540.998	1834.2
541.425	1812.36
541.852	1793.47
542.28	1791.62
542.707	1775.92
543.134	1761.99
543.561	1758.27
543.988	1752.37
544.415	1753.44
544.842	1748.55
545.269	1744
545.696	1747.19
546.123	1760.39
546.549	1750.24
546.976	1739.4
547.403	1740.31
547.829	1743.28
548.256	1746.9
548.682	1745.17
549.108	1737.46
549.535	1738.14
549.961	1740.58
550.387	1727.48
550.813	1722.4
551.24	1728.51
551.666	1729.9
552.092	1721.41
552.518	1715.35
552.943	1710.23
553.369	1716.77
553.795	1723.68
554.221	1724.53
554.646	1722.23
555.072	1733.02
555.498	1738.62
555.923	1748.83
556.349	1764.42
556.774	1772.95
557.199	1774.88
557.625	1780.52
558.05	1776.49
558.475	1786.91
558.9	1786.62
559.325	1779.4
559.75	1773.27
560.175	1767.46
560.6	1762.48
561.025	1760.05
561.449	1762.14
561.874	1768.85
562.299	1773.26
562.723	1779.59
563.148	1769.5
563.572	1773.32
563.997	1783.56
564.421	1789.74
564.846	1790.81
565.27	1793.58
565.694	1791.05
566.118	1801.78
566.542	1808.2
566.966	1800.75
567.39	1796.49
567.814	1786.11
568.238	1785.55
568.662	1788.93
569.086	1791.66
569.509	1798.31
569.933	1784.37
570.357	1777.2
570.78	1756.58
571.204	1743.94
571.627	1733.73
572.05	1731.15
572.474	1730.53
572.897	1718.36
573.32	1711.37
573.743	1700.42
574.166	1682.24
574.589	1681.48
575.012	1674.71
575.435	1672.45
575.858	1664.6
576.281	1654.63
576.704	1639.09
577.126	1626.78
577.549	1617.46
577.972	1607.87
578.394	1599.78
578.817	1593.52
579.239	1575.44
579.661	1562.43
580.084	1548.8
580.506	1535.28
580.928	1532.13
581.35	1522.81
581.772	1519.75
582.194	1505.88
582.616	1493.37
583.038	1478.47
583.46	1467.26
583.882	1464.96
584.303	1468.45
584.725	1464.07
585.147	1468.13
585.568	1478.44
585.99	1489.85
586.411	1496.59
586.833	1511.89
587.254	1515.06
587.675	1528.72
588.096	1541.63
588.518	1535.61
588.939	1518.7
589.36	1516.1
589.781	1502.78
590.202	1474.31
590.623	1464.89
591.043	1461.46
591.464	1448.4
591.885	1442.94
592.305	1436.76
592.726	1423.74
593.147	1424.84
593.567	1420.02
593.987	1412.77
594.408	1407.86
594.828	1405.62
595.248	1400.25
595.669	1383.23
596.089	1376.48
596.509	1369.84
596.929	1357.12
597.349	1356.7
597.769	1347.33
598.189	1341.52
598.608	1342.87
599.028	1345
599.448	1345.71
599.867	1332.75
600.287	1328.22
600.706	1323.27
601.126	1314.59
601.545	1312.6
601.965	1311.88
602.384	1305.96
602.803	1307.88
603.222	1302.95
603.641	1296.33
604.061	1291.4
604.48	1287.81
604.898	1294.04
605.317	1298.52
605.736	1299.58
606.155	1297
606.574	1287.93
606.992	1292.95
607.411	1289.17
607.829	1280.67
608.248	1277.57
608.666	1275.76
609.085	1275.49
609.503	1268.13
609.921	1262
610.339	1263.1
610.758	1261.7
611.176	1256.44
611.594	1246.81
612.012	1242.31
612.43	1244.97
612.847	1248.9
613.265	1248.7
613.683	1251.17
614.101	1250.88
614.518	1246.48
614.936	1236.66
615.353	1222.64
615.771	1219.35
616.188	1219.25
616.606	1214.94
617.023	1206.98
617.44	1193.64
617.857	1186.63
618.274	1177.94
618.691	1171.65
619.108	1162.48
619.525	1155.95
619.942	1161.05
620.359	1162.9
620.776	1156.93
621.192	1152.76
621.609	1151.38
622.026	1157.05
622.442	1160.95
622.859	1163.88
623.275	1156.49
623.691	1159.96
624.108	1170.68
624.524	1182.33
624.94	1180.65
625.356	1189.89
625.772	1201.22
626.188	1211.48
626.604	1211.01
627.02	1207.45
627.436	1205.28
627.852	1211.98
628.268	1223.27
628.683	1213.84
629.099	1207.23
629.514	1202.38
629.93	1204.92
630.345	1208.33
630.761	1202.46
631.176	1206.73
631.591	1201.46
632.007	1194.15
632.422	1190.15
632.837	1178.33
633.252	1175.7
633.667	1164.46
634.082	1154.89
634.497	1142.46
634.911	1124.09
635.326	1119.47
635.741	1102.35
636.155	1090.5
636.57	1090.74
636.984	1089.34
637.399	1089.76
637.813	1086.26
638.228	1082.65
638.642	1083.88
639.056	1071.41
639.47	1068.3
639.884	1058.44
640.298	1048.67
640.712	1044.11
641.126	1029.34
641.54	1017.39
641.954	1007.91
642.368	994.09
642.781	983.81
643.195	964.13
643.609	961.23
644.022	951.21
644.436	943.56
644.849	929.68
645.262	916.15
645.676	912.78
646.089	906.35
646.502	891.51
646.915	883.38
647.328	866.2
647.741	863.31
648.154	849.52
648.567	846.32
648.98	834.16
649.393	832.47
649.805	828.98
650.218	822.33
650.631	807.2
651.043	800.55
651.456	794.76
651.868	794.47
652.28	807.4
652.693	816.77
653.105	818.8
653.517	823.87
653.929	822.88
654.341	824.7
654.753	812.36
655.165	816.16
655.577	812.45
655.989	806.67
656.401	798
656.813	766.91
657.224	749.1
657.636	724.35
658.047	709.05
658.459	691.29
658.87	680.64
659.282	668.08
659.693	649.15
660.104	633.57
660.515	619.79
660.926	612.98
661.338	606.07
661.749	596.44
662.159	587.56
662.57	578.5
662.981	570.64
663.392	561.09
663.803	559.95
664.213	554.02
664.624	547.12
665.035	545.33
665.445	532.93
665.855	525.27
666.266	517.84
666.676	510.52
667.086	501.53
667.497	497.99
667.907	491.73
668.317	482.84
668.727	480.44
669.137	478.49
669.547	474.55
669.956	473.91
670.366	472.84
670.776	471.55
671.186	472.75
671.595	473.87
672.005	474.35
672.414	472.27
672.824	471.59
673.233	470.57
673.642	471.34
674.052	473.04
674.461	475.5
674.87	477.59
675.279	476.63
675.688	477.14
676.097	478.71
676.506	477.61
676.915	488.12
677.323	490.06
677.732	490.56
678.141	490.31
678.549	484.17
678.958	483.8
679.366	485.44
679.775	490.53
680.183	501.59
680.592	506.79
681	512.85
681.408	512.11
681.816	521.63
682.224	531.19
682.632	544.13
683.04	570.96
683.448	594.41
683.856	622.29
684.264	654.15
684.671	684.45
685.079	721.83
685.487	763.86
685.894	819.24
686.302	867.8
686.709	913.28
687.116	964.45
687.524	1007.73
687.931	1047.86
688.338	1084.99
688.745	1117.38
689.152	1153.33
689.559	1200.99
689.966	1248.85
690.373	1276.39
690.78	1320.2
691.187	1379.32
691.593	1428.17
692	1471.21
692.407	1531.15
692.813	1603.89
693.22	1661.17
693.626	1720.42
694.032	1767.72
694.439	1837.42
694.845	1892.39
695.251	1961.41
695.657	2022.69
696.063	2114.83
696.469	2181.54
696.875	2244.59
697.281	2277.94
697.687	2322.53
698.093	2358.02
698.498	2425.44
698.904	2476.56
699.31	2556.73
699.715	2612.12
700.12	2694.62
700.526	2708.06
700.931	2770.87
701.337	2815.93
701.742	2844.16
702.147	2917.93
702.552	2944.59
702.957	2998.44
703.362	3014.89
703.767	3036.85
704.172	3070.91
704.577	3026.03
704.981	3064.46
705.386	3074.97
705.791	3065.03
706.195	3129.44
706.6	3134.23
707.004	3202.77
707.408	3172.27
707.813	3193.26
708.217	3180.02
708.621	3177.4
709.025	3261.13
709.43	3259.33
709.834	3311.19
710.237	3370.59
710.641	3355.17
711.045	3373.64
711.449	3364.75
711.853	3387.97
712.256	3423.39
712.66	3455.05
713.064	3520.15
713.467	3554.2
713.87	3653.92
714.274	3691.73
714.677	3787.29
715.08	3927.11
715.484	4072.11
715.887	4252.44
716.29	4424.01
716.693	4603.55
717.096	4811.42
717.499	4924.03
717.901	4944.22
718.304	4963.79
718.707	4978.82
719.109	4885.34
719.512	4855.36
719.915	4734.37
720.317	4678.71
720.719	4713.88
721.122	4685.11
721.524	4636.99
721.926	4600.18
722.328	4684.22
722.731	4670.97
723.133	4696.47
723.535	4860.92
723.937	4877.66
724.338	4919.15
724.74	4951.63
725.142	4913.06
725.544	4907.56
725.945	4933.1
726.347	4926.16
726.748	4916.73
727.15	4927.71
727.551	4891.17
727.952	4863.53
728.354	4832.5
728.755	4828.98
729.156	4790.24
729.557	4759.42
729.958	4653.86
730.359	4603.73
730.76	4584.85
731.161	4531.47
731.562	4507.06
731.962	4511.13
732.363	4458.15
732.763	4404.59
733.164	4436.55
733.564	4378.11
733.965	4293.31
734.365	4263.29
734.766	4283.78
735.166	4250.11
735.566	4204.12
735.966	4181.23
736.366	4175.02
736.766	4119.98
737.166	4145.99
737.566	4110.09
737.966	4087.62
738.365	4122.22
738.765	4117.19
739.165	4053.96
739.564	4030.03
739.964	4069.42
740.363	4028.72
740.763	4025.69
741.162	4014.61
741.561	3988.67
741.96	3949.89
742.36	3966.3
742.759	3969.87
743.158	4002.31
743.557	4014.52
743.955	4049.98
744.354	4009.18
744.753	4058.87
745.152	4022
745.55	4069.76
745.949	4061.39
746.348	4060
746.746	4073.91
747.144	4039.65
747.543	4020.06
747.941	4061.43
748.339	4000.45
748.737	3991.64
749.136	3985.36
749.534	4042.82
749.932	4019.1
750.33	4038.39
750.727	4084.9
751.125	4064.95
751.523	4049.9
751.921	4086.63
752.318	4055.54
752.716	4106.31
753.113	4118.45
753.511	4138.86
753.908	4135.89
754.305	4121.12
754.703	4173.33
755.1	4227.28
755.497	4275.99
755.894	4438.44
756.291	4590.39
756.688	4868.67
757.085	5235.24
757.482	5757.55
757.878	6326.36
758.275	6842.53
758.672	7545.86
759.068	8120.82
759.465	8939.54
759.861	10001.01
760.258	11233.48
760.654	11861.2
761.05	11765.32
761.447	11237.85
761.843	10463.67
762.239	9669.18
762.635	9309.84
763.031	8966.19
763.427	8468.76
763.822	7948.24
764.218	7432.78
764.614	6756.69
765.01	6305.51
765.405	6016.3
765.801	5795.65
766.196	5515.57
766.592	5353.56
766.987	5088.28
767.382	4910.21
767.778	4834.85
768.173	4721.87
768.568	4657.56
768.963	4550.59
769.358	4568.15
769.753	4529.45
770.148	4459.24
770.542	4458.58
770.937	4435.02
771.332	4513.99
771.726	4529.5
772.121	4477.74
772.515	4526.25
772.91	4515.53
773.304	4576.79
773.699	4521.89
774.093	4568.9
774.487	4613.83
774.881	4649.59
775.275	4645.08
775.669	4606.64
776.063	4643.42
776.457	4674.34
776.851	4609.49
777.245	4602.66
777.638	4631.74
778.032	4730.26
778.425	4696.6
778.819	4731.94
779.212	4695.79
779.606	4659.9
779.999	4674.71
780.392	4660.15
780.786	4728.56
781.179	4745.56
781.572	4784.19
781.965	4795.35
782.358	4742.67
782.751	4790.54
783.143	4750.53
783.536	4812.57
783.929	4850.1
784.322	4949.21
784.714	4975.85
785.107	4969.89
785.499	5030.34
785.891	5006.62
786.284	4987.35
786.676	5107.58
787.068	5090.73
787.46	5134.89
787.852	5150.3
788.245	5222.47
788.636	5246.12
789.028	5306.48
789.42	5344.62
789.812	5353.68
790.204	5439.39
790.595	5526.86
790.987	5362.78
791.378	5383.7
791.77	5491.37
792.161	5607.93
792.553	5659.06
792.944	5567.68
793.335	5507.39
793.726	5568.44
794.117	5648.25
794.508	5764.6
794.899	5739.91
795.29	5857.26
795.681	5907.88
796.072	5789.95
796.463	5641.28
796.853	5648.43
797.244	5783.2
797.634	5814.68
798.025	5813.02
798.415	5822.67
798.806	5901.5
799.196	5976.47
799.586	6021.57
799.976	5987.9
800.366	6186.43
800.756	6381.67
801.146	6348.53
801.536	6374.41
801.926	6436.14
802.316	6462.97
802.706	6522.71
803.095	6419.85
803.485	6506.55
803.874	6545.9
804.264	6770.47
804.653	6749
805.043	6883.03
805.432	6978.11
805.821	6979.13
806.21	7004.43
806.599	7102.44
806.988	7148.27
807.377	7238.91
807.766	7349.97
808.155	7590.34
808.544	7363.73
808.933	7373.51
809.321	7350.95
809.71	7602.69
810.098	7739.95
810.487	8127.76
810.875	8538.75
811.264	8548.62
811.652	8794.67
812.04	8916.2
812.428	9054.38
812.816	9703.24
813.204	10059.93
813.592	10528.12
813.98	10809.84
814.368	10725.99
814.756	11136.76
815.144	11069.3
815.531	11471.17
815.919	11407.53
816.306	11668.22
816.694	11408.82
817.081	11453.78
817.469	11750.27
817.856	11745.64
818.243	11985.84
818.63	12316.24
819.017	11958.13
819.404	12007.67
819.791	12332.03
820.178	12851.4
820.565	13065.15
820.952	13855.93
821.339	13440.13
821.725	13600.31
822.112	12973.6
822.498	12931.35
822.885	13041.31
823.271	12955.09
823.657	13315
824.044	13315.8
824.43	13381.43
824.816	13358.46
825.202	12985
825.588	13850.58
825.974	13866.41
826.36	14297.99
826.746	14332.07
827.132	14641.01
827.517	14622.17
827.903	13955.17
828.289	13997.99
828.674	13336.18
829.06	13247.06
829.445	13588.53
829.83	13893.31
830.216	14297.26
830.601	14621.08
830.986	14270.38
831.371	14153.1
831.756	14629.38
832.141	14263.64
832.526	14248.51
832.911	14484.89
833.295	14383.78
833.68	14783.65
834.065	14254.59
834.449	13474.72
834.834	13402.03
835.218	13397.77
835.603	13686.85
835.987	13505.7
836.371	14208.68
836.755	14117.5
837.139	14456.17
837.524	14653.71
837.908	14497.47
838.291	14546.43
838.675	14599.95
839.059	14767.89
839.443	14755.44
839.827	14563.44
840.21	14967.21
840.594	14838.8
840.977	15021.65
841.361	15004.62
841.744	15331.91
842.127	15199.78
842.511	15404.41
842.894	15899.94
843.277	16223.46
843.66	16675.59
844.043	16735.01
844.426	16051.13
844.809	15778.67
845.191	15792.25
845.574	15395.13
845.957	15077.3
846.339	14977.35
846.722	14523.68
847.104	14575.65
847.487	14428.19
847.869	14435.63
848.252	14666.92
848.634	14941.36
849.016	15164.13
849.398	15271.6
849.78	15986.06
850.162	15986.87
850.544	16340.69
850.926	16873.71
851.307	16805.72
851.689	17043.34
852.071	17420.22
852.452	17696.61
852.834	17682.93
853.215	18017.43
853.597	18139.9
853.978	18392.64
854.359	18771.65
854.741	17939.51
855.122	17855.65
855.503	17617.71
855.884	17733.69
856.265	17688.64
856.646	17779.42
857.026	17445.5
857.407	17398.04
857.788	17531.17
858.169	17768.4
858.549	17059.06
858.93	17573.76
859.31	17621.43
859.69	17801.61
860.071	17457.29
860.451	17269.55
860.831	16649.72
861.211	17625.87
861.591	18085.84
861.971	18070.59
862.351	18239.9
862.731	18561.86
863.111	18792.27
863.491	19066.75
863.87	19803.55
864.25	20101.97
864.629	19781.56
865.009	20226.88
865.388	20957.83
865.768	22462.07
866.147	22384.24
866.526	21152.87
866.905	21412.4
867.284	22604.39
867.663	21467.51
868.042	20566.93
868.421	20496.41
868.8	20827.72
869.179	21027.41
869.558	19791.16
869.936	18244.54
870.315	18562.93
870.693	19015.86
871.072	20504.68
871.45	19539.23
871.828	19787.72
872.207	20819.07
872.585	20506.61
872.963	21068.94
873.341	20340.09
873.719	20108.61
874.097	19868.77
874.475	20243.07
874.853	20692.84
875.23	19842.63
875.608	20674.3
875.986	22368.85
876.363	21384
876.741	22040.25
877.118	21478.2
877.495	22536.93
877.873	22905.01
878.25	24085.92
878.627	23098.31
879.004	23428.96
879.381	23299.93
879.758	22682.41
880.135	21106.59
880.512	22311.34
880.889	21713.74
881.265	21497.9
881.642	21310.56
882.019	21663.84
882.395	21238.01
882.772	22094.43
883.148	21128.87
883.524	21036.47
883.901	20915.51
884.277	21231.16
884.653	21091.23
885.029	21695.32
885.405	24026.44
885.781	23836.42
886.157	22851.56
886.532	23119.95
886.908	23093.06
887.284	25676.41
887.659	26523.68
888.035	27350.03
888.411	28059.45
888.786	28435.67
889.161	29410.16
889.537	28849.05
889.912	29774.68
890.287	29740.74
890.662	30488.51
891.037	29918.62
891.412	27891.41
891.787	27594.64
892.162	26617.4
892.536	27221.62
892.911	26197.28
893.286	25634.93
893.66	24593.54
894.035	25208.61
894.409	27451.08
894.784	26338.37
895.158	26783.39
895.532	28369.97
895.906	29152.79
896.281	29828.93
896.655	29348.47
897.029	33526.37
897.402	34911.21
897.776	38855.79
898.15	38727.72
898.524	38312.76
898.898	38834.21
899.271	43469.56
899.645	37643.88
900.018	36142.31
900.392	37485.19
900.765	37792.83
901.138	34964.33
901.511	34433.37
901.884	31626.34
902.258	29158.2
902.631	30119.4
903.003	34669.45
903.376	31288.73
903.749	35102.56
904.122	37582.51
904.495	41372.05
904.867	41889.18
905.24	36380.04
905.612	33881.06
905.985	34651.48
906.357	36236.24
906.729	34599.76
907.102	29555.49
907.474	28407.85
907.846	28577.77
908.218	28223.44
908.59	24965.81
908.962	24153.57
909.334	26016.83
909.705	27342.34
910.077	26549.63
910.449	27649.84
910.82	28424.7
911.192	31293.71
911.563	32542.77
911.935	34838.91
912.306	34884.28
912.677	36033.77
913.048	35696.46
913.419	38736.62
913.79	38965.59
914.161	41814.12
914.532	39974.21
914.903	36746.45
915.274	34894.16
915.645	34388.29
916.015	30263.07
916.386	28842.18
916.756	30678.04
917.127	31633.49
917.497	28264.32
917.868	30750.39
918.238	29198.77
918.608	30051.65
918.978	30685.29
919.348	32489.84
919.718	33587.67
920.088	32356.38
920.458	33626.93
920.828	35390.86
921.198	33555.25
921.567	35836.94
921.937	27769.87
922.306	28046.73
922.676	30242.43
923.045	25227.42
923.415	23975.83
923.784	21824.78
924.153	22436
924.522	22415.58
924.891	21065.44
925.26	22572.23
925.629	22033.62
925.998	25322.37
926.367	24705.88
926.736	23540.11
927.104	28032.33
927.473	30127.01
927.842	36375.89
928.21	36029.84
928.578	37878.02
928.947	35830.9
929.315	36042.71
929.683	42281.29
930.051	42611.5
930.42	49496.25
930.788	42266.24
931.156	41923.85
931.523	39310.55
931.891	36348.53
932.259	34889.63
932.627	40423.36
932.994	57185.95
933.362	47263.11
933.729	41047.93
934.097	39268.78
934.464	33209.74
934.831	38308.64
935.199	37760.01
935.566	36595.95
935.933	37004.18
936.3	44830.72
936.667	34881.97
937.034	31494.68
937.401	31139.61
937.767	26855.9
938.134	23924.86
938.501	33727.82
938.867	35950.48
939.234	60742.97
939.6	51835.8
939.967	57214.93
940.333	38302.47
940.699	32612.31
941.065	26146.74
941.431	34276.02
941.798	33110.06
942.163	43456.96
942.529	27196.37
942.895	25055.1
943.261	16238.2
943.627	21321.92
943.992	18691.47
944.358	18749.52
944.723	18843.89
945.089	18354.99
945.454	16981.77
945.82	18114.1
946.185	17423.63
946.55	20185.01
946.915	18101.89
947.28	21216.53
947.645	18696.68
948.01	17263.86
948.375	17979.05
948.74	21539.36
949.104	25100.09
949.469	36194.36
949.834	63924.93
950.198	60583.83
950.562	36358.69
950.927	30311.28
951.291	36482.87
951.655	31059.9
952.02	29133.75
952.384	22057.63
952.748	19202.62
953.112	18770.49
953.476	16322.88
953.839	15102.32
954.203	14953.2
954.567	18698.55
954.931	29414.09
955.294	25176.2
955.658	25302.56
956.021	43011.95
956.385	72922.11
956.748	107588.97
957.111	166859.63
957.474	187354.97
957.837	210954.37
958.2	159502.18
958.563	57335.13
958.926	38811.97
959.289	58840.87
959.652	65731.21
960.015	49380.61
960.377	70902.96
960.74	80981.19
961.102	139666.85
961.465	149954.99
961.827	80489.27
962.189	154554.73
962.552	107139.47
962.914	85806.5
963.276	55742.4
963.638	46066.64
964	45587.01
964.362	30791.23
964.724	29735.89
965.085	21217.59
965.447	17394.69
965.809	19793.49
966.17	19813.89
966.532	21436.91
966.893	19677.83
967.255	17900.17
967.616	21128.12
967.977	16926.76
968.338	18518.31
968.699	15221.4
969.061	15214.15
969.421	15332.89
969.782	17213.68
970.143	14556.58
970.504	15095.41
970.865	17175.81
971.225	17573.22
971.586	17210.11
971.946	24523.99
972.307	21255.76
972.667	27774.01
973.027	28626.93
973.388	34624.61
973.748	23534.38
974.108	25607.15
974.468	34556.3
974.828	26649.71
975.188	20463.84
975.548	18776.95
975.907	15753.83
976.267	17671.95
976.627	14874.27
976.986	15393.06
977.346	14709.73
977.705	14152.65
978.064	12885.64
978.424	10731.42
978.783	11067.53
979.142	12648.34
979.501	12121.1
979.86	12822.19
980.219	12353.98
980.578	15912.51
980.937	17838.04
981.296	15881.9
981.654	16332.42
982.013	25418.81
982.371	32986.32
982.73	30880.24
983.088	34950.6
983.447	37249.02
983.805	53252.92
984.163	111341.24
984.521	123586.04
984.879	181082.56
985.237	-294447.54
985.595	284213.4
985.953	70550.14
986.311	40721.69
986.669	23590.83
987.026	20360.35
987.384	27386.4
987.741	28295.67
988.099	20238.77
988.456	16133.91
988.814	15112.33
989.171	13151.11
989.528	12946.99
989.885	13687.8
990.242	10861.84
990.599	13566.83
990.956	11080.38
991.313	7753.85
991.67	6368.18
992.027	6742.47
992.383	5990.57
992.74	5255.56
993.096	5521.87
993.453	5731.98
993.809	5933.44
994.165	7899.06
994.522	7240.07
994.878	7998.35
995.234	10033.05
995.59	9892.33
995.946	9360.68
996.302	10681.66
996.658	12333.71
997.013	13585.09
997.369	16109.92
997.725	20657.16
998.08	13375.85
998.436	20564.22
998.791	28337.16
999.147	28301.16
999.502	30916.72
999.857	22433.4
1000.212	36581.51
1000.567	52111.59
1000.922	29992.32
1001.277	19099.42
1001.632	14157.28
1001.987	18246.26
1002.342	13108.42
1002.696	10500.33
1003.051	8393.26
1003.406	10148.8
1003.76	10098.15
1004.114	9968.07
1004.469	8412.92
1004.823	6981.81
1005.177	7511.91
1005.531	5950.45
1005.885	5283.29
1006.239	5947.97
1006.593	7455.12
1006.947	9952.7
1007.301	7464.04
1007.655	8146.73
1008.008	5981.67
1008.362	6718.02
1008.715	9573.84
1009.069	8693.12
1009.422	13169.7
1009.776	26362.02
1010.129	17576.92
1010.482	14653.44
1010.835	12418.45
1011.188	25910.8
1011.541	24383.93
1011.894	-148321.81
1012.247	435860.04
1012.6	29694.96
1012.952	18747.46
1013.305	9607.86
1013.657	6939.67
1014.01	6530.71
1014.362	5417.39
1014.715	4822.45
1015.067	4183.08
1015.419	4087.88
1015.771	3641.03
1016.123	3234.98
1016.475	3316.29
1016.827	3524.89
1017.179	3784.54
1017.531	3805.99
1017.883	3920.31
1018.234	3777.75
1018.586	4770.27
1018.938	5086.53
1019.289	7030.72
1019.64	8045.72
1019.992	7471.58
1020.343	6829.88
1020.694	5410.43
1021.045	4782.39
1021.396	5474.23
1021.747	5853.59
1022.098	7011.14
1022.449	5068.28
1022.8	4695.39
1023.151	3282.23
1023.501	2906.06
1023.852	3169.6
1024.202	3299.54
1024.553	3633.24
1024.903	3585.26
1025.253	3058.98
1025.604	2745.23
1025.954	3420.61
1026.304	4176.99
1026.654	4868.93
1027.004	7099.3
1027.354	11529.17
1027.703	10943.66
1028.053	14385.59
1028.403	21127.28
1028.753	30236.19
1029.102	41271.04
1029.452	213026.17
1029.801	9177.79
1030.15	5935.42
1030.499	5032.47
897.758	2859.38
901.051	2827.58
904.343	2861.58
907.636	2858.43
910.928	2924
914.22	2831.87
917.511	2841.28
920.803	2911.07
924.094	2939.36
927.384	2907.07
930.675	2871.63
933.965	2821.38
937.255	2821.83
940.544	2791.58
943.834	2706.19
947.123	2655.82
950.411	2752.85
953.7	2721.22
956.988	2682.49
960.276	2623.05
963.563	2717.03
966.851	2705.85
970.138	2771.56
973.424	2761.58
976.711	2708.89
979.997	2874.6
983.283	2902.56
986.568	2796.68
989.853	2825.36
993.138	2852.78
996.423	2933.05
999.708	2862.06
1002.992	2944.04
1006.275	2746.67
1009.559	2809.43
1012.842	2932.12
1016.125	2860.26
1019.408	2837.89
1022.69	2936.88
1025.972	2951.76
1029.254	2922.92
1032.536	2845.49
1035.817	2879.55
1039.098	2806.55
1042.379	2992.14
1045.659	2976.2
1048.939	2900.14
1052.219	2924.62
1055.498	2943.89
1058.778	2923.4
1062.057	2909.3
1065.335	2930.24
1068.614	2952.67
1071.892	2927.32
1075.17	3013.24
1078.447	2995.64
1081.724	2983.6
1085.001	3025.85
1088.278	2996
1091.554	3012.77
1094.83	3010.27
1098.106	3037.26
1101.382	3086.97
1104.657	3086.97
1107.932	3084.11
1111.206	3043.9
1114.481	2999.7
1117.755	3006.09
1121.029	2980.47
1124.302	3031.84
1127.575	2975.83
1130.848	2961.62
1134.121	2914.52
1137.393	2859.96
1140.665	2932.74
1143.937	2902.73
1147.208	2870.15
1150.48	2902.82
1153.75	2886.97
1157.021	2928.55
1160.291	2897.14
1163.561	2941.77
1166.831	2937.37
1170.101	2974.2
1173.37	2953.27
1176.639	2889.14
1179.907	2957.52
1183.176	2952.26
1186.444	2963.66
1189.711	2993.96
1192.979	3000.77
1196.246	2959.88
1199.513	2974.48
1202.78	2973.9
1206.046	2980.63
1209.312	3005.76
1212.578	3038.51
1215.843	2977.58
1219.108	2957.3
1222.373	2979.19
1225.638	2938.22
1228.902	2921.57
1232.166	2888.15
1235.43	2870.65
1238.693	2889.19
1241.956	2890.73
1245.219	2927.05
1248.482	2920.37
1251.744	2918.56
1255.006	3082.13
1258.268	3040.19
1261.529	2977.7
1264.79	2986.03
1268.051	3093.11
1271.312	3112.78
1274.572	3072.69
1277.832	3061.34
1281.092	3055.23
1284.351	3019.59
1287.61	2995.16
1290.869	2899.94
1294.128	2866.79
1297.386	2975.51
1300.644	2962.65
1303.902	2974.72
1307.159	2827.71
1310.416	2884.11
1313.673	2907.64
1316.93	2887.59
1320.186	2940.95
1323.442	2988.76
1326.697	2971.74
1329.953	2972.71
1333.208	2987.47
1336.463	2971.67
1339.717	2900.47
1342.972	3049.19
1346.226	3030.2
1349.479	2955.81
1352.733	2922.55
1355.986	2953.11
1359.238	2927.42
1362.491	2929.07
1365.743	2934.47
1368.995	2930.61
1372.247	2943.93
1375.498	2971.11
1378.749	2975.37
1382	2931.17
1385.251	2990.77
1388.501	2958.52
1391.751	2935.98
1395	2909.69
1398.25	2944.08
1401.499	2945.2
1404.748	2865.62
1407.996	2860.44
1411.244	2843.61
1414.492	2821.68
1417.74	2800.46
1420.987	2815.44
1424.234	2867.12
1427.481	2854.45
1430.728	2915.21
1433.974	2889.06
1437.22	2909.89
1440.465	2912.53
1443.711	2861.31
1446.956	2902.81
1450.201	2897.12
1453.445	2938.62
1456.689	2911.71
1459.933	2928.29
1463.177	2957.19
1466.42	2927.38
1469.663	2907.78
1472.906	2890.65
1476.148	2987.94
1479.391	2926.03
1482.633	2902.25
1485.874	2907.79
1489.115	2888.84
1492.356	2897.25
1495.597	2873.07
1498.838	2878.33
1502.078	2841.02
1505.318	2780.63
1508.557	2828.61
1511.797	2786.36
1515.036	2885.45
1518.274	2872.05
1521.513	2852.44
1524.751	2877.03
1527.989	2889.26
1531.227	2898.12
1534.464	2883.08
1537.701	2914.75
1540.938	2936.29
1544.174	2891.75
1547.41	2891.25
1550.646	2932.57
1553.882	2961.97
1557.117	3016.23
1560.352	3033.64
1563.587	2988.71
1566.821	2944.04
1570.055	2988.03
1573.289	2954.4
1576.523	3038.12
1579.756	3040.8
1582.989	3060.52
1586.222	3018.64
1589.454	3060.63
1592.686	3026.53
1595.918	3050.9
1599.15	3034.89
1602.381	3125.53
1605.612	3068.46
1608.843	3167.75
1612.073	3073.7
1615.303	3054.24
1618.533	3043.49
1621.762	3049.31
1624.992	3044.61
1628.221	3021.75
1631.449	3006.78
1634.678	3077.95
1637.906	3024.2
1641.134	3069.75
1644.361	3019.38
1647.588	3010.7
1650.815	3025.55
1654.042	3009.48
1657.269	3041.55
1660.495	2984.91
1663.72	2987.49
1666.946	2952.91
1670.171	2880.53
1673.396	2857.56
1676.621	2849.36
1679.845	2880.1
1683.069	2903.58
1686.293	2955.72
1689.517	2917.1
1692.74	2833.88
1695.963	2868.33
1699.185	2904.12
1702.408	2877.42
1705.63	2924.23
1708.852	2934.25
1712.073	2904.63
1715.294	2879.96
1718.515	2950.14
1721.736	2889.32
1724.956	2891.1
1728.176	2921.2
1731.396	2940.13
1734.616	2934.87
1737.835	2958.91
1741.054	2939.75
1744.272	2933.1
1747.491	2959.93
1750.709	3027.55
1753.927	2912.39
1757.144	2967.69
1760.361	3003.1
1763.578	3003.15
1766.795	2939.32
1770.011	2948.91
1773.227	2996.27
1776.443	3030.73
1779.658	3078.56
1782.874	3021.56
1786.089	2992.2
1789.303	2997.44
1792.518	3005.21
1795.732	2992.55
1798.945	2998.66
1802.159	3053.47
1805.372	2939.8
1808.585	2919.35
1811.797	2920.77
1815.01	2978.8
1818.222	2980.47
1821.434	2925.34
1824.645	2996.99
1827.856	2970.9
1831.067	3008.76
1834.278	2975.67
1837.488	2959.87
1840.698	3121.34
1843.908	3038.8
1847.117	3001.63
1850.326	2865.98
1853.535	2986.87
1856.744	3041.16
1859.952	2948.12
1863.16	2945.24
1866.368	2974.02
1869.575	3073.56
1872.782	2959.33
1875.989	2898.1
1879.196	3000.09
1882.402	2994.36
1885.608	3038.91
1888.814	2924.47
1892.019	2814.25
1895.224	2864.42
1898.429	2853.45
1901.634	2825.84
1904.838	2807.85
1908.042	2852.84
1911.246	2861.26
1914.449	2776.27
1917.652	2780.98
1920.855	2763.29
1924.058	2825.15
1927.26	2860.56
1930.462	2891.14
1933.664	2911.74
1936.865	2846.83
1940.066	2846.76
1943.267	2795.91
1946.467	2815.61
1949.668	2846.05
1952.868	2911.54
1956.067	2884.23
1959.267	2808.78
1962.466	2837.68
1965.665	2825.84
1968.863	2823.31
1972.061	2842.15
1975.259	2844.98
1978.457	2928.3
1981.654	2882.59
1984.852	2882.8
1988.048	2805.74
1991.245	2816.27
1994.441	2901.61
1997.637	2899.66
2000.833	2880.81
2004.028	2922.66
2007.223	2974
2010.418	2946.75
2013.613	2912.57
2016.807	2871.76
2020.001	2884.62
2023.194	2937.14
2026.388	2910.06
2029.581	2856.01
2032.774	2898.56
2035.966	2899.46
2039.158	2822.45
2042.35	2854.57
2045.542	2783.72
2048.733	2891.7
2051.924	2928.87
2055.115	2960.92
2058.306	2894.77
2061.496	2954.08
2064.686	3027.57
2067.875	2940.19
2071.065	2961.23
2074.254	2994.17
2077.442	2944.47
2080.631	3036.62
2083.819	2909.97
2087.007	2885.56
2090.195	2851.81
2093.382	2896.72
2096.569	2875.82
2099.756	2823.31
2102.942	2841.3
2106.128	2843.25
2109.314	2835.45
2112.5	2787.83
2115.685	2770.87
2118.87	2781.31
2122.055	2848.44
2125.239	2810.55
2128.424	2773.82
2131.608	2899.04
2134.791	2875.19
2137.974	2945.02
2141.157	2926.67
2144.34	2870.57
2147.523	2895.39
2150.705	2900.7
2153.887	2884.87
2157.068	2825.13
2160.25	2834.32
2163.431	2880.36
2166.611	2814.88
2169.792	2830.82
2172.972	2713.99
2176.152	2806.57
2179.331	2845.13
2182.511	2819.02
2185.69	2849.96
2188.868	2841.01
2192.047	2908.27
2195.225	2887.17
2198.403	2838.24
2201.58	2832.27
2204.758	2832.92
2207.935	2919.61
2211.111	2796.61
2214.288	2778.06
2217.464	2821.73
2220.64	2800.91
2223.815	2859.35
2226.991	2774
2230.166	2795.4
2233.34	2819.57
2236.515	2848.68
2239.689	2929.43
2242.863	2871.82
2246.036	2927.64
2249.209	2938.94
2252.382	2979.37
2255.555	2954.79
2258.727	2885.56
2261.9	2931.28
2265.071	2923.12
2268.243	2930.96
2271.414	2853.24
2274.585	2802.33
2277.756	2872.71
2280.926	2830.09
2284.096	2873.68
2287.266	2769.8
2290.436	2835.29
2293.605	2866.91
2296.774	2892.15
2299.942	2925.01
2303.111	2940.05
2306.279	2988.14
2309.447	2972.4
2312.614	2950.92
2315.781	2970.43
2318.948	2934.26
2322.115	2976.53
2325.281	2874.89
2328.447	2902.19
2331.613	2881.47
2334.779	2841.27
2337.944	2848.39
2341.109	2844.99
2344.274	2828.86
2347.438	2787.86
2350.602	2813.33
2353.766	2834.68
2356.929	2817.09
2360.092	2864.67
2363.255	2807.04
2366.418	2723.44
2369.58	2859.34
2372.742	2606.91
2375.904	2630.5
2379.066	2601.03
2382.227	2647.86
2385.388	2610.7
2388.548	2522.81
2391.709	2586.55
2394.869	2559.98
2398.029	2679.05
2401.188	2701.34
2404.347	2622.28
2407.506	2790.89
2410.665	2814.88
2413.823	2829.64
2416.981	2774
2420.139	2812.37
2423.296	2867.03
2426.453	2840.08
2429.61	2863.37
2432.767	2780.42
2435.923	2818.72
2439.079	2761.95
2442.235	2821.4
2445.391	2742.63
2448.546	2763.33
2451.701	2822.09
2454.855	2780.11
2458.009	2845.9
2461.163	2855.45
2464.317	2809.12
2467.471	2845.86
2470.624	2889.32
2473.777	2877.64
2476.929	2889.02
2480.082	2912.34
2483.234	2875.48
2486.385	2818.85
2489.537	2810.43
2492.688	2759.51
2495.839	2771.49
2498.989	2783.02
2502.14	2766.93
2505.29	2741.23
2508.439	2769.44
2511.589	2682.85
2514.738	2704.06
2517.887	2736.69
2521.035	2812.63
2524.183	2806.81
2527.331	2783.58
2530.479	2752.44
2533.627	2764.07
