Data from N_3_DIV_OH_2N_Splice17_12-50-05-418.txt Node
Date: Sat Mar 14 12:50:05 EDT 2020
User: sa697716
Spectrometer: FLMS03696
Trigger mode: 0
Integration Time (sec): 3.180400E-1
Scans to average: 20
Electric dark correction enabled: true
Nonlinearity correction enabled: true
Boxcar width: 5
XAxis mode: Wavelengths
Number of Pixels in Spectrum: 2048
>>>>>Begin Spectral Data<<<<<
187.83	-442002.06
188.298	3257.35
188.766	1700.55
189.233	1522.13
189.701	2169.78
190.169	2886.85
190.636	1083.98
191.104	843.67
191.571	121.88
192.039	-89.65
192.506	-66.11
192.974	401.19
193.441	-469.13
193.908	-51.24
194.375	-9.93
194.842	104.46
195.31	200.79
195.777	172.02
196.244	368.27
196.711	436.66
197.177	598
197.644	866.68
198.111	1482.77
198.578	2111.92
199.045	1726.66
199.511	2825.5
199.978	3291.48
200.445	2771.41
200.911	3106.95
201.378	3505.44
201.844	3173.14
202.31	5374.29
202.777	5646.12
203.243	3157.48
203.709	3003.18
204.176	3571.83
204.642	2975.32
205.108	2804.04
205.574	2294.3
206.04	2108.57
206.506	1971.08
206.972	1888.29
207.438	1835.7
207.903	2082.24
208.369	1829.24
208.835	1817.43
209.301	1902.56
209.766	1929.48
210.232	1900.86
210.697	2358.7
211.163	2877.07
211.628	4329.49
212.094	3607.15
212.559	4440.59
213.024	2757.5
213.49	3359.81
213.955	3280.71
214.42	3209.22
214.885	2986.19
215.35	2856.19
215.815	2769.64
216.28	2934.68
216.745	2395.95
217.21	2587.89
217.675	2367.76
218.14	2671.64
218.604	2978.13
219.069	3392.16
219.534	3539.29
219.998	4110
220.463	4975.83
220.927	6087.99
221.392	5740.45
221.856	5832.59
222.32	7363.12
222.785	9079.53
223.249	11417.22
223.713	12740.69
224.177	12780.16
224.642	16423.81
225.106	20239.31
225.57	22154.17
226.034	16476.92
226.497	25078.14
226.961	22607.31
227.425	26300.09
227.889	29200.28
228.353	29156.38
228.816	60184.98
229.28	57465.12
229.744	48392.57
230.207	29406.22
230.671	28901.83
231.134	47758.22
231.597	54973.77
232.061	54904
232.524	53470.75
232.987	36783.94
233.45	33066.45
233.914	29624.83
234.377	30339.58
234.84	27763.53
235.303	32657.99
235.766	36392.14
236.229	37595.88
236.691	23692.54
237.154	26614.48
237.617	20007.39
238.08	20496.88
238.542	24015.57
239.005	17155.96
239.468	17022.63
239.93	16045.65
240.393	14600.43
240.855	12826.99
241.317	13129.59
241.78	15953.06
242.242	16473.36
242.704	17784.9
243.166	15460.57
243.629	14029.98
244.091	16179.11
244.553	17710.45
245.015	19015.74
245.477	24561.01
245.939	35946
246.4	38116.79
246.862	36987.87
247.324	34873.32
247.786	39035.03
248.247	51181.95
248.709	52804.57
249.17	39476.44
249.632	37160.67
250.093	43065.88
250.555	37179.37
251.016	22630.61
251.477	21451.12
251.939	23162.79
252.4	24271.08
252.861	28801.51
253.322	26751.69
253.783	31791.79
254.244	41144.83
254.705	32400.14
255.166	28774.83
255.627	28285.14
256.088	39925.34
256.549	42370.76
257.009	36425.74
257.47	44148.64
257.931	35928.92
258.391	26890.41
258.852	27672.65
259.312	28944.87
259.773	35750.46
260.233	30167.54
260.694	25416.44
261.154	28756
261.614	23056.74
262.074	20591.98
262.534	21374.16
262.994	20126.55
263.455	26783.43
263.915	22542.84
264.374	21224
264.834	23117.44
265.294	25595.02
265.754	26478.43
266.214	25033.22
266.673	23416.37
267.133	29528.28
267.593	29287.04
268.052	35779.87
268.512	31077.67
268.971	37478.22
269.431	41040.32
269.89	36735.22
270.349	55046.7
270.809	61374.84
271.268	55205.41
271.727	123740.88
272.186	80194.78
272.645	60085.34
273.104	43332.13
273.563	62703.39
274.022	49243.97
274.481	41932.49
274.94	32285.48
275.399	23984.76
275.857	27873.58
276.316	37663.92
276.775	33502.49
277.233	32983.14
277.692	30854.53
278.15	34919.05
278.609	35952.17
279.067	33274.82
279.525	30890.5
279.984	39911.37
280.442	47903.8
280.9	47321.7
281.358	31112.81
281.816	29015.48
282.274	28371.52
282.732	29309.76
283.19	29386.74
283.648	25360.08
284.106	27023.54
284.564	27462.42
285.021	25466.32
285.479	18970.86
285.937	17221.93
286.394	15120.26
286.852	15550.37
287.309	16332.51
287.767	15782.44
288.224	15027.15
288.682	16454.98
289.139	18028.57
289.596	16497.54
290.053	17133.87
290.511	21612.49
290.968	26211.41
291.425	35530.24
291.882	29550.51
292.339	25684.44
292.796	25433.02
293.252	23915.88
293.709	19004.8
294.166	17033.7
294.623	18809.99
295.079	18035.36
295.536	18111.4
295.992	16419.13
296.449	16223.13
296.905	16837.33
297.362	16137.68
297.818	16978.44
298.274	17620.66
298.731	17931.27
299.187	17728.26
299.643	19000.16
300.099	22959.7
300.555	25192.14
301.011	21047.65
301.467	20306.16
301.923	23756.07
302.379	23217.51
302.835	22804.45
303.291	22855.94
303.746	26027.15
304.202	32885.37
304.658	33023.46
305.113	22218.81
305.569	21762.71
306.024	23195.3
306.479	22079.96
306.935	18615.7
307.39	20333.87
307.845	18780.42
308.301	18907.89
308.756	18409.67
309.211	17746.03
309.666	18213.37
310.121	22601.02
310.576	22930.55
311.031	22763.71
311.486	25979.95
311.94	25962.79
312.395	34653.2
312.85	65050
313.305	319057.6
313.759	1653125.46
314.214	119637.87
314.668	94754.32
315.123	79739.88
315.577	28634.89
316.032	25490.37
316.486	32024.49
316.94	25295.91
317.394	17626.52
317.849	13697.03
318.303	12970.16
318.757	12235.78
319.211	13539.87
319.665	11837.24
320.119	11970.62
320.572	17144.6
321.026	15990.08
321.48	13296.85
321.934	14495.87
322.387	14528.13
322.841	15688.83
323.295	14120.88
323.748	16261.16
324.202	16493.73
324.655	19834.43
325.108	27789.27
325.562	19634.09
326.015	23379.18
326.468	17685.31
326.921	19796.81
327.374	18452.36
327.827	19247.07
328.28	21778.81
328.733	14585.11
329.186	12822.07
329.639	12221.52
330.092	10282.29
330.545	9806.85
330.997	9883.31
331.45	10815.12
331.903	12680.22
332.355	21851.63
332.808	21222.47
333.26	17493.38
333.713	19028.07
334.165	19159.72
334.617	25581.5
335.069	20667.37
335.522	37298.86
335.974	41342.85
336.426	37747.5
336.878	26109.63
337.33	13254.93
337.782	12940.12
338.234	16248.17
338.686	19403.43
339.137	23008.55
339.589	21671.29
340.041	16996.31
340.493	14630.78
340.944	14963.94
341.396	16133
341.847	13584.71
342.299	16037.18
342.75	19556.84
343.201	17045.33
343.653	19627.48
344.104	24108.2
344.555	18989.2
345.006	29485.74
345.457	22596.36
345.908	17969.22
346.359	16914.21
346.81	13768.59
347.261	14491.73
347.712	14272.48
348.163	15310.85
348.613	15495.04
349.064	14478.59
349.515	12678.82
349.965	13031.55
350.416	15670.84
350.866	17181.17
351.317	19405.17
351.767	32166.14
352.217	40604.61
352.668	33730.63
353.118	30877.41
353.568	29801.25
354.018	23596.82
354.468	24877.91
354.918	17845.56
355.368	15616.67
355.818	22097.04
356.268	63614.8
356.718	266012.99
357.168	66257.95
357.617	33278.03
358.067	37058.4
358.517	34718.16
358.966	40746.22
359.416	45750.16
359.865	49469.85
360.315	58962.59
360.764	27568.72
361.213	15422.15
361.663	14637.48
362.112	18077.33
362.561	29203.17
363.01	22040.02
363.459	18563.33
363.908	20068.51
364.357	17023.72
364.806	28720.75
365.255	19707.36
365.703	18032.02
366.152	18083.67
366.601	14669.21
367.05	11941.65
367.498	10864.49
367.947	11325.26
368.395	11767.91
368.844	10420.98
369.292	12553.09
369.74	8694.95
370.189	13335.42
370.637	15632.32
371.085	13487.44
371.533	16386.18
371.981	15735.62
372.429	15004.99
372.877	15659.78
373.325	13107.28
373.773	13371.28
374.221	11930.43
374.669	14764.87
375.116	12770.73
375.564	12868.37
376.012	14382.36
376.459	11875.87
376.907	14197.51
377.354	17184.88
377.801	16049.97
378.249	18441.94
378.696	23568.09
379.143	28543.73
379.591	30481.58
380.038	51613.93
380.485	37401.31
380.932	40404.2
381.379	37017.21
381.826	27356.85
382.273	19439.18
382.72	16967.99
383.166	16590.51
383.613	10765.47
384.06	9708.65
384.506	11252.65
384.953	8271.01
385.4	8323.77
385.846	7311.47
386.292	7146.59
386.739	7002.13
387.185	6932.08
387.631	6962.05
388.078	6772.08
388.524	7266.73
388.97	6733.19
389.416	5629.27
389.862	6000.18
390.308	5695.94
390.754	5798.96
391.2	6298.8
391.645	6459.32
392.091	6203.97
392.537	6010.49
392.983	6025.27
393.428	5942.57
393.874	6392.57
394.319	6430.39
394.765	6113.35
395.21	6301.51
395.655	5913.93
396.101	5537.12
396.546	5002.95
396.991	5042.04
397.436	4684.46
397.881	4526.87
398.326	4278.55
398.771	4042.35
399.216	3533.98
399.661	3177.95
400.106	3169.56
400.551	3247.27
400.995	2915.4
401.44	2878.31
401.885	2705.62
402.329	2732.54
402.774	2618.01
403.218	2537.51
403.663	2435.9
404.107	2499.5
404.551	2519.54
404.995	2306.15
405.44	2217.37
405.884	2243.35
406.328	2165.64
406.772	2150.42
407.216	1953.46
407.66	1888.08
408.104	1790.09
408.547	1673.67
408.991	1618.11
409.435	1551.57
409.879	1527.28
410.322	1504.2
410.766	1455.08
411.209	1384.06
411.653	1327.72
412.096	1298.93
412.54	1294.81
412.983	1283.93
413.426	1291.54
413.869	1287.27
414.312	1263.36
414.756	1213.21
415.199	1156.59
415.642	1121.46
416.085	1122.82
416.527	1113.78
416.97	1132.56
417.413	1074.46
417.856	1060.84
418.298	1043.24
418.741	1034.69
419.184	1029.57
419.626	1070.49
420.069	1069.57
420.511	1073.2
420.953	1049.76
421.396	1038.7
421.838	1008.61
422.28	1032.05
422.722	1032.68
423.164	1048.53
423.606	1030.66
424.048	1027.95
424.49	978.15
424.932	969.91
425.374	954.97
425.816	968.87
426.258	986.18
426.699	995.77
427.141	980.24
427.582	996.03
428.024	989.19
428.465	981.89
428.907	958.34
429.348	948.22
429.789	949.52
430.231	932.22
430.672	943.6
431.113	922.38
431.554	908.27
431.995	885.87
432.436	857.62
432.877	840.29
433.318	826.66
433.759	821.86
434.2	820.22
434.64	812.63
435.081	812.11
435.522	768.44
435.962	741.6
436.403	726.22
436.843	734.61
437.284	716.5
437.724	694.4
438.164	694.94
438.604	679.57
439.045	655.04
439.485	628.95
439.925	616.04
440.365	600.87
440.805	593.53
441.245	590.96
441.685	568.8
442.125	566.11
442.564	569.84
443.004	557.87
443.444	558.89
443.883	559.9
444.323	554.01
444.762	555.11
445.202	566.09
445.641	578.45
446.081	573.37
446.52	581.61
446.959	578.91
447.398	569.46
447.837	564.9
448.276	555.79
448.716	562.02
449.154	568.99
449.593	559.81
450.032	556.95
450.471	546.03
450.91	546.58
451.349	547.86
451.787	544.46
452.226	552.43
452.664	553.29
453.103	554.86
453.541	555.58
453.98	558.77
454.418	561.46
454.856	554.58
455.295	554.76
455.733	559.64
456.171	561.4
456.609	562.64
457.047	562.48
457.485	572
457.923	573.67
458.361	565.98
458.798	566.07
459.236	564.5
459.674	568.07
460.111	570.02
460.549	565.36
460.987	563.17
461.424	561.37
461.862	560.17
462.299	550.66
462.736	550.68
463.173	552.12
463.611	546.84
464.048	545.75
464.485	550.64
464.922	544.66
465.359	540.03
465.796	537.1
466.233	534.05
466.67	528.43
467.106	528.05
467.543	521.61
467.98	514.72
468.416	499.87
468.853	494.65
469.29	478.82
469.726	474.86
470.162	462.48
470.599	453.25
471.035	448.05
471.471	436.9
471.907	433.23
472.344	430.64
472.78	432.71
473.216	438.31
473.652	433.9
474.088	433.34
474.523	431.85
474.959	436.3
475.395	432.18
475.831	431
476.266	433.87
476.702	432.88
477.138	429.38
477.573	427.84
478.008	426.46
478.444	429.34
478.879	434.11
479.314	436.59
479.75	437.42
480.185	439.14
480.62	442.23
481.055	444.72
481.49	448.27
481.925	454.45
482.36	463.79
482.795	476.73
483.229	489.09
483.664	499.16
484.099	500.38
484.534	508.47
484.968	514.54
485.403	517.8
485.837	518.04
486.271	518.22
486.706	519.01
487.14	513.04
487.574	506.59
488.009	503.49
488.443	500.17
488.877	508.08
489.311	511.14
489.745	518.21
490.179	524.38
490.613	536.2
491.046	542.37
491.48	549.27
491.914	552.07
492.348	557.92
492.781	563.75
493.215	567.4
493.648	570.24
494.082	577.37
494.515	581.57
494.948	590.66
495.382	597.57
495.815	604.73
496.248	612.36
496.681	626.91
497.114	641.1
497.547	653.78
497.98	670.09
498.413	680.68
498.846	693.6
499.279	705.4
499.711	713.99
500.144	720.47
500.577	735.36
501.009	750.79
501.442	766.14
501.874	773.42
502.306	780.44
502.739	793.64
503.171	812.75
503.603	822.49
504.036	837.48
504.468	849.01
504.9	866.97
505.332	879.86
505.764	889.74
506.196	901.51
506.627	921.65
507.059	941.5
507.491	955.45
507.923	959.85
508.354	981.01
508.786	998.52
509.217	1022.74
509.649	1043.18
510.08	1068.7
510.512	1093.09
510.943	1115.24
511.374	1132.68
511.805	1160.47
512.237	1187.23
512.668	1227.56
513.099	1261.49
513.53	1294.91
513.961	1323.32
514.391	1363.94
514.822	1404.66
515.253	1448.71
515.684	1481.69
516.114	1519.54
516.545	1547.28
516.975	1581.18
517.406	1605.48
517.836	1612.55
518.267	1624.99
518.697	1648.97
519.127	1656.72
519.558	1667.57
519.988	1674.05
520.418	1688.18
520.848	1710.39
521.278	1722.05
521.708	1730.54
522.138	1747.71
522.567	1785.56
522.997	1815.82
523.427	1835.43
523.857	1856.82
524.286	1870.44
524.716	1889.07
525.145	1912.55
525.575	1925.48
526.004	1944.89
526.433	1952.54
526.863	1952.77
527.292	1941.67
527.721	1948.75
528.15	1955.97
528.579	1958.27
529.008	1971.79
529.437	1999.32
529.866	2015.98
530.295	2037.89
530.724	2052.49
531.152	2084.78
531.581	2102.72
532.01	2123.71
532.438	2133.83
532.867	2152.32
533.295	2173.26
533.723	2181.59
534.152	2178.54
534.58	2177.81
535.008	2158.8
535.436	2160.74
535.865	2170.62
536.293	2185.89
536.721	2204.74
537.149	2235.77
537.576	2236.74
538.004	2252.38
538.432	2261.4
538.86	2259.27
539.287	2267.75
539.715	2284.35
540.143	2287.78
540.57	2281.44
540.998	2278.34
541.425	2250.91
541.852	2224.93
542.28	2223.7
542.707	2202.92
543.134	2186.1
543.561	2182.67
543.988	2173.79
544.415	2172.38
544.842	2164.75
545.269	2156.41
545.696	2159.04
546.123	2174.05
546.549	2161.02
546.976	2145.5
547.403	2146.06
547.829	2148.52
548.256	2149.5
548.682	2144.06
549.108	2134.71
549.535	2135.21
549.961	2138.23
550.387	2122.07
550.813	2115.72
551.24	2124.18
551.666	2126.39
552.092	2114.85
552.518	2106.85
552.943	2100.27
553.369	2110.94
553.795	2118.53
554.221	2120.38
554.646	2116.16
555.072	2129.16
555.498	2134.55
555.923	2145.56
556.349	2162.65
556.774	2172.59
557.199	2174.23
557.625	2181.74
558.05	2174.89
558.475	2186.62
558.9	2182.85
559.325	2173.94
559.75	2166.52
560.175	2159.71
560.6	2152.49
561.025	2149.62
561.449	2150.17
561.874	2156.25
562.299	2161.45
562.723	2169.47
563.148	2157.27
563.572	2163.32
563.997	2174.92
564.421	2180.3
564.846	2180.64
565.27	2184.51
565.694	2181.63
566.118	2195.03
566.542	2203.18
566.966	2193.94
567.39	2187.75
567.814	2174.43
568.238	2173.45
568.662	2177.73
569.086	2180.35
569.509	2188.06
569.933	2168.61
570.357	2158.82
570.78	2133.17
571.204	2117.44
571.627	2104.99
572.05	2101.71
572.474	2101.36
572.897	2085.06
573.32	2075.58
573.743	2063.25
574.166	2039.74
574.589	2039.57
575.012	2030.24
575.435	2029.05
575.858	2018.02
576.281	2004.09
576.704	1985.26
577.126	1970.38
577.549	1957.07
577.972	1944.55
578.394	1931.18
578.817	1923.86
579.239	1901.44
579.661	1885.14
580.084	1865.89
580.506	1849.45
580.928	1844.78
581.35	1830.85
581.772	1824.07
582.194	1808.24
582.616	1793.21
583.038	1776.72
583.46	1763.83
583.882	1758.89
584.303	1763.48
584.725	1757.98
585.147	1760.78
585.568	1771.53
585.99	1785.17
586.411	1793.54
586.833	1809.98
587.254	1811.96
587.675	1827.75
588.096	1841.78
588.518	1835.38
588.939	1814.77
589.36	1812.58
589.781	1799.19
590.202	1766
590.623	1754.64
591.043	1750.67
591.464	1736.83
591.885	1731.14
592.305	1723.9
592.726	1707.69
593.147	1708.49
593.567	1703.24
593.987	1692.57
594.408	1686.79
594.828	1685.36
595.248	1679.53
595.669	1658.27
596.089	1648.97
596.509	1641.67
596.929	1626.23
597.349	1627.08
597.769	1615.14
598.189	1606.41
598.608	1609.06
599.028	1610.31
599.448	1609.29
599.867	1593.92
600.287	1589.2
600.706	1583.68
601.126	1572.85
601.545	1570.88
601.965	1568.32
602.384	1562.21
602.803	1565.85
603.222	1558.15
603.641	1550.55
604.061	1545.72
604.48	1540.93
604.898	1549.36
605.317	1554.1
605.736	1554.29
606.155	1550.56
606.574	1540.03
606.992	1545.81
607.411	1539.33
607.829	1530.47
608.248	1525.52
608.666	1521.39
609.085	1519.16
609.503	1508.4
609.921	1501.69
610.339	1504.19
610.758	1502.9
611.176	1495.94
611.594	1483.74
612.012	1478.45
612.43	1482.25
612.847	1488.55
613.265	1489.39
613.683	1494.75
614.101	1495.29
614.518	1489.79
614.936	1476.66
615.353	1458.63
615.771	1454.38
616.188	1454.27
616.606	1450.68
617.023	1440.4
617.44	1423.82
617.857	1414.87
618.274	1403.72
618.691	1394.65
619.108	1383.22
619.525	1374.6
619.942	1380.84
620.359	1382.48
620.776	1375.13
621.192	1368.61
621.609	1365.87
622.026	1371.22
622.442	1377.13
622.859	1378.73
623.275	1370.7
623.691	1374.98
624.108	1388.22
624.524	1402.83
624.94	1401.49
625.356	1411.93
625.772	1425.34
626.188	1437.12
626.604	1438.56
627.02	1433.44
627.436	1430.56
627.852	1438.52
628.268	1451.37
628.683	1441.05
629.099	1431.44
629.514	1426.66
629.93	1430.19
630.345	1435.72
630.761	1431.19
631.176	1433.82
631.591	1425.54
632.007	1419.25
632.422	1415.58
632.837	1402.11
633.252	1398.57
633.667	1385.23
634.082	1373.95
634.497	1358.74
634.911	1334.47
635.326	1327.89
635.741	1307.44
636.155	1294.91
636.57	1293.59
636.984	1290.21
637.399	1290.19
637.813	1286.58
638.228	1283.2
638.642	1284.14
639.056	1270.48
639.47	1268.47
639.884	1256.48
640.298	1246.61
640.712	1243.8
641.126	1227.32
641.54	1215.08
641.954	1205.66
642.368	1188.97
642.781	1178.4
643.195	1158.36
643.609	1155.59
644.022	1145.7
644.436	1137.83
644.849	1123.27
645.262	1106.96
645.676	1105.5
646.089	1098.21
646.502	1080.49
646.915	1072.86
647.328	1052.07
647.741	1046.31
648.154	1029.74
648.567	1024.34
648.98	1009.52
649.393	1008.42
649.805	1003.29
650.218	993.59
650.631	975.13
651.043	966.66
651.456	959.58
651.868	958.91
652.28	974.17
652.693	986.93
653.105	991.37
653.517	999.07
653.929	996.09
654.341	998.88
654.753	986.45
655.165	990.55
655.577	985.94
655.989	978.61
656.401	967.18
656.813	930.16
657.224	907.54
657.636	877.28
658.047	856.92
658.459	835.05
658.87	822.1
659.282	805.93
659.693	783.35
660.104	767.21
660.515	750.34
660.926	746.04
661.338	738.59
661.749	728.21
662.159	716.18
662.57	706.73
662.981	698.03
663.392	686.79
663.803	686.05
664.213	679.33
664.624	670.03
665.035	668.42
665.445	650.2
665.855	639.78
666.266	629.65
666.676	623.06
667.086	612.64
667.497	609.76
667.907	602.98
668.317	592.77
668.727	589.98
669.137	587.64
669.547	583.59
669.956	583.83
670.366	584.29
670.776	585.27
671.186	587.69
671.595	590.29
672.005	590.5
672.414	588.88
672.824	587.43
673.233	588.12
673.642	589
674.052	591.53
674.461	594.1
674.87	596.74
675.279	593.41
675.688	594.53
676.097	595.46
676.506	594.91
676.915	606.68
677.323	609.15
677.732	608.25
678.141	609.78
678.549	602.65
678.958	603.97
679.366	605.41
679.775	610.99
680.183	623.21
680.592	631.51
681	639.4
681.408	637.76
681.816	647.62
682.224	659.03
682.632	672.57
683.04	702.29
683.448	728.81
683.856	760.72
684.264	799.29
684.671	832.92
685.079	876
685.487	922.55
685.894	987.7
686.302	1044.84
686.709	1095.3
687.116	1153.75
687.524	1204.95
687.931	1250.45
688.338	1292.98
688.745	1329.64
689.152	1373.18
689.559	1423.16
689.966	1476.72
690.373	1508.1
690.78	1558.71
691.187	1631.19
691.593	1688.41
692	1740.48
692.407	1813.99
692.813	1901.03
693.22	1972.62
693.626	2045.52
694.032	2106.39
694.439	2194.04
694.845	2263.08
695.251	2350.31
695.657	2427.7
696.063	2541.05
696.469	2625.43
696.875	2703.46
697.281	2751.67
697.687	2807.56
698.093	2855.23
698.498	2942.98
698.904	3013.69
699.31	3115.98
699.715	3189.55
700.12	3297.43
700.526	3322.39
700.931	3405.46
701.337	3467.86
701.742	3507.31
702.147	3607.38
702.552	3644.42
702.957	3715.11
703.362	3737.85
703.767	3773.34
704.172	3820.21
704.577	3766.96
704.981	3822.47
705.386	3842.36
705.791	3835.86
706.195	3923.5
706.6	3933.07
707.004	4025.39
707.408	3992.45
707.813	4027.67
708.217	4013.72
708.621	4019.44
709.025	4133.01
709.43	4133.9
709.834	4202.21
710.237	4282.49
710.641	4267.51
711.045	4294.88
711.449	4289.11
711.853	4322.22
712.256	4369.57
712.66	4415.71
713.064	4502.89
713.467	4550.83
713.87	4681.47
714.274	4734.82
714.677	4861.4
715.08	5043.97
715.484	5236.42
715.887	5469.36
716.29	5699.73
716.693	5935.9
717.096	6208.33
717.499	6353.82
717.901	6382.37
718.304	6408.79
718.707	6437.78
719.109	6321.17
719.512	6288.98
719.915	6132.75
720.317	6067.23
720.719	6113.58
721.122	6083.06
721.524	6027.36
721.926	5980.07
722.328	6096.12
722.731	6086.93
723.133	6117.87
723.535	6335.96
723.937	6353.89
724.338	6413.54
724.74	6459.32
725.142	6384.63
725.544	6378.55
725.945	6406.28
726.347	6404.76
726.748	6395.34
727.15	6409.63
727.551	6370.59
727.952	6339.08
728.354	6309.12
728.755	6309.29
729.156	6260.92
729.557	6251.29
729.958	6112.23
730.359	6048.15
730.76	6024.15
731.161	5953.5
731.562	5925.82
731.962	5925.73
732.363	5853.27
732.763	5777.9
733.164	5817.29
733.564	5738.2
733.965	5628.56
734.365	5590.48
734.766	5621.22
735.166	5575.68
735.566	5513.6
735.966	5481.13
736.366	5473.53
736.766	5401.63
737.166	5436.79
737.566	5393.22
737.966	5365.74
738.365	5408.94
738.765	5400.16
739.165	5315.84
739.564	5285.03
739.964	5331.99
740.363	5279.96
740.763	5277.01
741.162	5263.48
741.561	5225.76
741.96	5170.23
742.36	5190.51
742.759	5195.31
743.158	5237.98
743.557	5252.28
743.955	5296.39
744.354	5247.42
744.753	5312.58
745.152	5264.6
745.55	5329.28
745.949	5322.72
746.348	5323.25
746.746	5344.92
747.144	5298.92
747.543	5273.81
747.941	5332.39
748.339	5255.26
748.737	5247.16
749.136	5238.02
749.534	5311.2
749.932	5274.53
750.33	5299.38
750.727	5362.82
751.125	5334.01
751.523	5317.21
751.921	5364.94
752.318	5327.6
752.716	5393.92
753.113	5409.42
753.511	5436.03
753.908	5436.23
754.305	5418.91
754.703	5489.86
755.1	5557.59
755.497	5624.68
755.894	5837.54
756.291	6040.44
756.688	6408.27
757.085	6900.58
757.482	7595.11
757.878	8352.95
758.275	9041.69
758.672	9984.51
759.068	10753.06
759.465	11844.67
759.861	13254.73
760.258	14896.71
760.654	15743.27
761.05	15618.04
761.447	14898.41
761.843	13871.48
762.239	12808.4
762.635	12328.48
763.031	11862.76
763.427	11196.26
763.822	10504.58
764.218	9816.67
764.614	8916.6
765.01	8317.86
765.405	7926.79
765.801	7633.33
766.196	7255.71
766.592	7043.73
766.987	6685.55
767.382	6448.59
767.778	6346.82
768.173	6200.15
768.568	6117.15
768.963	5977.49
769.358	5995.83
769.753	5944.02
770.148	5849.98
770.542	5846.58
770.937	5811.14
771.332	5914.75
771.726	5938.75
772.121	5867.16
772.515	5925.65
772.91	5908.43
773.304	5989.52
773.699	5914.12
774.093	5973.17
774.487	6036.66
774.881	6087.19
775.275	6086.14
775.669	6038.7
776.063	6086.67
776.457	6129.33
776.851	6044.62
777.245	6038.5
777.638	6076.73
778.032	6206.75
778.425	6165.49
778.819	6212.11
779.212	6162.24
779.606	6113.7
779.999	6135.75
780.392	6118.07
780.786	6212.26
781.179	6240.3
781.572	6289.45
781.965	6301.93
782.358	6237.33
782.751	6302.96
783.143	6246.51
783.536	6329.93
783.929	6380.55
784.322	6509.36
784.714	6543.51
785.107	6535.17
785.499	6613.82
785.891	6586.63
786.284	6567.8
786.676	6729.3
787.068	6705.69
787.46	6767.44
787.852	6791.55
788.245	6888.29
788.636	6919.27
789.028	6991.99
789.42	7038.3
789.812	7047.48
790.204	7157.44
790.595	7271.13
790.987	7048.89
791.378	7076.57
791.77	7219.5
792.161	7372.24
792.553	7432.07
792.944	7308.33
793.335	7231.63
793.726	7312.05
794.117	7414.73
794.508	7564.76
794.899	7526.04
795.29	7684.52
795.681	7749.58
796.072	7591.64
796.463	7383.44
796.853	7396.22
797.244	7573.53
797.634	7613.58
798.025	7614.22
798.415	7628.8
798.806	7733.67
799.196	7829.49
799.586	7888.1
799.976	7844.46
800.366	8101.38
800.756	8370.76
801.146	8327.27
801.536	8364.79
801.926	8445.06
802.316	8475.32
802.706	8552.91
803.095	8410.34
803.485	8527.9
803.874	8570.42
804.264	8863.08
804.653	8837.91
805.043	8998.96
805.432	9124.62
805.821	9118.99
806.21	9147.28
806.599	9278.76
806.988	9330.62
807.377	9453.3
807.766	9594.32
808.155	9911.93
808.544	9620.5
808.933	9632.99
809.321	9608.85
809.71	9939.51
810.098	10118.84
810.487	10633.92
810.875	11168.92
811.264	11194.27
811.652	11521.6
812.04	11680.23
812.428	11858.97
812.816	12708.85
813.204	13173.91
813.592	13791.31
813.98	14160.78
814.368	14054.88
814.756	14593.95
815.144	14504.39
815.531	15022.4
815.919	14929.75
816.306	15280.13
816.694	14948.68
817.081	15009.22
817.469	15400.71
817.856	15401.29
818.243	15705.77
818.63	16145.38
819.017	15681.72
819.404	15758.19
819.791	16190.73
820.178	16880.46
820.565	17162.35
820.952	18199.76
821.339	17643.4
821.725	17850.76
822.112	17017.1
822.498	16976.11
822.885	17133.15
823.271	17021.78
823.657	17497.22
824.044	17505.58
824.43	17594.06
824.816	17549.23
825.202	17065.43
825.588	18210.63
825.974	18227.96
826.36	18814.92
826.746	18851.02
827.132	19249.59
827.517	19217.38
827.903	18330.69
828.289	18368.63
828.674	17500.83
829.06	17393.69
829.445	17832.63
829.83	18224.53
830.216	18755.74
830.601	19158.44
830.986	18694.77
831.371	18538.05
831.756	19157.73
832.141	18668.91
832.526	18662.91
832.911	18975.17
833.295	18842.87
833.68	19365.75
834.065	18667.2
834.449	17656.69
834.834	17573.65
835.218	17572.58
835.603	17955.21
835.987	17719.72
836.371	18655.8
836.755	18539.99
837.139	18974.93
837.524	19238.13
837.908	19039.35
838.291	19121.03
838.675	19189.84
839.059	19414.53
839.443	19394.91
839.827	19123.21
840.21	19659.22
840.594	19479.49
840.977	19700.73
841.361	19680.96
841.744	20095.7
842.127	19919.2
842.511	20179.44
842.894	20837.98
843.277	21261.97
843.66	21864.59
844.043	21966.13
844.426	21060.99
844.809	20727.15
845.191	20761.7
845.574	20249.19
845.957	19843.29
846.339	19720.68
846.722	19138.16
847.104	19207.45
847.487	19010.7
847.869	19021.63
848.252	19322.38
848.634	19687
849.016	19969.28
849.398	20105.64
849.78	21049.83
850.162	21058.22
850.544	21517.42
850.926	22210.91
851.307	22124.51
851.689	22439.37
852.071	22949.29
852.452	23311.64
852.834	23293.71
853.215	23744.08
853.597	23922.89
853.978	24240.82
854.359	24735.74
854.741	23628.65
855.122	23512.26
855.503	23171.37
855.884	23324.47
856.265	23250.24
856.646	23370.65
857.026	22927.65
857.407	22863.44
857.788	23029.33
858.169	23352.33
858.549	22419.57
858.93	23111.51
859.31	23166.45
859.69	23414.62
860.071	22965.89
860.451	22725.08
860.831	21916.73
861.211	23215.19
861.591	23810.7
861.971	23798.19
862.351	24027.71
862.731	24471.13
863.111	24764.88
863.491	25141.29
863.87	26124.34
864.25	26514.44
864.629	26075.94
865.009	26644.56
865.388	27587.77
865.768	29557.57
866.147	29423.83
866.526	27784.67
866.905	28115.74
867.284	29692.64
867.663	28198.57
868.042	27026.03
868.421	26925.86
868.8	27370.85
869.179	27646.03
869.558	26029.23
869.936	23998.13
870.315	24436.08
870.693	25029.7
871.072	26979.68
871.45	25696.68
871.828	26014.7
872.207	27337.71
872.585	26925.94
872.963	27664.62
873.341	26712.96
873.719	26404.95
874.097	26093.14
874.475	26585.62
874.853	27202.6
875.23	26070.23
875.608	27173.13
875.986	29405.71
876.363	28121.36
876.741	28987.78
877.118	28265.26
877.495	29652.07
877.873	30144.7
878.25	31723.7
878.627	30423.44
879.004	30836.61
879.381	30692.34
879.758	29873.06
880.135	27814.8
880.512	29411.89
880.889	28623.05
881.265	28319.12
881.642	28071.28
882.019	28535.61
882.395	27953.9
882.772	29055.02
883.148	27784.93
883.524	27673.96
883.901	27520.23
884.277	27922.92
884.653	27741
885.029	28534.01
885.405	31591.63
885.781	31346.82
886.157	30057.62
886.532	30421.76
886.908	30409.83
887.284	33835.16
887.659	34937.93
888.035	36012.03
888.411	36940.96
888.786	37411.69
889.161	38719
889.537	37997.27
889.912	39199.33
890.287	39157.54
890.662	40170.88
891.037	39438.17
891.412	36754.53
891.787	36381.99
892.162	35123.62
892.536	35925.14
892.911	34579.3
893.286	33842.89
893.66	32465.4
894.035	33287.16
894.409	36257.27
894.784	34767.87
895.158	35336.45
895.532	37428.83
895.906	38418.63
896.281	39300.59
896.655	38673.88
897.029	44184.51
897.402	46002.57
897.776	51192.94
898.15	51021.56
898.524	50460.98
898.898	51160.96
899.271	57284.11
899.645	49620.43
900.018	47674.78
900.392	49463.97
900.765	49867.01
901.138	46158.87
901.511	45472.71
901.884	41789.74
902.258	38551.98
902.631	39831.16
903.003	45842.97
903.376	41370.02
903.749	46398.68
904.122	49681.87
904.495	54697.49
904.867	55420.99
905.24	48141.52
905.612	44794.4
905.985	45818.1
906.357	47921.29
906.729	45736.65
907.102	39056.34
907.474	37566.81
907.846	37819.32
908.218	37323.68
908.59	32978.31
908.962	31892.49
909.334	34339.32
909.705	36112.91
910.077	35063.76
910.449	36490.95
910.82	37517.54
911.192	41291.73
911.563	42922.6
911.935	45909.24
912.306	45979.85
912.677	47507.41
913.048	47032.45
913.419	51030.16
913.79	51296.54
914.161	54992.77
914.532	52583.98
914.903	48340.19
915.274	45917.51
915.645	45241.69
916.015	39829.51
916.386	37978.27
916.756	40416.24
917.127	41695.46
917.497	37275.89
917.868	40580.67
918.238	38563.6
918.608	39667.62
918.978	40480.36
919.348	42874.87
919.718	44287.48
920.088	42671.25
920.458	44344.85
920.828	46673.15
921.198	44239.94
921.567	47233.85
921.937	36566.76
922.306	36927.16
922.676	39836.75
923.045	33239.89
923.415	31586.6
923.784	28779.6
924.153	29585.92
924.522	29555.33
924.891	27776.81
925.26	29767.05
925.629	29060.55
925.998	33427.24
926.367	32621.94
926.736	31066.89
927.104	37002.61
927.473	39768.02
927.842	48005.94
928.21	47531.06
928.578	49982.54
928.947	47251.56
929.315	47531.69
929.683	55782.91
930.051	56215.14
930.42	65298.66
930.788	55813.25
931.156	55380.16
931.523	51936.18
931.891	47995.86
932.259	46117.12
932.627	53429.46
932.994	75663.08
933.362	62536.02
933.729	54273.48
934.097	51956.12
934.464	43972.48
934.831	50713.13
935.199	50000.77
935.566	48491.61
935.933	49115.99
936.3	59448.65
936.667	46285.25
937.034	41705.98
937.401	41253.84
937.767	35604.03
938.134	31682.02
938.501	44656.85
938.867	47610.24
939.234	80514.81
939.6	68676.26
939.967	75730.59
940.333	50747.09
940.699	43176.74
941.065	34696.55
941.431	45483.62
941.798	43895.22
942.163	57686.67
942.529	35998.32
942.895	33124.64
943.261	21446.59
943.627	28120.21
943.992	24625.51
944.358	24663.71
944.723	24763.75
945.089	24097.45
945.454	22224.79
945.82	23716.89
946.185	22772.99
946.55	26414.34
946.915	23706.67
947.28	27780.26
947.645	24463.82
948.01	22594.53
948.375	23560.57
948.74	28224.81
949.104	32937.31
949.469	47649.72
949.834	84134.23
950.198	79774.79
950.562	47787.05
950.927	39768.27
951.291	47890.82
951.655	40800.67
952.02	38313.42
952.384	28967.74
952.748	25238.77
953.112	24639.77
953.476	21420.86
953.839	19829.54
954.203	19633.07
954.567	24565.37
954.931	38750.57
955.294	33148.26
955.658	33353.75
956.021	56683.65
956.385	96024.12
956.748	141684.96
957.111	219765.48
957.474	246864.4
957.837	278134.88
958.2	210761.25
958.563	75860.1
958.926	51301.19
959.289	77828.96
959.652	86991.56
960.015	65323.74
960.377	93861.29
960.74	107137.68
961.102	184900.05
961.465	198499.88
961.827	106315.91
962.189	203791.02
962.552	141324.66
962.914	113298.87
963.276	73523.61
963.638	60735.56
964	60149.87
964.362	40646.51
964.724	39283.11
965.085	28033.48
965.447	22991.41
965.809	26198.36
966.17	26250.03
966.532	28397.46
966.893	26050.41
967.255	23720.06
967.616	28022.42
967.977	22430.93
968.338	24520.39
968.699	20185.13
969.061	20176.82
969.421	20311.95
969.782	22791.78
970.143	19252.2
970.504	19941.65
970.865	22668.32
971.225	23193.43
971.586	22704.04
971.946	32360.71
972.307	28084.39
972.667	36714.6
973.027	37804.37
973.388	45864.6
973.748	31200.72
974.108	33965.79
974.468	45928.86
974.828	35417.88
975.188	27228.62
975.548	24986.19
975.907	21012.08
976.267	23567
976.627	19783.78
976.986	20514.97
977.346	19562.28
977.705	18827.12
978.064	17122.55
978.424	14270.28
978.783	14762.12
979.142	16842.71
979.501	16121.25
979.86	17025.82
980.219	16408.39
980.578	21150.65
980.937	23692.57
981.296	21109
981.654	21729.84
982.013	33852.49
982.371	43885.63
982.73	41000.66
983.088	46446.45
983.447	49620.69
983.805	70929.94
984.163	148193.05
984.521	164600.35
984.879	241550.21
985.237	-392462.48
985.595	378009.09
985.953	94155.99
986.311	54499.92
986.669	31622.97
987.026	27316.55
987.384	36717.28
987.741	37970.44
988.099	27132.69
988.456	21609.56
988.814	20221.35
989.171	17589.48
989.528	17362.87
989.885	18292.12
990.242	14467.14
990.599	18031.38
990.956	14748.8
991.313	10318.5
991.67	8465.76
992.027	8977.26
992.383	7991.94
992.74	6994.89
993.096	7342.49
993.453	7612.66
993.809	7906.63
994.165	10522.25
994.522	9639.23
994.878	10614.48
995.234	13320.37
995.59	13131.26
995.946	12437.76
996.302	14175.21
996.658	16415.2
997.013	18097.24
997.369	21445.67
997.725	27390.09
998.08	17769.39
998.436	27366.86
998.791	37790.22
999.147	37690.31
999.502	41162.11
999.857	29925.76
1000.212	48825.61
1000.567	69505.94
1000.922	40035.36
1001.277	25447.68
1001.632	18912.74
1001.987	24343.86
1002.342	17502.07
1002.696	13976.11
1003.051	11158.93
1003.406	13527.94
1003.76	13458.71
1004.114	13246.94
1004.469	11129.29
1004.823	9244.15
1005.177	9983.32
1005.531	7891.8
1005.885	7004.04
1006.239	7899.33
1006.593	9928.68
1006.947	13305.9
1007.301	9951.46
1007.655	10845.38
1008.008	7967.86
1008.362	8967.12
1008.715	12777.72
1009.069	11600.76
1009.422	17469.44
1009.776	35047.9
1010.129	23260.82
1010.482	19411.18
1010.835	16458.14
1011.188	34445.99
1011.541	32518.57
1011.894	-198751.67
1012.247	583985.34
1012.6	39637.87
1012.952	24987.7
1013.305	12890.28
1013.657	9280.17
1014.01	8775.63
1014.362	7244.84
1014.715	6401.22
1015.067	5565.22
1015.419	5422.7
1015.771	4805.1
1016.123	4272.84
1016.475	4402.78
1016.827	4694.84
1017.179	5043.12
1017.531	5090.34
1017.883	5203.69
1018.234	5007.56
1018.586	6329.14
1018.938	6702.59
1019.289	9243.66
1019.64	10586.43
1019.992	9871.67
1020.343	9021.14
1020.694	7132.47
1021.045	6311.44
1021.396	7194.52
1021.747	7703.86
1022.098	9278.81
1022.449	6736.33
1022.8	6236.2
1023.151	4347.14
1023.501	3855.05
1023.852	4197.44
1024.202	4355.24
1024.553	4771.34
1024.903	4651.12
1025.253	3975.54
1025.604	3580.42
1025.954	4435.37
1026.304	5415.5
1026.654	6329.05
1027.004	9322.09
1027.354	15087.7
1027.703	14150.36
1028.053	18639.56
1028.403	27098.81
1028.753	39274.41
1029.102	53714.67
1029.452	277759.32
1029.801	12051.95
1030.15	7764.03
1030.499	6568.33
897.758	2783.79
901.051	2746.68
904.343	2775.87
907.636	2778.84
910.928	2844.95
914.22	2751.26
917.511	2760.07
920.803	2828.95
924.094	2848.58
927.384	2821.48
930.675	2787.79
933.965	2738.37
937.255	2742.85
940.544	2716.01
943.834	2637.88
947.123	2584.41
950.411	2684.02
953.7	2655.3
956.988	2619.28
960.276	2563.45
963.563	2649.91
966.851	2644.64
970.138	2705.87
973.424	2699.97
976.711	2646.82
979.997	2800.08
983.283	2832.15
986.568	2731.95
989.853	2750.5
993.138	2778.65
996.423	2862.27
999.708	2795.66
1002.992	2867.98
1006.275	2683.26
1009.559	2737.95
1012.842	2858.9
1016.125	2784.18
1019.408	2764.66
1022.69	2858.52
1025.972	2880.31
1029.254	2852.32
1032.536	2779.74
1035.817	2809.98
1039.098	2747.3
1042.379	2914.41
1045.659	2903.46
1048.939	2832.14
1052.219	2857.09
1055.498	2871.43
1058.778	2855.28
1062.057	2835.85
1065.335	2859.24
1068.614	2879.64
1071.892	2861.47
1075.17	2940.55
1078.447	2928.42
1081.724	2920.45
1085.001	2957.36
1088.278	2933.5
1091.554	2943.05
1094.83	2937.88
1098.106	2968.82
1101.382	3017.23
1104.657	3016.99
1107.932	3011.51
1111.206	2973.25
1114.481	2929.94
1117.755	2929.7
1121.029	2909.83
1124.302	2962.98
1127.575	2913.33
1130.848	2900.53
1134.121	2857.46
1137.393	2802.88
1140.665	2874.58
1143.937	2850.41
1147.208	2809.27
1150.48	2849.63
1153.75	2836.29
1157.021	2872.78
1160.291	2839.83
1163.561	2887.46
1166.831	2877.46
1170.101	2912.38
1173.37	2888.19
1176.639	2829.65
1179.907	2888.31
1183.176	2894.53
1186.444	2901.97
1189.711	2933.58
1192.979	2942.97
1196.246	2898.99
1199.513	2915.18
1202.78	2915.75
1206.046	2924.65
1209.312	2951.74
1212.578	2979.57
1215.843	2930.38
1219.108	2904.15
1222.373	2926.52
1225.638	2887.42
1228.902	2869.92
1232.166	2833.69
1235.43	2816.37
1238.693	2836.43
1241.956	2835.91
1245.219	2875
1248.482	2866.82
1251.744	2860.42
1255.006	3019.9
1258.268	2974.68
1261.529	2914.83
1264.79	2923.05
1268.051	3032.75
1271.312	3050.72
1274.572	3014.43
1277.832	3002.52
1281.092	2990.83
1284.351	2961.19
1287.61	2938.9
1290.869	2847.46
1294.128	2821.42
1297.386	2918.91
1300.644	2906.32
1303.902	2918.66
1307.159	2769.12
1310.416	2825.86
1313.673	2852.52
1316.93	2837.75
1320.186	2885.45
1323.442	2931.07
1326.697	2918.49
1329.953	2908.75
1333.208	2933.95
1336.463	2914.3
1339.717	2847.87
1342.972	2995.19
1346.226	2972.27
1349.479	2897.16
1352.733	2864.86
1355.986	2892.18
1359.238	2865.03
1362.491	2868.1
1365.743	2874.53
1368.995	2866.56
1372.247	2877.39
1375.498	2904.42
1378.749	2914.64
1382	2867.64
1385.251	2926.44
1388.501	2886.93
1391.751	2868.69
1395	2841.41
1398.25	2873.29
1401.499	2878.83
1404.748	2801.1
1407.996	2794.81
1411.244	2778.01
1414.492	2757.5
1417.74	2735.13
1420.987	2745.45
1424.234	2807.1
1427.481	2786.35
1430.728	2846.67
1433.974	2823.92
1437.22	2839.57
1440.465	2840.52
1443.711	2799.47
1446.956	2838.96
1450.201	2825.61
1453.445	2874.68
1456.689	2851.8
1459.933	2863.63
1463.177	2895.97
1466.42	2868.87
1469.663	2846.88
1472.906	2840.03
1476.148	2928.45
1479.391	2872.31
1482.633	2844.29
1485.874	2856.1
1489.115	2837.71
1492.356	2844.9
1495.597	2821.6
1498.838	2823.57
1502.078	2787.85
1505.318	2731.56
1508.557	2776.89
1511.797	2743.56
1515.036	2833.98
1518.274	2819.03
1521.513	2793.26
1524.751	2814.69
1527.989	2827.67
1531.227	2838.56
1534.464	2834.09
1537.701	2857.7
1540.938	2878.51
1544.174	2831.31
1547.41	2829.44
1550.646	2873.27
1553.882	2910.21
1557.117	2966.44
1560.352	2982.84
1563.587	2938.15
1566.821	2895.6
1570.055	2931.97
1573.289	2902.04
1576.523	2983.86
1579.756	2991.03
1582.989	3009.56
1586.222	2964.64
1589.454	3005.9
1592.686	2977.48
1595.918	3000.54
1599.15	2989.39
1602.381	3070.24
1605.612	3022.41
1608.843	3123.55
1612.073	3032.32
1615.303	3010.8
1618.533	3004.98
1621.762	3005.73
1624.992	2995.26
1628.221	2975.06
1631.449	2965.92
1634.678	3025.63
1637.906	2976.13
1641.134	3017.94
1644.361	2970.8
1647.588	2956.87
1650.815	2975.43
1654.042	2953.67
1657.269	2990.52
1660.495	2935.55
1663.72	2942.99
1666.946	2904.17
1670.171	2839.6
1673.396	2817.51
1676.621	2805.65
1679.845	2830.13
1683.069	2853.13
1686.293	2896.5
1689.517	2865.94
1692.74	2787.31
1695.963	2821.58
1699.185	2855.02
1702.408	2827.41
1705.63	2872.52
1708.852	2881.74
1712.073	2855.91
1715.294	2836.15
1718.515	2900.71
1721.736	2848.32
1724.956	2838.09
1728.176	2866.56
1731.396	2889.12
1734.616	2874.71
1737.835	2902.1
1741.054	2882.87
1744.272	2877.63
1747.491	2904.59
1750.709	2965.05
1753.927	2860.56
1757.144	2908.13
1760.361	2954.35
1763.578	2946.7
1766.795	2885.2
1770.011	2894.4
1773.227	2939.78
1776.443	2974.51
1779.658	3019.5
1782.874	2959.41
1786.089	2935.86
1789.303	2939.06
1792.518	2947.52
1795.732	2931.24
1798.945	2943.9
1802.159	2994.85
1805.372	2889.39
1808.585	2873.93
1811.797	2876.32
1815.01	2927.79
1818.222	2929.39
1821.434	2882.18
1824.645	2945.66
1827.856	2922.64
1831.067	2964.33
1834.278	2920.06
1837.488	2903.73
1840.698	3061.73
1843.908	2977.41
1847.117	2938.55
1850.326	2814.52
1853.535	2927.78
1856.744	2973.6
1859.952	2882.81
1863.16	2886.1
1866.368	2907.07
1869.575	3013.69
1872.782	2893.04
1875.989	2829.97
1879.196	2923.48
1882.402	2916.57
1885.608	2958.11
1888.814	2854.57
1892.019	2742.17
1895.224	2796.25
1898.429	2775.25
1901.634	2753.08
1904.838	2729.26
1908.042	2781.82
1911.246	2787.44
1914.449	2711.12
1917.652	2708.88
1920.855	2691.89
1924.058	2747.69
1927.26	2784.69
1930.462	2814.2
1933.664	2843.55
1936.865	2777.29
1940.066	2783.89
1943.267	2729.37
1946.467	2746.56
1949.668	2775.6
1952.868	2847.38
1956.067	2821.18
1959.267	2746.94
1962.466	2775.07
1965.665	2761.41
1968.863	2757.05
1972.061	2772.18
1975.259	2773.14
1978.457	2852.43
1981.654	2810.26
1984.852	2810.32
1988.048	2736.18
1991.245	2743.17
1994.441	2831.83
1997.637	2818.65
2000.833	2797.31
2004.028	2838.59
2007.223	2892.86
2010.418	2868.64
2013.613	2829.54
2016.807	2794.19
2020.001	2807.11
2023.194	2852.96
2026.388	2828.03
2029.581	2768.3
2032.774	2819.37
2035.966	2824.41
2039.158	2753.39
2042.35	2782.38
2045.542	2707.96
2048.733	2815.66
2051.924	2842.91
2055.115	2871.45
2058.306	2812.15
2061.496	2873.27
2064.686	2943.97
2067.875	2856.04
2071.065	2870.88
2074.254	2900.23
2077.442	2850.43
2080.631	2945.28
2083.819	2828.81
2087.007	2810.37
2090.195	2777.42
2093.382	2815.2
2096.569	2791.97
2099.756	2742.5
2102.942	2764.09
2106.128	2773.27
2109.314	2762.46
2112.5	2720.34
2115.685	2694.13
2118.87	2703.75
2122.055	2772.63
2125.239	2736.02
2128.424	2709.44
2131.608	2820.13
2134.791	2803.46
2137.974	2867.57
2141.157	2849.99
2144.34	2796.53
2147.523	2817.4
2150.705	2830.27
2153.887	2811.6
2157.068	2754.39
2160.25	2757.64
2163.431	2801.62
2166.611	2742.94
2169.792	2756.73
2172.972	2644.72
2176.152	2729.65
2179.331	2769.12
2182.511	2749.62
2185.69	2780.02
2188.868	2775.14
2192.047	2833.36
2195.225	2821.59
2198.403	2764.39
2201.58	2759.14
2204.758	2756.35
2207.935	2842.03
2211.111	2723.44
2214.288	2704.99
2217.464	2746.35
2220.64	2719.39
2223.815	2774.65
2226.991	2694.52
2230.166	2716.69
2233.34	2746.69
2236.515	2774.98
2239.689	2850.52
2242.863	2792.41
2246.036	2850.1
2249.209	2852.42
2252.382	2889.19
2255.555	2873.61
2258.727	2808.24
2261.9	2848.88
2265.071	2839.29
2268.243	2842.56
2271.414	2767.54
2274.585	2727.09
2277.756	2797.78
2280.926	2751.99
2284.096	2797.67
2287.266	2695.05
2290.436	2756.26
2293.605	2783.76
2296.774	2814.7
2299.942	2841.48
2303.111	2858.34
2306.279	2910.06
2309.447	2894.4
2312.614	2868.91
2315.781	2889.08
2318.948	2854.67
2322.115	2898.39
2325.281	2794.16
2328.447	2819.35
2331.613	2793.43
2334.779	2760.66
2337.944	2763.37
2341.109	2759.46
2344.274	2744.02
2347.438	2707.96
2350.602	2734.3
2353.766	2751.92
2356.929	2736.44
2360.092	2779.4
2363.255	2729.49
2366.418	2656.67
2369.58	2778.86
2372.742	2544.73
2375.904	2565.7
2379.066	2536.15
2382.227	2574.19
2385.388	2536.31
2388.548	2455.41
2391.709	2516.41
2394.869	2494.16
2398.029	2598.6
2401.188	2614.63
2404.347	2543.03
2407.506	2703.23
2410.665	2729.32
2413.823	2737.6
2416.981	2689.71
2420.139	2725.27
2423.296	2778.37
2426.453	2748.87
2429.61	2773.15
2432.767	2702.36
2435.923	2740.92
2439.079	2697.26
2442.235	2750.26
2445.391	2671.98
2448.546	2701.18
2451.701	2753.47
2454.855	2720.16
2458.009	2777.13
2461.163	2781.34
2464.317	2739.45
2467.471	2775.01
2470.624	2818.55
2473.777	2795.63
2476.929	2803.82
2480.082	2832.04
2483.234	2794.26
2486.385	2750.51
2489.537	2741.27
2492.688	2700.16
2495.839	2716.67
2498.989	2728.44
2502.14	2709.84
2505.29	2689.4
2508.439	2715.32
2511.589	2636.13
2514.738	2648.04
2517.887	2678.85
2521.035	2745.27
2524.183	2732.46
2527.331	2709.02
2530.479	2680.88
2533.627	2691.23
