Data from N_3_DEC_NC_4N_Splice17_13-06-39-731.txt Node
Date: Sat Mar 14 13:06:39 EDT 2020
User: sa697716
Spectrometer: FLMS03696
Trigger mode: 0
Integration Time (sec): 3.180400E-1
Scans to average: 20
Electric dark correction enabled: true
Nonlinearity correction enabled: true
Boxcar width: 5
XAxis mode: Wavelengths
Number of Pixels in Spectrum: 2048
>>>>>Begin Spectral Data<<<<<
187.83	-221203.28
188.298	1739.2
188.766	1012.84
189.233	917.38
189.701	1271.36
190.169	1874.08
190.636	698.42
191.104	567.23
191.571	56.56
192.039	-92.8
192.506	-11.12
192.974	531.76
193.441	-800.75
193.908	18.36
194.375	-5.03
194.842	65.68
195.31	187.45
195.777	187.11
196.244	338.29
196.711	313.78
197.177	353.12
197.644	477.77
198.111	787.85
198.578	1108.38
199.045	847.71
199.511	1380.14
199.978	1557.51
200.445	1336.73
200.911	1479.86
201.378	1621.08
201.844	1494.17
202.31	2535.92
202.777	2641.84
203.243	1476.12
203.709	1392.33
204.176	1661.87
204.642	1387.76
205.108	1292.49
205.574	1035.43
206.04	910.65
206.506	858.87
206.972	773.52
207.438	740.11
207.903	830.73
208.369	744.59
208.835	748.17
209.301	787.7
209.766	781.56
210.232	771.68
210.697	944.01
211.163	1137.09
211.628	1670.24
212.094	1429.16
212.559	1834.57
213.024	1143.65
213.49	1390.17
213.955	1346.82
214.42	1273.41
214.885	1198.85
215.35	1167.67
215.815	1174.58
216.28	1259.95
216.745	1033.65
217.21	1121.92
217.675	982.17
218.14	1099.89
218.604	1192.12
219.069	1341.18
219.534	1434.07
219.998	1612.44
220.463	1917.01
220.927	2270.95
221.392	2114.89
221.856	2120.67
222.32	2622.6
222.785	3227.64
223.249	4021.55
223.713	4461.56
224.177	4446.41
224.642	5582.46
225.106	6848.22
225.57	7446.14
226.034	5604.37
226.497	8517.13
226.961	7738.39
227.425	8987.58
227.889	9943.6
228.353	9919.57
228.816	20520.42
229.28	19643.42
229.744	16572.64
230.207	10183.3
230.671	10023.51
231.134	16372
231.597	18919.9
232.061	18851.02
232.524	18318.86
232.987	12624.93
233.45	11390.97
233.914	10214.47
234.377	10413.96
234.84	9539.03
235.303	11182.37
235.766	12470.49
236.229	12907.72
236.691	8116.94
237.154	9097.8
237.617	6878.96
238.08	7029.25
238.542	8226.54
239.005	5880.54
239.468	5856.42
239.93	5524.43
240.393	5023.06
240.855	4411.45
241.317	4515.86
241.78	5477.08
242.242	5669.48
242.704	6146.12
243.166	5364.9
243.629	4907.72
244.091	5663.75
244.553	6204.5
245.015	6680.67
245.477	8648.13
245.939	12679.86
246.4	13495.03
246.862	13141.96
247.324	12402.3
247.786	13854.18
248.247	18108
248.709	18595.1
249.17	13920.37
249.632	13222.27
250.093	15371.46
250.555	13253.07
251.016	8128.1
251.477	7714.48
251.939	8350.44
252.4	8761.89
252.861	10391.08
253.322	9716.77
253.783	11530.97
254.244	14948.48
254.705	11727.86
255.166	10409.4
255.627	10299.24
256.088	14508.97
256.549	15442.42
257.009	13273.87
257.47	16104.69
257.931	13162.96
258.391	9866.98
258.852	10198.13
259.312	10679.52
259.773	13191.37
260.233	11220.76
260.694	9488.39
261.154	10778.12
261.614	8711.45
262.074	7797.23
262.534	8118.65
262.994	7648.44
263.455	10206.52
263.915	8626.72
264.374	8129.45
264.834	8883.66
265.294	9800.85
265.754	10156.27
266.214	9589.04
266.673	8938.54
267.133	11275.03
267.593	11169.69
268.052	13671.41
268.512	11868.59
268.971	14350.01
269.431	15778.35
269.89	14144.18
270.349	21212.88
270.809	23658.15
271.268	21326.04
271.727	47861.18
272.186	31044.37
272.645	23299.63
273.104	16768.68
273.563	24293.31
274.022	19052.85
274.481	16240.71
274.94	12514.85
275.399	9306.43
275.857	10794.02
276.316	14568.78
276.775	12974.86
277.233	12783.62
277.692	11996.18
278.15	13625.68
278.609	14075.94
279.067	13018.01
279.525	12120.49
279.984	15641.8
280.442	18806.6
280.9	18650.14
281.358	12284.76
281.816	11432.28
282.274	11196.72
282.732	11542.65
283.19	11578.23
283.648	9949.17
284.106	10581.54
284.564	10717.74
285.021	9953.71
285.479	7397.58
285.937	6691.01
286.394	5905.91
286.852	6090.47
287.309	6405.66
287.767	6232.74
288.224	5950.61
288.682	6529.15
289.139	7186.93
289.596	6586.94
290.053	6851.84
290.511	8682.56
290.968	10593.04
291.425	14337.32
291.882	11985.78
292.339	10449.88
292.796	10347.63
293.252	9728.44
293.709	7785.67
294.166	6983.59
294.623	7718.33
295.079	7385.94
295.536	7425.93
295.992	6743.19
296.449	6661.62
296.905	6913.45
297.362	6645.23
297.818	6989.43
298.274	7302.3
298.731	7400.29
299.187	7331.99
299.643	7891.47
300.099	9582.69
300.555	10519.24
301.011	8793.4
301.467	8534.69
301.923	9961.36
302.379	9726.14
302.835	9530.98
303.291	9508.96
303.746	10845.34
304.202	13689.66
304.658	13740.95
305.113	9223.03
305.569	9026.85
306.024	9615.59
306.479	9101.32
306.935	7692.53
307.39	8373.73
307.845	7751.73
308.301	7819.97
308.756	7610.49
309.211	7326.87
309.666	7470.18
310.121	9342.46
310.576	9498.92
311.031	9408.43
311.486	10766.54
311.94	10734.25
312.395	14367.38
312.85	26922
313.305	131397.42
313.759	683948.87
314.214	49693.7
314.668	39499.85
315.123	33133.28
315.577	11908.29
316.032	10613.29
316.486	13289.35
316.94	10538.21
317.394	7373.62
317.849	5742.72
318.303	5438.2
318.757	5138.81
319.211	5681.56
319.665	4978.86
320.119	5034.02
320.572	7198.87
321.026	6734.29
321.48	5606.83
321.934	6093.84
322.387	6085.05
322.841	6587.36
323.295	5969.6
323.748	6850.65
324.202	6958.7
324.655	8367.33
325.108	11774.1
325.562	8334.75
326.015	9890.79
326.468	7499.61
326.921	8385.09
327.374	7855.41
327.827	8192.65
328.28	9262.6
328.733	6221.38
329.186	5477.87
329.639	5213.12
330.092	4374.53
330.545	4164.36
330.997	4210.61
331.45	4618.95
331.903	5430.39
332.355	9277.71
332.808	8988.83
333.26	7413.99
333.713	8052.03
334.165	8069.42
334.617	10773.79
335.069	8683.97
335.522	15629.94
335.974	17345.99
336.426	15765.29
336.878	10868.23
337.33	5553.79
337.782	5443.41
338.234	6847.91
338.686	8184.19
339.137	9744.28
339.589	9206.83
340.041	7216.6
340.493	6233.5
340.944	6351.02
341.396	6858.88
341.847	5808.01
342.299	6883
342.75	8447.05
343.201	7350.7
343.653	8435.75
344.104	10365.09
344.555	8168.93
345.006	12652.81
345.457	9784.89
345.908	7788.95
346.359	7357.04
346.81	5994.66
347.261	6274.74
347.712	6125.49
348.163	6547.01
348.613	6683.73
349.064	6262.12
349.515	5469.6
349.965	5643.87
350.416	6736.96
350.866	7396.29
351.317	8307.89
351.767	13810.89
352.217	17514.45
352.668	14589.14
353.118	13456.26
353.568	12932.53
354.018	10249.72
354.468	10898.35
354.918	7826.49
355.368	6883.84
355.818	9739.86
356.268	27991.09
356.718	117293.8
357.168	29287.58
357.617	14714.22
358.067	16289.19
358.517	15243.61
358.966	17862.61
359.416	20028.33
359.865	21608.1
360.315	25623.52
360.764	11975.51
361.213	6755.49
361.663	6363.25
362.112	7839.04
362.561	12664.09
363.01	9567.82
363.459	8038.66
363.908	8709.54
364.357	7408.48
364.806	12469.88
365.255	8604.28
365.703	7923.22
366.152	7985.93
366.601	6506.47
367.05	5306.27
367.498	4835.37
367.947	5062.87
368.395	5283.06
368.844	4687.19
369.292	5626.89
369.74	3922.5
370.189	5978.82
370.637	6995.74
371.085	6000.9
371.533	7310.74
371.981	6984.47
372.429	6736.21
372.877	7041
373.325	5900.45
373.773	6007.95
374.221	5343.12
374.669	6626.49
375.116	5747.52
375.564	5795.81
376.012	6465.65
376.459	5331.45
376.907	6406.11
377.354	7693.29
377.801	7192.16
378.249	8305.56
378.696	10617.16
379.143	12889.45
379.591	13720.73
380.038	23377.92
380.485	16969.17
380.932	18447.14
381.379	17006.22
381.826	12613.73
382.273	8973.02
382.72	7821.49
383.166	7648.27
383.613	4987.51
384.06	4516.4
384.506	5271.46
384.953	3874.11
385.4	3909.64
385.846	3446.7
386.292	3362.51
386.739	3299.8
387.185	3283
387.631	3323.16
388.078	3279.77
388.524	3543
388.97	3315.75
389.416	2795.7
389.862	2997.4
390.308	2871.7
390.754	2951.67
391.2	3244.58
391.645	3391.14
392.091	3335.28
392.537	3296.46
392.983	3341.21
393.428	3363.95
393.874	3658.75
394.319	3781.42
394.765	3736.4
395.21	4003.42
395.655	3933.92
396.101	3864.18
396.546	3644.58
396.991	3858.94
397.436	3777.9
397.881	3863.74
398.326	3880.72
398.771	3902.77
399.216	3615.62
399.661	3438.37
400.106	3602.82
400.551	3867.56
400.995	3636.54
401.44	3765.52
401.885	3671.23
402.329	3848.02
402.774	3820.79
403.218	3819.94
403.663	3811.71
404.107	4057.15
404.551	4240.92
404.995	4046.59
405.44	4067.22
405.884	4298.75
406.328	4312.03
406.772	4454.13
407.216	4197.84
407.66	4212.95
408.104	4180.69
408.547	4077.63
408.991	4095.64
409.435	4074.87
409.879	4129.65
410.322	4182.23
410.766	4144.18
411.209	4056.49
411.653	4017.05
412.096	4053.77
412.54	4173.26
412.983	4244.63
413.426	4343.26
413.869	4436.4
414.312	4441.7
414.756	4380.97
415.199	4269.13
415.642	4227.64
416.085	4305.52
416.527	4346.29
416.97	4482.64
417.413	4302.16
417.856	4313.89
418.298	4315.52
418.741	4317.47
419.184	4337.64
419.626	4546.94
420.069	4572.89
420.511	4623.75
420.953	4559.92
421.396	4558.57
421.838	4493.52
422.28	4640.44
422.722	4704.87
423.164	4843.4
423.606	4833.68
424.048	4905.07
424.49	4716.43
424.932	4759.41
425.374	4759.05
425.816	4877.4
426.258	4957.89
426.699	4953.06
427.141	4788.89
427.582	4787.58
428.024	4715.99
428.465	4704.33
428.907	4640.73
429.348	4673.58
429.789	4741.25
430.231	4689.52
430.672	4815.57
431.113	4793.61
431.554	4874.37
431.995	4962.59
432.436	4971.51
432.877	5033.15
433.318	5060.97
433.759	5141.18
434.2	5210.18
434.64	5224.74
435.081	5310.95
435.522	5110.35
435.962	5022.8
436.403	4984.44
436.843	5132.25
437.284	5102.47
437.724	5022.94
438.164	5104.04
438.604	5035.91
439.045	4887.48
439.485	4736.48
439.925	4711.41
440.365	4666.65
440.805	4661.49
441.245	4652.08
441.685	4509.59
442.125	4509.48
442.564	4559.07
443.004	4462.33
443.444	4466.38
443.883	4496.92
444.323	4512.22
444.762	4571.61
445.202	4666.01
445.641	4761.6
446.081	4773.63
446.52	4846.61
446.959	4828.31
447.398	4748.51
447.837	4746.87
448.276	4715.26
448.716	4787.54
449.154	4840.44
449.593	4705.26
450.032	4674.15
450.471	4596.19
450.91	4595.55
451.349	4560.41
451.787	4532.43
452.226	4583.94
452.664	4562.65
453.103	4545.32
453.541	4537.09
453.98	4506.7
454.418	4541.43
454.856	4459.29
455.295	4439.41
455.733	4453.97
456.171	4469.02
456.609	4446.85
457.047	4435.84
457.485	4473.04
457.923	4465.78
458.361	4399.38
458.798	4418.27
459.236	4411.18
459.674	4461.48
460.111	4497.88
460.549	4467.18
460.987	4473.51
461.424	4486.06
461.862	4476.98
462.299	4431.06
462.736	4439.53
463.173	4466.72
463.611	4406.78
464.048	4399.46
464.485	4450.26
464.922	4437.18
465.359	4451.32
465.796	4367.58
466.233	4366.07
466.67	4344.13
467.106	4357.4
467.543	4357.44
467.98	4348.54
468.416	4303.88
468.853	4334.77
469.29	4257.09
469.726	4253.97
470.162	4180.05
470.599	4218.19
471.035	4225.13
471.471	4176.91
471.907	4210
472.344	4219.44
472.78	4244.62
473.216	4320.07
473.652	4274.19
474.088	4276.91
474.523	4270.69
474.959	4325.38
475.395	4295.41
475.831	4267.43
476.266	4291.57
476.702	4279.8
477.138	4232.01
477.573	4221.84
478.008	4202.1
478.444	4210.95
478.879	4229.1
479.314	4230.4
479.75	4206.88
480.185	4209.92
480.62	4228.03
481.055	4221.35
481.49	4214.09
481.925	4228.76
482.36	4219.84
482.795	4257.28
483.229	4283.55
483.664	4286.76
484.099	4232.21
484.534	4232.76
484.968	4215.15
485.403	4182.54
485.837	4143.84
486.271	4106.27
486.706	4097.15
487.14	4068.25
487.574	4020.76
488.009	4004.93
488.443	3981.73
488.877	4009.31
489.311	4010.26
489.745	4040.96
490.179	4057.21
490.613	4099.41
491.046	4114.8
491.48	4121.61
491.914	4103.55
492.348	4111.9
492.781	4117.38
493.215	4116.93
493.648	4126.34
494.082	4150.47
494.515	4134.67
494.948	4153.81
495.382	4165.85
495.815	4163.5
496.248	4161.42
496.681	4201.33
497.114	4230.13
497.547	4240.38
497.98	4256.46
498.413	4227.85
498.846	4223.6
499.279	4227.65
499.711	4216.21
500.144	4190.37
500.577	4195.16
501.009	4207.55
501.442	4207.73
501.874	4174.72
502.306	4161.6
502.739	4168.48
503.171	4226.75
503.603	4221.1
504.036	4234.74
504.468	4221.15
504.9	4233.22
505.332	4229.13
505.764	4213.1
506.196	4212.03
506.627	4236.35
507.059	4248.95
507.491	4248.28
507.923	4185.81
508.354	4201.87
508.786	4200.86
509.217	4232.05
509.649	4245.58
510.08	4273.67
510.512	4280.68
510.943	4277.95
511.374	4259.7
511.805	4277.91
512.237	4294.25
512.668	4355.54
513.099	4382.89
513.53	4393.81
513.961	4369.57
514.391	4387.98
514.822	4408.39
515.253	4445.73
515.684	4455.42
516.114	4485.02
516.545	4489.55
516.975	4513.44
517.406	4517.11
517.836	4484.51
518.267	4480.89
518.697	4521.54
519.127	4521.9
519.558	4528.79
519.988	4521.45
520.418	4535.18
520.848	4568.16
521.278	4571.47
521.708	4513.38
522.138	4523.13
522.567	4583.68
522.997	4613.21
523.427	4606.01
523.857	4598.06
524.286	4579.01
524.716	4581.63
525.145	4595.92
525.575	4591.62
526.004	4601.92
526.433	4625
526.863	4596.54
527.292	4545.14
527.721	4551.06
528.15	4570.91
528.579	4578.25
529.008	4603.96
529.437	4650.75
529.866	4665.7
530.295	4684.95
530.724	4685.02
531.152	4728.64
531.581	4740.08
532.01	4764.92
532.438	4768.78
532.867	4785.89
533.295	4810.98
533.723	4808.63
534.152	4789.92
534.58	4780.92
535.008	4731.4
535.436	4727.14
535.865	4735.71
536.293	4758.96
536.721	4776.94
537.149	4809.34
537.576	4784.1
538.004	4794.93
538.432	4801.82
538.86	4787.59
539.287	4795.19
539.715	4820.13
540.143	4822.65
540.57	4811.58
540.998	4804.96
541.425	4754.65
541.852	4719.16
542.28	4736.1
542.707	4711.05
543.134	4688.97
543.561	4690.59
543.988	4681.24
544.415	4689.96
544.842	4684.2
545.269	4673.5
545.696	4686.07
546.123	4729.99
546.549	4712.88
546.976	4687.51
547.403	4695.25
547.829	4707.31
548.256	4722.31
548.682	4724.96
549.108	4714.26
549.535	4722.49
549.961	4735.66
550.387	4708.53
550.813	4697.76
551.24	4721.75
551.666	4731.9
552.092	4714.72
552.518	4706.05
552.943	4691.92
553.369	4709.74
553.795	4723.78
554.221	4726.08
554.646	4717.66
555.072	4737.94
555.498	4743.88
555.923	4753.33
556.349	4776.86
556.774	4784.5
557.199	4777.38
557.625	4789.46
558.05	4772.45
558.475	4798.92
558.9	4793.5
559.325	4770.39
559.75	4757.56
560.175	4748.03
560.6	4738.74
561.025	4741.47
561.449	4751.45
561.874	4767.58
562.299	4774.12
562.723	4788.02
563.148	4755.04
563.572	4761.61
563.997	4785.86
564.421	4800.62
564.846	4798.07
565.27	4802.31
565.694	4787.68
566.118	4809.25
566.542	4821.57
566.966	4799.33
567.39	4782.53
567.814	4751.86
568.238	4745.71
568.662	4758.3
569.086	4766.07
569.509	4796.03
569.933	4767.57
570.357	4769.21
570.78	4734.68
571.204	4719.14
571.627	4715.15
572.05	4734.6
572.474	4756.41
572.897	4748.56
573.32	4748.15
573.743	4744.46
574.166	4709.63
574.589	4729.35
575.012	4721.51
575.435	4732.55
575.858	4723.12
576.281	4709.09
576.704	4685.66
577.126	4677.67
577.549	4673.17
577.972	4670.1
578.394	4663.85
578.817	4664.69
579.239	4636.24
579.661	4623.31
580.084	4602.38
580.506	4590.74
580.928	4606.56
581.35	4597.11
581.772	4602.61
582.194	4575.07
582.616	4549.47
583.038	4514.46
583.46	4492.88
583.882	4487.52
584.303	4506.13
584.725	4492.6
585.147	4473.34
585.568	4476.92
585.99	4472.74
586.411	4446.83
586.833	4451.24
587.254	4424.67
587.675	4443.12
588.096	4457.74
588.518	4423.37
588.939	4353.47
589.36	4334.63
589.781	4319.2
590.202	4244.71
590.623	4243.49
591.043	4264.44
591.464	4248.35
591.885	4247.52
592.305	4237.02
592.726	4203.3
593.147	4211.62
593.567	4203.09
593.987	4185.62
594.408	4170.01
594.828	4171.05
595.248	4149.56
595.669	4093.93
596.089	4077.17
596.509	4063.59
596.929	4025.56
597.349	4023.89
597.769	3989.59
598.189	3964.39
598.608	3959.22
599.028	3955.95
599.448	3948.82
599.867	3912.4
600.287	3899.97
600.706	3884.9
601.126	3855.93
601.545	3851.62
601.965	3850.27
602.384	3837.57
602.803	3848.88
603.222	3837.35
603.641	3822.27
604.061	3811.83
604.48	3800.13
604.898	3820.9
605.317	3832.37
605.736	3835.56
606.155	3821.05
606.574	3790.11
606.992	3798.35
607.411	3777.21
607.829	3750.89
608.248	3739.62
608.666	3733.08
609.085	3728.12
609.503	3702.7
609.921	3682.72
610.339	3684.36
610.758	3683.56
611.176	3668.15
611.594	3645.11
612.012	3639.16
612.43	3647.2
612.847	3662.66
613.265	3656.44
613.683	3665.25
614.101	3664.85
614.518	3656.53
614.936	3634.69
615.353	3598.17
615.771	3594.96
616.188	3600.47
616.606	3596.59
617.023	3586.09
617.44	3556.6
617.857	3555.17
618.274	3543.58
618.691	3533.78
619.108	3512.34
619.525	3495.55
619.942	3511.83
620.359	3517.37
620.776	3498.11
621.192	3478.45
621.609	3461.27
622.026	3464.88
622.442	3465.19
622.859	3462.27
623.275	3434.4
623.691	3440.52
624.108	3461.29
624.524	3490.41
624.94	3478.63
625.356	3494.32
625.772	3520.28
626.188	3543.06
626.604	3538.22
627.02	3517.52
627.436	3503.29
627.852	3510.17
628.268	3531.01
628.683	3498.16
629.099	3468.55
629.514	3453.89
629.93	3462.9
630.345	3473.31
630.761	3464.28
631.176	3475.88
631.591	3462.68
632.007	3449.37
632.422	3452.36
632.837	3429.69
633.252	3429.13
633.667	3413.25
634.082	3397.94
634.497	3370.72
634.911	3326.26
635.326	3329.61
635.741	3296.94
636.155	3285.29
636.57	3298.85
636.984	3307.6
637.399	3322.44
637.813	3336.72
638.228	3345.5
638.642	3372.6
639.056	3359.39
639.47	3376.92
639.884	3368.66
640.298	3367.54
640.712	3381.16
641.126	3366.57
641.54	3364.69
641.954	3376.51
642.368	3362.05
642.781	3352.88
643.195	3317.81
643.609	3334.96
644.022	3331.42
644.436	3332.46
644.849	3308.95
645.262	3285.53
645.676	3300.8
646.089	3291.12
646.502	3244.93
646.915	3236.53
647.328	3201.91
647.741	3209.31
648.154	3183.86
648.567	3182.59
648.98	3151.89
649.393	3166.2
649.805	3168.63
650.218	3160.24
650.631	3127.2
651.043	3126.89
651.456	3120.11
651.868	3128.89
652.28	3181.36
652.693	3209.24
653.105	3207.82
653.517	3209.82
653.929	3185.66
654.341	3183.09
654.753	3134.13
655.165	3152.96
655.577	3146.05
655.989	3139.86
656.401	3131.6
656.813	3040.35
657.224	3019.16
657.636	2984.48
658.047	2980.37
658.459	2969.14
658.87	2989.61
659.282	2993.19
659.693	2953.9
660.104	2933.06
660.515	2912.25
660.926	2927.62
661.338	2943.68
661.749	2944.45
662.159	2928.34
662.57	2936.43
662.981	2939.48
663.392	2926.88
663.803	2956.42
664.213	2964.56
664.624	2964.93
665.035	2992.29
665.445	2958.91
665.855	2942.37
666.266	2918.84
666.676	2921.72
667.086	2896.27
667.497	2896.42
667.907	2877.31
668.317	2844.05
668.727	2819.77
669.137	2823.36
669.547	2810.62
669.956	2815.96
670.366	2819.08
670.776	2818.69
671.186	2826.14
671.595	2827.32
672.005	2834.1
672.414	2821.33
672.824	2805.08
673.233	2823.22
673.642	2820.35
674.052	2818.66
674.461	2811.44
674.87	2815.84
675.279	2791.44
675.688	2790.42
676.097	2781.31
676.506	2756.96
676.915	2796.02
677.323	2792.38
677.732	2771.53
678.141	2756.32
678.549	2705.94
678.958	2692.19
679.366	2675.44
679.775	2682.36
680.183	2687.37
680.592	2686.6
681	2682.19
681.408	2633.8
681.816	2633.78
682.224	2634.42
682.632	2629.49
683.04	2685.42
683.448	2706.82
683.856	2727.28
684.264	2742.18
684.671	2749.88
685.079	2771.97
685.487	2798.68
685.894	2866.87
686.302	2895.37
686.709	2893.48
687.116	2907.38
687.524	2899.61
687.931	2889.38
688.338	2884.72
688.745	2881.78
689.152	2883.75
689.559	2901.36
689.966	2908.45
690.373	2865.97
690.78	2858.54
691.187	2889.22
691.593	2882.67
692	2867.98
692.407	2885.5
692.813	2920.55
693.22	2934.22
693.626	2955.62
694.032	2959.18
694.439	3003.75
694.845	3027.49
695.251	3073.85
695.657	3106.68
696.063	3184.67
696.469	3221.83
696.875	3250.09
697.281	3236.83
697.687	3232.61
698.093	3214.22
698.498	3239.2
698.904	3244.56
699.31	3285.41
699.715	3297.37
700.12	3351.59
700.526	3327.38
700.931	3365.73
701.337	3387.62
701.742	3393.29
702.147	3454.97
702.552	3462.07
702.957	3500.69
703.362	3498.36
703.767	3507.84
704.172	3529.7
704.577	3458.22
704.981	3486.44
705.386	3479.8
705.791	3447.79
706.195	3501.59
706.6	3488.99
707.004	3546.78
707.408	3498.19
707.813	3507.31
708.217	3478.88
708.621	3461.35
709.025	3537.97
709.43	3521.2
709.834	3561.04
710.237	3611.2
710.641	3579.49
711.045	3582.14
711.449	3560.48
711.853	3565.86
712.256	3582.83
712.66	3594.04
713.064	3636.1
713.467	3636.48
713.87	3686.26
714.274	3665.77
714.677	3692.3
715.08	3751.66
715.484	3808.83
715.887	3881.65
716.29	3948.76
716.693	4014.62
717.096	4099.91
717.499	4115.53
717.901	4076.94
718.304	4074.06
718.707	4097.29
719.109	4045.19
719.512	4053.69
719.915	3986.81
720.317	3975.74
720.719	4029.39
721.122	4027.45
721.524	4007.47
721.926	3983.27
722.328	4052.94
722.731	4023.7
723.133	4012.63
723.535	4123.03
723.937	4101.42
724.338	4106.39
724.74	4112.64
725.142	4075.32
725.544	4070.24
725.945	4088.01
726.347	4080.7
726.748	4074.17
727.15	4084.48
727.551	4058.05
727.952	4030.42
728.354	4006.67
728.755	4013
729.156	3992.83
729.557	3981.59
729.958	3911.36
730.359	3891.04
730.76	3906.53
731.161	3896.49
731.562	3909.98
731.962	3942.13
732.363	3925.46
732.763	3904.93
733.164	3952.11
733.564	3915.66
733.965	3852.56
734.365	3834.29
734.766	3862.12
735.166	3834.44
735.566	3786.46
735.966	3760.42
736.366	3752.98
736.766	3704.67
737.166	3728.16
737.566	3698.86
737.966	3680.88
738.365	3711.03
738.765	3707.11
739.165	3649.85
739.564	3629.17
739.964	3669.72
740.363	3640.09
740.763	3642.38
741.162	3636.57
741.561	3615.57
741.96	3582.84
742.36	3600.5
742.759	3609.12
743.158	3640.25
743.557	3652.74
743.955	3687.55
744.354	3650.7
744.753	3695.88
745.152	3664.02
745.55	3705.02
745.949	3697.03
746.348	3693.28
746.746	3701.93
747.144	3666.58
747.543	3645.08
747.941	3679.38
748.339	3616.25
748.737	3604.42
749.136	3590.66
749.534	3635.59
749.932	3607.86
750.33	3622.32
750.727	3662.56
751.125	3643.9
751.523	3630.03
751.921	3661.19
752.318	3631.15
752.716	3676.5
753.113	3685.79
753.511	3700.27
753.908	3695.95
754.305	3682.64
754.703	3725.25
755.1	3766.59
755.497	3802.06
755.894	3922.79
756.291	4006.64
756.688	4160.08
757.085	4334.24
757.482	4576.15
757.878	4811.92
758.275	4979.37
758.672	5262.83
759.068	5437.94
759.465	5737.63
759.861	6139.08
760.258	6601.11
760.654	6746.36
761.05	6581.14
761.447	6291.04
761.843	5955.5
762.239	5630.97
762.635	5547.62
763.031	5456.98
763.427	5263.72
763.822	5058.5
764.218	4865.33
764.614	4566.98
765.01	4399.74
765.405	4324.27
765.801	4287.38
766.196	4180.51
766.592	4154.61
766.987	4031.1
767.382	3956.99
767.778	3955.66
768.173	3915.06
768.568	3901.7
768.963	3839.67
769.358	3875.25
769.753	3860.07
770.148	3810.68
770.542	3821.85
770.937	3803.17
771.332	3872.05
771.726	3888.03
772.121	3843.95
772.515	3880.84
772.91	3868.39
773.304	3922.95
773.699	3871.37
774.093	3905.39
774.487	3942.71
774.881	3968.98
775.275	3961.46
775.669	3925.05
776.063	3954.35
776.457	3974.93
776.851	3917.74
777.245	3908.23
777.638	3920.01
778.032	3994.23
778.425	3963.73
778.819	3987.68
779.212	3954.09
779.606	3922.98
779.999	3930.6
780.392	3910.04
780.786	3958.93
781.179	3963.58
781.572	3983.94
781.965	3989.08
782.358	3941.48
782.751	3971.41
783.143	3925.2
783.536	3962.87
783.929	3978.82
784.322	4045.7
784.714	4053.58
785.107	4037.22
785.499	4074.28
785.891	4039.85
786.284	4006.49
786.676	4079.57
787.068	4044.23
787.46	4059.68
787.852	4051.5
788.245	4090.47
788.636	4086.14
789.028	4109.6
789.42	4118.71
789.812	4104.23
790.204	4154.09
790.595	4206.23
790.987	4072.72
791.378	4079.88
791.77	4153.94
792.161	4230.23
792.553	4251.77
792.944	4174.34
793.335	4117.49
793.726	4149.07
794.117	4194.47
794.508	4267.23
794.899	4236.11
795.29	4313.85
795.681	4336.88
796.072	4234.46
796.463	4118.57
796.853	4115.54
797.244	4195.75
797.634	4207.21
798.025	4195.19
798.415	4185.69
798.806	4228.42
799.196	4262.55
799.586	4272.67
799.976	4229.81
800.366	4346.28
800.756	4453.72
801.146	4403.17
801.536	4404.6
801.926	4427.58
802.316	4425.28
802.706	4455.83
803.095	4369.29
803.485	4414.27
803.874	4426.66
804.264	4563.77
804.653	4537.08
805.043	4611.59
805.432	4664.19
805.821	4649.98
806.21	4646.95
806.599	4691.55
806.988	4693.27
807.377	4720.99
807.766	4762.3
808.155	4884.11
808.544	4706.07
808.933	4679.46
809.321	4631.44
809.71	4745.2
810.098	4780.03
810.487	4965.96
810.875	5157.72
811.264	5104.63
811.652	5199.4
812.04	5200.65
812.428	5211.13
812.816	5500.55
813.204	5618.85
813.592	5787.27
813.98	5864.83
814.368	5755.57
814.756	5914.02
815.144	5818.69
815.531	5979.18
815.919	5891.61
816.306	5993.02
816.694	5826.6
817.081	5839.37
817.469	5990.7
817.856	6000.15
818.243	6128.71
818.63	6310.88
819.017	6128.67
819.404	6141.56
819.791	6271.63
820.178	6494.98
820.565	6575.2
820.952	6963.85
821.339	6738.5
821.725	6800.32
822.112	6463.63
822.498	6426.76
822.885	6451.92
823.271	6399.18
823.657	6582.66
824.044	6611.99
824.43	6660.22
824.816	6658.01
825.202	6456.36
825.588	6855.53
825.974	6830.57
826.36	7013.09
826.746	6992.02
827.132	7110.18
827.517	7070.65
827.903	6713.24
828.289	6698.99
828.674	6358.69
829.06	6290.97
829.445	6426.62
829.83	6560.71
830.216	6733.95
830.601	6867.03
830.986	6701.1
831.371	6635.1
831.756	6849.25
832.141	6682.22
832.526	6669.42
832.911	6783.95
833.295	6731.46
833.68	6916.53
834.065	6666.16
834.449	6303.87
834.834	6277.07
835.218	6266.29
835.603	6403.32
835.987	6309.01
836.371	6622.29
836.755	6575.41
837.139	6719.16
837.524	6804.03
837.908	6729.63
838.291	6749.86
838.675	6764.72
839.059	6831.12
839.443	6815.65
839.827	6710.74
840.21	6888.97
840.594	6821.25
840.977	6888.1
841.361	6869.28
841.744	6998
842.127	6927.41
842.511	7005.4
842.894	7222.85
843.277	7361.36
843.66	7556.02
844.043	7573.03
844.426	7252.06
844.809	7116.88
845.191	7124.14
845.574	6937.55
845.957	6788.8
846.339	6736.89
846.722	6518.15
847.104	6525.07
847.487	6436.85
847.869	6420.09
848.252	6505.34
848.634	6611.21
849.016	6693.04
849.398	6715.17
849.78	7006.48
850.162	6992.69
850.544	7115.64
850.926	7312.93
851.307	7246.86
851.689	7322.83
852.071	7454.02
852.452	7552.42
852.834	7524.43
853.215	7658.79
853.597	7695.54
853.978	7792.18
854.359	7939.28
854.741	7581.68
855.122	7552.19
855.503	7458.26
855.884	7517.03
856.265	7507.23
856.646	7540.19
857.026	7396.36
857.407	7363.61
857.788	7415.75
858.169	7504.99
858.549	7200.92
858.93	7414.59
859.31	7426.87
859.69	7497.62
860.071	7336.15
860.451	7247.17
860.831	6975.54
861.211	7364.63
861.591	7540.08
861.971	7515.27
862.351	7566.61
862.731	7673.4
863.111	7738.85
863.491	7828.59
863.87	8100.66
864.25	8194.99
864.629	8041.31
865.009	8198.42
865.388	8478.57
865.768	9059.57
866.147	9004.92
866.526	8491.04
866.905	8586.11
867.284	9060.45
867.663	8596.24
868.042	8243.51
868.421	8216.66
868.8	8344.99
869.179	8426.96
869.558	7929.45
869.936	7311.07
870.315	7435.46
870.693	7615
871.072	8200.02
871.45	7807.35
871.828	7905.81
872.207	8297.59
872.585	8158.32
872.963	8361.84
873.341	8067.47
873.719	7973.29
874.097	7870.01
874.475	8009.51
874.853	8187.1
875.23	7841.06
875.608	8159.96
875.986	8812.23
876.363	8420.23
876.741	8686.85
877.118	8478.3
877.495	8880.08
877.873	9011.47
878.25	9466.44
878.627	9073.58
879.004	9184.47
879.381	9134.72
879.758	8894.46
880.135	8278.89
880.512	8752.68
880.889	8494.41
881.265	8392.55
881.642	8318.13
882.019	8442.35
882.395	8272.57
882.772	8597.37
883.148	8218.46
883.524	8175.43
883.901	8111.61
884.277	8216.44
884.653	8150.26
885.029	8387.97
885.405	9281.87
885.781	9203.78
886.157	8818.95
886.532	8907.84
886.908	8885.78
887.284	9869.95
887.659	10187.96
888.035	10489.95
888.411	10756.3
888.786	10883.64
889.161	11252.49
889.537	11030.47
889.912	11364.77
890.287	11336.72
890.662	11605.17
891.037	11374.48
891.412	10579.96
891.787	10439.27
892.162	10053.18
892.536	10255.13
892.911	9844.77
893.286	9593.42
893.66	9161.62
894.035	9355.9
894.409	10143.19
894.784	9704.71
895.158	9821.86
895.532	10365.82
895.906	10606.91
896.281	10814.05
896.655	10605.7
897.029	12073.33
897.402	12515.11
897.776	13898.05
898.15	13801.62
898.524	13626.3
898.898	13766.33
899.271	15394.37
899.645	13321.03
900.018	12777.09
900.392	13241.6
900.765	13339.38
901.138	12348.37
901.511	12185.39
901.884	11206.38
902.258	10364.97
902.631	10728.05
903.003	12366.89
903.376	11165.18
903.749	12526.65
904.122	13423.4
904.495	14777.4
904.867	14945.17
905.24	12964.99
905.612	12047.4
905.985	12288.53
906.357	12809.89
906.729	12195.52
907.102	10387.31
907.474	9973.97
907.846	10022.5
908.218	9882
908.59	8731.95
908.962	8436.92
909.334	9065.26
909.705	9532.34
910.077	9247.14
910.449	9623.45
910.82	9877.64
911.192	10863.27
911.563	11283.68
911.935	12049.15
912.306	12042.23
912.677	12405.14
913.048	12293.18
913.419	13325.71
913.79	13375.7
914.161	14342.58
914.532	13713.59
914.903	12607.11
915.274	11964.19
915.645	11778.67
916.015	10360.68
916.386	9876.54
916.756	10525.01
917.127	10847.51
917.497	9717.55
917.868	10583.27
918.238	10052.16
918.608	10341.78
918.978	10570.15
919.348	11208.18
919.718	11598.26
920.088	11187.48
920.458	11652.18
920.828	12243.01
921.198	11622.02
921.567	12398.46
921.937	9602.87
922.306	9684.98
922.676	10429.18
923.045	8698.37
923.415	8272.87
923.784	7527.33
924.153	7747.97
924.522	7734.65
924.891	7264.45
925.26	7765.34
925.629	7570.91
925.998	8681.14
926.367	8469.41
926.736	8062.26
927.104	9566.88
927.473	10235
927.842	12309.56
928.21	12121.75
928.578	12655.69
928.947	11956.79
929.315	11990.87
929.683	14017.73
930.051	14070.72
930.42	16274.12
930.788	13846.49
931.156	13684.31
931.523	12813.59
931.891	11811.75
932.259	11314.81
932.627	13099.16
932.994	18416.26
933.362	15174.12
933.729	13131.17
934.097	12518.29
934.464	10582.94
934.831	12164.06
935.199	11969.14
935.566	11567.68
935.933	11675.07
936.3	14139.76
936.667	10996.57
937.034	10035.55
937.401	9920.3
937.767	8562.69
938.134	7649.46
938.501	10795.97
938.867	11564.2
939.234	19619.76
939.6	16762.18
939.967	18559.37
940.333	12475.59
940.699	10639
941.065	8430.74
941.431	11084.59
941.798	10780.76
942.163	14213.45
942.529	8863.54
942.895	8146.19
943.261	5274.27
943.627	6946.91
943.992	6097.38
944.358	6102.3
944.723	6153.47
945.089	6015.46
945.454	5569.43
945.82	5905.65
946.185	5662.56
946.55	6577.34
946.915	5901.93
947.28	6910.55
947.645	6079.33
948.01	5628.84
948.375	5873.96
948.74	7009.9
949.104	8164.53
949.469	11738.41
949.834	20799.6
950.198	19786.31
950.562	11877.52
950.927	9933.65
951.291	11973.86
951.655	10197.21
952.02	9531.2
952.384	7211.59
952.748	6306.75
953.112	6191.41
953.476	5403.01
953.839	4986.66
954.203	4948.59
954.567	6177.05
954.931	9632.4
955.294	8249.06
955.658	8269.55
956.021	14015.28
956.385	23654.75
956.748	34916.85
957.111	53802.41
957.474	60212.79
957.837	67608
958.2	50852.48
958.563	18239.94
958.926	12405.39
959.289	18761.76
959.652	21024
960.015	15860.04
960.377	22817.06
960.74	25971.07
961.102	44756.77
961.465	48341.77
961.827	26423.45
962.189	50765.04
962.552	35358.73
962.914	28343.38
963.276	18455.95
963.638	15293.23
964	15150.17
964.362	10268
964.724	9903.41
965.085	7074.26
965.447	5781.25
965.809	6478.08
966.17	6478.61
966.532	7008.22
966.893	6445.07
967.255	5854.2
967.616	6904.18
967.977	5533.55
968.338	6042.45
968.699	4993.66
969.061	4997.09
969.421	5049.27
969.782	5668.26
970.143	4822.17
970.504	5036.3
970.865	5745.62
971.225	5910.18
971.586	5786.56
971.946	8234.55
972.307	7134.28
972.667	9284.95
973.027	9587.63
973.388	11600.97
973.748	7902.48
974.108	8582.93
974.468	11496.86
974.828	8909.47
975.188	6815.56
975.548	6243.35
975.907	5238.19
976.267	5867.85
976.627	4962.39
976.986	5144.52
977.346	4900.23
977.705	4711.24
978.064	4288.26
978.424	3583.69
978.783	3673.11
979.142	4201.03
979.501	4038.07
979.86	4294.66
980.219	4157.2
980.578	5338.79
980.937	5958.73
981.296	5313.77
981.654	5492.18
982.013	8532.69
982.371	11075.2
982.73	10379.06
983.088	11778.94
983.447	12608.83
983.805	18090.51
984.163	37685.93
984.521	41923.03
984.879	61391.24
985.237	-100327.93
985.595	96931.61
985.953	24095.98
986.311	13860.82
986.669	8057.29
987.026	6944.94
987.384	9254.29
987.741	9498.96
988.099	6869.53
988.456	5484.75
988.814	5181.94
989.171	4486.35
989.528	4389.12
989.885	4649.55
990.242	3715.4
990.599	4601.69
990.956	3763.93
991.313	2648.26
991.67	2185.54
992.027	2346.14
992.383	2094.52
992.74	1842.15
993.096	1947.36
993.453	2028.64
993.809	2100.82
994.165	2797.5
994.522	2625.28
994.878	2902.42
995.234	3631.07
995.59	3566.56
995.946	3287.04
996.302	3734.76
996.658	4303.88
997.013	4733
997.369	5677.71
997.725	7278.3
998.08	4699.06
998.436	7068.79
998.791	9748.49
999.147	9790.71
999.502	10703.24
999.857	7827.7
1000.212	12786.49
1000.567	18284.46
1000.922	10563.54
1001.277	6645.79
1001.632	4934.95
1001.987	6361.6
1002.342	4562.06
1002.696	3639.86
1003.051	2911.57
1003.406	3531.55
1003.76	3493.69
1004.114	3443.86
1004.469	2890.8
1004.823	2402.32
1005.177	2585.67
1005.531	2059.8
1005.885	1842.97
1006.239	2110.48
1006.593	2674.02
1006.947	3610.72
1007.301	2713.23
1007.655	2998.77
1008.008	2205.78
1008.362	2478.66
1008.715	3524.67
1009.069	3192.58
1009.422	4847.71
1009.776	9646.18
1010.129	6376.37
1010.482	5302.69
1010.835	4404.83
1011.188	9183.46
1011.541	8563.03
1011.894	-52282.79
1012.247	155570.48
1012.6	10494.61
1012.952	6667.34
1013.305	3385.51
1013.657	2459.83
1014.01	2322.09
1014.362	1909.74
1014.715	1768.46
1015.067	1549.61
1015.419	1527.85
1015.771	1362.08
1016.123	1205.16
1016.475	1250.56
1016.827	1329.24
1017.179	1456.59
1017.531	1463.05
1017.883	1478.72
1018.234	1479.08
1018.586	1837.74
1018.938	1994.28
1019.289	2784.49
1019.64	3161.3
1019.992	2931.68
1020.343	2656.77
1020.694	2169.93
1021.045	1907.07
1021.396	2192.53
1021.747	2388.09
1022.098	2805.02
1022.449	2016.59
1022.8	1840.96
1023.151	1280.93
1023.501	1165.22
1023.852	1266.02
1024.202	1357.22
1024.553	1459.8
1024.903	1454.42
1025.253	1254.27
1025.604	1147.67
1025.954	1402.96
1026.304	1710.64
1026.654	2005.12
1027.004	2890.71
1027.354	4560.41
1027.703	4364.29
1028.053	5606.72
1028.403	8158.59
1028.753	11506.43
1029.102	15390.93
1029.452	76866.87
1029.801	3347.36
1030.15	2164.99
1030.499	1777.71
897.758	2697.62
901.051	2652.81
904.343	2687.31
907.636	2689.14
910.928	2752.7
914.22	2663.49
917.511	2670.86
920.803	2731.61
924.094	2753.9
927.384	2732.49
930.675	2696.09
933.965	2646.41
937.255	2655.8
940.544	2623.48
943.834	2559.79
947.123	2504.68
950.411	2601
953.7	2574.32
956.988	2545.76
960.276	2481.6
963.563	2564.46
966.851	2560.63
970.138	2618.7
973.424	2612.59
976.711	2560.51
979.997	2697.78
983.283	2731.37
986.568	2633.75
989.853	2652.19
993.138	2678.74
996.423	2761.83
999.708	2696.6
1002.992	2761.75
1006.275	2594.71
1009.559	2642.56
1012.842	2759.98
1016.125	2690.45
1019.408	2667.92
1022.69	2757.53
1025.972	2774.32
1029.254	2747.48
1032.536	2679.34
1035.817	2707.81
1039.098	2648.66
1042.379	2800.08
1045.659	2793.53
1048.939	2726.39
1052.219	2746.03
1055.498	2759.33
1058.778	2743.74
1062.057	2730.01
1065.335	2750.23
1068.614	2771.27
1071.892	2752.09
1075.17	2830.41
1078.447	2815.36
1081.724	2808.07
1085.001	2844.72
1088.278	2818.06
1091.554	2833.12
1094.83	2826.65
1098.106	2854.98
1101.382	2900.37
1104.657	2899.72
1107.932	2897.32
1111.206	2860.71
1114.481	2818.63
1117.755	2819.4
1121.029	2799.53
1124.302	2852.78
1127.575	2803.44
1130.848	2792.55
1134.121	2749.72
1137.393	2699.67
1140.665	2767.59
1143.937	2740.54
1147.208	2701.86
1150.48	2741.45
1153.75	2728.66
1157.021	2760.19
1160.291	2731.93
1163.561	2776.3
1166.831	2765.35
1170.101	2799.31
1173.37	2774.91
1176.639	2717.19
1179.907	2777.75
1183.176	2781.24
1186.444	2786.17
1189.711	2815.87
1192.979	2825.66
1196.246	2782.35
1199.513	2798.96
1202.78	2798.56
1206.046	2805.82
1209.312	2832.36
1212.578	2858.15
1215.843	2809.28
1219.108	2783.83
1222.373	2808.82
1225.638	2771.77
1228.902	2756
1232.166	2721.01
1235.43	2704.02
1238.693	2726.05
1241.956	2724.58
1245.219	2761.19
1248.482	2753.25
1251.744	2746.83
1255.006	2899.75
1258.268	2856.36
1261.529	2798.66
1264.79	2806.44
1268.051	2909.26
1271.312	2927.44
1274.572	2887.55
1277.832	2877.91
1281.092	2867.92
1284.351	2841.01
1287.61	2819.28
1290.869	2734.48
1294.128	2708.51
1297.386	2799.82
1300.644	2789
1303.902	2801.18
1307.159	2657.57
1310.416	2713.87
1313.673	2739.8
1316.93	2725.47
1320.186	2771.26
1323.442	2817.83
1326.697	2803.53
1329.953	2794.32
1333.208	2818.3
1336.463	2798.57
1339.717	2736.43
1342.972	2875.53
1346.226	2855.04
1349.479	2784.82
1352.733	2754.96
1355.986	2780.36
1359.238	2753.56
1362.491	2759.39
1365.743	2764.22
1368.995	2758.44
1372.247	2771.34
1375.498	2797.55
1378.749	2810.78
1382	2763.76
1385.251	2819.42
1388.501	2781.57
1391.751	2763.61
1395	2738.31
1398.25	2769.05
1401.499	2774.64
1404.748	2701.42
1407.996	2693.85
1411.244	2677.75
1414.492	2658.66
1417.74	2638.05
1420.987	2645.15
1424.234	2702.72
1427.481	2685.54
1430.728	2741.82
1433.974	2716.3
1437.22	2731.57
1440.465	2732.81
1443.711	2693.69
1446.956	2729.91
1450.201	2718.15
1453.445	2761.44
1456.689	2742.18
1459.933	2753.27
1463.177	2786.23
1466.42	2756.64
1469.663	2736.42
1472.906	2731.08
1476.148	2807.52
1479.391	2766.71
1482.633	2735.94
1485.874	2746.39
1489.115	2732.51
1492.356	2737.56
1495.597	2712.39
1498.838	2715.39
1502.078	2684.89
1505.318	2634.45
1508.557	2676.96
1511.797	2652.42
1515.036	2720.41
1518.274	2711.59
1521.513	2684.05
1524.751	2705.85
1527.989	2718.52
1531.227	2732.32
1534.464	2723.61
1537.701	2743.19
1540.938	2761.68
1544.174	2713.28
1547.41	2713.08
1550.646	2754.97
1553.882	2787.09
1557.117	2841.75
1560.352	2857.23
1563.587	2815.51
1566.821	2772.04
1570.055	2808.27
1573.289	2778.65
1576.523	2855.4
1579.756	2862.78
1582.989	2879.34
1586.222	2839.34
1589.454	2881.83
1592.686	2852.55
1595.918	2876.94
1599.15	2864.48
1602.381	2943.1
1605.612	2894.81
1608.843	2994.13
1612.073	2906.47
1615.303	2891.06
1618.533	2882.32
1621.762	2884.08
1624.992	2871.23
1628.221	2854.82
1631.449	2840.07
1634.678	2897.42
1637.906	2850.77
1641.134	2890.82
1644.361	2844.75
1647.588	2835.35
1650.815	2851.32
1654.042	2829.59
1657.269	2862.67
1660.495	2812.91
1663.72	2837.03
1666.946	2801.66
1670.171	2742.93
1673.396	2718.05
1676.621	2707.47
1679.845	2730.49
1683.069	2750.81
1686.293	2794.09
1689.517	2762.69
1692.74	2690.25
1695.963	2721.32
1699.185	2736.13
1702.408	2711.19
1705.63	2754.33
1708.852	2764.09
1712.073	2736.13
1715.294	2718.16
1718.515	2779.62
1721.736	2727.33
1724.956	2725.83
1728.176	2753.25
1731.396	2774.24
1734.616	2761.79
1737.835	2788.2
1741.054	2769.3
1744.272	2764.07
1747.491	2794.81
1750.709	2850.01
1753.927	2752.03
1757.144	2798.53
1760.361	2838.14
1763.578	2830.57
1766.795	2773.49
1770.011	2780.28
1773.227	2822.05
1776.443	2855.93
1779.658	2901.59
1782.874	2846.56
1786.089	2822.47
1789.303	2825.17
1792.518	2832.08
1795.732	2818.26
1798.945	2829.06
1802.159	2879.09
1805.372	2779.51
1808.585	2764.28
1811.797	2766.68
1815.01	2817.53
1818.222	2816.6
1821.434	2791.4
1824.645	2851.88
1827.856	2832.83
1831.067	2869.79
1834.278	2830.59
1837.488	2811.56
1840.698	2964.07
1843.908	2888.14
1847.117	2847.98
1850.326	2730.45
1853.535	2839.22
1856.744	2864.85
1859.952	2778.95
1863.16	2780.97
1866.368	2805.92
1869.575	2907.17
1872.782	2792.33
1875.989	2733.86
1879.196	2819.53
1882.402	2813.48
1885.608	2855.92
1888.814	2752.98
1892.019	2648.04
1895.224	2700.57
1898.429	2683.4
1901.634	2658.93
1904.838	2636.69
1908.042	2686.97
1911.246	2692.92
1914.449	2622.91
1917.652	2620.25
1920.855	2601.04
1924.058	2654.31
1927.26	2690.41
1930.462	2719.14
1933.664	2744.84
1936.865	2682.48
1940.066	2688.15
1943.267	2636.28
1946.467	2652.39
1949.668	2680.54
1952.868	2748.31
1956.067	2725.24
1959.267	2656.16
1962.466	2684.88
1965.665	2666.45
1968.863	2662.11
1972.061	2678.17
1975.259	2681.74
1978.457	2761.47
1981.654	2715.51
1984.852	2715.11
1988.048	2647.98
1991.245	2653.67
1994.441	2736.86
1997.637	2722.26
2000.833	2707.73
2004.028	2745.71
2007.223	2800.2
2010.418	2774.19
2013.613	2736.48
2016.807	2708.04
2020.001	2718.1
2023.194	2763.67
2026.388	2734.31
2029.581	2682.97
2032.774	2733.09
2035.966	2736.35
2039.158	2667.26
2042.35	2695.77
2045.542	2621.57
2048.733	2723.75
2051.924	2747.84
2055.115	2775.59
2058.306	2716.68
2061.496	2779.03
2064.686	2844.68
2067.875	2757.13
2071.065	2771.25
2074.254	2800.29
2077.442	2752.44
2080.631	2842.07
2083.819	2731.13
2087.007	2713.65
2090.195	2681.79
2093.382	2719.39
2096.569	2699.37
2099.756	2649.83
2102.942	2675.15
2106.128	2680.98
2109.314	2673.53
2112.5	2634.16
2115.685	2609.11
2118.87	2619.16
2122.055	2686.21
2125.239	2651.99
2128.424	2623.82
2131.608	2731.13
2134.791	2712.67
2137.974	2771.53
2141.157	2757.54
2144.34	2705.76
2147.523	2722.9
2150.705	2738.86
2153.887	2718.61
2157.068	2664.05
2160.25	2667.34
2163.431	2708.04
2166.611	2649.09
2169.792	2666.85
2172.972	2557.81
2176.152	2640.71
2179.331	2675.08
2182.511	2656.11
2185.69	2686.54
2188.868	2678.04
2192.047	2736.57
2195.225	2726.42
2198.403	2674.97
2201.58	2667.69
2204.758	2662.12
2207.935	2747.22
2211.111	2632.67
2214.288	2616.54
2217.464	2654.47
2220.64	2628.66
2223.815	2686.18
2226.991	2604.53
2230.166	2624.35
2233.34	2651.72
2236.515	2682.31
2239.689	2755.97
2242.863	2698.47
2246.036	2752.71
2249.209	2758.01
2252.382	2797.12
2255.555	2779.37
2258.727	2715.74
2261.9	2758.04
2265.071	2751
2268.243	2751.78
2271.414	2680.44
2274.585	2642.33
2277.756	2712.73
2280.926	2668.88
2284.096	2708.38
2287.266	2611.12
2290.436	2670.06
2293.605	2699.37
2296.774	2729.38
2299.942	2752.68
2303.111	2769.48
2306.279	2818.6
2309.447	2802.78
2312.614	2775.98
2315.781	2795.01
2318.948	2763.46
2322.115	2803.06
2325.281	2704.35
2328.447	2721.74
2331.613	2700.43
2334.779	2669.15
2337.944	2673.19
2341.109	2669.61
2344.274	2652.6
2347.438	2618.18
2350.602	2643.77
2353.766	2662.66
2356.929	2647.46
2360.092	2688.42
2363.255	2642.4
2366.418	2569.83
2369.58	2687.49
2372.742	2469.83
2375.904	2485.33
2379.066	2460.13
2382.227	2497.09
2385.388	2459.89
2388.548	2384.32
2391.709	2441.08
2394.869	2421.87
2398.029	2524.49
2401.188	2538.12
2404.347	2468.18
2407.506	2614.85
2410.665	2645.98
2413.823	2653.9
2416.981	2609.76
2420.139	2640.95
2423.296	2691.19
2426.453	2664.02
2429.61	2686.96
2432.767	2616.77
2435.923	2656.93
2439.079	2622.63
2442.235	2671.93
2445.391	2595.79
2448.546	2625.44
2451.701	2674.35
2454.855	2645.29
2458.009	2702.13
2461.163	2704.89
2464.317	2662.47
2467.471	2696.34
2470.624	2735.58
2473.777	2704.3
2476.929	2718.01
2480.082	2744.05
2483.234	2705.2
2486.385	2663.19
2489.537	2655.4
2492.688	2612.73
2495.839	2629.99
2498.989	2642.02
2502.14	2628.39
2505.29	2608.8
2508.439	2637.22
2511.589	2557.61
2514.738	2571.61
2517.887	2603.69
2521.035	2668.26
2524.183	2651.57
2527.331	2631.04
2530.479	2604.47
2533.627	2615.71
