Data from N_3_DIV_OH_2N_Splice17_12-49-50-580.txt Node
Date: Sat Mar 14 12:49:50 EDT 2020
User: sa697716
Spectrometer: FLMS03696
Trigger mode: 0
Integration Time (sec): 3.180400E-1
Scans to average: 20
Electric dark correction enabled: true
Nonlinearity correction enabled: true
Boxcar width: 5
XAxis mode: Wavelengths
Number of Pixels in Spectrum: 2048
>>>>>Begin Spectral Data<<<<<
187.83	-356596.92
188.298	2628.79
188.766	1427.2
189.233	1350.43
189.701	1961.41
190.169	2656.81
190.636	1001.36
191.104	877.97
191.571	187.7
192.039	-32.76
192.506	32.32
192.974	651.28
193.441	-1046.71
193.908	-254.66
194.375	-8.99
194.842	116.03
195.31	171.09
195.777	186.39
196.244	459.08
196.711	523.5
197.177	654.57
197.644	957.32
198.111	1637.96
198.578	2289.21
199.045	1818
199.511	2988.3
199.978	3455.3
200.445	2958.22
200.911	3266.81
201.378	3647.69
201.844	3334.5
202.31	5676.09
202.777	5880.37
203.243	3269.77
203.709	3131.94
204.176	3743.07
204.642	3068.83
205.108	2868.4
205.574	2318.94
206.04	2112.59
206.506	1972.66
206.972	1849.51
207.438	1802.45
207.903	2065.41
208.369	1803.09
208.835	1809.49
209.301	1897.12
209.766	1940.75
210.232	1935.01
210.697	2406.41
211.163	3002.29
211.628	4537.43
212.094	3828.01
212.559	4648.03
213.024	2891.37
213.49	3528.64
213.955	3402.89
214.42	3314.92
214.885	3094.73
215.35	2965.71
215.815	2855.21
216.28	3008.22
216.745	2436.25
217.21	2633.15
217.675	2400.33
218.14	2675.91
218.604	2949.32
219.069	3358.1
219.534	3532
219.998	4087.64
220.463	4942.44
220.927	6046.12
221.392	5685
221.856	5777.7
222.32	7256.12
222.785	8988.79
223.249	11316.77
223.713	12664.64
224.177	12651.14
224.642	16204.81
225.106	19922.4
225.57	21744.39
226.034	16210.1
226.497	24597.88
226.961	22154.7
227.425	25775.07
227.889	28550.7
228.353	28552.34
228.816	58905.51
229.28	56345.84
229.744	47466.92
230.207	28859.11
230.671	28330.32
231.134	46761.96
231.597	53967.09
232.061	53810.91
232.524	52461.27
232.987	36103.67
233.45	32423.59
233.914	29087.56
234.377	29777.85
234.84	27221.43
235.303	32054.71
235.766	35795.34
236.229	36969.81
236.691	23261.33
237.154	26147.11
237.617	19681.29
238.08	20147.36
238.542	23608.02
239.005	16855.62
239.468	16727.32
239.93	15753.71
240.393	14310.78
240.855	12546.88
241.317	12848.18
241.78	15639.15
242.242	16163.42
242.704	17414.11
243.166	15138.09
243.629	13725.58
244.091	15807.62
244.553	17305.49
245.015	18603.75
245.477	24028.24
245.939	35192.98
246.4	37289.68
246.862	36190.05
247.324	34104.63
247.786	38176.66
248.247	50053.39
248.709	51674.8
249.17	38633.96
249.632	36451.05
250.093	42212.2
250.555	36447
251.016	22219.65
251.477	21076.9
251.939	22737.86
252.4	23839.04
252.861	28279.42
253.322	26307.33
253.783	31302.79
254.244	40589.79
254.705	31930.95
255.166	28385.91
255.627	27996.28
256.088	39508.67
256.549	41956.26
257.009	36109.85
257.47	43787.31
257.931	35660.73
258.391	26681.72
258.852	27453.05
259.312	28769.74
259.773	35530.28
260.233	30011.73
260.694	25243.65
261.154	28602.55
261.614	22938.83
262.074	20498.29
262.534	21304.5
262.994	20064.25
263.455	26703.09
263.915	22474.63
264.374	21138.26
264.834	23050.21
265.294	25538.74
265.754	26458.51
266.214	25011.42
266.673	23415.12
267.133	29500.71
267.593	29231.15
268.052	35754.31
268.512	31099.27
268.971	37541.39
269.431	41188.37
269.89	36868.99
270.349	55250.39
270.809	61518.76
271.268	55299.84
271.727	123938.95
272.186	80297.76
272.645	60231.05
273.104	43446.27
273.563	62881.16
274.022	49391.43
274.481	41984.59
274.94	32326.48
275.399	24014.05
275.857	27960.13
276.316	37804.36
276.775	33641.64
277.233	33120.82
277.692	30976.48
278.15	35044.29
278.609	36042.2
279.067	33353.61
279.525	30958.34
279.984	39968.12
280.442	47976.06
280.9	47314.7
281.358	31116.65
281.816	28985
282.274	28377.6
282.732	29307.64
283.19	29422.14
283.648	25398.6
284.106	27047.54
284.564	27521.73
285.021	25549.21
285.479	19047.83
285.937	17318.49
286.394	15202.15
286.852	15638.28
287.309	16423.37
287.767	15879.98
288.224	15105.22
288.682	16542.09
289.139	18138.25
289.596	16573.35
290.053	17201.89
290.511	21669.71
290.968	26235.67
291.425	35558.29
291.882	29599.38
292.339	25761.09
292.796	25519.89
293.252	24024.48
293.709	19091.96
294.166	17103.77
294.623	18897.13
295.079	18118.75
295.536	18210.96
295.992	16543.78
296.449	16348.61
296.905	16984.74
297.362	16283.63
297.818	17123.49
298.274	17776.36
298.731	18087.4
299.187	17871.69
299.643	19166.77
300.099	23187.54
300.555	25420.65
301.011	21224.84
301.467	20491.1
301.923	23971.24
302.379	23393.44
302.835	22963.93
303.291	22984.63
303.746	26162.11
304.202	33081.55
304.658	33223.92
305.113	22330.59
305.569	21861.98
306.024	23329.14
306.479	22155.59
306.935	18679.61
307.39	20416.51
307.845	18871.16
308.301	18979.33
308.756	18492.79
309.211	17830.05
309.666	18273.64
310.121	22702.22
310.576	23040.82
311.031	22843.73
311.486	26179.04
311.94	26154.98
312.395	35007.67
312.85	65745.35
313.305	322816.82
313.759	1673783.03
314.214	121227.2
314.668	96158.37
315.123	80843.06
315.577	28993.1
316.032	25762.87
316.486	32272.21
316.94	25444.8
317.394	17712.31
317.849	13764.39
318.303	13012.98
318.757	12288.31
319.211	13584.97
319.665	11869.76
320.119	12016.93
320.572	17233.18
321.026	16120.04
321.48	13407
321.934	14633.05
322.387	14628.28
322.841	15797.92
323.295	14247.58
323.748	16376.89
324.202	16612.64
324.655	19977.48
325.108	27917.46
325.562	19728.42
326.015	23418.77
326.468	17730.01
326.921	19827.58
327.374	18507.62
327.827	19316.23
328.28	21855.92
328.733	14672.27
329.186	12910.84
329.639	12320.49
330.092	10382.9
330.545	9891.85
330.997	9996.81
331.45	10939.15
331.903	12832.43
332.355	22083.82
332.808	21413.47
333.26	17675.66
333.713	19179.15
334.165	19314.76
334.617	25748.55
335.069	20801.58
335.522	37659.76
335.974	41702.66
336.426	38090.98
336.878	26364.06
337.33	13382.62
337.782	13083.65
338.234	16389.11
338.686	19594.65
339.137	23234.14
339.589	21881.54
340.041	17158.89
340.493	14757.71
340.944	15117.08
341.396	16278.93
341.847	13678.44
342.299	16155.3
342.75	19736.46
343.201	17201.49
343.653	19824.09
344.104	24358.03
344.555	19162.95
345.006	29793.45
345.457	22812.16
345.908	18133.34
346.359	17059.96
346.81	13907.39
347.261	14637.17
347.712	14400.56
348.163	15442.15
348.613	15618.83
349.064	14562.55
349.515	12749.46
349.965	13077.75
350.416	15729.28
350.866	17226.13
351.317	19460.67
351.767	32214.71
352.217	40706.3
352.668	33762.1
353.118	30956.2
353.568	29866.95
354.018	23656.63
354.468	25023.7
354.918	17974.28
355.368	15759.06
355.818	22286.31
356.268	64150.59
356.718	268704.21
357.168	66895.52
357.617	33599.6
358.067	37372.42
358.517	35024.82
358.966	41080.77
359.416	46008.56
359.865	49720.31
360.315	59092.84
360.764	27596.23
361.213	15476.15
361.663	14675.26
362.112	18121.39
362.561	29261.57
363.01	22083.05
363.459	18544.67
363.908	20092.09
364.357	17087.27
364.806	28860.56
365.255	19865.4
365.703	18223.01
366.152	18242.53
366.601	14805.28
367.05	12038.14
367.498	10956.61
367.947	11450.64
368.395	11927.73
368.844	10544.63
369.292	12680.94
369.74	8759.81
370.189	13395.52
370.637	15686.12
371.085	13538.2
371.533	16471.45
371.981	15826.84
372.429	15095.94
372.877	15739.16
373.325	13170.39
373.773	13412.27
374.221	11964.05
374.669	14852.77
375.116	12860.2
375.564	12966.9
376.012	14499.73
376.459	11955.27
376.907	14299.48
377.354	17282.01
377.801	16128.94
378.249	18580.13
378.696	23770.41
379.143	28797.19
379.591	30734.44
380.038	52141.48
380.485	37769.78
380.932	40826.87
381.379	37449.45
381.826	27682.92
382.273	19698.44
382.72	17259.55
383.166	16843.46
383.613	10966.33
384.06	9903.03
384.506	11485.32
384.953	8424.51
385.4	8490.05
385.846	7459.02
386.292	7270.75
386.739	7118.12
387.185	7063.25
387.631	7073.81
388.078	6888.9
388.524	7390.44
388.97	6839.36
389.416	5717.69
389.862	6095.27
390.308	5795.81
390.754	5900.29
391.2	6425.67
391.645	6590.73
392.091	6323.42
392.537	6134.39
392.983	6145.88
393.428	6067.9
393.874	6519.95
394.319	6546.9
394.765	6234.57
395.21	6416.6
395.655	6012.94
396.101	5630.7
396.546	5085.48
396.991	5127.74
397.436	4754.65
397.881	4597.01
398.326	4344.84
398.771	4111.88
399.216	3593.96
399.661	3233.4
400.106	3222.9
400.551	3311.11
400.995	2971.66
401.44	2942.09
401.885	2761.7
402.329	2793.69
402.774	2676.28
403.218	2587.81
403.663	2486.44
404.107	2557.91
404.551	2575.79
404.995	2355.11
405.44	2261.98
405.884	2290.24
406.328	2211.82
406.772	2206.24
407.216	1999.98
407.66	1929.62
408.104	1827.58
408.547	1709.03
408.991	1649.25
409.435	1582.68
409.879	1559.56
410.322	1538.84
410.766	1487.31
411.209	1411.25
411.653	1349.95
412.096	1324.53
412.54	1323.1
412.983	1313.38
413.426	1316.56
413.869	1313.18
414.312	1288.1
414.756	1237.64
415.199	1175.41
415.642	1138.6
416.085	1143.21
416.527	1133.65
416.97	1150.08
417.413	1091.56
417.856	1079.62
418.298	1066.94
418.741	1055.52
419.184	1048.34
419.626	1089.91
420.069	1089.73
420.511	1096.35
420.953	1069.16
421.396	1057.75
421.838	1027.55
422.28	1049.85
422.722	1054.62
423.164	1067.16
423.606	1052.57
424.048	1052.68
424.49	1001.36
424.932	995.98
425.374	976.61
425.816	990.51
426.258	1010.06
426.699	1020.68
427.141	1003.52
427.582	1016.7
428.024	1010.69
428.465	1001.97
428.907	975.95
429.348	962.58
429.789	964.09
430.231	947.27
430.672	958.6
431.113	933.95
431.554	920.88
431.995	898.45
432.436	865.41
432.877	847.67
433.318	835.32
433.759	831.48
434.2	830.59
434.64	822.21
435.081	826.32
435.522	784.52
435.962	756.45
436.403	741.03
436.843	752.31
437.284	736.37
437.724	716.11
438.164	716.48
438.604	701.09
439.045	677.11
439.485	649.75
439.925	634.05
440.365	619.66
440.805	612.48
441.245	606.73
441.685	584.26
442.125	582.02
442.564	588.52
443.004	575.8
443.444	575.65
443.883	578.02
444.323	572.02
444.762	572.61
445.202	582.19
445.641	597.54
446.081	595.02
446.52	601.85
446.959	597.28
447.398	583.31
447.837	579.9
448.276	571.41
448.716	577.02
449.154	583.71
449.593	575.38
450.032	573.78
450.471	561.4
450.91	560.63
451.349	563.05
451.787	560.08
452.226	568.16
452.664	569.63
453.103	572.22
453.541	573.88
453.98	574.91
454.418	576.71
454.856	568.5
455.295	567.13
455.733	573.83
456.171	575.4
456.609	577.73
457.047	578.25
457.485	586.47
457.923	587.13
458.361	579.26
458.798	581.02
459.236	581.11
459.674	585.36
460.111	588.86
460.549	583.69
460.987	580.76
461.424	579.15
461.862	576.01
462.299	567.41
462.736	567.48
463.173	568.61
463.611	564.72
464.048	562.15
464.485	566.58
464.922	562.4
465.359	558.71
465.796	555.79
466.233	552.43
466.67	548.28
467.106	546.61
467.543	539.24
467.98	530.52
468.416	515.14
468.853	511.14
469.29	496.17
469.726	489.59
470.162	477.02
470.599	467.06
471.035	461.4
471.471	449.59
471.907	446.32
472.344	445.05
472.78	447.74
473.216	453.21
473.652	448.44
474.088	446.4
474.523	445.82
474.959	448.28
475.395	444.29
475.831	442.47
476.266	445.55
476.702	444.29
477.138	439.07
477.573	437.09
478.008	435.5
478.444	437.97
478.879	443.44
479.314	445.68
479.75	447.36
480.185	449.25
480.62	453
481.055	455.45
481.49	460.2
481.925	468.06
482.36	478.75
482.795	491.89
483.229	504.52
483.664	515.53
484.099	517.4
484.534	525.34
484.968	532.68
485.403	535.12
485.837	534.68
486.271	533.52
486.706	534.35
487.14	528.28
487.574	521.53
488.009	517.64
488.443	513.7
488.877	520.72
489.311	523.96
489.745	530.49
490.179	537.91
490.613	550.73
491.046	557.25
491.48	563.03
491.914	565.91
492.348	572.76
492.781	578.87
493.215	583.1
493.648	586.09
494.082	592.89
494.515	597.1
494.948	606.45
495.382	613.6
495.815	621.92
496.248	630.43
496.681	645.42
497.114	658.54
497.547	672.61
497.98	688.68
498.413	699.65
498.846	713.36
499.279	724.77
499.711	733.41
500.144	740.61
500.577	755.46
501.009	771.27
501.442	785.94
501.874	793.1
502.306	800.06
502.739	813.45
503.171	833.15
503.603	842.42
504.036	858.24
504.468	869.84
504.9	887.35
505.332	899.87
505.764	910.35
506.196	922.88
506.627	944.52
507.059	964.74
507.491	979.5
507.923	983.4
508.354	1004.91
508.786	1022.22
509.217	1047.2
509.649	1068.73
510.08	1094.49
510.512	1117.97
510.943	1139.97
511.374	1156.84
511.805	1183.53
512.237	1210.03
512.668	1251.47
513.099	1287.14
513.53	1322.75
513.961	1350.31
514.391	1389.86
514.822	1430.81
515.253	1474.68
515.684	1508.05
516.114	1546.05
516.545	1573.53
516.975	1606.45
517.406	1630.12
517.836	1635.54
518.267	1645.77
518.697	1669.71
519.127	1677.83
519.558	1689.01
519.988	1695.8
520.418	1710.13
520.848	1731.97
521.278	1745.82
521.708	1754.07
522.138	1770.55
522.567	1809.01
522.997	1840.08
523.427	1859.68
523.857	1881.33
524.286	1894.82
524.716	1915.22
525.145	1938.87
525.575	1954.09
526.004	1972.2
526.433	1979.73
526.863	1980.07
527.292	1968.14
527.721	1975.63
528.15	1982.9
528.579	1983.49
529.008	1998.04
529.437	2024.88
529.866	2040.51
530.295	2061.01
530.724	2075.08
531.152	2108
531.581	2126.15
532.01	2147.96
532.438	2157.19
532.867	2174.28
533.295	2196.52
533.723	2203.83
534.152	2201.6
534.58	2202.09
535.008	2183.07
535.436	2185.47
535.865	2194.96
536.293	2211.58
536.721	2230.61
537.149	2263.18
537.576	2266.98
538.004	2281.72
538.432	2290.38
538.86	2287.72
539.287	2296.26
539.715	2313.67
540.143	2317.75
540.57	2312.58
540.998	2308.27
541.425	2280.18
541.852	2252.82
542.28	2250.8
542.707	2231.42
543.134	2214.19
543.561	2209.44
543.988	2200.2
544.415	2197.97
544.842	2190.81
545.269	2181.81
545.696	2184.84
546.123	2199.76
546.549	2188.76
546.976	2172.27
547.403	2171.57
547.829	2174.21
548.256	2176.39
548.682	2172.1
549.108	2163.82
549.535	2163.57
549.961	2167.45
550.387	2151.6
550.813	2146.14
551.24	2152
551.666	2154.12
552.092	2143.33
552.518	2135.74
552.943	2129.1
553.369	2137.84
553.795	2143.38
554.221	2143.93
554.646	2138.75
555.072	2150.9
555.498	2156.53
555.923	2166.95
556.349	2184.2
556.774	2195.38
557.199	2197.94
557.625	2204.98
558.05	2199.08
558.475	2212.68
558.9	2210.85
559.325	2201.69
559.75	2193.86
560.175	2185.79
560.6	2178.99
561.025	2177.94
561.449	2178.49
561.874	2183.86
562.299	2189.69
562.723	2196.63
563.148	2184.54
563.572	2190.53
563.997	2203.55
564.421	2210.33
564.846	2211.41
565.27	2216.04
565.694	2212.48
566.118	2224.82
566.542	2234.04
566.966	2225.44
567.39	2219.32
567.814	2204.36
568.238	2202.45
568.662	2207.78
569.086	2209.73
569.509	2217.78
569.933	2199.12
570.357	2188.84
570.78	2164.36
571.204	2147.39
571.627	2134.76
572.05	2132.38
572.474	2132.27
572.897	2117.37
573.32	2106.67
573.743	2094.42
574.166	2072.64
574.589	2071.58
575.012	2063.29
575.435	2060.95
575.858	2048.84
576.281	2034.51
576.704	2015.29
577.126	2001.38
577.549	1987.97
577.972	1975.37
578.394	1963.78
578.817	1954.21
579.239	1932.48
579.661	1915.9
580.084	1896.64
580.506	1881.75
580.928	1877.17
581.35	1864.22
581.772	1858.43
582.194	1842.25
582.616	1827.19
583.038	1809.88
583.46	1796.86
583.882	1792.52
584.303	1796.23
584.725	1790.92
585.147	1791.86
585.568	1803.12
585.99	1816.97
586.411	1823.32
586.833	1839.8
587.254	1840.66
587.675	1857.57
588.096	1871.62
588.518	1863.68
588.939	1843.68
589.36	1841.88
589.781	1829.72
590.202	1794.96
590.623	1784.51
591.043	1781.58
591.464	1765.79
591.885	1761.41
592.305	1753.33
592.726	1736.64
593.147	1738.59
593.567	1731.71
593.987	1721.62
594.408	1715.76
594.828	1713.43
595.248	1705.54
595.669	1684.24
596.089	1676.87
596.509	1668.62
596.929	1652
597.349	1653.72
597.769	1641.55
598.189	1633.94
598.608	1635.87
599.028	1637.38
599.448	1636.93
599.867	1622.36
600.287	1616.96
600.706	1611.95
601.126	1599.29
601.545	1596.94
601.965	1594.43
602.384	1587.91
602.803	1591.88
603.222	1584.61
603.641	1576.33
604.061	1572.2
604.48	1566.62
604.898	1574.88
605.317	1580.48
605.736	1582.95
606.155	1580.71
606.574	1568.94
606.992	1574.36
607.411	1567.29
607.829	1558.28
608.248	1553.85
608.666	1550.56
609.085	1549.5
609.503	1538.34
609.921	1529.48
610.339	1531.9
610.758	1528.99
611.176	1523.35
611.594	1511.78
612.012	1507.47
612.43	1509.8
612.847	1516.69
613.265	1516.35
613.683	1519.24
614.101	1519.59
614.518	1513.86
614.936	1501.03
615.353	1483.53
615.771	1477.97
616.188	1477.27
616.606	1471.78
617.023	1462.92
617.44	1445.71
617.857	1437.11
618.274	1427.17
618.691	1420.45
619.108	1408.83
619.525	1401.23
619.942	1408.28
620.359	1410.8
620.776	1403.84
621.192	1398.94
621.609	1394.53
622.026	1400.65
622.442	1405.97
622.859	1408.94
623.275	1399.73
623.691	1403.86
624.108	1414.93
624.524	1428.64
624.94	1428.3
625.356	1438.85
625.772	1453.19
626.188	1465.93
626.604	1467.49
627.02	1462.13
627.436	1459
627.852	1465.11
628.268	1478.67
628.683	1469.1
629.099	1459.48
629.514	1453.01
629.93	1456.36
630.345	1459.85
630.761	1455.23
631.176	1458.42
631.591	1451.59
632.007	1443.85
632.422	1440.61
632.837	1426.81
633.252	1423.12
633.667	1410.99
634.082	1399.28
634.497	1383.93
634.911	1360.11
635.326	1353.86
635.741	1332.58
636.155	1319.18
636.57	1318.56
636.984	1316.2
637.399	1317.1
637.813	1313.43
638.228	1308.67
638.642	1310.89
639.056	1297.13
639.47	1295.39
639.884	1284.05
640.298	1274.02
640.712	1268.93
641.126	1251.67
641.54	1239.57
641.954	1230.48
642.368	1213.77
642.781	1203.81
643.195	1182.8
643.609	1181.22
644.022	1171.08
644.436	1163.56
644.849	1147.82
645.262	1133.08
645.676	1131.74
646.089	1124.42
646.502	1104.68
646.915	1095.94
647.328	1075.27
647.741	1069.92
648.154	1051.69
648.567	1046.04
648.98	1030.69
649.393	1028.55
649.805	1022.9
650.218	1013.13
650.631	994.34
651.043	986.38
651.456	979.92
651.868	977.47
652.28	991.8
652.693	1004.56
653.105	1008.85
653.517	1015.67
653.929	1014.7
654.341	1018.49
654.753	1005.12
655.165	1008.55
655.577	1003.75
655.989	995.53
656.401	985.19
656.813	947.68
657.224	924.62
657.636	894.01
658.047	873.52
658.459	850.84
658.87	837.97
659.282	822.63
659.693	799.67
660.104	782.57
660.515	765.75
660.926	760.57
661.338	753.89
661.749	743.47
662.159	730.48
662.57	721.53
662.981	712.69
663.392	701.92
663.803	700.35
664.213	694.31
664.624	685.87
665.035	684.9
665.445	667.66
665.855	657.76
666.266	647.55
666.676	641.7
667.086	630.29
667.497	626.3
667.907	617.68
668.317	607.06
668.727	602.28
669.137	598.9
669.547	594.01
669.956	594.71
670.366	592.85
670.776	592.3
671.186	593.12
671.595	594.32
672.005	595.25
672.414	593.27
672.824	592.02
673.233	592.69
673.642	595.29
674.052	598.37
674.461	600
674.87	604.31
675.279	603.13
675.688	604.84
676.097	607.49
676.506	606.2
676.915	618.26
677.323	621.93
677.732	623.01
678.141	623.54
678.549	615.86
678.958	616.41
679.366	617.84
679.775	623.19
680.183	635.84
680.592	642.97
681	651.12
681.408	649.89
681.816	659.27
682.224	669.97
682.632	683.6
683.04	713.47
683.448	740.23
683.856	774.09
684.264	811.54
684.671	846.54
685.079	890.48
685.487	939.58
685.894	1006.17
686.302	1064.75
686.709	1116.56
687.116	1175.55
687.524	1228.83
687.931	1274.83
688.338	1315.43
688.745	1354.7
689.152	1396.89
689.559	1450.55
689.966	1504.48
690.373	1535.12
690.78	1585.16
691.187	1659.2
691.593	1717.29
692	1769.73
692.407	1845.84
692.813	1935.21
693.22	2007.56
693.626	2082.83
694.032	2142.71
694.439	2231.82
694.845	2302.41
695.251	2392.09
695.657	2471
696.063	2586.15
696.469	2672.51
696.875	2749.34
697.281	2795.39
697.687	2852.41
698.093	2900.68
698.498	2989.26
698.904	3057.35
699.31	3159.41
699.715	3232.04
700.12	3336.3
700.526	3359.7
700.931	3439.41
701.337	3502.38
701.742	3543.63
702.147	3641.91
702.552	3676.64
702.957	3747.14
703.362	3772.82
703.767	3808.35
704.172	3854.58
704.577	3804.49
704.981	3859.21
705.386	3879.41
705.791	3869.85
706.195	3955.96
706.6	3966.16
707.004	4059.96
707.408	4024.77
707.813	4055.94
708.217	4041.71
708.621	4045.2
709.025	4157.49
709.43	4158.88
709.834	4228.23
710.237	4310.86
710.641	4292.58
711.045	4318.52
711.449	4310.31
711.853	4345.08
712.256	4392.25
712.66	4435.34
713.064	4520.23
713.467	4565.5
713.87	4696.06
714.274	4748.18
714.677	4874.35
715.08	5060.38
715.484	5251.65
715.887	5483.9
716.29	5709.99
716.693	5948.41
717.096	6226.7
717.499	6376.78
717.901	6406.56
718.304	6434.93
718.707	6462.26
719.109	6341.99
719.512	6306.27
719.915	6149.55
720.317	6084.72
720.719	6137.3
721.122	6101.38
721.524	6040.77
721.926	5994.47
722.328	6108.62
722.731	6096.9
723.133	6132.44
723.535	6355.78
723.937	6378.37
724.338	6439.56
724.74	6487.31
725.142	6407.02
725.544	6406.72
725.945	6435.33
726.347	6431.7
726.748	6422.45
727.15	6437.57
727.551	6390.69
727.952	6356.6
728.354	6323.14
728.755	6323.34
729.156	6274.76
729.557	6264.44
729.958	6124.19
730.359	6059.88
730.76	6036.58
731.161	5968.1
731.562	5938.84
731.962	5940.88
732.363	5865.77
732.763	5790.49
733.164	5828.44
733.564	5751.77
733.965	5643.05
734.365	5602.47
734.766	5633.35
735.166	5588.28
735.566	5523.47
735.966	5492.91
736.366	5486.99
736.766	5417.17
737.166	5451.6
737.566	5405.58
737.966	5373.27
738.365	5415.05
738.765	5407.77
739.165	5324.35
739.564	5292.14
739.964	5343.31
740.363	5287.72
740.763	5282.79
741.162	5268.9
741.561	5232.65
741.96	5178.81
742.36	5200.94
742.759	5203.62
743.158	5246.13
743.557	5259.49
743.955	5306.92
744.354	5253.3
744.753	5321.34
745.152	5273.43
745.55	5334.31
745.949	5327.75
746.348	5328.82
746.746	5348.5
747.144	5305.93
747.543	5279.31
747.941	5335.29
748.339	5254.37
748.737	5247.06
749.136	5236.89
749.534	5310.55
749.932	5279.16
750.33	5306
750.727	5369.07
751.125	5341.2
751.523	5323.51
751.921	5371.83
752.318	5332.6
752.716	5396.04
753.113	5412.22
753.511	5438.63
753.908	5440.04
754.305	5419.11
754.703	5487.08
755.1	5556.53
755.497	5624.04
755.894	5836.64
756.291	6038.47
756.688	6410.65
757.085	6908.69
757.482	7601.46
757.878	8361.34
758.275	9045.12
758.672	9993.06
759.068	10758.35
759.465	11854.04
759.861	13265.52
760.258	14907.5
760.654	15754.63
761.05	15629.88
761.447	14914.94
761.843	13885.49
762.239	12820.49
762.635	12340.12
763.031	11877.35
763.427	11217.33
763.822	10517.9
764.218	9824.79
764.614	8927.47
765.01	8327.4
765.405	7938.54
765.801	7640.95
766.196	7262.03
766.592	7053.76
766.987	6700.51
767.382	6459.24
767.778	6358.92
768.173	6211.8
768.568	6130.78
768.963	5989.43
769.358	6009.75
769.753	5956.19
770.148	5863.22
770.542	5863.15
770.937	5822.78
771.332	5925.04
771.726	5948.38
772.121	5876.31
772.515	5936.89
772.91	5921.6
773.304	6000.35
773.699	5926.63
774.093	5987.44
774.487	6047.57
774.881	6097.92
775.275	6095.96
775.669	6046.42
776.063	6095.31
776.457	6134.35
776.851	6053.32
777.245	6043.27
777.638	6083.96
778.032	6213.05
778.425	6171.57
778.819	6217.89
779.212	6168.23
779.606	6122.23
779.999	6144.64
780.392	6126.04
780.786	6219.41
781.179	6238.9
781.572	6286.63
781.965	6297.53
782.358	6232.9
782.751	6293.34
783.143	6241.7
783.536	6326.21
783.929	6377.09
784.322	6507.27
784.714	6539.79
785.107	6534.78
785.499	6617.82
785.891	6594.11
786.284	6575.48
786.676	6736.29
787.068	6718.15
787.46	6777.37
787.852	6799.04
788.245	6895.12
788.636	6928.09
789.028	7006.67
789.42	7050.6
789.812	7060.71
790.204	7171.38
790.595	7284.11
790.987	7062.29
791.378	7087.77
791.77	7232.76
792.161	7383.79
792.553	7449.03
792.944	7326.8
793.335	7250.45
793.726	7333.7
794.117	7432.84
794.508	7585.29
794.899	7550.35
795.29	7709.73
795.681	7775.81
796.072	7615.09
796.463	7409.79
796.853	7418.74
797.244	7595.87
797.634	7630.68
798.025	7627.81
798.415	7641.47
798.806	7739.47
799.196	7835.16
799.586	7891.86
799.976	7847.25
800.366	8106.68
800.756	8376.41
801.146	8328.14
801.536	8358.92
801.926	8442.89
802.316	8477.4
802.706	8556.38
803.095	8420.83
803.485	8535.34
803.874	8578.7
804.264	8870.06
804.653	8840.03
805.043	8998.55
805.432	9123.4
805.821	9128.34
806.21	9156.03
806.599	9288.39
806.988	9343.13
807.377	9462.94
807.766	9607.16
808.155	9924.91
808.544	9630.98
808.933	9648.28
809.321	9627.29
809.71	9958.61
810.098	10131.9
810.487	10644.27
810.875	11178.93
811.264	11202.75
811.652	11526.55
812.04	11697.17
812.428	11876.9
812.816	12727.68
813.204	13198.69
813.592	13813.54
813.98	14187.55
814.368	14084.76
814.756	14622.3
815.144	14537.12
815.531	15058.22
815.919	14979.22
816.306	15310.27
816.694	14968.65
817.081	15024.75
817.469	15408.59
817.856	15406.37
818.243	15706.94
818.63	16143.56
819.017	15675.91
819.404	15746.15
819.791	16167.08
820.178	16853.06
820.565	17138.08
820.952	18181.95
821.339	17644.49
821.725	17844.39
822.112	17015.12
822.498	16979.05
822.885	17133.72
823.271	17030.11
823.657	17493.28
824.044	17508.43
824.43	17593.43
824.816	17561.01
825.202	17078.02
825.588	18216.96
825.974	18241.75
826.36	18832.56
826.746	18869.05
827.132	19259.85
827.517	19228.11
827.903	18350.29
828.289	18395.76
828.674	17525.55
829.06	17404.22
829.445	17853.4
829.83	18255.71
830.216	18794.07
830.601	19196.85
830.986	18733.41
831.371	18582.71
831.756	19205.1
832.141	18719.79
832.526	18710.5
832.911	19021.83
833.295	18896.83
833.68	19412.45
834.065	18713.67
834.449	17691.97
834.834	17606.71
835.218	17599.64
835.603	17975.83
835.987	17742.84
836.371	18676.45
836.755	18562.32
837.139	19001.01
837.524	19254.7
837.908	19057.66
838.291	19117.96
838.675	19185.43
839.059	19412.51
839.443	19394.13
839.827	19137.94
840.21	19670.57
840.594	19504.92
840.977	19723.75
841.361	19702.81
841.744	20123.55
842.127	19941.94
842.511	20215.25
842.894	20885.27
843.277	21306.42
843.66	21909.97
844.043	21999.83
844.426	21095.62
844.809	20743.97
845.191	20769.64
845.574	20249.9
845.957	19844.48
846.339	19727.82
846.722	19139.76
847.104	19205.51
847.487	19012.48
847.869	19025.15
848.252	19335.1
848.634	19701.03
849.016	19996.98
849.398	20142.22
849.78	21091.73
850.162	21096.94
850.544	21551.11
850.926	22243.98
851.307	22140.52
851.689	22450.94
852.071	22956.05
852.452	23310.21
852.834	23277.76
853.215	23714.3
853.597	23868.68
853.978	24184.5
854.359	24689.75
854.741	23586.13
855.122	23474.71
855.503	23161.13
855.884	23304.74
856.265	23236.66
856.646	23365.07
857.026	22943.82
857.407	22869.15
857.788	23057.6
858.169	23395
858.549	22449.19
858.93	23137.48
859.31	23195.84
859.69	23422.88
860.071	22978.44
860.451	22743.31
860.831	21921.27
861.211	23212.37
861.591	23818.04
861.971	23789.67
862.351	23991.93
862.731	24427.55
863.111	24729.71
863.491	25105.61
863.87	26093.45
864.25	26485.33
864.629	26032.93
865.009	26602.88
865.388	27529.32
865.768	29510.63
866.147	29400.76
866.526	27770.52
866.905	28108.25
867.284	29683.2
867.663	28182.69
868.042	27004.02
868.421	26909.91
868.8	27368.28
869.179	27633.4
869.558	26037.89
869.936	23995.29
870.315	24417.62
870.693	25024.61
871.072	26984.74
871.45	25705.49
871.828	26038.84
872.207	27374.79
872.585	26966.28
872.963	27699.83
873.341	26752.64
873.719	26434.93
874.097	26123.3
874.475	26625.03
874.853	27240.4
875.23	26102.18
875.608	27200.2
875.986	29418.7
876.363	28134.94
876.741	29006.23
877.118	28275.17
877.495	29655.86
877.873	30135.93
878.25	31717.65
878.627	30423.02
879.004	30845.93
879.381	30701.59
879.758	29887.52
880.135	27824.01
880.512	29417.1
880.889	28628.56
881.265	28327.93
881.642	28105.66
882.019	28588.04
882.395	27999.56
882.772	29105.83
883.148	27826.51
883.524	27709.99
883.901	27556.75
884.277	27951.84
884.653	27784.35
885.029	28574.22
885.405	31637.83
885.781	31378.06
886.157	30090.28
886.532	30451.19
886.908	30438.3
887.284	33854.13
887.659	34949.86
888.035	36023.07
888.411	36968.23
888.786	37441.42
889.161	38742.08
889.537	38031.34
889.912	39246.63
890.287	39201.6
890.662	40203.89
891.037	39465.61
891.412	36799.26
891.787	36425.18
892.162	35154.54
892.536	35959.43
892.911	34606.38
893.286	33866.63
893.66	32485.95
894.035	33314.78
894.409	36268.41
894.784	34805.05
895.158	35373.3
895.532	37464.08
895.906	38488.72
896.281	39390.9
896.655	38767.37
897.029	44298.2
897.402	46134.62
897.776	51346.34
898.15	51150.6
898.524	50598.72
898.898	51265.89
899.271	57381.86
899.645	49674.41
900.018	47719.67
900.392	49486.22
900.765	49889.42
901.138	46169.23
901.511	45479.91
901.884	41780.72
902.258	38557.99
902.631	39839.01
903.003	45864.33
903.376	41411.19
903.749	46474.12
904.122	49757.21
904.495	54804.25
904.867	55508.36
905.24	48189.6
905.612	44865.14
905.985	45882.68
906.357	47990.34
906.729	45818.81
907.102	39144.18
907.474	37648.68
907.846	37881.04
908.218	37377.01
908.59	33028.42
908.962	31947.84
909.334	34412.18
909.705	36142.01
910.077	35106.56
910.449	36540.83
910.82	37554.42
911.192	41311.76
911.563	42926.72
911.935	45941.33
912.306	46018.07
912.677	47534.05
913.048	47052.16
913.419	51077.2
913.79	51368.53
914.161	55088.44
914.532	52638.93
914.903	48408.27
915.274	46010
915.645	45351.2
916.015	39920.49
916.386	38061.19
916.756	40486.73
917.127	41767.68
917.497	37287.79
917.868	40616.49
918.238	38582.43
918.608	39699.97
918.978	40526.68
919.348	42919.33
919.718	44341.91
920.088	42746.16
920.458	44420.46
920.828	46768.69
921.198	44345.76
921.567	47397.88
921.937	36693.28
922.306	37033.92
922.676	39937.85
923.045	33318.57
923.415	31643.6
923.784	28813.41
924.153	29618.04
924.522	29580.3
924.891	27794.41
925.26	29773.01
925.629	29066.4
925.998	33430.15
926.367	32660.19
926.736	31094.59
927.104	37019.61
927.473	39796.2
927.842	48082.94
928.21	47597.22
928.578	50036.22
928.947	47320.83
929.315	47622.72
929.683	55852.98
930.051	56261.91
930.42	65286.04
930.788	55833.33
931.156	55414.17
931.523	51946.9
931.891	47995.49
932.259	46109.9
932.627	53406.91
932.994	75603.46
933.362	62503.88
933.729	54275
934.097	51944.56
934.464	43977.72
934.831	50730.45
935.199	50041.64
935.566	48521.42
935.933	49125.92
936.3	59512.75
936.667	46389.71
937.034	41806.05
937.401	41314.67
937.767	35663.51
938.134	31763.68
938.501	44785.47
938.867	47730.58
939.234	80661.06
939.6	68849.08
939.967	76001.52
940.333	50797.95
940.699	43209.64
941.065	34685.36
941.431	45438.55
941.798	43800.83
942.163	57502.84
942.529	35899.24
942.895	33039.37
943.261	21379.63
943.627	28051.35
943.992	24533.11
944.358	24605.93
944.723	24690.86
945.089	24085.89
945.454	22292.57
945.82	23781.54
946.185	22866.21
946.55	26501.63
946.915	23809.77
947.28	27935.24
947.645	24610.93
948.01	22718.42
948.375	23672.47
948.74	28381.85
949.104	33104.19
949.469	47821.08
949.834	84503.53
950.198	80051.82
950.562	48041.87
950.927	39973.98
951.291	48093.66
951.655	40968.87
952.02	38510.82
952.384	29135.72
952.748	25374.39
953.112	24732.79
953.476	21486.49
953.839	19888.41
954.203	19707.32
954.567	24663.67
954.931	38898.06
955.294	33305.63
955.658	33470.1
956.021	56882.75
956.385	96464.84
956.748	142284.23
957.111	220900.91
957.474	248213.2
957.837	279773.08
958.2	211592.17
958.563	76052.23
958.926	51375.67
959.289	77891.84
959.652	87049.11
960.015	65333.46
960.377	93724.01
960.74	107108.2
961.102	184912.46
961.465	198433.3
961.827	106288.56
962.189	203868.33
962.552	141432.56
962.914	113419.19
963.276	73595.31
963.638	60882.59
964	60326.12
964.362	40819.39
964.724	39439.13
965.085	28143.85
965.447	23085.13
965.809	26291.66
966.17	26346.65
966.532	28504.51
966.893	26147.55
967.255	23816.05
967.616	28106.2
967.977	22501.5
968.338	24558.67
968.699	20169.52
969.061	20145.97
969.421	20279.07
969.782	22769.79
970.143	19222.38
970.504	19903.18
970.865	22642.91
971.225	23144.34
971.586	22649.57
971.946	32298.02
972.307	28058.16
972.667	36677.12
973.027	37795.58
973.388	45863.44
973.748	31170.15
974.108	33958.95
974.468	45959.52
974.828	35396.01
975.188	27242.24
975.548	24999.32
975.907	21003.03
976.267	23581.49
976.627	19846.15
976.986	20596.45
977.346	19626.48
977.705	18912.57
978.064	17224.77
978.424	14327.74
978.783	14825.37
979.142	16928.47
979.501	16204.94
979.86	17114.36
980.219	16475.19
980.578	21235.53
980.937	23782.54
981.296	21220.83
981.654	21836.25
982.013	33996.8
982.371	44198.75
982.73	41330.46
983.088	46793.46
983.447	49989.74
983.805	71479.49
984.163	149336.67
984.521	165894.92
984.879	243024.75
985.237	-394711.84
985.595	380254.71
985.953	94521.8
986.311	54488.62
986.669	31631.82
987.026	27313.42
987.384	36751.89
987.741	37992.08
988.099	27135.61
988.456	21628.82
988.814	20220.2
989.171	17588.63
989.528	17350.89
989.885	18329.65
990.242	14532.15
990.599	18095.39
990.956	14782.42
991.313	10341.32
991.67	8485.72
992.027	9000.26
992.383	7998.81
992.74	7024.84
993.096	7372.14
993.453	7650.74
993.809	7921.84
994.165	10548.54
994.522	9658.11
994.878	10649.82
995.234	13356.59
995.59	13189.62
995.946	12480.47
996.302	14227.75
996.658	16449.17
997.013	18119.33
997.369	21467.18
997.725	27481.78
998.08	17783.71
998.436	27458.09
998.791	37886.33
999.147	37796.74
999.502	41208.49
999.857	30022.85
1000.212	48893.75
1000.567	69513.52
1000.922	40089.71
1001.277	25462.3
1001.632	18934
1001.987	24442.86
1002.342	17544.38
1002.696	14048.79
1003.051	11217.8
1003.406	13584.28
1003.76	13527.19
1004.114	13342.15
1004.469	11251
1004.823	9319.62
1005.177	10064.44
1005.531	7961.14
1005.885	7056.49
1006.239	7949.36
1006.593	9963.67
1006.947	13338.35
1007.301	9992.1
1007.655	10878.2
1008.008	7993.79
1008.362	8986.73
1008.715	12832.86
1009.069	11668.79
1009.422	17571.46
1009.776	35241.75
1010.129	23423.4
1010.482	19553.51
1010.835	16514.85
1011.188	34463.53
1011.541	32422.02
1011.894	-198368.16
1012.247	581550.33
1012.6	39538.17
1012.952	24946.29
1013.305	12845.62
1013.657	9250.21
1014.01	8770.08
1014.362	7234.35
1014.715	6437.77
1015.067	5609.08
1015.419	5502.41
1015.771	4872.21
1016.123	4343.7
1016.475	4465.32
1016.827	4763.97
1017.179	5142.62
1017.531	5177.47
1017.883	5273.64
1018.234	5103.11
1018.586	6449.68
1018.938	6844.21
1019.289	9421.44
1019.64	10810.89
1019.992	10053.58
1020.343	9210.45
1020.694	7282.91
1021.045	6420.39
1021.396	7362.53
1021.747	7905.18
1022.098	9506.12
1022.449	6903.91
1022.8	6377.94
1023.151	4432.26
1023.501	3909.47
1023.852	4235.64
1024.202	4389.71
1024.553	4805.79
1024.903	4674.03
1025.253	3996.04
1025.604	3600.2
1025.954	4440.7
1026.304	5397.06
1026.654	6313.45
1027.004	9259.26
1027.354	14978.13
1027.703	14207.68
1028.053	18702.19
1028.403	27165.91
1028.753	39586.88
1029.102	53994.62
1029.452	278575.09
1029.801	12114.16
1030.15	7834.1
1030.499	6634.72
897.758	2788.99
901.051	2751.26
904.343	2783.25
907.636	2782.19
910.928	2849.66
914.22	2755.41
917.511	2765.58
920.803	2835.68
924.094	2856
927.384	2828.48
930.675	2796.35
933.965	2746.42
937.255	2752.39
940.544	2723.41
943.834	2647.26
947.123	2591.37
950.411	2693.51
953.7	2663.49
956.988	2626.61
960.276	2571.09
963.563	2657.92
966.851	2650.24
970.138	2713.24
973.424	2705.19
976.711	2652.35
979.997	2806.79
983.283	2841.42
986.568	2739.77
989.853	2759.27
993.138	2788.17
996.423	2871.51
999.708	2803.55
1002.992	2878.54
1006.275	2691.24
1009.559	2746.93
1012.842	2868.77
1016.125	2793.02
1019.408	2772.79
1022.69	2866.76
1025.972	2887.01
1029.254	2858.18
1032.536	2785.29
1035.817	2816.17
1039.098	2751.05
1042.379	2919.11
1045.659	2909.49
1048.939	2837.26
1052.219	2865.79
1055.498	2878.39
1058.778	2860.63
1062.057	2843.46
1065.335	2866.88
1068.614	2886.67
1071.892	2868.76
1075.17	2950
1078.447	2937.97
1081.724	2928.86
1085.001	2968.74
1088.278	2939.31
1091.554	2953.62
1094.83	2951.35
1098.106	2979.91
1101.382	3029.33
1104.657	3029.61
1107.932	3024.67
1111.206	2988.12
1114.481	2943.54
1117.755	2945.27
1121.029	2921.99
1124.302	2977.12
1127.575	2924.24
1130.848	2909.8
1134.121	2868.77
1137.393	2813.68
1140.665	2888.34
1143.937	2863.45
1147.208	2819.7
1150.48	2860.82
1153.75	2847.9
1157.021	2882.42
1160.291	2851.23
1163.561	2899.41
1166.831	2889.28
1170.101	2924.92
1173.37	2899.2
1176.639	2837.61
1179.907	2899.17
1183.176	2904.43
1186.444	2912.08
1189.711	2941.19
1192.979	2954.9
1196.246	2908.37
1199.513	2925.75
1202.78	2925.14
1206.046	2932.8
1209.312	2959.43
1212.578	2987.31
1215.843	2935.27
1219.108	2911.96
1222.373	2936.44
1225.638	2896.42
1228.902	2876.99
1232.166	2843.54
1235.43	2825.13
1238.693	2848
1241.956	2845.99
1245.219	2885.56
1248.482	2878.86
1251.744	2873.92
1255.006	3031.3
1258.268	2984.93
1261.529	2924.7
1264.79	2935.41
1268.051	3046.26
1271.312	3062.29
1274.572	3023.15
1277.832	3013.29
1281.092	3003.61
1284.351	2973.35
1287.61	2949.36
1290.869	2857.1
1294.128	2831.48
1297.386	2929.94
1300.644	2917.28
1303.902	2926.37
1307.159	2778.58
1310.416	2837.2
1313.673	2862.83
1316.93	2846.96
1320.186	2895.05
1323.442	2942.34
1326.697	2931.78
1329.953	2921.54
1333.208	2945.81
1336.463	2924.14
1339.717	2859.52
1342.972	3006.11
1346.226	2979.78
1349.479	2905.6
1352.733	2874.12
1355.986	2900.64
1359.238	2872.25
1362.491	2874.6
1365.743	2880.05
1368.995	2873.67
1372.247	2888.07
1375.498	2915.3
1378.749	2925.27
1382	2881.04
1385.251	2939.46
1388.501	2899.39
1391.751	2881.73
1395	2854.76
1398.25	2886.45
1401.499	2891.68
1404.748	2813.58
1407.996	2804.91
1411.244	2787.86
1414.492	2766.31
1417.74	2743.27
1420.987	2753.78
1424.234	2814.36
1427.481	2794.27
1430.728	2854.91
1433.974	2830.2
1437.22	2847.38
1440.465	2849.87
1443.711	2807.17
1446.956	2844.53
1450.201	2833.93
1453.445	2880.87
1456.689	2858.58
1459.933	2871.45
1463.177	2904.41
1466.42	2876.29
1469.663	2855.28
1472.906	2846.7
1476.148	2935.6
1479.391	2878.71
1482.633	2853.51
1485.874	2864.1
1489.115	2847.91
1492.356	2856.05
1495.597	2831.2
1498.838	2834.07
1502.078	2798.29
1505.318	2742.69
1508.557	2789.58
1511.797	2755.23
1515.036	2845.56
1518.274	2830.15
1521.513	2805.69
1524.751	2827.98
1527.989	2839.34
1531.227	2851.75
1534.464	2846.22
1537.701	2869.89
1540.938	2891.56
1544.174	2844.99
1547.41	2842.99
1550.646	2887.23
1553.882	2924.69
1557.117	2978.63
1560.352	2997.07
1563.587	2952.46
1566.821	2909.17
1570.055	2945.95
1573.289	2917.43
1576.523	2998.04
1579.756	3003.09
1582.989	3022.39
1586.222	2979.24
1589.454	3021.53
1592.686	2991.3
1595.918	3015.03
1599.15	3002.57
1602.381	3083.41
1605.612	3033.67
1608.843	3133.9
1612.073	3044.13
1615.303	3025.82
1618.533	3016.22
1621.762	3020.4
1624.992	3006.37
1628.221	2989.7
1631.449	2977.2
1634.678	3038.81
1637.906	2990.48
1641.134	3033.24
1644.361	2985.26
1647.588	2970.1
1650.815	2986.34
1654.042	2965.58
1657.269	2998.56
1660.495	2944.49
1663.72	2950.51
1666.946	2913.56
1670.171	2848.04
1673.396	2824.02
1676.621	2812.89
1679.845	2837.58
1683.069	2860.65
1686.293	2905.79
1689.517	2875.45
1692.74	2798
1695.963	2832.53
1699.185	2868.15
1702.408	2840.92
1705.63	2884.54
1708.852	2895.76
1712.073	2866.73
1715.294	2847.5
1718.515	2913.26
1721.736	2857.21
1724.956	2851.18
1728.176	2878.03
1731.396	2902.3
1734.616	2886.51
1737.835	2911.73
1741.054	2893.55
1744.272	2888.72
1747.491	2919.37
1750.709	2979.01
1753.927	2873.77
1757.144	2921.23
1760.361	2964.8
1763.578	2960.83
1766.795	2897.14
1770.011	2907.92
1773.227	2951.78
1776.443	2989.09
1779.658	3031.77
1782.874	2974.69
1786.089	2950.37
1789.303	2954.14
1792.518	2962.85
1795.732	2948.07
1798.945	2956.55
1802.159	3007.86
1805.372	2901.97
1808.585	2887.38
1811.797	2889.66
1815.01	2942.24
1818.222	2939.55
1821.434	2892.19
1824.645	2956.09
1827.856	2936.47
1831.067	2975.64
1834.278	2932.89
1837.488	2916.69
1840.698	3073.89
1843.908	2990.07
1847.117	2950.75
1850.326	2825
1853.535	2939.3
1856.744	2987.03
1859.952	2894.08
1863.16	2894.9
1866.368	2917.1
1869.575	3025.54
1872.782	2902.84
1875.989	2839.37
1879.196	2933.59
1882.402	2923.35
1885.608	2968.8
1888.814	2862.81
1892.019	2748.13
1895.224	2802.69
1898.429	2784.92
1901.634	2761.14
1904.838	2735.26
1908.042	2790.58
1911.246	2796.8
1914.449	2719.83
1917.652	2719.7
1920.855	2700.48
1924.058	2754.96
1927.26	2793.76
1930.462	2824.3
1933.664	2850.82
1936.865	2785.59
1940.066	2792.23
1943.267	2735.91
1946.467	2753.96
1949.668	2781.63
1952.868	2853.06
1956.067	2825.71
1959.267	2754.87
1962.466	2783.49
1965.665	2767.69
1968.863	2763.2
1972.061	2776.54
1975.259	2778.81
1978.457	2860.4
1981.654	2815.35
1984.852	2817.6
1988.048	2743.79
1991.245	2750.4
1994.441	2837.29
1997.637	2826.12
2000.833	2805.96
2004.028	2848.06
2007.223	2902.49
2010.418	2878.66
2013.613	2838.32
2016.807	2805.46
2020.001	2817.88
2023.194	2861.8
2026.388	2839.74
2029.581	2780.4
2032.774	2829.66
2035.966	2833.79
2039.158	2762.35
2042.35	2792.16
2045.542	2716.21
2048.733	2822.64
2051.924	2851.86
2055.115	2878.25
2058.306	2819.62
2061.496	2878.79
2064.686	2950.43
2067.875	2862.49
2071.065	2880.74
2074.254	2909.28
2077.442	2861.05
2080.631	2955.7
2083.819	2839.49
2087.007	2818.16
2090.195	2787.27
2093.382	2826.13
2096.569	2803.58
2099.756	2752.94
2102.942	2776.04
2106.128	2781.19
2109.314	2772.01
2112.5	2729.3
2115.685	2704.21
2118.87	2714.22
2122.055	2784.3
2125.239	2747.25
2128.424	2716.82
2131.608	2830.16
2134.791	2811.36
2137.974	2875.97
2141.157	2859.63
2144.34	2805.28
2147.523	2824.08
2150.705	2836.35
2153.887	2818.21
2157.068	2760.91
2160.25	2764.79
2163.431	2810.66
2166.611	2749.85
2169.792	2766.2
2172.972	2651.25
2176.152	2737.89
2179.331	2775.55
2182.511	2756.4
2185.69	2787.18
2188.868	2780.47
2192.047	2840.26
2195.225	2827.17
2198.403	2771.21
2201.58	2766.38
2204.758	2763.76
2207.935	2850.01
2211.111	2729.72
2214.288	2712.82
2217.464	2754.27
2220.64	2727.92
2223.815	2785.49
2226.991	2702.16
2230.166	2724.87
2233.34	2753.84
2236.515	2779.73
2239.689	2855.06
2242.863	2798.15
2246.036	2856.13
2249.209	2860.19
2252.382	2898.7
2255.555	2880.37
2258.727	2814.51
2261.9	2856.07
2265.071	2847
2268.243	2849.28
2271.414	2777.79
2274.585	2736.87
2277.756	2805.38
2280.926	2759.64
2284.096	2804.92
2287.266	2701.97
2290.436	2763.63
2293.605	2791.89
2296.774	2824.64
2299.942	2848.71
2303.111	2870.08
2306.279	2918.13
2309.447	2903.12
2312.614	2880.09
2315.781	2899.6
2318.948	2865.2
2322.115	2908.04
2325.281	2805.97
2328.447	2828.84
2331.613	2802.35
2334.779	2771.97
2337.944	2772.73
2341.109	2770.36
2344.274	2752.41
2347.438	2714.95
2350.602	2743.15
2353.766	2759.58
2356.929	2745
2360.092	2786.98
2363.255	2737.64
2366.418	2662.47
2369.58	2788.25
2372.742	2552.19
2375.904	2571.76
2379.066	2544.69
2382.227	2583.16
2385.388	2540.87
2388.548	2463.99
2391.709	2521.58
2394.869	2500.29
2398.029	2605.4
2401.188	2623.76
2404.347	2548.96
2407.506	2708.85
2410.665	2735.47
2413.823	2743.72
2416.981	2695.97
2420.139	2735.59
2423.296	2781.95
2426.453	2758.42
2429.61	2781.4
2432.767	2710.07
2435.923	2747.8
2439.079	2702.82
2442.235	2756.74
2445.391	2678.82
2448.546	2708.14
2451.701	2761.51
2454.855	2726.24
2458.009	2786.5
2461.163	2788.08
2464.317	2747.12
2467.471	2783.42
2470.624	2825.99
2473.777	2803.9
2476.929	2812.39
2480.082	2839.54
2483.234	2800.11
2486.385	2755.77
2489.537	2747.87
2492.688	2706.89
2495.839	2722.72
2498.989	2734.2
2502.14	2714.31
2505.29	2695.38
2508.439	2720.75
2511.589	2641.99
2514.738	2655.27
2517.887	2688.57
2521.035	2753.46
2524.183	2740.42
2527.331	2716.58
2530.479	2688.34
2533.627	2698.04
