Data from N_3_DEC_ON_6N_Splice17_13-37-58-105.txt Node
Date: Sat Mar 14 13:37:58 EDT 2020
User: sa697716
Spectrometer: FLMS03696
Trigger mode: 0
Integration Time (sec): 3.180400E-1
Scans to average: 20
Electric dark correction enabled: true
Nonlinearity correction enabled: true
Boxcar width: 5
XAxis mode: Wavelengths
Number of Pixels in Spectrum: 2048
>>>>>Begin Spectral Data<<<<<
187.83	-475128.47
188.298	3408.49
188.766	1772.88
189.233	1619.07
189.701	2207.24
190.169	2966.43
190.636	1134.36
191.104	926.12
191.571	164.2
192.039	-45.12
192.506	-74.72
192.974	630.94
193.441	-935.73
193.908	-224.42
194.375	-94.3
194.842	-45.46
195.31	103.1
195.777	202.63
196.244	483.36
196.711	586.55
197.177	745.94
197.644	1045.26
198.111	1813.98
198.578	2521.24
199.045	2000.94
199.511	3296.31
199.978	3808.75
200.445	3206.25
200.911	3553.27
201.378	3964.41
201.844	3600.37
202.31	6145.15
202.777	6429.85
203.243	3553.05
203.709	3397.64
204.176	4034.79
204.642	3306.6
205.108	3083.47
205.574	2482.78
206.04	2257.7
206.506	2097.63
206.972	1970.51
207.438	1894.4
207.903	2150.83
208.369	1875.2
208.835	1871.64
209.301	1945.84
209.766	1976.74
210.232	1962.86
210.697	2445.91
211.163	2986.7
211.628	4521.59
212.094	3778.21
212.559	4638.43
213.024	2862.32
213.49	3502.28
213.955	3395.38
214.42	3341.44
214.885	3117.66
215.35	2989.26
215.815	2875.63
216.28	3061.37
216.745	2478.24
217.21	2663.4
217.675	2409.74
218.14	2664.65
218.604	2926.35
219.069	3281.15
219.534	3388.69
219.998	3877.11
220.463	4634.57
220.927	5612.38
221.392	5219.12
221.856	5249.16
222.32	6546.03
222.785	8044.13
223.249	10091.96
223.713	11217.14
224.177	11186.61
224.642	14304.83
225.106	17595.67
225.57	19148.9
226.034	14221.23
226.497	21661.54
226.961	19568.71
227.425	22797.36
227.889	25241.93
228.353	25211.77
228.816	51986.15
229.28	49648.14
229.744	41834.24
230.207	25425.32
230.671	25009.33
231.134	41328.82
231.597	47678.7
232.061	47512.47
232.524	46188.8
232.987	31802.12
233.45	28603.29
233.914	25627.87
234.377	26215.58
234.84	24010.42
235.303	28287.61
235.766	31524.84
236.229	32525.09
236.691	20393.94
237.154	22890.49
237.617	17231.6
238.08	17619.63
238.542	20608.74
239.005	14752.8
239.468	14657.12
239.93	13797.36
240.393	12522.01
240.855	10996.77
241.317	11253.06
241.78	13695.9
242.242	14163.44
242.704	15310.49
243.166	13335.16
243.629	12133.17
244.091	13956.05
244.553	15283.02
245.015	16384.4
245.477	21185.3
245.939	31013.02
246.4	32906.07
246.862	31994.55
247.324	30184.13
247.786	33671.05
248.247	44077.25
248.709	45338.85
249.17	33904.79
249.632	31978.03
250.093	37150.82
250.555	32095.07
251.016	19590.81
251.477	18591.91
251.939	20070.95
252.4	21040.01
252.861	25030.97
253.322	23310.28
253.783	27778.06
254.244	36044.89
254.705	28386.35
255.166	25232.12
255.627	24825.16
256.088	35049.34
256.549	37197.83
257.009	32030.83
257.47	38881.22
257.931	31684.43
258.391	23746.75
258.852	24467.13
259.312	25603.66
259.773	31597.42
260.233	26698.77
260.694	22522.84
261.154	25509.12
261.614	20494.69
262.074	18300.43
262.534	18992.53
262.994	17899.18
263.455	23820.54
263.915	20052.95
264.374	18887.19
264.834	20619.5
265.294	22850.34
265.754	23673.96
266.214	22376.65
266.673	20967.33
267.133	26458.88
267.593	26235.77
268.052	32111.96
268.512	27926.12
268.971	33706.76
269.431	36958.3
269.89	33107.05
270.349	49628.73
270.809	55378.28
271.268	49852.84
271.727	111746.26
272.186	72372.08
272.645	54317.52
273.104	39165.89
273.563	56683.67
274.022	44523.37
274.481	37935.19
274.94	29220.1
275.399	21731.99
275.857	25290.03
276.316	34210.49
276.775	30474.44
277.233	30022.84
277.692	28135.53
278.15	31846.87
278.609	32846.65
279.067	30429.46
279.525	28290.19
279.984	36556.56
280.442	43877.2
280.9	43302.94
281.358	28495.48
281.816	26552.06
282.274	26024.72
282.732	26855.84
283.19	26974.55
283.648	23263.59
284.106	24787.46
284.564	25185.05
285.021	23381.75
285.479	17433.94
285.937	15844.79
286.394	13921.76
286.852	14327.68
287.309	15054.35
287.767	14579.73
288.224	13882.73
288.682	15227.43
289.139	16710.95
289.596	15298.27
290.053	15894.81
290.511	20059.69
290.968	24332.64
291.425	32979.06
291.882	27452.74
292.339	23878.95
292.796	23657.97
293.252	22272.19
293.709	17714.13
294.166	15903.73
294.623	17566.92
295.079	16844.83
295.536	16925.54
295.992	15365.27
296.449	15188.54
296.905	15773.13
297.362	15159.01
297.818	15932.04
298.274	16537.08
298.731	16817.69
299.187	16610.94
299.643	17821.8
300.099	21552.27
300.555	23639.56
301.011	19753.64
301.467	19080.47
301.923	22307.78
302.379	21769.06
302.835	21404.56
303.291	21431.96
303.746	24387.36
304.202	30840.5
304.658	30957.92
305.113	20834.65
305.569	20432.33
306.024	21772.43
306.479	20723.91
306.935	17502.42
307.39	19103.96
307.845	17652.24
308.301	17778.42
308.756	17341.52
309.211	16718.55
309.666	17179.29
310.121	21369.85
310.576	21686.69
311.031	21528.07
311.486	24606.57
311.94	24586.82
312.395	32941.8
312.85	61941.61
313.305	304397.64
313.759	1580198.38
314.214	114502.55
314.668	90669.41
315.123	76160.12
315.577	27368.07
316.032	24366.22
316.486	30613.22
316.94	24239.95
317.394	16890.44
317.849	13140.14
318.303	12434.16
318.757	11729.92
319.211	13002.03
319.665	11401.45
320.119	11549.33
320.572	16524.96
321.026	15453.23
321.48	12850.19
321.934	13972.87
322.387	13988.91
322.841	15113.71
323.295	13638.89
323.748	15702.32
324.202	15914.11
324.655	19106.7
325.108	26745.02
325.562	18920.5
326.015	22493.27
326.468	17030.36
326.921	19085.09
327.374	17841.98
327.827	18608.45
328.28	21057.83
328.733	14115.84
329.186	12433.65
329.639	11859.83
330.092	9997.5
330.545	9529.58
330.997	9606.23
331.45	10513.58
331.903	12330.11
332.355	21165.17
332.808	20513.39
333.26	16904.18
333.713	18381.22
334.165	18472.55
334.617	24642.91
335.069	19880.96
335.522	35916.1
335.974	39877.18
336.426	36412.07
336.878	25227.23
337.33	12809.67
337.782	12542.65
338.234	15738.26
338.686	18827.05
339.137	22334.4
339.589	21057.9
340.041	16515.94
340.493	14221.21
340.944	14561.47
341.396	15707.36
341.847	13232.95
342.299	15633.09
342.75	19102.29
343.201	16639.13
343.653	19101.68
344.104	23468.69
344.555	18475.39
345.006	28730.16
345.457	22049.66
345.908	17510.75
346.359	16444.69
346.81	13360.26
347.261	14039.4
347.712	13804.99
348.163	14795.23
348.613	15015.4
349.064	14029.5
349.515	12278.68
349.965	12620.03
350.416	15174.21
350.866	16623.5
351.317	18790.98
351.767	31170.8
352.217	39463.2
352.668	32796.9
353.118	30164.24
353.568	29099.97
354.018	23052.85
354.468	24358.69
354.918	17506.12
355.368	15319.92
355.818	21698.68
356.268	62565.17
356.718	262533.87
357.168	65418.3
357.617	32842.27
358.067	36490.93
358.517	34217.22
358.966	40208.33
359.416	45148.04
359.865	48774.55
360.315	58241.16
360.764	27219.57
361.213	15305.45
361.663	14474.77
362.112	17892.28
362.561	29004.13
363.01	21994.55
363.459	18573.28
363.908	20120.55
364.357	17148.5
364.806	29012
365.255	19991.02
365.703	18411.65
366.152	18495.72
366.601	15118.91
367.05	12375.63
367.498	11316.5
367.947	11860.53
368.395	12411.99
368.844	11097.28
369.292	13470.78
369.74	9405.68
370.189	14554.88
370.637	17226.44
371.085	15029.62
371.533	18479.98
371.981	18009.03
372.429	17368.29
372.877	18339.76
373.325	15558.46
373.773	16089.95
374.221	14545.01
374.669	18329.59
375.116	16088.54
375.564	16490.56
376.012	18779.18
376.459	15757.51
376.907	19169.12
377.354	23666.56
377.801	22552.32
378.249	26441.27
378.696	34448.94
379.143	42581.14
379.591	46351.81
380.038	80137.86
380.485	59215.85
380.932	65206.02
381.379	61119.91
381.826	45998.64
382.273	33410.52
382.72	29868.59
383.166	29781.7
383.613	19746.9
384.06	18214.94
384.506	21561.16
384.953	16191.63
385.4	16674.66
385.846	14936.79
386.292	14884.04
386.739	14867.29
387.185	15004.72
387.631	15293.35
388.078	15124.66
388.524	16497.43
388.97	15517.91
389.416	13172.69
389.862	14246.75
390.308	13728.89
390.754	14177.65
391.2	15609.85
391.645	16237.15
392.091	15709.94
392.537	15380.47
392.983	15639.36
393.428	15548.41
393.874	16894.31
394.319	17149.91
394.765	16455.98
395.21	17138.26
395.655	16249.44
396.101	15392.29
396.546	14021.91
396.991	14327.64
397.436	13441.43
397.881	13107.48
398.326	12549.85
398.771	11948.44
399.216	10547.14
399.661	9579.97
400.106	9602.43
400.551	9894.26
400.995	8936.1
401.44	8899.77
401.885	8410.51
402.329	8548.28
402.774	8234.03
403.218	7982.91
403.663	7735.42
404.107	7983.37
404.551	8072.22
404.995	7438.08
405.44	7200.04
405.884	7337.79
406.328	7138.59
406.772	7144.32
407.216	6527.64
407.66	6333.29
408.104	6052.69
408.547	5683.69
408.991	5516.33
409.435	5328.63
409.879	5261.9
410.322	5203.7
410.766	5029.01
411.209	4781.32
411.653	4595.18
412.096	4502.75
412.54	4512.93
412.983	4488.07
413.426	4499.64
413.869	4502.93
414.312	4411.93
414.756	4256.53
415.199	4063.9
415.642	3949.47
416.085	3956.12
416.527	3933.63
416.97	4003.84
417.413	3797.35
417.856	3768.45
418.298	3734.43
418.741	3719.21
419.184	3726.25
419.626	3895.2
420.069	3899.56
420.511	3919.25
420.953	3832.47
421.396	3800.98
421.838	3709.39
422.28	3795.87
422.722	3806.2
423.164	3864.75
423.606	3791.79
424.048	3784.78
424.49	3589.31
424.932	3576.26
425.374	3533.61
425.816	3602.11
426.258	3667.85
426.699	3708.69
427.141	3650.12
427.582	3710.93
428.024	3693.96
428.465	3677.27
428.907	3581.14
429.348	3536.56
429.789	3524.68
430.231	3438.12
430.672	3480.62
431.113	3395.48
431.554	3337.37
431.995	3252.86
432.436	3125.2
432.877	3045
433.318	2982.59
433.759	2968.05
434.2	2961.58
434.64	2930.25
435.081	2939.7
435.522	2782.56
435.962	2680.65
436.403	2619.61
436.843	2660.34
437.284	2609.43
437.724	2549.25
438.164	2564.51
438.604	2512.73
439.045	2420.86
439.485	2318.27
439.925	2276.82
440.365	2223.8
440.805	2198.68
441.245	2174.2
441.685	2095.56
442.125	2087.19
442.564	2104.81
443.004	2062.18
443.444	2063.34
443.883	2071.58
444.323	2071.92
444.762	2087.63
445.202	2125.95
445.641	2167.18
446.081	2165.45
446.52	2191.65
446.959	2172.95
447.398	2120.99
447.837	2100.77
448.276	2070.85
448.716	2096.81
449.154	2122.17
449.593	2073.44
450.032	2069.04
450.471	2042.34
450.91	2050.95
451.349	2049.13
451.787	2049.46
452.226	2088.27
452.664	2093.6
453.103	2099.51
453.541	2105.59
453.98	2099.76
454.418	2118.03
454.856	2086.12
455.295	2085.03
455.733	2103.16
456.171	2118.44
456.609	2118.63
457.047	2119.8
457.485	2148.38
457.923	2151.37
458.361	2121.8
458.798	2132.59
459.236	2127.19
459.674	2145.02
460.111	2152.46
460.549	2129.54
460.987	2122.5
461.424	2118.88
461.862	2107.61
462.299	2072.55
462.736	2065.85
463.173	2070.91
463.611	2037.52
464.048	2027.96
464.485	2039.86
464.922	2021.07
465.359	2010.05
465.796	1962.6
466.233	1942.63
466.67	1916.26
467.106	1909.01
467.543	1893.21
467.98	1870.04
468.416	1827.57
468.853	1816.86
469.29	1765.37
469.726	1746.5
470.162	1702.36
470.599	1698.33
471.035	1688.18
471.471	1653.74
471.907	1651.12
472.344	1644.5
472.78	1650.05
473.216	1675.53
473.652	1657.59
474.088	1656.56
474.523	1652.61
474.959	1670.22
475.395	1656.95
475.831	1647.91
476.266	1659.52
476.702	1658.47
477.138	1641.7
477.573	1640.11
478.008	1636.58
478.444	1645.67
478.879	1662.22
479.314	1672.4
479.75	1675.09
480.185	1688.62
480.62	1708.84
481.055	1721.24
481.49	1735.07
481.925	1763.89
482.36	1791.55
482.795	1846.11
483.229	1901.96
483.664	1944.78
484.099	1956.11
484.534	1987.38
484.968	2006.04
485.403	2015.66
485.837	2017.87
486.271	2017.39
486.706	2021.73
487.14	2004.88
487.574	1972.48
488.009	1955.11
488.443	1939.85
488.877	1958.3
489.311	1966.48
489.745	1989.44
490.179	2005.23
490.613	2036.68
491.046	2054.21
491.48	2069.87
491.914	2072.14
492.348	2087.61
492.781	2098.32
493.215	2103.38
493.648	2108.42
494.082	2122.3
494.515	2121.28
494.948	2141.36
495.382	2158.37
495.815	2169.12
496.248	2180.36
496.681	2217.06
497.114	2249.01
497.547	2274.07
497.98	2304.87
498.413	2315.52
498.846	2338.61
499.279	2360.53
499.711	2369.52
500.144	2368.91
500.577	2388.71
501.009	2412.29
501.442	2428.11
501.874	2419.05
502.306	2414.73
502.739	2420.88
503.171	2451.3
503.603	2445.91
504.036	2456.88
504.468	2455.71
504.9	2472.13
505.332	2475.7
505.764	2470.67
506.196	2472.01
506.627	2491.19
507.059	2506.07
507.491	2513.64
507.923	2485.82
508.354	2503.71
508.786	2509.16
509.217	2531.62
509.649	2542.45
510.08	2565.77
510.512	2579.68
510.943	2590.02
511.374	2591.81
511.805	2615.53
512.237	2634.03
512.668	2684.15
513.099	2719.95
513.53	2753.58
513.961	2770.12
514.391	2812.56
514.822	2853.89
515.253	2902.81
515.684	2928.83
516.114	2960
516.545	2970.41
516.975	2993.33
517.406	2998.55
517.836	2971.52
518.267	2953.23
518.697	2957.4
519.127	2935.4
519.558	2919.44
519.988	2897.41
520.418	2889.01
520.848	2896.8
521.278	2887.62
521.708	2871.01
522.138	2868.95
522.567	2903.48
522.997	2925.76
523.427	2933.49
523.857	2942.45
524.286	2940.1
524.716	2946.75
525.145	2959.7
525.575	2958.79
526.004	2967.08
526.433	2954.37
526.863	2938.01
527.292	2903.26
527.721	2898.64
528.15	2894.34
528.579	2881.47
529.008	2886.26
529.437	2912.36
529.866	2924.66
530.295	2942.48
530.724	2951.16
531.152	2985.98
531.581	2999.89
532.01	3019.5
532.438	3023.3
532.867	3038.35
533.295	3060.45
533.723	3063.44
534.152	3053.08
534.58	3044.59
535.008	3011.91
535.436	3009.5
535.865	3015.78
536.293	3034.74
536.721	3055.61
537.149	3092.83
537.576	3091.05
538.004	3107.3
538.432	3116.64
538.86	3109.82
539.287	3117.76
539.715	3137.37
540.143	3138.81
540.57	3131.29
540.998	3121.17
541.425	3080.63
541.852	3044.35
542.28	3039.96
542.707	3010.54
543.134	2985.03
543.561	2976.25
543.988	2962.93
544.415	2961.02
544.842	2949.71
545.269	2936.75
545.696	2939.77
546.123	2959.65
546.549	2942.05
546.976	2920.62
547.403	2920.97
547.829	2925.05
548.256	2928.92
548.682	2923.06
549.108	2910.63
549.535	2910.82
549.961	2914.9
550.387	2893.09
550.813	2886.17
551.24	2897.42
551.666	2901.78
552.092	2887.77
552.518	2879.66
552.943	2871.77
553.369	2886.43
553.795	2898.98
554.221	2904.19
554.646	2901.77
555.072	2923.17
555.498	2934.77
555.923	2954.42
556.349	2983.33
556.774	3004.21
557.199	3011
557.625	3027.57
558.05	3023.05
558.475	3046.48
558.9	3051.24
559.325	3045.36
559.75	3042.68
560.175	3040.75
560.6	3038.75
561.025	3043.57
561.449	3053.15
561.874	3072.11
562.299	3088.84
562.723	3111.29
563.148	3102.86
563.572	3120.39
563.997	3147.87
564.421	3168.87
564.846	3180.8
565.27	3197.87
565.694	3206.91
566.118	3240.5
566.542	3265.79
566.966	3267.57
567.39	3274.57
567.814	3269.05
568.238	3282.5
568.662	3307.4
569.086	3325.79
569.509	3353.58
569.933	3339.92
570.357	3340.35
570.78	3314.78
571.204	3305.13
571.627	3300.05
572.05	3311.56
572.474	3326.29
572.897	3317.18
573.32	3315.36
573.743	3313.72
574.166	3294.42
574.589	3311.57
575.012	3312.32
575.435	3326.85
575.858	3325.33
576.281	3318.5
576.704	3301.3
577.126	3293.28
577.549	3286.69
577.972	3282.21
578.394	3275.11
578.817	3272.65
579.239	3247.6
579.661	3233.37
580.084	3211.72
580.506	3197.75
580.928	3202.35
581.35	3192.75
581.772	3195.63
582.194	3179.59
582.616	3165.69
583.038	3147.85
583.46	3136.92
583.882	3139.89
584.303	3159.61
584.725	3162.05
585.147	3170.63
585.568	3201.74
585.99	3235.48
586.411	3256.34
586.833	3296.48
587.254	3308.43
587.675	3346.76
588.096	3381.37
588.518	3379.08
588.939	3349.32
589.36	3353.61
589.781	3344.19
590.202	3285.89
590.623	3273.2
591.043	3275.2
591.464	3251.76
591.885	3247.95
592.305	3240.49
592.726	3217.15
593.147	3225.08
593.567	3220.2
593.987	3208.35
594.408	3202.69
594.828	3208.3
595.248	3199.85
595.669	3163.68
596.089	3154.63
596.509	3145.27
596.929	3119.5
597.349	3126.44
597.769	3108.07
598.189	3097.87
598.608	3103.98
599.028	3110.85
599.448	3114.8
599.867	3090.95
600.287	3087.33
600.706	3080.63
601.126	3063.16
601.545	3064.13
601.965	3066.24
602.384	3060.26
602.803	3072.13
603.222	3067.07
603.641	3059.61
604.061	3056.39
604.48	3054.29
604.898	3080.22
605.317	3099.94
605.736	3113.2
606.155	3114.91
606.574	3102.55
606.992	3124.08
607.411	3122.09
607.829	3113.75
608.248	3116.19
608.666	3121.65
609.085	3130.58
609.503	3120.32
609.921	3116.37
610.339	3132.09
610.758	3142.77
611.176	3143.25
611.594	3131.85
612.012	3135.47
612.43	3153.56
612.847	3180.44
613.265	3193.39
613.683	3216.52
614.101	3231.02
614.518	3234.26
614.936	3223.01
615.353	3198.75
615.771	3200.74
616.188	3211.77
616.606	3214.1
617.023	3207.11
617.44	3180.96
617.857	3175.65
618.274	3163.66
618.691	3156.21
619.108	3142.06
619.525	3134.34
619.942	3158.11
620.359	3172.69
620.776	3166.75
621.192	3161.86
621.609	3161.91
622.026	3184.64
622.442	3203.81
622.859	3218.02
623.275	3205
623.691	3221.77
624.108	3253.82
624.524	3295.01
624.94	3299.06
625.356	3328.2
625.772	3366.16
626.188	3399.84
626.604	3406.85
627.02	3399.22
627.436	3393.41
627.852	3412.57
628.268	3445.5
628.683	3425.25
629.099	3404.56
629.514	3394.3
629.93	3406.3
630.345	3420.24
630.761	3414.6
631.176	3426.62
631.591	3412.15
632.007	3400.65
632.422	3401.59
632.837	3379.01
633.252	3376.35
633.667	3355.79
634.082	3338.62
634.497	3311.86
634.911	3264.02
635.326	3261.84
635.741	3225.26
636.155	3210.88
636.57	3224.49
636.984	3233.41
637.399	3245.25
637.813	3256.63
638.228	3265.84
638.642	3290.58
639.056	3276.31
639.47	3293.86
639.884	3284.88
640.298	3282.92
640.712	3292.01
641.126	3272.93
641.54	3264.9
641.954	3271.02
642.368	3250.65
642.781	3238.4
643.195	3202.63
643.609	3218.93
644.022	3217.8
644.436	3220.18
644.849	3199.83
645.262	3181.73
645.676	3201.14
646.089	3199.69
646.502	3165.03
646.915	3164.42
647.328	3129.04
647.741	3134.42
648.154	3104.8
648.567	3099.41
648.98	3069.77
649.393	3077.87
649.805	3072.93
650.218	3057.17
650.631	3015.34
651.043	3003.59
651.456	2990.46
651.868	3002.5
652.28	3062.49
652.693	3115.62
653.105	3148.24
653.517	3185.88
653.929	3195.86
654.341	3222.4
654.753	3193.2
655.165	3223.91
655.577	3224.97
655.989	3222.12
656.401	3209.48
656.813	3103.39
657.224	3049.72
657.636	2972.92
658.047	2924.86
658.459	2873.36
658.87	2860
659.282	2834.35
659.693	2777.18
660.104	2741.53
660.515	2709.48
660.926	2711.58
661.338	2714.63
661.749	2703
662.159	2677.72
662.57	2673.77
662.981	2665.94
663.392	2646.15
663.803	2663.98
664.213	2662.04
664.624	2653.64
665.035	2668.04
665.445	2625.98
665.855	2599.73
666.266	2572.23
666.676	2566.9
667.086	2537.5
667.497	2533.24
667.907	2509.91
668.317	2478.27
668.727	2455.37
669.137	2454.51
669.547	2441.35
669.956	2448.64
670.366	2454
670.776	2455.23
671.186	2462.96
671.595	2467.13
672.005	2474.36
672.414	2465.91
672.824	2453.5
673.233	2471.34
673.642	2472.1
674.052	2472.13
674.461	2467.67
674.87	2474.51
675.279	2458.81
675.688	2460.79
676.097	2456.98
676.506	2440.61
676.915	2483.24
677.323	2488.16
677.732	2476.23
678.141	2471.06
678.549	2436.31
678.958	2434.29
679.366	2431.87
679.775	2449.69
680.183	2475.57
680.592	2497.16
681	2517.64
681.408	2496.7
681.816	2524.77
682.224	2557.38
682.632	2590.43
683.04	2688.97
683.448	2770.04
683.856	2865.12
684.264	2974.36
684.671	3078.47
685.079	3200.77
685.487	3332.46
685.894	3515.41
686.302	3655.87
686.709	3758.23
687.116	3877.71
687.524	3957.84
687.931	4011.65
688.338	4046.84
688.745	4061.32
689.152	4080.99
689.559	4122.99
689.966	4155.97
690.373	4124.17
690.78	4139.68
691.187	4213.5
691.593	4237.38
692	4245.63
692.407	4296.91
692.813	4373.23
693.22	4411.3
693.626	4450.59
694.032	4456.63
694.439	4519.39
694.845	4543.62
695.251	4601.92
695.657	4635.95
696.063	4740.75
696.469	4787.62
696.875	4825.49
697.281	4807.34
697.687	4806.7
698.093	4789.93
698.498	4843.38
698.904	4865.37
699.31	4939.15
699.715	4964.79
700.12	5045.27
700.526	4998.4
700.931	5040.54
701.337	5053.07
701.742	5037.3
702.147	5104.32
702.552	5088.3
702.957	5119.09
703.362	5087.7
703.767	5072.16
704.172	5078.65
704.577	4952.71
704.981	4971.57
705.386	4944.17
705.791	4885.2
706.195	4945.8
706.6	4910.62
707.004	4978.95
707.408	4892.33
707.813	4886.28
708.217	4828.77
708.621	4791.04
709.025	4885.85
709.43	4848.95
709.834	4891.87
710.237	4950.27
710.641	4894.78
711.045	4891.27
711.449	4849.43
711.853	4854.5
712.256	4879.15
712.66	4898.4
713.064	4962.96
713.467	4985.94
713.87	5098.14
714.274	5127.5
714.677	5233.12
715.08	5402.64
715.484	5578
715.887	5795.46
716.29	6007.82
716.693	6228.11
717.096	6485.13
717.499	6615.28
717.901	6616.41
718.304	6617.15
718.707	6619.5
719.109	6471.34
719.512	6409.53
719.915	6228.39
720.317	6142.05
720.719	6168.73
721.122	6113.33
721.524	6034.08
721.926	5966.98
722.328	6063.26
722.731	6033.58
723.133	6045.61
723.535	6244.77
723.937	6250.23
724.338	6292.01
724.74	6316.83
725.142	6246.76
725.544	6230.08
725.945	6248.39
726.347	6225.9
726.748	6203.36
727.15	6205.7
727.551	6150.76
727.952	6105.31
728.354	6060.64
728.755	6048.32
729.156	5990.7
729.557	5949.04
729.958	5802.66
730.359	5728.43
730.76	5699.99
731.161	5624.13
731.562	5587.9
731.962	5583.71
732.363	5507.34
732.763	5431.86
733.164	5464.37
733.564	5389.16
733.965	5280.43
734.365	5238.44
734.766	5263.02
735.166	5214.91
735.566	5151.86
735.966	5119.1
736.366	5108.63
736.766	5040.63
737.166	5069.4
737.566	5020.4
737.966	4985.83
738.365	5021.4
738.765	5010.4
739.165	4928.53
739.564	4896.61
739.964	4939.16
740.363	4885.13
740.763	4879.81
741.162	4864.84
741.561	4827.58
741.96	4776.16
742.36	4797.28
742.759	4800.02
743.158	4837.17
743.557	4851.45
743.955	4889.9
744.354	4839.48
744.753	4898.83
745.152	4852.46
745.55	4906.54
745.949	4899.75
746.348	4900.35
746.746	4912.86
747.144	4870.43
747.543	4848.17
747.941	4894.25
748.339	4821.48
748.737	4812.82
749.136	4802.26
749.534	4868.11
749.932	4839.14
750.33	4862.19
750.727	4915.72
751.125	4892.73
751.523	4877.95
751.921	4921.03
752.318	4887.04
752.716	4947.99
753.113	4961.29
753.511	4988.71
753.908	4988.23
754.305	4970.94
754.703	5033.52
755.1	5096.74
755.497	5157.12
755.894	5353.24
756.291	5536.88
756.688	5874.57
757.085	6324.63
757.482	6962.36
757.878	7657.1
758.275	8287.17
758.672	9146.39
759.068	9850.72
759.465	10854.59
759.861	12143.69
760.258	13636.13
760.654	14406.99
761.05	14297.11
761.447	13641.8
761.843	12698.72
762.239	11716.92
762.635	11277.9
763.031	10856.89
763.427	10248.84
763.822	9609.44
764.218	8976.04
764.614	8158.27
765.01	7613.52
765.405	7254.34
765.801	6985.65
766.196	6641.29
766.592	6450.34
766.987	6126.62
767.382	5907.75
767.778	5815.31
768.173	5681.28
768.568	5613.01
768.963	5484.82
769.358	5501.8
769.753	5455.25
770.148	5369.38
770.542	5367.71
770.937	5337.54
771.332	5428.63
771.726	5447.59
772.121	5385.7
772.515	5444.02
772.91	5426.49
773.304	5499.95
773.699	5429.77
774.093	5485.48
774.487	5543.39
774.881	5588.96
775.275	5584.27
775.669	5541.56
776.063	5588.33
776.457	5622.96
776.851	5544.4
777.245	5535.11
777.638	5566.95
778.032	5687.59
778.425	5648.15
778.819	5691.07
779.212	5646.86
779.606	5606.02
779.999	5627.58
780.392	5610.33
780.786	5693.36
781.179	5714.91
781.572	5759.68
781.965	5773.87
782.358	5713.7
782.751	5773.58
783.143	5725.55
783.536	5800.35
783.929	5843.05
784.322	5961.08
784.714	5990.66
785.107	5985.39
785.499	6062.47
785.891	6040.06
786.284	6019.21
786.676	6170.1
787.068	6151.41
787.46	6203.96
787.852	6227.29
788.245	6319.25
788.636	6350.51
789.028	6425.79
789.42	6466.85
789.812	6476.32
790.204	6576.81
790.595	6681.47
790.987	6480.33
791.378	6502.33
791.77	6634.67
792.161	6773.94
792.553	6831.24
792.944	6716.26
793.335	6648.53
793.726	6728.41
794.117	6819.65
794.508	6965.67
794.899	6934.51
795.29	7080.82
795.681	7143.76
796.072	7000.08
796.463	6818.19
796.853	6827.42
797.244	6991.59
797.634	7025.34
798.025	7022.83
798.415	7036.52
798.806	7126.44
799.196	7221.43
799.586	7276.66
799.976	7240.84
800.366	7481.19
800.756	7724.03
801.146	7685.09
801.536	7715.14
801.926	7792.36
802.316	7825.86
802.706	7902.72
803.095	7779.62
803.485	7883.81
803.874	7924.69
804.264	8200.62
804.653	8177.4
805.043	8331.47
805.432	8452.86
805.821	8456.52
806.21	8480.9
806.599	8604.75
806.988	8659.31
807.377	8769.13
807.766	8902.39
808.155	9205.24
808.544	8927.43
808.933	8943.65
809.321	8922.56
809.71	9228.07
810.098	9397.31
810.487	9879.59
810.875	10381.09
811.264	10397.15
811.652	10703.49
812.04	10858
812.428	11023.84
812.816	11817.47
813.204	12259.72
813.592	12825.59
813.98	13177.38
814.368	13086.49
814.756	13592.21
815.144	13511.76
815.531	14012.36
815.919	13943.8
816.306	14270.68
816.694	13955.79
817.081	14012.48
817.469	14373.46
817.856	14384.22
818.243	14666.54
818.63	15079.7
819.017	14640.27
819.404	14707.53
819.791	15098.81
820.178	15736.63
820.565	16001.29
820.952	16975.97
821.339	16459.68
821.725	16649.52
822.112	15872.25
822.498	15837.57
822.885	15969.66
823.271	15870.59
823.657	16304.38
824.044	16320.33
824.43	16392.94
824.816	16364.81
825.202	15904.99
825.588	16975.62
825.974	16999.28
826.36	17547.91
826.746	17569.61
827.132	17942.55
827.517	17911.52
827.903	17097.17
828.289	17135.22
828.674	16327.09
829.06	16213.49
829.445	16617.67
829.83	16981.58
830.216	17463.47
830.601	17836.33
830.986	17412.6
831.371	17267.24
831.756	17848.28
832.141	17387.3
832.526	17372.31
832.911	17647.43
833.295	17517.82
833.68	18007.16
834.065	17358.71
834.449	16409.83
834.834	16327.88
835.218	16327.81
835.603	16674.93
835.987	16449.64
836.371	17319.86
836.755	17209.77
837.139	17631.44
837.524	17874.59
837.908	17686.1
838.291	17751.65
838.675	17815.55
839.059	18029.26
839.443	18004.13
839.827	17759.64
840.21	18248.39
840.594	18085.78
840.977	18293.7
841.361	18271.88
841.744	18664.56
842.127	18496.43
842.511	18741.6
842.894	19358.74
843.277	19746.69
843.66	20308.61
844.043	20394.34
844.426	19557.35
844.809	19238.95
845.191	19268.15
845.574	18779.31
845.957	18398.63
846.339	18286.14
846.722	17746.7
847.104	17815.91
847.487	17633.44
847.869	17645.42
848.252	17928.05
848.634	18274.18
849.016	18540.32
849.398	18666.27
849.78	19548.45
850.162	19548.54
850.544	19985.15
850.926	20624.01
851.307	20528.34
851.689	20821.96
852.071	21283.44
852.452	21620.29
852.834	21596.63
853.215	21993.99
853.597	22164.14
853.978	22472.92
854.359	22948.28
854.741	21919.93
855.122	21822.11
855.503	21536.02
855.884	21667.89
856.265	21605.08
856.646	21728.82
857.026	21320.96
857.407	21264.12
857.788	21417.98
858.169	21706.31
858.549	20830.92
858.93	21467.56
859.31	21526.05
859.69	21736.54
860.071	21328.29
860.451	21108.4
860.831	20342.34
861.211	21548.48
861.591	22110.39
861.971	22083.95
862.351	22288.27
862.731	22688.43
863.111	22969.01
863.491	23305.4
863.87	24216.88
864.25	24573.15
864.629	24167.07
865.009	24702.05
865.388	25578.37
865.768	27418.72
866.147	27321.73
866.526	25814.06
866.905	26129.86
867.284	27588.18
867.663	26193.78
868.042	25091.95
868.421	25025.35
868.8	25439.99
869.179	25690.81
869.558	24192.62
869.936	22300.05
870.315	22694.67
870.693	23250.01
871.072	25075.29
871.45	23889.44
871.828	24206.46
872.207	25461.73
872.585	25072.1
872.963	25743.84
873.341	24853.15
873.719	24562.2
874.097	24275.46
874.475	24737.64
874.853	25302.57
875.23	24246.87
875.608	25266.22
875.986	27312.36
876.363	26120.39
876.741	26913.71
877.118	26252.73
877.495	27549.91
877.873	28011.58
878.25	29469.65
878.627	28255.41
879.004	28650.48
879.381	28505.2
879.758	27759.8
880.135	25856.11
880.512	27328.47
880.889	26596.91
881.265	26312.84
881.642	26083.56
882.019	26508.84
882.395	25966.98
882.772	27009.61
883.148	25837.71
883.524	25739.85
883.901	25589.36
884.277	25959.3
884.653	25788.04
885.029	26513.48
885.405	29362.05
885.781	29131.46
886.157	27928.22
886.532	28259.86
886.908	28234.53
887.284	31384.42
887.659	32377.41
888.035	33368.17
888.411	34231.92
888.786	34681.83
889.161	35889.29
889.537	35226.58
889.912	36352.28
890.287	36306.84
890.662	37233.65
891.037	36545.49
891.412	34070.25
891.787	33737.81
892.162	32555.96
892.536	33293.33
892.911	32049.13
893.286	31363.71
893.66	30073.82
894.035	30835.24
894.409	33574.56
894.784	32216.52
895.158	32746.14
895.532	34681.07
895.906	35621.03
896.281	36460.84
896.655	35895.2
897.029	40992.69
897.402	42691.38
897.776	47523.03
898.15	47341.31
898.524	46821.9
898.898	47447.1
899.271	53131.48
899.645	46032.24
900.018	44210.05
900.392	45833.74
900.765	46201.46
901.138	42780.91
901.511	42146.65
901.884	38715.2
902.258	35726.93
902.631	36943.11
903.003	42522.29
903.376	38388.19
903.749	43028.15
904.122	46079.34
904.495	50765.15
904.867	51447.96
905.24	44651.95
905.612	41556.14
905.985	42502.78
906.357	44437.19
906.729	42404.05
907.102	36228.17
907.474	34837.33
907.846	35076.81
908.218	34618.48
908.59	30589.23
908.962	29565.08
909.334	31839.92
909.705	33450.65
910.077	32474.07
910.449	33808.37
910.82	34759.3
911.192	38257.63
911.563	39751.49
911.935	42535.77
912.306	42573.51
912.677	43966.85
913.048	43543.55
913.419	47262.96
913.79	47550.95
914.161	50996.44
914.532	48753.64
914.903	44795.84
915.274	42555.24
915.645	41936.43
916.015	36927.82
916.386	35230.66
916.756	37500.2
917.127	38666.68
917.497	34562.18
917.868	37622.32
918.238	35762.38
918.608	36803.56
918.978	37587.4
919.348	39811.59
919.718	41142.5
920.088	39628.4
920.458	41197.68
920.828	43343.88
921.198	41113.53
921.567	43919.06
921.937	34027.3
922.306	34353.34
922.676	37049.76
923.045	30904.36
923.415	29346.65
923.784	26723.31
924.153	27484.38
924.522	27456.19
924.891	25825.08
925.26	27671.2
925.629	27015.67
925.998	31056.02
926.367	30306.54
926.736	28862.8
927.104	34374.22
927.473	36985.87
927.842	44672.66
928.21	44245.34
928.578	46509.87
928.947	43977.86
929.315	44258.36
929.683	51934.38
930.051	52378.39
930.42	60850.53
930.788	52015.68
931.156	51642.24
931.523	48375.91
931.891	44713.71
932.259	42966.03
932.627	49798.55
932.994	70482.81
933.362	58237.99
933.729	50555.82
934.097	48357.43
934.464	40967.54
934.831	47244.47
935.199	46607.52
935.566	45217.43
935.933	45782.68
936.3	55445.99
936.667	43177.06
937.034	38988.89
937.401	38546.6
937.767	33273.15
938.134	29653.73
938.501	41807.31
938.867	44635.74
939.234	75478.39
939.6	64406.43
939.967	71077.4
940.333	47607.79
940.699	40554.53
941.065	32500.36
941.431	42665.39
941.798	41161.74
942.163	54021.87
942.529	33757.79
942.895	31070.11
943.261	20095.04
943.627	26401.32
943.992	23125.86
944.358	23171.31
944.723	23248.96
945.089	22667.78
945.454	20952.36
945.82	22371.25
946.185	21505.27
946.55	24888.85
946.915	22322.32
947.28	26229.11
947.645	23090.01
948.01	21334.95
948.375	22231.79
948.74	26667.32
949.104	31099.95
949.469	44866.37
949.834	79249.58
950.198	75146.59
950.562	45072.09
950.927	37523.5
951.291	45146.27
951.655	38470.18
952.02	36080.12
952.384	27273.61
952.748	23718.17
953.112	23134.95
953.476	20140.23
953.839	18636.49
954.203	18463.49
954.567	23092.57
954.931	36378.81
955.294	31087.19
955.658	31240.77
956.021	53117.97
956.385	90070.71
956.748	132997.61
957.111	206347.17
957.474	231413.15
957.837	260142.16
958.2	196635.64
958.563	70681.3
958.926	47774.16
959.289	72586.94
959.652	81102.61
960.015	60889.77
960.377	87420.64
960.74	99742.12
961.102	172028.83
961.465	184785.04
961.827	99134.82
962.189	190185.38
962.552	131950.31
962.914	105815.57
963.276	68575.63
963.638	56671.37
964	56081.41
964.362	37857.84
964.724	36579.13
965.085	26085.35
965.447	21383.01
965.809	24342.24
966.17	24379.32
966.532	26369.39
966.893	24203.51
967.255	22030.61
967.616	25982.13
967.977	20809.89
968.338	22731.18
968.699	18687.63
969.061	18691.13
969.421	18823.24
969.782	21139.11
970.143	17851.29
970.504	18511.83
970.865	21051.18
971.225	21507.29
971.586	21076.03
971.946	30058.26
972.307	26103.02
972.667	34097.25
973.027	35141.13
973.388	42605
973.748	28967.69
974.108	31571.7
974.468	42646.84
974.828	32865.15
975.188	25311.43
975.548	23223.81
975.907	19473.32
976.267	21832.41
976.627	18352.89
976.986	19002.33
977.346	18114.17
977.705	17449.37
978.064	15866.08
978.424	13209.04
978.783	13659.34
979.142	15600.97
979.501	14940.97
979.86	15814.6
980.219	15241.05
980.578	19655.49
980.937	22009
981.296	19624.08
981.654	20153.4
982.013	31350.46
982.371	40674.39
982.73	37947.75
983.088	42892.19
983.447	45753.56
983.805	65425.47
984.163	136839.36
984.521	151666.13
984.879	222620.35
985.237	-362001.36
985.595	349493.1
985.953	86932.5
986.311	50253.16
986.669	29191.47
987.026	25215.78
987.384	33951.85
987.741	35072.98
988.099	25104.83
988.456	20038.3
988.814	18759.21
989.171	16290.57
989.528	16063.74
989.885	16944.52
990.242	13407.37
990.599	16694.1
990.956	13665.69
991.313	9557.37
991.67	7834.72
992.027	8306.02
992.383	7382.62
992.74	6486.75
993.096	6810.99
993.453	7048.79
993.809	7302.66
994.165	9744.49
994.522	8958.41
994.878	9869.64
995.234	12389.35
995.59	12247.15
995.946	11578.71
996.302	13229.96
996.658	15262.87
997.013	16848.18
997.369	20048.14
997.725	25741.37
998.08	16666.85
998.436	25600.09
998.791	35350.1
999.147	35221.39
999.502	38390.5
999.857	27888.26
1000.212	45470.1
1000.567	64790.81
1000.922	37387.23
1001.277	23730.95
1001.632	17608.28
1001.987	22703.93
1002.342	16311.61
1002.696	13038.39
1003.051	10408.69
1003.406	12599.14
1003.76	12559.14
1004.114	12366.48
1004.469	10392.93
1004.823	8587.31
1005.177	9278.72
1005.531	7346.21
1005.885	6503.85
1006.239	7343.32
1006.593	9205.47
1006.947	12340.34
1007.301	9254.79
1007.655	10070.53
1008.008	7400.04
1008.362	8309.36
1008.715	11878.41
1009.069	10750.61
1009.422	16203.49
1009.776	32505.7
1010.129	21538.56
1010.482	18012.19
1010.835	15216.1
1011.188	31747.29
1011.541	29976.87
1011.894	-183335.97
1012.247	539655.61
1012.6	36739.17
1012.952	23195.68
1013.305	11933.77
1013.657	8595.35
1014.01	8186.76
1014.362	6749.28
1014.715	6003.14
1015.067	5228.05
1015.419	5109.88
1015.771	4529.38
1016.123	4044.11
1016.475	4149.35
1016.827	4444.17
1017.179	4783.49
1017.531	4829.12
1017.883	4911.2
1018.234	4769.34
1018.586	6047.2
1018.938	6421.5
1019.289	8819.05
1019.64	10081.08
1019.992	9357.04
1020.343	8582.6
1020.694	6755.31
1021.045	5971.58
1021.396	6841.61
1021.747	7390.27
1022.098	8838.08
1022.449	6390.78
1022.8	5911.32
1023.151	4137.14
1023.501	3675.98
1023.852	4008.37
1024.202	4163.23
1024.553	4587.82
1024.903	4515.27
1025.253	3863.62
1025.604	3471.84
1025.954	4313.94
1026.304	5261.93
1026.654	6177.4
1027.004	9089.48
1027.354	14690.4
1027.703	13856.8
1028.053	18226.51
1028.403	26697.56
1028.753	38320.19
1029.102	52285.22
1029.452	269301.2
1029.801	11656
1030.15	7553.9
1030.499	6388.85
897.758	3285
901.051	3265.08
904.343	3304.7
907.636	3296.83
910.928	3367.65
914.22	3266.86
917.511	3276.58
920.803	3365.34
924.094	3413.86
927.384	3364.22
930.675	3325.83
933.965	3265.82
937.255	3261.01
940.544	3225.23
943.834	3078.03
947.123	3034.76
950.411	3142.47
953.7	3105.95
956.988	3051.22
960.276	2995.1
963.563	3118.48
966.851	3100.26
970.138	3176.4
973.424	3154.6
976.711	3100.91
979.997	3355.33
983.283	3371.58
986.568	3240.32
989.853	3287.26
993.138	3319.37
996.423	3404.21
999.708	3314.04
1002.992	3431.24
1006.275	3160.21
1009.559	3266.66
1012.842	3406.89
1016.125	3310.37
1019.408	3289.8
1022.69	3416.89
1025.972	3421.73
1029.254	3389.4
1032.536	3280.62
1035.817	3326.24
1039.098	3227.23
1042.379	3498.89
1045.659	3445.75
1048.939	3357.35
1052.219	3400.84
1055.498	3427.23
1058.778	3399.51
1062.057	3388.14
1065.335	3406.45
1068.614	3438.81
1071.892	3406.43
1075.17	3508.85
1078.447	3481.33
1081.724	3469.45
1085.001	3521.77
1088.278	3484.99
1091.554	3508.29
1094.83	3503.17
1098.106	3530.66
1101.382	3594.56
1104.657	3594.14
1107.932	3590.95
1111.206	3534.41
1114.481	3493.59
1117.755	3502.56
1121.029	3464.94
1124.302	3517.96
1127.575	3446.7
1130.848	3424.4
1134.121	3371.22
1137.393	3304.02
1140.665	3386.79
1143.937	3362.58
1147.208	3269.03
1150.48	3294.73
1153.75	3277.95
1157.021	3347
1160.291	3296.3
1163.561	3339.86
1166.831	3359.77
1170.101	3398.39
1173.37	3385.44
1176.639	3306.85
1179.907	3383.05
1183.176	3437.77
1186.444	3444.32
1189.711	3475.19
1192.979	3477.6
1196.246	3441.37
1199.513	3460.71
1202.78	3457.68
1206.046	3462.89
1209.312	3495.54
1212.578	3531.54
1215.843	3459.45
1219.108	3439.88
1222.373	3465.7
1225.638	3412.45
1228.902	3387.88
1232.166	3354.29
1235.43	3331.66
1238.693	3345.85
1241.956	3348.98
1245.219	3386.38
1248.482	3389.45
1251.744	3378.13
1255.006	3567.18
1258.268	3528.43
1261.529	3456.75
1264.79	3470.54
1268.051	3597.71
1271.312	3617.49
1274.572	3570.62
1277.832	3565.11
1281.092	3561.06
1284.351	3508.04
1287.61	3480.62
1290.869	3363.41
1294.128	3311.83
1297.386	3451.71
1300.644	3438.5
1303.902	3448.83
1307.159	3290.26
1310.416	3353.18
1313.673	3369.93
1316.93	3341.91
1320.186	3413.45
1323.442	3470.94
1326.697	3447.44
1329.953	3460.16
1333.208	3469.75
1336.463	3452.55
1339.717	3376.63
1342.972	3472.03
1346.226	3476.6
1349.479	3386.18
1352.733	3340.27
1355.986	3381.66
1359.238	3348.54
1362.491	3347.36
1365.743	3353.02
1368.995	3357.66
1372.247	3372.48
1375.498	3388.38
1378.749	3454.82
1382	3390.46
1385.251	3470.52
1388.501	3437.11
1391.751	3407.37
1395	3385.24
1398.25	3428.35
1401.499	3421.92
1404.748	3332.97
1407.996	3244.62
1411.244	3240.43
1414.492	3214.33
1417.74	3187.25
1420.987	3205.2
1424.234	3261.09
1427.481	3257.16
1430.728	3316.68
1433.974	3289.47
1437.22	3321.23
1440.465	3324.99
1443.711	3330.22
1446.956	3365.49
1450.201	3371.24
1453.445	3420.33
1456.689	3385.62
1459.933	3405.86
1463.177	3435.62
1466.42	3403.43
1469.663	3382.8
1472.906	3352.53
1476.148	3497.23
1479.391	3373.22
1482.633	3360.86
1485.874	3361.67
1489.115	3324.36
1492.356	3352.45
1495.597	3320.63
1498.838	3335.43
1502.078	3281.72
1505.318	3200.01
1508.557	3255.9
1511.797	3168.17
1515.036	3352.01
1518.274	3331.98
1521.513	3314
1524.751	3348.29
1527.989	3352.13
1531.227	3358.01
1534.464	3326.87
1537.701	3380.94
1540.938	3410.74
1544.174	3367.98
1547.41	3380.74
1550.646	3417.25
1553.882	3442.61
1557.117	3496.69
1560.352	3522.35
1563.587	3471.81
1566.821	3419.13
1570.055	3479
1573.289	3437.42
1576.523	3537.09
1579.756	3534.89
1582.989	3553.18
1586.222	3509.71
1589.454	3559.84
1592.686	3523.42
1595.918	3545.14
1599.15	3523.42
1602.381	3636.26
1605.612	3560.62
1608.843	3666.07
1612.073	3562.51
1615.303	3540.99
1618.533	3518.58
1621.762	3533.79
1624.992	3530.53
1628.221	3496.8
1631.449	3482.94
1634.678	3573.08
1637.906	3512.65
1641.134	3567.89
1644.361	3511.97
1647.588	3495.36
1650.815	3505.05
1654.042	3498.54
1657.269	3536.84
1660.495	3488.06
1663.72	3423.95
1666.946	3409.65
1670.171	3310.35
1673.396	3289.82
1676.621	3285.92
1679.845	3333.5
1683.069	3376.92
1686.293	3439.4
1689.517	3389.82
1692.74	3280.64
1695.963	3299.64
1699.185	3405.79
1702.408	3352.19
1705.63	3411.49
1708.852	3414.99
1712.073	3387.44
1715.294	3351.43
1718.515	3374.28
1721.736	3318.54
1724.956	3277.34
1728.176	3312.98
1731.396	3331.14
1734.616	3329.84
1737.835	3336.69
1741.054	3330.33
1744.272	3325.19
1747.491	3338.7
1750.709	3429.14
1753.927	3329.49
1757.144	3386.66
1760.361	3463.54
1763.578	3474.27
1766.795	3402.67
1770.011	3419.46
1773.227	3486.36
1776.443	3514.81
1779.658	3564.04
1782.874	3505.23
1786.089	3467.03
1789.303	3470.68
1792.518	3485.16
1795.732	3472.3
1798.945	3474.97
1802.159	3537.01
1805.372	3395.86
1808.585	3363.52
1811.797	3368.68
1815.01	3449.48
1818.222	3455.81
1821.434	3321.6
1824.645	3437.87
1827.856	3394.3
1831.067	3444.32
1834.278	3361.24
1837.488	3353.49
1840.698	3542.33
1843.908	3438.63
1847.117	3396.39
1850.326	3219.33
1853.535	3361.86
1856.744	3499.27
1859.952	3368.44
1863.16	3365.09
1866.368	3390.71
1869.575	3555.99
1872.782	3424.69
1875.989	3363.77
1879.196	3496.25
1882.402	3491.92
1885.608	3542.4
1888.814	3398.51
1892.019	3265.9
1895.224	3318.22
1898.429	3316.17
1901.634	3283.01
1904.838	3263.77
1908.042	3309.2
1911.246	3309.66
1914.449	3197.45
1917.652	3208.36
1920.855	3196.08
1924.058	3274.3
1927.26	3303.82
1930.462	3341.39
1933.664	3354.52
1936.865	3285.74
1940.066	3279.1
1943.267	3225.76
1946.467	3253.29
1949.668	3292.24
1952.868	3362.13
1956.067	3318.32
1959.267	3236.62
1962.466	3270.7
1965.665	3257.14
1968.863	3254.12
1972.061	3287.5
1975.259	3292.7
1978.457	3384.31
1981.654	3330.5
1984.852	3329.91
1988.048	3233.88
1991.245	3257.23
1994.441	3346.17
1997.637	3361
2000.833	3345.21
2004.028	3391.71
2007.223	3433.77
2010.418	3400.93
2013.613	3365.57
2016.807	3307.18
2020.001	3331.03
2023.194	3407.05
2026.388	3367.37
2029.581	3315.25
2032.774	3347.78
2035.966	3343.47
2039.158	3254.85
2042.35	3295.61
2045.542	3215.43
2048.733	3352.46
2051.924	3411.07
2055.115	3455.69
2058.306	3365.35
2061.496	3437.31
2064.686	3519.59
2067.875	3439.87
2071.065	3472.02
2074.254	3507.09
2077.442	3454.54
2080.631	3561.61
2083.819	3391.9
2087.007	3359.77
2090.195	3311.28
2093.382	3371.86
2096.569	3345.46
2099.756	3281.32
2102.942	3281.7
2106.128	3273.7
2109.314	3273.6
2112.5	3206.44
2115.685	3188.43
2118.87	3204.27
2122.055	3280.1
2125.239	3226.95
2128.424	3181.05
2131.608	3344.27
2134.791	3325
2137.974	3412.87
2141.157	3390.34
2144.34	3315
2147.523	3333.02
2150.705	3329.46
2153.887	3325.36
2157.068	3243.19
2160.25	3272.52
2163.431	3332.48
2166.611	3243.79
2169.792	3257.98
2172.972	3123.59
2176.152	3242.13
2179.331	3289.36
2182.511	3270.64
2185.69	3308.52
2188.868	3291.86
2192.047	3377.04
2195.225	3335.99
2198.403	3281.04
2201.58	3284.69
2204.758	3285.39
2207.935	3386.03
2211.111	3233.24
2214.288	3209.96
2217.464	3262.94
2220.64	3247.93
2223.815	3314.26
2226.991	3219.25
2230.166	3243.46
2233.34	3259.63
2236.515	3293.01
2239.689	3385.76
2242.863	3315.97
2246.036	3384.11
2249.209	3406.71
2252.382	3457.55
2255.555	3424.19
2258.727	3338.78
2261.9	3389.85
2265.071	3381.67
2268.243	3392.69
2271.414	3304.89
2274.585	3233.9
2277.756	3315.47
2280.926	3264.25
2284.096	3321.38
2287.266	3196.47
2290.436	3267.24
2293.605	3309.65
2296.774	3330.9
2299.942	3374.09
2303.111	3389.72
2306.279	3436.25
2309.447	3425.68
2312.614	3401.74
2315.781	3420.89
2318.948	3372.9
2322.115	3416.62
2325.281	3313.73
2328.447	3350.78
2331.613	3329.27
2334.779	3276.75
2337.944	3291.92
2341.109	3281.57
2344.274	3257.07
2347.438	3218.12
2350.602	3251.56
2353.766	3273.85
2356.929	3255.27
2360.092	3301.51
2363.255	3227.06
2366.418	3117.91
2369.58	3294.89
2372.742	2961.51
2375.904	3001.43
2379.066	2961.83
2382.227	3011.87
2385.388	2967.74
2388.548	2866.95
2391.709	2943.05
2394.869	2912.44
2398.029	3068.44
2401.188	3103.97
2404.347	2999.93
2407.506	3224.56
2410.665	3249.13
2413.823	3277.26
2416.981	3204.32
2420.139	3257.59
2423.296	3322.19
2426.453	3293.11
2429.61	3320.42
2432.767	3209.65
2435.923	3266.64
2439.079	3137.83
2442.235	3230.07
2445.391	3131.48
2448.546	3140.76
2451.701	3215.22
2454.855	3152.73
2458.009	3235.28
2461.163	3254.35
2464.317	3194.78
2467.471	3238.56
2470.624	3275.68
2473.777	3330.34
2476.929	3321.2
2480.082	3350.45
2483.234	3318.76
2486.385	3185.5
2489.537	3187.28
2492.688	3113.25
2495.839	3131.21
2498.989	3135.67
2502.14	3114.8
2505.29	3081.51
2508.439	3118.56
2511.589	3016.14
2514.738	3044.1
2517.887	3071.64
2521.035	3232.39
2524.183	3227.87
2527.331	3194.34
2530.479	3145.24
2533.627	3167.49
