Data from N_3_DIV_WI_4N_Splice17_12-57-21-741.txt Node
Date: Sat Mar 14 12:57:21 EDT 2020
User: sa697716
Spectrometer: FLMS03696
Trigger mode: 0
Integration Time (sec): 3.180400E-1
Scans to average: 20
Electric dark correction enabled: true
Nonlinearity correction enabled: true
Boxcar width: 5
XAxis mode: Wavelengths
Number of Pixels in Spectrum: 2048
>>>>>Begin Spectral Data<<<<<
187.83	-347593.71
188.298	2647.38
188.766	1401.73
189.233	1241.93
189.701	1747.76
190.169	2398.46
190.636	899.15
191.104	679.34
191.571	87.21
192.039	-79.64
192.506	-120.82
192.974	462.99
193.441	-534.23
193.908	-126.29
194.375	-35.6
194.842	28.41
195.31	68.39
195.777	158.26
196.244	535.71
196.711	1044.57
197.177	1456.57
197.644	2250.62
198.111	3921.67
198.578	5499.72
199.045	4440.11
199.511	7282.5
199.978	8525.21
200.445	7119.74
200.911	7868.23
201.378	8832.18
201.844	7789.89
202.31	13109.08
202.777	13400.17
203.243	7339.15
203.709	6909.89
204.176	8123.94
204.642	6618.42
205.108	6122.96
205.574	4985.41
206.04	4574.31
206.506	4251.28
206.972	4027.71
207.438	3889.39
207.903	4392.79
208.369	3776.68
208.835	3708.68
209.301	3838.17
209.766	3899.57
210.232	3818.87
210.697	4672.79
211.163	5692.46
211.628	8515.98
212.094	6985.04
212.559	8360.33
213.024	5108.01
213.49	6153.18
213.955	5936.45
214.42	5773.53
214.885	5294.6
215.35	4989.59
215.815	4644.45
216.28	4797.66
216.745	3794.96
217.21	3939.19
217.675	3449.92
218.14	3637.73
218.604	3781.47
219.069	3979.76
219.534	3835.61
219.998	4105.63
220.463	4572.1
220.927	5165.77
221.392	4506.59
221.856	4265.91
222.32	5005.1
222.785	5829.62
223.249	6957.26
223.713	7419.79
224.177	7123.09
224.642	8780.02
225.106	10433.49
225.57	11039.88
226.034	8037.62
226.497	11878.67
226.961	10407.83
227.425	11899.79
227.889	12838.39
228.353	12524.16
228.816	25253.6
229.28	23554.58
229.744	19390.91
230.207	11630.48
230.671	11256.32
231.134	18176.02
231.597	20765.32
232.061	20479.44
232.524	19559.17
232.987	13288.08
233.45	11883.89
233.914	10515.87
234.377	10664.47
234.84	9641.19
235.303	11203.72
235.766	12386.02
236.229	12689.26
236.691	7921.79
237.154	8833.19
237.617	6643.72
238.08	6790.39
238.542	7901.95
239.005	5675.13
239.468	5638.97
239.93	5322.82
240.393	4850.86
240.855	4258.1
241.317	4361.53
241.78	5263.57
242.242	5450.75
242.704	5914.17
243.166	5150.27
243.629	4711.98
244.091	5394.62
244.553	5914.83
245.015	6358.29
245.477	8171.47
245.939	11913.73
246.4	12639.53
246.862	12279.49
247.324	11575
247.786	12851.73
248.247	16794.49
248.709	17132.57
249.17	12818.2
249.632	12094.5
250.093	14076.81
250.555	12175.45
251.016	7472.28
251.477	7086.44
251.939	7674.14
252.4	8030.76
252.861	9522.09
253.322	8869.18
253.783	10544.96
254.244	13708.98
254.705	10802.81
255.166	9586.6
255.627	9440.67
256.088	13345.8
256.549	14156.66
257.009	12147.54
257.47	14717.56
257.931	11955.2
258.391	8950.64
258.852	9205.28
259.312	9587.72
259.773	11757.72
260.233	9938.66
260.694	8375.64
261.154	9428.06
261.614	7588.66
262.074	6741.93
262.534	6971.87
262.994	6570.62
263.455	8685.78
263.915	7281.35
264.374	6827.65
264.834	7413.85
265.294	8118.85
265.754	8365.15
266.214	7860.75
266.673	7292.85
267.133	9164.83
267.593	9049.43
268.052	11053.46
268.512	9593.25
268.971	11587.54
269.431	12649.21
269.89	11287.52
270.349	16924.89
270.809	18880.38
271.268	16964.84
271.727	37958.84
272.186	24638.28
272.645	18501.57
273.104	13263.42
273.563	19158.86
274.022	15020.81
274.481	12859.13
274.94	9959.84
275.399	7396.54
275.857	8598.52
276.316	11650.95
276.775	10402.11
277.233	10276.43
277.692	9686.65
278.15	11050.36
278.609	11476.97
279.067	10694.76
279.525	10013.9
279.984	12992.48
280.442	15712.59
280.9	15671.5
281.358	10380.57
281.816	9747.07
282.274	9595.6
282.732	9934.34
283.19	10053.39
283.648	8747.69
284.106	9397.29
284.564	9601.08
285.021	8996.06
285.479	6759.71
285.937	6162.3
286.394	5471.48
286.852	5673.11
287.309	6018.97
287.767	5906.58
288.224	5672.82
288.682	6238.8
289.139	6881.18
289.596	6334.94
290.053	6592.51
290.511	8326.46
290.968	10135.75
291.425	13702.95
291.882	11470.48
292.339	9987.14
292.796	9833.78
293.252	9233.15
293.709	7365.99
294.166	6599.79
294.623	7279.48
295.079	6984.27
295.536	7041.59
295.992	6400.69
296.449	6341.74
296.905	6602.59
297.362	6341.43
297.818	6668.44
298.274	6952.74
298.731	7058.09
299.187	6984.94
299.643	7500.81
300.099	9088.4
300.555	9965.41
301.011	8337.29
301.467	8109.67
301.923	9436.09
302.379	9250.18
302.835	9152.67
303.291	9190.65
303.746	10533.73
304.202	13398.04
304.658	13534.76
305.113	9152.68
305.569	9044.79
306.024	9693.51
306.479	9251.44
306.935	7912.13
307.39	8694.8
307.845	8079.76
308.301	8186.54
308.756	8026.55
309.211	7776.27
309.666	8004.52
310.121	10030.49
310.576	10243.66
311.031	10245.05
311.486	11783.04
311.94	11799.07
312.395	15865.57
312.85	30000.91
313.305	147638
313.759	772343.26
314.214	56194.05
314.668	44885.94
315.123	37997.09
315.577	13751.49
316.032	12270.93
316.486	15403.97
316.94	12228.74
317.394	8538.39
317.849	6627.81
318.303	6265.45
318.757	5905.57
319.211	6525.51
319.665	5711.61
320.119	5769.27
320.572	8204.77
321.026	7667.15
321.48	6403.23
321.934	6958.77
322.387	6996.15
322.841	7595.54
323.295	6912.42
323.748	7949.31
324.202	8091.22
324.655	9759.74
325.108	13723.42
325.562	9763.14
326.015	11618.26
326.468	8791.8
326.921	9881
327.374	9241.86
327.827	9681.47
328.28	10949.14
328.733	7391.83
329.186	6540.97
329.639	6249.79
330.092	5285.51
330.545	5064.18
330.997	5157.75
331.45	5696.52
331.903	6725.7
332.355	11602.03
332.808	11307.31
333.26	9399.7
333.713	10273.83
334.165	10414.24
334.617	13995.2
335.069	11316.56
335.522	20518.93
335.974	22837.82
336.426	20940.82
336.878	14553.17
337.33	7444.63
337.782	7304.68
338.234	9204.16
338.686	11030.32
339.137	13107.86
339.589	12394.21
340.041	9792.47
340.493	8424
340.944	8639.93
341.396	9323.6
341.847	7870.78
342.299	9283.56
342.75	11371.54
343.201	9902
343.653	11394.54
344.104	13962.67
344.555	10961.93
345.006	16933.36
345.457	13041.43
345.908	10308.67
346.359	9715.36
346.81	7898.99
347.261	8298.15
347.712	8152.84
348.163	8737.9
348.613	8868.78
349.064	8309.7
349.515	7300.81
349.965	7533.95
350.416	9060.89
350.866	9986.3
351.317	11295.71
351.767	18750.32
352.217	23823.94
352.668	19770.02
353.118	18152.49
353.568	17510.68
354.018	13887.55
354.468	14694.95
354.918	10570.34
355.368	9297.21
355.818	13185.18
356.268	38020.64
356.718	160095.23
357.168	39979.69
357.617	20153.79
358.067	22507.09
358.517	21222.03
358.966	25037.31
359.416	28178.63
359.865	30634.08
360.315	36473.72
360.764	17084.9
361.213	9607.41
361.663	9074.16
362.112	11230.95
362.561	18236.24
363.01	13812.79
363.459	11633.56
363.908	12577.66
364.357	10736.57
364.806	18119.43
365.255	12503.87
365.703	11520.84
366.152	11596.45
366.601	9480.06
367.05	7737.03
367.498	7041.64
367.947	7368.51
368.395	7669.27
368.844	6831.59
369.292	8239.95
369.74	5727.17
370.189	8796.64
370.637	10318.21
371.085	8916.8
371.533	10868.14
371.981	10476.64
372.429	10023.31
372.877	10471.4
373.325	8805.15
373.773	8977.46
374.221	8004.61
374.669	9925
375.116	8607.61
375.564	8685.21
376.012	9686.66
376.459	7994.08
376.907	9545.17
377.354	11548.87
377.801	10827.21
378.249	12461.11
378.696	15969.24
379.143	19393.5
379.591	20684.26
380.038	35006.07
380.485	25402.96
380.932	27590.01
381.379	25409.95
381.826	18876.95
382.273	13451.96
382.72	11773.58
383.166	11529.33
383.613	7512.79
384.06	6789.19
384.506	7907.53
384.953	5824.47
385.4	5862.65
385.846	5161.53
386.292	5043.03
386.739	4956.98
387.185	4950.68
387.631	5015.72
388.078	4946.35
388.524	5358.52
388.97	5020.49
389.416	4246.01
389.862	4576.1
390.308	4411.25
390.754	4557.4
391.2	5085.22
391.645	5402.45
392.091	5403.41
392.537	5453.02
392.983	5684.28
393.428	5840.93
393.874	6582.59
394.319	7082.95
394.765	7369.19
395.21	8423.69
395.655	8866.22
396.101	9349.99
396.546	9511.07
396.991	10868.59
397.436	11436.63
397.881	12582.19
398.326	13619.15
398.771	14603.65
399.216	14460.73
399.661	14605.64
400.106	16174.3
400.551	18296.97
400.995	18019.96
401.44	19425.65
401.885	19739.23
402.329	21448.97
402.774	21954.38
403.218	22542.99
403.663	23171.75
404.107	25301.73
404.551	27098.88
404.995	26491.06
405.44	27245.52
405.884	29425.06
406.328	30139.41
406.772	31605.55
407.216	30242.48
407.66	30846.36
408.104	31122.41
408.547	30694.14
408.991	31123.94
409.435	31235.76
409.879	31848.73
410.322	32437.62
410.766	32269.57
411.209	31668.25
411.653	31487.43
412.096	31823.51
412.54	32826.84
412.983	33429.93
413.426	34209.25
413.869	34999.62
414.312	35031.27
414.756	34575.97
415.199	33730.81
415.642	33395.55
416.085	34039.67
416.527	34388.05
416.97	35529.34
417.413	34086.28
417.856	34129
418.298	34069.65
418.741	34046.08
419.184	34182.2
419.626	35855.29
420.069	35984.52
420.511	36352.13
420.953	35746.74
421.396	35662.69
421.838	35072.04
422.28	36148.48
422.722	36624.94
423.164	37732.45
423.606	37615.95
424.048	38170.06
424.49	36634.04
424.932	36951.1
425.374	36900.59
425.816	37887.26
426.258	38595.6
426.699	38686.6
427.141	37495.5
427.582	37643.43
428.024	37173.48
428.465	37075.7
428.907	36435.24
429.348	36483.45
429.789	36804.56
430.231	36284.66
430.672	37060.62
431.113	36716.17
431.554	37022.24
431.995	37403.68
432.436	37035.95
432.877	37081.61
433.318	36955.98
433.759	37320.07
434.2	37696.41
434.64	37726.42
435.081	38242.7
435.522	36758.14
435.962	35976.11
436.403	35684.73
436.843	36710.74
437.284	36456.36
437.724	35947.16
438.164	36542.77
438.604	36023.62
439.045	34780.26
439.485	33431.26
439.925	33020.5
440.365	32446.5
440.805	32229.62
441.245	31814.5
441.685	30694.43
442.125	30539.31
442.564	30748.03
443.004	29958.22
443.444	29896.25
443.883	29960.56
444.323	29954.78
444.762	30248.59
445.202	30730.9
445.641	31201.41
446.081	31269.57
446.52	31442.46
446.959	31117.16
447.398	30346.22
447.837	30032.15
448.276	29532.94
448.716	29801.64
449.154	30067.04
449.593	29150.72
450.032	28879.14
450.471	28308.62
450.91	28152.2
451.349	27841.14
451.787	27570.7
452.226	27753.93
452.664	27532.13
453.103	27332.45
453.541	27054.97
453.98	26544.72
454.418	26411.38
454.856	25618.32
455.295	25308.96
455.733	25130.8
456.171	25022.34
456.609	24734.26
457.047	24380.63
457.485	24412.46
457.923	24195.03
458.361	23718.73
458.798	23735.46
459.236	23587.42
459.674	23807.93
460.111	23840.29
460.549	23642.61
460.987	23646.26
461.424	23610.71
461.862	23599.26
462.299	23302.01
462.736	23270.63
463.173	23434.78
463.611	23120.32
464.048	23126.46
464.485	23356.56
464.922	23259.01
465.359	23269.12
465.796	22642.31
466.233	22596.4
466.67	22410.75
467.106	22423.38
467.543	22384.61
467.98	22195.96
468.416	21829.37
468.853	21769.89
469.29	21186.94
469.726	21006.57
470.162	20468.68
470.599	20504.8
471.035	20324.28
471.471	19837.84
471.907	19758.33
472.344	19583.68
472.78	19496.3
473.216	19632.93
473.652	19242.75
474.088	19064.29
474.523	18763.32
474.959	18746.37
475.395	18378.33
475.831	18022.13
476.266	17908.41
476.702	17639.34
477.138	17185.4
477.573	16897.05
478.008	16560.36
478.444	16325.3
478.879	16151.54
479.314	15972.87
479.75	15699.52
480.185	15543.81
480.62	15438.12
481.055	15281.49
481.49	15115.73
481.925	15077.11
482.36	15016.68
482.795	15205.73
483.229	15419.45
483.664	15506.86
484.099	15331.68
484.534	15304.97
484.968	15214.21
485.403	15042.92
485.837	14842.06
486.271	14620.56
486.706	14439.17
487.14	14161.44
487.574	13758.18
488.009	13467.56
488.443	13207.55
488.877	13169.13
489.311	13087.03
489.745	13092.91
490.179	13071.95
490.613	13119.23
491.046	13109.93
491.48	13093.66
491.914	12981.68
492.348	12967.71
492.781	12932.37
493.215	12870.02
493.648	12826.6
494.082	12829.42
494.515	12744.69
494.948	12777.88
495.382	12807.87
495.815	12782.74
496.248	12774.78
496.681	12907.24
497.114	13016.57
497.547	13074.44
497.98	13158.83
498.413	13110.64
498.846	13140.5
499.279	13162.41
499.711	13118.91
500.144	13025.62
500.577	13047.39
501.009	13096.56
501.442	13092.3
501.874	12943.84
502.306	12852.63
502.739	12780.15
503.171	12890.66
503.603	12791.13
504.036	12778.43
504.468	12706.01
504.9	12715.91
505.332	12661.49
505.764	12554.07
506.196	12496.97
506.627	12535.42
507.059	12541.74
507.491	12537.46
507.923	12307.1
508.354	12319.14
508.786	12276.89
509.217	12314.39
509.649	12315.89
510.08	12369.94
510.512	12380.85
510.943	12383.38
511.374	12342.14
511.805	12390.12
512.237	12433.66
512.668	12635.56
513.099	12767.6
513.53	12879.03
513.961	12907.11
514.391	13044.44
514.822	13159.08
515.253	13318.47
515.684	13358.09
516.114	13433.03
516.545	13409.98
516.975	13431.46
517.406	13366.94
517.836	13167.28
518.267	13002.6
518.697	12939.25
519.127	12764.63
519.558	12631.93
519.988	12467.78
520.418	12368.31
520.848	12326.87
521.278	12223.54
521.708	11859.26
522.138	11807.3
522.567	11897.19
522.997	11942.1
523.427	11923.18
523.857	11908.03
524.286	11858.9
524.716	11843.33
525.145	11850.47
525.575	11816.09
526.004	11817.53
526.433	11960.94
526.863	11868.1
527.292	11694.79
527.721	11643.68
528.15	11608.09
528.579	11536.71
529.008	11542.8
529.437	11636.63
529.866	11670.27
530.295	11726.1
530.724	11739.03
531.152	11856.42
531.581	11883.26
532.01	11950.44
532.438	11957.93
532.867	12008.59
533.295	12086.45
533.723	12084.25
534.152	12028.45
534.58	11986.71
535.008	11849.81
535.436	11829.26
535.865	11854.03
536.293	11928.98
536.721	12011.52
537.149	12152.56
537.576	12153.05
538.004	12230.18
538.432	12276.59
538.86	12259.59
539.287	12307.01
539.715	12394.35
540.143	12430.73
540.57	12421.52
540.998	12417.48
541.425	12266.41
541.852	12159.91
542.28	12170.43
542.707	12093.39
543.134	12024.06
543.561	12017.57
543.988	11992.31
544.415	12022.03
544.842	12014.56
545.269	11988.16
545.696	12018.41
546.123	12149.76
546.549	12104.38
546.976	12039.98
547.403	12053.95
547.829	12095.54
548.256	12142.21
548.682	12141.03
549.108	12109.71
549.535	12133.77
549.961	12172.18
550.387	12107.26
550.813	12080.97
551.24	12146.69
551.666	12176.7
552.092	12131.21
552.518	12111.97
552.943	12082.23
553.369	12164.19
553.795	12229.53
554.221	12248.52
554.646	12248.06
555.072	12320.15
555.498	12378.05
555.923	12458.19
556.349	12574.99
556.774	12650.9
557.199	12669.11
557.625	12742.01
558.05	12703.45
558.475	12784.79
558.9	12786.9
559.325	12734.22
559.75	12710.63
560.175	12678.09
560.6	12648.31
561.025	12639.86
561.449	12654.65
561.874	12697.1
562.299	12714.4
562.723	12773.53
563.148	12697.72
563.572	12723.06
563.997	12792.35
564.421	12827.05
564.846	12823.32
565.27	12827.51
565.694	12804.28
566.118	12858.64
566.542	12885.74
566.966	12823.53
567.39	12760.79
567.814	12666.17
568.238	12652.77
568.662	12679.55
569.086	12689.78
569.509	12751.25
569.933	12651.18
570.357	12628.51
570.78	12519.46
571.204	12462.63
571.627	12445.24
572.05	12502.7
572.474	12571.75
572.897	12573.99
573.32	12608.36
573.743	12651.54
574.166	12611.87
574.589	12732.54
575.012	12786.59
575.435	12907.95
575.858	12966.96
576.281	13012.05
576.704	13021.46
577.126	13062.16
577.549	13094.72
577.972	13151.73
578.394	13184.08
578.817	13229.09
579.239	13200.21
579.661	13203.18
580.084	13162.95
580.506	13172.71
580.928	13255.58
581.35	13277.53
581.772	13344.98
582.194	13336.57
582.616	13323.51
583.038	13315.23
583.46	13342.85
583.882	13406.79
584.303	13548.94
584.725	13628.21
585.147	13680.71
585.568	13850.87
585.99	14024.89
586.411	14158.63
586.833	14363.18
587.254	14445.7
587.675	14642.66
588.096	14830.36
588.518	14845.92
588.939	14745.28
589.36	14777.29
589.781	14794.78
590.202	14531.46
590.623	14498.77
591.043	14513.72
591.464	14416.4
591.885	14396.25
592.305	14357.41
592.726	14228.86
593.147	14226.88
593.567	14161.2
593.987	14062.89
594.408	13986.29
594.828	13973.98
595.248	13857.3
595.669	13610.49
596.089	13481.62
596.509	13365.94
596.929	13158.16
597.349	13087.61
597.769	12921.22
598.189	12779.16
598.608	12717.97
599.028	12653.32
599.448	12581.33
599.867	12406.79
600.287	12323.59
600.706	12219.83
601.126	12069.22
601.545	12005.35
601.965	11958.88
602.384	11884.91
602.803	11891.58
603.222	11824.71
603.641	11762.39
604.061	11722.27
604.48	11699.83
604.898	11787.52
605.317	11865.14
605.736	11920.71
606.155	11933.75
606.574	11896.93
606.992	11995.9
607.411	12004.17
607.829	12006.83
608.248	12050.07
608.666	12104.54
609.085	12165.96
609.503	12152.41
609.921	12164.26
610.339	12258.05
610.758	12338.05
611.176	12377.55
611.594	12367.98
612.012	12418.43
612.43	12512.8
612.847	12650.68
613.265	12721.08
613.683	12846.74
614.101	12945.06
614.518	13000.81
614.936	12982.75
615.353	12909.72
615.771	12946.95
616.188	13023.7
616.606	13060.41
617.023	13067.95
617.44	12990.63
617.857	13005.07
618.274	12986.38
618.691	12977.44
619.108	12941.82
619.525	12940.65
619.942	13058.15
620.359	13135.52
620.776	13133.52
621.192	13125.56
621.609	13142.78
622.026	13243.89
622.442	13344.1
622.859	13416.73
623.275	13381.61
623.691	13469.35
624.108	13621.37
624.524	13814.89
624.94	13849.86
625.356	13986.72
625.772	14172.04
626.188	14337.31
626.604	14387.6
627.02	14373.03
627.436	14371.47
627.852	14463.78
628.268	14616.1
628.683	14557.93
629.099	14499.83
629.514	14491.32
629.93	14570.54
630.345	14662.35
630.761	14665
631.176	14753.31
631.591	14711.6
632.007	14699.38
632.422	14758.51
632.837	14706.19
633.252	14730.56
633.667	14688.73
634.082	14654.33
634.497	14586.72
634.911	14425.99
635.326	14472.73
635.741	14368.52
636.155	14375.2
636.57	14489.3
636.984	14600.16
637.399	14723.69
637.813	14862.78
638.228	14978.1
638.642	15185.65
639.056	15210.15
639.47	15388.04
639.884	15441.41
640.298	15526.8
640.712	15671.3
641.126	15681.3
641.54	15748.53
641.954	15885.51
642.368	15885.11
642.781	15914.51
643.195	15843.78
643.609	16024.83
644.022	16121.28
644.436	16240.02
644.849	16256.99
645.262	16263.44
645.676	16475.49
646.089	16557.72
646.502	16460.4
646.915	16539.52
647.328	16467.15
647.741	16566.38
648.154	16496.22
648.567	16519.34
648.98	16412.16
649.393	16522.12
649.805	16571.35
650.218	16552.59
650.631	16367.4
651.043	16366.47
651.456	16342.65
651.868	16436.15
652.28	16800.38
652.693	17081.42
653.105	17248.01
653.517	17435.06
653.929	17451.6
654.341	17579.41
654.753	17408.13
655.165	17608.34
655.577	17660.86
655.989	17705.8
656.401	17710.4
656.813	17187.6
657.224	17000.62
657.636	16723.83
658.047	16594.3
658.459	16455.12
658.87	16518.19
659.282	16516.59
659.693	16293.03
660.104	16182.37
660.515	16094.59
660.926	16226.49
661.338	16364.67
661.749	16421.72
662.159	16376.74
662.57	16484.33
662.981	16556.67
663.392	16550.69
663.803	16775.58
664.213	16899.7
664.624	16976.83
665.035	17192.98
665.445	17044.03
665.855	16995.91
666.266	16914.54
666.676	16985.72
667.086	16891.62
667.497	16948.15
667.907	16897.54
668.317	16772.91
668.727	16673.5
669.137	16757.81
669.547	16744.99
669.956	16853.25
670.366	16935.32
670.776	17001.27
671.186	17119.18
671.595	17193.09
672.005	17302.79
672.414	17265.08
672.824	17204.17
673.233	17385.1
673.642	17409.48
674.052	17437.18
674.461	17428.24
674.87	17518.24
675.279	17410.79
675.688	17440.88
676.097	17407.98
676.506	17290.81
676.915	17592.95
677.323	17618.89
677.732	17539.59
678.141	17493.67
678.549	17235.38
678.958	17191.81
679.366	17132.02
679.775	17216.62
680.183	17285.73
680.592	17345.15
681	17366.79
681.408	17097.01
681.816	17140.48
682.224	17194.88
682.632	17188.63
683.04	17600.02
683.448	17848.67
683.856	18119.59
684.264	18412.08
684.671	18670.38
685.079	18999.65
685.487	19353.59
685.894	19973.51
686.302	20327.18
686.709	20430.15
687.116	20636.17
687.524	20615.7
687.931	20496.05
688.338	20335.71
688.745	20135.83
689.152	19949.87
689.559	19877.46
689.966	19734.7
690.373	19286.66
690.78	19073.17
691.187	19123.11
691.593	18958.11
692	18728.73
692.407	18705.07
692.813	18778.38
693.22	18707.78
693.626	18693.32
694.032	18534.95
694.439	18636.01
694.845	18608.05
695.251	18713.22
695.657	18739.11
696.063	19049.87
696.469	19118.83
696.875	19142.21
697.281	18962.48
697.687	18832.83
698.093	18627.21
698.498	18699.76
698.904	18664.62
699.31	18828.41
699.715	18803.19
700.12	19003.46
700.526	18739.7
700.931	18843.42
701.337	18836.22
701.742	18733.31
702.147	18950.08
702.552	18856.47
702.957	18956.09
703.362	18825.17
703.767	18756.64
704.172	18776.48
704.577	18309.98
704.981	18373.8
705.386	18254.73
705.791	18022.88
706.195	18230.06
706.6	18094.61
707.004	18348.78
707.408	18019.79
707.813	17989.81
708.217	17760.38
708.621	17618.11
709.025	17947.27
709.43	17792.41
709.834	17936.82
710.237	18137.01
710.641	17927.24
711.045	17892.08
711.449	17719
711.853	17699.75
712.256	17762.9
712.66	17802.58
713.064	17987.71
713.467	17972.75
713.87	18223.62
714.274	18124.83
714.677	18249.62
715.08	18549.56
715.484	18828
715.887	19173.76
716.29	19502.98
716.693	19797.1
717.096	20194.1
717.499	20234.95
717.901	20014.33
718.304	19962.58
718.707	20032.64
719.109	19738.54
719.512	19748.17
719.915	19370.04
720.317	19297.36
720.719	19547.22
721.122	19524.79
721.524	19399.92
721.926	19243.27
722.328	19553.57
722.731	19388.16
723.133	19310.14
723.535	19798.02
723.937	19657.3
724.338	19657.8
724.74	19638.61
725.142	19119.32
725.544	19045.14
725.945	19035.12
726.347	18986.57
726.748	18916.38
727.15	18927.66
727.551	18742.45
727.952	18610.71
728.354	18485.85
728.755	18492.57
729.156	18399.62
729.557	18611.19
729.958	18279.34
730.359	18240.4
730.76	18305.94
731.161	18241.03
731.562	18292.94
731.962	18458.01
732.363	18350.08
732.763	18234.95
733.164	18458.85
733.564	18270.15
733.965	17958.7
734.365	17861.57
734.766	17976.9
735.166	17829.39
735.566	17601.74
735.966	17474.69
736.366	17423.98
736.766	17190.57
737.166	17301.23
737.566	17156.65
737.966	17066.33
738.365	17196.39
738.765	17154.56
739.165	16878.69
739.564	16782.61
739.964	16965.34
740.363	16825.4
740.763	16845.51
741.162	16812.16
741.561	16704.9
741.96	16542.64
742.36	16634.21
742.759	16677.4
743.158	16847.25
743.557	16917.86
743.955	17075.32
744.354	16909.54
744.753	17114.01
745.152	16947.96
745.55	17151.02
745.949	17116.17
746.348	17102.04
746.746	17138.81
747.144	16948.53
747.543	16835.89
747.941	16969
748.339	16673.38
748.737	16599.63
749.136	16515.36
749.534	16705.6
749.932	16547.48
750.33	16584.65
750.727	16739.4
751.125	16605.67
751.523	16520.64
751.921	16610.21
752.318	16447.3
752.716	16602.94
753.113	16607.62
753.511	16645.06
753.908	16595.84
754.305	16474.04
754.703	16633.15
755.1	16778.95
755.497	16920.71
755.894	17439.99
756.291	17783.27
756.688	18341.78
757.085	18890.35
757.482	19595.18
757.878	20133.74
758.275	20334.84
758.672	21039.24
759.068	21245.65
759.465	21875.28
759.861	22719.09
760.258	23648.1
760.654	23427.05
761.05	22413.85
761.447	21407.61
761.843	20537.75
762.239	19829.53
762.635	19953.78
763.031	19970.25
763.427	19552.88
763.822	19094.75
764.218	18708.27
764.614	17890.88
765.01	17562.59
765.405	17554.92
765.801	17638.67
766.196	17419.85
766.592	17493.09
766.987	17101.84
767.382	16909.61
767.778	16993
768.173	16873.5
768.568	16852.84
768.963	16607.56
769.358	16762.28
769.753	16693.56
770.148	16484.88
770.542	16527.57
770.937	16455.71
771.332	16748.26
771.726	16801.18
772.121	16572.97
772.515	16730.8
772.91	16673.31
773.304	16890.98
773.699	16668.64
774.093	16813.16
774.487	16954.56
774.881	17044.83
775.275	16985.37
775.669	16825.43
776.063	16927.97
776.457	17014.81
776.851	16742.08
777.245	16670.76
777.638	16718.79
778.032	17020.86
778.425	16857.58
778.819	16938.04
779.212	16766.04
779.606	16601.64
779.999	16609.6
780.392	16501.02
780.786	16692.89
781.179	16692.28
781.572	16762.44
781.965	16747.32
782.358	16518.33
782.751	16625.87
783.143	16418.92
783.536	16557.87
783.929	16606.61
784.322	16853.01
784.714	16858.9
785.107	16752.17
785.499	16860.9
785.891	16679.71
786.284	16499.95
786.676	16761.1
787.068	16569.14
787.46	16580.38
787.852	16511.11
788.245	16619.84
788.636	16576.98
789.028	16629.53
789.42	16610.2
789.812	16515.8
790.204	16669.24
790.595	16831.79
790.987	16248.54
791.378	16234.1
791.77	16493.1
792.161	16766.2
792.553	16824.95
792.944	16463.66
793.335	16206.6
793.726	16300.7
794.117	16448.14
794.508	16721.52
794.899	16582.33
795.29	16859.45
795.681	16930.71
796.072	16505.65
796.463	15925.76
796.853	15857.66
797.244	16143.81
797.634	16140.17
798.025	16053.48
798.415	15988.37
798.806	16082.93
799.196	16157.9
799.586	16139.73
799.976	15910.94
800.366	16306.45
800.756	16766.13
801.146	16553.8
801.536	16507.21
801.926	16559.81
802.316	16513.67
802.706	16580.42
803.095	16229.93
803.485	16373.21
803.874	16388.89
804.264	16868.57
804.653	16726.94
805.043	16936.41
805.432	17070.37
805.821	16958.03
806.21	16878.92
806.599	16986.94
806.988	16913
807.377	16957.85
807.766	17024.67
808.155	17371.24
808.544	16642.31
808.933	16447.05
809.321	16167.27
809.71	16461.51
810.098	16468.5
810.487	16980.07
810.875	17466.86
811.264	17117.37
811.652	17176.03
812.04	16977.22
812.428	16780.91
812.816	17478.14
813.204	17585.11
813.592	17861.83
813.98	17840.62
814.368	17243.22
814.756	17481.73
815.144	17003.92
815.531	17289.73
815.919	16939.09
816.306	17097.46
816.694	16537.46
817.081	16523.37
817.469	16945.42
817.856	17019.53
818.243	17425.08
818.63	17980.93
819.017	17459.34
819.404	17445.06
819.791	17708.71
820.178	18197.4
820.565	18271.52
820.952	19219.65
821.339	18500.23
821.725	18576.61
822.112	17534.77
822.498	17307.53
822.885	17284.54
823.271	17081.86
823.657	17577.02
824.044	17694.71
824.43	17883.26
824.816	17876.83
825.202	17322.06
825.588	18342.15
825.974	18164.24
826.36	18531.61
826.746	18359.61
827.132	18549.99
827.517	18321.66
827.903	17280.89
828.289	17125.28
828.674	16157.28
829.06	15931.49
829.445	16233.85
829.83	16487.48
830.216	16872.79
830.601	17136.15
830.986	16636.41
831.371	16427.17
831.756	16909.2
832.141	16427.2
832.526	16381.45
832.911	16628.85
833.295	16492.36
833.68	16931.93
834.065	16309.78
834.449	15411.77
834.834	15340
835.218	15335.52
835.603	15642.01
835.987	15407.98
836.371	16186.28
836.755	16048.37
837.139	16393.87
837.524	16578.63
837.908	16344.64
838.291	16355.56
838.675	16361.95
839.059	16502.2
839.443	16420.68
839.827	16142.54
840.21	16518.65
840.594	16292.64
840.977	16393.73
841.361	16287.75
841.744	16547.83
842.127	16336.37
842.511	16480.85
842.894	16946.41
843.277	17212.89
843.66	17616.03
844.043	17609.01
844.426	16808.57
844.809	16466.23
845.191	16419.07
845.574	15942.9
845.957	15537.08
846.339	15329.79
846.722	14745.86
847.104	14651.57
847.487	14364.89
847.869	14256.15
848.252	14364.25
848.634	14518.21
849.016	14608.27
849.398	14601.38
849.78	15170.64
850.162	15050.6
850.544	15237.92
850.926	15562.05
851.307	15323.26
851.689	15354.23
852.071	15516.55
852.452	15611.35
852.834	15468.64
853.215	15645.28
853.597	15633.55
853.978	15738.26
854.359	15976.25
854.741	15228.41
855.122	15181.71
855.503	15034.63
855.884	15191.67
856.265	15187.01
856.646	15260.49
857.026	14956.82
857.407	14877.21
857.788	14953.13
858.169	15106.63
858.549	14453.05
858.93	14843.82
859.31	14810.19
859.69	14889.27
860.071	14524.29
860.451	14290.06
860.831	13714.56
861.211	14441.62
861.591	14731.66
861.971	14626.52
862.351	14646.19
862.731	14761.64
863.111	14771.2
863.491	14802.9
863.87	15179.81
864.25	15226.8
864.629	14813.16
865.009	14975.7
865.388	15355.48
865.768	16307.53
866.147	16109.63
866.526	15120.48
866.905	15250.33
867.284	16085.42
867.663	15283.36
868.042	14658
868.421	14606.22
868.8	14833.66
869.179	14957.77
869.558	14066.51
869.936	12951.13
870.315	13151.42
870.693	13450.64
871.072	14466.77
871.45	13734.93
871.828	13868.77
872.207	14532.73
872.585	14260.09
872.963	14587.93
873.341	14040.23
873.719	13825.79
874.097	13604.81
874.475	13817.41
874.853	14081.46
875.23	13462.38
875.608	13998.72
875.986	15093.14
876.363	14384.82
876.741	14796.67
877.118	14388.09
877.495	15038.95
877.873	15228.18
878.25	15950.2
878.627	15235.06
879.004	15385.13
879.381	15228.64
879.758	14753.83
880.135	13683.12
880.512	14410.66
880.889	13953.13
881.265	13760.87
881.642	13596.39
882.019	13782.74
882.395	13466.25
882.772	13957.35
883.148	13298.65
883.524	13194.15
883.901	13058.86
884.277	13188.17
884.653	13039.43
885.029	13368.46
885.405	14734.65
885.781	14556.5
886.157	13888.08
886.532	14003.4
886.908	13931.28
887.284	15429.2
887.659	15872.87
888.035	16314.94
888.411	16676.44
888.786	16837.28
889.161	17336.09
889.537	16919.64
889.912	17363.62
890.287	17233.51
890.662	17545.27
891.037	17083.94
891.412	15784.26
891.787	15455.12
892.162	14724.39
892.536	14860.95
892.911	14096.1
893.286	13569.02
893.66	12793.42
894.035	12874.28
894.409	13756.5
894.784	12946.2
895.158	12912.39
895.532	13404.34
895.906	13488.39
896.281	13524.47
896.655	13055.59
897.029	14635.91
897.402	15002.12
897.776	16455.33
898.15	16154.39
898.524	15764.11
898.898	15781.22
899.271	17484.46
899.645	15018.77
900.018	14363.85
900.392	14898.41
900.765	15071.71
901.138	14030.84
901.511	13916.64
901.884	12927.47
902.258	12075.06
902.631	12642.61
903.003	14716.6
903.376	13425.14
903.749	15198.03
904.122	16380.33
904.495	18072.88
904.867	18271.94
905.24	15767.19
905.612	14555.89
905.985	14696.39
906.357	15160.9
906.729	14264.44
907.102	12012.91
907.474	11367.61
907.846	11281.44
908.218	11001.33
908.59	9643.13
908.962	9239.91
909.334	9897.24
909.705	10356.36
910.077	10018.8
910.449	10395.5
910.82	10643.38
911.192	11669.36
911.563	12112.85
911.935	12912.94
912.306	12890.71
912.677	13234.11
913.048	13056.37
913.419	14082.42
913.79	14091.53
914.161	15045.73
914.532	14347.12
914.903	13162.02
915.274	12469.39
915.645	12237.82
916.015	10760.26
916.386	10268.2
916.756	10971.96
917.127	11371.09
917.497	10250.84
917.868	11254.32
918.238	10792.54
918.608	11183.19
918.978	11525.36
919.348	12320.63
919.718	12877.54
920.088	12515.01
920.458	13096.12
920.828	13840.23
921.198	13154.03
921.567	14034.67
921.937	10844.17
922.306	10901.14
922.676	11742.13
923.045	9774.95
923.415	9264.61
923.784	8393.26
924.153	8596.61
924.522	8554.53
924.891	7995.33
925.26	8510.42
925.629	8245.09
925.998	9383.91
926.367	9071.3
926.736	8550.02
927.104	10014.16
927.473	10564.82
927.842	12503.22
928.21	12098.69
928.578	12366.94
928.947	11378.42
929.315	11113.79
929.683	12641.64
930.051	12341.4
930.42	13862.4
930.788	11409.81
931.156	10932.39
931.523	9920.34
931.891	8853.14
932.259	8223.44
932.627	9241.3
932.994	12680.38
933.362	10250.94
933.729	8709.48
934.097	8194.06
934.464	6841.82
934.831	7796.49
935.199	7616.37
935.566	7354.4
935.933	7542.94
936.3	9188.47
936.667	7211.74
937.034	6702.9
937.401	6735.16
937.767	5950.92
938.134	5424.82
938.501	7858.15
938.867	8660.65
939.234	15078.08
939.6	13224.63
939.967	14843
940.333	10183.71
940.699	8877.68
941.065	7162.65
941.431	9521.41
941.798	9307.18
942.163	12357.61
942.529	7723.72
942.895	7082.49
943.261	4591.5
943.627	6009.74
943.992	5254.4
944.358	5250.74
944.723	5287.41
945.089	5138.43
945.454	4736.63
945.82	5017.85
946.185	4782.91
946.55	5557.73
946.915	4972.48
947.28	5817.18
947.645	5132.77
948.01	4762.38
948.375	4976.37
948.74	5919.81
949.104	6902.8
949.469	9923.89
949.834	17526.41
950.198	16739.25
950.562	10025.49
950.927	8359.19
951.291	10021.3
951.655	8476.76
952.02	7863.16
952.384	5960.87
952.748	5205.98
953.112	5102.35
953.476	4421.19
953.839	4061.15
954.203	4017.38
954.567	5005.08
954.931	7845.58
955.294	6738.47
955.658	6786
956.021	11562.05
956.385	19465.72
956.748	28763.16
957.111	44221.78
957.474	49697.65
957.837	56006.92
958.2	42094.99
958.563	15179.03
958.926	10299.34
959.289	15618.24
959.652	17520.31
960.015	13172.79
960.377	18946.41
960.74	21627.66
961.102	37415.9
961.465	40514.98
961.827	22302.14
962.189	43100.66
962.552	30051.2
962.914	24290.25
963.276	15850.53
963.638	13142.31
964	13082.39
964.362	8942.94
964.724	8646.14
965.085	6214.44
965.447	5130.11
965.809	5784.7
966.17	5812.66
966.532	6321.35
966.893	5835.67
967.255	5369.53
967.616	6422.76
967.977	5213.98
968.338	5744.66
968.699	4816.83
969.061	4893.38
969.421	4993.91
969.782	5669.16
970.143	4880.04
970.504	5161.5
970.865	5951.95
971.225	6152.12
971.586	6059.99
971.946	8663.46
972.307	7559.93
972.667	9883.52
973.027	10186.58
973.388	12300.75
973.748	8372.89
974.108	9087.72
974.468	12139.51
974.828	9379.56
975.188	7156.81
975.548	6539.96
975.907	5499.45
976.267	6138.29
976.627	5169.48
976.986	5335.36
977.346	5085.25
977.705	4899.1
978.064	4472.64
978.424	3750.78
978.783	3851.87
979.142	4424.63
979.501	4272.07
979.86	4545.99
980.219	4388.43
980.578	5656.99
980.937	6358.27
981.296	5713.32
981.654	5911.91
982.013	9238.7
982.371	12057.3
982.73	11330.5
983.088	12936.8
983.447	13918.37
983.805	20003.99
984.163	42251.58
984.521	47180.56
984.879	69667.51
985.237	-114054.74
985.595	111427.53
985.953	27797.24
986.311	16066.65
986.669	9405.76
987.026	8140.83
987.384	10952.72
987.741	11353.52
988.099	8219.3
988.456	6574.37
988.814	6223.09
989.171	5439.91
989.528	5344.43
989.885	5674.3
990.242	4550.11
990.599	5652.65
990.956	4643.73
991.313	3266.42
991.67	2700.01
992.027	2917.4
992.383	2611.5
992.74	2306.61
993.096	2441.12
993.453	2542.1
993.809	2637.34
994.165	3515.92
994.522	3285.35
994.878	3637.75
995.234	4581.17
995.59	4526.87
995.946	4210.15
996.302	4826.64
996.658	5566.46
997.013	6155.84
997.369	7363.07
997.725	9506.12
998.08	6181.55
998.436	9415.74
998.791	13017.03
999.147	13127.99
999.502	14379.39
999.857	10485.85
1000.212	17156.22
1000.567	24455.9
1000.922	14112.07
1001.277	8957.13
1001.632	6647.01
1001.987	8599.78
1002.342	6241.24
1002.696	5041.43
1003.051	4030.12
1003.406	4897.32
1003.76	4872.15
1004.114	4828.28
1004.469	4102.12
1004.823	3402.78
1005.177	3697.85
1005.531	2955.77
1005.885	2632.49
1006.239	2986.63
1006.593	3765.78
1006.947	5054.82
1007.301	3800.58
1007.655	4167.41
1008.008	3078.31
1008.362	3459.59
1008.715	4965.55
1009.069	4515.08
1009.422	6863.12
1009.776	13799.51
1010.129	9172.98
1010.482	7652.79
1010.835	6472.21
1011.188	13502.04
1011.541	12831.77
1011.894	-78571.92
1012.247	234342.44
1012.6	15961.51
1012.952	10156.76
1013.305	5200.76
1013.657	3784.7
1014.01	3612.82
1014.362	2986.85
1014.715	2711.94
1015.067	2395.72
1015.419	2352.37
1015.771	2103.62
1016.123	1891.83
1016.475	1969.49
1016.827	2116.08
1017.179	2307.73
1017.531	2325.5
1017.883	2388.32
1018.234	2368.85
1018.586	3012.19
1018.938	3233.36
1019.289	4509.42
1019.64	5153.29
1019.992	4749.32
1020.343	4370.86
1020.694	3512.07
1021.045	3120.87
1021.396	3594.14
1021.747	3879.06
1022.098	4627.23
1022.449	3346.37
1022.8	3121.87
1023.151	2203.47
1023.501	1992.16
1023.852	2203.75
1024.202	2325.95
1024.553	2549.25
1024.903	2520.14
1025.253	2198.59
1025.604	1996.92
1025.954	2506.33
1026.304	3053.84
1026.654	3581.53
1027.004	5239.84
1027.354	8550.73
1027.703	8194.15
1028.053	10654.15
1028.403	15627.49
1028.753	22841.98
1029.102	30962.81
1029.452	159734.8
1029.801	6883
1030.15	4502.66
1030.499	3811.12
897.758	2649.33
901.051	2600.85
904.343	2633.93
907.636	2636.46
910.928	2700.96
914.22	2609.85
917.511	2618
920.803	2678.26
924.094	2696.16
927.384	2677.82
930.675	2640.98
933.965	2592.74
937.255	2603.88
940.544	2570.78
943.834	2514.47
947.123	2457.28
950.411	2552.29
953.7	2524.19
956.988	2495.14
960.276	2433.36
963.563	2508.09
966.851	2503.4
970.138	2559.11
973.424	2553.59
976.711	2503.38
979.997	2627.06
983.283	2661.41
986.568	2568.1
989.853	2581.03
993.138	2604.94
996.423	2686.93
999.708	2626.48
1002.992	2685.54
1006.275	2530.47
1009.559	2569.2
1012.842	2682.61
1016.125	2613.15
1019.408	2592.09
1022.69	2676.16
1025.972	2692.85
1029.254	2667.91
1032.536	2600.16
1035.817	2624.73
1039.098	2570.97
1042.379	2701.94
1045.659	2700.17
1048.939	2634.5
1052.219	2650.09
1055.498	2662.57
1058.778	2646.54
1062.057	2629.13
1065.335	2647.61
1068.614	2664.62
1071.892	2645.21
1075.17	2718.99
1078.447	2706.96
1081.724	2698.44
1085.001	2730.75
1088.278	2706.86
1091.554	2715.41
1094.83	2708.27
1098.106	2736.32
1101.382	2777.75
1104.657	2777.37
1107.932	2775.26
1111.206	2735
1114.481	2694.63
1117.755	2697.06
1121.029	2675.25
1124.302	2727.7
1127.575	2679.6
1130.848	2667.88
1134.121	2631.3
1137.393	2582.12
1140.665	2646.44
1143.937	2619.16
1147.208	2584.55
1150.48	2618.55
1153.75	2606.31
1157.021	2636.25
1160.291	2603.29
1163.561	2645.5
1166.831	2638.66
1170.101	2665.93
1173.37	2640.47
1176.639	2585.97
1179.907	2645.32
1183.176	2646.63
1186.444	2657.4
1189.711	2682.87
1192.979	2693.69
1196.246	2655.64
1199.513	2672.08
1202.78	2667.13
1206.046	2676.52
1209.312	2701.9
1212.578	2725.74
1215.843	2679.57
1219.108	2658.88
1222.373	2681.34
1225.638	2647.39
1228.902	2632.27
1232.166	2599.49
1235.43	2584.09
1238.693	2610.68
1241.956	2608.65
1245.219	2649.35
1248.482	2641
1251.744	2636.13
1255.006	2779.21
1258.268	2734.27
1261.529	2678.3
1264.79	2685.02
1268.051	2783.13
1271.312	2797.92
1274.572	2758.31
1277.832	2747.58
1281.092	2733.8
1284.351	2708.88
1287.61	2685.33
1290.869	2606.27
1294.128	2581.29
1297.386	2671.17
1300.644	2658.69
1303.902	2671.72
1307.159	2535.19
1310.416	2589.31
1313.673	2613.61
1316.93	2605.1
1320.186	2648.06
1323.442	2691.49
1326.697	2678.18
1329.953	2674.11
1333.208	2694.86
1336.463	2680.96
1339.717	2622.41
1342.972	2757.91
1346.226	2735.29
1349.479	2672.13
1352.733	2643.7
1355.986	2670.76
1359.238	2648.73
1362.491	2654.47
1365.743	2657.54
1368.995	2654.05
1372.247	2668.61
1375.498	2694.15
1378.749	2708.48
1382	2670.76
1385.251	2723.06
1388.501	2684.93
1391.751	2670.49
1395	2647.38
1398.25	2679.5
1401.499	2689.52
1404.748	2620.93
1407.996	2612.84
1411.244	2600.62
1414.492	2584.92
1417.74	2561.49
1420.987	2572.39
1424.234	2633.89
1427.481	2611.72
1430.728	2667.25
1433.974	2644.44
1437.22	2659.13
1440.465	2659.02
1443.711	2624.73
1446.956	2659.19
1450.201	2641.86
1453.445	2689.14
1456.689	2667.92
1459.933	2678.85
1463.177	2709.02
1466.42	2681.39
1469.663	2660.86
1472.906	2655.21
1476.148	2722.3
1479.391	2693.1
1482.633	2657.51
1485.874	2669.15
1489.115	2652.85
1492.356	2655.76
1495.597	2626.7
1498.838	2627.3
1502.078	2596.2
1505.318	2544.91
1508.557	2582.34
1511.797	2562.72
1515.036	2618.22
1518.274	2606.88
1521.513	2580
1524.751	2597.81
1527.989	2605.81
1531.227	2618.19
1534.464	2610.91
1537.701	2627.06
1540.938	2643.36
1544.174	2597.52
1547.41	2593.79
1550.646	2627.32
1553.882	2663.53
1557.117	2709.86
1560.352	2725.52
1563.587	2682.12
1566.821	2643.61
1570.055	2674.92
1573.289	2644.95
1576.523	2717.64
1579.756	2720.21
1582.989	2733.81
1586.222	2696.34
1589.454	2730.86
1592.686	2701.46
1595.918	2722.16
1599.15	2710.29
1602.381	2783.94
1605.612	2738.92
1608.843	2830.3
1612.073	2746.91
1615.303	2730.93
1618.533	2725.15
1621.762	2727.21
1624.992	2713.08
1628.221	2699.05
1631.449	2686.55
1634.678	2741.09
1637.906	2693.21
1641.134	2730.88
1644.361	2687.69
1647.588	2677.49
1650.815	2696.41
1654.042	2673.98
1657.269	2704.54
1660.495	2659.18
1663.72	2684.83
1666.946	2651.18
1670.171	2597.68
1673.396	2574.84
1676.621	2564.53
1679.845	2583.36
1683.069	2602.89
1686.293	2643.56
1689.517	2616.04
1692.74	2547.84
1695.963	2577.67
1699.185	2589.72
1702.408	2566.6
1705.63	2606.48
1708.852	2617.29
1712.073	2592.04
1715.294	2580.4
1718.515	2640.73
1721.736	2588.94
1724.956	2587.82
1728.176	2613.77
1731.396	2636.5
1734.616	2623.03
1737.835	2650.08
1741.054	2631.65
1744.272	2625.88
1747.491	2655.99
1750.709	2710.02
1753.927	2618
1757.144	2664.73
1760.361	2703.47
1763.578	2695.31
1766.795	2639.5
1770.011	2651.31
1773.227	2691.6
1776.443	2725.7
1779.658	2770.64
1782.874	2717.74
1786.089	2696.13
1789.303	2699.74
1792.518	2703.47
1795.732	2692.58
1798.945	2705
1802.159	2754.04
1805.372	2659.02
1808.585	2645.17
1811.797	2645.96
1815.01	2697.82
1818.222	2700.35
1821.434	2685.8
1824.645	2741.52
1827.856	2731.37
1831.067	2765.88
1834.278	2726.44
1837.488	2712.29
1840.698	2859.69
1843.908	2786.77
1847.117	2754.15
1850.326	2641.67
1853.535	2745.46
1856.744	2764.63
1859.952	2683.57
1863.16	2686.98
1866.368	2713.92
1869.575	2817.23
1872.782	2706.18
1875.989	2651.49
1879.196	2738.86
1882.402	2735.07
1885.608	2780.24
1888.814	2686.14
1892.019	2587.31
1895.224	2642.86
1898.429	2624.25
1901.634	2603.57
1904.838	2585.5
1908.042	2640.37
1911.246	2646.59
1914.449	2578.68
1917.652	2577.37
1920.855	2557.96
1924.058	2606.58
1927.26	2642.16
1930.462	2671.71
1933.664	2699.68
1936.865	2639.82
1940.066	2646.71
1943.267	2592
1946.467	2608.39
1949.668	2637.45
1952.868	2704.08
1956.067	2681.99
1959.267	2612.21
1962.466	2640.24
1965.665	2622.77
1968.863	2619.31
1972.061	2630.79
1975.259	2628.09
1978.457	2708.23
1981.654	2665.8
1984.852	2663.33
1988.048	2597.33
1991.245	2601.15
1994.441	2687.65
1997.637	2669.82
2000.833	2651.32
2004.028	2686.76
2007.223	2746.65
2010.418	2724.97
2013.613	2683.58
2016.807	2655.96
2020.001	2662.96
2023.194	2705.64
2026.388	2679.86
2029.581	2627.1
2032.774	2679.63
2035.966	2683.4
2039.158	2618.39
2042.35	2641.33
2045.542	2566.66
2048.733	2666.51
2051.924	2687.41
2055.115	2714.08
2058.306	2658.46
2061.496	2718.83
2064.686	2780.48
2067.875	2691.27
2071.065	2708.84
2074.254	2734.68
2077.442	2686.81
2080.631	2777.61
2083.819	2671.37
2087.007	2656.22
2090.195	2627.72
2093.382	2657.31
2096.569	2637.93
2099.756	2590.04
2102.942	2617.98
2106.128	2624.21
2109.314	2615.5
2112.5	2578.63
2115.685	2552.79
2118.87	2563.32
2122.055	2624.63
2125.239	2593.37
2128.424	2570.27
2131.608	2669.83
2134.791	2652.74
2137.974	2709.38
2141.157	2691.85
2144.34	2645.56
2147.523	2658.9
2150.705	2674.61
2153.887	2654.26
2157.068	2606.76
2160.25	2604.05
2163.431	2644.31
2166.611	2590.03
2169.792	2607.94
2172.972	2502.14
2176.152	2579.35
2179.331	2613.97
2182.511	2599.38
2185.69	2627.7
2188.868	2623.01
2192.047	2677.46
2195.225	2671.91
2198.403	2621.04
2201.58	2613.55
2204.758	2608.69
2207.935	2690.87
2211.111	2582.31
2214.288	2566.96
2217.464	2604.82
2220.64	2574.79
2223.815	2630.09
2226.991	2552.2
2230.166	2571.57
2233.34	2603.38
2236.515	2630
2239.689	2702.6
2242.863	2646.32
2246.036	2702.83
2249.209	2701.65
2252.382	2735.66
2255.555	2724.78
2258.727	2662.32
2261.9	2701.27
2265.071	2692.61
2268.243	2693.07
2271.414	2625.84
2274.585	2589.91
2277.756	2659.14
2280.926	2619.21
2284.096	2657.79
2287.266	2566.18
2290.436	2623.21
2293.605	2649.47
2296.774	2684.69
2299.942	2705.05
2303.111	2720.87
2306.279	2769.67
2309.447	2755
2312.614	2731.36
2315.781	2745.69
2318.948	2719.37
2322.115	2757.77
2325.281	2658.21
2328.447	2682.8
2331.613	2649.34
2334.779	2623.74
2337.944	2628.49
2341.109	2628.56
2344.274	2611.46
2347.438	2574.35
2350.602	2600.65
2353.766	2616.04
2356.929	2603.05
2360.092	2643.94
2363.255	2594.09
2366.418	2533.81
2369.58	2647.58
2372.742	2435.6
2375.904	2448.44
2379.066	2425.4
2382.227	2461.9
2385.388	2423.63
2388.548	2349.67
2391.709	2404.8
2394.869	2388.19
2398.029	2484.62
2401.188	2493.74
2404.347	2426.81
2407.506	2568.17
2410.665	2598.66
2413.823	2603.83
2416.981	2562.38
2420.139	2592.26
2423.296	2644
2426.453	2617.42
2429.61	2637.71
2432.767	2574.62
2435.923	2618.41
2439.079	2578.21
2442.235	2626.06
2445.391	2553.36
2448.546	2584.5
2451.701	2630.96
2454.855	2607.35
2458.009	2657.73
2461.163	2655.46
2464.317	2619.82
2467.471	2650.83
2470.624	2687.84
2473.777	2659.1
2476.929	2673.07
2480.082	2696.15
2483.234	2659.88
2486.385	2616.28
2489.537	2608.46
2492.688	2569.66
2495.839	2590.22
2498.989	2600.86
2502.14	2585.78
2505.29	2569.41
2508.439	2599.44
2511.589	2522
2514.738	2533.54
2517.887	2564.7
2521.035	2630.68
2524.183	2610.51
2527.331	2592.08
2530.479	2566.93
2533.627	2575.5
