Data from N_3_DEC_OH_4N_Splice17_13-26-53-663.txt Node
Date: Sat Mar 14 13:26:53 EDT 2020
User: sa697716
Spectrometer: FLMS03696
Trigger mode: 0
Integration Time (sec): 3.180400E-1
Scans to average: 20
Electric dark correction enabled: true
Nonlinearity correction enabled: true
Boxcar width: 5
XAxis mode: Wavelengths
Number of Pixels in Spectrum: 2048
>>>>>Begin Spectral Data<<<<<
187.83	-387139.75
188.298	2610.51
188.766	1385.1
189.233	1279.7
189.701	1903.16
190.169	2560.24
190.636	1017.1
191.104	747.28
191.571	98.5
192.039	-71.67
192.506	-137.92
192.974	324.73
193.441	-995.11
193.908	-342.45
194.375	-87.63
194.842	23.07
195.31	55.39
195.777	188.92
196.244	378.1
196.711	444.19
197.177	534.23
197.644	726.81
198.111	1257.92
198.578	1802.12
199.045	1453.08
199.511	2366.74
199.978	2780.79
200.445	2410.25
200.911	2647.99
201.378	2981.11
201.844	2717.3
202.31	4712.79
202.777	4955.43
203.243	2756.34
203.709	2623.67
204.176	3140.8
204.642	2597.23
205.108	2424.72
205.574	1943.4
206.04	1785.12
206.506	1667.54
206.972	1566.04
207.438	1504.8
207.903	1711.54
208.369	1513.44
208.835	1519.16
209.301	1586.65
209.766	1637.09
210.232	1627.64
210.697	2026.19
211.163	2483.37
211.628	3755.95
212.094	3148.93
212.559	3910.32
213.024	2433.03
213.49	2960.08
213.955	2898.67
214.42	2842.89
214.885	2638.35
215.35	2532.79
215.815	2450.56
216.28	2591.63
216.745	2109.37
217.21	2302.81
217.675	2111.33
218.14	2388.03
218.604	2681.41
219.069	3073.15
219.534	3246.76
219.998	3777.66
220.463	4583.47
220.927	5645.63
221.392	5351.56
221.856	5437.09
222.32	6850.91
222.785	8478.62
223.249	10678.91
223.713	11897.25
224.177	11900.83
224.642	15234.28
225.106	18749.64
225.57	20485.41
226.034	15279.24
226.497	23319.32
226.961	21087.29
227.425	24574.55
227.889	27200.69
228.353	27198.34
228.816	56178.99
229.28	53798.2
229.744	45405.58
230.207	27619.4
230.671	27186.24
231.134	44916.63
231.597	51676.18
232.061	51592.1
232.524	50240.97
232.987	34578.6
233.45	31118.31
233.914	27926.61
234.377	28564.33
234.84	26154.65
235.303	30852.87
235.766	34421.33
236.229	35536.64
236.691	22365.39
237.154	25092.08
237.617	18873.9
238.08	19339.6
238.542	22591.15
239.005	16136.08
239.468	16006.9
239.93	15041.92
240.393	13661.35
240.855	11997.85
241.317	12287.02
241.78	14946.96
242.242	15456.09
242.704	16715.16
243.166	14551.61
243.629	13238.49
244.091	15241.61
244.553	16686.77
245.015	17939.32
245.477	23196.24
245.939	33988.73
246.4	36066.11
246.862	35048.42
247.324	33081.68
247.786	36970.38
248.247	48430.11
248.709	49937.86
249.17	37370.81
249.632	35269.01
250.093	40921.55
250.555	35333.55
251.016	21547.14
251.477	20432.32
251.939	22048.92
252.4	23098.46
252.861	27425.06
253.322	25513.57
253.783	30327.14
254.244	39309.72
254.705	30967.39
255.166	27524.9
255.627	27070.01
256.088	38129.42
256.549	40481.58
257.009	34847.13
257.47	42252.04
257.931	34391.95
258.391	25780.35
258.852	26582.36
259.312	27880.97
259.773	34411.52
260.233	29073.88
260.694	24509.15
261.154	27793.76
261.614	22318.42
262.074	19948.15
262.534	20719.1
262.994	19536.62
263.455	26001.03
263.915	21902.2
264.374	20590.61
264.834	22470.41
265.294	24901.23
265.754	25772
266.214	24361.78
266.673	22781.4
267.133	28722.07
267.593	28475.02
268.052	34825.84
268.512	30230.2
268.971	36417.22
269.431	39899.4
269.89	35709.85
270.349	53466.4
270.809	59655.22
271.268	53645.43
271.727	120261.57
272.186	77822.19
272.645	58302.44
273.104	42006.08
273.563	60795.72
274.022	47824.67
274.481	40723.47
274.94	31370.32
275.399	23295.92
275.857	27095.36
276.316	36593.81
276.775	32547.63
277.233	32055
277.692	30025.71
278.15	34000.34
278.609	35023.71
279.067	32382.06
279.525	30057.59
279.984	38755.04
280.442	46566.26
280.9	45934.28
281.358	30236.8
281.816	28192.68
282.274	27588.27
282.732	28495.59
283.19	28584.88
283.648	24650.05
284.106	26275.79
284.564	26702.53
285.021	24792.9
285.479	18476.58
285.937	16781.76
286.394	14734.22
286.852	15151.21
287.309	15933.05
287.767	15390.87
288.224	14640.04
288.682	16068.19
289.139	17616.46
289.596	16133.8
290.053	16769.69
290.511	21155.09
290.968	25659.39
291.425	34757.68
291.882	28939.76
292.339	25181.89
292.796	24981.27
293.252	23516.65
293.709	18674.47
294.166	16735.06
294.623	18484.5
295.079	17714.74
295.536	17804.13
295.992	16164.85
296.449	15993.57
296.905	16616.16
297.362	15932.49
297.818	16755.35
298.274	17410.11
298.731	17730.22
299.187	17546.16
299.643	18840.34
300.099	22787.66
300.555	24977.07
301.011	20857.33
301.467	20125.87
301.923	23547.75
302.379	23008.83
302.835	22615.56
303.291	22617.88
303.746	25761.78
304.202	32539.21
304.658	32654.55
305.113	21985.2
305.569	21562.24
306.024	22983.26
306.479	21863.42
306.935	18458
307.39	20133.96
307.845	18599.94
308.301	18746.52
308.756	18254.03
309.211	17575.29
309.666	18013.7
310.121	22346.58
310.576	22632.55
311.031	22466.04
311.486	25718.01
311.94	25646.29
312.395	34309.2
312.85	64371.55
313.305	315772.01
313.759	1636558.4
314.214	118535.97
314.668	94033.89
315.123	79125.47
315.577	28424.04
316.032	25303.92
316.486	31683.86
316.94	25019.25
317.394	17396.03
317.849	13511.43
318.303	12785.03
318.757	12046.83
319.211	13312.42
319.665	11632.76
320.119	11770.1
320.572	16878.33
321.026	15751.37
321.48	13119.26
321.934	14297.42
322.387	14347.84
322.841	15497.68
323.295	13951.62
323.748	16055.13
324.202	16301.72
324.655	19592.81
325.108	27424.17
325.562	19336.7
326.015	22983.99
326.468	17360.25
326.921	19444.95
327.374	18138.99
327.827	18920.44
328.28	21399.3
328.733	14338.15
329.186	12602.1
329.639	11986.65
330.092	10080.38
330.545	9620.71
330.997	9705.57
331.45	10622.26
331.903	12428.37
332.355	21336.39
332.808	20706.55
333.26	17068.65
333.713	18559.53
334.165	18704.62
334.617	25003.19
335.069	20177.37
335.522	36446.15
335.974	40360.2
336.426	36798.11
336.878	25465.62
337.33	12922.54
337.782	12624.59
338.234	15855.84
338.686	18954.63
339.137	22482.33
339.589	21163.34
340.041	16603.32
340.493	14260.45
340.944	14598.27
341.396	15738.55
341.847	13270.89
342.299	15689.57
342.75	19137.98
343.201	16683.05
343.653	19183.34
344.104	23556.94
344.555	18543.47
345.006	28783.46
345.457	22086.35
345.908	17511.79
346.359	16474.41
346.81	13425.84
347.261	14102.81
347.712	13860.94
348.163	14849.21
348.613	15036.48
349.064	14031.92
349.515	12277.62
349.965	12635.86
350.416	15191.61
350.866	16693.13
351.317	18852.45
351.767	31166.71
352.217	39427.68
352.668	32763.74
353.118	30060.7
353.568	28997.62
354.018	22938.58
354.468	24189.9
354.918	17341.31
355.368	15152.03
355.818	21408.29
356.268	61545.43
356.718	257420.68
357.168	64096.19
357.617	32174.97
358.067	35711.84
358.517	33418.79
358.966	39106.66
359.416	43789.87
359.865	47203.47
360.315	56256.55
360.764	26253.63
361.213	14720.14
361.663	13929.83
362.112	17196.98
362.561	27791
363.01	20971.74
363.459	17637.82
363.908	19124.84
364.357	16282.99
364.806	27541.98
365.255	18953.07
365.703	17384.52
366.152	17412.32
366.601	14141.1
367.05	11460.62
367.498	10402.72
367.947	10847.76
368.395	11290.42
368.844	10001.78
369.292	12032.38
369.74	8308.8
370.189	12682.85
370.637	14843.77
371.085	12824.32
371.533	15581.78
371.981	15006.93
372.429	14304.38
372.877	14878.22
373.325	12409.5
373.773	12631.99
374.221	11225.34
374.669	13915
375.116	12034.23
375.564	12112.59
376.012	13484.38
376.459	11113.92
376.907	13266.62
377.354	16005.65
377.801	14950.56
378.249	17195.7
378.696	21896.53
379.143	26549.7
379.591	28206.45
380.038	47696.47
380.485	34356.43
380.932	37026.31
381.379	33827.38
381.826	24888.91
382.273	17697.36
382.72	15428.83
383.166	14989.25
383.613	9737.87
384.06	8742.77
384.506	10105.57
384.953	7387.97
385.4	7432.9
385.846	6500.79
386.292	6305.91
386.739	6145.72
387.185	6058.13
387.631	6049.62
388.078	5883.19
388.524	6256.98
388.97	5784.98
389.416	4819.53
389.862	5135.74
390.308	4866.28
390.754	4947.22
391.2	5375.88
391.645	5507.6
392.091	5282.34
392.537	5117.33
392.983	5122.93
393.428	5067.45
393.874	5434.51
394.319	5476.33
394.765	5195.52
395.21	5357.77
395.655	5027.13
396.101	4724.17
396.546	4279.84
396.991	4321.3
397.436	4030.69
397.881	3909.46
398.326	3707.42
398.771	3519.62
399.216	3088.26
399.661	2793.65
400.106	2801.93
400.551	2899.4
400.995	2615.9
401.44	2599.74
401.885	2457.42
402.329	2489.17
402.774	2398.61
403.218	2345.85
403.663	2273.5
404.107	2354.51
404.551	2392.9
404.995	2203.94
405.44	2130.58
405.884	2171.47
406.328	2115.59
406.772	2122.25
407.216	1949.29
407.66	1897.88
408.104	1811.89
408.547	1708.89
408.991	1659.66
409.435	1602.64
409.879	1590.65
410.322	1578.83
410.766	1535.22
411.209	1469.06
411.653	1416.21
412.096	1394.57
412.54	1401.22
412.983	1397.24
413.426	1408.84
413.869	1415.88
414.312	1397.6
414.756	1350.98
415.199	1292.07
415.642	1260.84
416.085	1268.7
416.527	1267.73
416.97	1293.59
417.413	1231.79
417.856	1222
418.298	1212.53
418.741	1204.9
419.184	1204.8
419.626	1256.06
420.069	1261.23
420.511	1271.9
420.953	1245.81
421.396	1234.07
421.838	1204.05
422.28	1234.56
422.722	1242.58
423.164	1260.94
423.606	1243.85
424.048	1244.57
424.49	1188.25
424.932	1183.33
425.374	1166.48
425.816	1187.44
426.258	1211.19
426.699	1226.5
427.141	1205.74
427.582	1222.29
428.024	1215.08
428.465	1208.93
428.907	1176.9
429.348	1162.49
429.789	1164.23
430.231	1140.41
430.672	1155.75
431.113	1127.73
431.554	1108.49
431.995	1082.19
432.436	1046.4
432.877	1025.92
433.318	1010.36
433.759	1007.88
434.2	1005.95
434.64	994.71
435.081	998.58
435.522	949.02
435.962	917.34
436.403	899.98
436.843	913.59
437.284	897.33
437.724	873.7
438.164	874.64
438.604	858.03
439.045	829.6
439.485	796.53
439.925	783.23
440.365	764.94
440.805	756.6
441.245	750.36
441.685	727.23
442.125	724.41
442.564	732.63
443.004	721.85
443.444	723.77
443.883	729.48
444.323	730.01
444.762	735.54
445.202	752.21
445.641	772.04
446.081	774.69
446.52	786.71
446.959	784.42
447.398	771.12
447.837	766.8
448.276	759.45
448.716	771.68
449.154	784.4
449.593	772.13
450.032	774.49
450.471	764.81
450.91	767.93
451.349	770.4
451.787	772.06
452.226	788.85
452.664	791.86
453.103	796.15
453.541	799.84
453.98	801.87
454.418	809.41
454.856	797.32
455.295	798.68
455.733	808.37
456.171	813.52
456.609	813.8
457.047	813.45
457.485	827.21
457.923	830.42
458.361	818.16
458.798	819.39
459.236	816.72
459.674	822.65
460.111	825.19
460.549	814.48
460.987	811.33
461.424	809.29
461.862	806.21
462.299	791.53
462.736	788.74
463.173	791.23
463.611	783.97
464.048	781.16
464.485	786.4
464.922	778.16
465.359	773.75
465.796	763.71
466.233	757.35
466.67	748.65
467.106	747.15
467.543	738.84
467.98	727.85
468.416	707.73
468.853	701.39
469.29	680.31
469.726	675.05
470.162	658.92
470.599	651.22
471.035	646.94
471.471	631.69
471.907	629.17
472.344	625.55
472.78	629.8
473.216	639.88
473.652	634.94
474.088	635.97
474.523	634.46
474.959	642.95
475.395	638.21
475.831	635.34
476.266	640.7
476.702	640.87
477.138	636.11
477.573	635.38
478.008	633.64
478.444	637.83
478.879	644.95
479.314	649.36
479.75	649.46
480.185	653.47
480.62	660.78
481.055	665.47
481.49	671.3
481.925	681.83
482.36	694.79
482.795	716
483.229	736.57
483.664	753.32
484.099	757.79
484.534	771.19
484.968	780.63
485.403	784.02
485.837	785.2
486.271	786.69
486.706	789.99
487.14	783.09
487.574	772.33
488.009	767.22
488.443	761.99
488.877	771.94
489.311	776.73
489.745	788.74
490.179	798.54
490.613	816.4
491.046	824.77
491.48	833.98
491.914	838.42
492.348	847.85
492.781	856.44
493.215	862.54
493.648	867.17
494.082	877.62
494.515	881.87
494.948	896.2
495.382	906.79
495.815	917.55
496.248	930.07
496.681	951.89
497.114	972.84
497.547	992.36
497.98	1015.45
498.413	1029.98
498.846	1048.15
499.279	1065.53
499.711	1077.33
500.144	1085.95
500.577	1105.74
501.009	1126.61
501.442	1144.94
501.874	1151.08
502.306	1159.56
502.739	1174.4
503.171	1199.94
503.603	1209.44
504.036	1227.49
504.468	1240.29
504.9	1260.66
505.332	1274.34
505.764	1283.51
506.196	1296.52
506.627	1320.23
507.059	1341.33
507.491	1357.06
507.923	1356.9
508.354	1380.01
508.786	1396.09
509.217	1422.1
509.649	1444.02
510.08	1471.62
510.512	1495.34
510.943	1516.91
511.374	1533.12
511.805	1560.49
512.237	1586.64
512.668	1630.64
513.099	1668.88
513.53	1705.47
513.961	1732.23
514.391	1774.25
514.822	1817.03
515.253	1864.29
515.684	1896.24
516.114	1933.81
516.545	1959.08
516.975	1990.93
517.406	2011.23
517.836	2008.11
518.267	2012
518.697	2031.15
519.127	2031.01
519.558	2036.42
519.988	2035.44
520.418	2044.13
520.848	2062.78
521.278	2069.26
521.708	2082.18
522.138	2093.62
522.567	2131.86
522.997	2161.06
523.427	2177.25
523.857	2195.99
524.286	2203.82
524.716	2219.47
525.145	2240.07
525.575	2249.37
526.004	2264.37
526.433	2255.54
526.863	2252.79
527.292	2234.04
527.721	2236.71
528.15	2239.95
528.579	2236.67
529.008	2247.39
529.437	2272.89
529.866	2288.05
530.295	2306.69
530.724	2319.26
531.152	2350.74
531.581	2364.04
532.01	2383.4
532.438	2390.7
532.867	2405.9
533.295	2426.69
533.723	2432.52
534.152	2426.77
534.58	2423.06
535.008	2399.83
535.436	2399
535.865	2406.96
536.293	2424.9
536.721	2445.23
537.149	2477.41
537.576	2479.95
538.004	2495.08
538.432	2503.1
538.86	2500.14
539.287	2507.95
539.715	2525.91
540.143	2529
540.57	2521.74
540.998	2514.75
541.425	2481.05
541.852	2451.69
542.28	2448.02
542.707	2423.12
543.134	2404.29
543.561	2397.81
543.988	2386.98
544.415	2384.28
544.842	2376.43
545.269	2366.67
545.696	2368.94
546.123	2385.66
546.549	2372.5
546.976	2356.12
547.403	2357.26
547.829	2359.08
548.256	2361.62
548.682	2356.69
549.108	2346.58
549.535	2347.32
549.961	2351.88
550.387	2335
550.813	2329.19
551.24	2337.83
551.666	2338.8
552.092	2327.33
552.518	2320.97
552.943	2313.73
553.369	2325.67
553.795	2334.28
554.221	2335.19
554.646	2331.75
555.072	2348.04
555.498	2357.17
555.923	2372.96
556.349	2396.94
556.774	2409.97
557.199	2414
557.625	2425.27
558.05	2419.9
558.475	2436.91
558.9	2439.19
559.325	2430.89
559.75	2424.6
560.175	2417.96
560.6	2411.61
561.025	2411.34
561.449	2418.14
561.874	2428.54
562.299	2439.14
562.723	2452.92
563.148	2444.14
563.572	2454.12
563.997	2473.04
564.421	2485.84
564.846	2490.99
565.27	2500.97
565.694	2502.61
566.118	2522.36
566.542	2538.1
566.966	2534
567.39	2531.55
567.814	2522.04
568.238	2526.49
568.662	2538.3
569.086	2546.19
569.509	2562.5
569.933	2545.25
570.357	2540.54
570.78	2515.83
571.204	2502.9
571.627	2492.44
572.05	2495.02
572.474	2499.75
572.897	2486.43
573.32	2481.3
573.743	2473.85
574.166	2451.13
574.589	2457.3
575.012	2451.62
575.435	2456.62
575.858	2448.47
576.281	2438.4
576.704	2421.24
577.126	2408.16
577.549	2397.7
577.972	2387.43
578.394	2376.55
578.817	2372.24
579.239	2349.61
579.661	2333.73
580.084	2313.35
580.506	2297.58
580.928	2295.37
581.35	2283.08
581.772	2280.46
582.194	2266.02
582.616	2252.05
583.038	2234.95
583.46	2223.45
583.882	2221.61
584.303	2232.91
584.725	2229.73
585.147	2234.09
585.568	2252.06
585.99	2273.4
586.411	2285.79
586.833	2309.77
587.254	2313.67
587.675	2336.37
588.096	2356.13
588.518	2350.94
588.939	2326.46
589.36	2326.46
589.781	2314.35
590.202	2273.17
590.623	2260.97
591.043	2259.38
591.464	2241.1
591.885	2237.11
592.305	2230.54
592.726	2211.97
593.147	2215.07
593.567	2208.7
593.987	2198.61
594.408	2192.63
594.828	2192.02
595.248	2184.05
595.669	2156.91
596.089	2148.06
596.509	2138.98
596.929	2119.92
597.349	2122.01
597.769	2107.92
598.189	2099.57
598.608	2101.46
599.028	2105.84
599.448	2106.88
599.867	2089.8
600.287	2085.11
600.706	2079.82
601.126	2066.68
601.545	2065.43
601.965	2063.79
602.384	2057.11
602.803	2062.53
603.222	2058.17
603.641	2049.95
604.061	2045.78
604.48	2041.73
604.898	2055.59
605.317	2063.66
605.736	2070.02
606.155	2068.32
606.574	2057.35
606.992	2068.24
607.411	2064.47
607.829	2054.99
608.248	2052.39
608.666	2052.45
609.085	2054.94
609.503	2045.58
609.921	2040.53
610.339	2045.68
610.758	2048.16
611.176	2044.92
611.594	2035.39
612.012	2033.03
612.43	2041.38
612.847	2054.83
613.265	2059.25
613.683	2068.54
614.101	2074.31
614.518	2072.27
614.936	2060.17
615.353	2041.36
615.771	2039.69
616.188	2041.79
616.606	2038.96
617.023	2030.25
617.44	2010.72
617.857	2002.83
618.274	1991.86
618.691	1983.28
619.108	1970.51
619.525	1963.04
619.942	1974.98
620.359	1981.93
620.776	1975.97
621.192	1970.4
621.609	1968.94
622.026	1980.47
622.442	1991.43
622.859	1998.41
623.275	1988.55
623.691	1999.36
624.108	2018.58
624.524	2041.42
624.94	2042.33
625.356	2058.41
625.772	2080.53
626.188	2099.64
626.604	2103.13
627.02	2096.45
627.436	2092.93
627.852	2104.22
628.268	2121.92
628.683	2108.33
629.099	2095.05
629.514	2086.21
629.93	2092.53
630.345	2098.8
630.761	2091.61
631.176	2097.22
631.591	2086.5
632.007	2077.48
632.422	2073.16
632.837	2056.87
633.252	2050.7
633.667	2034.44
634.082	2020.06
634.497	1998.93
634.911	1967.02
635.326	1961.88
635.741	1933.06
636.155	1916.83
636.57	1918.32
636.984	1917.29
637.399	1916.36
637.813	1916.62
638.228	1912.59
638.642	1917.74
639.056	1900.2
639.47	1901.19
639.884	1885.39
640.298	1875.41
640.712	1871.49
641.126	1849.23
641.54	1834.93
641.954	1825.61
642.368	1803.57
642.781	1788.82
643.195	1758.87
643.609	1757.69
644.022	1746.23
644.436	1737.93
644.849	1716.31
645.262	1698.01
645.676	1698.08
646.089	1688.22
646.502	1663.25
646.915	1653
647.328	1625.97
647.741	1621.63
648.154	1599.58
648.567	1593.23
648.98	1572.23
649.393	1571.71
649.805	1564.54
650.218	1553.05
650.631	1526.81
651.043	1516.94
651.456	1509.11
651.868	1509.84
652.28	1537.45
652.693	1558.21
653.105	1566.63
653.517	1580.05
653.929	1581.47
654.341	1588.56
654.753	1569.57
655.165	1580.59
655.577	1577.16
655.989	1568.96
656.401	1556.43
656.813	1498.29
657.224	1466.39
657.636	1423.82
658.047	1396.22
658.459	1363.87
658.87	1349.78
659.282	1329.67
659.693	1295.85
660.104	1270.08
660.515	1246.63
660.926	1238.72
661.338	1230.24
661.749	1217.3
662.159	1196.85
662.57	1184.27
662.981	1172.19
663.392	1155.55
663.803	1154.63
664.213	1143.47
664.624	1130.39
665.035	1127.49
665.445	1103.11
665.855	1086.41
666.266	1068.42
666.676	1059.57
667.086	1041.04
667.497	1033.03
667.907	1017.91
668.317	998.58
668.727	988.2
669.137	982.89
669.547	973.12
669.956	969.94
670.366	966.42
670.776	961.83
671.186	961.35
671.595	960.18
672.005	960.3
672.414	955.58
672.824	950.8
673.233	952.58
673.642	952.6
674.052	953.89
674.461	955.2
674.87	959.01
675.279	954.07
675.688	954.58
676.097	954.93
676.506	949.81
676.915	966.42
677.323	969.84
677.732	967.71
678.141	967.71
678.549	955.46
678.958	956.28
679.366	957.47
679.775	967.49
680.183	983.81
680.592	997.73
681	1011.36
681.408	1010.81
681.816	1030.12
682.224	1052.54
682.632	1078.77
683.04	1131.24
683.448	1178.79
683.856	1238.72
684.264	1304.09
684.671	1370.67
685.079	1446.53
685.487	1531.22
685.894	1642.91
686.302	1738.96
686.709	1821.12
687.116	1914.63
687.524	1994.61
687.931	2061.3
688.338	2118.86
688.745	2169.08
689.152	2220.42
689.559	2287.67
689.966	2350.93
690.373	2376.45
690.78	2428.32
691.187	2515.66
691.593	2572.47
692	2620.23
692.407	2695
692.813	2786.11
693.22	2851.97
693.626	2918.6
694.032	2962.93
694.439	3045.72
694.845	3101.94
695.251	3180.57
695.657	3242.58
696.063	3353.48
696.469	3424.33
696.875	3487.2
697.281	3507.04
697.687	3539.57
698.093	3560.57
698.498	3628.53
698.904	3672.13
699.31	3756.65
699.715	3806.38
700.12	3894.5
700.526	3883.18
700.931	3939.46
701.337	3974.58
701.742	3987.2
702.147	4064.81
702.552	4074.81
702.957	4123.92
703.362	4122.14
703.767	4132.37
704.172	4153.43
704.577	4067.96
704.981	4102.89
705.386	4099.25
705.791	4066.01
706.195	4134.22
706.6	4121.58
707.004	4192.27
707.408	4133.67
707.813	4144.61
708.217	4109.18
708.621	4093.22
709.025	4187.08
709.43	4168.6
709.834	4217.34
710.237	4277.56
710.641	4240.57
711.045	4246.74
711.449	4224.48
711.853	4240.55
712.256	4270.39
712.66	4294.69
713.064	4363.01
713.467	4393.85
713.87	4502.23
714.274	4536.35
714.677	4640.96
715.08	4801.68
715.484	4968.81
715.887	5169.93
716.29	5367.7
716.693	5571.03
717.096	5810.58
717.499	5929.5
717.901	5938.67
718.304	5946.93
718.707	5958.7
719.109	5834.49
719.512	5784.15
719.915	5628.21
720.317	5553.63
720.719	5585.84
721.122	5544.07
721.524	5480.51
721.926	5425.99
722.328	5517.46
722.731	5496.94
723.133	5513.01
723.535	5700.87
723.937	5707.44
724.338	5747.04
724.74	5779.14
725.142	5713.94
725.544	5702.44
725.945	5719.33
726.347	5707.3
726.748	5691.97
727.15	5697.11
727.551	5652.61
727.952	5612.43
728.354	5577
728.755	5569.6
729.156	5517.17
729.557	5487.99
729.958	5360.83
730.359	5299.89
730.76	5273.31
731.161	5207.21
731.562	5177.69
731.962	5174.32
732.363	5109.45
732.763	5042.11
733.164	5075.55
733.564	5007.15
733.965	4909.57
734.365	4871.25
734.766	4894.5
735.166	4852.17
735.566	4794.77
735.966	4764.39
736.366	4756.61
736.766	4693.87
737.166	4724.85
737.566	4679.86
737.966	4651.33
738.365	4686.96
738.765	4680.7
739.165	4604.24
739.564	4580.75
739.964	4623.09
740.363	4577.48
740.763	4573.06
741.162	4559.58
741.561	4522.96
741.96	4477.22
742.36	4495.36
742.759	4497
743.158	4530.46
743.557	4542.38
743.955	4576.13
744.354	4527.81
744.753	4581.12
745.152	4538.52
745.55	4588.54
745.949	4581.18
746.348	4580.75
746.746	4595.02
747.144	4557.01
747.543	4534.42
747.941	4581.45
748.339	4511.61
748.737	4504.98
749.136	4494.56
749.534	4556.69
749.932	4528.55
750.33	4551.18
750.727	4604.22
751.125	4582.03
751.523	4564.55
751.921	4604.05
752.318	4571.59
752.716	4629.86
753.113	4642.66
753.511	4666.08
753.908	4664.71
754.305	4648.87
754.703	4707.21
755.1	4765.2
755.497	4820.89
755.894	5001.59
756.291	5173.71
756.688	5489.45
757.085	5907.97
757.482	6501.62
757.878	7152.04
758.275	7743.43
758.672	8547.9
759.068	9205.06
759.465	10143.1
759.861	11355.26
760.258	12760.95
760.654	13484.37
761.05	13373.76
761.447	12763.38
761.843	11881.74
762.239	10969.05
762.635	10556.48
763.031	10164.33
763.427	9596.14
763.822	9000.25
764.218	8409.75
764.614	7641.92
765.01	7130.99
765.405	6801.49
765.801	6550.05
766.196	6227.51
766.592	6049.07
766.987	5741.5
767.382	5536.17
767.778	5450.16
768.173	5325.29
768.568	5256.52
768.963	5136.98
769.358	5155.21
769.753	5109.95
770.148	5029.81
770.542	5029.01
770.937	4998.44
771.332	5088.83
771.726	5108.37
772.121	5048.15
772.515	5096.59
772.91	5081.5
773.304	5148.33
773.699	5083.46
774.093	5132.94
774.487	5185.1
774.881	5225.29
775.275	5221.5
775.669	5179.46
776.063	5221.47
776.457	5253.29
776.851	5183.48
777.245	5172.55
777.638	5205.46
778.032	5312.35
778.425	5278.48
778.819	5318.02
779.212	5278.28
779.606	5238.37
779.999	5256.7
780.392	5237.95
780.786	5318.16
781.179	5335.99
781.572	5376.64
781.965	5387.57
782.358	5335.48
782.751	5389.83
783.143	5344.25
783.536	5414.66
783.929	5456.32
784.322	5564.64
784.714	5594.51
785.107	5590.57
785.499	5663.57
785.891	5645.13
786.284	5628.51
786.676	5764.78
787.068	5747.36
787.46	5796.08
787.852	5814.91
788.245	5896.5
788.636	5925.38
789.028	5992.13
789.42	6030.59
789.812	6036.96
790.204	6127.19
790.595	6223.39
790.987	6038.89
791.378	6060.04
791.77	6188.66
792.161	6317.16
792.553	6374.36
792.944	6271.05
793.335	6206.03
793.726	6276.36
794.117	6365.97
794.508	6503.55
794.899	6474.22
795.29	6607.06
795.681	6666.39
796.072	6530.4
796.463	6362.35
796.853	6371.76
797.244	6525.75
797.634	6561.26
798.025	6563.85
798.415	6577.48
798.806	6662.06
799.196	6749.68
799.586	6803.11
799.976	6764.94
800.366	6991.26
800.756	7219.31
801.146	7183.83
801.536	7216.1
801.926	7291.38
802.316	7320.19
802.706	7390.2
803.095	7274.82
803.485	7372.73
803.874	7409.59
804.264	7666.79
804.653	7639.88
805.043	7781.64
805.432	7890.16
805.821	7888.83
806.21	7910.02
806.599	8023.66
806.988	8068.73
807.377	8171.96
807.766	8297.32
808.155	8576.91
808.544	8317.03
808.933	8331.54
809.321	8309.3
809.71	8593.94
810.098	8746.47
810.487	9190.29
810.875	9654.21
811.264	9675.54
811.652	9964.28
812.04	10102.52
812.428	10261.5
812.816	11003.19
813.204	11413.42
813.592	11953.85
813.98	12279.99
814.368	12189.62
814.756	12657.01
815.144	12579.66
815.531	13029.89
815.919	12952.55
816.306	13259.95
816.694	12963.02
817.081	13016
817.469	13356.25
817.856	13354.16
818.243	13619.43
818.63	14007.24
819.017	13601.89
819.404	13665.05
819.791	14038.23
820.178	14637.11
820.565	14880.91
820.952	15788.37
821.339	15306.99
821.725	15490.78
822.112	14779.25
822.498	14740.71
822.885	14869.44
823.271	14781.4
823.657	15193.22
824.044	15204.72
824.43	15275.6
824.816	15250.94
825.202	14832.54
825.588	15835.81
825.974	15844.53
826.36	16344.1
826.746	16377.64
827.132	16732.02
827.517	16709.23
827.903	15947.73
828.289	15986.9
828.674	15237.69
829.06	15132.56
829.445	15509.57
829.83	15852.43
830.216	16318.13
830.601	16669.52
830.986	16273.75
831.371	16139.85
831.756	16677.7
832.141	16255.35
832.526	16245.57
832.911	16508.67
833.295	16400.26
833.68	16856.93
834.065	16246.68
834.449	15356.33
834.834	15286.03
835.218	15279.11
835.603	15605.85
835.987	15391.6
836.371	16196.99
836.755	16094.49
837.139	16486.01
837.524	16708.65
837.908	16539.85
838.291	16602.89
838.675	16666.36
839.059	16858.1
839.443	16842.68
839.827	16604.94
840.21	17074.15
840.594	16927.61
840.977	17130.36
841.361	17104.52
841.744	17459.47
842.127	17294.93
842.511	17527.2
842.894	18091.74
843.277	18465.65
843.66	18973.39
844.043	19054.65
844.426	18273.31
844.809	17970.08
845.191	17990.93
845.574	17542.64
845.957	17195.83
846.339	17092.64
846.722	16585.58
847.104	16655.38
847.487	16482.93
847.869	16498.74
848.252	16767.22
848.634	17077.42
849.016	17327.57
849.398	17442.57
849.78	18267.16
850.162	18270.03
850.544	18666.85
850.926	19262.74
851.307	19177.39
851.689	19450.62
852.071	19899.46
852.452	20213.08
852.834	20203.87
853.215	20590.5
853.597	20733.23
853.978	21015.21
854.359	21456.61
854.741	20494.62
855.122	20401.54
855.503	20116.69
855.884	20242.08
856.265	20180.44
856.646	20288.37
857.026	19903.68
857.407	19838.29
857.788	20000.06
858.169	20264.24
858.549	19450.61
858.93	20052.75
859.31	20100.07
859.69	20312.98
860.071	19928.45
860.451	19714.53
860.831	19006.18
861.211	20123.65
861.591	20659.12
861.971	20638.91
862.351	20838.41
862.731	21206.05
863.111	21470.04
863.491	21798.58
863.87	22645.41
864.25	22977.96
864.629	22598.82
865.009	23094.9
865.388	23926.29
865.768	25639.89
866.147	25545.89
866.526	24124.55
866.905	24412.99
867.284	25779.25
867.663	24480.69
868.042	23457.46
868.421	23386.11
868.8	23775.63
869.179	24009.51
869.558	22604.2
869.936	20825.32
870.315	21195.15
870.693	21719.59
871.072	23430.76
871.45	22322.76
871.828	22613.1
872.207	23778.72
872.585	23413.95
872.963	24056.58
873.341	23228.45
873.719	22964.81
874.097	22702.85
874.475	23135.12
874.853	23668.14
875.23	22676.44
875.608	23633.23
875.986	25557.22
876.363	24434.44
876.741	25185.42
877.118	24547.62
877.495	25759.38
877.873	26181.09
878.25	27542.94
878.627	26413.03
879.004	26774.7
879.381	26643.51
879.758	25930.79
880.135	24133.16
880.512	25517.86
880.889	24833.94
881.265	24562.39
881.642	24348.21
882.019	24744.68
882.395	24244.9
882.772	25205.56
883.148	24107.79
883.524	23999.09
883.901	23846.93
884.277	24204.78
884.653	24051.75
885.029	24739.13
885.405	27411.22
885.781	27190.86
886.157	26075.01
886.532	26383.94
886.908	26368.08
887.284	29323.67
887.659	30287.59
888.035	31235.36
888.411	32030.71
888.786	32450.22
889.161	33553.6
889.537	32902.61
889.912	33951.61
890.287	33904.6
890.662	34768.81
891.037	34119.25
891.412	31799.14
891.787	31470.69
892.162	30357.97
892.536	31060.31
892.911	29889.69
893.286	29269.78
893.66	28095.86
894.035	28809.02
894.409	31373.24
894.784	30105.17
895.158	30604.25
895.532	32413.11
895.906	33305.14
896.281	34100.55
896.655	33553.34
897.029	38342.34
897.402	39918.13
897.776	44418.56
898.15	44259.21
898.524	43791.74
898.898	44371.78
899.271	49693.41
899.645	43045.16
900.018	41353.41
900.392	42878.76
900.765	43236.07
901.138	40004.72
901.511	39403.52
901.884	36201.5
902.258	33390.53
902.631	34504.08
903.003	39717.91
903.376	35832.1
903.749	40198.74
904.122	43012.57
904.495	47345.72
904.867	47948.76
905.24	41615.43
905.612	38756.88
905.985	39629.77
906.357	41440.08
906.729	39562.08
907.102	33806.59
907.474	32497.88
907.846	32706.25
908.218	32273.86
908.59	28531.66
908.962	27575.16
909.334	29706
909.705	31210.37
910.077	30299.6
910.449	31561.57
910.82	32435.02
911.192	35682.84
911.563	37094.09
911.935	39690.27
912.306	39772.61
912.677	41099.28
913.048	40720.84
913.419	44182.43
913.79	44423.1
914.161	47659.71
914.532	45540.14
914.903	41854.9
915.274	39748.99
915.645	39195.82
916.015	34500.02
916.386	32887.64
916.756	34990.32
917.127	36112.06
917.497	32273.51
917.868	35137.84
918.238	33393.34
918.608	34374.25
918.978	35089.45
919.348	37190.11
919.718	38410.34
920.088	36999.94
920.458	38434.85
920.828	40453.68
921.198	38345.32
921.567	40968.41
921.937	31716.14
922.306	32003.41
922.676	34506.21
923.045	28786.47
923.415	27343.5
923.784	24904.67
924.153	25607.01
924.522	25579.52
924.891	24052.85
925.26	25767.74
925.629	25140.88
925.998	28927.18
926.367	28240.29
926.736	26878.77
927.104	32020.18
927.473	34397.04
927.842	41520.11
928.21	41105.24
928.578	43216.61
928.947	40828.91
929.315	41085.42
929.683	48227.61
930.051	48554.64
930.42	56372.83
930.788	48212.33
931.156	47831.91
931.523	44852.38
931.891	41433.31
932.259	39796.01
932.627	46130.33
932.994	65308.56
933.362	53938.56
933.729	46802.2
934.097	44766.9
934.464	37864.52
934.831	43666.33
935.199	43039.69
935.566	41713.45
935.933	42214.78
936.3	51125.34
936.667	39777.35
937.034	35878.7
937.401	35457.15
937.767	30579.4
938.134	27235.83
938.501	38422.84
938.867	40939.36
939.234	69242.73
939.6	59085.36
939.967	65192.56
940.333	43597.39
940.699	37100.74
941.065	29745.6
941.431	39007.53
941.798	37669.04
942.163	49510.99
942.529	30943.49
942.895	28502.1
943.261	18426.44
943.627	24177.46
943.992	21187.18
944.358	21245.78
944.723	21339.13
945.089	20803.65
945.454	19224.37
945.82	20515.43
946.185	19715.48
946.55	22872.91
946.915	20522.62
947.28	24082.88
947.645	21204.89
948.01	19582.5
948.375	20441.72
948.74	24518.01
949.104	28606.71
949.469	41349.87
949.834	73094.88
950.198	69364.66
950.562	41530.19
950.927	34573
951.291	41596.79
951.655	35419.16
952.02	33272.57
952.384	25139.23
952.748	21880.63
953.112	21355.07
953.476	18575.02
953.839	17180.24
954.203	17009.43
954.567	21284.72
954.931	33506.35
955.294	28673.72
955.658	28852.24
956.021	49095.14
956.385	83240.04
956.748	122804.73
957.111	190309.27
957.474	213501.56
957.837	240590.66
958.2	181893.79
958.563	65430.78
958.926	44309.22
959.289	67229.21
959.652	75112.53
960.015	56309.7
960.377	80785.67
960.74	92185.55
961.102	159086.2
961.465	171008.81
961.827	91595.11
962.189	175759.84
962.552	121784.3
962.914	97535.82
963.276	63303.67
963.638	52339.4
964	51833.34
964.362	35068.68
964.724	33884.09
965.085	24183.13
965.447	19811.71
965.809	22551.23
966.17	22559.78
966.532	24419.36
966.893	22429.82
967.255	20417.76
967.616	24079.59
967.977	19303.5
968.338	21067.79
968.699	17332.85
969.061	17332.88
969.421	17438.14
969.782	19584.84
970.143	16548.89
970.504	17147.81
970.865	19458.62
971.225	19888.87
971.586	19463.11
971.946	27744.55
972.307	24067.06
972.667	31446.38
973.027	32373.25
973.388	39250.95
973.748	26678.27
974.108	29099.75
974.468	39364.23
974.828	30385.44
975.188	23369.64
975.548	21465.48
975.907	17992.14
976.267	20201.45
976.627	16975.3
976.986	17587.77
977.346	16780.04
977.705	16153.89
978.064	14691.59
978.424	12220.59
978.783	12629.22
979.142	14401.57
979.501	13784.88
979.86	14578.46
980.219	14041.5
980.578	18101.83
980.937	20268.8
981.296	18066.78
981.654	18553.42
982.013	28873.94
982.371	37441.03
982.73	34979.77
983.088	39692.39
983.447	42378.07
983.805	60568.11
984.163	126557.54
984.521	140252.04
984.879	205897.65
985.237	-334350.85
985.595	322382.97
985.953	80078.36
986.311	46257.38
986.669	26859.05
987.026	23155.18
987.384	31175.15
987.741	32209.89
988.099	23047.38
988.456	18383.46
988.814	17191.5
989.171	14963.58
989.528	14778.31
989.885	15575.79
990.242	12324.15
990.599	15343.64
990.956	12541.94
991.313	8766.96
991.67	7192.87
992.027	7621.23
992.383	6773.52
992.74	5948.51
993.096	6247
993.453	6478.51
993.809	6716.41
994.165	8956.32
994.522	8207.44
994.878	9049.46
995.234	11339.95
995.59	11215.96
995.946	10608.33
996.302	12105.67
996.658	13988.45
997.013	15395.85
997.369	18273.03
997.725	23428.48
998.08	15159.05
998.436	23350.23
998.791	32206.38
999.147	32169.04
999.502	34984.33
999.857	25462.56
1000.212	41507.48
1000.567	59062.33
1000.922	34068.44
1001.277	21672.53
1001.632	16098.98
1001.987	20764.46
1002.342	14903.75
1002.696	11930.17
1003.051	9527.08
1003.406	11552.12
1003.76	11491.05
1004.114	11352.21
1004.469	9548.98
1004.823	7898.56
1005.177	8502.28
1005.531	6745.76
1005.885	5993.91
1006.239	6775.15
1006.593	8505.84
1006.947	11371.2
1007.301	8516.25
1007.655	9289.21
1008.008	6821.23
1008.362	7652.75
1008.715	10946.68
1009.069	9917.71
1009.422	14938.35
1009.776	29948.06
1010.129	19845.46
1010.482	16551.69
1010.835	13993.49
1011.188	29230.7
1011.541	27480.6
1011.894	-167800.57
1012.247	495519.53
1012.6	33584.27
1012.952	21268.1
1013.305	10916.3
1013.657	7847.78
1014.01	7431.47
1014.362	6128.18
1014.715	5452.76
1015.067	4759.49
1015.419	4643.95
1015.771	4105.88
1016.123	3634.22
1016.475	3746.94
1016.827	3988.72
1017.179	4310.69
1017.531	4347.65
1017.883	4443.66
1018.234	4310.33
1018.586	5446.33
1018.938	5762.16
1019.289	7962.47
1019.64	9118.99
1019.992	8500.67
1020.343	7795.92
1020.694	6168.35
1021.045	5424.08
1021.396	6205.64
1021.747	6656.05
1022.098	7960.08
1022.449	5761.6
1022.8	5344.1
1023.151	3731.99
1023.501	3312.81
1023.852	3602.07
1024.202	3739.05
1024.553	4121.68
1024.903	4033.78
1025.253	3452.36
1025.604	3108.56
1025.954	3830.86
1026.304	4658.62
1026.654	5418.9
1027.004	7932.64
1027.354	12845.88
1027.703	12135.38
1028.053	15886.88
1028.403	22979.94
1028.753	33271.25
1029.102	45344.62
1029.452	233670.08
1029.801	10197.65
1030.15	6623.05
1030.499	5612.41
897.758	2947.07
901.051	2916.13
904.343	2952.94
907.636	2949.11
910.928	3016.36
914.22	2922.79
917.511	2933.3
920.803	3007.06
924.094	3039.28
927.384	3003.01
930.675	2968.68
933.965	2915.29
937.255	2916.5
940.544	2884.64
943.834	2785.96
947.123	2736.25
950.411	2834.21
953.7	2803.19
956.988	2763.46
960.276	2703.48
963.563	2803.81
966.851	2791.25
970.138	2859.84
973.424	2845.68
976.711	2794.28
979.997	2978.29
983.283	3005.42
986.568	2896.14
989.853	2926.02
993.138	2953.21
996.423	3036.88
999.708	2962.93
1002.992	3053.54
1006.275	2839.22
1009.559	2910.64
1012.842	3038.15
1016.125	2958.17
1019.408	2936.29
1022.69	3043.07
1025.972	3055.86
1029.254	3026.87
1032.536	2941.51
1035.817	2979.39
1039.098	2898.7
1042.379	3101.07
1045.659	3080.8
1048.939	3000.33
1052.219	3031.24
1055.498	3052.84
1058.778	3029.15
1062.057	3016.14
1065.335	3036.14
1068.614	3063.25
1071.892	3032.84
1075.17	3125.97
1078.447	3106.42
1081.724	3094.6
1085.001	3139.41
1088.278	3109.48
1091.554	3126.38
1094.83	3123.52
1098.106	3149.61
1101.382	3203.44
1104.657	3203.74
1107.932	3200.81
1111.206	3157.31
1114.481	3117.19
1117.755	3121.45
1121.029	3093.71
1124.302	3144.67
1127.575	3085.68
1130.848	3070.92
1134.121	3023.34
1137.393	2964.98
1140.665	3038.13
1143.937	3009.12
1147.208	2971.24
1150.48	3000.64
1153.75	2985.35
1157.021	3031.68
1160.291	2996.04
1163.561	3041.39
1166.831	3038.76
1170.101	3079.73
1173.37	3059.62
1176.639	2992.88
1179.907	3064.5
1183.176	3061.41
1186.444	3074.06
1189.711	3103.24
1192.979	3111.32
1196.246	3069.76
1199.513	3088.2
1202.78	3084.74
1206.046	3089.41
1209.312	3118.32
1212.578	3149.63
1215.843	3089.17
1219.108	3069.34
1222.373	3093.99
1225.638	3052.27
1228.902	3031.47
1232.166	3000.85
1235.43	2978.95
1238.693	3001.25
1241.956	3002.58
1245.219	3038.06
1248.482	3034.2
1251.744	3027.99
1255.006	3195.79
1258.268	3153.42
1261.529	3089.75
1264.79	3098.59
1268.051	3212.74
1271.312	3231.29
1274.572	3190.98
1277.832	3180.47
1281.092	3174.57
1284.351	3135.99
1287.61	3109.33
1290.869	3012.2
1294.128	2974.31
1297.386	3089.42
1300.644	3076.17
1303.902	3085.02
1307.159	2935.55
1310.416	2991.98
1313.673	3015.54
1316.93	2993.81
1320.186	3054.02
1323.442	3102.86
1326.697	3082.45
1329.953	3086.12
1333.208	3101.87
1336.463	3084.68
1339.717	3011.36
1342.972	3154.51
1346.226	3134.88
1349.479	3056.32
1352.733	3019.72
1355.986	3049.35
1359.238	3026.08
1362.491	3027.96
1365.743	3032.54
1368.995	3028.25
1372.247	3042.28
1375.498	3069.97
1378.749	3081.79
1382	3040.21
1385.251	3103.74
1388.501	3069.62
1391.751	3045.95
1395	3020.25
1398.25	3057.59
1401.499	3057.34
1404.748	2972.7
1407.996	2950.85
1411.244	2934.27
1414.492	2908.69
1417.74	2883.46
1420.987	2898.11
1424.234	2955.16
1427.481	2942.45
1430.728	3000.62
1433.974	2975.82
1437.22	2997.1
1440.465	3002.94
1443.711	2962.88
1446.956	3006.16
1450.201	3005.96
1453.445	3049.4
1456.689	3023.54
1459.933	3038.69
1463.177	3068.22
1466.42	3039.18
1469.663	3013.49
1472.906	2998.44
1476.148	3105.87
1479.391	3029.73
1482.633	3006.38
1485.874	3009.09
1489.115	2987.88
1492.356	3001.28
1495.597	2974.15
1498.838	2982.91
1502.078	2940.91
1505.318	2880.66
1508.557	2929.98
1511.797	2875.19
1515.036	2996.01
1518.274	2981.98
1521.513	2960.54
1524.751	2990.07
1527.989	2998.88
1531.227	3008.27
1534.464	2991.51
1537.701	3027.28
1540.938	3051.23
1544.174	3001.72
1547.41	3007.22
1550.646	3047.19
1553.882	3077.57
1557.117	3133.69
1560.352	3150.97
1563.587	3104.2
1566.821	3058.06
1570.055	3105.39
1573.289	3069.97
1576.523	3157.15
1579.756	3162.11
1582.989	3182.48
1586.222	3138.45
1589.454	3180.06
1592.686	3148.43
1595.918	3170.42
1599.15	3156.45
1602.381	3249.31
1605.612	3190.91
1608.843	3291.72
1612.073	3193.64
1615.303	3174.62
1618.533	3159.37
1621.762	3170.74
1624.992	3163.86
1628.221	3140.4
1631.449	3124.93
1634.678	3197.62
1637.906	3144.88
1641.134	3190.08
1644.361	3139.43
1647.588	3128.56
1650.815	3141.89
1654.042	3128.38
1657.269	3158.47
1660.495	3106.4
1663.72	3091.34
1666.946	3062.74
1670.171	2984.85
1673.396	2961.39
1676.621	2953.76
1679.845	2988.04
1683.069	3019.79
1686.293	3072.92
1689.517	3032.51
1692.74	2945.42
1695.963	2973.78
1699.185	3029.13
1702.408	2994.12
1705.63	3045.43
1708.852	3052.5
1712.073	3023.98
1715.294	2995.49
1718.515	3063.98
1721.736	3003.11
1724.956	3002.37
1728.176	3031.35
1731.396	3054.84
1734.616	3046.58
1737.835	3070.34
1741.054	3047.58
1744.272	3044.41
1747.491	3070.16
1750.709	3141.64
1753.927	3018.88
1757.144	3076.68
1760.361	3114.11
1763.578	3117.29
1766.795	3049.84
1770.011	3062.5
1773.227	3113.04
1776.443	3149.88
1779.658	3195.69
1782.874	3139.41
1786.089	3108.09
1789.303	3112.73
1792.518	3120.35
1795.732	3108.41
1798.945	3112.84
1802.159	3171.32
1805.372	3049.44
1808.585	3028.73
1811.797	3031.29
1815.01	3096.15
1818.222	3098.43
1821.434	3025.57
1824.645	3103.97
1827.856	3074.93
1831.067	3115.81
1834.278	3084.02
1837.488	3066.11
1840.698	3237.18
1843.908	3147.92
1847.117	3107.94
1850.326	2962.35
1853.535	3085.06
1856.744	3157.36
1859.952	3055.84
1863.16	3057.91
1866.368	3079.94
1869.575	3182.27
1872.782	3066
1875.989	3003.89
1879.196	3111.42
1882.402	3105.35
1885.608	3151.43
1888.814	3029.49
1892.019	2918.12
1895.224	2970.93
1898.429	2956.09
1901.634	2930.48
1904.838	2910.38
1908.042	2957.85
1911.246	2961.07
1914.449	2872.18
1917.652	2879.09
1920.855	2860.46
1924.058	2926.15
1927.26	2956.76
1930.462	2990.9
1933.664	3010.2
1936.865	2942.87
1940.066	2945.95
1943.267	2891.59
1946.467	2915.86
1949.668	2945.19
1952.868	3011.87
1956.067	2982.29
1959.267	2906.62
1962.466	2937.35
1965.665	2921.24
1968.863	2920.45
1972.061	2945.57
1975.259	2948.61
1978.457	3034.48
1981.654	2985.23
1984.852	2988.15
1988.048	2906.59
1991.245	2919.68
1994.441	3005.49
1997.637	3004.81
2000.833	2986.87
2004.028	3029.73
2007.223	3077.99
2010.418	3048.27
2013.613	3012.53
2016.807	2968.25
2020.001	2984.75
2023.194	3044.56
2026.388	3012.24
2029.581	2956.22
2032.774	2998.96
2035.966	2999.66
2039.158	2921.07
2042.35	2955.13
2045.542	2880.61
2048.733	2996.09
2051.924	3037.29
2055.115	3070.73
2058.306	2996.81
2061.496	3064.35
2064.686	3137.87
2067.875	3055.03
2071.065	3079.06
2074.254	3110.99
2077.442	3059.43
2080.631	3156.81
2083.819	3020.34
2087.007	2993.96
2090.195	2957.08
2093.382	3006.51
2096.569	2982.2
2099.756	2930.58
2102.942	2942.32
2106.128	2939.83
2109.314	2934.19
2112.5	2883.99
2115.685	2863.35
2118.87	2876.53
2122.055	2945.69
2125.239	2901.92
2128.424	2863.77
2131.608	2995.02
2134.791	2974.27
2137.974	3046.38
2141.157	3031.89
2144.34	2969.64
2147.523	3000.12
2150.705	3005.54
2153.887	2989.12
2157.068	2926.65
2160.25	2940.95
2163.431	2990.84
2166.611	2919.34
2169.792	2936.83
2172.972	2815.58
2176.152	2910.57
2179.331	2952.02
2182.511	2921.61
2185.69	2953.59
2188.868	2943.71
2192.047	3015.6
2195.225	2992.43
2198.403	2936.51
2201.58	2935.09
2204.758	2931.14
2207.935	3023.07
2211.111	2893.75
2214.288	2874.99
2217.464	2919.07
2220.64	2898.04
2223.815	2958.59
2226.991	2870.15
2230.166	2892.22
2233.34	2917.9
2236.515	2947.02
2239.689	3029.54
2242.863	2967.89
2246.036	3026.7
2249.209	3038.75
2252.382	3080.2
2255.555	3057.57
2258.727	2983.75
2261.9	3030.13
2265.071	3020.55
2268.243	3027.8
2271.414	2950.3
2274.585	2896.92
2277.756	2968.87
2280.926	2923.24
2284.096	2970.88
2287.266	2863.19
2290.436	2927.99
2293.605	2963.39
2296.774	2988.13
2299.942	3023.6
2303.111	3037.35
2306.279	3082.57
2309.447	3071.15
2312.614	3051.1
2315.781	3068.38
2318.948	3029.26
2322.115	3071.28
2325.281	2969.36
2328.447	2997.52
2331.613	2973.74
2334.779	2930.43
2337.944	2943.76
2341.109	2940.09
2344.274	2916.58
2347.438	2879.64
2350.602	2907.38
2353.766	2928.36
2356.929	2911.39
2360.092	2956.82
2363.255	2898.12
2366.418	2811.57
2369.58	2954.49
2372.742	2681.62
2375.904	2709.66
2379.066	2681.36
2382.227	2722.52
2385.388	2684.78
2388.548	2595.38
2391.709	2660.83
2394.869	2633.41
2398.029	2759.92
2401.188	2784.08
2404.347	2700.82
2407.506	2881.55
2410.665	2904.83
2413.823	2922.46
2416.981	2864.87
2420.139	2907.01
2423.296	2961.83
2426.453	2936.48
2429.61	2963.35
2432.767	2875.51
2435.923	2915.97
2439.079	2843.83
2442.235	2908.12
2445.391	2824.16
2448.546	2841.67
2451.701	2903.94
2454.855	2859.21
2458.009	2929.48
2461.163	2936
2464.317	2887.35
2467.471	2922.53
2470.624	2967.1
2473.777	2967.33
2476.929	2978.17
2480.082	3004.69
2483.234	2966.91
2486.385	2894.09
2489.537	2886.36
2492.688	2827.19
2495.839	2846.17
2498.989	2853.97
2502.14	2838.88
2505.29	2810.89
2508.439	2841.07
2511.589	2748.94
2514.738	2770.05
2517.887	2805.92
2521.035	2898.57
2524.183	2893.19
2527.331	2870.55
2530.479	2833.14
2533.627	2846.71
