Data from N_3_DEC_ON_6N_Splice17_13-37-55-548.txt Node
Date: Sat Mar 14 13:37:55 EDT 2020
User: sa697716
Spectrometer: FLMS03696
Trigger mode: 0
Integration Time (sec): 3.180400E-1
Scans to average: 20
Electric dark correction enabled: true
Nonlinearity correction enabled: true
Boxcar width: 5
XAxis mode: Wavelengths
Number of Pixels in Spectrum: 2048
>>>>>Begin Spectral Data<<<<<
187.83	-518044.1
188.298	3598.44
188.766	1934.26
189.233	1736.32
189.701	2452.62
190.169	3470.67
190.636	1283.89
191.104	973.79
191.571	157.28
192.039	-61.38
192.506	-5.72
192.974	710.25
193.441	-902.75
193.908	-17.29
194.375	-82.57
194.842	48.06
195.31	162.7
195.777	205.86
196.244	489.62
196.711	581.32
197.177	708.32
197.644	1035.73
198.111	1822.91
198.578	2497.99
199.045	2007.4
199.511	3295.16
199.978	3832.29
200.445	3290.4
200.911	3616.23
201.378	4015.65
201.844	3655.1
202.31	6323.28
202.777	6575.58
203.243	3628.62
203.709	3438.41
204.176	4060.49
204.642	3338.91
205.108	3112.91
205.574	2505.67
206.04	2268.87
206.506	2129.79
206.972	2004.25
207.438	1914.53
207.903	2165.67
208.369	1896.86
208.835	1894.85
209.301	1984.22
209.766	2035.47
210.232	2004.55
210.697	2477.86
211.163	3068.07
211.628	4593.14
212.094	3844.2
212.559	4726.64
213.024	2922.28
213.49	3563.88
213.955	3481.23
214.42	3393.28
214.885	3136.39
215.35	3000.47
215.815	2899.6
216.28	3060.03
216.745	2469.21
217.21	2646.44
217.675	2381.73
218.14	2655.43
218.604	2909.45
219.069	3251.89
219.534	3360.96
219.998	3839.91
220.463	4582.2
220.927	5536.93
221.392	5166.33
221.856	5200.16
222.32	6478.93
222.785	7962.92
223.249	9940.56
223.713	11052.67
224.177	11015.54
224.642	14053.71
225.106	17327.71
225.57	18830.24
226.034	13993.76
226.497	21284.85
226.961	19228.21
227.425	22382.17
227.889	24772.77
228.353	24728.62
228.816	50926.37
229.28	48589.72
229.744	40939.58
230.207	24835.52
230.671	24471.52
231.134	40352.6
231.597	46464.28
232.061	46262.34
232.524	45005.29
232.987	30992.61
233.45	27890.93
233.914	24988.55
234.377	25584.92
234.84	23401.42
235.303	27521.21
235.766	30686.97
236.229	31671.42
236.691	19911.93
237.154	22382.16
237.617	16874.98
238.08	17289.08
238.542	20210.65
239.005	14449.04
239.468	14345.84
239.93	13521.92
240.393	12305.76
240.855	10808.36
241.317	11073.07
241.78	13469.23
242.242	13936.71
242.704	15042.07
243.166	13075.98
243.629	11890.51
244.091	13706.88
244.553	15032.28
245.015	16143.77
245.477	20845
245.939	30509.29
246.4	32437.99
246.862	31484.37
247.324	29649.9
247.786	33137.36
248.247	43449.88
248.709	44816.91
249.17	33517.95
249.632	31587.44
250.093	36661.27
250.555	31677.39
251.016	19322.94
251.477	18305.56
251.939	19804.49
252.4	20781.65
252.861	24707.25
253.322	22995.83
253.783	27344.77
254.244	35468.3
254.705	27979.17
255.166	24872.07
255.627	24524.57
256.088	34678.36
256.549	36850.7
257.009	31707.72
257.47	38466.44
257.931	31316.18
258.391	23464.59
258.852	24192.71
259.312	25325.82
259.773	31248.57
260.233	26423.4
260.694	22268.62
261.154	25200.39
261.614	20243.03
262.074	18079.92
262.534	18803.37
262.994	17719.07
263.455	23569.24
263.915	19853.7
264.374	18710.93
264.834	20401.06
265.294	22576.99
265.754	23381.91
266.214	22127.92
266.673	20721.88
267.133	26167.17
267.593	25908.91
268.052	31741.84
268.512	27613.68
268.971	33337.99
269.431	36576.58
269.89	32771.93
270.349	49182.6
270.809	54867.56
271.268	49425.88
271.727	110797.23
272.186	71738.78
272.645	53874.91
273.104	38809.14
273.563	56158.82
274.022	44107.13
274.481	37519.72
274.94	28923.95
275.399	21472.15
275.857	25005.41
276.316	33760.14
276.775	30041.44
277.233	29597.47
277.692	27742.1
278.15	31427.45
278.609	32423.7
279.067	30059.71
279.525	27940.84
279.984	36090.85
280.442	43406.4
280.9	42863.19
281.358	28233.62
281.816	26328.44
282.274	25811.84
282.732	26624.76
283.19	26749.89
283.648	23061.99
284.106	24563.72
284.564	24981.28
285.021	23187.82
285.479	17295.67
285.937	15690.83
286.394	13781.48
286.852	14206.81
287.309	14925.88
287.767	14449.52
288.224	13743.54
288.682	15086.45
289.139	16552.48
289.596	15151.77
290.053	15735.27
290.511	19854.87
290.968	24095.82
291.425	32628.12
291.882	27150.58
292.339	23637.89
292.796	23419.58
293.252	22042.4
293.709	17541.84
294.166	15720.31
294.623	17365.97
295.079	16663.92
295.536	16749.44
295.992	15220.73
296.449	15061.11
296.905	15664.27
297.362	15029.33
297.818	15804.19
298.274	16424.54
298.731	16683.12
299.187	16499.17
299.643	17710.2
300.099	21412.98
300.555	23450.31
301.011	19595.54
301.467	18934.52
301.923	22113.41
302.379	21597.9
302.835	21236.49
303.291	21270.04
303.746	24256.71
304.202	30670.59
304.658	30831.73
305.113	20741.64
305.569	20361.87
306.024	21699.67
306.479	20623.13
306.935	17415.04
307.39	19020.62
307.845	17567.63
308.301	17707.61
308.756	17258.05
309.211	16665.23
309.666	17054.98
310.121	21242.08
310.576	21598.4
311.031	21446.4
311.486	24565.73
311.94	24563.94
312.395	32851.68
312.85	61768.06
313.305	302897.26
313.759	1570039.09
314.214	113703.4
314.668	90440.26
315.123	76166.49
315.577	27302.48
316.032	24302.37
316.486	30455.84
316.94	24034.5
317.394	16727.44
317.849	13020.93
318.303	12335.55
318.757	11654.12
319.211	12874.43
319.665	11245.9
320.119	11359.27
320.572	16284.56
321.026	15228.68
321.48	12689.84
321.934	13847.06
322.387	13886.01
322.841	15004.88
323.295	13516.97
323.748	15542.66
324.202	15778.48
324.655	18996.69
325.108	26598.91
325.562	18791.05
326.015	22347.62
326.468	16906.22
326.921	18902.47
327.374	17661.97
327.827	18392.82
328.28	20821.46
328.733	13979.18
329.186	12309.99
329.639	11725.56
330.092	9869.05
330.545	9409.46
330.997	9492.48
331.45	10381.57
331.903	12191.42
332.355	20957.04
332.808	20374.68
333.26	16790.67
333.713	18247.86
334.165	18348.35
334.617	24496.42
335.069	19805.67
335.522	35841.39
335.974	39716.67
336.426	36317.7
336.878	25097.65
337.33	12736.86
337.782	12440.8
338.234	15597.8
338.686	18600.52
339.137	22112.66
339.589	20854.06
340.041	16350.3
340.493	14044.42
340.944	14392.85
341.396	15492.46
341.847	13075.76
342.299	15454.17
342.75	18911.98
343.201	16498.11
343.653	19011.33
344.104	23303.71
344.555	18304.98
345.006	28453.4
345.457	21855.59
345.908	17343.16
346.359	16336.63
346.81	13272.78
347.261	13966.95
347.712	13720.42
348.163	14730.5
348.613	14939.97
349.064	13967.95
349.515	12239
349.965	12544.61
350.416	15081.85
350.866	16571.36
351.317	18705.93
351.767	31024.15
352.217	39247.92
352.668	32559.57
353.118	29864.62
353.568	28780.08
354.018	22810.41
354.468	24101.49
354.918	17316.32
355.368	15165.13
355.818	21447.05
356.268	61794.5
356.718	259175.56
357.168	64648.61
357.617	32463.44
358.067	36155.52
358.517	33909.6
358.966	39824.25
359.416	44748.37
359.865	48496.02
360.315	57822.81
360.764	27035.44
361.213	15177.62
361.663	14379.59
362.112	17776.98
362.561	28872.5
363.01	21886.8
363.459	18463.31
363.908	19998.76
364.357	17059.15
364.806	28886.46
365.255	19927.88
365.703	18379.49
366.152	18490.71
366.601	15080.22
367.05	12328.19
367.498	11247.1
367.947	11768.68
368.395	12327.47
368.844	11016.3
369.292	13357.55
369.74	9330.55
370.189	14427.93
370.637	17044.42
371.085	14859.99
371.533	18266.39
371.981	17772.04
372.429	17180.41
372.877	18185.42
373.325	15453.48
373.773	15968.26
374.221	14444.01
374.669	18142.96
375.116	15912.25
375.564	16308.43
376.012	18582
376.459	15618.3
376.907	19013.87
377.354	23426.35
377.801	22255.37
378.249	26075.44
378.696	34011.33
379.143	41996.32
379.591	45825.17
380.038	79289.98
380.485	58563.64
380.932	64595.75
381.379	60373.62
381.826	45417.37
382.273	32999.78
382.72	29519.45
383.166	29424.49
383.613	19524.96
384.06	18019.05
384.506	21330
384.953	16014.37
385.4	16495.29
385.846	14775.99
386.292	14734
386.739	14745.47
387.185	14894.07
387.631	15201.09
388.078	15016.72
388.524	16377.76
388.97	15403.57
389.416	13075
389.862	14158.05
390.308	13648.51
390.754	14077.82
391.2	15542.23
391.645	16143.51
392.091	15630.91
392.537	15318.72
392.983	15585.43
393.428	15498.71
393.874	16842.77
394.319	17111.56
394.765	16423.44
395.21	17112.34
395.655	16244.12
396.101	15374.67
396.546	14014.23
396.991	14317.97
397.436	13427.01
397.881	13103.53
398.326	12548
398.771	11954.2
399.216	10551.89
399.661	9577.72
400.106	9596.69
400.551	9890.61
400.995	8926.33
401.44	8888.21
401.885	8395.65
402.329	8531.94
402.774	8216.08
403.218	7973.36
403.663	7724.07
404.107	7967.8
404.551	8052.21
404.995	7420.88
405.44	7187.5
405.884	7326.5
406.328	7126.84
406.772	7134.84
407.216	6518.37
407.66	6325.77
408.104	6043.47
408.547	5677.48
408.991	5504.53
409.435	5320.08
409.879	5250.06
410.322	5183.6
410.766	5013
411.209	4766.51
411.653	4580.94
412.096	4480.31
412.54	4490.88
412.983	4460.78
413.426	4466.62
413.869	4476.61
414.312	4389.31
414.756	4234.45
415.199	4043.75
415.642	3923.77
416.085	3930.31
416.527	3907.94
416.97	3981.67
417.413	3777.99
417.856	3750.2
418.298	3723.16
418.741	3708.25
419.184	3710.41
419.626	3882.29
420.069	3888.24
420.511	3913.81
420.953	3830.32
421.396	3796.78
421.838	3706.12
422.28	3788.39
422.722	3798.54
423.164	3855.31
423.606	3782.62
424.048	3782.42
424.49	3585.42
424.932	3571.04
425.374	3524.08
425.816	3591.35
426.258	3659.88
426.699	3701.11
427.141	3641.96
427.582	3704.32
428.024	3686.94
428.465	3669.74
428.907	3567.54
429.348	3524.27
429.789	3514.91
430.231	3432.7
430.672	3473.15
431.113	3387.4
431.554	3330.02
431.995	3248.9
432.436	3121.36
432.877	3040.28
433.318	2977.66
433.759	2963.24
434.2	2958.91
434.64	2925.78
435.081	2932.23
435.522	2775.54
435.962	2674.14
436.403	2611.66
436.843	2649.34
437.284	2596.48
437.724	2536.23
438.164	2552.28
438.604	2501.93
439.045	2405.27
439.485	2304.05
439.925	2261.62
440.365	2211.03
440.805	2186.97
441.245	2164.63
441.685	2088.75
442.125	2080.23
442.564	2099.33
443.004	2052.68
443.444	2052.88
443.883	2061.8
444.323	2060.5
444.762	2076.8
445.202	2110.75
445.641	2151.98
446.081	2152.83
446.52	2176.02
446.959	2159.12
447.398	2106.78
447.837	2089.48
448.276	2059.13
448.716	2086.97
449.154	2113.55
449.593	2067.1
450.032	2066.89
450.471	2037.06
450.91	2041.06
451.349	2040.26
451.787	2039.82
452.226	2076.92
452.664	2081.89
453.103	2089.52
453.541	2093.22
453.98	2086.36
454.418	2104.15
454.856	2070.69
455.295	2069.58
455.733	2088.67
456.171	2104.47
456.609	2105.09
457.047	2107.52
457.485	2135.25
457.923	2137.15
458.361	2109.87
458.798	2121.08
459.236	2115.22
459.674	2133.93
460.111	2143.09
460.549	2119.37
460.987	2111.54
461.424	2107.98
461.862	2096.39
462.299	2063.96
462.736	2057.95
463.173	2061.78
463.611	2030.6
464.048	2021.26
464.485	2033.52
464.922	2013.06
465.359	2003.94
465.796	1958.4
466.233	1938.76
466.67	1913.59
467.106	1905.73
467.543	1890.12
467.98	1868.12
468.416	1824.83
468.853	1813.89
469.29	1759.82
469.726	1743.57
470.162	1699.76
470.599	1693.69
471.035	1682.28
471.471	1646.36
471.907	1642.59
472.344	1635.06
472.78	1640.68
473.216	1665.43
473.652	1648.28
474.088	1649.82
474.523	1644.93
474.959	1662.49
475.395	1650.67
475.831	1643.24
476.266	1657.12
476.702	1656.23
477.138	1640.23
477.573	1637.3
478.008	1632.13
478.444	1640.3
478.879	1655.04
479.314	1664.7
479.75	1667.21
480.185	1679.68
480.62	1699.2
481.055	1711.12
481.49	1725.49
481.925	1753.36
482.36	1781.83
482.795	1837.76
483.229	1892.37
483.664	1936.19
484.099	1949.14
484.534	1981.48
484.968	2002.07
485.403	2010.51
485.837	2011.62
486.271	2009.98
486.706	2015.04
487.14	1998.31
487.574	1965.62
488.009	1948.84
488.443	1933.85
488.877	1950.2
489.311	1956.49
489.745	1978.38
490.179	1995.37
490.613	2027.62
491.046	2044.31
491.48	2058.63
491.914	2060.43
492.348	2075.08
492.781	2085.67
493.215	2089.79
493.648	2094.46
494.082	2109.94
494.515	2108.81
494.948	2128.56
495.382	2142.86
495.815	2154.17
496.248	2166.62
496.681	2201.64
497.114	2233.92
497.547	2260.52
497.98	2292.85
498.413	2304.46
498.846	2325.65
499.279	2345.54
499.711	2352.64
500.144	2353.05
500.577	2373.63
501.009	2397.92
501.442	2413.79
501.874	2404.98
502.306	2399.19
502.739	2403.66
503.171	2432.3
503.603	2428.01
504.036	2441.32
504.468	2441.92
504.9	2457.55
505.332	2460.4
505.764	2452.71
506.196	2454.34
506.627	2474.54
507.059	2490.32
507.491	2496.37
507.923	2470.21
508.354	2486.12
508.786	2489.55
509.217	2510.52
509.649	2522.71
510.08	2545.49
510.512	2561.01
510.943	2572.15
511.374	2572.71
511.805	2594.83
512.237	2615.11
512.668	2663.99
513.099	2699.38
513.53	2733.56
513.961	2751.78
514.391	2794
514.822	2834.06
515.253	2881.95
515.684	2906.23
516.114	2937.83
516.545	2948.37
516.975	2970.13
517.406	2975.43
517.836	2950.37
518.267	2932.36
518.697	2935.42
519.127	2913.87
519.558	2899.43
519.988	2878.56
520.418	2871.46
520.848	2878.33
521.278	2869.94
521.708	2855.28
522.138	2854.15
522.567	2887.81
522.997	2910.51
523.427	2916.41
523.857	2924.85
524.286	2921.59
524.716	2928.2
525.145	2940.95
525.575	2939.54
526.004	2945.98
526.433	2932.31
526.863	2916.24
527.292	2880.94
527.721	2875.72
528.15	2870.93
528.579	2857.14
529.008	2862.93
529.437	2889.19
529.866	2900.66
530.295	2918.12
530.724	2928.6
531.152	2962.84
531.581	2975.82
532.01	2996.36
532.438	3000.33
532.867	3017.48
533.295	3039.66
533.723	3042.31
534.152	3030.4
534.58	3021.64
535.008	2990.41
535.436	2987.43
535.865	2995
536.293	3013.35
536.721	3033.98
537.149	3070.42
537.576	3070.65
538.004	3086.53
538.432	3095.78
538.86	3089.93
539.287	3098.94
539.715	3118.88
540.143	3119.64
540.57	3111.03
540.998	3102.65
541.425	3062.63
541.852	3027.43
542.28	3021.88
542.707	2994.67
543.134	2969.9
543.561	2960.71
543.988	2946.88
544.415	2943.42
544.842	2932.95
545.269	2919.33
545.696	2922.08
546.123	2942.56
546.549	2925.82
546.976	2903.05
547.403	2901.83
547.829	2904.13
548.256	2908.02
548.682	2902.7
549.108	2891.14
549.535	2890.43
549.961	2894.83
550.387	2874.86
550.813	2867.17
551.24	2878.04
551.666	2882.34
552.092	2868.78
552.518	2860.94
552.943	2853.54
553.369	2868.64
553.795	2880.53
554.221	2885.9
554.646	2882.29
555.072	2901.34
555.498	2913.35
555.923	2931.89
556.349	2962.87
556.774	2982.02
557.199	2990.92
557.625	3007.33
558.05	3003.46
558.475	3027.58
558.9	3032.83
559.325	3028.64
559.75	3025.76
560.175	3022.38
560.6	3021.45
561.025	3025.4
561.449	3036.57
561.874	3054.11
562.299	3069.64
562.723	3092.41
563.148	3085.85
563.572	3104.33
563.997	3131.03
564.421	3152.98
564.846	3165.62
565.27	3181.78
565.694	3189.12
566.118	3221.3
566.542	3245.93
566.966	3247.93
567.39	3252.22
567.814	3244.72
568.238	3256.92
568.662	3281.75
569.086	3300.88
569.509	3328.31
569.933	3314.25
570.357	3315.4
570.78	3292.43
571.204	3283.48
571.627	3279.37
572.05	3291.01
572.474	3306.01
572.897	3297.78
573.32	3296.43
573.743	3293.33
574.166	3273.38
574.589	3289.1
575.012	3289.67
575.435	3302.27
575.858	3300.64
576.281	3292.31
576.704	3276.77
577.126	3268.66
577.549	3260.75
577.972	3255.3
578.394	3248.42
578.817	3247.2
579.239	3224.47
579.661	3210.61
580.084	3190.22
580.506	3175.63
580.928	3181.69
581.35	3171.62
581.772	3174.02
582.194	3158.67
582.616	3145.65
583.038	3127.35
583.46	3117.03
583.882	3118.48
584.303	3138.54
584.725	3140.72
585.147	3151.06
585.568	3182.02
585.99	3215.26
586.411	3237.64
586.833	3276.39
587.254	3287.17
587.675	3325.11
588.096	3362.07
588.518	3360.84
588.939	3331.78
589.36	3335.08
589.781	3324.31
590.202	3266.67
590.623	3255.06
591.043	3257.06
591.464	3237.13
591.885	3235.62
592.305	3228.51
592.726	3203.14
593.147	3210.52
593.567	3203.53
593.987	3191.71
594.408	3185.85
594.828	3191.24
595.248	3181.36
595.669	3141.73
596.089	3129.47
596.509	3119.31
596.929	3094.14
597.349	3099.2
597.769	3081.91
598.189	3072.79
598.608	3080.87
599.028	3089.89
599.448	3093.21
599.867	3071.35
600.287	3069.45
600.706	3064.35
601.126	3046.16
601.545	3047.18
601.965	3049.92
602.384	3043.78
602.803	3055.57
603.222	3048.39
603.641	3038.97
604.061	3037.08
604.48	3033.38
604.898	3056.93
605.317	3075.63
605.736	3089.47
606.155	3090.76
606.574	3077.73
606.992	3096.84
607.411	3094.77
607.829	3086.37
608.248	3088.98
608.666	3093.56
609.085	3103.07
609.503	3094.57
609.921	3090.2
610.339	3106.47
610.758	3117.19
611.176	3118.09
611.594	3109.81
612.012	3111.62
612.43	3129.88
612.847	3157.35
613.265	3171.07
613.683	3193.23
614.101	3207.61
614.518	3211.77
614.936	3197.52
615.353	3172.79
615.771	3175.51
616.188	3185.64
616.606	3191.09
617.023	3184.79
617.44	3159
617.857	3152.5
618.274	3141.03
618.691	3135.7
619.108	3121.03
619.525	3113.94
619.942	3137.42
620.359	3152.22
620.776	3147.34
621.192	3141.21
621.609	3140.82
622.026	3162.55
622.442	3181
622.859	3195.49
623.275	3182.1
623.691	3199.71
624.108	3231.44
624.524	3272.45
624.94	3275.46
625.356	3303.88
625.772	3342.08
626.188	3377.24
626.604	3383.5
627.02	3376.43
627.436	3372.63
627.852	3389.4
628.268	3422.38
628.683	3403.93
629.099	3385.36
629.514	3374.78
629.93	3387.99
630.345	3400.41
630.761	3392.53
631.176	3405.91
631.591	3389.95
632.007	3375.93
632.422	3376.84
632.837	3352.88
633.252	3349.72
633.667	3328.23
634.082	3311.3
634.497	3282.02
634.911	3238.25
635.326	3236.53
635.741	3198.07
636.155	3183.85
636.57	3197.2
636.984	3206.66
637.399	3220.67
637.813	3233.25
638.228	3241.93
638.642	3266.05
639.056	3253.27
639.47	3268.85
639.884	3259.5
640.298	3258.27
640.712	3268.75
641.126	3250.38
641.54	3242.47
641.954	3247.73
642.368	3228.02
642.781	3216.98
643.195	3182.48
643.609	3198.93
644.022	3197.52
644.436	3202.73
644.849	3183.51
645.262	3167.12
645.676	3185.57
646.089	3184.51
646.502	3148.33
646.915	3146.54
647.328	3110.74
647.741	3114.82
648.154	3084.72
648.567	3079.5
648.98	3046.41
649.393	3055.07
649.805	3048.22
650.218	3034.35
650.631	2993.06
651.043	2981.21
651.456	2967.35
651.868	2977.48
652.28	3039.17
652.693	3089.9
653.105	3123.19
653.517	3163.42
653.929	3172.18
654.341	3199.91
654.753	3168.03
655.165	3197.78
655.577	3202.28
655.989	3199.17
656.401	3188.58
656.813	3082.49
657.224	3031.2
657.636	2953.94
658.047	2905.43
658.459	2854.64
658.87	2839.09
659.282	2816.65
659.693	2760.35
660.104	2724.23
660.515	2693.19
660.926	2695.46
661.338	2696.59
661.749	2685.25
662.159	2660.54
662.57	2656.47
662.981	2648.51
663.392	2630.45
663.803	2648.17
664.213	2647.2
664.624	2637.96
665.035	2651.46
665.445	2609.88
665.855	2587.06
666.266	2560.69
666.676	2554.23
667.086	2525.62
667.497	2522.21
667.907	2500.99
668.317	2468.32
668.727	2446.52
669.137	2446.96
669.547	2434.77
669.956	2440.59
670.366	2442.86
670.776	2442.3
671.186	2449.89
671.595	2454.66
672.005	2462.99
672.414	2451.67
672.824	2440.17
673.233	2455.91
673.642	2455.63
674.052	2456.5
674.461	2452.51
674.87	2459.7
675.279	2443.59
675.688	2444.11
676.097	2437.34
676.506	2420.38
676.915	2462.26
677.323	2464.48
677.732	2452.49
678.141	2446.97
678.549	2412.86
678.958	2409.69
679.366	2407.62
679.775	2426.08
680.183	2453.4
680.592	2475.24
681	2494.36
681.408	2475.88
681.816	2504.72
682.224	2536.95
682.632	2567.5
683.04	2664.38
683.448	2745.45
683.856	2841.55
684.264	2948.92
684.671	3052.52
685.079	3173.56
685.487	3302.85
685.894	3482.01
686.302	3621.2
686.709	3725
687.116	3846.15
687.524	3923.66
687.931	3979.04
688.338	4014.81
688.745	4029.17
689.152	4046.55
689.559	4089.92
689.966	4124.02
690.373	4092.36
690.78	4108.09
691.187	4177.49
691.593	4201.69
692	4209.96
692.407	4257.62
692.813	4333.63
693.22	4372.9
693.626	4415.34
694.032	4421.52
694.439	4483.02
694.845	4510.51
695.251	4568.91
695.657	4607.74
696.063	4712.24
696.469	4760.33
696.875	4800.79
697.281	4780.41
697.687	4778.78
698.093	4760.8
698.498	4813.08
698.904	4835.47
699.31	4908.32
699.715	4935.82
700.12	5013.18
700.526	4966.63
700.931	5009.44
701.337	5021.67
701.742	5005.7
702.147	5072.55
702.552	5055.78
702.957	5086.9
703.362	5057.54
703.767	5041.5
704.172	5042.92
704.577	4918.82
704.981	4935.33
705.386	4907.08
705.791	4847.54
706.195	4909.28
706.6	4875.71
707.004	4943.24
707.408	4856.98
707.813	4851.52
708.217	4796.48
708.621	4760.37
709.025	4855.55
709.43	4820.39
709.834	4864.38
710.237	4919.27
710.641	4861.96
711.045	4856.26
711.449	4815.77
711.853	4822.84
712.256	4844.24
712.66	4861.09
713.064	4926.73
713.467	4948.32
713.87	5059.24
714.274	5087.74
714.677	5193.98
715.08	5363.82
715.484	5543.11
715.887	5762.12
716.29	5969.71
716.693	6191.3
717.096	6443.85
717.499	6570.39
717.901	6568.56
718.304	6571.31
718.707	6572.06
719.109	6429.57
719.512	6370.05
719.915	6185.36
720.317	6093.77
720.719	6121.09
721.122	6062.74
721.524	5983.12
721.926	5916.27
722.328	6011.13
722.731	5982.12
723.133	5994.44
723.535	6192.64
723.937	6193.8
724.338	6233.74
724.74	6264.72
725.142	6192.69
725.544	6176.32
725.945	6196.88
726.347	6177.65
726.748	6153.08
727.15	6154.8
727.551	6102.6
727.952	6059.06
728.354	6016.03
728.755	6006.61
729.156	5945.42
729.557	5906.13
729.958	5765.83
730.359	5691.76
730.76	5661.92
731.161	5590.55
731.562	5551.89
731.962	5544.31
732.363	5467.2
732.763	5394.63
733.164	5423.74
733.564	5346.82
733.965	5240.26
734.365	5196.51
734.766	5220.64
735.166	5171.7
735.566	5108.08
735.966	5077.07
736.366	5066.51
736.766	4996.81
737.166	5024.89
737.566	4976.54
737.966	4947.65
738.365	4985.07
738.765	4976.51
739.165	4894.53
739.564	4866.65
739.964	4910.16
740.363	4858.84
740.763	4851.47
741.162	4835.68
741.561	4797.92
741.96	4748.49
742.36	4764.89
742.759	4768.4
743.158	4803.26
743.557	4818.15
743.955	4855.2
744.354	4805.88
744.753	4860.55
745.152	4819.13
745.55	4874.37
745.949	4864.15
746.348	4863.08
746.746	4877.95
747.144	4836.09
747.543	4812.62
747.941	4859.51
748.339	4788.77
748.737	4781.73
749.136	4774.8
749.534	4839.91
749.932	4810.29
750.33	4834.57
750.727	4891.52
751.125	4866.6
751.523	4846.79
751.921	4892.49
752.318	4857.21
752.716	4915.47
753.113	4927.48
753.511	4949.72
753.908	4946.57
754.305	4928.07
754.703	4990.15
755.1	5051.36
755.497	5111.83
755.894	5305.63
756.291	5483.84
756.688	5821.5
757.085	6269.59
757.482	6898.79
757.878	7588.06
758.275	8216.05
758.672	9071.11
759.068	9768.37
759.465	10763.61
759.861	12051.62
760.258	13540.07
760.654	14310.4
761.05	14190.24
761.447	13536.41
761.843	12601.99
762.239	11637.27
762.635	11194.14
763.031	10776.49
763.427	10171.51
763.822	9537.31
764.218	8905.08
764.614	8092.64
765.01	7550.2
765.405	7199.74
765.801	6936.43
766.196	6596.07
766.592	6405.52
766.987	6086.78
767.382	5868.21
767.778	5780.64
768.173	5650.78
768.568	5579.96
768.963	5451.42
769.358	5469.76
769.753	5418.83
770.148	5330.14
770.542	5328.2
770.937	5295.45
771.332	5386.22
771.726	5408.2
772.121	5343.79
772.515	5396.05
772.91	5377.66
773.304	5448.39
773.699	5384.58
774.093	5439.4
774.487	5495.02
774.881	5538.19
775.275	5534.6
775.669	5491.14
776.063	5532.8
776.457	5565.7
776.851	5490.77
777.245	5483.21
777.638	5518.23
778.032	5632.05
778.425	5598.87
778.819	5644.49
779.212	5602.41
779.606	5558.69
779.999	5580.83
780.392	5565.49
780.786	5648.93
781.179	5668.62
781.572	5713.38
781.965	5727.63
782.358	5668.13
782.751	5722.9
783.143	5673.16
783.536	5750.3
783.929	5795.56
784.322	5914.22
784.714	5947.92
785.107	5947.98
785.499	6025.63
785.891	6004.45
786.284	5982.61
786.676	6129.36
787.068	6109.94
787.46	6163.82
787.852	6180.85
788.245	6271.45
788.636	6301.55
789.028	6370.42
789.42	6414.3
789.812	6424.37
790.204	6523.66
790.595	6630.38
790.987	6431.84
791.378	6458.02
791.77	6591.91
792.161	6732.72
792.553	6791.27
792.944	6672.62
793.335	6603.11
793.726	6678.8
794.117	6770.29
794.508	6911.47
794.899	6882.36
795.29	7026.81
795.681	7088.71
796.072	6945.91
796.463	6768.37
796.853	6781.29
797.244	6946.21
797.634	6984.08
798.025	6982.09
798.415	6993.03
798.806	7084.86
799.196	7170.99
799.586	7227.4
799.976	7190.35
800.366	7425.65
800.756	7662.97
801.146	7620.98
801.536	7654.36
801.926	7731.23
802.316	7757.83
802.706	7836.27
803.095	7714.99
803.485	7822.94
803.874	7864.55
804.264	8132.27
804.653	8111.08
805.043	8264.29
805.432	8380.09
805.821	8384.28
806.21	8407.15
806.599	8531.07
806.988	8575.24
807.377	8683.14
807.766	8817.28
808.155	9104.11
808.544	8832.76
808.933	8847.4
809.321	8824.48
809.71	9132.67
810.098	9296.95
810.487	9768.74
810.875	10266.02
811.264	10294.89
811.652	10604.71
812.04	10761.78
812.428	10938.96
812.816	11726.96
813.204	12158.8
813.592	12731.11
813.98	13081.03
814.368	12990.28
814.756	13494.95
815.144	13416.76
815.531	13902.61
815.919	13824.12
816.306	14144.62
816.694	13821.42
817.081	13885.33
817.469	14246.35
817.856	14247.08
818.243	14522.1
818.63	14934.15
819.017	14498.78
819.404	14564.3
819.791	14961.17
820.178	15595.7
820.565	15850.75
820.952	16830.48
821.339	16325.86
821.725	16520.64
822.112	15753.59
822.498	15709.66
822.885	15844.84
823.271	15749.93
823.657	16179.9
824.044	16184.66
824.43	16262.79
824.816	16238.7
825.202	15779.26
825.588	16830.43
825.974	16851.47
826.36	17394.17
826.746	17433.12
827.132	17796.17
827.517	17770.45
827.903	16961.61
828.289	17008
828.674	16196.37
829.06	16069.66
829.445	16477.69
829.83	16835.48
830.216	17317.36
830.601	17684.03
830.986	17257.16
831.371	17118.92
831.756	17695.23
832.141	17239.01
832.526	17220.54
832.911	17513.75
833.295	17397.46
833.68	17874.02
834.065	17232.87
834.449	16287.94
834.834	16212.39
835.218	16201.84
835.603	16550.52
835.987	16320.38
836.371	17180.37
836.755	17080.75
837.139	17484.18
837.524	17727.4
837.908	17541.54
838.291	17604.86
838.675	17673.67
839.059	17877.81
839.443	17866.51
839.827	17621.32
840.21	18113.57
840.594	17965.14
840.977	18163.89
841.361	18142.84
841.744	18521.57
842.127	18361.49
842.511	18607.6
842.894	19214.29
843.277	19592.46
843.66	20138.7
844.043	20230.16
844.426	19407.66
844.809	19074.51
845.191	19099.68
845.574	18619.17
845.957	18251.56
846.339	18141.88
846.722	17595.69
847.104	17665.56
847.487	17493.52
847.869	17506.57
848.252	17776.88
848.634	18107.82
849.016	18387.06
849.398	18522.22
849.78	19398.41
850.162	19388.05
850.544	19813.92
850.926	20458.83
851.307	20369.74
851.689	20657.18
852.071	21112.35
852.452	21442.25
852.834	21418.94
853.215	21818.06
853.597	21969.79
853.978	22268.69
854.359	22753.62
854.741	21725.94
855.122	21635.56
855.503	21336.01
855.884	21476.68
856.265	21421.47
856.646	21536.16
857.026	21141.2
857.407	21081.58
857.788	21243.76
858.169	21538.5
858.549	20667.75
858.93	21307.98
859.31	21357.01
859.69	21569.59
860.071	21150.24
860.451	20936.52
860.831	20182.13
861.211	21357.97
861.591	21909.58
861.971	21885.33
862.351	22084.97
862.731	22483.57
863.111	22760.64
863.491	23107.33
863.87	24010.68
864.25	24370.52
864.629	23961.89
865.009	24492.38
865.388	25361.02
865.768	27187.74
866.147	27095.42
866.526	25596.15
866.905	25908.18
867.284	27355.77
867.663	25957.24
868.042	24876.36
868.421	24804.62
868.8	25211.93
869.179	25469.06
869.558	24005.96
869.936	22116.53
870.315	22501.79
870.693	23051.77
871.072	24850.61
871.45	23676.87
871.828	23999.78
872.207	25239.08
872.585	24863.08
872.963	25548.18
873.341	24668.61
873.719	24376.03
874.097	24091.98
874.475	24556.13
874.853	25125.03
875.23	24084.95
875.608	25091.83
875.986	27124.05
876.363	25940.33
876.741	26724.63
877.118	26064.47
877.495	27349.84
877.873	27797.8
878.25	29253.79
878.627	28045.74
879.004	28427.36
879.381	28283.58
879.758	27552.9
880.135	25652.91
880.512	27123.85
880.889	26404.44
881.265	26134.67
881.642	25907.31
882.019	26333.6
882.395	25794.87
882.772	26817.99
883.148	25648.53
883.524	25552.46
883.901	25402.61
884.277	25771.41
884.653	25598.01
885.029	26336.03
885.405	29146.34
885.781	28915.74
886.157	27727.62
886.532	28068.25
886.908	28047.5
887.284	31190.41
887.659	32188.89
888.035	33166.79
888.411	34025.4
888.786	34475.32
889.161	35655.41
889.537	35000.82
889.912	36107.65
890.287	36057.38
890.662	36953.93
891.037	36276.22
891.412	33810.88
891.787	33464.21
892.162	32300.8
892.536	33039.4
892.911	31788.27
893.286	31112.29
893.66	29836.02
894.035	30590.6
894.409	33297.68
894.784	31959.32
895.158	32490.98
895.532	34405.55
895.906	35341.38
896.281	36165.69
896.655	35602.56
897.029	40680.9
897.402	42355.86
897.776	47156.41
898.15	47003.96
898.524	46521.33
898.898	47146.63
899.271	52797.94
899.645	45746.08
900.018	43971.34
900.392	45598.42
900.765	45955.16
901.138	42533.91
901.511	41896.97
901.884	38476.03
902.258	35499.71
902.631	36695.62
903.003	42251.72
903.376	38115.38
903.749	42753.83
904.122	45745.49
904.495	50369.82
904.867	51014.54
905.24	44282.49
905.612	41242.62
905.985	42175.43
906.357	44103.98
906.729	42102.06
907.102	35964.81
907.474	34588.98
907.846	34796.86
908.218	34332.23
908.59	30348.56
908.962	29354.66
909.334	31627.52
909.705	33222.11
910.077	32268.29
910.449	33571.08
910.82	34504.1
911.192	37963.06
911.563	39461.45
911.935	42251.43
912.306	42328.67
912.677	43720.68
913.048	43308.47
913.419	47010.59
913.79	47283.38
914.161	50689.42
914.532	48491.08
914.903	44572.78
915.274	42353.34
915.645	41754.64
916.015	36751.2
916.386	35035.62
916.756	37294.47
917.127	38478.4
917.497	34348.34
917.868	37387.11
918.238	35519.85
918.608	36550.22
918.978	37325.38
919.348	39506.87
919.718	40817.81
920.088	39305.01
920.458	40857.91
920.828	42987.17
921.198	40763
921.567	43570.99
921.937	33754.64
922.306	34116.24
922.676	36777.97
923.045	30684.55
923.415	29172.49
923.784	26571.5
924.153	27341.53
924.522	27321.38
924.891	25697.57
925.26	27509.62
925.629	26867.65
925.998	30897.31
926.367	30143.12
926.736	28726.45
927.104	34215.61
927.473	36769.57
927.842	44386.91
928.21	43965.84
928.578	46233.1
928.947	43724.39
929.315	44053.67
929.683	51670.1
930.051	52058.32
930.42	60477.94
930.788	51679.07
931.156	51299.93
931.523	48094.76
931.891	44465.72
932.259	42689.95
932.627	49444.05
932.994	69978.71
933.362	57798.68
933.729	50190.26
934.097	48041.82
934.464	40656.57
934.831	46906.21
935.199	46235.88
935.566	44874.04
935.933	45432.9
936.3	55057.69
936.667	42911.94
937.034	38739.9
937.401	38335.85
937.767	33107.72
938.134	29511.75
938.501	41639.78
938.867	44423.8
939.234	75081.71
939.6	64091.01
939.967	70723.08
940.333	47389.08
940.699	40329.36
941.065	32328.66
941.431	42397.11
941.798	40896.91
942.163	53685.95
942.529	33535.21
942.895	30879.6
943.261	20010.68
943.627	26261.48
943.992	22994.34
944.358	23029.26
944.723	23129.58
945.089	22532.36
945.454	20821.5
945.82	22227.93
946.185	21356.28
946.55	24769.7
946.915	22221.02
947.28	26030.57
947.645	22883.05
948.01	21128.89
948.375	22037.44
948.74	26434.38
949.104	30855.36
949.469	44521.72
949.834	78739.26
950.198	74650.63
950.562	44748.37
950.927	37245.93
951.291	44821.27
951.655	38203.43
952.02	35837.77
952.384	27090.31
952.748	23583.48
953.112	22999.15
953.476	19999.42
953.839	18480.5
954.203	18316.39
954.567	22892.3
954.931	36064.05
955.294	30881.11
955.658	31061.95
956.021	52849.53
956.385	89611.85
956.748	132114.99
957.111	205038.8
957.474	230128.04
957.837	258845.76
958.2	195377.5
958.563	70227.65
958.926	47506.59
959.289	72084.75
959.652	80489.47
960.015	60462.34
960.377	86762.25
960.74	99042.58
961.102	170838.94
961.465	183639.55
961.827	98537.14
962.189	189217.9
962.552	131226.22
962.914	105160.15
963.276	68185.78
963.638	56370.39
964	55757.94
964.362	37689.73
964.724	36397.54
965.085	25947.54
965.447	21275.68
965.809	24252.82
966.17	24299.71
966.532	26301.15
966.893	24129.3
967.255	21978.59
967.616	25932.61
967.977	20780.17
968.338	22718.38
968.699	18688.36
969.061	18698.15
969.421	18808.67
969.782	21089.14
970.143	17810.59
970.504	18434.75
970.865	20954.17
971.225	21408.44
971.586	20927.77
971.946	29801.3
972.307	25837.53
972.667	33766.93
973.027	34789.47
973.388	42183.88
973.748	28706.02
974.108	31256.84
974.468	42320.04
974.828	32689
975.188	25153.06
975.548	23145.6
975.907	19433.83
976.267	21797.44
976.627	18327.78
976.986	18991.76
977.346	18098.09
977.705	17386.09
978.064	15841.89
978.424	13188.74
978.783	13601.51
979.142	15549
979.501	14869.79
979.86	15732.11
980.219	15172.38
980.578	19531.29
980.937	21875.86
981.296	19501.29
981.654	20090.13
982.013	31209.92
982.371	40515.71
982.73	37846.26
983.088	42759.4
983.447	45684.73
983.805	65296.9
984.163	136434.59
984.521	151550.28
984.879	222123.79
985.237	-361245.02
985.595	348611.29
985.953	86675.93
986.311	49989.27
986.669	29057.85
987.026	25133.82
987.384	33812.28
987.741	34995.69
988.099	25010.17
988.456	19964.51
988.814	18692.22
989.171	16256.27
989.528	16012.23
989.885	16921.28
990.242	13399.24
990.599	16690.29
990.956	13631.79
991.313	9539.46
991.67	7828.25
992.027	8311.06
992.383	7376.51
992.74	6459.43
993.096	6781.26
993.453	7028.72
993.809	7280.68
994.165	9700.21
994.522	8901.84
994.878	9810.05
995.234	12310.36
995.59	12116.03
995.946	11445.94
996.302	13071.82
996.658	15142.59
997.013	16682.7
997.369	19805.68
997.725	25419.33
998.08	16468.84
998.436	25334.76
998.791	34995.07
999.147	34910.07
999.502	38151.3
999.857	27745.55
1000.212	45230.91
1000.567	64452.59
1000.922	37194.34
1001.277	23614.96
1001.632	17489.65
1001.987	22550.78
1002.342	16171.96
1002.696	12925.84
1003.051	10314.18
1003.406	12523.58
1003.76	12461.35
1004.114	12279.99
1004.469	10335.74
1004.823	8549.29
1005.177	9241.92
1005.531	7319.96
1005.885	6496.71
1006.239	7365.77
1006.593	9258.93
1006.947	12408.08
1007.301	9296.07
1007.655	10135.02
1008.008	7441.84
1008.362	8352.85
1008.715	11920.75
1009.069	10806.57
1009.422	16303.89
1009.776	32746.99
1010.129	21646.45
1010.482	18046.7
1010.835	15238.23
1011.188	31715.96
1011.541	29853.44
1011.894	-182619.11
1012.247	537567.16
1012.6	36570.5
1012.952	23077.02
1013.305	11913.24
1013.657	8584.67
1014.01	8156.17
1014.362	6745.04
1014.715	6025.05
1015.067	5241.22
1015.419	5116.9
1015.771	4536.47
1016.123	4034.44
1016.475	4155.59
1016.827	4432.19
1017.179	4779.23
1017.531	4817.3
1017.883	4917.21
1018.234	4759.05
1018.586	6025.85
1018.938	6438.66
1019.289	8915.03
1019.64	10178.72
1019.992	9496.85
1020.343	8690.11
1020.694	6907.81
1021.045	6067.83
1021.396	6916.2
1021.747	7421.77
1022.098	8876.84
1022.449	6403.98
1022.8	5912.05
1023.151	4121.81
1023.501	3673.99
1023.852	3997.31
1024.202	4176.33
1024.553	4562.24
1024.903	4469.89
1025.253	3842.27
1025.604	3456.87
1025.954	4301.61
1026.304	5251.17
1026.654	6142.34
1027.004	9027
1027.354	14572.02
1027.703	13723.91
1028.053	17914.27
1028.403	26256.15
1028.753	38064.48
1029.102	51701.66
1029.452	265724.52
1029.801	11442.95
1030.15	7369.22
1030.499	6203.89
897.758	3285
901.051	3265.08
904.343	3304.7
907.636	3296.83
910.928	3367.65
914.22	3266.86
917.511	3276.58
920.803	3365.34
924.094	3413.86
927.384	3364.22
930.675	3325.83
933.965	3265.82
937.255	3261.01
940.544	3225.23
943.834	3078.03
947.123	3034.76
950.411	3142.47
953.7	3105.95
956.988	3051.22
960.276	2995.1
963.563	3118.48
966.851	3100.26
970.138	3176.4
973.424	3154.6
976.711	3100.91
979.997	3355.33
983.283	3371.58
986.568	3240.32
989.853	3287.26
993.138	3319.37
996.423	3404.21
999.708	3314.04
1002.992	3431.24
1006.275	3160.21
1009.559	3266.66
1012.842	3406.89
1016.125	3310.37
1019.408	3289.8
1022.69	3416.89
1025.972	3421.73
1029.254	3389.4
1032.536	3280.62
1035.817	3326.24
1039.098	3227.23
1042.379	3498.89
1045.659	3445.75
1048.939	3357.35
1052.219	3400.84
1055.498	3427.23
1058.778	3399.51
1062.057	3388.14
1065.335	3406.45
1068.614	3438.81
1071.892	3406.43
1075.17	3508.85
1078.447	3481.33
1081.724	3469.45
1085.001	3521.77
1088.278	3484.99
1091.554	3508.29
1094.83	3503.17
1098.106	3530.66
1101.382	3594.56
1104.657	3594.14
1107.932	3590.95
1111.206	3534.41
1114.481	3493.59
1117.755	3502.56
1121.029	3464.94
1124.302	3517.96
1127.575	3446.7
1130.848	3424.4
1134.121	3371.22
1137.393	3304.02
1140.665	3386.79
1143.937	3362.58
1147.208	3269.03
1150.48	3294.73
1153.75	3277.95
1157.021	3347
1160.291	3296.3
1163.561	3339.86
1166.831	3359.77
1170.101	3398.39
1173.37	3385.44
1176.639	3306.85
1179.907	3383.05
1183.176	3437.77
1186.444	3444.32
1189.711	3475.19
1192.979	3477.6
1196.246	3441.37
1199.513	3460.71
1202.78	3457.68
1206.046	3462.89
1209.312	3495.54
1212.578	3531.54
1215.843	3459.45
1219.108	3439.88
1222.373	3465.7
1225.638	3412.45
1228.902	3387.88
1232.166	3354.29
1235.43	3331.66
1238.693	3345.85
1241.956	3348.98
1245.219	3386.38
1248.482	3389.45
1251.744	3378.13
1255.006	3567.18
1258.268	3528.43
1261.529	3456.75
1264.79	3470.54
1268.051	3597.71
1271.312	3617.49
1274.572	3570.62
1277.832	3565.11
1281.092	3561.06
1284.351	3508.04
1287.61	3480.62
1290.869	3363.41
1294.128	3311.83
1297.386	3451.71
1300.644	3438.5
1303.902	3448.83
1307.159	3290.26
1310.416	3353.18
1313.673	3369.93
1316.93	3341.91
1320.186	3413.45
1323.442	3470.94
1326.697	3447.44
1329.953	3460.16
1333.208	3469.75
1336.463	3452.55
1339.717	3376.63
1342.972	3472.03
1346.226	3476.6
1349.479	3386.18
1352.733	3340.27
1355.986	3381.66
1359.238	3348.54
1362.491	3347.36
1365.743	3353.02
1368.995	3357.66
1372.247	3372.48
1375.498	3388.38
1378.749	3454.82
1382	3390.46
1385.251	3470.52
1388.501	3437.11
1391.751	3407.37
1395	3385.24
1398.25	3428.35
1401.499	3421.92
1404.748	3332.97
1407.996	3244.62
1411.244	3240.43
1414.492	3214.33
1417.74	3187.25
1420.987	3205.2
1424.234	3261.09
1427.481	3257.16
1430.728	3316.68
1433.974	3289.47
1437.22	3321.23
1440.465	3324.99
1443.711	3330.22
1446.956	3365.49
1450.201	3371.24
1453.445	3420.33
1456.689	3385.62
1459.933	3405.86
1463.177	3435.62
1466.42	3403.43
1469.663	3382.8
1472.906	3352.53
1476.148	3497.23
1479.391	3373.22
1482.633	3360.86
1485.874	3361.67
1489.115	3324.36
1492.356	3352.45
1495.597	3320.63
1498.838	3335.43
1502.078	3281.72
1505.318	3200.01
1508.557	3255.9
1511.797	3168.17
1515.036	3352.01
1518.274	3331.98
1521.513	3314
1524.751	3348.29
1527.989	3352.13
1531.227	3358.01
1534.464	3326.87
1537.701	3380.94
1540.938	3410.74
1544.174	3367.98
1547.41	3380.74
1550.646	3417.25
1553.882	3442.61
1557.117	3496.69
1560.352	3522.35
1563.587	3471.81
1566.821	3419.13
1570.055	3479
1573.289	3437.42
1576.523	3537.09
1579.756	3534.89
1582.989	3553.18
1586.222	3509.71
1589.454	3559.84
1592.686	3523.42
1595.918	3545.14
1599.15	3523.42
1602.381	3636.26
1605.612	3560.62
1608.843	3666.07
1612.073	3562.51
1615.303	3540.99
1618.533	3518.58
1621.762	3533.79
1624.992	3530.53
1628.221	3496.8
1631.449	3482.94
1634.678	3573.08
1637.906	3512.65
1641.134	3567.89
1644.361	3511.97
1647.588	3495.36
1650.815	3505.05
1654.042	3498.54
1657.269	3536.84
1660.495	3488.06
1663.72	3423.95
1666.946	3409.65
1670.171	3310.35
1673.396	3289.82
1676.621	3285.92
1679.845	3333.5
1683.069	3376.92
1686.293	3439.4
1689.517	3389.82
1692.74	3280.64
1695.963	3299.64
1699.185	3405.79
1702.408	3352.19
1705.63	3411.49
1708.852	3414.99
1712.073	3387.44
1715.294	3351.43
1718.515	3374.28
1721.736	3318.54
1724.956	3277.34
1728.176	3312.98
1731.396	3331.14
1734.616	3329.84
1737.835	3336.69
1741.054	3330.33
1744.272	3325.19
1747.491	3338.7
1750.709	3429.14
1753.927	3329.49
1757.144	3386.66
1760.361	3463.54
1763.578	3474.27
1766.795	3402.67
1770.011	3419.46
1773.227	3486.36
1776.443	3514.81
1779.658	3564.04
1782.874	3505.23
1786.089	3467.03
1789.303	3470.68
1792.518	3485.16
1795.732	3472.3
1798.945	3474.97
1802.159	3537.01
1805.372	3395.86
1808.585	3363.52
1811.797	3368.68
1815.01	3449.48
1818.222	3455.81
1821.434	3321.6
1824.645	3437.87
1827.856	3394.3
1831.067	3444.32
1834.278	3361.24
1837.488	3353.49
1840.698	3542.33
1843.908	3438.63
1847.117	3396.39
1850.326	3219.33
1853.535	3361.86
1856.744	3499.27
1859.952	3368.44
1863.16	3365.09
1866.368	3390.71
1869.575	3555.99
1872.782	3424.69
1875.989	3363.77
1879.196	3496.25
1882.402	3491.92
1885.608	3542.4
1888.814	3398.51
1892.019	3265.9
1895.224	3318.22
1898.429	3316.17
1901.634	3283.01
1904.838	3263.77
1908.042	3309.2
1911.246	3309.66
1914.449	3197.45
1917.652	3208.36
1920.855	3196.08
1924.058	3274.3
1927.26	3303.82
1930.462	3341.39
1933.664	3354.52
1936.865	3285.74
1940.066	3279.1
1943.267	3225.76
1946.467	3253.29
1949.668	3292.24
1952.868	3362.13
1956.067	3318.32
1959.267	3236.62
1962.466	3270.7
1965.665	3257.14
1968.863	3254.12
1972.061	3287.5
1975.259	3292.7
1978.457	3384.31
1981.654	3330.5
1984.852	3329.91
1988.048	3233.88
1991.245	3257.23
1994.441	3346.17
1997.637	3361
2000.833	3345.21
2004.028	3391.71
2007.223	3433.77
2010.418	3400.93
2013.613	3365.57
2016.807	3307.18
2020.001	3331.03
2023.194	3407.05
2026.388	3367.37
2029.581	3315.25
2032.774	3347.78
2035.966	3343.47
2039.158	3254.85
2042.35	3295.61
2045.542	3215.43
2048.733	3352.46
2051.924	3411.07
2055.115	3455.69
2058.306	3365.35
2061.496	3437.31
2064.686	3519.59
2067.875	3439.87
2071.065	3472.02
2074.254	3507.09
2077.442	3454.54
2080.631	3561.61
2083.819	3391.9
2087.007	3359.77
2090.195	3311.28
2093.382	3371.86
2096.569	3345.46
2099.756	3281.32
2102.942	3281.7
2106.128	3273.7
2109.314	3273.6
2112.5	3206.44
2115.685	3188.43
2118.87	3204.27
2122.055	3280.1
2125.239	3226.95
2128.424	3181.05
2131.608	3344.27
2134.791	3325
2137.974	3412.87
2141.157	3390.34
2144.34	3315
2147.523	3333.02
2150.705	3329.46
2153.887	3325.36
2157.068	3243.19
2160.25	3272.52
2163.431	3332.48
2166.611	3243.79
2169.792	3257.98
2172.972	3123.59
2176.152	3242.13
2179.331	3289.36
2182.511	3270.64
2185.69	3308.52
2188.868	3291.86
2192.047	3377.04
2195.225	3335.99
2198.403	3281.04
2201.58	3284.69
2204.758	3285.39
2207.935	3386.03
2211.111	3233.24
2214.288	3209.96
2217.464	3262.94
2220.64	3247.93
2223.815	3314.26
2226.991	3219.25
2230.166	3243.46
2233.34	3259.63
2236.515	3293.01
2239.689	3385.76
2242.863	3315.97
2246.036	3384.11
2249.209	3406.71
2252.382	3457.55
2255.555	3424.19
2258.727	3338.78
2261.9	3389.85
2265.071	3381.67
2268.243	3392.69
2271.414	3304.89
2274.585	3233.9
2277.756	3315.47
2280.926	3264.25
2284.096	3321.38
2287.266	3196.47
2290.436	3267.24
2293.605	3309.65
2296.774	3330.9
2299.942	3374.09
2303.111	3389.72
2306.279	3436.25
2309.447	3425.68
2312.614	3401.74
2315.781	3420.89
2318.948	3372.9
2322.115	3416.62
2325.281	3313.73
2328.447	3350.78
2331.613	3329.27
2334.779	3276.75
2337.944	3291.92
2341.109	3281.57
2344.274	3257.07
2347.438	3218.12
2350.602	3251.56
2353.766	3273.85
2356.929	3255.27
2360.092	3301.51
2363.255	3227.06
2366.418	3117.91
2369.58	3294.89
2372.742	2961.51
2375.904	3001.43
2379.066	2961.83
2382.227	3011.87
2385.388	2967.74
2388.548	2866.95
2391.709	2943.05
2394.869	2912.44
2398.029	3068.44
2401.188	3103.97
2404.347	2999.93
2407.506	3224.56
2410.665	3249.13
2413.823	3277.26
2416.981	3204.32
2420.139	3257.59
2423.296	3322.19
2426.453	3293.11
2429.61	3320.42
2432.767	3209.65
2435.923	3266.64
2439.079	3137.83
2442.235	3230.07
2445.391	3131.48
2448.546	3140.76
2451.701	3215.22
2454.855	3152.73
2458.009	3235.28
2461.163	3254.35
2464.317	3194.78
2467.471	3238.56
2470.624	3275.68
2473.777	3330.34
2476.929	3321.2
2480.082	3350.45
2483.234	3318.76
2486.385	3185.5
2489.537	3187.28
2492.688	3113.25
2495.839	3131.21
2498.989	3135.67
2502.14	3114.8
2505.29	3081.51
2508.439	3118.56
2511.589	3016.14
2514.738	3044.1
2517.887	3071.64
2521.035	3232.39
2524.183	3227.87
2527.331	3194.34
2530.479	3145.24
2533.627	3167.49
