Data from N_3_HIR_IL_4N_Splice17_13-40-26-908.txt Node
Date: Sat Mar 14 13:40:26 EDT 2020
User: sa697716
Spectrometer: FLMS03696
Trigger mode: 0
Integration Time (sec): 3.180400E-1
Scans to average: 20
Electric dark correction enabled: true
Nonlinearity correction enabled: true
Boxcar width: 5
XAxis mode: Wavelengths
Number of Pixels in Spectrum: 2048
>>>>>Begin Spectral Data<<<<<
187.83	-478482.12
188.298	3378.46
188.766	1794.78
189.233	1619.66
189.701	2266.33
190.169	3039.37
190.636	1098.64
191.104	904.8
191.571	122.83
192.039	-139.69
192.506	-202.47
192.974	574.07
193.441	-978.55
193.908	-444.83
194.375	-145.35
194.842	-30.44
195.31	7.51
195.777	145.69
196.244	436.61
196.711	502.58
197.177	631.97
197.644	890.12
198.111	1598.69
198.578	2226.38
199.045	1821.2
199.511	2954.69
199.978	3408.75
200.445	2921
200.911	3225.13
201.378	3613.81
201.844	3269.83
202.31	5617.68
202.777	5857.23
203.243	3234.3
203.709	3089.78
204.176	3666.39
204.642	3033.38
205.108	2834.77
205.574	2295.58
206.04	2070.23
206.506	1913.69
206.972	1806.2
207.438	1726.71
207.903	1969.18
208.369	1731.11
208.835	1727.02
209.301	1809.6
209.766	1851.53
210.232	1832.05
210.697	2265.99
211.163	2802.24
211.628	4249.45
212.094	3566.65
212.559	4423.68
213.024	2759.34
213.49	3363.47
213.955	3279.88
214.42	3199.69
214.885	2986.44
215.35	2861.64
215.815	2790.17
216.28	2957.71
216.745	2386.56
217.21	2599.5
217.675	2366.92
218.14	2637.11
218.604	2927.79
219.069	3322.08
219.534	3491.8
219.998	4030.71
220.463	4870.13
220.927	5933.93
221.392	5588.6
221.856	5676.32
222.32	7104.21
222.785	8761.85
223.249	11039.65
223.713	12307.44
224.177	12327.96
224.642	15724.44
225.106	19333.91
225.57	21134.49
226.034	15746.34
226.497	23914.96
226.961	21601.76
227.425	25164.88
227.889	27952.91
228.353	27981.73
228.816	57870.93
229.28	55384.23
229.744	46796.28
230.207	28495.17
230.671	27978.99
231.134	46205.39
231.597	53420.54
232.061	53350.37
232.524	52010.56
232.987	35791.57
233.45	32174.96
233.914	28839.74
234.377	29527.51
234.84	27010.58
235.303	31815.36
235.766	35562.02
236.229	36744.4
236.691	23093.43
237.154	25930.34
237.617	19510.99
238.08	19993.16
238.542	23384
239.005	16732
239.468	16599.63
239.93	15644.33
240.393	14210.54
240.855	12458.87
241.317	12735.85
241.78	15512.35
242.242	16034.45
242.704	17320.68
243.166	15073.04
243.629	13707.95
244.091	15786.89
244.553	17300.88
245.015	18597.02
245.477	24051.48
245.939	35317.02
246.4	37545.09
246.862	36466.41
247.324	34426.55
247.786	38545.66
248.247	50540.33
248.709	52167.11
249.17	39039.76
249.632	36863.91
250.093	42816.27
250.555	37023.12
251.016	22564.97
251.477	21413.32
251.939	23140.23
252.4	24304.42
252.861	28899.48
253.322	26902.29
253.783	32034.34
254.244	41579.61
254.705	32779.79
255.166	29136.91
255.627	28690.78
256.088	40521.93
256.549	43051.57
257.009	37081.38
257.47	44952.82
257.931	36593.29
258.391	27427.09
258.852	28294.07
259.312	29618.91
259.773	36570.66
260.233	30942.94
260.694	26131.67
261.154	29636.64
261.614	23844.47
262.074	21318.63
262.534	22176.92
262.994	20935.87
263.455	27909.26
263.915	23500.73
264.374	22162.31
264.834	24222.91
265.294	26862.04
265.754	27842.87
266.214	26365.03
266.673	24714.67
267.133	31198.09
267.593	30940.05
268.052	37876.17
268.512	32952.61
268.971	39846.83
269.431	43695.6
269.89	39131.42
270.349	58675.18
270.809	65437.64
271.268	58839.36
271.727	131807.66
272.186	85336.78
272.645	64030.23
273.104	46151.76
273.563	66793.32
274.022	52451.39
274.481	44663.46
274.94	34405.08
275.399	25554.7
275.857	29734.32
276.316	40235.32
276.775	35813.5
277.233	35326.74
277.692	33086.01
278.15	37487.33
278.609	38574.59
279.067	35691.99
279.525	33149.13
279.984	42793.33
280.442	51414.25
280.9	50720.6
281.358	33353.46
281.816	31100.15
282.274	30412.91
282.732	31398.44
283.19	31485.97
283.648	27192.4
284.106	28964.02
284.564	29442.55
285.021	27305.85
285.479	20339.8
285.937	18482.87
286.394	16219
286.852	16674.72
287.309	17511.74
287.767	16942.66
288.224	16128.2
288.682	17680.7
289.139	19400.4
289.596	17751.18
290.053	18452.29
290.511	23272.76
290.968	28234.65
291.425	38285.39
291.882	31868.69
292.339	27756.14
292.796	27499.25
293.252	25901.06
293.709	20575.24
294.166	18433.35
294.623	20367.43
295.079	19524.48
295.536	19625.54
295.992	17808.09
296.449	17613.58
296.905	18302.43
297.362	17550.86
297.818	18447.79
298.274	19122.37
298.731	19442.94
299.187	19211.29
299.643	20602.23
300.099	24900.41
300.555	27289.5
301.011	22790.8
301.467	21958.6
301.923	25655.74
302.379	25043.23
302.835	24566.61
303.291	24596.84
303.746	28017.08
304.202	35381.13
304.658	35498.9
305.113	23830.44
305.569	23337.32
306.024	24846.14
306.479	23623.67
306.935	19916.91
307.39	21698.11
307.845	20061.96
308.301	20189.1
308.756	19619.74
309.211	18899.09
309.666	19356.34
310.121	24064.59
310.576	24414.91
311.031	24214.46
311.486	27715.02
311.94	27644.35
312.395	37007.74
312.85	69381.19
313.305	339688.74
313.759	1762166.81
314.214	127741.57
314.668	101246.69
315.123	85098.3
315.577	30486.53
316.032	27122.13
316.486	33952.4
316.94	26838.04
317.394	18670.11
317.849	14483.44
318.303	13727.43
318.757	12950.37
319.211	14296
319.665	12488.81
320.119	12636.38
320.572	18107.31
321.026	16894.77
321.48	14070.23
321.934	15313.33
322.387	15324.4
322.841	16586.12
323.295	14922.45
323.748	17165.89
324.202	17398.46
324.655	20945.5
325.108	29272.8
325.562	20668.85
326.015	24529.78
326.468	18532.16
326.921	20693.84
327.374	19311.18
327.827	20114.87
328.28	22746.17
328.733	15244.35
329.186	13407.79
329.639	12740.19
330.092	10720.16
330.545	10211.81
330.997	10308.63
331.45	11270.76
331.903	13211.67
332.355	22717.29
332.808	22042.82
333.26	18152.9
333.713	19714.66
334.165	19846.53
334.617	26474.04
335.069	21350.22
335.522	38562.57
335.974	42659.34
336.426	38867.23
336.878	26880.2
337.33	13616.01
337.782	13273.81
338.234	16635.12
338.686	19856.8
339.137	23500.27
339.589	22156.8
340.041	17398.44
340.493	14951.73
340.944	15286.39
341.396	16447.86
341.847	13866.48
342.299	16368.8
342.75	20016.66
343.201	17453.19
343.653	20057.5
344.104	24625.03
344.555	19339.9
345.006	29981.66
345.457	22991.55
345.908	18290.84
346.359	17212.12
346.81	13992.69
347.261	14738.86
347.712	14493.8
348.163	15536.09
348.613	15740.96
349.064	14694.58
349.515	12858.59
349.965	13214.13
350.416	15865.63
350.866	17361.23
351.317	19580.77
351.767	32429.36
352.217	40907.18
352.668	33901.3
353.118	31100.6
353.568	29922.71
354.018	23699.2
354.468	25022.77
354.918	17963.87
355.368	15749.9
355.818	22304.41
356.268	64299.01
356.718	268998.64
357.168	66993.32
357.617	33545.74
358.067	37238.37
358.517	34826.83
358.966	40775.22
359.416	45733.65
359.865	49345
360.315	58518.51
360.764	27303.68
361.213	15317.5
361.663	14498.78
362.112	17855.18
362.561	28891.92
363.01	21771.03
363.459	18365.39
363.908	19839.18
364.357	16860.19
364.806	28428.7
365.255	19544.65
365.703	17886.18
366.152	17878.67
366.601	14490.38
367.05	11799.99
367.498	10734.64
367.947	11209.12
368.395	11635.8
368.844	10313.85
369.292	12364.04
369.74	8554.99
370.189	13086.01
370.637	15327.08
371.085	13195.76
371.533	16039.18
371.981	15401.56
372.429	14655.12
372.877	15221.21
373.325	12759.96
373.773	13003.6
374.221	11590.55
374.669	14335.15
375.116	12390.1
375.564	12459.27
376.012	13911.11
376.459	11463.18
376.907	13680.69
377.354	16460.56
377.801	15390.61
378.249	17651.63
378.696	22491.86
379.143	27203.51
379.591	28957.44
380.038	48879.14
380.485	35403.65
380.932	38268.57
381.379	35131.5
381.826	25857.73
382.273	18434.73
382.72	16111.84
383.166	15716.03
383.613	10203.15
384.06	9193.6
384.506	10628.35
384.953	7820.63
385.4	7834.8
385.846	6845.55
386.292	6645.57
386.739	6486.82
387.185	6389.35
387.631	6375.82
388.078	6178.26
388.524	6598.53
388.97	6080.66
389.416	5081.23
389.862	5397.37
390.308	5111.3
390.754	5192.27
391.2	5624.62
391.645	5758.49
392.091	5537.67
392.537	5344.82
392.983	5344.71
393.428	5273.12
393.874	5657.95
394.319	5692.35
394.765	5409.91
395.21	5568.16
395.655	5221.77
396.101	4894.6
396.546	4424.78
396.991	4450.02
397.436	4145.19
397.881	4013.93
398.326	3790.29
398.771	3589.14
399.216	3123.91
399.661	2803.25
400.106	2802.28
400.551	2874.26
400.995	2581.16
401.44	2552.03
401.885	2398.07
402.329	2427.74
402.774	2334.98
403.218	2274.21
403.663	2194.12
404.107	2266.92
404.551	2297.57
404.995	2104.71
405.44	2031.02
405.884	2063.49
406.328	2002.4
406.772	2002.45
407.216	1823.98
407.66	1761.47
408.104	1667.68
408.547	1561.51
408.991	1508.71
409.435	1448.6
409.879	1433.2
410.322	1417.84
410.766	1374.01
411.209	1310.44
411.653	1257.89
412.096	1237.17
412.54	1239.31
412.983	1235.99
413.426	1247.91
413.869	1248.59
414.312	1231.1
414.756	1189.29
415.199	1132.17
415.642	1100.37
416.085	1101.35
416.527	1094.12
416.97	1109.21
417.413	1053.16
417.856	1038.99
418.298	1026.2
418.741	1020.24
419.184	1015.37
419.626	1054.91
420.069	1058.02
420.511	1064.94
420.953	1044.22
421.396	1037.81
421.838	1011.62
422.28	1036.34
422.722	1046.74
423.164	1061.68
423.606	1044.32
424.048	1043.24
424.49	994
424.932	988.76
425.374	974.28
425.816	989.63
426.258	1008.35
426.699	1018.55
427.141	1003.77
427.582	1014.91
428.024	1008.09
428.465	1001.21
428.907	976.02
429.348	961.91
429.789	962.44
430.231	942.8
430.672	954.64
431.113	930.51
431.554	917.63
431.995	890.19
432.436	861.11
432.877	842.76
433.318	830.58
433.759	825.82
434.2	824.44
434.64	814.83
435.081	816.72
435.522	772.94
435.962	744.74
436.403	730.29
436.843	742.41
437.284	723.44
437.724	702.38
438.164	700.75
438.604	683.98
439.045	658.87
439.485	632.98
439.925	618.31
440.365	603.37
440.805	593.3
441.245	585.41
441.685	562.64
442.125	556.76
442.564	558.85
443.004	545.98
443.444	545.2
443.883	546.09
444.323	538.97
444.762	536.52
445.202	542.91
445.641	555.61
446.081	550.14
446.52	555.44
446.959	552.4
447.398	542.48
447.837	537.06
448.276	528.24
448.716	533.51
449.154	538.54
449.593	528.22
450.032	526.41
450.471	514.72
450.91	514.98
451.349	513.97
451.787	510.1
452.226	515.35
452.664	516.06
453.103	516.67
453.541	514.45
453.98	515.52
454.418	517.59
454.856	510.89
455.295	510.49
455.733	514.42
456.171	515.66
456.609	516.13
457.047	514.89
457.485	523.06
457.923	523.23
458.361	515.77
458.798	515.05
459.236	513.32
459.674	514.94
460.111	515.79
460.549	511.11
460.987	507.78
461.424	505.05
461.862	502.38
462.299	492.24
462.736	491.56
463.173	492.69
463.611	490.69
464.048	490.42
464.485	494.23
464.922	489.18
465.359	484.33
465.796	486.34
466.233	484.72
466.67	481.49
467.106	482.34
467.543	477.36
467.98	470.25
468.416	454.86
468.853	449.57
469.29	436.54
469.726	431.91
470.162	421.4
470.599	408.74
471.035	403.38
471.471	393.32
471.907	389.86
472.344	386.4
472.78	389.22
473.216	393.44
473.652	389.57
474.088	387.9
474.523	387.92
474.959	391.34
475.395	388.45
475.831	386.66
476.266	388.08
476.702	386.29
477.138	383.19
477.573	381.91
478.008	381.27
478.444	384.27
478.879	389.46
479.314	391.31
479.75	391.6
480.185	393.53
480.62	397.46
481.055	399.7
481.49	402.99
481.925	408.1
482.36	417.21
482.795	428.53
483.229	439.28
483.664	447.82
484.099	447.71
484.534	453.85
484.968	458.83
485.403	458.97
485.837	458.21
486.271	457.49
486.706	457.82
487.14	450.32
487.574	443.25
488.009	438.4
488.443	433.38
488.877	439.92
489.311	441.91
489.745	446.35
490.179	451.82
490.613	461.98
491.046	465.33
491.48	468.6
491.914	469.11
492.348	472.89
492.781	476.63
493.215	478.31
493.648	478.7
494.082	483.19
494.515	484.3
494.948	490.32
495.382	492.51
495.815	496.29
496.248	501.71
496.681	512.37
497.114	521.45
497.547	530.29
497.98	543.01
498.413	548.99
498.846	557.31
499.279	565.34
499.711	569.38
500.144	572.41
500.577	582.78
501.009	592.23
501.442	602.5
501.874	606.23
502.306	608.82
502.739	617.3
503.171	630.75
503.603	635.37
504.036	645.18
504.468	652.68
504.9	664.61
505.332	672.63
505.764	679.72
506.196	686.61
506.627	700.03
507.059	714.98
507.491	722.07
507.923	723.35
508.354	738.59
508.786	750.08
509.217	767.46
509.649	782.53
510.08	800.1
510.512	817.56
510.943	833.71
511.374	847.05
511.805	866.54
512.237	886.84
512.668	917.57
513.099	943.66
513.53	969.41
513.961	990.35
514.391	1020.91
514.822	1054.55
515.253	1088.01
515.684	1114.03
516.114	1144.09
516.545	1166.65
516.975	1193.55
517.406	1213.27
517.836	1219.68
518.267	1232.15
518.697	1253.34
519.127	1262.4
519.558	1272.03
519.988	1279.7
520.418	1292.74
520.848	1311.33
521.278	1323.7
521.708	1365.08
522.138	1380.72
522.567	1412.51
522.997	1438.81
523.427	1455.91
523.857	1476
524.286	1489.1
524.716	1505.88
525.145	1527.25
525.575	1541.2
526.004	1557.55
526.433	1534.49
526.863	1537.61
527.292	1532.88
527.721	1540.65
528.15	1549.14
528.579	1550.71
529.008	1563.86
529.437	1588.51
529.866	1603.77
530.295	1620.01
530.724	1633.94
531.152	1661.8
531.581	1678.37
532.01	1696.05
532.438	1706.28
532.867	1722.31
533.295	1742.3
533.723	1749.92
534.152	1749.3
534.58	1750.34
535.008	1738.89
535.436	1742.91
535.865	1752.15
536.293	1765.98
536.721	1782.23
537.149	1807.03
537.576	1809.09
538.004	1821.86
538.432	1829.03
538.86	1828.46
539.287	1836.32
539.715	1850.35
540.143	1852.72
540.57	1848.3
540.998	1845.29
541.425	1824.14
541.852	1804.64
542.28	1804.35
542.707	1788.81
543.134	1776.91
543.561	1773.73
543.988	1766.45
544.415	1765.91
544.842	1761.36
545.269	1755.74
545.696	1758.42
546.123	1771.8
546.549	1762.59
546.976	1751.42
547.403	1753.18
547.829	1756.07
548.256	1759.85
548.682	1758.17
549.108	1753.89
549.535	1755.07
549.961	1758.63
550.387	1747.28
550.813	1744.03
551.24	1751.62
551.666	1754.12
552.092	1745.95
552.518	1740.25
552.943	1736.18
553.369	1743.41
553.795	1749.78
554.221	1752.58
554.646	1750.57
555.072	1762.63
555.498	1766.72
555.923	1776.68
556.349	1793.12
556.774	1803.12
557.199	1805.3
557.625	1810.17
558.05	1805.61
558.475	1816.11
558.9	1814.53
559.325	1806.78
559.75	1800.92
560.175	1796.2
560.6	1790.5
561.025	1787.83
561.449	1788.46
561.874	1794.85
562.299	1799.5
562.723	1807.41
563.148	1797.51
563.572	1802.17
563.997	1811.81
564.421	1817.75
564.846	1816.87
565.27	1818.7
565.694	1815.58
566.118	1826.41
566.542	1834.1
566.966	1828.76
567.39	1823.17
567.814	1811.34
568.238	1809.92
568.662	1814.28
569.086	1814.88
569.509	1822.01
569.933	1808.38
570.357	1799.75
570.78	1777.7
571.204	1764.2
571.627	1751.96
572.05	1750.29
572.474	1749.84
572.897	1736.27
573.32	1728.38
573.743	1719.14
574.166	1701.34
574.589	1699.47
575.012	1692.8
575.435	1692.27
575.858	1682.98
576.281	1671.02
576.704	1655.37
577.126	1643.39
577.549	1633.64
577.972	1623.69
578.394	1613.4
578.817	1608.41
579.239	1590.68
579.661	1578.29
580.084	1563.47
580.506	1551.02
580.928	1547.46
581.35	1536.81
581.772	1532.82
582.194	1519.98
582.616	1507.98
583.038	1493.51
583.46	1480.97
583.882	1478.18
584.303	1481.42
584.725	1476.67
585.147	1479.53
585.568	1491.29
585.99	1503.31
586.411	1509.98
586.833	1523.92
587.254	1526.76
587.675	1540.54
588.096	1552.55
588.518	1546.74
588.939	1530.11
589.36	1528.17
589.781	1514.58
590.202	1488.09
590.623	1478.52
591.043	1475.02
591.464	1462.58
591.885	1457.3
592.305	1451.02
592.726	1437.94
593.147	1440.28
593.567	1435.77
593.987	1428.76
594.408	1425.11
594.828	1420.74
595.248	1415.67
595.669	1398.08
596.089	1390.54
596.509	1384.07
596.929	1371.86
597.349	1372.91
597.769	1361.6
598.189	1356.38
598.608	1356.86
599.028	1358.08
599.448	1358.35
599.867	1345.53
600.287	1341.22
600.706	1337.76
601.126	1328.47
601.545	1326.28
601.965	1324.08
602.384	1319.65
602.803	1320.76
603.222	1316.58
603.641	1310.82
604.061	1307.03
604.48	1302.57
604.898	1309.25
605.317	1313.07
605.736	1314
606.155	1311.75
606.574	1302.7
606.992	1306.69
607.411	1301.45
607.829	1291.85
608.248	1287.18
608.666	1283.63
609.085	1281.76
609.503	1273.28
609.921	1267.69
610.339	1269.04
610.758	1267.33
611.176	1261.69
611.594	1251.8
612.012	1247.66
612.43	1250.98
612.847	1255.38
613.265	1255.55
613.683	1259.71
614.101	1260.37
614.518	1254.96
614.936	1245.68
615.353	1230.8
615.771	1227.47
616.188	1227.69
616.606	1223.48
617.023	1216.24
617.44	1202.65
617.857	1195.82
618.274	1187
618.691	1180.9
619.108	1170.8
619.525	1163.34
619.942	1169.88
620.359	1171.23
620.776	1165.14
621.192	1160.94
621.609	1157.71
622.026	1163.92
622.442	1168.7
622.859	1171.02
623.275	1162.67
623.691	1168.03
624.108	1178.17
624.524	1189.8
624.94	1189.18
625.356	1198
625.772	1209.14
626.188	1219.08
626.604	1220.46
627.02	1215.91
627.436	1214.41
627.852	1221.21
628.268	1231.65
628.683	1222.39
629.099	1213.7
629.514	1209.11
629.93	1212.48
630.345	1217.04
630.761	1212.32
631.176	1214.51
631.591	1208.94
632.007	1202.91
632.422	1199.55
632.837	1188.25
633.252	1187.23
633.667	1178.3
634.082	1169.98
634.497	1157.21
634.911	1139.36
635.326	1137.08
635.741	1120.69
636.155	1110.13
636.57	1110.49
636.984	1110.81
637.399	1111.22
637.813	1108.81
638.228	1105.4
638.642	1107.05
639.056	1097.16
639.47	1094.52
639.884	1083.96
640.298	1075.35
640.712	1073.26
641.126	1058.38
641.54	1047.08
641.954	1039.59
642.368	1024.55
642.781	1016.48
643.195	997.49
643.609	994.22
644.022	985.2
644.436	977.87
644.849	964.16
645.262	949.88
645.676	947.58
646.089	939.82
646.502	924.92
646.915	919.12
647.328	899.82
647.741	896.23
648.154	881.8
648.567	878.74
648.98	864.55
649.393	863.22
649.805	858.6
650.218	850.52
650.631	836.11
651.043	828.17
651.456	821.49
651.868	820.39
652.28	832.18
652.693	841.11
653.105	843.5
653.517	850.55
653.929	849.08
654.341	851.2
654.753	840.55
655.165	843.04
655.577	839.45
655.989	833.19
656.401	824.35
656.813	794.1
657.224	776.35
657.636	750.22
658.047	733.14
658.459	714.94
658.87	703.19
659.282	689.88
659.693	672.45
660.104	657.91
660.515	643.12
660.926	637.25
661.338	630.07
661.749	621.28
662.159	611.57
662.57	603.84
662.981	596.71
663.392	589.11
663.803	588.97
664.213	582.36
664.624	576.28
665.035	576.06
665.445	563.56
665.855	556.38
666.266	548.85
666.676	544.77
667.086	536.54
667.497	534.24
667.907	526.74
668.317	518.65
668.727	516.91
669.137	514.6
669.547	511.65
669.956	512.08
670.366	512.24
670.776	511.74
671.186	512.54
671.595	515.27
672.005	514.82
672.414	514.82
672.824	513.57
673.233	514.01
673.642	515.39
674.052	517.77
674.461	520.48
674.87	522.22
675.279	520.96
675.688	520.92
676.097	521.52
676.506	520.29
676.915	530.51
677.323	532.56
677.732	530.9
678.141	530.84
678.549	522.8
678.958	522.58
679.366	523.48
679.775	527.3
680.183	538.5
680.592	543.88
681	550.72
681.408	547.9
681.816	555.59
682.224	565.4
682.632	577.87
683.04	602.9
683.448	624.04
683.856	651.87
684.264	684.35
684.671	712.13
685.079	748.49
685.487	787.47
685.894	842.32
686.302	889.73
686.709	931.16
687.116	978.74
687.524	1023.08
687.931	1061.61
688.338	1097.08
688.745	1127.66
689.152	1162.63
689.559	1206.28
689.966	1252.63
690.373	1279.75
690.78	1323.03
691.187	1384.19
691.593	1433.3
692	1475.23
692.407	1536.94
692.813	1612.18
693.22	1672.98
693.626	1734.96
694.032	1788.45
694.439	1863.79
694.845	1923.06
695.251	1996.86
695.657	2065.12
696.063	2163.28
696.469	2238.28
696.875	2309.08
697.281	2348.05
697.687	2398.28
698.093	2442.59
698.498	2518.69
698.904	2578.97
699.31	2667.17
699.715	2732.16
700.12	2824.08
700.526	2845.89
700.931	2917.62
701.337	2971.12
701.742	3006.41
702.147	3089.17
702.552	3121.56
702.957	3180.99
703.362	3203.21
703.767	3235.09
704.172	3277.25
704.577	3233
704.981	3279.64
705.386	3296.93
705.791	3290.08
706.195	3365
706.6	3376.41
707.004	3454.68
707.408	3425.7
707.813	3452.91
708.217	3441.11
708.621	3442.79
709.025	3539.62
709.43	3540.5
709.834	3599.87
710.237	3669.64
710.641	3655.28
711.045	3678.05
711.449	3674.56
711.853	3704.27
712.256	3743.91
712.66	3781.09
713.064	3853.9
713.467	3895.06
713.87	4006.71
714.274	4051.26
714.677	4155.99
715.08	4315.13
715.484	4476.72
715.887	4674.91
716.29	4867.58
716.693	5071.85
717.096	5303.6
717.499	5430.45
717.901	5452.42
718.304	5475.59
718.707	5499.54
719.109	5399.87
719.512	5365.37
719.915	5235.51
720.317	5179.22
720.719	5223.74
721.122	5192.75
721.524	5145.03
721.926	5107.89
722.328	5203.23
722.731	5193.96
723.133	5220.52
723.535	5410.91
723.937	5431
724.338	5480.25
724.74	5517.95
725.142	5482.05
725.544	5482.35
725.945	5512.72
726.347	5507.51
726.748	5501.27
727.15	5515.91
727.551	5478.88
727.952	5448.99
728.354	5421.4
728.755	5422.42
729.156	5380.21
729.557	5340.01
729.958	5220.03
730.359	5160.59
730.76	5143.47
731.161	5086.12
731.562	5058.27
731.962	5058.87
732.363	4997.5
732.763	4933.66
733.164	4967.01
733.564	4900
733.965	4807.72
734.365	4773.43
734.766	4800.56
735.166	4756.59
735.566	4702.09
735.966	4678.68
736.366	4674.35
736.766	4611.91
737.166	4642.86
737.566	4602.76
737.966	4577.53
738.365	4614.13
738.765	4609.05
739.165	4538.27
739.564	4515.88
739.964	4559.89
740.363	4513.81
740.763	4510.09
741.162	4500.25
741.561	4469.39
741.96	4425.38
742.36	4446.1
742.759	4452.18
743.158	4488.26
743.557	4500.21
743.955	4539.59
744.354	4493.99
744.753	4547.95
745.152	4510.17
745.55	4562.02
745.949	4557.25
746.348	4558.22
746.746	4576.02
747.144	4539.53
747.543	4516.06
747.941	4564.89
748.339	4497.27
748.737	4490.97
749.136	4485.68
749.534	4546.39
749.932	4520.39
750.33	4543.3
750.727	4597.26
751.125	4573.27
751.523	4557.68
751.921	4603.59
752.318	4571.06
752.716	4627.45
753.113	4640.91
753.511	4667.21
753.908	4669.23
754.305	4656.07
754.703	4713.86
755.1	4771.95
755.497	4830.57
755.894	5013.87
756.291	5186.85
756.688	5504.04
757.085	5927.76
757.482	6523.4
757.878	7172.71
758.275	7760.76
758.672	8565.58
759.068	9224.8
759.465	10164.98
759.861	11376.57
760.258	12778.14
760.654	13492.08
761.05	13389.89
761.447	12770.62
761.843	11892.39
762.239	10975.38
762.635	10560.58
763.031	10166.2
763.427	9596.55
763.822	8998.14
764.218	8407.4
764.614	7640.56
765.01	7130.66
765.405	6793.89
765.801	6544
766.196	6221.9
766.592	6043.86
766.987	5740.33
767.382	5534.82
767.778	5449.69
768.173	5323.67
768.568	5250.75
768.963	5129.85
769.358	5143.96
769.753	5098.49
770.148	5017.65
770.542	5014.78
770.937	4982.79
771.332	5070.97
771.726	5089.91
772.121	5031.29
772.515	5086.47
772.91	5074.66
773.304	5142.3
773.699	5081.75
774.093	5137.79
774.487	5193.26
774.881	5236.38
775.275	5233.23
775.669	5193.89
776.063	5236.06
776.457	5271.93
776.851	5199.72
777.245	5194.24
777.638	5228.62
778.032	5342.73
778.425	5305.13
778.819	5347.83
779.212	5307.81
779.606	5271.52
779.999	5295.04
780.392	5280.79
780.786	5358.3
781.179	5380.16
781.572	5420.61
781.965	5434.55
782.358	5379.89
782.751	5433.11
783.143	5385.56
783.536	5456.02
783.929	5495.48
784.322	5602.84
784.714	5632.6
785.107	5627.85
785.499	5695.3
785.891	5677.22
786.284	5656.56
786.676	5792.72
787.068	5775.87
787.46	5823.95
787.852	5845.05
788.245	5930.31
788.636	5956.77
789.028	6022.34
789.42	6059.77
789.812	6067.3
790.204	6154.15
790.595	6254.04
790.987	6062.8
791.378	6085.81
791.77	6208.61
792.161	6339.78
792.553	6396.19
792.944	6290.46
793.335	6223.7
793.726	6297.42
794.117	6388.1
794.508	6522.92
794.899	6490.38
795.29	6629.1
795.681	6685.95
796.072	6554.67
796.463	6382.51
796.853	6390.34
797.244	6543.77
797.634	6578.71
798.025	6575.71
798.415	6588.32
798.806	6676.88
799.196	6763.42
799.586	6813.05
799.976	6780.29
800.366	7005.11
800.756	7233.64
801.146	7195
801.536	7220.69
801.926	7290.52
802.316	7321.73
802.706	7392.58
803.095	7275.22
803.485	7375.6
803.874	7419.08
804.264	7672.18
804.653	7647.73
805.043	7790.7
805.432	7903.66
805.821	7913.53
806.21	7941.78
806.599	8056.3
806.988	8104.52
807.377	8212.52
807.766	8339.87
808.155	8615.63
808.544	8359.99
808.933	8378.09
809.321	8358.31
809.71	8644.95
810.098	8801.72
810.487	9250.12
810.875	9723.16
811.264	9743.81
811.652	10035.75
812.04	10182.29
812.428	10347.28
812.816	11100.29
813.204	11514.5
813.592	12056.11
813.98	12391.48
814.368	12304.76
814.756	12777.92
815.144	12702.11
815.531	13159.4
815.919	13084.79
816.306	13385.9
816.694	13077.73
817.081	13126.85
817.469	13466.13
817.856	13464.72
818.243	13728.6
818.63	14114.33
819.017	13713.69
819.404	13782.7
819.791	14164.52
820.178	14772.49
820.565	15018.48
820.952	15949.49
821.339	15476.16
821.725	15662.2
822.112	14937.66
822.498	14894.3
822.885	15021.1
823.271	14922.24
823.657	15327.79
824.044	15329.82
824.43	15391.79
824.816	15363
825.202	14929.76
825.588	15913.28
825.974	15918.8
826.36	16421.37
826.746	16447.94
827.132	16795.98
827.517	16769.17
827.903	15993.6
828.289	16028.48
828.674	15256.69
829.06	15148.28
829.445	15523.93
829.83	15867.26
830.216	16320.26
830.601	16674.57
830.986	16284.23
831.371	16147.69
831.756	16682.58
832.141	16252.74
832.526	16238.4
832.911	16518.76
833.295	16400.68
833.68	16855.45
834.065	16248.93
834.449	15361.04
834.834	15282.58
835.218	15269.2
835.603	15593.93
835.987	15377.77
836.371	16190.92
836.755	16083.97
837.139	16461.14
837.524	16687.02
837.908	16504.66
838.291	16560.73
838.675	16631.57
839.059	16827.87
839.443	16815.33
839.827	16585.09
840.21	17056.48
840.594	16911.5
840.977	17115.7
841.361	17096.83
841.744	17462.83
842.127	17313.08
842.511	17550.38
842.894	18118.91
843.277	18487.18
843.66	19008.82
844.043	19097.08
844.426	18318.37
844.809	18016.63
845.191	18049.54
845.574	17604.96
845.957	17252.56
846.339	17155.11
846.722	16651.35
847.104	16718.57
847.487	16547.16
847.869	16564.62
848.252	16826.21
848.634	17145.57
849.016	17403.63
849.398	17527.34
849.78	18361.29
850.162	18374.7
850.544	18774.71
850.926	19376.93
851.307	19296.27
851.689	19571.81
852.071	20005.6
852.452	20323.85
852.834	20301.45
853.215	20680.02
853.597	20824.72
853.978	21110.12
854.359	21545.48
854.741	20594.1
855.122	20504.13
855.503	20215.18
855.884	20349.77
856.265	20296.1
856.646	20410.64
857.026	20032.46
857.407	19975.59
857.788	20134.51
858.169	20401.61
858.549	19577.64
858.93	20169.51
859.31	20214.67
859.69	20427.81
860.071	20043.85
860.451	19836.35
860.831	19119.64
861.211	20235.33
861.591	20764.17
861.971	20730.5
862.351	20921.61
862.731	21305.31
863.111	21560.68
863.491	21885.16
863.87	22732.1
864.25	23060.37
864.629	22669.75
865.009	23158.44
865.388	23991.16
865.768	25713.38
866.147	25615.66
866.526	24186.56
866.905	24472.81
867.284	25851.17
867.663	24543.7
868.042	23506.65
868.421	23426.83
868.8	23815.68
869.179	24051.9
869.558	22645.61
869.936	20859.42
870.315	21220.17
870.693	21731.39
871.072	23421.42
871.45	22306.65
871.828	22589.51
872.207	23766.06
872.585	23398.66
872.963	24018.57
873.341	23187.67
873.719	22916.78
874.097	22643.72
874.475	23082.79
874.853	23626.5
875.23	22650.12
875.608	23604.39
875.986	25532.26
876.363	24416.93
876.741	25165.54
877.118	24552.87
877.495	25763.12
877.873	26196.36
878.25	27575.03
878.627	26445.93
879.004	26806.14
879.381	26665.64
879.758	25955.82
880.135	24152.73
880.512	25533.13
880.889	24856.3
881.265	24585.95
881.642	24374.97
882.019	24775.75
882.395	24275.28
882.772	25244.46
883.148	24149.79
883.524	24057.28
883.901	23921.98
884.277	24280.53
884.653	24128.41
885.029	24822.19
885.405	27508.26
885.781	27294.39
886.157	26163.13
886.532	26473.87
886.908	26448.54
887.284	29405.59
887.659	30368.98
888.035	31309.71
888.411	32118.86
888.786	32541.62
889.161	33669.06
889.537	33017.96
889.912	34082.86
890.287	34070.96
890.662	34945.45
891.037	34310.62
891.412	31992.12
891.787	31660.35
892.162	30557
892.536	31273.92
892.911	30095.56
893.286	29449.57
893.66	28262.17
894.035	28975.43
894.409	31534.1
894.784	30264.49
895.158	30760.22
895.532	32583.13
895.906	33472.69
896.281	34249.57
896.655	33707.11
897.029	38519.09
897.402	40108.5
897.776	44635.62
898.15	44487.48
898.524	44006.06
898.898	44587.03
899.271	49926.6
899.645	43247.33
900.018	41550.72
900.392	43087.03
900.765	43422.82
901.138	40171.46
901.511	39584.28
901.884	36357.02
902.258	33529.27
902.631	34651.17
903.003	39880.86
903.376	35991.5
903.749	40368.34
904.122	43204.56
904.495	47554.16
904.867	48137.38
905.24	41767.89
905.612	38876.37
905.985	39739.85
906.357	41544.21
906.729	39635.91
907.102	33857.05
907.474	32552.29
907.846	32754.84
908.218	32323.44
908.59	28574.36
908.962	27644.27
909.334	29803.09
909.705	31306.04
910.077	30411.52
910.449	31669.79
910.82	32573.22
911.192	35856.16
911.563	37268.23
911.935	39849.62
912.306	39907.61
912.677	41222.73
913.048	40828.71
913.419	44276.66
913.79	44538.17
914.161	47749.27
914.532	45625.88
914.903	41915.7
915.274	39796.34
915.645	39211.84
916.015	34530.83
916.386	32914.12
916.756	35037.33
917.127	36130.83
917.497	32285.68
917.868	35121.47
918.238	33392.02
918.608	34352.37
918.978	35089.12
919.348	37180.87
919.718	38433.03
920.088	37023.79
920.458	38493.94
920.828	40490.93
921.198	38389.68
921.567	41043.67
921.937	31798.16
922.306	32100.76
922.676	34613.18
923.045	28870.75
923.415	27414.32
923.784	24953.71
924.153	25654.12
924.522	25624.48
924.891	24088.09
925.26	25807.12
925.629	25174.92
925.998	28963.92
926.367	28290.31
926.736	26975.12
927.104	32132.59
927.473	34546.14
927.842	41723.95
928.21	41381.55
928.578	43530.59
928.947	41198.93
929.315	41469.91
929.683	48672.86
930.051	49043.17
930.42	56941.31
930.788	48674.15
931.156	48317.7
931.523	45351.93
931.891	41952.43
932.259	40270.76
932.627	46673.27
932.994	66061.01
933.362	54588.38
933.729	47388.92
934.097	45360.22
934.464	38401.22
934.831	44285.87
935.199	43681.25
935.566	42351.55
935.933	42867.29
936.3	51965.6
936.667	40454.68
937.034	36543.27
937.401	36155.69
937.767	31234.28
938.134	27828.14
938.501	39251.38
938.867	41881.34
939.234	70814.85
939.6	60402.34
939.967	66725.72
940.333	44654.14
940.699	38009.44
941.065	30454.78
941.431	39980.85
941.798	38577.8
942.163	50654.1
942.529	31657.04
942.895	29134.44
943.261	18865.71
943.627	24737.71
943.992	21632.55
944.358	21671.75
944.723	21763.97
945.089	21221.12
945.454	19619.23
945.82	20954.31
946.185	20130.41
946.55	23315.04
946.915	20931.22
947.28	24534.08
947.645	21630.44
948.01	19964.91
948.375	20807.86
948.74	24910.47
949.104	29035.67
949.469	41871.75
949.834	73956.8
950.198	70200.29
950.562	42047.39
950.927	34998.92
951.291	42085.67
951.655	35832.71
952.02	33631.57
952.384	25445.82
952.748	22173.51
953.112	21627.03
953.476	18811.03
953.839	17376.14
954.203	17214.76
954.567	21508.17
954.931	33850.8
955.294	28970.95
955.658	29123.69
956.021	49559.36
956.385	83926.21
956.748	123825.14
957.111	191972.87
957.474	215320.55
957.837	242287.6
958.2	182984.49
958.563	65902.86
958.926	44622.27
959.289	67678.26
959.652	75621.11
960.015	56745.51
960.377	81506.72
960.74	92976.26
961.102	160474.5
961.465	172305.66
961.827	92589.76
962.189	177726.71
962.552	123125.29
962.914	98590.93
963.276	63998.65
963.638	52906.3
964	52340.72
964.362	35384.65
964.724	34182.05
965.085	24378.71
965.447	19997.47
965.809	22730.55
966.17	22751.41
966.532	24614.22
966.893	22595.85
967.255	20552.41
967.616	24224.35
967.977	19416.94
968.338	21186.06
968.699	17412.99
969.061	17406.48
969.421	17513.04
969.782	19665.06
970.143	16629.38
970.504	17256.22
970.865	19609.89
971.225	20061.53
971.586	19641.67
971.946	27984.89
972.307	24291.17
972.667	31742.85
973.027	32714.22
973.388	39642.62
973.748	26946.06
974.108	29326.29
974.468	39618.46
974.828	30545.05
975.188	23479.89
975.548	21569.9
975.907	18101.43
976.267	20293.16
976.627	17079.97
976.986	17701.18
977.346	16874.02
977.705	16250.63
978.064	14780.98
978.424	12295.01
978.783	12695.82
979.142	14512.34
979.501	13904.5
979.86	14701.57
980.219	14176.3
980.578	18271.98
980.937	20452.81
981.296	18243.87
981.654	18742.38
982.013	29182.58
982.371	37931.7
982.73	35501.39
983.088	40170.82
983.447	42844.62
983.805	61260.45
984.163	128130.11
984.521	142207.81
984.879	208468.22
985.237	-339169.74
985.595	327387.13
985.953	81415.26
986.311	47053.54
986.669	27291.45
987.026	23551.07
987.384	31680.8
987.741	32757.74
988.099	23413.19
988.456	18623.87
988.814	17440.29
989.171	15149.02
989.528	14939.26
989.885	15751.16
990.242	12465.68
990.599	15529.01
990.956	12708.54
991.313	8893.47
991.67	7293.98
992.027	7745.54
992.383	6897.02
992.74	6055.7
993.096	6370.92
993.453	6593.62
993.809	6843.9
994.165	9102.86
994.522	8366.43
994.878	9216.98
995.234	11565.53
995.59	11408.39
995.946	10762.57
996.302	12270.38
996.658	14166.07
997.013	15567.5
997.369	18494.16
997.725	23689.74
998.08	15344.81
998.436	23562.72
998.791	32591.69
999.147	32553.42
999.502	35556.52
999.857	25865.7
1000.212	42271.3
1000.567	60222.27
1000.922	34743.53
1001.277	22064.99
1001.632	16362.9
1001.987	21108.05
1002.342	15141.83
1002.696	12068.53
1003.051	9616.16
1003.406	11658.84
1003.76	11607.8
1004.114	11464.1
1004.469	9657.49
1004.823	8000.39
1005.177	8650.56
1005.531	6855.83
1005.885	6077.71
1006.239	6874.7
1006.593	8626.87
1006.947	11547.64
1007.301	8656.88
1007.655	9419.32
1008.008	6883.69
1008.362	7709.81
1008.715	11042.42
1009.069	10009.33
1009.422	15123.33
1009.776	30361.21
1010.129	20157.71
1010.482	16842.61
1010.835	14243.76
1011.188	29631.68
1011.541	27945.01
1011.894	-170753.87
1012.247	504585.17
1012.6	34203.77
1012.952	21640.76
1013.305	11079.7
1013.657	8008.64
1014.01	7589.77
1014.362	6266.02
1014.715	5605.15
1015.067	4884.56
1015.419	4781.94
1015.771	4254.88
1016.123	3776.63
1016.475	3883.02
1016.827	4119.62
1017.179	4445.73
1017.531	4466.54
1017.883	4571.06
1018.234	4436.67
1018.586	5575.32
1018.938	5933.59
1019.289	8184.02
1019.64	9333.58
1019.992	8702.95
1020.343	7967.67
1020.694	6334.57
1021.045	5584.94
1021.396	6372.31
1021.747	6810.32
1022.098	8121.59
1022.449	5908.2
1022.8	5465.92
1023.151	3827.92
1023.501	3404.1
1023.852	3699.33
1024.202	3849.38
1024.553	4221.23
1024.903	4149.62
1025.253	3562.64
1025.604	3213.73
1025.954	3990.05
1026.304	4851.87
1026.654	5666.89
1027.004	8275.18
1027.354	13305.98
1027.703	12592.08
1028.053	16532.43
1028.403	24205.62
1028.753	34997.79
1029.102	47559.63
1029.452	243902.93
1029.801	10557.24
1030.15	6813.57
1030.499	5757.85
897.758	3362.83
901.051	3348.85
904.343	3391.14
907.636	3379.41
910.928	3449.3
914.22	3350.26
917.511	3364.2
920.803	3457.44
924.094	3506.71
927.384	3452.77
930.675	3416.65
933.965	3355.05
937.255	3347.79
940.544	3309.96
943.834	3152.95
947.123	3113.14
950.411	3221.46
953.7	3181.1
956.988	3120.94
960.276	3069.47
963.563	3196.51
966.851	3176.01
970.138	3258.15
973.424	3233.38
976.711	3179.74
979.997	3450.58
983.283	3464.57
986.568	3327.04
989.853	3380.29
993.138	3412.55
996.423	3496.07
999.708	3406.26
1002.992	3529.35
1006.275	3239.77
1009.559	3352.9
1012.842	3498.23
1016.125	3399.25
1019.408	3376.39
1022.69	3509.23
1025.972	3508.8
1029.254	3479.95
1032.536	3365.37
1035.817	3411.15
1039.098	3306.87
1042.379	3592.99
1045.659	3538.38
1048.939	3445.35
1052.219	3489.65
1055.498	3520.25
1058.778	3491.17
1062.057	3481.98
1065.335	3497.08
1068.614	3533.38
1071.892	3496.41
1075.17	3603.95
1078.447	3578.87
1081.724	3563.14
1085.001	3617.64
1088.278	3582.14
1091.554	3606.25
1094.83	3603.61
1098.106	3630.2
1101.382	3696.07
1104.657	3693.58
1107.932	3692.52
1111.206	3636.65
1114.481	3591.12
1117.755	3604.61
1121.029	3562.53
1124.302	3610.46
1127.575	3537.14
1130.848	3510.7
1134.121	3461.97
1137.393	3389.38
1140.665	3475.36
1143.937	3456.2
1147.208	3343.9
1150.48	3374.8
1153.75	3351.84
1157.021	3429.37
1160.291	3382.94
1163.561	3424.55
1166.831	3446.91
1170.101	3482.5
1173.37	3460.58
1176.639	3377.37
1179.907	3448.49
1183.176	3519.13
1186.444	3518.07
1189.711	3552.65
1192.979	3549.44
1196.246	3509.17
1199.513	3534.56
1202.78	3527.29
1206.046	3531.06
1209.312	3581.51
1212.578	3616.87
1215.843	3547.15
1219.108	3522.12
1222.373	3552.68
1225.638	3494.38
1228.902	3469.21
1232.166	3424.14
1235.43	3397.88
1238.693	3411.66
1241.956	3417.45
1245.219	3445.28
1248.482	3458.94
1251.744	3443.47
1255.006	3639.97
1258.268	3597.35
1261.529	3524.83
1264.79	3544.47
1268.051	3686.78
1271.312	3707.72
1274.572	3662.64
1277.832	3654.3
1281.092	3657.98
1284.351	3597.12
1287.61	3569.56
1290.869	3450.23
1294.128	3403.16
1297.386	3546.76
1300.644	3529.16
1303.902	3542.23
1307.159	3379.3
1310.416	3441.95
1313.673	3459.68
1316.93	3428.33
1320.186	3502.42
1323.442	3559.22
1326.697	3531.47
1329.953	3542.93
1333.208	3556.84
1336.463	3539.41
1339.717	3465
1342.972	3547.67
1346.226	3557.92
1349.479	3464.57
1352.733	3414.41
1355.986	3459.07
1359.238	3429
1362.491	3428.54
1365.743	3434.85
1368.995	3436.76
1372.247	3450.48
1375.498	3461.66
1378.749	3539.22
1382	3472.38
1385.251	3555.26
1388.501	3526.65
1391.751	3492.39
1395	3471.78
1398.25	3514.72
1401.499	3507.35
1404.748	3416.77
1407.996	3316.23
1411.244	3312.4
1414.492	3285.1
1417.74	3258
1420.987	3279.07
1424.234	3332.2
1427.481	3336.05
1430.728	3391.74
1433.974	3364.15
1437.22	3397.95
1440.465	3398.53
1443.711	3413.9
1446.956	3450.13
1450.201	3458.49
1453.445	3506.29
1456.689	3466.95
1459.933	3485.95
1463.177	3515.07
1466.42	3482.98
1469.663	3463.36
1472.906	3428.39
1476.148	3582.67
1479.391	3448.35
1482.633	3436.4
1485.874	3435.38
1489.115	3395.53
1492.356	3429.24
1495.597	3395.79
1498.838	3409.17
1502.078	3352.84
1505.318	3264.72
1508.557	3325.59
1511.797	3230.73
1515.036	3427.49
1518.274	3406.98
1521.513	3393.17
1524.751	3427.61
1527.989	3425.35
1531.227	3431.9
1534.464	3397.79
1537.701	3454.64
1540.938	3486.12
1544.174	3442.24
1547.41	3455.74
1550.646	3493.37
1553.882	3515.66
1557.117	3567.71
1560.352	3594.94
1563.587	3546.46
1566.821	3492.38
1570.055	3557.41
1573.289	3512.06
1576.523	3619.36
1579.756	3613.54
1582.989	3628.25
1586.222	3586
1589.454	3638.53
1592.686	3601.54
1595.918	3623.85
1599.15	3598.74
1602.381	3714.96
1605.612	3630.85
1608.843	3741.32
1612.073	3634.38
1615.303	3613.52
1618.533	3592.58
1621.762	3603.27
1624.992	3606.8
1628.221	3567.69
1631.449	3549.83
1634.678	3648.16
1637.906	3586.41
1641.134	3645.45
1644.361	3586.3
1647.588	3566.7
1650.815	3575.56
1654.042	3572.79
1657.269	3615.36
1660.495	3561.32
1663.72	3489.19
1666.946	3483.39
1670.171	3377.68
1673.396	3353.83
1676.621	3357.98
1679.845	3410.09
1683.069	3455.56
1686.293	3521.01
1689.517	3469.57
1692.74	3353.34
1695.963	3371.59
1699.185	3488.91
1702.408	3428.02
1705.63	3488.59
1708.852	3495.12
1712.073	3459
1715.294	3423.47
1718.515	3435.04
1721.736	3384.88
1724.956	3331.08
1728.176	3372.68
1731.396	3388.71
1734.616	3390.96
1737.835	3393.47
1741.054	3392.44
1744.272	3391.78
1747.491	3402.8
1750.709	3495.74
1753.927	3402.5
1757.144	3457.04
1760.361	3547.4
1763.578	3554.56
1766.795	3483.71
1770.011	3502.27
1773.227	3570.75
1776.443	3597.99
1779.658	3642.57
1782.874	3588.15
1786.089	3546.31
1789.303	3552.41
1792.518	3564.01
1795.732	3552.88
1798.945	3556.09
1802.159	3619.64
1805.372	3470.31
1808.585	3439.11
1811.797	3445.16
1815.01	3532.19
1818.222	3536.98
1821.434	3390.35
1824.645	3508.13
1827.856	3461.23
1831.067	3517.58
1834.278	3422.64
1837.488	3415.88
1840.698	3608.07
1843.908	3501.15
1847.117	3457.52
1850.326	3272
1853.535	3417.25
1856.744	3569.64
1859.952	3438.44
1863.16	3435.72
1866.368	3455.85
1869.575	3632.29
1872.782	3501.5
1875.989	3444.4
1879.196	3583.23
1882.402	3577.41
1885.608	3629.85
1888.814	3483.46
1892.019	3346.7
1895.224	3400.28
1898.429	3397.75
1901.634	3365.63
1904.838	3351.35
1908.042	3391.25
1911.246	3388.23
1914.449	3271.17
1917.652	3290.74
1920.855	3276.67
1924.058	3357.38
1927.26	3384.55
1930.462	3423.22
1933.664	3437.54
1936.865	3363.91
1940.066	3354.77
1943.267	3307.38
1946.467	3335.75
1949.668	3375.56
1952.868	3441.94
1956.067	3397.08
1959.267	3311.95
1962.466	3348.05
1965.665	3335.83
1968.863	3332.93
1972.061	3371.35
1975.259	3378.81
1978.457	3467.61
1981.654	3414.76
1984.852	3414.9
1988.048	3313.67
1991.245	3338.94
1994.441	3429.96
1997.637	3448.92
2000.833	3428.42
2004.028	3477.62
2007.223	3517.25
2010.418	3478.83
2013.613	3445.6
2016.807	3383.1
2020.001	3412.43
2023.194	3490.4
2026.388	3452.2
2029.581	3400.72
2032.774	3429.48
2035.966	3427.22
2039.158	3334.16
2042.35	3375.78
2045.542	3297.57
2048.733	3437.13
2051.924	3503.04
2055.115	3545.5
2058.306	3452.61
2061.496	3523.29
2064.686	3608.78
2067.875	3528.95
2071.065	3562.7
2074.254	3599.68
2077.442	3549.24
2080.631	3654.56
2083.819	3479.89
2087.007	3443.35
2090.195	3395.6
2093.382	3459.81
2096.569	3432.04
2099.756	3366.85
2102.942	3366.43
2106.128	3356.18
2109.314	3359.17
2112.5	3285.73
2115.685	3272.87
2118.87	3288.23
2122.055	3364.93
2125.239	3307.28
2128.424	3259.44
2131.608	3431.22
2134.791	3412.11
2137.974	3501.71
2141.157	3481.47
2144.34	3401.92
2147.523	3409.01
2150.705	3402.69
2153.887	3399.25
2157.068	3312.93
2160.25	3347.02
2163.431	3410.71
2166.611	3315.85
2169.792	3327.87
2172.972	3193.54
2176.152	3317.18
2179.331	3362.98
2182.511	3355.91
2185.69	3393.39
2188.868	3380.97
2192.047	3468.53
2195.225	3422.63
2198.403	3368.42
2201.58	3372.17
2204.758	3373.24
2207.935	3474.86
2211.111	3317.73
2214.288	3294.63
2217.464	3347.3
2220.64	3326.13
2223.815	3389.76
2226.991	3293.69
2230.166	3319.9
2233.34	3333.85
2236.515	3373.54
2239.689	3468.78
2242.863	3395.32
2246.036	3463.56
2249.209	3492.36
2252.382	3546.25
2255.555	3517.84
2258.727	3429.75
2261.9	3482.46
2265.071	3474.42
2268.243	3485.23
2271.414	3392.21
2274.585	3317.88
2277.756	3402.32
2280.926	3351.44
2284.096	3406.69
2287.266	3279.35
2290.436	3352.69
2293.605	3398.15
2296.774	3417.91
2299.942	3464.45
2303.111	3481.77
2306.279	3523.88
2309.447	3515.41
2312.614	3496.29
2315.781	3512.72
2318.948	3467.58
2322.115	3512.49
2325.281	3406.91
2328.447	3446.65
2331.613	3425.8
2334.779	3368.88
2337.944	3385.25
2341.109	3377.65
2344.274	3351.5
2347.438	3308.19
2350.602	3342.98
2353.766	3365.79
2356.929	3345.86
2360.092	3393.61
2363.255	3317.13
2366.418	3203.66
2369.58	3388.9
2372.742	3036.82
2375.904	3079.54
2379.066	3036.54
2382.227	3088.55
2385.388	3045.2
2388.548	2942.84
2391.709	3019.14
2394.869	2988.64
2398.029	3148.28
2401.188	3189.84
2404.347	3077.7
2407.506	3317.03
2410.665	3339.76
2413.823	3371.93
2416.981	3296.22
2420.139	3348.68
2423.296	3411.73
2426.453	3385.57
2429.61	3413.15
2432.767	3297.68
2435.923	3355.25
2439.079	3215.32
2442.235	3311.79
2445.391	3212.46
2448.546	3218.12
2451.701	3297.86
2454.855	3230.59
2458.009	3317.83
2461.163	3340.25
2464.317	3278.55
2467.471	3322.75
2470.624	3359.98
2473.777	3428.84
2476.929	3414.46
2480.082	3444.13
2483.234	3413.98
2486.385	3261.88
2489.537	3269.75
2492.688	3186.76
2495.839	3205.06
2498.989	3208.45
2502.14	3186.41
2505.29	3152.3
2508.439	3183.74
2511.589	3078.48
2514.738	3110.06
2517.887	3137.66
2521.035	3316.52
2524.183	3307.98
2527.331	3276.99
2530.479	3221.98
2533.627	3244.87
