Data from N_3_HIR_IL_4N_Splice17_13-40-41-747.txt Node
Date: Sat Mar 14 13:40:41 EDT 2020
User: sa697716
Spectrometer: FLMS03696
Trigger mode: 0
Integration Time (sec): 3.180400E-1
Scans to average: 20
Electric dark correction enabled: true
Nonlinearity correction enabled: true
Boxcar width: 5
XAxis mode: Wavelengths
Number of Pixels in Spectrum: 2048
>>>>>Begin Spectral Data<<<<<
187.83	-464011.82
188.298	3274.47
188.766	1739.4
189.233	1571.29
189.701	2159.73
190.169	3036.95
190.636	1167.9
191.104	867.4
191.571	123.98
192.039	-105.2
192.506	-148.28
192.974	476.94
193.441	-733.84
193.908	-215.3
194.375	-57.83
194.842	-25.38
195.31	95.34
195.777	210.8
196.244	454.75
196.711	541.08
197.177	649.15
197.644	929.99
198.111	1648.11
198.578	2291.1
199.045	1848.87
199.511	3012.4
199.978	3503.7
200.445	3002.02
200.911	3302.43
201.378	3666.29
201.844	3318.82
202.31	5682.34
202.777	5883.95
203.243	3236.27
203.709	3095.33
204.176	3678.66
204.642	3040.73
205.108	2850.99
205.574	2292.41
206.04	2078.18
206.506	1959.1
206.972	1848.31
207.438	1794.41
207.903	2049.04
208.369	1798.61
208.835	1784.13
209.301	1883.38
209.766	1916.43
210.232	1899.07
210.697	2337.47
211.163	2887.24
211.628	4291.77
212.094	3604.15
212.559	4456.76
213.024	2761.78
213.49	3376.41
213.955	3300.2
214.42	3179.62
214.885	2955.56
215.35	2829.31
215.815	2771.23
216.28	2937.73
216.745	2392.13
217.21	2587.49
217.675	2354.84
218.14	2637.12
218.604	2904.04
219.069	3290.76
219.534	3465.99
219.998	4015.91
220.463	4863.14
220.927	5926.17
221.392	5555.48
221.856	5641.5
222.32	7091.23
222.785	8768.36
223.249	11021.39
223.713	12321.85
224.177	12317.63
224.642	15777.47
225.106	19408.96
225.57	21156.51
226.034	15783.22
226.497	24038.32
226.961	21692.3
227.425	25204.98
227.889	27886.37
228.353	27902.42
228.816	57509.46
229.28	55029.6
229.744	46376.38
230.207	28211.01
230.671	27757
231.134	45826.46
231.597	52943.91
232.061	52847.31
232.524	51505.05
232.987	35503
233.45	31950.2
233.914	28669.64
234.377	29356.38
234.84	26899.56
235.303	31695.95
235.766	35325.66
236.229	36476.01
236.691	22929.91
237.154	25735.78
237.617	19378.16
238.08	19823.03
238.542	23197.23
239.005	16583.17
239.468	16448.22
239.93	15477.36
240.393	14050.5
240.855	12344.68
241.317	12635.52
241.78	15349.59
242.242	15888.85
242.704	17163.82
243.166	14958.39
243.629	13590.93
244.091	15652.55
244.553	17165.26
245.015	18451.17
245.477	23856.71
245.939	34934.56
246.4	37109.98
246.862	36085.04
247.324	34013.57
247.786	38039.95
248.247	49876.15
248.709	51446.9
249.17	38522.83
249.632	36353.14
250.093	42174.64
250.555	36523.95
251.016	22304.88
251.477	21142.98
251.939	22861.22
252.4	24024.76
252.861	28581.4
253.322	26590.97
253.783	31675.61
254.244	41101.58
254.705	32352.67
255.166	28797.43
255.627	28324.52
256.088	39970.59
256.549	42521.04
257.009	36587.51
257.47	44372.64
257.931	36177.42
258.391	27107.9
258.852	27915.3
259.312	29249.61
259.773	36168.12
260.233	30592.55
260.694	25818.96
261.154	29262.43
261.614	23497.3
262.074	21042.79
262.534	21894.22
262.994	20635.06
263.455	27505.8
263.915	23219.46
264.374	21889.34
264.834	23897.6
265.294	26483.87
265.754	27447.02
266.214	25994.49
266.673	24356.76
267.133	30738.22
267.593	30450.93
268.052	37265.11
268.512	32401.82
268.971	39100.28
269.431	42897.18
269.89	38451.42
270.349	57653.09
270.809	64261.89
271.268	57845.91
271.727	129788.82
272.186	84051.45
272.645	63115.42
273.104	45566.86
273.563	66021.68
274.022	51867.99
274.481	44139.96
274.94	33997.73
275.399	25273.44
275.857	29452.87
276.316	39847.19
276.775	35475.51
277.233	34963.69
277.692	32720.76
278.15	36966.95
278.609	38040.37
279.067	35205.1
279.525	32681.61
279.984	42202.78
280.442	50676.36
280.9	49979.48
281.358	32857.71
281.816	30612.6
282.274	29939.66
282.732	30936.1
283.19	31078.87
283.648	26809.18
284.106	28559.85
284.564	29073.05
285.021	26938.55
285.479	20055.14
285.937	18204.12
286.394	15966.85
286.852	16402.83
287.309	17242.11
287.767	16637.84
288.224	15809.13
288.682	17330.97
289.139	18999.24
289.596	17372.04
290.053	18058.45
290.511	22801.8
290.968	27678.67
291.425	37521.71
291.882	31261.06
292.339	27182.45
292.796	26961.49
293.252	25420.81
293.709	20213.46
294.166	18113.64
294.623	19979.73
295.079	19141.47
295.536	19216.41
295.992	17428.04
296.449	17230.59
296.905	17892.18
297.362	17157.48
297.818	18046.03
298.274	18714.71
298.731	19026.19
299.187	18819.08
299.643	20206.45
300.099	24464.17
300.555	26815.53
301.011	22397.74
301.467	21616.56
301.923	25259.02
302.379	24659.93
302.835	24200.34
303.291	24238.07
303.746	27588.65
304.202	34862.9
304.658	35006.11
305.113	23527.4
305.569	23040.15
306.024	24525.61
306.479	23290.28
306.935	19629
307.39	21402.3
307.845	19747.79
308.301	19857.8
308.756	19332.21
309.211	18574.03
309.666	19009.69
310.121	23597.98
310.576	23894.83
311.031	23688.7
311.486	27077.52
311.94	27032.13
312.395	36129.26
312.85	67858.69
313.305	332422.97
313.759	1722171.12
314.214	124817.03
314.668	98889.25
315.123	83199.4
315.577	29900.91
316.032	26588.35
316.486	33303.59
316.94	26303.52
317.394	18305.35
317.849	14227.54
318.303	13470.51
318.757	12698.85
319.211	14053.19
319.665	12268.81
320.119	12391.54
320.572	17732.39
321.026	16603.98
321.48	13836
321.934	15046.95
322.387	15058.47
322.841	16244.9
323.295	14622.8
323.748	16813.21
324.202	17036.2
324.655	20485.76
325.108	28665.02
325.562	20234.19
326.015	24004.19
326.468	18135.15
326.921	20277.83
327.374	18916.35
327.827	19753.01
328.28	22317.29
328.733	14949.24
329.186	13141.4
329.639	12532.6
330.092	10532.91
330.545	10025.55
330.997	10090.33
331.45	11041.2
331.903	12972.95
332.355	22295.83
332.808	21610.18
333.26	17819.37
333.713	19367.1
334.165	19494.82
334.617	25924.01
335.069	20919.64
335.522	37841.15
335.974	41859.09
336.426	38101.34
336.878	26277.44
337.33	13327.87
337.782	12998.12
338.234	16301.97
338.686	19475.02
339.137	23069.42
339.589	21780.28
340.041	17083.82
340.493	14679.8
340.944	15054.76
341.396	16227.69
341.847	13689.83
342.299	16160.58
342.75	19730.07
343.201	17203.88
343.653	19766.36
344.104	24305.86
344.555	19105.34
345.006	29649.6
345.457	22759.53
345.908	18037.77
346.359	17000
346.81	13822.04
347.261	14566.46
347.712	14317.32
348.163	15335.94
348.613	15554.32
349.064	14517.56
349.515	12701.06
349.965	13058.13
350.416	15698.7
350.866	17250.39
351.317	19422.08
351.767	32168.69
352.217	40511.46
352.668	33639.66
353.118	30790.8
353.568	29625.32
354.018	23375.59
354.468	24677.06
354.918	17689.54
355.368	15444.52
355.818	21826.47
356.268	62801.55
356.718	262577.18
357.168	65391.99
357.617	32777.95
358.067	36421.88
358.517	34083.57
358.966	40025.42
359.416	44873.32
359.865	48350.6
360.315	57466.57
360.764	26773.46
361.213	14984.06
361.663	14142.15
362.112	17440.39
362.561	28136.42
363.01	21250.59
363.459	17855.69
363.908	19289.47
364.357	16404.11
364.806	27682.1
365.255	19021.24
365.703	17450.83
366.152	17490.03
366.601	14221.02
367.05	11545.71
367.498	10516.31
367.947	10982.61
368.395	11392
368.844	10078.22
369.292	12091.44
369.74	8369.12
370.189	12811.05
370.637	14990.59
371.085	12922.3
371.533	15703.55
371.981	15129.59
372.429	14399.45
372.877	14962.41
373.325	12560.89
373.773	12773.2
374.221	11374.13
374.669	14075.17
375.116	12182.92
375.564	12278.82
376.012	13682.58
376.459	11279.52
376.907	13434.6
377.354	16211.37
377.801	15140.28
378.249	17373.25
378.696	22201.55
379.143	26836.53
379.591	28601.93
380.038	48299.27
380.485	34895.66
380.932	37693.15
381.379	34531.33
381.826	25476.37
382.273	18062.81
382.72	15724.32
383.166	15343.47
383.613	9958.74
384.06	8977
384.506	10362.05
384.953	7614.11
385.4	7649.35
385.846	6715.12
386.292	6531.74
386.739	6389.65
387.185	6314.42
387.631	6322.48
388.078	6134.93
388.524	6552.31
388.97	6052.03
389.416	5053.89
389.862	5356.98
390.308	5064.57
390.754	5138.86
391.2	5572.7
391.645	5690.21
392.091	5464.6
392.537	5284.77
392.983	5285.23
393.428	5218.27
393.874	5589.38
394.319	5627.71
394.765	5359.96
395.21	5506.11
395.655	5155.27
396.101	4832.18
396.546	4368.97
396.991	4405.54
397.436	4092.27
397.881	3954.94
398.326	3732.35
398.771	3535.94
399.216	3083.8
399.661	2772.58
400.106	2770.68
400.551	2849.54
400.995	2557.5
401.44	2535.24
401.885	2379.39
402.329	2414.56
402.774	2324.41
403.218	2264.61
403.663	2185.94
404.107	2257.45
404.551	2285.37
404.995	2100.51
405.44	2021.27
405.884	2047.77
406.328	1981.69
406.772	1979.8
407.216	1797.78
407.66	1732.34
408.104	1639.15
408.547	1536.19
408.991	1483.39
409.435	1426.4
409.879	1409.72
410.322	1393.52
410.766	1351.82
411.209	1286.14
411.653	1234.92
412.096	1216.09
412.54	1218.85
412.983	1211.97
413.426	1220.63
413.869	1219.79
414.312	1200.61
414.756	1156.99
415.199	1105.02
415.642	1074.25
416.085	1076.73
416.527	1071.27
416.97	1086.12
417.413	1033.86
417.856	1024.82
418.298	1011.13
418.741	1003.65
419.184	997.11
419.626	1035.9
420.069	1035.3
420.511	1042.73
420.953	1022.51
421.396	1013.86
421.838	988.2
422.28	1011
422.722	1017.06
423.164	1031.09
423.606	1016.63
424.048	1017.08
424.49	970.78
424.932	965.42
425.374	947.85
425.816	961.78
426.258	979.11
426.699	989.45
427.141	977.66
427.582	991.99
428.024	988.57
428.465	983.96
428.907	959.24
429.348	942.9
429.789	944.62
430.231	927.26
430.672	939.31
431.113	917.01
431.554	904.52
431.995	877.8
432.436	846.71
432.877	827.32
433.318	813.21
433.759	808.07
434.2	809.81
434.64	800.33
435.081	803.57
435.522	763.97
435.962	733.9
436.403	718.02
436.843	726.64
437.284	708.55
437.724	686.6
438.164	684.41
438.604	669.01
439.045	644
439.485	617.68
439.925	601.97
440.365	586.83
440.805	579.9
441.245	574.19
441.685	554.92
442.125	550.79
442.564	554.21
443.004	542.35
443.444	540.88
443.883	542.71
444.323	536.81
444.762	537.32
445.202	542.78
445.641	553.95
446.081	550.05
446.52	554.03
446.959	549.58
447.398	539.39
447.837	534.7
448.276	525.01
448.716	529.14
449.154	534
449.593	523.13
450.032	522.09
450.471	510.68
450.91	508.26
451.349	506
451.787	502.24
452.226	508.29
452.664	507.86
453.103	507.92
453.541	506.7
453.98	506.72
454.418	508.53
454.856	500.82
455.295	500.18
455.733	505.92
456.171	511.01
456.609	512.59
457.047	511.92
457.485	520.6
457.923	523.24
458.361	514.44
458.798	515.83
459.236	515.32
459.674	516.67
460.111	518.36
460.549	512.14
460.987	509.18
461.424	506.34
461.862	502.3
462.299	492.89
462.736	491.75
463.173	494.82
463.611	492.99
464.048	492.3
464.485	497.95
464.922	493.87
465.359	491.36
465.796	490.99
466.233	489.63
466.67	487.53
467.106	486.08
467.543	480.59
467.98	472.68
468.416	456.84
468.853	451.27
469.29	435.97
469.726	431.37
470.162	419.15
470.599	407.06
471.035	401.84
471.471	391.06
471.907	388.48
472.344	385.98
472.78	388.55
473.216	393.15
473.652	389.83
474.088	389.3
474.523	389.27
474.959	394.3
475.395	391.74
475.831	390.36
476.266	392.78
476.702	392.31
477.138	388.93
477.573	387.13
478.008	387.68
478.444	390.25
478.879	395.47
479.314	397.13
479.75	396.99
480.185	398.55
480.62	401.79
481.055	403.97
481.49	407.4
481.925	413.3
482.36	423.41
482.795	432.81
483.229	442.8
483.664	451.49
484.099	452.72
484.534	459.78
484.968	464.9
485.403	465.94
485.837	464.48
486.271	462.81
486.706	463.53
487.14	455.99
487.574	449.63
488.009	446.37
488.443	441.95
488.877	447.05
489.311	447.74
489.745	452.78
490.179	456.86
490.613	467.82
491.046	471.31
491.48	474.54
491.914	475.97
492.348	480.14
492.781	483.21
493.215	484.46
493.648	485.17
494.082	489.74
494.515	490.47
494.948	497.54
495.382	500
495.815	504.65
496.248	508.46
496.681	517.63
497.114	525.93
497.547	534.3
497.98	546.68
498.413	553.53
498.846	563.22
499.279	570.7
499.711	574.1
500.144	577.56
500.577	588.14
501.009	599.03
501.442	609.56
501.874	613.74
502.306	617.71
502.739	627.86
503.171	641.12
503.603	645.2
504.036	654.94
504.468	662.61
504.9	674.41
505.332	681.86
505.764	687.97
506.196	695.46
506.627	709.44
507.059	722.19
507.491	729.48
507.923	730.95
508.354	746.27
508.786	757.37
509.217	775.28
509.649	790.49
510.08	808.07
510.512	825.55
510.943	841.71
511.374	855.33
511.805	875.81
512.237	895.05
512.668	925.04
513.099	951.27
513.53	978.58
513.961	999.63
514.391	1029.31
514.822	1063.4
515.253	1097.91
515.684	1124.08
516.114	1152.64
516.545	1176.29
516.975	1203.49
517.406	1222.09
517.836	1228.5
518.267	1239.61
518.697	1260.83
519.127	1269.16
519.558	1278.22
519.988	1285.58
520.418	1298.37
520.848	1317
521.278	1328.52
521.708	1370.01
522.138	1387.59
522.567	1419.62
522.997	1446.1
523.427	1462.98
523.857	1483.58
524.286	1496.72
524.716	1514.98
525.145	1535.91
525.575	1550.76
526.004	1566.6
526.433	1543.28
526.863	1545.15
527.292	1539.06
527.721	1547.35
528.15	1555.75
528.579	1558.32
529.008	1571.51
529.437	1594.95
529.866	1610.92
530.295	1628.41
530.724	1643.41
531.152	1671.79
531.581	1688.23
532.01	1706.91
532.438	1717.06
532.867	1732.81
533.295	1752.3
533.723	1760.02
534.152	1759.05
534.58	1760.58
535.008	1747.82
535.436	1751.32
535.865	1759.18
536.293	1773.35
536.721	1789.27
537.149	1814.06
537.576	1818.31
538.004	1831.21
538.432	1838.99
538.86	1839.18
539.287	1845.64
539.715	1860.07
540.143	1862.04
540.57	1858.93
540.998	1855.84
541.425	1834.73
541.852	1814.92
542.28	1812.42
542.707	1797.12
543.134	1785.2
543.561	1780.86
543.988	1774.74
544.415	1774.33
544.842	1770.63
545.269	1765.49
545.696	1769.99
546.123	1783.4
546.549	1774.32
546.976	1763.61
547.403	1764.99
547.829	1767.17
548.256	1770
548.682	1768.17
549.108	1762.56
549.535	1763.76
549.961	1766.51
550.387	1753.46
550.813	1749.5
551.24	1757.72
551.666	1759.87
552.092	1751.52
552.518	1746.12
552.943	1741.46
553.369	1748.37
553.795	1754.83
554.221	1756.51
554.646	1754.69
555.072	1767.77
555.498	1773.85
555.923	1782.27
556.349	1798.81
556.774	1808.48
557.199	1811.15
557.625	1819.14
558.05	1814.86
558.475	1825.51
558.9	1825.07
559.325	1817.57
559.75	1811.41
560.175	1804.83
560.6	1799.32
561.025	1796.99
561.449	1798.52
561.874	1804.4
562.299	1807.65
562.723	1814.43
563.148	1804.55
563.572	1808.11
563.997	1816.96
564.421	1820.73
564.846	1821.5
565.27	1824.49
565.694	1822.1
566.118	1832.5
566.542	1839.63
566.966	1833.47
567.39	1828.54
567.814	1817.17
568.238	1816.24
568.662	1821.35
569.086	1824.38
569.509	1830.1
569.933	1815.39
570.357	1805.91
570.78	1783.73
571.204	1770.68
571.627	1760.09
572.05	1757.62
572.474	1756.99
572.897	1742.94
573.32	1735.22
573.743	1724.53
574.166	1705.93
574.589	1705.59
575.012	1699.32
575.435	1698.38
575.858	1689.24
576.281	1676.83
576.704	1661.88
577.126	1649.16
577.549	1639.06
577.972	1628.43
578.394	1618.37
578.817	1614.43
579.239	1595.52
579.661	1582.57
580.084	1568.17
580.506	1554.31
580.928	1551.52
581.35	1541.48
581.772	1537.97
582.194	1526.1
582.616	1514.46
583.038	1500.47
583.46	1488.91
583.882	1486.12
584.303	1489.12
584.725	1483.87
585.147	1488.18
585.568	1498.49
585.99	1509.51
586.411	1515.95
586.833	1529.91
587.254	1531.77
587.675	1545.22
588.096	1555.59
588.518	1549.45
588.939	1534.14
589.36	1531.92
589.781	1518.75
590.202	1490.6
590.623	1481.49
591.043	1478.57
591.464	1466.01
591.885	1461.02
592.305	1455.24
592.726	1441.62
593.147	1443.51
593.567	1437.55
593.987	1430.95
594.408	1426.65
594.828	1424.2
595.248	1419.12
595.669	1400.37
596.089	1393.14
596.509	1386.83
596.929	1373.63
597.349	1375.55
597.769	1365.62
598.189	1359.88
598.608	1360.81
599.028	1361.97
599.448	1362.83
599.867	1349.86
600.287	1346.5
600.706	1342.75
601.126	1333.55
601.545	1332.59
601.965	1330.55
602.384	1324.73
602.803	1326.44
603.222	1321.2
603.641	1313.86
604.061	1309.11
604.48	1304.28
604.898	1310.39
605.317	1313.44
605.736	1313.84
606.155	1310.52
606.574	1301.67
606.992	1306.38
607.411	1301.21
607.829	1292.44
608.248	1289.39
608.666	1286.64
609.085	1285.73
609.503	1277.99
609.921	1273.32
610.339	1275.29
610.758	1273.69
611.176	1267.81
611.594	1258.26
612.012	1254.62
612.43	1257.83
612.847	1262.62
613.265	1263.73
613.683	1267.16
614.101	1266.34
614.518	1260.52
614.936	1250.66
615.353	1235.81
615.771	1232.64
616.188	1232.66
616.606	1227.5
617.023	1219.5
617.44	1206.21
617.857	1197.64
618.274	1188.97
618.691	1184.44
619.108	1175.35
619.525	1169.06
619.942	1174.63
620.359	1175.79
620.776	1169.03
621.192	1165.29
621.609	1163.11
622.026	1168.22
622.442	1173.69
622.859	1176.04
623.275	1167.83
623.691	1172.18
624.108	1181.84
624.524	1194.03
624.94	1193.46
625.356	1203.34
625.772	1214.56
626.188	1224.92
626.604	1226.35
627.02	1221.52
627.436	1219.24
627.852	1225.35
628.268	1235.98
628.683	1226.74
629.099	1219.36
629.514	1214.91
629.93	1218.14
630.345	1223.52
630.761	1219.72
631.176	1222.82
631.591	1217.98
632.007	1212.44
632.422	1210.26
632.837	1199.45
633.252	1197.45
633.667	1187.3
634.082	1177.7
634.497	1165.78
634.911	1147.64
635.326	1142.66
635.741	1125.87
636.155	1114.8
636.57	1114.78
636.984	1113.71
637.399	1115.41
637.813	1113.41
638.228	1110.57
638.642	1112.94
639.056	1101.08
639.47	1098.18
639.884	1089.57
640.298	1080.35
640.712	1076.88
641.126	1063.31
641.54	1051.69
641.954	1041.94
642.368	1028.56
642.781	1021.14
643.195	1002.2
643.609	999.65
644.022	991.87
644.436	983.54
644.849	970.28
645.262	956.72
645.676	955.65
646.089	950.29
646.502	936.66
646.915	929.1
647.328	910.07
647.741	907.29
648.154	894.31
648.567	890.68
648.98	878.62
649.393	878.17
649.805	873.95
650.218	865.3
650.631	848.84
651.043	841.11
651.456	834.52
651.868	833.24
652.28	845.19
652.693	854.11
653.105	857
653.517	863.36
653.929	861.94
654.341	864.36
654.753	852.77
655.165	857.66
655.577	853.39
655.989	847.29
656.401	837.69
656.813	807.18
657.224	789.34
657.636	761.73
658.047	744.73
658.459	725.86
658.87	715.48
659.282	702.01
659.693	682.09
660.104	667.94
660.515	654.16
660.926	649.75
661.338	643.14
661.749	634.45
662.159	625.92
662.57	618.34
662.981	611.06
663.392	601.5
663.803	602.07
664.213	597.39
664.624	590.85
665.035	589.77
665.445	576.62
665.855	569.4
666.266	561.58
666.676	556.32
667.086	547.82
667.497	546.6
667.907	541.23
668.317	532.3
668.727	530.78
669.137	528.78
669.547	526.3
669.956	526.5
670.366	526.82
670.776	526.21
671.186	528.69
671.595	530.43
672.005	530.45
672.414	530.48
672.824	530.5
673.233	529.52
673.642	531.08
674.052	533.76
674.461	536.44
674.87	538.08
675.279	537.95
675.688	537.84
676.097	539.18
676.506	538.36
676.915	547.62
677.323	549.19
677.732	549.04
678.141	548.83
678.549	540.71
678.958	540.07
679.366	540.74
679.775	543.86
680.183	554.99
680.592	560.23
681	565.3
681.408	563.15
681.816	570.94
682.224	579.18
682.632	592.31
683.04	618.58
683.448	641.85
683.856	669.68
684.264	702.99
684.671	730.83
685.079	767.22
685.487	807.65
685.894	862.2
686.302	909.28
686.709	952.45
687.116	999.07
687.524	1041.35
687.931	1079.98
688.338	1115.1
688.745	1143.2
689.152	1177.98
689.559	1221.64
689.966	1267.78
690.373	1293.58
690.78	1335.48
691.187	1397.49
691.593	1445.15
692	1489.25
692.407	1550.04
692.813	1625.71
693.22	1687.45
693.626	1750.2
694.032	1803.49
694.439	1879.25
694.845	1939.84
695.251	2015.44
695.657	2081.78
696.063	2180.37
696.469	2254.8
696.875	2325.4
697.281	2365.3
697.687	2414.8
698.093	2458.79
698.498	2535.62
698.904	2594.08
699.31	2683.87
699.715	2750.34
700.12	2842.9
700.526	2864.82
700.931	2936.03
701.337	2989.79
701.742	3025.53
702.147	3112.08
702.552	3145.72
702.957	3208.14
703.362	3232.55
703.767	3263.25
704.172	3305.35
704.577	3261.02
704.981	3310.82
705.386	3329.76
705.791	3324.32
706.195	3400.33
706.6	3409.88
707.004	3487.52
707.408	3457.73
707.813	3486.41
708.217	3476.62
708.621	3478.57
709.025	3576.46
709.43	3579.95
709.834	3640.01
710.237	3708.25
710.641	3692.63
711.045	3715.25
711.449	3713.72
711.853	3744.66
712.256	3785.72
712.66	3823.08
713.064	3898.65
713.467	3939.55
713.87	4047.41
714.274	4092.5
714.677	4201.72
715.08	4362.88
715.484	4530.35
715.887	4731.32
716.29	4925.45
716.693	5133.01
717.096	5370.22
717.499	5497.91
717.901	5523.73
718.304	5553.63
718.707	5578.11
719.109	5477.55
719.512	5444.73
719.915	5311.32
720.317	5249.72
720.719	5291.5
721.122	5258.49
721.524	5208.69
721.926	5171.1
722.328	5268.7
722.731	5258.1
723.133	5285.35
723.535	5473.95
723.937	5497.65
724.338	5547.88
724.74	5592.89
725.142	5559.67
725.544	5560.16
725.945	5591.4
726.347	5584.72
726.748	5580.79
727.15	5595.25
727.551	5558.43
727.952	5529.54
728.354	5497.17
728.755	5495.23
729.156	5450.24
729.557	5408.98
729.958	5285.46
730.359	5224.91
730.76	5205.97
731.161	5144.59
731.562	5116.53
731.962	5117.26
732.363	5055.27
732.763	4994.93
733.164	5029.52
733.564	4962.06
733.965	4868.5
734.365	4835.1
734.766	4861.94
735.166	4823.38
735.566	4768.9
735.966	4743.02
736.366	4736.57
736.766	4674.86
737.166	4701.49
737.566	4660.16
737.966	4634.2
738.365	4672.71
738.765	4667.95
739.165	4595.05
739.564	4569.25
739.964	4611.72
740.363	4564.79
740.763	4562.31
741.162	4552.68
741.561	4522.87
741.96	4479.24
742.36	4498.95
742.759	4504.92
743.158	4541.47
743.557	4555.61
743.955	4593.84
744.354	4551.72
744.753	4611.33
745.152	4572.29
745.55	4625.91
745.949	4618.9
746.348	4620.94
746.746	4638.4
747.144	4598.26
747.543	4576.67
747.941	4625.81
748.339	4557.35
748.737	4550.54
749.136	4540.92
749.534	4605.25
749.932	4578.36
750.33	4602.91
750.727	4656.49
751.125	4633.18
751.523	4618.15
751.921	4661.72
752.318	4626.7
752.716	4686.42
753.113	4696.86
753.511	4721.5
753.908	4719.49
754.305	4703.85
754.703	4762.53
755.1	4822.45
755.497	4880.14
755.894	5065.04
756.291	5237.17
756.688	5557.8
757.085	5982.73
757.482	6587.23
757.878	7248
758.275	7845.76
758.672	8660.29
759.068	9328.51
759.465	10278.44
759.861	11505.75
760.258	12932.45
760.654	13669.56
761.05	13566.02
761.447	12944.06
761.843	12048.24
762.239	11120.85
762.635	10700.71
763.031	10301.57
763.427	9724.04
763.822	9117.86
764.218	8514.65
764.614	7735.01
765.01	7215.73
765.405	6873.86
765.801	6618.6
766.196	6294.33
766.592	6111.67
766.987	5804.48
767.382	5592.98
767.778	5503.79
768.173	5378.68
768.568	5311.01
768.963	5189.04
769.358	5206.48
769.753	5163.07
770.148	5085.66
770.542	5082.02
770.937	5048.63
771.332	5136.99
771.726	5159.75
772.121	5104.15
772.515	5155.31
772.91	5140.8
773.304	5210.86
773.699	5146.93
774.093	5200.38
774.487	5252.07
774.881	5297.37
775.275	5298.23
775.669	5259.56
776.063	5303.99
776.457	5336.57
776.851	5265.93
777.245	5257.63
777.638	5293.34
778.032	5406.86
778.425	5374.57
778.819	5416.84
779.212	5378.27
779.606	5337.94
779.999	5357.05
780.392	5342.85
780.786	5425.46
781.179	5448.34
781.572	5495.44
781.965	5505.32
782.358	5447.41
782.751	5500.21
783.143	5451.96
783.536	5520.96
783.929	5565.28
784.322	5679.72
784.714	5706.86
785.107	5701.5
785.499	5770.16
785.891	5748.9
786.284	5733.01
786.676	5873.07
787.068	5858.26
787.46	5910.35
787.852	5930.64
788.245	6015.1
788.636	6042.69
789.028	6112.13
789.42	6152.33
789.812	6161.5
790.204	6250.53
790.595	6346.64
790.987	6155.7
791.378	6178.68
791.77	6307.44
792.161	6439.28
792.553	6493.31
792.944	6384.5
793.335	6318.68
793.726	6392.27
794.117	6482.95
794.508	6621.44
794.899	6590.92
795.29	6729.25
795.681	6784.3
796.072	6643.88
796.463	6474.9
796.853	6485.41
797.244	6642.5
797.634	6673.95
798.025	6670.79
798.415	6678.04
798.806	6763.07
799.196	6848.14
799.586	6900.26
799.976	6867.36
800.366	7091.84
800.756	7313.4
801.146	7277.01
801.536	7302.14
801.926	7374.1
802.316	7401.64
802.706	7477.4
803.095	7363.82
803.485	7464.51
803.874	7505.73
804.264	7759.04
804.653	7740.64
805.043	7889.88
805.432	7999.05
805.821	8009
806.21	8035.09
806.599	8154.4
806.988	8202.31
807.377	8308.49
807.766	8439.61
808.155	8718.48
808.544	8461.19
808.933	8475.99
809.321	8459.81
809.71	8754.01
810.098	8908.26
810.487	9363.5
810.875	9841.82
811.264	9863.59
811.652	10157.72
812.04	10307.97
812.428	10473.91
812.816	11234.56
813.204	11652.7
813.592	12198.93
813.98	12535.61
814.368	12452.9
814.756	12931.73
815.144	12853.61
815.531	13323.3
815.919	13250.91
816.306	13558.37
816.694	13252.57
817.081	13303.42
817.469	13647.48
817.856	13645.22
818.243	13910.4
818.63	14302.9
819.017	13894.91
819.404	13966
819.791	14344
820.178	14952.14
820.565	15195.31
820.952	16131.09
821.339	15647.72
821.725	15838.03
822.112	15112.21
822.498	15075.66
822.885	15201.19
823.271	15104.31
823.657	15508.04
824.044	15515.19
824.43	15579.94
824.816	15554.6
825.202	15116.13
825.588	16118.91
825.974	16134.29
826.36	16636.96
826.746	16663.54
827.132	17002.17
827.517	16974.76
827.903	16201.6
828.289	16240.77
828.674	15471.39
829.06	15354.89
829.445	15739.73
829.83	16084.5
830.216	16542.81
830.601	16904.06
830.986	16498.66
831.371	16366.98
831.756	16914.91
832.141	16477.74
832.526	16457.55
832.911	16730.14
833.295	16615.39
833.68	17073.63
834.065	16465.38
834.449	15557.43
834.834	15483.13
835.218	15468.64
835.603	15805.48
835.987	15587.6
836.371	16410.58
836.755	16312.6
837.139	16694.62
837.524	16930.39
837.908	16750.6
838.291	16804.1
838.675	16865.71
839.059	17060.64
839.443	17060.48
839.827	16827.81
840.21	17295.63
840.594	17150.62
840.977	17350.69
841.361	17339.09
841.744	17703.06
842.127	17548.41
842.511	17787.88
842.894	18379.52
843.277	18744.27
843.66	19264.02
844.043	19347.75
844.426	18566.16
844.809	18259.44
845.191	18290.57
845.574	17837.05
845.957	17473.4
846.339	17375.49
846.722	16866.79
847.104	16939.58
847.487	16776.5
847.869	16798.04
848.252	17067.74
848.634	17380.67
849.016	17633.79
849.398	17757.43
849.78	18598.31
850.162	18613.62
850.544	19025.56
850.926	19646.98
851.307	19555.48
851.689	19836.45
852.071	20281.18
852.452	20599.87
852.834	20590.54
853.215	20992.44
853.597	21143.19
853.978	21430.52
854.359	21882.22
854.741	20904.6
855.122	20797.78
855.503	20513.64
855.884	20648.61
856.265	20589.56
856.646	20707.46
857.026	20318.94
857.407	20244.59
857.788	20397.7
858.169	20671.1
858.549	19844
858.93	20457.29
859.31	20497
859.69	20702.16
860.071	20291.09
860.451	20076.77
860.831	19345.44
861.211	20483.56
861.591	21022.02
861.971	20988.43
862.351	21182.69
862.731	21553.14
863.111	21806.39
863.491	22138.63
863.87	23002.15
864.25	23341.71
864.629	22948.76
865.009	23449.5
865.388	24293.83
865.768	26036.18
866.147	25943.45
866.526	24504.66
866.905	24801.5
867.284	26186.51
867.663	24852.46
868.042	23812.56
868.421	23740.78
868.8	24125.52
869.179	24367.18
869.558	22928.14
869.936	21129.29
870.315	21501.74
870.693	22024.12
871.072	23735.51
871.45	22610.46
871.828	22912.4
872.207	24092.26
872.585	23730.59
872.963	24376.69
873.341	23537.37
873.719	23268.75
874.097	22982.02
874.475	23428.32
874.853	23970.81
875.23	22977.77
875.608	23932.27
875.986	25876.62
876.363	24736.9
876.741	25488.73
877.118	24856.85
877.495	26075.18
877.873	26499.55
878.25	27888.41
878.627	26731.98
879.004	27096.45
879.381	26953.13
879.758	26251.83
880.135	24440.41
880.512	25854.21
880.889	25159.35
881.265	24896.11
881.642	24689.94
882.019	25104.13
882.395	24600.9
882.772	25580.85
883.148	24469.06
883.524	24391.45
883.901	24252.16
884.277	24613.32
884.653	24449.82
885.029	25160.14
885.405	27866.57
885.781	27638.28
886.157	26509.81
886.532	26837.39
886.908	26827.62
887.284	29837.53
887.659	30801.76
888.035	31739.56
888.411	32546.83
888.786	32967.21
889.161	34104.76
889.537	33470.75
889.912	34552.38
890.287	34514.84
890.662	35383.3
891.037	34728.3
891.412	32375.85
891.787	32048.36
892.162	30943.95
892.536	31669.39
892.911	30494.34
893.286	29840.53
893.66	28631.15
894.035	29360.67
894.409	31968.75
894.784	30689.6
895.158	31194.48
895.532	33049.93
895.906	33946.87
896.281	34744.02
896.655	34188.08
897.029	39045.7
897.402	40671.39
897.776	45275.93
898.15	45106.9
898.524	44617.1
898.898	45206.6
899.271	50628.46
899.645	43852.84
900.018	42140.75
900.392	43676.57
900.765	44034.45
901.138	40754.11
901.511	40145.12
901.884	36861.31
902.258	34017.35
902.631	35151.25
903.003	40463.32
903.376	36494.87
903.749	40914.08
904.122	43755.18
904.495	48176.42
904.867	48769.82
905.24	42332.28
905.612	39386.75
905.985	40259.53
906.357	42084.86
906.729	40163.04
907.102	34286.76
907.474	32972.64
907.846	33168.79
908.218	32754.79
908.59	28957.41
908.962	28013.04
909.334	30168.19
909.705	31690.58
910.077	30776.8
910.449	32036.99
910.82	32922.95
911.192	36236.7
911.563	37660.95
911.935	40294.96
912.306	40343.92
912.677	41641.34
913.048	41229.15
913.419	44735.57
913.79	44986.65
914.161	48220.15
914.532	46068.56
914.903	42353.54
915.274	40237.34
915.645	39664.39
916.015	34927.39
916.386	33293.73
916.756	35456.51
917.127	36607.83
917.497	32708.23
917.868	35608.75
918.238	33852.89
918.608	34840.52
918.978	35539.97
919.348	37621.52
919.718	38876.75
920.088	37442.85
920.458	38889.92
920.828	40931.99
921.198	38783.86
921.567	41450.94
921.937	32102.98
922.306	32409.07
922.676	34958.93
923.045	29198.81
923.415	27751.19
923.784	25263.84
924.153	25977.66
924.522	25965.45
924.891	24415.15
925.26	26142.49
925.629	25512.64
925.998	29335.22
926.367	28636.76
926.736	27273.96
927.104	32479.29
927.473	34924.09
927.842	42204.57
928.21	41843.08
928.578	44009.24
928.947	41624.29
929.315	41920.1
929.683	49241.38
930.051	49666.22
930.42	57720.78
930.788	49341.35
931.156	48987.99
931.523	45957.67
931.891	42504.04
932.259	40828.06
932.627	47338.53
932.994	67001.73
933.362	55386.78
933.729	48054.07
934.097	45980.08
934.464	38895.5
934.831	44921.7
935.199	44271.23
935.566	42935.5
935.933	43417.96
936.3	52612.57
936.667	40959.39
937.034	36993.49
937.401	36599.17
937.767	31608.06
938.134	28170.59
938.501	39791.3
938.867	42407.36
939.234	71790.73
939.6	61249.32
939.967	67670.35
940.333	45277.56
940.699	38582.86
941.065	30932.74
941.431	40600.63
941.798	39186.92
942.163	51463.04
942.529	32081.95
942.895	29542.39
943.261	19111
943.627	25080.35
943.992	21945.42
944.358	21981.03
944.723	22049.27
945.089	21480.17
945.454	19817.44
945.82	21175.58
946.185	20364.3
946.55	23646.87
946.915	21199.31
947.28	24845.12
947.645	21849.57
948.01	20198.78
948.375	21086.44
948.74	25252.1
949.104	29443.66
949.469	42473.25
949.834	74976.57
950.198	71082.52
950.562	42554.76
950.927	35447.73
951.291	42655.54
951.655	36365.34
952.02	34128.57
952.384	25775.01
952.748	22444.96
953.112	21901.63
953.476	19070.77
953.839	17627.19
954.203	17458.47
954.567	21844.9
954.931	34385.53
955.294	29438.33
955.658	29590.16
956.021	50234.42
956.385	85072.84
956.748	125515.09
957.111	194639.68
957.474	218230.83
957.837	245747.18
958.2	185780.75
958.563	66734.94
958.926	45099.62
959.289	68388.3
959.652	76344.22
960.015	57351.67
960.377	82376.75
960.74	93936.71
961.102	161983.7
961.465	174165.04
961.827	93480.2
962.189	179213.73
962.552	124513.49
962.914	99923.04
963.276	64848.35
963.638	53656.27
964	53111.15
964.362	35878.58
964.724	34683.43
965.085	24746.15
965.447	20264.51
965.809	23039.65
966.17	23037.04
966.532	24879.22
966.893	22799.46
967.255	20740.85
967.616	24449.17
967.977	19578.15
968.338	21379.12
968.699	17579.01
969.061	17569.54
969.421	17698.95
969.782	19865.57
970.143	16799.74
970.504	17422.45
970.865	19807.64
971.225	20262.34
971.586	19820.97
971.946	28220.18
972.307	24486.88
972.667	31981.45
973.027	32933.08
973.388	39901.21
973.748	27147.16
974.108	29596.8
974.468	39978.65
974.828	30889.6
975.188	23750.26
975.548	21832.43
975.907	18337.37
976.267	20561.2
976.627	17304.08
976.986	17946.33
977.346	17127.07
977.705	16471.29
978.064	14988.13
978.424	12477.58
978.783	12859.24
979.142	14671.33
979.501	14056.84
979.86	14856.3
980.219	14333.15
980.578	18493.71
980.937	20711.83
981.296	18443.95
981.654	18952.88
982.013	29488.4
982.371	38305.83
982.73	35840.38
983.088	40582.81
983.447	43343.52
983.805	62022.79
984.163	129590.37
984.521	143658.39
984.879	210526.55
985.237	-342261.8
985.595	330345.09
985.953	82200.83
986.311	47420.87
986.669	27526.26
987.026	23754.97
987.384	31913.64
987.741	33004.39
988.099	23635.87
988.456	18830.79
988.814	17666.94
989.171	15338.8
989.528	15110.43
989.885	15916.97
990.242	12609.11
990.599	15706.51
990.956	12855.86
991.313	8984.95
991.67	7377.5
992.027	7825.78
992.383	6965.82
992.74	6103.98
993.096	6420.38
993.453	6660.49
993.809	6922.35
994.165	9217.84
994.522	8478.88
994.878	9345.98
995.234	11739.42
995.59	11580.46
995.946	10932.1
996.302	12451.6
996.658	14344.67
997.013	15788.85
997.369	18784.82
997.725	24054.58
998.08	15577.82
998.436	23882.16
998.791	32887.74
999.147	32838.51
999.502	35759.59
999.857	26006.05
1000.212	42493.99
1000.567	60775.26
1000.922	35064.86
1001.277	22232.19
1001.632	16444.41
1001.987	21217.49
1002.342	15250.88
1002.696	12227.68
1003.051	9785.94
1003.406	11889.76
1003.76	11846.78
1004.114	11671.36
1004.469	9824.83
1004.823	8133.69
1005.177	8784.39
1005.531	6979.23
1005.885	6193.5
1006.239	7007.41
1006.593	8789.53
1006.947	11756.29
1007.301	8810.45
1007.655	9576.56
1008.008	7043.63
1008.362	7901.43
1008.715	11271.59
1009.069	10207.48
1009.422	15388.2
1009.776	30905.82
1010.129	20442.58
1010.482	17099.91
1010.835	14427.91
1011.188	30028.62
1011.541	28337.44
1011.894	-172612.3
1012.247	507763.11
1012.6	34589.8
1012.952	21919.15
1013.305	11244.61
1013.657	8113.56
1014.01	7707.13
1014.362	6348.14
1014.715	5671.16
1015.067	4936.38
1015.419	4831.85
1015.771	4293.67
1016.123	3818.01
1016.475	3945.46
1016.827	4192.75
1017.179	4529.96
1017.531	4544.22
1017.883	4648.15
1018.234	4504.51
1018.586	5659.4
1018.938	6023.36
1019.289	8305.27
1019.64	9460.19
1019.992	8809.88
1020.343	8015.22
1020.694	6372.9
1021.045	5635.89
1021.396	6457.77
1021.747	6935.45
1022.098	8310.44
1022.449	6031.58
1022.8	5575.91
1023.151	3888.04
1023.501	3459.74
1023.852	3765.03
1024.202	3931.79
1024.553	4309.66
1024.903	4200.92
1025.253	3609.63
1025.604	3242.87
1025.954	4006.73
1026.304	4883.27
1026.654	5717.54
1027.004	8406.44
1027.354	13586.59
1027.703	12899.71
1028.053	16873.79
1028.403	24563.2
1028.753	35633.45
1029.102	48319.37
1029.452	248272.31
1029.801	10790.84
1030.15	6974.07
1030.499	5890.39
897.758	3376.82
901.051	3366.86
904.343	3407.5
907.636	3396.72
910.928	3468.93
914.22	3367.27
917.511	3380.12
920.803	3475.28
924.094	3523.82
927.384	3469.62
930.675	3433.14
933.965	3371.65
937.255	3362.02
940.544	3325.25
943.834	3165.16
947.123	3124.29
950.411	3235.45
953.7	3196.36
956.988	3134.33
960.276	3083.71
963.563	3211.24
966.851	3192.47
970.138	3274.74
973.424	3247.35
976.711	3195.86
979.997	3469.71
983.283	3482.97
986.568	3343.46
989.853	3392.83
993.138	3428.97
996.423	3511.73
999.708	3420.37
1002.992	3543.72
1006.275	3251.84
1009.559	3368.66
1012.842	3511.85
1016.125	3412.97
1019.408	3390.12
1022.69	3525.35
1025.972	3527.83
1029.254	3494.43
1032.536	3379.59
1035.817	3428.6
1039.098	3322.42
1042.379	3611.42
1045.659	3556.27
1048.939	3464.74
1052.219	3506.25
1055.498	3538.5
1058.778	3508.38
1062.057	3499.39
1065.335	3516.82
1068.614	3553.63
1071.892	3514.94
1075.17	3622.35
1078.447	3597.78
1081.724	3580.13
1085.001	3633.07
1088.278	3600.49
1091.554	3620.35
1094.83	3618.78
1098.106	3646.96
1101.382	3711.26
1104.657	3709.53
1107.932	3708.67
1111.206	3651.04
1114.481	3606.93
1117.755	3620.89
1121.029	3579.67
1124.302	3626.52
1127.575	3556.77
1130.848	3528.9
1134.121	3473.96
1137.393	3405.61
1140.665	3492.62
1143.937	3472.45
1147.208	3359.79
1150.48	3389.39
1153.75	3368.28
1157.021	3443.71
1160.291	3396.32
1163.561	3436.07
1166.831	3460.35
1170.101	3499.06
1173.37	3471.51
1176.639	3385.1
1179.907	3458.98
1183.176	3530.69
1186.444	3530.44
1189.711	3562.57
1192.979	3561.59
1196.246	3523.49
1199.513	3546.7
1202.78	3538.88
1206.046	3543.48
1209.312	3596.24
1212.578	3633.76
1215.843	3560.89
1219.108	3538.31
1222.373	3566.51
1225.638	3509.37
1228.902	3482.16
1232.166	3433.93
1235.43	3409.25
1238.693	3423.38
1241.956	3431.26
1245.219	3459.03
1248.482	3469.99
1251.744	3456.43
1255.006	3653.01
1258.268	3612.74
1261.529	3539.6
1264.79	3560.01
1268.051	3704.27
1271.312	3726.07
1274.572	3679.69
1277.832	3672.87
1281.092	3674.11
1284.351	3614.75
1287.61	3587.11
1290.869	3466.54
1294.128	3415.5
1297.386	3561.85
1300.644	3543.86
1303.902	3558.85
1307.159	3396.89
1310.416	3459.78
1313.673	3475.48
1316.93	3446.63
1320.186	3521.14
1323.442	3578.19
1326.697	3551.93
1329.953	3564.69
1333.208	3576.43
1336.463	3560.16
1339.717	3484.53
1342.972	3563.66
1346.226	3575.66
1349.479	3481.22
1352.733	3431.55
1355.986	3474.88
1359.238	3444.03
1362.491	3442.73
1365.743	3449.77
1368.995	3451.59
1372.247	3466.14
1375.498	3475.78
1378.749	3555.69
1382	3486.31
1385.251	3567.2
1388.501	3538.56
1391.751	3504.86
1395	3484.59
1398.25	3524.74
1401.499	3517.67
1404.748	3428.9
1407.996	3324.06
1411.244	3321.82
1414.492	3294.68
1417.74	3265.57
1420.987	3289.81
1424.234	3341.38
1427.481	3345.81
1430.728	3401.8
1433.974	3378.58
1437.22	3411.15
1440.465	3410.97
1443.711	3428.15
1446.956	3464.17
1450.201	3474.32
1453.445	3524
1456.689	3484.3
1459.933	3503.6
1463.177	3531.79
1466.42	3501.17
1469.663	3478.91
1472.906	3443.91
1476.148	3601.73
1479.391	3465.08
1482.633	3453.65
1485.874	3453.15
1489.115	3413.47
1492.356	3442.9
1495.597	3412.1
1498.838	3425.33
1502.078	3367.47
1505.318	3279.52
1508.557	3340.76
1511.797	3243.6
1515.036	3441.62
1518.274	3419.12
1521.513	3405.67
1524.751	3439.61
1527.989	3443.22
1531.227	3446.69
1534.464	3411.95
1537.701	3469.84
1540.938	3502.22
1544.174	3457.55
1547.41	3470.96
1550.646	3509.97
1553.882	3533.12
1557.117	3583.85
1560.352	3612.66
1563.587	3561.63
1566.821	3508
1570.055	3576.18
1573.289	3530.15
1576.523	3634.74
1579.756	3631.66
1582.989	3646.53
1586.222	3603.31
1589.454	3659.44
1592.686	3619.46
1595.918	3641.62
1599.15	3616.78
1602.381	3733.42
1605.612	3649.55
1608.843	3759.26
1612.073	3653.31
1615.303	3632.36
1618.533	3610.89
1621.762	3624.32
1624.992	3623.54
1628.221	3587.18
1631.449	3565.7
1634.678	3665.11
1637.906	3604.1
1641.134	3661.99
1644.361	3603.03
1647.588	3585.87
1650.815	3593.81
1654.042	3592.47
1657.269	3632.31
1660.495	3581.9
1663.72	3506.12
1666.946	3503.56
1670.171	3396.24
1673.396	3372.27
1676.621	3375.11
1679.845	3427.66
1683.069	3472.65
1686.293	3537.82
1689.517	3483.29
1692.74	3368.63
1695.963	3385.39
1699.185	3503.4
1702.408	3441.95
1705.63	3503.56
1708.852	3509.46
1712.073	3474.71
1715.294	3439.14
1718.515	3447.85
1721.736	3398.74
1724.956	3343.72
1728.176	3384.45
1731.396	3400.84
1734.616	3404.23
1737.835	3405.39
1741.054	3404.98
1744.272	3404.36
1747.491	3414.46
1750.709	3507.98
1753.927	3415.64
1757.144	3470.7
1760.361	3562.57
1763.578	3570.44
1766.795	3497.48
1770.011	3517.59
1773.227	3588.36
1776.443	3614.65
1779.658	3660.46
1782.874	3603.83
1786.089	3563.77
1789.303	3569.36
1792.518	3579.36
1795.732	3569.36
1798.945	3572.58
1802.159	3638.01
1805.372	3485.66
1808.585	3453.02
1811.797	3458.16
1815.01	3545.05
1818.222	3551.62
1821.434	3399.83
1824.645	3521.77
1827.856	3474.19
1831.067	3533.39
1834.278	3435.06
1837.488	3429.79
1840.698	3624.32
1843.908	3516.75
1847.117	3473.56
1850.326	3284.91
1853.535	3434.59
1856.744	3585.82
1859.952	3451.42
1863.16	3450.02
1866.368	3469.43
1869.575	3650.17
1872.782	3515.38
1875.989	3459.4
1879.196	3598.75
1882.402	3594.36
1885.608	3648.05
1888.814	3497.08
1892.019	3363.41
1895.224	3417.35
1898.429	3414.01
1901.634	3381.92
1904.838	3365.73
1908.042	3406.82
1911.246	3404.48
1914.449	3286.88
1917.652	3306.18
1920.855	3292.1
1924.058	3372.32
1927.26	3400.31
1930.462	3439.3
1933.664	3452.41
1936.865	3376.36
1940.066	3369.05
1943.267	3321.53
1946.467	3347.91
1949.668	3386.99
1952.868	3452.5
1956.067	3408.09
1959.267	3326.34
1962.466	3361.09
1965.665	3350
1968.863	3347.16
1972.061	3386.98
1975.259	3391.05
1978.457	3481.29
1981.654	3428.68
1984.852	3430.77
1988.048	3328.99
1991.245	3353.79
1994.441	3443.82
1997.637	3462.26
2000.833	3442.9
2004.028	3490.68
2007.223	3529.2
2010.418	3492.48
2013.613	3460.08
2016.807	3395.69
2020.001	3424.14
2023.194	3504.61
2026.388	3463.61
2029.581	3410.99
2032.774	3443.51
2035.966	3438.26
2039.158	3347.35
2042.35	3388.54
2045.542	3310.66
2048.733	3451.24
2051.924	3518.1
2055.115	3563.03
2058.306	3467.55
2061.496	3540.24
2064.686	3627.1
2067.875	3548.11
2071.065	3581.53
2074.254	3620.47
2077.442	3570.04
2080.631	3677.99
2083.819	3500.39
2087.007	3462.02
2090.195	3414.02
2093.382	3478.69
2096.569	3452.33
2099.756	3385.48
2102.942	3380.12
2106.128	3371.09
2109.314	3370.55
2112.5	3297.78
2115.685	3283.54
2118.87	3298.71
2122.055	3377.46
2125.239	3317.6
2128.424	3268.82
2131.608	3443.64
2134.791	3424.1
2137.974	3517.77
2141.157	3495.04
2144.34	3417.44
2147.523	3421.48
2150.705	3414.54
2153.887	3412.58
2157.068	3326.32
2160.25	3358.42
2163.431	3425.97
2166.611	3326.82
2169.792	3340.73
2172.972	3203.6
2176.152	3329.31
2179.331	3375.24
2182.511	3369.76
2185.69	3406.1
2188.868	3390.82
2192.047	3478.92
2195.225	3434.32
2198.403	3378.97
2201.58	3385.1
2204.758	3386.11
2207.935	3486.09
2211.111	3327.35
2214.288	3305.41
2217.464	3358.53
2220.64	3336.49
2223.815	3402.53
2226.991	3305.8
2230.166	3333.29
2233.34	3343.56
2236.515	3383.37
2239.689	3478.72
2242.863	3407.58
2246.036	3476.24
2249.209	3503.46
2252.382	3558.6
2255.555	3532.11
2258.727	3443.08
2261.9	3498.95
2265.071	3488.9
2268.243	3500.97
2271.414	3406.94
2274.585	3330.98
2277.756	3417.08
2280.926	3368.56
2284.096	3426.1
2287.266	3295.59
2290.436	3368.13
2293.605	3415.38
2296.774	3433.52
2299.942	3480.92
2303.111	3497.93
2306.279	3543.57
2309.447	3533.81
2312.614	3511.63
2315.781	3525.9
2318.948	3478.11
2322.115	3525.15
2325.281	3420.15
2328.447	3457.87
2331.613	3438.91
2334.779	3381.35
2337.944	3398
2341.109	3387.23
2344.274	3362.06
2347.438	3321.22
2350.602	3354.12
2353.766	3379.89
2356.929	3358.44
2360.092	3408.33
2363.255	3331.45
2366.418	3214.56
2369.58	3401.1
2372.742	3047.02
2375.904	3091.47
2379.066	3048.46
2382.227	3100.66
2385.388	3057.97
2388.548	2949.99
2391.709	3028.42
2394.869	2998.16
2398.029	3160.11
2401.188	3200.4
2404.347	3089.78
2407.506	3329.9
2410.665	3352.06
2413.823	3384.52
2416.981	3306.49
2420.139	3362.24
2423.296	3428.52
2426.453	3402.03
2429.61	3427.79
2432.767	3311.94
2435.923	3370.66
2439.079	3226.97
2442.235	3326.62
2445.391	3225.44
2448.546	3230.52
2451.701	3310.83
2454.855	3242.53
2458.009	3329.67
2461.163	3352.02
2464.317	3291.08
2467.471	3333.25
2470.624	3372.34
2473.777	3439.9
2476.929	3425.18
2480.082	3456.31
2483.234	3426.99
2486.385	3272.83
2489.537	3278.52
2492.688	3197.04
2495.839	3216.11
2498.989	3217.15
2502.14	3196.62
2505.29	3160.64
2508.439	3196.6
2511.589	3089.99
2514.738	3119.71
2517.887	3149.1
2521.035	3330.16
2524.183	3323.87
2527.331	3291.17
2530.479	3235.23
2533.627	3259.77
