Data from N_3_DIV_WI_4N_Splice17_12-57-54-388.txt Node
Date: Sat Mar 14 12:57:54 EDT 2020
User: sa697716
Spectrometer: FLMS03696
Trigger mode: 0
Integration Time (sec): 3.180400E-1
Scans to average: 20
Electric dark correction enabled: true
Nonlinearity correction enabled: true
Boxcar width: 5
XAxis mode: Wavelengths
Number of Pixels in Spectrum: 2048
>>>>>Begin Spectral Data<<<<<
187.83	-239108.75
188.298	1718.75
188.766	947.26
189.233	768.67
189.701	1133.41
190.169	1578.97
190.636	552.9
191.104	473.87
191.571	39.12
192.039	-99.97
192.506	-171.22
192.974	318.52
193.441	-719.51
193.908	-160.27
194.375	-110.94
194.842	-53.02
195.31	5.19
195.777	101.85
196.244	277.18
196.711	236.16
197.177	279.42
197.644	345.98
198.111	609.85
198.578	855.18
199.045	653.28
199.511	1018.97
199.978	1132.56
200.445	984.15
200.911	1071.17
201.378	1140.24
201.844	1055.87
202.31	1761.22
202.777	1828.03
203.243	1014.81
203.709	961.78
204.176	1167.16
204.642	1003.91
205.108	971.47
205.574	777.27
206.04	679.51
206.506	656.43
206.972	612.9
207.438	591.51
207.903	672.45
208.369	600.07
208.835	621.87
209.301	652.59
209.766	652.88
210.232	657.14
210.697	811.07
211.163	1024.04
211.628	1515.14
212.094	1333.2
212.559	1729.96
213.024	1113.5
213.49	1407.43
213.955	1351.39
214.42	1321.72
214.885	1241.87
215.35	1216.26
215.815	1266.7
216.28	1386.21
216.745	1142.59
217.21	1261.75
217.675	1181.88
218.14	1374.09
218.604	1577.61
219.069	1907.32
219.534	2116.92
219.998	2555.2
220.463	3180.05
220.927	3949.88
221.392	3799.36
221.856	3943.29
222.32	5056.6
222.785	6346.79
223.249	8102.21
223.713	9161.4
224.177	9242.39
224.642	11893.7
225.106	14731.48
225.57	16175.81
226.034	12192.94
226.497	18699.04
226.961	17012.85
227.425	19937.47
227.889	22223.8
228.353	22355.35
228.816	46360.09
229.28	44546.56
229.744	37761.77
230.207	23111.97
230.671	22857.03
231.134	37853.48
231.597	43862.71
232.061	44066.76
232.524	43044.08
232.987	29798.64
233.45	26924.09
233.914	24249.06
234.377	24955.76
234.84	22948.98
235.303	27126.13
235.766	30365.29
236.229	31499.31
236.691	19881.61
237.154	22387.98
237.617	16928.69
238.08	17358.72
238.542	20367.93
239.005	14617.18
239.468	14532.39
239.93	13726.44
240.393	12511.96
240.855	11029.91
241.317	11331.72
241.78	13832.81
242.242	14370.72
242.704	15582.8
243.166	13628.55
243.629	12448.22
244.091	14408.62
244.553	15859.46
245.015	17131.98
245.477	22245.28
245.939	32729.08
246.4	34865.36
246.862	34036.99
247.324	32201.53
247.786	36148.05
248.247	47573.83
248.709	49268.39
249.17	36955.94
249.632	34958.97
250.093	40638.59
250.555	35238.75
251.016	21594.47
251.477	20573.5
251.939	22292.67
252.4	23458.47
252.861	27969.59
253.322	26097.64
253.783	31165.9
254.244	40556.43
254.705	32099.94
255.166	28632.44
255.627	28268.52
256.088	39936.18
256.549	42493.74
257.009	36624.28
257.47	44478.18
257.931	36315.71
258.391	27280.81
258.852	28146
259.312	29555.81
259.773	36557.72
260.233	30962.11
260.694	26163.69
261.154	29769.08
261.614	23969.03
262.074	21500.66
262.534	22415.76
262.994	21191.19
263.455	28314.82
263.915	23920.93
264.374	22583.94
264.834	24703.46
265.294	27413.44
265.754	28448.54
266.214	26965.42
266.673	25311.07
267.133	32036.57
267.593	31885.74
268.052	39066.99
268.512	33999.73
268.971	41029.4
269.431	45079.18
269.89	40460.21
270.349	60798.57
270.809	67913.27
271.268	61119.43
271.727	137117.64
272.186	88758.68
272.645	66557.66
273.104	48079.12
273.563	69709.79
274.022	54944.19
274.481	46738.44
274.94	36023.76
275.399	26802.12
275.857	31230.63
276.316	42273.77
276.775	37701.87
277.233	37198.72
277.692	34864.52
278.15	39462.97
278.609	40599.71
279.067	37573.24
279.525	34943.41
279.984	45181.04
280.442	54299.55
280.9	53514.11
281.358	35244.29
281.816	32836.6
282.274	32136.66
282.732	33156.77
283.19	33322.14
283.648	28763.2
284.106	30632.13
284.564	31169.94
285.021	28908.95
285.479	21541.37
285.937	19603.74
286.394	17207.23
286.852	17730.9
287.309	18658.84
287.767	18068.51
288.224	17213.8
288.682	18930.97
289.139	20832.83
289.596	19088.91
290.053	19885.84
290.511	25179.91
290.968	30675.9
291.425	41790.02
291.882	34865.8
292.339	30448.1
292.796	30329.26
293.252	28678.21
293.709	22831.2
294.166	20485.65
294.623	22701.65
295.079	21807.4
295.536	21945.53
295.992	19938.05
296.449	19726.89
296.905	20521.45
297.362	19691.94
297.818	20705.1
298.274	21442.74
298.731	21867.64
299.187	21684.3
299.643	23303.96
300.099	28189.95
300.555	30912.83
301.011	25845.99
301.467	24894.02
301.923	29148.07
302.379	28482.8
302.835	27996.47
303.291	28077.55
303.746	32000.15
304.202	40418.1
304.658	40540.62
305.113	27305.28
305.569	26760.64
306.024	28506.67
306.479	27180.95
306.935	22909.13
307.39	25034.76
307.845	23111.45
308.301	23260.93
308.756	22648.61
309.211	21812.04
309.666	22346.27
310.121	27713.44
310.576	28127.84
311.031	27913.09
311.486	31938.27
311.94	31935.57
312.395	42632.49
312.85	80105.28
313.305	393358.15
313.759	2035150.23
314.214	147558.1
314.668	117041.76
315.123	98504.48
315.577	35357.47
316.032	31473.63
316.486	39450.32
316.94	31138.16
317.394	21732.38
317.849	16920.65
318.303	16049.8
318.757	15171.82
319.211	16784.4
319.665	14710.74
320.119	14920.92
320.572	21401.56
321.026	20005.4
321.48	16683.66
321.934	18217.24
322.387	18261.58
322.841	19729.23
323.295	17719.89
323.748	20417.14
324.202	20730.42
324.655	24871.89
325.108	34686.73
325.562	24541.2
326.015	29231.25
326.468	22090.13
326.921	24706.28
327.374	23047.97
327.827	24021.95
328.28	27239.88
328.733	18258.31
329.186	16052.83
329.639	15324.14
330.092	12925.6
330.545	12309.2
330.997	12395.23
331.45	13551.06
331.903	15876.33
332.355	27293.6
332.808	26541.57
333.26	21920.39
333.713	23805.73
334.165	23984.72
334.617	31999.8
335.069	25876.13
335.522	46745.83
335.974	51815.02
336.426	47373.8
336.878	32820.39
337.33	16665.75
337.782	16250.49
338.234	20340.66
338.686	24344.24
339.137	28879.72
339.589	27270.56
340.041	21380.89
340.493	18393.84
340.944	18847.01
341.396	20337.21
341.847	17137.99
342.299	20216.96
342.75	24719.81
343.201	21670.07
343.653	24931.11
344.104	30712.89
344.555	24193.75
345.006	37706.9
345.457	28938.33
345.908	23048.81
346.359	21684.87
346.81	17675.55
347.261	18686.53
347.712	18436.91
348.163	19733.9
348.613	20011.95
349.064	18690.91
349.515	16379.49
349.965	16808.26
350.416	20242.08
350.866	22231.96
351.317	25150.66
351.767	41669.63
352.217	52604.08
352.668	43660.11
353.118	40011.79
353.568	38585.43
354.018	30514.5
354.468	32138.67
354.918	23080.88
355.368	20198.16
355.818	28519.09
356.268	82025.33
356.718	343038.87
357.168	85435.49
357.617	42916.48
358.067	47733.33
358.517	44741.17
358.966	52437.56
359.416	58874.52
359.865	63552.37
360.315	75765.59
360.764	35411.7
361.213	19841.07
361.663	18857.17
362.112	23286.37
362.561	37589.91
363.01	28357.97
363.459	23893.31
363.908	25886.63
364.357	21987.34
364.806	37216.95
365.255	25594.82
365.703	23430.07
366.152	23493.56
366.601	19043.05
367.05	15451.61
367.498	14029.98
367.947	14685.21
368.395	15265.62
368.844	13513.95
369.292	16286.47
369.74	11247.93
370.189	17226.92
370.637	20191.78
371.085	17424.25
371.533	21211.99
371.981	20445.07
372.429	19454.92
372.877	20282.06
373.325	16977.04
373.773	17283.55
374.221	15367.93
374.669	19077.81
375.116	16483.84
375.564	16599.63
376.012	18540.86
376.459	15243.18
376.907	18175.18
377.354	21982.7
377.801	20453.01
378.249	23449.95
378.696	29936.57
379.143	36265.76
379.591	38596.29
380.038	65262.79
380.485	47118.09
380.932	50732.7
381.379	46331.04
381.826	34065.39
382.273	24224.58
382.72	21151.04
383.166	20611.45
383.613	13363.38
384.06	12033.21
384.506	13881.62
384.953	10174.94
385.4	10227.23
385.846	8950.86
386.292	8715.18
386.739	8528.28
387.185	8409.56
387.631	8389.34
388.078	8116.56
388.524	8669.68
388.97	7991.03
389.416	6657.29
389.862	7072.84
390.308	6685.39
390.754	6782.76
391.2	7339.95
391.645	7498.65
392.091	7166.89
392.537	6916.58
392.983	6907.98
393.428	6774.54
393.874	7243.2
394.319	7247.98
394.765	6850.21
395.21	7030.07
395.655	6587.75
396.101	6172.04
396.546	5558.81
396.991	5591.67
397.436	5183.93
397.881	5009.49
398.326	4733.39
398.771	4475.02
399.216	3909.65
399.661	3506.65
400.106	3489.11
400.551	3564.93
400.995	3184.15
401.44	3144.66
401.885	2955.07
402.329	2986.94
402.774	2862.33
403.218	2769.99
403.663	2665.59
404.107	2735.31
404.551	2756.57
404.995	2523.03
405.44	2425.53
405.884	2462.13
406.328	2379.42
406.772	2364.83
407.216	2151.59
407.66	2072.59
408.104	1962.2
408.547	1835.43
408.991	1778.01
409.435	1710.26
409.879	1688.24
410.322	1664.82
410.766	1605
411.209	1523.39
411.653	1459.71
412.096	1426.25
412.54	1427.19
412.983	1421.67
413.426	1422.79
413.869	1416.64
414.312	1388.03
414.756	1333.35
415.199	1269.55
415.642	1233.91
416.085	1233.99
416.527	1225.03
416.97	1241.43
417.413	1177.94
417.856	1162.11
418.298	1150.64
418.741	1144.11
419.184	1142.53
419.626	1188.59
420.069	1190.37
420.511	1195.96
420.953	1172.86
421.396	1161.57
421.838	1132.4
422.28	1157.47
422.722	1162.86
423.164	1176.76
423.606	1155.77
424.048	1150.81
424.49	1092.09
424.932	1081.71
425.374	1064.69
425.816	1080.54
426.258	1102.43
426.699	1115.22
427.141	1099.11
427.582	1113.51
428.024	1104.14
428.465	1095.42
428.907	1066.96
429.348	1054.78
429.789	1054.23
430.231	1030.86
430.672	1042.53
431.113	1014.1
431.554	994.7
431.995	964.57
432.436	927.9
432.877	905.99
433.318	888.3
433.759	879.57
434.2	875.68
434.64	864.78
435.081	865.28
435.522	817.23
435.962	785.27
436.403	767.53
436.843	775.02
437.284	756.46
437.724	732.72
438.164	732.37
438.604	716.48
439.045	689.84
439.485	660.02
439.925	644.06
440.365	625.84
440.805	616.03
441.245	607.38
441.685	584.2
442.125	577.09
442.564	580.25
443.004	565.01
443.444	562.52
443.883	561.67
444.323	553.82
444.762	550.97
445.202	556.78
445.641	566.2
446.081	560.48
446.52	565.35
446.959	559.68
447.398	545.5
447.837	538.07
448.276	527.95
448.716	531.37
449.154	535.6
449.593	525.22
450.032	522.87
450.471	511.13
450.91	510.7
451.349	507.72
451.787	505.5
452.226	513.42
452.664	513.02
453.103	512.21
453.541	510.51
453.98	511.38
454.418	514.02
454.856	507.67
455.295	507.76
455.733	512.04
456.171	515.16
456.609	513.66
457.047	512.54
457.485	519.75
457.923	521.61
458.361	514.66
458.798	514.8
459.236	512.9
459.674	514.58
460.111	515.76
460.549	509.69
460.987	506.2
461.424	506.38
461.862	503.51
462.299	496.4
462.736	495.77
463.173	496.92
463.611	493.75
464.048	492.01
464.485	496.17
464.922	491.44
465.359	487.52
465.796	486.62
466.233	482.26
466.67	477.99
467.106	476.78
467.543	471.45
467.98	465.21
468.416	452.05
468.853	448.43
469.29	434.66
469.726	429.32
470.162	418.44
470.599	408.09
471.035	404.21
471.471	394.46
471.907	391.12
472.344	388.2
472.78	389.05
473.216	392.91
473.652	388.03
474.088	387.12
474.523	386.95
474.959	391.25
475.395	389.27
475.831	387.63
476.266	390.08
476.702	390.16
477.138	387.19
477.573	385.91
478.008	384.93
478.444	388.04
478.879	392.77
479.314	394.89
479.75	394.82
480.185	396.73
480.62	399.83
481.055	402.69
481.49	405.86
481.925	411.95
482.36	421.64
482.795	433.01
483.229	444.45
483.664	453.37
484.099	455.57
484.534	463.18
484.968	467.69
485.403	469.55
485.837	468.33
486.271	466.89
486.706	466.75
487.14	460.35
487.574	453.48
488.009	449.21
488.443	445.37
488.877	450.45
489.311	451.29
489.745	456.63
490.179	460.86
490.613	470.4
491.046	474.67
491.48	478.04
491.914	478.3
492.348	481.81
492.781	484.8
493.215	485.45
493.648	484.49
494.082	488.12
494.515	487.53
494.948	491.99
495.382	493.76
495.815	495.75
496.248	499.15
496.681	507.38
497.114	513.93
497.547	520.17
497.98	528.55
498.413	533.64
498.846	539.66
499.279	544.52
499.711	546.9
500.144	547.4
500.577	554.72
501.009	561.39
501.442	567.6
501.874	568.17
502.306	567.43
502.739	573.73
503.171	582.11
503.603	583.51
504.036	589
504.468	592.2
504.9	598.88
505.332	601.68
505.764	603.61
506.196	606.91
506.627	614.76
507.059	622.54
507.491	624.25
507.923	620.98
508.354	628.15
508.786	632.69
509.217	641.61
509.649	648.92
510.08	658.07
510.512	665.96
510.943	672.31
511.374	676.72
511.805	686.1
512.237	694.8
512.668	711.29
513.099	723.39
513.53	736.49
513.961	745.93
514.391	760.83
514.822	777.79
515.253	794.18
515.684	805.61
516.114	819.21
516.545	827.94
516.975	839.7
517.406	845.47
517.836	844.05
518.267	844.56
518.697	850.94
519.127	849.13
519.558	848.6
519.988	847.67
520.418	848.82
520.848	854.74
521.278	855.88
521.708	869.13
522.138	872.86
522.567	886.64
522.997	896.72
523.427	901.55
523.857	908.67
524.286	911.11
524.716	916.38
525.145	924.32
525.575	927.53
526.004	932.5
526.433	917.72
526.863	916.02
527.292	908.78
527.721	909.47
528.15	910.61
528.579	908.72
529.008	911.7
529.437	921.66
529.866	926
530.295	933.05
530.724	938.07
531.152	951.65
531.581	957.81
532.01	965.27
532.438	968.49
532.867	974.79
533.295	983.69
533.723	986.87
534.152	984.87
534.58	983.84
535.008	974.54
535.436	974.75
535.865	977.43
536.293	982.49
536.721	989.83
537.149	1002.37
537.576	1003.43
538.004	1008.63
538.432	1011.17
538.86	1009.63
539.287	1012.91
539.715	1020.16
540.143	1020.96
540.57	1017.8
540.998	1015.75
541.425	1004.53
541.852	992.42
542.28	989.83
542.707	981.63
543.134	975.1
543.561	972.12
543.988	968.71
544.415	967.2
544.842	963.98
545.269	961.03
545.696	962.61
546.123	968.94
546.549	964.02
546.976	958.21
547.403	957.61
547.829	957.98
548.256	959.57
548.682	957.06
549.108	953.74
549.535	952.85
549.961	953.04
550.387	946.21
550.813	943.92
551.24	947.73
551.666	948.2
552.092	943.88
552.518	940.25
552.943	936.74
553.369	940.75
553.795	943.99
554.221	945.87
554.646	944.99
555.072	951.76
555.498	953.29
555.923	957.83
556.349	965.91
556.774	970.48
557.199	972.24
557.625	977.08
558.05	975.66
558.475	981.58
558.9	982.11
559.325	979.21
559.75	976.29
560.175	974.47
560.6	972.35
561.025	972.34
561.449	974.72
561.874	979.11
562.299	982.82
562.723	987.47
563.148	983.6
563.572	987.41
563.997	995.11
564.421	999.62
564.846	1001.28
565.27	1005.98
565.694	1006.75
566.118	1014.34
566.542	1021.06
566.966	1019.57
567.39	1019.75
567.814	1016.9
568.238	1018.78
568.662	1023.31
569.086	1027.44
569.509	1032.97
569.933	1027.32
570.357	1025.54
570.78	1014.95
571.204	1010.06
571.627	1005.55
572.05	1006.38
572.474	1007.99
572.897	1003.05
573.32	1001.24
573.743	997.45
574.166	990.82
574.589	991.86
575.012	989.45
575.435	991.88
575.858	988.48
576.281	984.73
576.704	978.3
577.126	972.95
577.549	968.02
577.972	962.73
578.394	959.51
578.817	958.44
579.239	948.86
579.661	943.18
580.084	936.6
580.506	930.36
580.928	929.3
581.35	923.27
581.772	922.52
582.194	916.49
582.616	911.12
583.038	902.75
583.46	895.87
583.882	895.89
584.303	898.06
584.725	896.16
585.147	900.19
585.568	907.73
585.99	916.34
586.411	920.74
586.833	930.82
587.254	932.41
587.675	942.53
588.096	951.53
588.518	949.17
588.939	941.41
589.36	940.37
589.781	932.52
590.202	917.48
590.623	912.89
591.043	912.23
591.464	904.26
591.885	904.09
592.305	900.5
592.726	892.27
593.147	893.88
593.567	890.87
593.987	887.11
594.408	884.3
594.828	881.89
595.248	879.3
595.669	869.97
596.089	866.84
596.509	862.29
596.929	853.91
597.349	855.35
597.769	848.98
598.189	846.08
598.608	847.84
599.028	849.3
599.448	849.97
599.867	842.7
600.287	840.25
600.706	838.95
601.126	833.93
601.545	834.61
601.965	834.28
602.384	831.99
602.803	833.59
603.222	831.48
603.641	828.34
604.061	826.56
604.48	825.12
604.898	830.03
605.317	832.94
605.736	834.87
606.155	834.39
606.574	830.1
606.992	834.84
607.411	834.27
607.829	835.19
608.248	834.98
608.666	835.28
609.085	836.49
609.503	833.01
609.921	831.17
610.339	833.67
610.758	834.25
611.176	832.28
611.594	827.8
612.012	827.18
612.43	825.82
612.847	830.49
613.265	832.36
613.683	835.13
614.101	837.57
614.518	835.05
614.936	829.54
615.353	821.78
615.771	820.71
616.188	822.66
616.606	821.16
617.023	817.66
617.44	810.18
617.857	806.51
618.274	802.41
618.691	799.34
619.108	794.79
619.525	792.04
619.942	796.63
620.359	799.51
620.776	795.77
621.192	794.32
621.609	793.21
622.026	797.97
622.442	802.48
622.859	804.59
623.275	800.2
623.691	803.94
624.108	812.18
624.524	822.34
624.94	821.59
625.356	828.42
625.772	836.25
626.188	842.83
626.604	843.6
627.02	841.03
627.436	841.15
627.852	846.27
628.268	854.3
628.683	847.42
629.099	841.56
629.514	839
629.93	840.85
630.345	843.92
630.761	842.29
631.176	845.12
631.591	843.05
632.007	838.91
632.422	836.84
632.837	829.39
633.252	829.17
633.667	822.48
634.082	816.5
634.497	809.87
634.911	798.63
635.326	796.62
635.741	785.25
636.155	777.51
636.57	779.7
636.984	781.25
637.399	783.99
637.813	784.98
638.228	785.63
638.642	789.63
639.056	784
639.47	784.69
639.884	780.21
640.298	778.49
640.712	779.78
641.126	771.66
641.54	767.04
641.954	764.08
642.368	756.7
642.781	754.31
643.195	744.38
643.609	746.12
644.022	743.47
644.436	741.62
644.849	734.55
645.262	727.65
645.676	730.05
646.089	727.7
646.502	719.66
646.915	716.36
647.328	705.92
647.741	705.43
648.154	697.57
648.567	697.75
648.98	690.35
649.393	691.61
649.805	691.5
650.218	687.68
650.631	677.3
651.043	674.32
651.456	671.83
651.868	671.83
652.28	684.05
652.693	694.88
653.105	697.98
653.517	705.93
653.929	707.32
654.341	710.86
654.753	704.1
655.165	710.07
655.577	707.95
655.989	705.91
656.401	701.21
656.813	678.72
657.224	664.3
657.636	646.43
658.047	634.76
658.459	621.85
658.87	615.44
659.282	606.63
659.693	593.48
660.104	585.02
660.515	576
660.926	576.15
661.338	573.81
661.749	569.4
662.159	563.79
662.57	560.14
662.981	556.69
663.392	552.49
663.803	556.11
664.213	553.71
664.624	551.79
665.035	553.8
665.445	544.1
665.855	539.81
666.266	535.97
666.676	533.61
667.086	527.27
667.497	527.16
667.907	522.46
668.317	514.8
668.727	513.99
669.137	511.49
669.547	509.99
669.956	510.45
670.366	509.93
670.776	509.5
671.186	511.34
671.595	513.37
672.005	515.03
672.414	513.67
672.824	513.56
673.233	513.14
673.642	515.04
674.052	516.19
674.461	516.77
674.87	519.31
675.279	517.65
675.688	516.43
676.097	517.27
676.506	513.68
676.915	522.68
677.323	523.55
677.732	522.15
678.141	521.51
678.549	513.11
678.958	511.07
679.366	509.72
679.775	511.25
680.183	519.84
680.592	523.17
681	526.09
681.408	521.59
681.816	525.18
682.224	530.15
682.632	537.11
683.04	557.47
683.448	575
683.856	596.07
684.264	619.55
684.671	639.12
685.079	663.76
685.487	692.13
685.894	731.88
686.302	763.92
686.709	790.21
687.116	820.05
687.524	842.97
687.931	861
688.338	874.6
688.745	885.06
689.152	899.81
689.559	919.98
689.966	939.91
690.373	942.76
690.78	958.25
691.187	986.37
691.593	1004.36
692	1017.59
692.407	1044.22
692.813	1080.18
693.22	1103.37
693.626	1124.82
694.032	1140.62
694.439	1168.86
694.845	1190.97
695.251	1221.43
695.657	1246.65
696.063	1287.15
696.469	1314.69
696.875	1337.99
697.281	1342.55
697.687	1354.36
698.093	1361.93
698.498	1389.95
698.904	1410.17
699.31	1443.79
699.715	1464.52
700.12	1498.06
700.526	1496.63
700.931	1519.86
701.337	1534.93
701.742	1542.27
702.147	1573.78
702.552	1580.05
702.957	1598.25
703.362	1597.05
703.767	1600.57
704.172	1608.67
704.577	1579.05
704.981	1592.27
705.386	1591.24
705.791	1580.72
706.195	1607.16
706.6	1603.97
707.004	1632.68
707.408	1611.94
707.813	1618.92
708.217	1607.12
708.621	1601.47
709.025	1639.05
709.43	1634.79
709.834	1656.73
710.237	1680.67
710.641	1667.87
711.045	1673.97
711.449	1668.13
711.853	1678.95
712.256	1691.33
712.66	1702.17
713.064	1730.63
713.467	1743
713.87	1785.42
714.274	1800.71
714.677	1841.72
715.08	1906.32
715.484	1972.3
715.887	2054.44
716.29	2129
716.693	2211.97
717.096	2308.53
717.499	2357.27
717.901	2361.19
718.304	2368.11
718.707	2372.19
719.109	2326.19
719.512	2307.92
719.915	2248.24
720.317	2219.41
720.719	2234.01
721.122	2218.43
721.524	2192.84
721.926	2176.96
722.328	2213.45
722.731	2203.73
723.133	2212.2
723.535	2286.78
723.937	2289.57
724.338	2307.77
724.74	2321.72
725.142	2335.24
725.544	2333.62
725.945	2352.18
726.347	2342.81
726.748	2339.48
727.15	2345.96
727.551	2330.14
727.952	2314.71
728.354	2301.29
728.755	2297.52
729.156	2276.77
729.557	2226.36
729.958	2170.79
730.359	2136.42
730.76	2126.05
731.161	2098.79
731.562	2084.66
731.962	2082.06
732.363	2057.78
732.763	2031.3
733.164	2042.65
733.564	2014.64
733.965	1977.19
734.365	1963.41
734.766	1974.31
735.166	1958.21
735.566	1937.61
735.966	1926.36
736.366	1923.4
736.766	1898.12
737.166	1910.92
737.566	1894.21
737.966	1884.08
738.365	1899.27
738.765	1897.85
739.165	1866.48
739.564	1855.58
739.964	1871.8
740.363	1853.62
740.763	1850.67
741.162	1844.67
741.561	1829.72
741.96	1811.41
742.36	1817.76
742.759	1818.97
743.158	1830.87
743.557	1835.73
743.955	1850.5
744.354	1832.87
744.753	1853.71
745.152	1838.34
745.55	1859.13
745.949	1856.17
746.348	1856.97
746.746	1860.99
747.144	1847.43
747.543	1839.18
747.941	1857.48
748.339	1830.53
748.737	1827.39
749.136	1824.06
749.534	1848.04
749.932	1839.2
750.33	1848.77
750.727	1869.58
751.125	1861.49
751.523	1852.22
751.921	1871.24
752.318	1859.02
752.716	1884.41
753.113	1889.66
753.511	1898.54
753.908	1899.85
754.305	1894.93
754.703	1919.08
755.1	1942.71
755.497	1965.21
755.894	2038.47
756.291	2105.67
756.688	2235.05
757.085	2402.85
757.482	2638.21
757.878	2899.52
758.275	3133.52
758.672	3450.35
759.068	3712.6
759.465	4083.47
759.861	4566.12
760.258	5125.39
760.654	5412.31
761.05	5367.64
761.447	5116.03
761.843	4767.71
762.239	4406.28
762.635	4241.76
763.031	4085.67
763.427	3859.09
763.822	3622.64
764.218	3389.21
764.614	3084.44
765.01	2879.32
765.405	2745.45
765.801	2648.15
766.196	2518.94
766.592	2447.02
766.987	2325.49
767.382	2243.31
767.778	2207.9
768.173	2156.57
768.568	2127.6
768.963	2080.31
769.358	2087.87
769.753	2070.99
770.148	2038.29
770.542	2038.26
770.937	2026.7
771.332	2062.7
771.726	2070.86
772.121	2052.02
772.515	2075.13
772.91	2070.39
773.304	2097.63
773.699	2071.98
774.093	2091.71
774.487	2113.56
774.881	2129.05
775.275	2126.38
775.669	2108.89
776.063	2125.16
776.457	2136.3
776.851	2108.19
777.245	2103.05
777.638	2114.12
778.032	2158.32
778.425	2144.88
778.819	2163.3
779.212	2150.11
779.606	2137.35
779.999	2144.29
780.392	2138.82
780.786	2168.88
781.179	2176.62
781.572	2197.23
781.965	2202.97
782.358	2181.73
782.751	2203.62
783.143	2183.08
783.536	2210.52
783.929	2223.15
784.322	2270.17
784.714	2280.92
785.107	2278.92
785.499	2308.82
785.891	2299.53
786.284	2290.71
786.676	2345.07
787.068	2337.42
787.46	2360.22
787.852	2365.17
788.245	2398.32
788.636	2406.95
789.028	2435.75
789.42	2453.04
789.812	2453.55
790.204	2489.11
790.595	2531.32
790.987	2455.64
791.378	2465.52
791.77	2512.37
792.161	2566.32
792.553	2589.73
792.944	2547.92
793.335	2517.15
793.726	2544.74
794.117	2582.48
794.508	2634.33
794.899	2620.17
795.29	2673.88
795.681	2693.72
796.072	2639.1
796.463	2586.84
796.853	2594.39
797.244	2655.95
797.634	2670.83
798.025	2668.94
798.415	2670.37
798.806	2708.06
799.196	2744.11
799.586	2766.72
799.976	2754.33
800.366	2844.63
800.756	2915.34
801.146	2893.68
801.536	2901.3
801.926	2927.28
802.316	2939.44
802.706	2967.46
803.095	2921.13
803.485	2959.83
803.874	2971.79
804.264	3071.55
804.653	3062.57
805.043	3121.31
805.432	3169.83
805.821	3176.02
806.21	3187.45
806.599	3231.08
806.988	3247.73
807.377	3284.48
807.766	3332.18
808.155	3440.93
808.544	3336.5
808.933	3336.18
809.321	3330.5
809.71	3438.44
810.098	3496.34
810.487	3668.07
810.875	3850.53
811.264	3858.99
811.652	3979.67
812.04	4033.01
812.428	4097.91
812.816	4390.24
813.204	4552.75
813.592	4757.75
813.98	4885.66
814.368	4848.56
814.756	5035.68
815.144	5007.6
815.531	5188.83
815.919	5148.68
816.306	5268.98
816.694	5146.42
817.081	5166.81
817.469	5304.32
817.856	5304.57
818.243	5401.82
818.63	5553.25
819.017	5393.36
819.404	5417.35
819.791	5565.99
820.178	5799.71
820.565	5891.78
820.952	6257.38
821.339	6066.43
821.725	6135.64
822.112	5847.61
822.498	5841.28
822.885	5889.92
823.271	5851.41
823.657	6009.34
824.044	6003.04
824.43	6029.55
824.816	6028.26
825.202	5856.12
825.588	6244.82
825.974	6252.27
826.36	6449.03
826.746	6454.98
827.132	6586.11
827.517	6584.47
827.903	6279.47
828.289	6298.71
828.674	6002.2
829.06	5957.24
829.445	6107.5
829.83	6242.76
830.216	6417.87
830.601	6562.9
830.986	6414.57
831.371	6368.71
831.756	6575.45
832.141	6420.36
832.526	6419.9
832.911	6531.29
833.295	6480.27
833.68	6656.71
834.065	6423.23
834.449	6073.28
834.834	6046.64
835.218	6043.46
835.603	6171.09
835.987	6084.41
836.371	6397.28
836.755	6353.01
837.139	6499.72
837.524	6594.44
837.908	6523.3
838.291	6544.11
838.675	6568.97
839.059	6640.78
839.443	6632.14
839.827	6540.07
840.21	6725.04
840.594	6666.74
840.977	6744.45
841.361	6735.05
841.744	6875.68
842.127	6818.78
842.511	6910.96
842.894	7135.57
843.277	7277.1
843.66	7476.69
844.043	7509.94
844.426	7204.46
844.809	7079
845.191	7096.37
845.574	6921.06
845.957	6779.73
846.339	6739.54
846.722	6542.23
847.104	6565.47
847.487	6502.19
847.869	6511.39
848.252	6619.84
848.634	6744.28
849.016	6847.32
849.398	6891.08
849.78	7210.84
850.162	7208.47
850.544	7362.96
850.926	7594.93
851.307	7558.09
851.689	7665.6
852.071	7830.16
852.452	7947.1
852.834	7941.66
853.215	8095.64
853.597	8147.16
853.978	8262.83
854.359	8436.15
854.741	8062.12
855.122	8021.65
855.503	7914.65
855.884	7963.18
856.265	7943.96
856.646	7979.99
857.026	7828.97
857.407	7799.3
857.788	7864.83
858.169	7968.7
858.549	7656.71
858.93	7888.17
859.31	7915.4
859.69	8002.33
860.071	7853.93
860.451	7772.71
860.831	7501.81
861.211	7940.39
861.591	8152.73
861.971	8141.78
862.351	8216.55
862.731	8357.35
863.111	8457.12
863.491	8580.82
863.87	8911.57
864.25	9038.04
864.629	8889.97
865.009	9076.25
865.388	9392.07
865.768	10057.53
866.147	10004.24
866.526	9449.55
866.905	9561.75
867.284	10099.47
867.663	9584.77
868.042	9179.56
868.421	9147.16
868.8	9291.23
869.179	9390.41
869.558	8843.18
869.936	8156.58
870.315	8300.64
870.693	8515.31
871.072	9175.66
871.45	8744.11
871.828	8861.07
872.207	9314.97
872.585	9174.43
872.963	9423.51
873.341	9101.32
873.719	9006.11
874.097	8902.45
874.475	9080.26
874.853	9280.13
875.23	8904.81
875.608	9273.36
875.986	10031.6
876.363	9599.17
876.741	9905.3
877.118	9667.75
877.495	10140.61
877.873	10304.1
878.25	10832.99
878.627	10382.23
879.004	10524.67
879.381	10471.84
879.758	10205.27
880.135	9493.67
880.512	10035.8
880.889	9754.21
881.265	9652.46
881.642	9565.84
882.019	9720.33
882.395	9532.81
882.772	9931.01
883.148	9493.33
883.524	9457.49
883.901	9396.23
884.277	9540.24
884.653	9474.75
885.029	9753.89
885.405	10798.97
885.781	10716.63
886.157	10275.29
886.532	10392.65
886.908	10381.89
887.284	11550.76
887.659	11927.15
888.035	12289.38
888.411	12600.88
888.786	12767.18
889.161	13200.29
889.537	12944.87
889.912	13364.29
890.287	13355.71
890.662	13699.05
891.037	13437.02
891.412	12528.2
891.787	12394.1
892.162	11961.26
892.536	12233.77
892.911	11777.41
893.286	11527.83
893.66	11066.54
894.035	11345.52
894.409	12351.77
894.784	11856.39
895.158	12056.69
895.532	12765.4
895.906	13114.6
896.281	13428.05
896.655	13225.35
897.029	15111.78
897.402	15744.63
897.776	17518.55
898.15	17458.48
898.524	17260.38
898.898	17482.81
899.271	19563.99
899.645	16947.98
900.018	16277.81
900.392	16877.45
900.765	16994.05
901.138	15715.15
901.511	15467.39
901.884	14207.68
902.258	13111.24
902.631	13557.9
903.003	15594.92
903.376	14067.84
903.749	15785.23
904.122	16899.47
904.495	18603.3
904.867	18831.71
905.24	16362.81
905.612	15223.94
905.985	15557.67
906.357	16249.69
906.729	15507.1
907.102	13254.76
907.474	12749.51
907.846	12827.68
908.218	12662.67
908.59	11204.53
908.962	10850.36
909.334	11687.03
909.705	12291.8
910.077	11935.88
910.449	12423.61
910.82	12774.57
911.192	14046.57
911.563	14606.01
911.935	15610.19
912.306	15619.71
912.677	16114.02
913.048	15957.43
913.419	17311.76
913.79	17384.05
914.161	18661.91
914.532	17848.18
914.903	16386.35
915.274	15567.27
915.645	15331.52
916.015	13502.88
916.386	12885.43
916.756	13719.47
917.127	14151.74
917.497	12643.19
917.868	13771.39
918.238	13087
918.608	13462.92
918.978	13764.03
919.348	14578.08
919.718	15067.85
920.088	14521.71
920.458	15077.24
920.828	15858.07
921.198	15041.65
921.567	16069.93
921.937	12448.4
922.306	12562.41
922.676	13549.43
923.045	11312.66
923.415	10759.02
923.784	9797.93
924.153	10083.39
924.522	10083.68
924.891	9481.61
925.26	10153.46
925.629	9904.07
925.998	11387.21
926.367	11102.06
926.736	10593.3
927.104	12592.7
927.473	13504.02
927.842	16321.08
928.21	16138.61
928.578	16930.51
928.947	15998.53
929.315	16095.23
929.683	18908.93
930.051	19065.16
930.42	22158.46
930.788	18917.94
931.156	18773.24
931.523	17661.57
931.891	16326.12
932.259	15676.75
932.627	18188.77
932.994	25758.54
933.362	21293.45
933.729	18463.78
934.097	17656.04
934.464	14957.57
934.831	17202.85
935.199	16946.12
935.566	16398.86
935.933	16649.16
936.3	20194.39
936.667	15714
937.034	14231
937.401	14057.69
937.767	12146.55
938.134	10817.22
938.501	15201.71
938.867	16230.46
939.234	27436.8
939.6	23372.01
939.967	25613.04
940.333	17137.86
940.699	14555.96
941.065	11600.79
941.431	15206.45
941.798	14682.46
942.163	19281.6
942.529	12080.21
942.895	11110.18
943.261	7210.41
943.627	9467.46
943.992	8293.08
944.358	8300.41
944.723	8384.02
945.089	8176.7
945.454	7579.08
945.82	8059.63
946.185	7730.87
946.55	8937.29
946.915	8014.04
947.28	9399.97
947.645	8268.48
948.01	7652.1
948.375	7992.76
948.74	9543.27
949.104	11112.98
949.469	15959.62
949.834	28270.13
950.198	26993.7
950.562	16206.15
950.927	13522.39
951.291	16235.8
951.655	13833.68
952.02	12954.25
952.384	9796.7
952.748	8551.55
953.112	8392.21
953.476	7330.19
953.839	6778.1
954.203	6713.63
954.567	8392.77
954.931	13184.47
955.294	11302.17
955.658	11392.02
956.021	19417.55
956.385	32860.72
956.748	48399.45
957.111	74971.17
957.474	83992.24
957.837	94469.28
958.2	71137
958.563	25588.27
958.926	17386.64
959.289	26381.91
959.652	29475.12
960.015	22124.74
960.377	31729.83
960.74	36246.87
961.102	62295.41
961.465	66979
961.827	36329.87
962.189	69795.71
962.552	48448.79
962.914	38784.22
963.276	25155.43
963.638	20807.22
964	20567.31
964.362	13958.66
964.724	13507.01
965.085	9648.28
965.447	7932.62
965.809	8944.2
966.17	8947.37
966.532	9664.32
966.893	8868.35
967.255	8082.28
967.616	9525.04
967.977	7637.91
968.338	8320.29
968.699	6844.78
969.061	6854.87
969.421	6891.86
969.782	7743.14
970.143	6549.12
970.504	6823
970.865	7782.36
971.225	7958.29
971.586	7785.57
971.946	11087.05
972.307	9610.78
972.667	12518.94
973.027	12905.24
973.388	15648.82
973.748	10642.1
974.108	11612.05
974.468	15636.88
974.828	12080.96
975.188	9309.09
975.548	8548.08
975.907	7201.71
976.267	8081.4
976.627	6818.18
976.986	7038.13
977.346	6699.69
977.705	6438.33
978.064	5861.53
978.424	4875.24
978.783	5000.32
979.142	5691.3
979.501	5457.88
979.86	5756.27
980.219	5554.26
980.578	7154.36
980.937	8035.63
981.296	7155.24
981.654	7362.39
982.013	11438.2
982.371	14854.08
982.73	13915.03
983.088	15765.83
983.447	16833.91
983.805	24073.3
984.163	50201.77
984.521	55520.78
984.879	81402.06
985.237	-132888.28
985.595	128552.27
985.953	31815.7
986.311	18374.37
986.669	10660.99
987.026	9208.27
987.384	12359.26
987.741	12754.84
988.099	9191.47
988.456	7340.88
988.814	6889.67
989.171	5985.14
989.528	5888.05
989.885	6230.54
990.242	4954.24
990.599	6120.23
990.956	4988.18
991.313	3486.28
991.67	2864.22
992.027	3061.48
992.383	2729.14
992.74	2384.34
993.096	2508.98
993.453	2590.77
993.809	2679.77
994.165	3554.21
994.522	3335.89
994.878	3682.65
995.234	4634.1
995.59	4562.7
995.946	4252.65
996.302	4819.41
996.658	5572.91
997.013	6113.88
997.369	7310.75
997.725	9409.21
998.08	6101.95
998.436	9208.53
998.791	12704.04
999.147	12696.62
999.502	13900.87
999.857	10091.24
1000.212	16525.07
1000.567	23612.93
1000.922	13629.01
1001.277	8607.03
1001.632	6376.34
1001.987	8239.96
1002.342	5947.13
1002.696	4745.39
1003.051	3785.11
1003.406	4590.12
1003.76	4583.66
1004.114	4518.58
1004.469	3806.61
1004.823	3139.15
1005.177	3384.17
1005.531	2674.49
1005.885	2373.62
1006.239	2675.58
1006.593	3359.21
1006.947	4508.29
1007.301	3380.48
1007.655	3674.67
1008.008	2700.65
1008.362	3011.51
1008.715	4291.93
1009.069	3911.03
1009.422	5977.72
1009.776	11956.21
1010.129	7966.04
1010.482	6659.75
1010.835	5586.24
1011.188	11594.78
1011.541	10877.42
1011.894	-66041.11
1012.247	195256.72
1012.6	13263.35
1012.952	8404.43
1013.305	4253.07
1013.657	3083.85
1014.01	2925.99
1014.362	2399.3
1014.715	2189.37
1015.067	1917.83
1015.419	1876.44
1015.771	1685.32
1016.123	1516.31
1016.475	1566.23
1016.827	1652.82
1017.179	1804.42
1017.531	1806.82
1017.883	1825.94
1018.234	1813.19
1018.586	2251.88
1018.938	2418.39
1019.289	3345.87
1019.64	3763
1019.992	3437.98
1020.343	3123.3
1020.694	2524.89
1021.045	2221.02
1021.396	2524.43
1021.747	2732.19
1022.098	3214.51
1022.449	2343.02
1022.8	2153.54
1023.151	1510.56
1023.501	1375.78
1023.852	1509.33
1024.202	1593.02
1024.553	1727.12
1024.903	1725.34
1025.253	1507.09
1025.604	1358.48
1025.954	1677.39
1026.304	2000.08
1026.654	2316.67
1027.004	3349.09
1027.354	5253.54
1027.703	4950.39
1028.053	6468.9
1028.403	9375.98
1028.753	13142.11
1029.102	17010.18
1029.452	84306.19
1029.801	3560.64
1030.15	2312.93
1030.499	1897.23
897.758	2649.84
901.051	2601.18
904.343	2635.14
907.636	2636.65
910.928	2701.26
914.22	2609.37
917.511	2617.63
920.803	2675.86
924.094	2693.38
927.384	2674.92
930.675	2636.51
933.965	2590.07
937.255	2603.09
940.544	2569.62
943.834	2514.1
947.123	2455.41
950.411	2554.7
953.7	2525.58
956.988	2496.65
960.276	2437.54
963.563	2511.4
966.851	2509.68
970.138	2564.92
973.424	2559.33
976.711	2508.32
979.997	2632.37
983.283	2669.99
986.568	2573.61
989.853	2586.83
993.138	2612.27
996.423	2693.05
999.708	2634.47
1002.992	2694.83
1006.275	2538.58
1009.559	2575.45
1012.842	2691.11
1016.125	2624.09
1019.408	2600.38
1022.69	2685.04
1025.972	2704.74
1029.254	2679.71
1032.536	2613.63
1035.817	2639.41
1039.098	2583.76
1042.379	2719.19
1045.659	2721.06
1048.939	2654.19
1052.219	2671.03
1055.498	2682.95
1058.778	2668.31
1062.057	2650.63
1065.335	2669.79
1068.614	2689.03
1071.892	2669.46
1075.17	2743.36
1078.447	2732.25
1081.724	2723.59
1085.001	2758.16
1088.278	2731.92
1091.554	2741.81
1094.83	2736.37
1098.106	2765.51
1101.382	2809.56
1104.657	2807.01
1107.932	2803.73
1111.206	2770.05
1114.481	2726.68
1117.755	2726.37
1121.029	2705.63
1124.302	2760.11
1127.575	2713.55
1130.848	2701.37
1134.121	2664.08
1137.393	2614.29
1140.665	2680.72
1143.937	2656.82
1147.208	2614.41
1150.48	2652.62
1153.75	2642.65
1157.021	2672.25
1160.291	2641.49
1163.561	2687.5
1166.831	2676.54
1170.101	2704.31
1173.37	2678.56
1176.639	2623.64
1179.907	2679.92
1183.176	2689.36
1186.444	2695.78
1189.711	2723.25
1192.979	2734.84
1196.246	2691.89
1199.513	2705.77
1202.78	2707.12
1206.046	2716.5
1209.312	2740.97
1212.578	2766.22
1215.843	2721.13
1219.108	2693.95
1222.373	2718.12
1225.638	2683.59
1228.902	2666.41
1232.166	2633.38
1235.43	2620.64
1238.693	2639.87
1241.956	2639.14
1245.219	2680.21
1248.482	2670.05
1251.744	2665.95
1255.006	2811.19
1258.268	2764.59
1261.529	2707.71
1264.79	2714.49
1268.051	2817
1271.312	2830.01
1274.572	2794.43
1277.832	2781.56
1281.092	2769.06
1284.351	2743.45
1287.61	2722.01
1290.869	2639.95
1294.128	2618.18
1297.386	2706.16
1300.644	2693.86
1303.902	2705.42
1307.159	2566.86
1310.416	2622.37
1313.673	2648.77
1316.93	2636.51
1320.186	2681.4
1323.442	2722.56
1326.697	2712.24
1329.953	2705.33
1333.208	2729.78
1336.463	2713.39
1339.717	2653.76
1342.972	2787.73
1346.226	2763.54
1349.479	2697.57
1352.733	2669.91
1355.986	2696.28
1359.238	2673.35
1362.491	2679.05
1365.743	2681.24
1368.995	2673.24
1372.247	2690.66
1375.498	2714.25
1378.749	2731.27
1382	2689.14
1385.251	2742.4
1388.501	2704.08
1391.751	2688.18
1395	2663.29
1398.25	2693.84
1401.499	2704.51
1404.748	2636.31
1407.996	2624.77
1411.244	2614.45
1414.492	2597.38
1417.74	2575.06
1420.987	2584.79
1424.234	2645.99
1427.481	2621.7
1430.728	2680.36
1433.974	2655.98
1437.22	2670.53
1440.465	2672.12
1443.711	2638.74
1446.956	2670.74
1450.201	2655.76
1453.445	2705.38
1456.689	2683.86
1459.933	2694.78
1463.177	2728.49
1466.42	2699.23
1469.663	2679.73
1472.906	2674.96
1476.148	2743.55
1479.391	2711.17
1482.633	2679.8
1485.874	2691.17
1489.115	2674.13
1492.356	2676.69
1495.597	2651.37
1498.838	2651.72
1502.078	2620.99
1505.318	2571.44
1508.557	2610.94
1511.797	2589.11
1515.036	2651.13
1518.274	2637.55
1521.513	2607.89
1524.751	2628.26
1527.989	2641.92
1531.227	2653.01
1534.464	2648.47
1537.701	2665.2
1540.938	2682.62
1544.174	2634.77
1547.41	2633.57
1550.646	2667.1
1553.882	2707.92
1557.117	2757.59
1560.352	2772.6
1563.587	2727.93
1566.821	2689.4
1570.055	2722.72
1573.289	2693.72
1576.523	2767.86
1579.756	2773.23
1582.989	2790.3
1586.222	2751.99
1589.454	2787.98
1592.686	2761.42
1595.918	2785.14
1599.15	2774.38
1602.381	2847.4
1605.612	2801.22
1608.843	2895
1612.073	2810.41
1615.303	2795.81
1618.533	2786.79
1621.762	2791.24
1624.992	2773.91
1628.221	2761.61
1631.449	2746.23
1634.678	2803.16
1637.906	2754.22
1641.134	2792.37
1644.361	2750.22
1647.588	2737.64
1650.815	2755.9
1654.042	2733.12
1657.269	2762.39
1660.495	2718.44
1663.72	2739.04
1666.946	2705.32
1670.171	2649.16
1673.396	2627.64
1676.621	2613.66
1679.845	2634.17
1683.069	2651.42
1686.293	2693.97
1689.517	2667.69
1692.74	2598.96
1695.963	2627.71
1699.185	2645.09
1702.408	2619.57
1705.63	2659.26
1708.852	2669.99
1712.073	2646.74
1715.294	2632.29
1718.515	2695.49
1721.736	2640.81
1724.956	2635.74
1728.176	2662.56
1731.396	2684.76
1734.616	2671.07
1737.835	2700.28
1741.054	2679.87
1744.272	2674.97
1747.491	2706.91
1750.709	2758.3
1753.927	2666.66
1757.144	2712.22
1760.361	2755.51
1763.578	2744.51
1766.795	2688.4
1770.011	2696.65
1773.227	2736.05
1776.443	2771.67
1779.658	2816.22
1782.874	2758.49
1786.089	2738.22
1789.303	2740.73
1792.518	2746.3
1795.732	2731.81
1798.945	2745.62
1802.159	2792.67
1805.372	2699.1
1808.585	2685.08
1811.797	2688.68
1815.01	2735.56
1818.222	2740.73
1821.434	2722.7
1824.645	2778.98
1827.856	2766.75
1831.067	2803.73
1834.278	2757.08
1837.488	2744.79
1840.698	2893.28
1843.908	2819.06
1847.117	2781.06
1850.326	2669.71
1853.535	2771.38
1856.744	2790.78
1859.952	2708.75
1863.16	2710.87
1866.368	2735.16
1869.575	2842.56
1872.782	2727.8
1875.989	2667.83
1879.196	2753.07
1882.402	2749.56
1885.608	2792.88
1888.814	2698.02
1892.019	2595.48
1895.224	2649.23
1898.429	2629.51
1901.634	2607.27
1904.838	2588.35
1908.042	2642.83
1911.246	2648.38
1914.449	2581.16
1917.652	2579.37
1920.855	2560.53
1924.058	2607.91
1927.26	2645.8
1930.462	2673.76
1933.664	2703.17
1936.865	2644.21
1940.066	2649.46
1943.267	2593.03
1946.467	2611.48
1949.668	2638.53
1952.868	2704.48
1956.067	2682.43
1959.267	2618.05
1962.466	2645.73
1965.665	2628.2
1968.863	2623.44
1972.061	2635.33
1975.259	2634.68
1978.457	2714.79
1981.654	2672.25
1984.852	2670.12
1988.048	2604.8
1991.245	2609.07
1994.441	2694.41
1997.637	2673.45
2000.833	2656.81
2004.028	2694.59
2007.223	2750
2010.418	2727.3
2013.613	2687.54
2016.807	2657.81
2020.001	2669.2
2023.194	2709.68
2026.388	2682.18
2029.581	2629.33
2032.774	2681.81
2035.966	2684.73
2039.158	2617.77
2042.35	2645.33
2045.542	2571.95
2048.733	2671.33
2051.924	2690.03
2055.115	2716.42
2058.306	2661.68
2061.496	2722.33
2064.686	2780.95
2067.875	2695.69
2071.065	2711.92
2074.254	2737.93
2077.442	2687.31
2080.631	2778.74
2083.819	2672.66
2087.007	2657.96
2090.195	2626.98
2093.382	2658.18
2096.569	2638.68
2099.756	2593.91
2102.942	2620.22
2106.128	2630.29
2109.314	2620.13
2112.5	2585.5
2115.685	2557.97
2118.87	2567.73
2122.055	2631.58
2125.239	2600.82
2128.424	2575.49
2131.608	2678.01
2134.791	2656.76
2137.974	2713.49
2141.157	2693.58
2144.34	2648.06
2147.523	2661.64
2150.705	2677.1
2153.887	2657.85
2157.068	2609.17
2160.25	2607.15
2163.431	2644.5
2166.611	2590.54
2169.792	2608.73
2172.972	2503.44
2176.152	2582.02
2179.331	2616.19
2182.511	2600.87
2185.69	2629.04
2188.868	2622.34
2192.047	2677.74
2195.225	2670.63
2198.403	2623.34
2201.58	2614.22
2204.758	2608.72
2207.935	2692.46
2211.111	2582.37
2214.288	2566.93
2217.464	2606.82
2220.64	2576.9
2223.815	2634.22
2226.991	2553.16
2230.166	2574.48
2233.34	2606.29
2236.515	2631.43
2239.689	2705.32
2242.863	2647.52
2246.036	2703.35
2249.209	2700.51
2252.382	2733.45
2255.555	2721.53
2258.727	2658.46
2261.9	2701.2
2265.071	2691.47
2268.243	2690.47
2271.414	2622.01
2274.585	2587.25
2277.756	2654.43
2280.926	2610.89
2284.096	2652.58
2287.266	2561.3
2290.436	2616.51
2293.605	2644.08
2296.774	2674.26
2299.942	2696.43
2303.111	2714.12
2306.279	2764.61
2309.447	2748.55
2312.614	2724.41
2315.781	2742.94
2318.948	2715.02
2322.115	2753.04
2325.281	2653.64
2328.447	2674.36
2331.613	2647.53
2334.779	2619.88
2337.944	2624.11
2341.109	2622.63
2344.274	2605.28
2347.438	2570.84
2350.602	2595.21
2353.766	2611.06
2356.929	2597.12
2360.092	2640.15
2363.255	2593.71
2366.418	2530.1
2369.58	2643.54
2372.742	2432.45
2375.904	2444.53
2379.066	2422.84
2382.227	2458.2
2385.388	2418.94
2388.548	2345.89
2391.709	2401.75
2394.869	2383.75
2398.029	2478.82
2401.188	2488.31
2404.347	2423.16
2407.506	2563.85
2410.665	2592.44
2413.823	2597.52
2416.981	2555.59
2420.139	2589.76
2423.296	2638.42
2426.453	2611.12
2429.61	2630.55
2432.767	2567.74
2435.923	2611.76
2439.079	2569.42
2442.235	2618.17
2445.391	2547.43
2448.546	2577.42
2451.701	2625.25
2454.855	2598.12
2458.009	2650.79
2461.163	2650.65
2464.317	2614.12
2467.471	2645.57
2470.624	2682.69
2473.777	2655.37
2476.929	2668.09
2480.082	2693.57
2483.234	2658.6
2486.385	2611.46
2489.537	2605.71
2492.688	2566.01
2495.839	2585.45
2498.989	2598.85
2502.14	2583.22
2505.29	2564.99
2508.439	2593.16
2511.589	2516.97
2514.738	2527.02
2517.887	2556.6
2521.035	2624.36
2524.183	2602.95
2527.331	2585.4
2530.479	2559.22
2533.627	2567.35
