Data from N_3_DIV_PA_2N_Splice17_13-16-57-076.txt Node
Date: Sat Mar 14 13:16:57 EDT 2020
User: sa697716
Spectrometer: FLMS03696
Trigger mode: 0
Integration Time (sec): 3.180400E-1
Scans to average: 20
Electric dark correction enabled: true
Nonlinearity correction enabled: true
Boxcar width: 5
XAxis mode: Wavelengths
Number of Pixels in Spectrum: 2048
>>>>>Begin Spectral Data<<<<<
187.83	-314780.37
188.298	2374.77
188.766	1292.92
189.233	1182.89
189.701	1636.54
190.169	2156.08
190.636	840.3
191.104	677.63
191.571	98.2
192.039	-50.74
192.506	-54.43
192.974	335.68
193.441	-426.06
193.908	110.03
194.375	61.43
194.842	64.52
195.31	126.44
195.777	214.47
196.244	386.54
196.711	234.83
197.177	206.53
197.644	201.66
198.111	283.35
198.578	378.83
199.045	273.96
199.511	395.87
199.978	401.45
200.445	370.73
200.911	374.96
201.378	317.93
201.844	349.33
202.31	541.89
202.777	511.15
203.243	266.14
203.709	219.47
204.176	274.88
204.642	231.75
205.108	243.56
205.574	154.65
206.04	87.89
206.506	82.98
206.972	39.27
207.438	55.94
207.903	65.15
208.369	95.52
208.835	135.8
209.301	141.61
209.766	129.94
210.232	125.16
210.697	140.27
211.163	172.88
211.628	221.97
212.094	255.77
212.559	438.31
213.024	297.7
213.49	372.43
213.955	331.32
214.42	294.06
214.885	296.35
215.35	304.05
215.815	430.46
216.28	481.34
216.745	392.3
217.21	460.55
217.675	385.04
218.14	455.42
218.604	511.85
219.069	619.91
219.534	733.31
219.998	867.97
220.463	1081.36
220.927	1251.74
221.392	1197.71
221.856	1279.22
222.32	1583.43
222.785	2031.59
223.249	2585.91
223.713	2933.86
224.177	2984.72
224.642	3790.6
225.106	4728.06
225.57	5199.31
226.034	4002.08
226.497	6211.19
226.961	5708.72
227.425	6803.92
227.889	7571.01
228.353	7654.5
228.816	15890.22
229.28	15304.68
229.744	12954.47
230.207	8019.19
230.671	7948.74
231.134	13062.28
231.597	15168.1
232.061	15138.84
232.524	14711.92
232.987	10151.12
233.45	9208.5
233.914	8305.9
234.377	8518.74
234.84	7831.81
235.303	9166.6
235.766	10279.3
236.229	10678.29
236.691	6734.2
237.154	7577.93
237.617	5738.91
238.08	5894.21
238.542	6881.51
239.005	4941.72
239.468	4946.8
239.93	4690.59
240.393	4291.79
240.855	3771.47
241.317	3858.07
241.78	4687.53
242.242	4895.54
242.704	5337
243.166	4670.04
243.629	4304.31
244.091	4982.42
244.553	5465.09
245.015	5890.13
245.477	7613.76
245.939	11196.12
246.4	11941.03
246.862	11690.37
247.324	11072.64
247.786	12418.73
248.247	16293.18
248.709	16699.32
249.17	12547.36
249.632	11940.02
250.093	13984.55
250.555	12131.75
251.016	7463.18
251.477	7126.15
251.939	7728.43
252.4	8092.37
252.861	9601
253.322	8992.95
253.783	10727.34
254.244	13899.6
254.705	10932.75
255.166	9693.63
255.627	9587.74
256.088	13578.14
256.549	14439.75
257.009	12443.97
257.47	15140.84
257.931	12366.13
258.391	9297.65
258.852	9640.84
259.312	10148.95
259.773	12583.33
260.233	10701.42
260.694	9084.54
261.154	10321.41
261.614	8370.63
262.074	7505.64
262.534	7852.63
262.994	7431.35
263.455	9920.55
263.915	8400.55
264.374	7921.39
264.834	8673.39
265.294	9613.02
265.754	9990.12
266.214	9465.88
266.673	8853.11
267.133	11174.77
267.593	11063.73
268.052	13628.22
268.512	11877.38
268.971	14405.47
269.431	15887.59
269.89	14235.42
270.349	21405.74
270.809	23887.59
271.268	21524.58
271.727	48228.69
272.186	31341.26
272.645	23573.13
273.104	16937.72
273.563	24551.64
274.022	19270.06
274.481	16449.7
274.94	12748.12
275.399	9508.48
275.857	11104.61
276.316	15065.52
276.775	13487.99
277.233	13336.73
277.692	12577.72
278.15	14309.12
278.609	14812.46
279.067	13741.43
279.525	12796.31
279.984	16496.91
280.442	19871.73
280.9	19693.44
281.358	12976.4
281.816	12128.16
282.274	11889.29
282.732	12228.61
283.19	12279.51
283.648	10606.36
284.106	11287.04
284.564	11468.5
285.021	10686.6
285.479	7955.71
285.937	7198.1
286.394	6350.61
286.852	6530.42
287.309	6863.11
287.767	6695.8
288.224	6402.02
288.682	7041.83
289.139	7796.08
289.596	7193.61
290.053	7521.28
290.511	9552.36
290.968	11691.87
291.425	15937.14
291.882	13425.38
292.339	11791.18
292.796	11747.9
293.252	11124.18
293.709	8913.77
294.166	8010.25
294.623	8862.47
295.079	8507.17
295.536	8575.57
295.992	7805.47
296.449	7733.07
296.905	8052.11
297.362	7776.8
297.818	8180.73
298.274	8542.32
298.731	8682.52
299.187	8591.27
299.643	9243.84
300.099	11210.76
300.555	12297.45
301.011	10297.39
301.467	9983.6
301.923	11636.76
302.379	11320.83
302.835	11112.31
303.291	11111.18
303.746	12668.4
304.202	16030.67
304.658	16090.28
305.113	10799.17
305.569	10576.56
306.024	11226.46
306.479	10622.28
306.935	8970.32
307.39	9777.17
307.845	9022.58
308.301	9081.35
308.756	8828.69
309.211	8519.13
309.666	8703.77
310.121	10858.64
310.576	11011.45
311.031	10927.72
311.486	12476.74
311.94	12425.66
312.395	16563.99
312.85	31101.73
313.305	151518.84
313.759	786169.5
314.214	56734.45
314.668	45089.34
315.123	37938.91
315.577	13649.42
316.032	12170.1
316.486	15262.02
316.94	12091.83
317.394	8460.03
317.849	6595.9
318.303	6264.92
318.757	5926.52
319.211	6575.49
319.665	5760.57
320.119	5846.51
320.572	8381.21
321.026	7832.86
321.48	6546.4
321.934	7116.06
322.387	7124.49
322.841	7705.42
323.295	6982.47
323.748	7992.54
324.202	8115.18
324.655	9753.13
325.108	13627.94
325.562	9635.61
326.015	11426.43
326.468	8613.86
326.921	9662.85
327.374	9041.92
327.827	9434.82
328.28	10633.08
328.733	7162.26
329.186	6275.88
329.639	5971.19
330.092	5025.91
330.545	4780.23
330.997	4835.21
331.45	5315.43
331.903	6236.99
332.355	10647.93
332.808	10303.78
333.26	8474.44
333.713	9206.63
334.165	9281.44
334.617	12380.95
335.069	9931.01
335.522	17901.68
335.974	19819.11
336.426	17954.36
336.878	12351.24
337.33	6309.25
337.782	6159.39
338.234	7762.62
338.686	9242.87
339.137	10985.71
339.589	10336.15
340.041	8149.38
340.493	7032.88
340.944	7234.18
341.396	7858.36
341.847	6675.75
342.299	7930.27
342.75	9765.81
343.201	8492.56
343.653	9785.48
344.104	12067.51
344.555	9556.21
345.006	14807.25
345.457	11439.65
345.908	9071.1
346.359	8545.7
346.81	6963.36
347.261	7322.61
347.712	7178.16
348.163	7709.8
348.613	7870.07
349.064	7338.37
349.515	6427.36
349.965	6636.9
350.416	7966.83
350.866	8763.06
351.317	9912.76
351.767	16417.73
352.217	20717.9
352.668	17265.93
353.118	15933.42
353.568	15277.58
354.018	12118.01
354.468	12774.12
354.918	9172.86
355.368	8028.68
355.818	11314.46
356.268	32475.19
356.718	135940.62
357.168	33948.3
357.617	17050.93
358.067	18884.71
358.517	17768.74
358.966	20888.46
359.416	23589.05
359.865	25518.07
360.315	30372.92
360.764	14283.06
361.213	8026.27
361.663	7580.06
362.112	9353.88
362.561	15151.37
363.01	11451.74
363.459	9642.34
363.908	10441.59
364.357	8899.16
364.806	14998.93
365.255	10297.29
365.703	9428.06
366.152	9447.03
366.601	7685.88
367.05	6256.7
367.498	5689.17
367.947	5935.36
368.395	6157.13
368.844	5456.65
369.292	6513.36
369.74	4504.85
370.189	6908.26
370.637	8110.71
371.085	6994.84
371.533	8513.16
371.981	8148.02
372.429	7757.23
372.877	8077.1
373.325	6779.14
373.773	6872.55
374.221	6116.91
374.669	7596.94
375.116	6583.31
375.564	6624.02
376.012	7378.81
376.459	6082.41
376.907	7261.05
377.354	8762.41
377.801	8195.69
378.249	9399.31
378.696	11985.66
379.143	14467.02
379.591	15337.67
380.038	25909.84
380.485	18700.65
380.932	20171.95
381.379	18532.23
381.826	13731.56
382.273	9732.2
382.72	8417.45
383.166	8218.13
383.613	5350.53
384.06	4819
384.506	5612.13
384.953	4107.73
385.4	4122.66
385.846	3615.84
386.292	3491.61
386.739	3382.42
387.185	3320.98
387.631	3328.28
388.078	3230.17
388.524	3434.15
388.97	3172.23
389.416	2631.25
389.862	2795.67
390.308	2638.69
390.754	2667.87
391.2	2880.31
391.645	2940.75
392.091	2838.47
392.537	2737.74
392.983	2710.02
393.428	2683.08
393.874	2856.51
394.319	2857.09
394.765	2698.75
395.21	2764.59
395.655	2580.65
396.101	2412.94
396.546	2178.8
396.991	2164.82
397.436	1995.09
397.881	1920.22
398.326	1782.94
398.771	1692.6
399.216	1462.33
399.661	1307.12
400.106	1300.18
400.551	1328.74
400.995	1188.4
401.44	1167.43
401.885	1092.84
402.329	1102.77
402.774	1057.59
403.218	1039.26
403.663	996.21
404.107	1027.04
404.551	1033.63
404.995	938.48
405.44	896.91
405.884	905.86
406.328	865.99
406.772	863.88
407.216	785.03
407.66	755.21
408.104	703.1
408.547	652.25
408.991	628.73
409.435	603.12
409.879	594.4
410.322	586.78
410.766	566.92
411.209	541.07
411.653	514.63
412.096	505.54
412.54	498.73
412.983	496.57
413.426	501.35
413.869	498.19
414.312	486.47
414.756	465.29
415.199	436.37
415.642	421.41
416.085	423.23
416.527	418.75
416.97	419.89
417.413	400.81
417.856	392.79
418.298	385.21
418.741	377.45
419.184	374.81
419.626	387.31
420.069	391.42
420.511	396.39
420.953	386.91
421.396	384.21
421.838	374.03
422.28	383.04
422.722	387.15
423.164	390.02
423.606	387.45
424.048	385.21
424.49	368.92
424.932	364.47
425.374	351.75
425.816	352.26
426.258	356.4
426.699	361.65
427.141	358.74
427.582	361.53
428.024	355.88
428.465	348.46
428.907	339.43
429.348	333.36
429.789	337.17
430.231	335.64
430.672	343.65
431.113	335.88
431.554	329.31
431.995	316.64
432.436	306.37
432.877	302.95
433.318	300.7
433.759	296.32
434.2	295.82
434.64	290.22
435.081	288.8
435.522	274.01
435.962	261.3
436.403	256.26
436.843	255.63
437.284	247.78
437.724	236.65
438.164	232.32
438.604	226.05
439.045	216.28
439.485	208.36
439.925	201.55
440.365	194.1
440.805	191.09
441.245	188.56
441.685	183.4
442.125	179.11
442.564	178.98
443.004	176.01
443.444	174.68
443.883	176
444.323	169.47
444.762	165.09
445.202	164.61
445.641	166.09
446.081	161.09
446.52	160.86
446.959	160.88
447.398	157.05
447.837	154.33
448.276	151.48
448.716	150.25
449.154	149.41
449.593	148.12
450.032	147.89
450.471	143.96
450.91	142.3
451.349	142.99
451.787	140.92
452.226	142.32
452.664	141.18
453.103	140.45
453.541	138.61
453.98	142.66
454.418	143.52
454.856	142.89
455.295	144.03
455.733	147.09
456.171	146.65
456.609	145.77
457.047	146.55
457.485	151
457.923	153.64
458.361	151.39
458.798	150.73
459.236	150.49
459.674	148.82
460.111	148.58
460.549	146.64
460.987	144.68
461.424	143.8
461.862	142.61
462.299	139.75
462.736	139.47
463.173	140.56
463.611	142.59
464.048	143.19
464.485	145.86
464.922	144.51
465.359	142.61
465.796	151.01
466.233	150.67
466.67	151.96
467.106	152.59
467.543	149.76
467.98	147.02
468.416	139.31
468.853	135.46
469.29	129.52
469.726	127.11
470.162	123.11
470.599	112.9
471.035	111.15
471.471	106.7
471.907	103.67
472.344	101.93
472.78	102.59
473.216	103.28
473.652	103.2
474.088	103.24
474.523	104.93
474.959	106.82
475.395	105.71
475.831	105.93
476.266	106.64
476.702	105.93
477.138	105.21
477.573	104.61
478.008	104.36
478.444	105.51
478.879	108.28
479.314	108.91
479.75	109.01
480.185	109.9
480.62	110.39
481.055	111.24
481.49	112.76
481.925	114.9
482.36	119.7
482.795	122.18
483.229	123.78
483.664	125.53
484.099	124.76
484.534	126.65
484.968	127.85
485.403	127.84
485.837	126.08
486.271	125.68
486.706	125.15
487.14	121.1
487.574	119.75
488.009	118.78
488.443	117.07
488.877	119.29
489.311	118.69
489.745	119.39
490.179	120.75
490.613	125.35
491.046	125.43
491.48	125.28
491.914	125.19
492.348	125.03
492.781	125.64
493.215	124.59
493.648	122.58
494.082	122.47
494.515	121.76
494.948	122.01
495.382	119.23
495.815	118.01
496.248	118.66
496.681	118.97
497.114	118.65
497.547	118.81
497.98	120.7
498.413	121.53
498.846	121.96
499.279	121.88
499.711	120.17
500.144	118.45
500.577	120.51
501.009	119.86
501.442	121.28
501.874	121.19
502.306	119.14
502.739	121.56
503.171	121.13
503.603	119.91
504.036	119.05
504.468	118.34
504.9	118.61
505.332	116.28
505.764	115.39
506.196	113.52
506.627	113.45
507.059	113.21
507.491	107.51
507.923	105.49
508.354	105.65
508.786	104.68
509.217	104.85
509.649	104.72
510.08	104.4
510.512	104.89
510.943	104.63
511.374	103.03
511.805	102.88
512.237	103.38
512.668	103.36
513.099	102.54
513.53	102.49
513.961	102.71
514.391	103.23
514.822	106.35
515.253	106.91
515.684	106.49
516.114	107.09
516.545	107.79
516.975	108.55
517.406	108.16
517.836	106.73
518.267	106.41
518.697	106.31
519.127	104.92
519.558	102.02
519.988	99.88
520.418	97.93
520.848	96.65
521.278	94.3
521.708	122.64
522.138	123.13
522.567	123.07
522.997	122.63
523.427	121.38
523.857	121.69
524.286	120.89
524.716	121.03
525.145	122.25
525.575	123.25
526.004	122.63
526.433	92.26
526.863	90.33
527.292	90.77
527.721	91.59
528.15	90.89
528.579	89.82
529.008	90.13
529.437	89.62
529.866	88.82
530.295	88.03
530.724	90.01
531.152	90.81
531.581	91.87
532.01	91.58
532.438	90.19
532.867	89.95
533.295	90.28
533.723	89.37
534.152	89.48
534.58	89.81
535.008	88.57
535.436	88.69
535.865	88.35
536.293	87.26
536.721	86.87
537.149	88.45
537.576	89.83
538.004	90.51
538.432	90.46
538.86	90.95
539.287	90.56
539.715	91.53
540.143	89.56
540.57	89.39
540.998	89.67
541.425	90.69
541.852	88.9
542.28	87.29
542.707	85.92
543.134	85.66
543.561	84.8
543.988	84.65
544.415	84.2
544.842	84.03
545.269	84.32
545.696	85.07
546.123	85.28
546.549	85.05
546.976	84.87
547.403	84.81
547.829	83.75
548.256	83.16
548.682	82.79
549.108	83.7
549.535	83.66
549.961	82.83
550.387	81.79
550.813	82.45
551.24	82.24
551.666	82.12
552.092	81.59
552.518	81.94
552.943	82.67
553.369	82.62
553.795	81.94
554.221	82.29
554.646	82.22
555.072	84.08
555.498	81.65
555.923	81.76
556.349	82.61
556.774	83.32
557.199	83.03
557.625	82.22
558.05	82.86
558.475	83.34
558.9	84.19
559.325	85.15
559.75	84.63
560.175	84.58
560.6	85.19
561.025	84.65
561.449	84.89
561.874	85.47
562.299	87.55
562.723	87.66
563.148	87.38
563.572	86.85
563.997	87.1
564.421	86.26
564.846	86.59
565.27	87.28
565.694	88.02
566.118	88.9
566.542	90.94
566.966	90.49
567.39	91.23
567.814	92.36
568.238	93.44
568.662	93.18
569.086	94.5
569.509	94.97
569.933	96.2
570.357	96.3
570.78	95.96
571.204	97.37
571.627	97.31
572.05	97.3
572.474	97.89
572.897	97.8
573.32	100.34
573.743	99.68
574.166	100.79
574.589	99.82
575.012	100.21
575.435	99.94
575.858	98.91
576.281	98.84
576.704	98.55
577.126	97.05
577.549	96.54
577.972	94.38
578.394	95.01
578.817	97.55
579.239	97.05
579.661	97.51
580.084	98.9
580.506	98.6
580.928	98.13
581.35	97.5
581.772	98.16
582.194	97.67
582.616	97.14
583.038	95.39
583.46	92.2
583.882	92.66
584.303	91.79
584.725	90.53
585.147	96.41
585.568	98.71
585.99	100.67
586.411	101.82
586.833	104.4
587.254	105.78
587.675	107.3
588.096	108.54
588.518	108.32
588.939	107.59
589.36	108.3
589.781	100.36
590.202	101.41
590.623	100.46
591.043	99.59
591.464	98.03
591.885	98.15
592.305	98.17
592.726	97.17
593.147	98.13
593.567	98.73
593.987	97.58
594.408	97.05
594.828	93.67
595.248	94.95
595.669	95.35
596.089	95.45
596.509	94.14
596.929	93.44
597.349	93.87
597.769	92.54
598.189	91.96
598.608	92.32
599.028	93.55
599.448	93.11
599.867	91.37
600.287	90.59
600.706	90.67
601.126	91.45
601.545	92.55
601.965	92.54
602.384	92.33
602.803	92.25
603.222	93.27
603.641	92.93
604.061	93.61
604.48	93.75
604.898	94.12
605.317	94.71
605.736	94.51
606.155	95.23
606.574	94.86
606.992	95.46
607.411	95.98
607.829	94.11
608.248	94.13
608.666	93.6
609.085	94.62
609.503	94.91
609.921	95.58
610.339	97.02
610.758	95.92
611.176	96.29
611.594	96.54
612.012	96.75
612.43	99.04
612.847	99.85
613.265	102.34
613.683	102.64
614.101	102.85
614.518	101.51
614.936	101.03
615.353	101.36
615.771	102.5
616.188	103.33
616.606	103.71
617.023	103.82
617.44	103.26
617.857	101.34
618.274	100.85
618.691	101.66
619.108	101.34
619.525	100.45
619.942	101.53
620.359	102.06
620.776	101.28
621.192	102.48
621.609	102.25
622.026	103.85
622.442	105.39
622.859	105.24
623.275	104.14
623.691	105.14
624.108	106.41
624.524	107.14
624.94	106.73
625.356	107.91
625.772	108.34
626.188	108.84
626.604	108.87
627.02	108.51
627.436	109.72
627.852	111.69
628.268	113.16
628.683	111.9
629.099	111.32
629.514	110.56
629.93	111.01
630.345	111.56
630.761	111.28
631.176	111.53
631.591	113.4
632.007	113.55
632.422	111.69
632.837	109.96
633.252	111.53
633.667	110.85
634.082	110.61
634.497	111.27
634.911	111.88
635.326	112.35
635.741	111.38
636.155	108.93
636.57	109.91
636.984	111.65
637.399	115.31
637.813	115.36
638.228	116.36
638.642	116.94
639.056	115.74
639.47	114.98
639.884	114.94
640.298	115.38
640.712	117.18
641.126	117.1
641.54	116.31
641.954	113.54
642.368	113.86
642.781	117.72
643.195	117.76
643.609	119.37
644.022	119.85
644.436	120.26
644.849	119.47
645.262	118.86
645.676	118.58
646.089	120.06
646.502	122.58
646.915	121.78
647.328	118.68
647.741	119.53
648.154	119.24
648.567	123.08
648.98	122.55
649.393	123.13
649.805	123.86
650.218	124.1
650.631	123.27
651.043	122.12
651.456	122.71
651.868	122.13
652.28	123.51
652.693	124.24
653.105	122.77
653.517	124
653.929	125.2
654.341	126.96
654.753	126.49
655.165	127.32
655.577	126.84
655.989	127.16
656.401	125.94
656.813	125.94
657.224	124.37
657.636	120.28
658.047	120.96
658.459	120.42
658.87	118.27
659.282	117.24
659.693	117.35
660.104	116.85
660.515	115.43
660.926	116.14
661.338	114.68
661.749	115.11
662.159	116.35
662.57	115.14
662.981	115.09
663.392	115.76
663.803	117.88
664.213	116.92
664.624	117.45
665.035	118.78
665.445	117.95
665.855	119.66
666.266	120.45
666.676	120.63
667.086	119.69
667.497	121.18
667.907	121.27
668.317	120.32
668.727	124.59
669.137	123.98
669.547	124.78
669.956	124.74
670.366	123.93
670.776	124.89
671.186	125.83
671.595	127.63
672.005	126.93
672.414	127.69
672.824	127.87
673.233	123.71
673.642	124.98
674.052	126.15
674.461	128.74
674.87	129.09
675.279	128.64
675.688	126.66
676.097	127.59
676.506	126.9
676.915	127.83
677.323	127.56
677.732	128.06
678.141	126.72
678.549	123.49
678.958	120.61
679.366	118.8
679.775	116.73
680.183	121.06
680.592	120.36
681	120.38
681.408	117.36
681.816	116.94
682.224	114.95
682.632	116.63
683.04	119.47
683.448	121.7
683.856	125.45
684.264	129.9
684.671	129.4
685.079	130.73
685.487	132.69
685.894	137.42
686.302	139.78
686.709	142.18
687.116	143.74
687.524	146.33
687.931	147.07
688.338	146.44
688.745	142.96
689.152	140.92
689.559	141.15
689.966	142.25
690.373	140.11
690.78	138.94
691.187	139.12
691.593	137.91
692	133.45
692.407	132.3
692.813	135.32
693.22	134.93
693.626	133.02
694.032	131.69
694.439	131.43
694.845	130.1
695.251	129.81
695.657	130.62
696.063	129.7
696.469	130.05
696.875	129.95
697.281	125.3
697.687	123.97
698.093	123.33
698.498	123.06
698.904	120.53
699.31	121.56
699.715	125.64
700.12	125.44
700.526	126.17
700.931	126.41
701.337	127.78
701.742	128.02
702.147	129.34
702.552	128.82
702.957	128.08
703.362	127.78
703.767	126.36
704.172	121.93
704.577	117.69
704.981	115.8
705.386	114.68
705.791	112.8
706.195	111.3
706.6	110.17
707.004	109.48
707.408	106.61
707.813	107.85
708.217	106.73
708.621	105.04
709.025	107.91
709.43	108.68
709.834	110.08
710.237	110.13
710.641	109.42
711.045	109.87
711.449	110.98
711.853	117.98
712.256	116.66
712.66	117.62
713.064	120.16
713.467	121.32
713.87	122.91
714.274	123
714.677	125.6
715.08	130.2
715.484	134.32
715.887	143.46
716.29	140.11
716.693	146.56
717.096	151.77
717.499	154.25
717.901	152.55
718.304	152.06
718.707	151.16
719.109	146.18
719.512	141.75
719.915	139.64
720.317	133.25
720.719	133.67
721.122	130.73
721.524	129.26
721.926	133.58
722.328	135.73
722.731	133.91
723.133	134.37
723.535	139.76
723.937	141.82
724.338	142.55
724.74	145.19
725.142	215.48
725.544	220.51
725.945	237.52
726.347	231.86
726.748	232.55
727.15	234.71
727.551	238.09
727.952	234.2
728.354	230.79
728.755	228.75
729.156	223.77
729.557	153.08
729.958	142.71
730.359	124.19
730.76	123.05
731.161	120.38
731.562	116.75
731.962	111.25
732.363	110.84
732.763	109.59
733.164	108.04
733.564	108.29
733.965	108.02
734.365	108.55
734.766	109.57
735.166	107.87
735.566	108.02
735.966	108.62
736.366	110.4
736.766	108.88
737.166	109.11
737.566	108.2
737.966	106.92
738.365	108.23
738.765	110.28
739.165	108.62
739.564	108.35
739.964	106.37
740.363	104.06
740.763	101.43
741.162	103.33
741.561	102.79
741.96	102.28
742.36	101.07
742.759	100.67
743.158	98.83
743.557	98.99
743.955	98.96
744.354	98.87
744.753	100.17
745.152	102.2
745.55	100.72
745.949	100.68
746.348	100.7
746.746	100.22
747.144	102.55
747.543	101.31
747.941	101.05
748.339	100.03
748.737	101.94
749.136	102.3
749.534	100.43
749.932	103.4
750.33	103.35
750.727	103.83
751.125	106.03
751.523	102.57
751.921	109.14
752.318	109.3
752.716	112.62
753.113	111.31
753.511	111.34
753.908	113.73
754.305	117.88
754.703	119.97
755.1	123.31
755.497	123.88
755.894	126.54
756.291	126.39
756.688	133.87
757.085	140.76
757.482	155.88
757.878	175.15
758.275	189.71
758.672	195.55
759.068	208.36
759.465	226.11
759.861	248.66
760.258	277.82
760.654	289.15
761.05	288.12
761.447	272.82
761.843	251.7
762.239	229.87
762.635	215.58
763.031	207.05
763.427	197.06
763.822	184.92
764.218	173.85
764.614	160.64
765.01	148.94
765.405	141.62
765.801	138.37
766.196	130.84
766.592	125.74
766.987	120.51
767.382	115.92
767.778	114.16
768.173	111.39
768.568	110.89
768.963	108.91
769.358	111
769.753	111.03
770.148	110.1
770.542	109.81
770.937	109.02
771.332	112.64
771.726	112.37
772.121	116.71
772.515	117.67
772.91	116.44
773.304	117.59
773.699	116.19
774.093	116.3
774.487	116.55
774.881	117.34
775.275	117.64
775.669	115.33
776.063	117.55
776.457	113.74
776.851	112.44
777.245	113.75
777.638	114.34
778.032	115.35
778.425	115.53
778.819	121.44
779.212	126.34
779.606	128.38
779.999	128.11
780.392	130.56
780.786	129.58
781.179	131.95
781.572	133.46
781.965	134.1
782.358	134.21
782.751	135.4
783.143	130.66
783.536	128.82
783.929	125.82
784.322	128.83
784.714	124.95
785.107	127.52
785.499	129.92
785.891	130.77
786.284	130.46
786.676	133.62
787.068	136.19
787.46	137.48
787.852	135.59
788.245	137.58
788.636	137
789.028	143.5
789.42	146.41
789.812	145.09
790.204	145.51
790.595	150.66
790.987	146.62
791.378	145.11
791.77	145.55
792.161	147.67
792.553	150.57
792.944	148.27
793.335	144.02
793.726	144.78
794.117	149.62
794.508	149.95
794.899	144.95
795.29	148.06
795.681	147.25
796.072	145.6
796.463	173.45
796.853	179.08
797.244	185.43
797.634	186.34
798.025	183.75
798.415	179.08
798.806	185.12
799.196	192.37
799.586	196.94
799.976	199.23
800.366	203.27
800.756	175.19
801.146	169.58
801.536	167.31
801.926	167.94
802.316	172.95
802.706	175.11
803.095	171.65
803.485	169.31
803.874	164.48
804.264	166.8
804.653	169.87
805.043	177.33
805.432	183.8
805.821	188.89
806.21	192.51
806.599	190.44
806.988	192.29
807.377	189.19
807.766	191.83
808.155	201.44
808.544	196.86
808.933	194.44
809.321	195.87
809.71	193.15
810.098	193.5
810.487	198.72
810.875	208.22
811.264	209.96
811.652	236.12
812.04	240.58
812.428	245.93
812.816	257.76
813.204	273.14
813.592	276.7
813.98	288
814.368	293.24
814.756	305.88
815.144	305.73
815.531	320.78
815.919	298.74
816.306	304.65
816.694	295.48
817.081	304.69
817.469	309.21
817.856	306.45
818.243	308.71
818.63	306.39
819.017	301.97
819.404	306.7
819.791	307.27
820.178	317.24
820.565	328.12
820.952	359.72
821.339	347.96
821.725	351.23
822.112	340.79
822.498	343.54
822.885	347.97
823.271	338.54
823.657	340.26
824.044	343.93
824.43	346.27
824.816	356.2
825.202	342.31
825.588	360.06
825.974	362.56
826.36	378.05
826.746	378.4
827.132	384.29
827.517	392.34
827.903	377.79
828.289	384.8
828.674	368.46
829.06	353.55
829.445	355.71
829.83	362.03
830.216	372.19
830.601	381.5
830.986	386.53
831.371	386.57
831.756	398.55
832.141	403.57
832.526	401.6
832.911	413.34
833.295	411.02
833.68	421.42
834.065	411.15
834.449	385.79
834.834	382.66
835.218	375.92
835.603	385.83
835.987	376.71
836.371	384.65
836.755	382.94
837.139	385.4
837.524	383.83
837.908	377.94
838.291	382.23
838.675	382.1
839.059	385.52
839.443	378.37
839.827	366.77
840.21	376.96
840.594	378.84
840.977	381.99
841.361	382.35
841.744	390.38
842.127	390.17
842.511	396.01
842.894	407.53
843.277	411.76
843.66	426.48
844.043	433.95
844.426	420.18
844.809	400.9
845.191	401.15
845.574	391.79
845.957	385.38
846.339	383.41
846.722	367.92
847.104	369.16
847.487	364.72
847.869	365.81
848.252	374.3
848.634	380.64
849.016	389.89
849.398	387.79
849.78	404.24
850.162	408.5
850.544	413.05
850.926	422.16
851.307	417.72
851.689	426.82
852.071	427.3
852.452	432.47
852.834	427.18
853.215	438.43
853.597	443.74
853.978	459.04
854.359	467.75
854.741	451.07
855.122	447.42
855.503	444.88
855.884	445.18
856.265	451.28
856.646	445.35
857.026	443.03
857.407	442.49
857.788	442.09
858.169	437.11
858.549	430.28
858.93	444.46
859.31	451.26
859.69	462.25
860.071	451.98
860.451	445.96
860.831	431.58
861.211	445.63
861.591	454.62
861.971	452.44
862.351	456.94
862.731	455.3
863.111	462.45
863.491	474.05
863.87	486.11
864.25	492.75
864.629	492.12
865.009	504.72
865.388	531.53
865.768	563.93
866.147	572.34
866.526	545.93
866.905	553.17
867.284	572.95
867.663	534.56
868.042	510.97
868.421	508.09
868.8	508.53
869.179	523.65
869.558	491.74
869.936	457.22
870.315	458.67
870.693	475.02
871.072	510
871.45	485.9
871.828	499.82
872.207	526.87
872.585	522.56
872.963	530.6
873.341	514.37
873.719	514.79
874.097	510.27
874.475	517.11
874.853	523.06
875.23	501.28
875.608	529.84
875.986	572.4
876.363	549.74
876.741	583.36
877.118	585.81
877.495	612.96
877.873	621.37
878.25	653.13
878.627	627.12
879.004	632.43
879.381	627.35
879.758	618.58
880.135	574.05
880.512	602.54
880.889	563.86
881.265	549.91
881.642	532.93
882.019	536.21
882.395	535.55
882.772	568.92
883.148	547.64
883.524	549.76
883.901	541.84
884.277	546.43
884.653	544.16
885.029	576.59
885.405	654.19
885.781	654.95
886.157	627.33
886.532	623.51
886.908	615.83
887.284	677.34
887.659	697.28
888.035	711.34
888.411	724.76
888.786	733.99
889.161	748.06
889.537	711.84
889.912	729.45
890.287	731.78
890.662	745.48
891.037	723.25
891.412	679.95
891.787	663.35
892.162	644.34
892.536	658.87
892.911	634.43
893.286	614.57
893.66	595.63
894.035	613.86
894.409	660.3
894.784	644.65
895.158	658.34
895.532	694.3
895.906	720.55
896.281	738.09
896.655	738.54
897.029	841.94
897.402	886.08
897.776	978.08
898.15	980.16
898.524	967.81
898.898	975.05
899.271	1104.74
899.645	972
900.018	934.17
900.392	963.81
900.765	952.15
901.138	891.76
901.511	873.52
901.884	822.57
902.258	763.78
902.631	811.9
903.003	929.01
903.376	832.84
903.749	928.26
904.122	992.84
904.495	1091.48
904.867	1107.05
905.24	949.07
905.612	875.99
905.985	865.17
906.357	887.74
906.729	841.55
907.102	722.18
907.474	700.98
907.846	708.06
908.218	693.36
908.59	631.74
908.962	609.29
909.334	666.09
909.705	712.63
910.077	699.87
910.449	726.67
910.82	743.64
911.192	814.64
911.563	848.53
911.935	887.3
912.306	885.89
912.677	897.98
913.048	912.52
913.419	976.03
913.79	968.61
914.161	1025.28
914.532	999.72
914.903	911.69
915.274	871.11
915.645	847.49
916.015	741.89
916.386	710.92
916.756	754.15
917.127	757.98
917.497	688.63
917.868	759.79
918.238	734.24
918.608	748.86
918.978	769.07
919.348	800.99
919.718	831.07
920.088	814.88
920.458	865.26
920.828	886.24
921.198	848.27
921.567	892.19
921.937	689.14
922.306	686.02
922.676	730.02
923.045	628.2
923.415	609.65
923.784	554.29
924.153	585.17
924.522	591.77
924.891	564.26
925.26	612.12
925.629	592.26
925.998	670.81
926.367	655.25
926.736	657.09
927.104	753.67
927.473	799.77
927.842	960.16
928.21	911.8
928.578	920.17
928.947	888.28
929.315	891.87
929.683	1080.36
930.051	1091.29
930.42	1268.8
930.788	1064.67
931.156	1071.44
931.523	1051.57
931.891	977.73
932.259	973.7
932.627	1157.27
932.994	1596.46
933.362	1349.72
933.729	1153.15
934.097	1089.21
934.464	925.15
934.831	1034.63
935.199	1000.43
935.566	950.9
935.933	940.77
936.3	1132.79
936.667	871.48
937.034	926.1
937.401	891.51
937.767	782.06
938.134	701.64
938.501	984.94
938.867	1073.58
939.234	1804.25
939.6	1493.06
939.967	1699.43
940.333	1155.79
940.699	946.31
941.065	603.45
941.431	807.36
941.798	860.14
942.163	1191.57
942.529	727.28
942.895	647.91
943.261	436.57
943.627	590.09
943.992	526.58
944.358	515.8
944.723	568.11
945.089	561.91
945.454	532.14
945.82	522.5
946.185	484.31
946.55	588.05
946.915	540.82
947.28	627.93
947.645	544.01
948.01	534.85
948.375	579.79
948.74	640.17
949.104	729.07
949.469	944.73
949.834	1658.06
950.198	1714.38
950.562	1052.09
950.927	878.21
951.291	1069.99
951.655	906.9
952.02	751.23
952.384	559.49
952.748	531.14
953.112	587.35
953.476	526.15
953.839	476.12
954.203	486.75
954.567	592.41
954.931	871.08
955.294	749.21
955.658	761.97
956.021	1364.61
956.385	2176.75
956.748	3135.17
957.111	4228.52
957.474	4686.44
957.837	5248.42
958.2	3439.16
958.563	1247.87
958.926	915.44
959.289	1370
959.652	1529.12
960.015	1154.61
960.377	1673.91
960.74	1855.06
961.102	3191.12
961.465	3666.78
961.827	2569.71
962.189	5075.15
962.552	3536.86
962.914	2746.16
963.276	1784.15
963.638	1475.11
964	1411.87
964.362	996.62
964.724	951.62
965.085	703.07
965.447	574.18
965.809	515.56
966.17	501
966.532	529.46
966.893	508.21
967.255	457.65
967.616	514.93
967.977	429.66
968.338	459.38
968.699	420.24
969.061	413.59
969.421	419.74
969.782	460.02
970.143	415.2
970.504	482.16
970.865	555.22
971.225	597.24
971.586	596.46
971.946	795.72
972.307	671.28
972.667	792.94
973.027	821.99
973.388	929.92
973.748	656.94
974.108	714.39
974.468	802.82
974.828	703.74
975.188	505.4
975.548	447.74
975.907	404.56
976.267	438.4
976.627	403.72
976.986	408.23
977.346	393.33
977.705	373.68
978.064	329.46
978.424	287.4
978.783	228.19
979.142	249.28
979.501	257.2
979.86	283.76
980.219	275.32
980.578	312.94
980.937	348.89
981.296	324.97
981.654	336.29
982.013	468.79
982.371	632.62
982.73	647.95
983.088	756.66
983.447	791.31
983.805	1108.24
984.163	2323.43
984.521	2587.04
984.879	3706.13
985.237	-6312.73
985.595	6845.51
985.953	1729.55
986.311	944.31
986.669	534.04
987.026	457.02
987.384	555.95
987.741	544.27
988.099	478.54
988.456	383.75
988.814	369.38
989.171	315.63
989.528	247.76
989.885	262.49
990.242	235.44
990.599	287.42
990.956	232.14
991.313	176.53
991.67	143.25
992.027	204.84
992.383	188.15
992.74	183.89
993.096	204.17
993.453	223.75
993.809	217.84
994.165	271.33
994.522	329.7
994.878	371.41
995.234	468.8
995.59	462.12
995.946	315.72
996.302	367.81
996.658	366.85
997.013	369.76
997.369	478.4
997.725	721.45
998.08	460.34
998.436	431.73
998.791	611.82
999.147	662.12
999.502	758.96
999.857	521.49
1000.212	814.7
1000.567	1287.52
1000.922	725.01
1001.277	426.3
1001.632	297.03
1001.987	402.99
1002.342	305.29
1002.696	255.76
1003.051	223.34
1003.406	279.96
1003.76	289.2
1004.114	297.75
1004.469	256.17
1004.823	221.38
1005.177	212.45
1005.531	163.02
1005.885	166.3
1006.239	195.33
1006.593	256.46
1006.947	323.7
1007.301	208.69
1007.655	232.99
1008.008	177.98
1008.362	203.86
1008.715	280.09
1009.069	263.99
1009.422	537.64
1009.776	1061.62
1010.129	711.4
1010.482	511
1010.835	368.62
1011.188	793.09
1011.541	753.16
1011.894	-4277.19
1012.247	11181.63
1012.6	689.7
1012.952	446.28
1013.305	102.93
1013.657	88.9
1014.01	75.83
1014.362	66.21
1014.715	146.11
1015.067	154.2
1015.419	158.33
1015.771	149.16
1016.123	157.24
1016.475	184.88
1016.827	198.47
1017.179	251.61
1017.531	224.67
1017.883	221.99
1018.234	282.47
1018.586	312.68
1018.938	386.86
1019.289	516.62
1019.64	524.14
1019.992	463.01
1020.343	378.52
1020.694	355.11
1021.045	291.24
1021.396	317.64
1021.747	406.11
1022.098	383.32
1022.449	259.61
1022.8	211.8
1023.151	180.22
1023.501	212
1023.852	210.26
1024.202	248.73
1024.553	223.37
1024.903	262.48
1025.253	276.8
1025.604	248.66
1025.954	295.13
1026.304	343.74
1026.654	367.56
1027.004	436.74
1027.354	510.17
1027.703	586.3
1028.053	619.53
1028.403	1347.89
1028.753	1355.08
1029.102	949.72
1029.452	984.34
1029.801	-21.37
1030.15	-26.3
1030.499	-71.61
897.758	2776.18
901.051	2731.87
904.343	2768.13
907.636	2766.41
910.928	2832.91
914.22	2738.15
917.511	2745.69
920.803	2809.51
924.094	2831.99
927.384	2804.82
930.675	2767.83
933.965	2718.1
937.255	2725.49
940.544	2692.13
943.834	2620.09
947.123	2565.45
950.411	2662.48
953.7	2632.31
956.988	2598.13
960.276	2535.75
963.563	2621.93
966.851	2611.35
970.138	2672.82
973.424	2661.11
976.711	2609.72
979.997	2753.58
983.283	2784.12
986.568	2683.71
989.853	2707.59
993.138	2732.4
996.423	2815.11
999.708	2744.99
1002.992	2818.25
1006.275	2640.96
1009.559	2694.54
1012.842	2810.16
1016.125	2740.24
1019.408	2718.85
1022.69	2810.32
1025.972	2820.64
1029.254	2792.51
1032.536	2718.9
1035.817	2749.03
1039.098	2683.9
1042.379	2841.44
1045.659	2831.29
1048.939	2761.25
1052.219	2779.18
1055.498	2794.89
1058.778	2773.76
1062.057	2762.25
1065.335	2781.92
1068.614	2803
1071.892	2779.25
1075.17	2859.31
1078.447	2840.34
1081.724	2830.13
1085.001	2869.55
1088.278	2843.97
1091.554	2853.71
1094.83	2852.89
1098.106	2872.24
1101.382	2920.39
1104.657	2918.81
1107.932	2913.91
1111.206	2873.92
1114.481	2834.05
1117.755	2837.69
1121.029	2808.36
1124.302	2858.28
1127.575	2806.61
1130.848	2791.59
1134.121	2751.4
1137.393	2696.48
1140.665	2762.8
1143.937	2735.81
1147.208	2701.54
1150.48	2733.72
1153.75	2716.78
1157.021	2758.49
1160.291	2724.52
1163.561	2766.27
1166.831	2761.21
1170.101	2793.04
1173.37	2773.03
1176.639	2714.23
1179.907	2778.01
1183.176	2776.02
1186.444	2785.61
1189.711	2813.71
1192.979	2820.29
1196.246	2783.16
1199.513	2799.11
1202.78	2795.26
1206.046	2804.56
1209.312	2827.87
1212.578	2855.85
1215.843	2802.18
1219.108	2780.32
1222.373	2803.84
1225.638	2766.19
1228.902	2750.29
1232.166	2720.19
1235.43	2703.58
1238.693	2725.17
1241.956	2725.49
1245.219	2761.94
1248.482	2755.37
1251.744	2751.87
1255.006	2902.91
1258.268	2861.53
1261.529	2805.41
1264.79	2813.62
1268.051	2912.23
1271.312	2927.82
1274.572	2887.74
1277.832	2877.84
1281.092	2868.32
1284.351	2837.04
1287.61	2813.06
1290.869	2727.09
1294.128	2695.64
1297.386	2796.04
1300.644	2779.95
1303.902	2792.7
1307.159	2656.64
1310.416	2710.84
1313.673	2734.02
1316.93	2718.86
1320.186	2767.62
1323.442	2811.85
1326.697	2797.53
1329.953	2797.88
1333.208	2811.96
1336.463	2799.69
1339.717	2736.49
1342.972	2878.17
1346.226	2859.41
1349.479	2790.82
1352.733	2761.11
1355.986	2792.07
1359.238	2772.48
1362.491	2775.9
1365.743	2781.66
1368.995	2781.32
1372.247	2800.53
1375.498	2826.71
1378.749	2835.85
1382	2795.07
1385.251	2851.58
1388.501	2819.89
1391.751	2800.79
1395	2777.3
1398.25	2813.06
1401.499	2819.13
1404.748	2745.7
1407.996	2735.74
1411.244	2721.41
1414.492	2700.79
1417.74	2681.98
1420.987	2694.81
1424.234	2750.85
1427.481	2735.35
1430.728	2792.74
1433.974	2765.78
1437.22	2786.32
1440.465	2786.67
1443.711	2743.38
1446.956	2781.18
1450.201	2769.55
1453.445	2815.06
1456.689	2789.52
1459.933	2802.15
1463.177	2831.79
1466.42	2802.84
1469.663	2781.95
1472.906	2767.22
1476.148	2848.42
1479.391	2804.18
1482.633	2773.52
1485.874	2783.66
1489.115	2763.39
1492.356	2767.92
1495.597	2742.29
1498.838	2741.84
1502.078	2706.05
1505.318	2651.99
1508.557	2694.65
1511.797	2662.31
1515.036	2734.13
1518.274	2723.59
1521.513	2698.09
1524.751	2718.59
1527.989	2728.22
1531.227	2736.59
1534.464	2721.68
1537.701	2748.42
1540.938	2767.62
1544.174	2719.25
1547.41	2717.23
1550.646	2756.81
1553.882	2784.14
1557.117	2834.53
1560.352	2847.19
1563.587	2803.52
1566.821	2759.97
1570.055	2801
1573.289	2766.04
1576.523	2841.57
1579.756	2843.64
1582.989	2862.45
1586.222	2818.71
1589.454	2861.81
1592.686	2827.78
1595.918	2852.28
1599.15	2837.09
1602.381	2920.22
1605.612	2867.74
1608.843	2956.97
1612.073	2867.71
1615.303	2853.35
1618.533	2836.98
1621.762	2848.28
1624.992	2835.69
1628.221	2818.59
1631.449	2803.14
1634.678	2864.33
1637.906	2814.59
1641.134	2853.9
1644.361	2808.48
1647.588	2802.22
1650.815	2816.08
1654.042	2802.78
1657.269	2826.09
1660.495	2773.04
1663.72	2803.1
1666.946	2769.77
1670.171	2710.03
1673.396	2686.17
1676.621	2679.51
1679.845	2705.54
1683.069	2728.32
1686.293	2774.56
1689.517	2740.12
1692.74	2668.48
1695.963	2701.28
1699.185	2706.89
1702.408	2681.88
1705.63	2726.33
1708.852	2737.03
1712.073	2710.46
1715.294	2691.64
1718.515	2754.9
1721.736	2696.98
1724.956	2701.15
1728.176	2729.08
1731.396	2750.49
1734.616	2744.34
1737.835	2771.5
1741.054	2751.35
1744.272	2743.78
1747.491	2774.2
1750.709	2834.98
1753.927	2732.08
1757.144	2785.6
1760.361	2817.93
1763.578	2818.72
1766.795	2757.91
1770.011	2772.47
1773.227	2814.06
1776.443	2851.94
1779.658	2898.05
1782.874	2840.74
1786.089	2817.86
1789.303	2821.57
1792.518	2829.95
1795.732	2821.44
1798.945	2826.08
1802.159	2878.74
1805.372	2771.28
1808.585	2758.11
1811.797	2756.75
1815.01	2811.28
1818.222	2811.77
1821.434	2784.19
1824.645	2846.02
1827.856	2825.41
1831.067	2861.51
1834.278	2827.83
1837.488	2812.34
1840.698	2967.77
1843.908	2890.79
1847.117	2854.5
1850.326	2732.55
1853.535	2849.26
1856.744	2883.68
1859.952	2799.1
1863.16	2802.18
1866.368	2829.79
1869.575	2935.09
1872.782	2828.61
1875.989	2774.87
1879.196	2869.3
1882.402	2867.99
1885.608	2917.15
1888.814	2814.77
1892.019	2707.99
1895.224	2765.89
1898.429	2753.04
1901.634	2732.72
1904.838	2713.13
1908.042	2765.63
1911.246	2772.15
1914.449	2698.08
1917.652	2702.51
1920.855	2682.05
1924.058	2737.67
1927.26	2774.98
1930.462	2802.38
1933.664	2826.34
1936.865	2760.47
1940.066	2766.46
1943.267	2712.31
1946.467	2729.77
1949.668	2758.04
1952.868	2823.85
1956.067	2799.53
1959.267	2725.73
1962.466	2754.53
1965.665	2738.53
1968.863	2734.71
1972.061	2753.94
1975.259	2753.19
1978.457	2835
1981.654	2789.97
1984.852	2791.2
1988.048	2717.95
1991.245	2723.16
1994.441	2810.4
1997.637	2799.04
2000.833	2782.88
2004.028	2823.26
2007.223	2874.9
2010.418	2850.37
2013.613	2811.77
2016.807	2777.9
2020.001	2788.16
2023.194	2833.68
2026.388	2811.12
2029.581	2753.33
2032.774	2800.45
2035.966	2802.71
2039.158	2729.18
2042.35	2756.52
2045.542	2684.38
2048.733	2785.24
2051.924	2816.19
2055.115	2843.57
2058.306	2785.18
2061.496	2843.53
2064.686	2913
2067.875	2827.09
2071.065	2844.74
2074.254	2875.26
2077.442	2827.22
2080.631	2918
2083.819	2802.96
2087.007	2779.42
2090.195	2750.34
2093.382	2786.83
2096.569	2765.75
2099.756	2717.09
2102.942	2738.48
2106.128	2743.59
2109.314	2731.45
2112.5	2688.58
2115.685	2668.53
2118.87	2678.36
2122.055	2746.04
2125.239	2706.57
2128.424	2679.77
2131.608	2792.61
2134.791	2770.37
2137.974	2833.31
2141.157	2817.03
2144.34	2767.56
2147.523	2787.82
2150.705	2796.64
2153.887	2778.02
2157.068	2722.35
2160.25	2731.59
2163.431	2771.44
2166.611	2712.94
2169.792	2728.66
2172.972	2617.5
2176.152	2704.13
2179.331	2740.36
2182.511	2719.21
2185.69	2751.01
2188.868	2743.63
2192.047	2807.74
2195.225	2790.5
2198.403	2743.55
2201.58	2734.72
2204.758	2733.66
2207.935	2819.23
2211.111	2700.72
2214.288	2686.97
2217.464	2727.63
2220.64	2700.71
2223.815	2761.89
2226.991	2677.6
2230.166	2698.24
2233.34	2720.72
2236.515	2752.23
2239.689	2830.4
2242.863	2773.62
2246.036	2828.92
2249.209	2831.75
2252.382	2868.7
2255.555	2853.27
2258.727	2784.79
2261.9	2828.2
2265.071	2821.09
2268.243	2827.55
2271.414	2754.35
2274.585	2706.83
2277.756	2776.57
2280.926	2735.67
2284.096	2777.16
2287.266	2680.24
2290.436	2738.61
2293.605	2770.06
2296.774	2799.69
2299.942	2825.69
2303.111	2839.86
2306.279	2889.39
2309.447	2877.16
2312.614	2853.25
2315.781	2872.14
2318.948	2840.99
2322.115	2882.56
2325.281	2781.57
2328.447	2803.2
2331.613	2779.76
2334.779	2746.33
2337.944	2755.9
2341.109	2750.54
2344.274	2735.8
2347.438	2697.5
2350.602	2724.84
2353.766	2741.35
2356.929	2725.55
2360.092	2771.91
2363.255	2722.34
2366.418	2645.98
2369.58	2770.41
2372.742	2534.92
2375.904	2556.37
2379.066	2528.95
2382.227	2569.13
2385.388	2528.18
2388.548	2451.97
2391.709	2509.39
2394.869	2487.65
2398.029	2594.27
2401.188	2613.92
2404.347	2541.96
2407.506	2700.49
2410.665	2723.68
2413.823	2733.39
2416.981	2686.65
2420.139	2722.25
2423.296	2774.85
2426.453	2749.25
2429.61	2773.24
2432.767	2698.61
2435.923	2735.25
2439.079	2692.22
2442.235	2744.22
2445.391	2670.89
2448.546	2697.86
2451.701	2751.06
2454.855	2716.92
2458.009	2775.21
2461.163	2780.12
2464.317	2732.95
2467.471	2771.09
2470.624	2812.38
2473.777	2788.35
2476.929	2802.42
2480.082	2827.51
2483.234	2791.48
2486.385	2746.06
2489.537	2738.62
2492.688	2694.45
2495.839	2708.38
2498.989	2720.2
2502.14	2703.08
2505.29	2682.72
2508.439	2709.67
2511.589	2626.48
2514.738	2640.27
2517.887	2674.22
2521.035	2737.41
2524.183	2724.31
2527.331	2702.73
2530.479	2675.73
2533.627	2688.23
