Data from N_3_DEC_ON_6N_Splice17_13-37-32-662.txt Node
Date: Sat Mar 14 13:37:32 EDT 2020
User: sa697716
Spectrometer: FLMS03696
Trigger mode: 0
Integration Time (sec): 3.180400E-1
Scans to average: 20
Electric dark correction enabled: true
Nonlinearity correction enabled: true
Boxcar width: 5
XAxis mode: Wavelengths
Number of Pixels in Spectrum: 2048
>>>>>Begin Spectral Data<<<<<
187.83	-535259.17
188.298	3773.54
188.766	1944.82
189.233	1768.42
189.701	2435.54
190.169	3304.17
190.636	1247.67
191.104	972.57
191.571	144.31
192.039	-63.72
192.506	-118.93
192.974	479.23
193.441	-778.62
193.908	-80.8
194.375	-46.48
194.842	16.12
195.31	73.17
195.777	188.15
196.244	400.53
196.711	480.61
197.177	640
197.644	894.72
198.111	1585.86
198.578	2226.24
199.045	1775.03
199.511	2916.59
199.978	3377.25
200.445	2887.28
200.911	3165.97
201.378	3527.83
201.844	3200.88
202.31	5398.94
202.777	5661.65
203.243	3123.83
203.709	2950.63
204.176	3495.75
204.642	2887.52
205.108	2706.93
205.574	2200.64
206.04	1989.94
206.506	1874.35
206.972	1756.88
207.438	1701.5
207.903	1925.44
208.369	1699.68
208.835	1696.61
209.301	1769.35
209.766	1803.66
210.232	1779.28
210.697	2176.58
211.163	2685.8
211.628	4033.67
212.094	3398.68
212.559	4162.38
213.024	2577.09
213.49	3118.27
213.955	3035.06
214.42	2946.87
214.885	2739.9
215.35	2633.62
215.815	2582.55
216.28	2741.22
216.745	2224.11
217.21	2372.81
217.675	2154.38
218.14	2408.3
218.604	2646.09
219.069	2982.16
219.534	3116.05
219.998	3560.17
220.463	4246.44
220.927	5120.69
221.392	4771.37
221.856	4808.16
222.32	6017.36
222.785	7388.85
223.249	9240.47
223.713	10260.94
224.177	10219.77
224.642	13029.24
225.106	15980.55
225.57	17393.88
226.034	12934.06
226.497	19675.24
226.961	17772.61
227.425	20692.01
227.889	22877.47
228.353	22862.56
228.816	47198.56
229.28	45209.51
229.744	38103.32
230.207	23188.47
230.671	22825.47
231.134	37640.96
231.597	43383.54
232.061	43281.96
232.524	42134.48
232.987	29016.11
233.45	26122.87
233.914	23429.57
234.377	23961.4
234.84	21924.41
235.303	25846.49
235.766	28875.24
236.229	29827.26
236.691	18757.52
237.154	21053.84
237.617	15857.47
238.08	16228.76
238.542	18961.54
239.005	13540.75
239.468	13438.86
239.93	12674.76
240.393	11510.42
240.855	10091.64
241.317	10323.72
241.78	12557.06
242.242	12986.24
242.704	14043.84
243.166	12253.28
243.629	11152.5
244.091	12858.97
244.553	14100.49
245.015	15153.27
245.477	19592.81
245.939	28724.31
246.4	30572.45
246.862	29702.97
247.324	28010.43
247.786	31322.05
248.247	41084.57
248.709	42307.57
249.17	31702.86
249.632	29899.78
250.093	34716.72
250.555	30011.34
251.016	18327.76
251.477	17396.76
251.939	18824.92
252.4	19788.32
252.861	23517.32
253.322	21891.37
253.783	26087.66
254.244	33856.16
254.705	26699.37
255.166	23755.66
255.627	23428.82
256.088	33119.04
256.549	35179.78
257.009	30288.65
257.47	36754.76
257.931	29931.75
258.391	22435.85
258.852	23155.51
259.312	24251.67
259.773	29971.98
260.233	25358.85
260.694	21411.95
261.154	24269.87
261.614	19537.26
262.074	17476.56
262.534	18179.13
262.994	17178.15
263.455	22901.43
263.915	19300.65
264.374	18197.75
264.834	19877.39
265.294	22044.31
265.754	22852.41
266.214	21637.19
266.673	20248.4
267.133	25589.78
267.593	25378.76
268.052	31069.66
268.512	27029.71
268.971	32667.86
269.431	35893.98
269.89	32212.58
270.349	48305.46
270.809	53895.74
271.268	48533.22
271.727	109065.99
272.186	70672.82
272.645	53041.86
273.104	38233.61
273.563	55411.99
274.022	43596.05
274.481	37136.88
274.94	28603.05
275.399	21272.04
275.857	24778.15
276.316	33493.65
276.775	29801.61
277.233	29378.94
277.692	27564.54
278.15	31245.51
278.609	32199.95
279.067	29800.98
279.525	27692.6
279.984	35818.6
280.442	43046.05
280.9	42510.84
281.358	28015.15
281.816	26095
282.274	25555.99
282.732	26393.01
283.19	26544.73
283.648	22919.44
284.106	24449.42
284.564	24868.26
285.021	23065.94
285.479	17196.36
285.937	15626.68
286.394	13725.22
286.852	14151.49
287.309	14888.81
287.767	14426.8
288.224	13737.04
288.682	15089.64
289.139	16579.49
289.596	15182.85
290.053	15790.7
290.511	19940.38
290.968	24240.88
291.425	32907.39
291.882	27448.89
292.339	23950.66
292.796	23721.03
293.252	22347.15
293.709	17764.38
294.166	15919.33
294.623	17603.54
295.079	16897.46
295.536	16999.64
295.992	15435.54
296.449	15270.44
296.905	15851.3
297.362	15199
297.818	16010.36
298.274	16648.28
298.731	16967.88
299.187	16803.7
299.643	18056.45
300.099	21852.98
300.555	23979.28
301.011	20050.37
301.467	19379.95
301.923	22691.89
302.379	22172.1
302.835	21773.1
303.291	21775.05
303.746	24794.93
304.202	31352.98
304.658	31472
305.113	21171.34
305.569	20767.08
306.024	22145.45
306.479	21059.66
306.935	17796.44
307.39	19436.75
307.845	17974.91
308.301	18128.49
308.756	17667.56
309.211	17007.73
309.666	17430.74
310.121	21681.06
310.576	21990.83
311.031	21815.45
311.486	24967.4
311.94	24943.87
312.395	33343.17
312.85	62694.92
313.305	307426.23
313.759	1596204.07
314.214	115918.27
314.668	91982.24
315.123	77375.32
315.577	27778.57
316.032	24737.65
316.486	31070.68
316.94	24512.73
317.394	17133.06
317.849	13318.07
318.303	12623.85
318.757	11897.27
319.211	13169.02
319.665	11537.25
320.119	11694.93
320.572	16782.15
321.026	15695.66
321.48	13065.09
321.934	14255.3
322.387	14234.48
322.841	15397.4
323.295	13882.99
323.748	15981.74
324.202	16203.11
324.655	19488.62
325.108	27252.39
325.562	19267.44
326.015	22895.21
326.468	17280.17
326.921	19345.67
327.374	18074.73
327.827	18832.76
328.28	21337.64
328.733	14348.57
329.186	12623.35
329.639	12032.01
330.092	10137.09
330.545	9661.74
330.997	9749
331.45	10690.66
331.903	12541.11
332.355	21596.07
332.808	20991.31
333.26	17288.96
333.713	18740.71
334.165	18888.2
334.617	25184.34
335.069	20351.24
335.522	36785.72
335.974	40775.64
336.426	37229.37
336.878	25777.16
337.33	13083.33
337.782	12774.41
338.234	16003.22
338.686	19155.2
339.137	22703.5
339.589	21427.93
340.041	16798.58
340.493	14442.89
340.944	14787.49
341.396	15946.83
341.847	13430.2
342.299	15880.77
342.75	19410.8
343.201	16956.29
343.653	19491.55
344.104	23976.28
344.555	18859.44
345.006	29342.41
345.457	22512.81
345.908	17911.77
346.359	16875.48
346.81	13759.76
347.261	14491.21
347.712	14259.09
348.163	15316.42
348.613	15525.68
349.064	14495.32
349.515	12684.83
349.965	13042.23
350.416	15710.68
350.866	17223.84
351.317	19461.5
351.767	32210.98
352.217	40664.74
352.668	33818.78
353.118	31041.06
353.568	29945.69
354.018	23717.66
354.468	25090.4
354.918	18004.28
355.368	15779.18
355.818	22322.21
356.268	64159.72
356.718	268752.42
357.168	67007.76
357.617	33558.12
358.067	37302.54
358.517	34986.39
358.966	41081.51
359.416	46205.97
359.865	49947.87
360.315	59464.41
360.764	27832.93
361.213	15652.17
361.663	14847.48
362.112	18348.95
362.561	29813.3
363.01	22531.49
363.459	18968.64
363.908	20565.77
364.357	17494.73
364.806	29563.35
365.255	20364.52
365.703	18729.48
366.152	18786.73
366.601	15300.08
367.05	12477.49
367.498	11355.75
367.947	11908.28
368.395	12457.26
368.844	11111.65
369.292	13435.42
369.74	9348.84
370.189	14422.12
370.637	17020.39
371.085	14770.86
371.533	18092.43
371.981	17580.19
372.429	16952.45
372.877	17795.9
373.325	15061.76
373.773	15449.86
374.221	13954.09
374.669	17508.71
375.116	15304.65
375.564	15580.16
376.012	17696.17
376.459	14782.42
376.907	17836.07
377.354	21807.67
377.801	20641.13
378.249	24055.57
378.696	31181.21
379.143	38168
379.591	41295.99
380.038	70914.8
380.485	52129.11
380.932	57218.73
381.379	53233
381.826	39907.48
382.273	28811.07
382.72	25596.93
383.166	25335.25
383.613	16706.59
384.06	15332.89
384.506	18027.48
384.953	13463.3
385.4	13765.67
385.846	12221.52
386.292	12101.1
386.739	12033.54
387.185	12082.2
387.631	12250.49
388.078	12050.15
388.524	13074.65
388.97	12230.53
389.416	10337.15
389.862	11123.77
390.308	10665.21
390.754	10967.86
391.2	12052.84
391.645	12462.14
392.091	12028.86
392.537	11751.16
392.983	11906.78
393.428	11809.37
393.874	12783.5
394.319	12935.54
394.765	12377.17
395.21	12851.59
395.655	12155.1
396.101	11453.64
396.546	10413.58
396.991	10595.32
397.436	9899.61
397.881	9624.64
398.326	9173.77
398.771	8716.51
399.216	7680.21
399.661	6957.54
400.106	6959.85
400.551	7155.84
400.995	6449.85
401.44	6401.32
401.885	6039.47
402.329	6126.05
402.774	5886.21
403.218	5705.24
403.663	5510.19
404.107	5667.92
404.551	5711.31
404.995	5245.47
405.44	5062.27
405.884	5152.51
406.328	5002.91
406.772	4996.45
407.216	4552.82
407.66	4410.71
408.104	4203.5
408.547	3942.96
408.991	3816.36
409.435	3680.86
409.879	3630.15
410.322	3582.89
410.766	3455.39
411.209	3281.27
411.653	3148.96
412.096	3082.95
412.54	3084.34
412.983	3062.16
413.426	3066.51
413.869	3067.38
414.312	3007.35
414.756	2896.94
415.199	2763.44
415.642	2681.11
416.085	2680.98
416.527	2664.12
416.97	2708.48
417.413	2568.87
417.856	2544.95
418.298	2519.18
418.741	2504.24
419.184	2501.85
419.626	2615.25
420.069	2615.43
420.511	2631.4
420.953	2576.81
421.396	2549.8
421.838	2487.3
422.28	2545.02
422.722	2553.65
423.164	2591.66
423.606	2546.23
424.048	2538.54
424.49	2402.93
424.932	2388.73
425.374	2353.69
425.816	2395.98
426.258	2441.85
426.699	2468.44
427.141	2429
427.582	2466.39
428.024	2451.82
428.465	2435.78
428.907	2371.05
429.348	2341.42
429.789	2336.15
430.231	2281.78
430.672	2307.22
431.113	2245.65
431.554	2203.64
431.995	2141.33
432.436	2056.4
432.877	2004.91
433.318	1962.68
433.759	1954.02
434.2	1950.83
434.64	1929.4
435.081	1932.93
435.522	1827.46
435.962	1759.71
436.403	1718.07
436.843	1743.28
437.284	1706.47
437.724	1660.77
438.164	1669.53
438.604	1631.62
439.045	1568.95
439.485	1505.1
439.925	1474.26
440.365	1439.47
440.805	1424.43
441.245	1408.96
441.685	1358.72
442.125	1353.39
442.564	1366.02
443.004	1336.61
443.444	1336.97
443.883	1341.52
444.323	1336.31
444.762	1345.15
445.202	1367.99
445.641	1392.34
446.081	1391.12
446.52	1406.21
446.959	1394.15
447.398	1361.8
447.837	1348.33
448.276	1327.36
448.716	1344.14
449.154	1362.32
449.593	1332.01
450.032	1330.54
450.471	1313.01
450.91	1317.17
451.349	1314.09
451.787	1312.15
452.226	1336.26
452.664	1340.89
453.103	1348.18
453.541	1352
453.98	1348.6
454.418	1360.69
454.856	1340.86
455.295	1339.23
455.733	1352.48
456.171	1362.1
456.609	1362.8
457.047	1363.86
457.485	1383.04
457.923	1383.61
458.361	1363.17
458.798	1367.27
459.236	1363.03
459.674	1374.19
460.111	1378.78
460.549	1362.9
460.987	1359.34
461.424	1357.26
461.862	1348.44
462.299	1325.62
462.736	1322.03
463.173	1325.8
463.611	1307.88
464.048	1303.47
464.485	1310.84
464.922	1300.76
465.359	1294.15
465.796	1269.92
466.233	1258.21
466.67	1242.8
467.106	1238.87
467.543	1228.91
467.98	1214.25
468.416	1185.23
468.853	1178.03
469.29	1143.78
469.726	1130.8
470.162	1101.21
470.599	1092.11
471.035	1084.38
471.471	1061.13
471.907	1057.59
472.344	1051.9
472.78	1054.93
473.216	1070.47
473.652	1058.06
474.088	1057.82
474.523	1057.2
474.959	1069.15
475.395	1062.06
475.831	1058.58
476.266	1067.46
476.702	1066.41
477.138	1055.51
477.573	1054.86
478.008	1052.2
478.444	1059.36
478.879	1070.75
479.314	1075.53
479.75	1076.9
480.185	1084.79
480.62	1095.99
481.055	1103.92
481.49	1114.04
481.925	1133.23
482.36	1153.19
482.795	1188.55
483.229	1223.39
483.664	1251.12
484.099	1259.71
484.534	1281.19
484.968	1295.07
485.403	1300.94
485.837	1302.62
486.271	1302.79
486.706	1306.57
487.14	1295.14
487.574	1275.35
488.009	1264.08
488.443	1254.25
488.877	1268.17
489.311	1272.92
489.745	1289.04
490.179	1302
490.613	1325.45
491.046	1337.88
491.48	1349.21
491.914	1352.4
492.348	1363.39
492.781	1373.29
493.215	1378.79
493.648	1383.11
494.082	1396.3
494.515	1397.75
494.948	1413.25
495.382	1424.02
495.815	1433.23
496.248	1444.16
496.681	1470.32
497.114	1494.81
497.547	1515.05
497.98	1538.62
498.413	1548.85
498.846	1566.51
499.279	1585.17
499.711	1593.02
500.144	1596.09
500.577	1614.89
501.009	1634.42
501.442	1649.34
501.874	1648.35
502.306	1648.38
502.739	1658.59
503.171	1683.37
503.603	1683.99
504.036	1694.42
504.468	1699.63
504.9	1716.27
505.332	1723.19
505.764	1723.88
506.196	1730.64
506.627	1749.86
507.059	1766.75
507.491	1775.75
507.923	1761.62
508.354	1780.25
508.786	1790.73
509.217	1813.05
509.649	1829.06
510.08	1851.22
510.512	1869.11
510.943	1883.44
511.374	1890.44
511.805	1913.48
512.237	1934.8
512.668	1979.61
513.099	2012.77
513.53	2043.11
513.961	2062.11
514.391	2098.66
514.822	2136.4
515.253	2178.53
515.684	2202.42
516.114	2233.06
516.545	2249.93
516.975	2273.84
517.406	2283.16
517.836	2268.74
518.267	2262.11
518.697	2273.3
519.127	2263.9
519.558	2260.77
519.988	2250.78
520.418	2251.13
520.848	2262.29
521.278	2259.98
521.708	2266.39
522.138	2271.41
522.567	2304.42
522.997	2328.36
523.427	2338.22
523.857	2349.43
524.286	2351.36
524.716	2360.95
525.145	2377.56
525.575	2382.44
526.004	2391.48
526.433	2372.65
526.863	2362.07
527.292	2338.32
527.721	2338.16
528.15	2337.81
528.579	2331.44
529.008	2337.86
529.437	2362.05
529.866	2373.24
530.295	2391.03
530.724	2402.27
531.152	2432.71
531.581	2447.33
532.01	2466.61
532.438	2472.06
532.867	2486.23
533.295	2506.78
533.723	2511.18
534.152	2504.03
534.58	2499.72
535.008	2474.21
535.436	2472.52
535.865	2480.27
536.293	2497.28
536.721	2515.34
537.149	2546.9
537.576	2547.98
538.004	2561.92
538.432	2571.29
538.86	2566.95
539.287	2575.06
539.715	2590.49
540.143	2592.74
540.57	2586.54
540.998	2579.56
541.425	2545.53
541.852	2514.72
542.28	2510.88
542.707	2487.37
543.134	2465.59
543.561	2459.03
543.988	2447.71
544.415	2446.25
544.842	2438.7
545.269	2428.83
545.696	2429.94
546.123	2447.63
546.549	2434.6
546.976	2418.63
547.403	2418.7
547.829	2421.3
548.256	2424.11
548.682	2419.66
549.108	2410.25
549.535	2410.27
549.961	2412.6
550.387	2396.75
550.813	2390.5
551.24	2399.83
551.666	2401.49
552.092	2389.54
552.518	2382.2
552.943	2376.05
553.369	2388.83
553.795	2397.78
554.221	2400.82
554.646	2398.02
555.072	2414.72
555.498	2424.69
555.923	2441.64
556.349	2464.5
556.774	2481.49
557.199	2488.56
557.625	2501.11
558.05	2495.78
558.475	2514.69
558.9	2517.44
559.325	2513.55
559.75	2509.31
560.175	2505.91
560.6	2502.42
561.025	2506.34
561.449	2512.26
561.874	2525.88
562.299	2539.11
562.723	2555.66
563.148	2549.03
563.572	2563.08
563.997	2584.02
564.421	2599.03
564.846	2606.76
565.27	2618.7
565.694	2622.73
566.118	2648.3
566.542	2666.67
566.966	2664.66
567.39	2666.38
567.814	2658.87
568.238	2665.84
568.662	2681.22
569.086	2694.36
569.509	2714.62
569.933	2700.08
570.357	2698.27
570.78	2676.24
571.204	2665.32
571.627	2658.36
572.05	2665.57
572.474	2674.19
572.897	2665.03
573.32	2663.31
573.743	2657.65
574.166	2638.91
574.589	2649.5
575.012	2647.77
575.435	2655.59
575.858	2652.21
576.281	2644.53
576.704	2629.29
577.126	2619.19
577.549	2611.97
577.972	2605.07
578.394	2598.03
578.817	2593.92
579.239	2572.23
579.661	2557.93
580.084	2538.95
580.506	2524.53
580.928	2525.58
581.35	2514.4
581.772	2515.29
582.194	2499.93
582.616	2485.87
583.038	2469.08
583.46	2458.24
583.882	2458.39
584.303	2473.29
584.725	2472.71
585.147	2479.69
585.568	2503.1
585.99	2529.17
586.411	2544.77
586.833	2574.5
587.254	2581.79
587.675	2609.43
588.096	2636.44
588.518	2633.58
588.939	2608.29
589.36	2609.85
589.781	2599.78
590.202	2555.87
590.623	2545.57
591.043	2545.76
591.464	2528.52
591.885	2525.53
592.305	2519.37
592.726	2499.67
593.147	2505.69
593.567	2499.79
593.987	2489.18
594.408	2483.78
594.828	2483.45
595.248	2475.74
595.669	2446.5
596.089	2436.52
596.509	2428.99
596.929	2408.62
597.349	2411.95
597.769	2396.9
598.189	2389.27
598.608	2393.98
599.028	2399.45
599.448	2403.03
599.867	2383.4
600.287	2379.94
600.706	2375.02
601.126	2361.26
601.545	2362.97
601.965	2361.77
602.384	2356.35
602.803	2365.46
603.222	2361.89
603.641	2352.92
604.061	2348.66
604.48	2346.85
604.898	2364.76
605.317	2379.02
605.736	2387.23
606.155	2386.98
606.574	2377.61
606.992	2390.99
607.411	2387.41
607.829	2377.16
608.248	2378.41
608.666	2380.91
609.085	2384.49
609.503	2375.32
609.921	2368.89
610.339	2378.26
610.758	2382.73
611.176	2381.63
611.594	2372.52
612.012	2371.4
612.43	2384.27
612.847	2401.47
613.265	2409.52
613.683	2425.96
614.101	2434.44
614.518	2435.32
614.936	2424.15
615.353	2404.16
615.771	2403.52
616.188	2408.46
616.606	2409.77
617.023	2402.87
617.44	2382.9
617.857	2376.52
618.274	2365.13
618.691	2358.85
619.108	2345.44
619.525	2338.67
619.942	2355.45
620.359	2366.26
620.776	2360.75
621.192	2355.77
621.609	2354.28
622.026	2370.07
622.442	2383
622.859	2392.1
623.275	2381.01
623.691	2393.8
624.108	2416.76
624.524	2445.22
624.94	2446.18
625.356	2468.24
625.772	2495.08
626.188	2519.68
626.604	2523.87
627.02	2517.77
627.436	2514.31
627.852	2529.61
628.268	2554.69
628.683	2540.43
629.099	2524.97
629.514	2517.9
629.93	2526.38
630.345	2537.04
630.761	2531.43
631.176	2539.12
631.591	2528.42
632.007	2519.09
632.422	2516.11
632.837	2497.16
633.252	2493.42
633.667	2477.08
634.082	2462.37
634.497	2439.82
634.911	2404.7
635.326	2401.68
635.741	2373.63
636.155	2359.67
636.57	2365.48
636.984	2369.55
637.399	2376.22
637.813	2380.86
638.228	2384.57
638.642	2397.93
639.056	2385.63
639.47	2393.15
639.884	2382.53
640.298	2377.69
640.712	2383
641.126	2365.25
641.54	2354.66
641.954	2354.28
642.368	2336.34
642.781	2324.15
643.195	2295.7
643.609	2301.36
644.022	2295.34
644.436	2293.66
644.849	2274.41
645.262	2256.05
645.676	2265.85
646.089	2262.85
646.502	2235.17
646.915	2230.77
647.328	2203.61
647.741	2202.39
648.154	2178.63
648.567	2174.91
648.98	2150.74
649.393	2154.47
649.805	2148.92
650.218	2135.59
650.631	2104.95
651.043	2093.59
651.456	2081.49
651.868	2085.79
652.28	2127.42
652.693	2162.12
653.105	2179.76
653.517	2203.12
653.929	2207.53
654.341	2223.18
654.753	2201.15
655.165	2218.94
655.577	2218.62
655.989	2214.7
656.401	2204.14
656.813	2128.39
657.224	2088.3
657.636	2030.95
658.047	1994.88
658.459	1957.74
658.87	1942.32
659.282	1920.56
659.693	1878.09
660.104	1848.93
660.515	1824.04
660.926	1820.19
661.338	1816.59
661.749	1805.11
662.159	1785.96
662.57	1778.84
662.981	1768.4
663.392	1752.26
663.803	1760.66
664.213	1754.97
664.624	1743.69
665.035	1747.34
665.445	1716.66
665.855	1697.95
666.266	1676.85
666.676	1669.64
667.086	1647.91
667.497	1641.39
667.907	1625.34
668.317	1602.5
668.727	1586.91
669.137	1586.37
669.547	1575.73
669.956	1577.33
670.366	1577.27
670.776	1575.65
671.186	1579.25
671.595	1580.16
672.005	1583.67
672.414	1577.55
672.824	1569.71
673.233	1578.3
673.642	1577.16
674.052	1577.85
674.461	1576.32
674.87	1582.5
675.279	1573.55
675.688	1574.79
676.097	1574.3
676.506	1564.36
676.915	1589.74
677.323	1590.86
677.732	1584.65
678.141	1582.42
678.549	1562.44
678.958	1562.23
679.366	1561.5
679.775	1573.66
680.183	1592.55
680.592	1608.47
681	1623.23
681.408	1614.94
681.816	1637.71
682.224	1662.79
682.632	1689.64
683.04	1757.14
683.448	1815.09
683.856	1885.57
684.264	1965.55
684.671	2045.09
685.079	2134.44
685.487	2234.16
685.894	2368.08
686.302	2477.63
686.709	2563.04
687.116	2661.58
687.524	2736.67
687.931	2792.63
688.338	2833.8
688.745	2863.72
689.152	2891.89
689.559	2942.21
689.966	2984.36
690.373	2981.92
690.78	3011.09
691.187	3082
691.593	3120.14
692	3142.39
692.407	3200.29
692.813	3278
693.22	3324.43
693.626	3376.17
694.032	3399.37
694.439	3468.09
694.845	3504.64
695.251	3569.75
695.657	3616.93
696.063	3714.85
696.469	3772.42
696.875	3819.09
697.281	3821.36
697.687	3834.5
698.093	3837.64
698.498	3895.26
698.904	3925.98
699.31	3999.6
699.715	4034.41
700.12	4110.06
700.526	4084.43
700.931	4132.2
701.337	4155.86
701.742	4152.77
702.147	4224.37
702.552	4218.11
702.957	4255.3
703.362	4240.1
703.767	4239.64
704.172	4253.87
704.577	4158.55
704.981	4181.4
705.386	4165.06
705.791	4121.32
706.195	4180.96
706.6	4157.79
707.004	4224.55
707.408	4156.64
707.813	4161.31
708.217	4118.14
708.621	4091.91
709.025	4181.65
709.43	4157.93
709.834	4201.15
710.237	4256.5
710.641	4213.37
711.045	4214.88
711.449	4185.1
711.853	4197.56
712.256	4219.01
712.66	4239.05
713.064	4299.61
713.467	4323.46
713.87	4426.07
714.274	4455.3
714.677	4551.16
715.08	4705.36
715.484	4865.11
715.887	5063.93
716.29	5252.85
716.693	5454.3
717.096	5684.43
717.499	5804.42
717.901	5807.77
718.304	5812.6
718.707	5818.4
719.109	5695.71
719.512	5642.71
719.915	5486.98
720.317	5409.22
720.719	5434.87
721.122	5386.13
721.524	5319.82
721.926	5262.57
722.328	5347.36
722.731	5323.71
723.133	5336.26
723.535	5513.84
723.937	5523.64
724.338	5561.15
724.74	5589.04
725.142	5538.09
725.544	5527.32
725.945	5549.09
726.347	5531.83
726.748	5518.44
727.15	5523.21
727.551	5479.69
727.952	5442.27
728.354	5402.9
728.755	5395.08
729.156	5344.45
729.557	5300.26
729.958	5170.97
730.359	5105.64
730.76	5083.94
731.161	5018.68
731.562	4988.65
731.962	4983.93
732.363	4916.48
732.763	4849.84
733.164	4877.28
733.564	4808.98
733.965	4712.38
734.365	4678.59
734.766	4699.23
735.166	4655.35
735.566	4600.04
735.966	4568.65
736.366	4559.24
736.766	4498.29
737.166	4524.88
737.566	4481.64
737.966	4453.66
738.365	4489.09
738.765	4482.17
739.165	4408.34
739.564	4380.25
739.964	4417.6
740.363	4371.51
740.763	4366.59
741.162	4354.4
741.561	4324.24
741.96	4279.34
742.36	4293.95
742.759	4296.45
743.158	4328.25
743.557	4338.64
743.955	4374.34
744.354	4329.59
744.753	4381.14
745.152	4340.54
745.55	4387.42
745.949	4377.38
746.348	4377.97
746.746	4393.35
747.144	4354.36
747.543	4332.03
747.941	4379.21
748.339	4313.19
748.737	4305.56
749.136	4297.82
749.534	4358
749.932	4333.09
750.33	4352.81
750.727	4402.2
751.125	4380.33
751.523	4366.38
751.921	4408
752.318	4373.95
752.716	4428.38
753.113	4441.9
753.511	4464.02
753.908	4466.49
754.305	4454.2
754.703	4511.51
755.1	4570.12
755.497	4625.09
755.894	4800.75
756.291	4965.98
756.688	5270.34
757.085	5674.35
757.482	6242.9
757.878	6865.77
758.275	7426.68
758.672	8189.62
759.068	8823.13
759.465	9718.83
759.861	10874.71
760.258	12216.56
760.654	12900.96
761.05	12804.35
761.447	12220.25
761.843	11373.18
762.239	10502.51
762.635	10102.93
763.031	9727.4
763.427	9179.35
763.822	8605.29
764.218	8041.7
764.614	7302.76
765.01	6809.45
765.405	6486.97
765.801	6248.41
766.196	5938.69
766.592	5765.94
766.987	5477.9
767.382	5283.42
767.778	5202.11
768.173	5081.11
768.568	5010.55
768.963	4899.06
769.358	4919.49
769.753	4878.4
770.148	4800.21
770.542	4800.63
770.937	4772.24
771.332	4856.28
771.726	4873.05
772.121	4815.53
772.515	4866.42
772.91	4856.67
773.304	4920.84
773.699	4859.26
774.093	4908.51
774.487	4956.56
774.881	4998.85
775.275	4994.84
775.669	4954.35
776.063	4995.87
776.457	5027.23
776.851	4959.07
777.245	4950.67
777.638	4984.11
778.032	5088.12
778.425	5056.23
778.819	5099.4
779.212	5060.76
779.606	5025.76
779.999	5046.22
780.392	5031.8
780.786	5111.1
781.179	5130.93
781.572	5173.21
781.965	5181.47
782.358	5132.87
782.751	5182.97
783.143	5140.2
783.536	5208.07
783.929	5246.07
784.322	5353.19
784.714	5381.72
785.107	5374.05
785.499	5442.15
785.891	5421.15
786.284	5405.95
786.676	5535.57
787.068	5522.01
787.46	5566.91
787.852	5584.48
788.245	5666.82
788.636	5691.64
789.028	5755.12
789.42	5793.05
789.812	5800.53
790.204	5891.16
790.595	5983.46
790.987	5806.29
791.378	5828.51
791.77	5949.47
792.161	6074.82
792.553	6125.32
792.944	6025.72
793.335	5964.68
793.726	6035.88
794.117	6123.52
794.508	6249.98
794.899	6221.58
795.29	6349.22
795.681	6398.54
796.072	6267.21
796.463	6108.51
796.853	6121.49
797.244	6268.58
797.634	6302.64
798.025	6303.47
798.415	6311.51
798.806	6396.27
799.196	6478.21
799.586	6529.19
799.976	6499.73
800.366	6715.88
800.756	6928.57
801.146	6890.75
801.536	6920.41
801.926	6984.86
802.316	7008.62
802.706	7076.92
803.095	6963.87
803.485	7061.25
803.874	7098.46
804.264	7339.87
804.653	7317.2
805.043	7456.42
805.432	7558.81
805.821	7560.32
806.21	7583.56
806.599	7694.41
806.988	7743.15
807.377	7841.07
807.766	7964.48
808.155	8227.13
808.544	7978.88
808.933	7996.31
809.321	7976.34
809.71	8250.71
810.098	8395.89
810.487	8825.17
810.875	9269.48
811.264	9291.03
811.652	9571.13
812.04	9702.55
812.428	9861.71
812.816	10578.42
813.204	10960.68
813.592	11474.32
813.98	11794.07
814.368	11713.47
814.756	12164.6
815.144	12096.18
815.531	12532.15
815.919	12458.97
816.306	12752.58
816.694	12464.45
817.081	12512.62
817.469	12843.48
817.856	12846.21
818.243	13101.34
818.63	13461.05
819.017	13068.77
819.404	13135.88
819.791	13488.91
820.178	14065.13
820.565	14301.57
820.952	15172.82
821.339	14710.36
821.725	14890.77
822.112	14198.15
822.498	14162.78
822.885	14289.45
823.271	14206.08
823.657	14599.94
824.044	14609.36
824.43	14672.95
824.816	14646.49
825.202	14239.94
825.588	15200.22
825.974	15205.69
826.36	15694.05
826.746	15709.74
827.132	16047.85
827.517	16021.34
827.903	15276.88
828.289	15311.92
828.674	14585.3
829.06	14485.83
829.445	14854.24
829.83	15186.67
830.216	15629.09
830.601	15963.52
830.986	15594.83
831.371	15458.87
831.756	15975.91
832.141	15570.34
832.526	15563.37
832.911	15827.47
833.295	15706.66
833.68	16136.74
834.065	15554.04
834.449	14704.35
834.834	14628.89
835.218	14615.85
835.603	14934.15
835.987	14731.94
836.371	15508.18
836.755	15405.43
837.139	15767.6
837.524	15993.76
837.908	15823.51
838.291	15877.64
838.675	15937.28
839.059	16126.69
839.443	16114.14
839.827	15892.34
840.21	16330.62
840.594	16192.36
840.977	16382.66
841.361	16355.33
841.744	16696.9
842.127	16552.08
842.511	16776.83
842.894	17319
843.277	17674.26
843.66	18178.22
844.043	18259.38
844.426	17522.49
844.809	17220.1
845.191	17250.84
845.574	16833.95
845.957	16490.61
846.339	16385.23
846.722	15893.36
847.104	15955.4
847.487	15784.33
847.869	15784.1
848.252	16030.04
848.634	16327.41
849.016	16574.97
849.398	16678.59
849.78	17449.03
850.162	17454.77
850.544	17837.25
850.926	18412.18
851.307	18329.55
851.689	18590.28
852.071	19013.71
852.452	19313.8
852.834	19294.15
853.215	19655.83
853.597	19796.63
853.978	20080.97
854.359	20503.28
854.741	19595.73
855.122	19502.68
855.503	19235.26
855.884	19362.46
856.265	19305.7
856.646	19408.78
857.026	19052.16
857.407	18992.63
857.788	19141.14
858.169	19402.19
858.549	18616.91
858.93	19184.5
859.31	19234.42
859.69	19436.78
860.071	19061
860.451	18860.07
860.831	18185.39
861.211	19242.62
861.591	19755.55
861.971	19733.45
862.351	19918.72
862.731	20274.92
863.111	20512.09
863.491	20822.37
863.87	21624.92
864.25	21952.88
864.629	21586.29
865.009	22063.24
865.388	22862.62
865.768	24503.12
866.147	24416.31
866.526	23059.72
866.905	23353.54
867.284	24673
867.663	23412.69
868.042	22441.34
868.421	22365.72
868.8	22734.77
869.179	22954.03
869.558	21612.48
869.936	19921.35
870.315	20267.37
870.693	20760.61
871.072	22380.19
871.45	21315.8
871.828	21601.25
872.207	22710.8
872.585	22363.46
872.963	22977.5
873.341	22190.38
873.719	21923.93
874.097	21662.01
874.475	22073.51
874.853	22572.11
875.23	21633.56
875.608	22541.07
875.986	24391.15
876.363	23325.04
876.741	24049.55
877.118	23448.53
877.495	24610.65
877.873	25020.98
878.25	26327.1
878.627	25251.52
879.004	25598.72
879.381	25472.17
879.758	24805.71
880.135	23073.75
880.512	24398.48
880.889	23739.23
881.265	23483.37
881.642	23263.01
882.019	23655.84
882.395	23170.76
882.772	24098.63
883.148	23056.89
883.524	22959.04
883.901	22820.67
884.277	23165.76
884.653	23012.27
885.029	23670.91
885.405	26216.93
885.781	26021.91
886.157	24951.22
886.532	25246.86
886.908	25220.41
887.284	28040.62
887.659	28954.19
888.035	29841.35
888.411	30595.18
888.786	30999.29
889.161	32068.32
889.537	31453.8
889.912	32446.57
890.287	32396.97
890.662	33235.85
891.037	32630.68
891.412	30414.78
891.787	30093.2
892.162	29042.62
892.536	29722.81
892.911	28606.95
893.286	27992.23
893.66	26869.95
894.035	27556.36
894.409	30003.95
894.784	28780.26
895.158	29252.99
895.532	30986.52
895.906	31839.37
896.281	32584.57
896.655	32065.38
897.029	36623.4
897.402	38142.63
897.776	42437.64
898.15	42286.55
898.524	41839.49
898.898	42413.65
899.271	47501.55
899.645	41151.42
900.018	39536.8
900.392	41022.34
900.765	41360.1
901.138	38288.77
901.511	37713.58
901.884	34658.81
902.258	31986.29
902.631	33043.39
903.003	38011.32
903.376	34279.9
903.749	38435.9
904.122	41129.9
904.495	45276.44
904.867	45846.19
905.24	39788.82
905.612	37047.31
905.985	37862.15
906.357	39569.68
906.729	37776.19
907.102	32282.59
907.474	31051.45
907.846	31259.71
908.218	30848.99
908.59	27269.63
908.962	26366.08
909.334	28400.81
909.705	29842.28
910.077	28982.94
910.449	30171.19
910.82	31012.98
911.192	34130.26
911.563	35468.93
911.935	37950.19
912.306	38019.52
912.677	39245.74
913.048	38890.63
913.419	42197.65
913.79	42438.67
914.161	45501.61
914.532	43520.29
914.903	39997.06
915.274	37989.24
915.645	37452.87
916.015	32978.32
916.386	31434.87
916.756	33470.95
917.127	34503.3
917.497	30832.67
917.868	33569.23
918.238	31919.55
918.608	32832.82
918.978	33524.89
919.348	35494.01
919.718	36678.8
920.088	35313.41
920.458	36705.38
920.828	38632.26
921.198	36637.04
921.567	39149.89
921.937	30290.85
922.306	30575.47
922.676	32974.91
923.045	27517.84
923.415	26154.92
923.784	23807.04
924.153	24500.29
924.522	24474.26
924.891	22995.79
925.26	24632.73
925.629	24052.09
925.998	27678.61
926.367	27029.44
926.736	25746.38
927.104	30668.84
927.473	32980.29
927.842	39861.8
928.21	39491.36
928.578	41522.02
928.947	39301.23
929.315	39568.83
929.683	46440.76
930.051	46836.29
930.42	54367.88
930.788	46451.46
931.156	46084.32
931.523	43196.91
931.891	39912.05
932.259	38334.62
932.627	44411.23
932.994	62813.64
933.362	51878.67
933.729	45027.98
934.097	43048.41
934.464	36429
934.831	42030.2
935.199	41440.98
935.566	40168.32
935.933	40632.16
936.3	49177.47
936.667	38279.95
937.034	34558.42
937.401	34238.33
937.767	29555.87
938.134	26332.66
938.501	37184.37
938.867	39711.39
939.234	67222.35
939.6	57383.4
939.967	63434.33
940.333	42482.1
940.699	36191.34
941.065	29037.17
941.431	38044.34
941.798	36686.77
942.163	48249.3
942.529	30126.58
942.895	27701.79
943.261	17907.21
943.627	23522.34
943.992	20599.63
944.358	20660.99
944.723	20765.63
945.089	20226.79
945.454	18672.42
945.82	19948.99
946.185	19161.14
946.55	22208.93
946.915	19953.68
947.28	23413.25
947.645	20587.69
948.01	18998.24
948.375	19804.43
948.74	23719.68
949.104	27677.14
949.469	39997.48
949.834	70670.53
950.198	66960.47
950.562	40114.28
950.927	33359.02
951.291	40136.69
951.655	34235.2
952.02	32127.92
952.384	24268.55
952.748	21144.43
953.112	20643.29
953.476	17948.51
953.839	16586.85
954.203	16437.33
954.567	20561.28
954.931	32386.21
955.294	27738.38
955.658	27897.83
956.021	47425.32
956.385	80436.48
956.748	118447.01
957.111	183499.85
957.474	205941.23
957.837	231895.23
958.2	175299.89
958.563	63048.54
958.926	42618.9
959.289	64670.69
959.652	72204.35
960.015	54177.07
960.377	77750.33
960.74	88782.29
961.102	153215.31
961.465	164391.95
961.827	88255.26
962.189	169277.16
962.552	117333
962.914	94049.6
963.276	60953.85
963.638	50344.22
964	49880.28
964.362	33722.7
964.724	32596.2
965.085	23248.36
965.447	19082.86
965.809	21709.32
966.17	21713.23
966.532	23459.75
966.893	21548.12
967.255	19612.08
967.616	23171.09
967.977	18541.27
968.338	20239.63
968.699	16641.73
969.061	16636.01
969.421	16744.47
969.782	18765.48
970.143	15865.07
970.504	16460.94
970.865	18706.16
971.225	19113.27
971.586	18683.27
971.946	26629.12
972.307	23080.22
972.667	30161.31
973.027	31055.31
973.388	37608.52
973.748	25585.67
974.108	27877.12
974.468	37714.82
974.828	29104.23
975.188	22401.41
975.548	20561.68
975.907	17267.79
976.267	19390.78
976.627	16306.74
976.986	16897.85
977.346	16120.27
977.705	15505.67
978.064	14107.39
978.424	11732.34
978.783	12110.14
979.142	13808.27
979.501	13231.79
979.86	13988.08
980.219	13476.92
980.578	17361.6
980.937	19441.38
981.296	17328.3
981.654	17831.79
982.013	27712.98
982.371	35999.6
982.73	33630.3
983.088	38077.19
983.447	40664.38
983.805	58132.32
984.163	121544.54
984.521	134848.53
984.879	197740.19
985.237	-321741.48
985.595	310469.06
985.953	77307.56
986.311	44536.91
986.669	25846.41
987.026	22320.02
987.384	30000.77
987.741	31019.06
988.099	22198.79
988.456	17687.71
988.814	16586.05
989.171	14411.03
989.528	14203.38
989.885	15007.17
990.242	11915.04
990.599	14854.68
990.956	12167.2
991.313	8506.19
991.67	6990.27
992.027	7418.58
992.383	6605.71
992.74	5794.58
993.096	6072.81
993.453	6292.68
993.809	6517.45
994.165	8674.46
994.522	7956.44
994.878	8754.1
995.234	10973.71
995.59	10810.08
995.946	10199.43
996.302	11625.51
996.658	13412.94
997.013	14775.56
997.369	17554.5
997.725	22493.3
998.08	14546.82
998.436	22372.03
998.791	30903.21
999.147	30937.85
999.502	33719.85
999.857	24558.23
1000.212	40004.33
1000.567	57007.48
1000.922	32865.09
1001.277	20861.57
1001.632	15460.09
1001.987	19926.25
1002.342	14271.47
1002.696	11418.74
1003.051	9114.84
1003.406	11061.94
1003.76	11014.41
1004.114	10864.79
1004.469	9159.56
1004.823	7598.31
1005.177	8200.1
1005.531	6496.82
1005.885	5784.18
1006.239	6538.7
1006.593	8202.18
1006.947	10940.02
1007.301	8180.83
1007.655	8910.65
1008.008	6548.01
1008.362	7331.19
1008.715	10492.63
1009.069	9512.98
1009.422	14358.84
1009.776	28781.77
1010.129	19136.42
1010.482	15979.06
1010.835	13526.7
1011.188	28219.95
1011.541	26555.27
1011.894	-162563.25
1012.247	479083.6
1012.6	32510.16
1012.952	20559.24
1013.305	10552.52
1013.657	7606.14
1014.01	7189.77
1014.362	5935.32
1014.715	5303.14
1015.067	4625.31
1015.419	4525.37
1015.771	4001.71
1016.123	3562.38
1016.475	3666.09
1016.827	3906.41
1017.179	4215.64
1017.531	4248.95
1017.883	4341.78
1018.234	4212.87
1018.586	5316.75
1018.938	5668.54
1019.289	7799.57
1019.64	8928.38
1019.992	8314.12
1020.343	7573.7
1020.694	5978.91
1021.045	5281.27
1021.396	6032.03
1021.747	6496.24
1022.098	7776.97
1022.449	5644.25
1022.8	5187.9
1023.151	3620.05
1023.501	3208.03
1023.852	3475.22
1024.202	3645.73
1024.553	4011.23
1024.903	3954.52
1025.253	3396.05
1025.604	3050.84
1025.954	3772.27
1026.304	4602.2
1026.654	5404.05
1027.004	7979.84
1027.354	12968.1
1027.703	12292.54
1028.053	16099.78
1028.403	23742.91
1028.753	34140.66
1029.102	46084.07
1029.452	236236.47
1029.801	10179.12
1030.15	6539.57
1030.499	5513.73
897.758	3286.42
901.051	3266.47
904.343	3304.52
907.636	3295.9
910.928	3368.13
914.22	3268.46
917.511	3281.64
920.803	3366.33
924.094	3413.87
927.384	3364.25
930.675	3328.63
933.965	3267.63
937.255	3263.54
940.544	3227.7
943.834	3080.89
947.123	3036.19
950.411	3143.84
953.7	3105.54
956.988	3051.65
960.276	2998.35
963.563	3119.35
966.851	3097.99
970.138	3174.85
973.424	3150.44
976.711	3100.02
979.997	3356.14
983.283	3374.3
986.568	3242.11
989.853	3288.14
993.138	3320.17
996.423	3403.72
999.708	3317.89
1002.992	3434.13
1006.275	3162.64
1009.559	3270.88
1012.842	3410.07
1016.125	3313.21
1019.408	3289.2
1022.69	3417.4
1025.972	3422.36
1029.254	3391.53
1032.536	3281.75
1035.817	3325.71
1039.098	3229.75
1042.379	3496.25
1045.659	3446.62
1048.939	3357.12
1052.219	3396.73
1055.498	3426.22
1058.778	3395.24
1062.057	3385.21
1065.335	3402.98
1068.614	3437.66
1071.892	3400.13
1075.17	3502.56
1078.447	3480.12
1081.724	3463.46
1085.001	3517.68
1088.278	3482.17
1091.554	3504.6
1094.83	3502.47
1098.106	3526.73
1101.382	3590.69
1104.657	3587.7
1107.932	3587.72
1111.206	3531.95
1114.481	3491.49
1117.755	3501.24
1121.029	3461.44
1124.302	3512.41
1127.575	3440.06
1130.848	3416.16
1134.121	3369.24
1137.393	3299.19
1140.665	3381.39
1143.937	3360.08
1147.208	3264.72
1150.48	3289.36
1153.75	3272.37
1157.021	3341.57
1160.291	3294.33
1163.561	3337.58
1166.831	3357.73
1170.101	3392.71
1173.37	3382.17
1176.639	3303.37
1179.907	3376.76
1183.176	3427.9
1186.444	3434.49
1189.711	3466.06
1192.979	3466.7
1196.246	3427.92
1199.513	3450.71
1202.78	3444.28
1206.046	3449.85
1209.312	3482.57
1212.578	3519.9
1215.843	3448.1
1219.108	3431.92
1222.373	3456.03
1225.638	3400.77
1228.902	3377.15
1232.166	3346.91
1235.43	3321.48
1238.693	3338.92
1241.956	3343.57
1245.219	3376.57
1248.482	3379.91
1251.744	3369.81
1255.006	3557.49
1258.268	3519.88
1261.529	3448.77
1264.79	3461.02
1268.051	3588.08
1271.312	3609.02
1274.572	3559.78
1277.832	3552.27
1281.092	3551.21
1284.351	3496.8
1287.61	3467.79
1290.869	3351.9
1294.128	3301.86
1297.386	3443.89
1300.644	3431.46
1303.902	3440.25
1307.159	3283
1310.416	3345.63
1313.673	3362.09
1316.93	3332.15
1320.186	3403.4
1323.442	3460.23
1326.697	3435.54
1329.953	3450.44
1333.208	3459.7
1336.463	3442.79
1339.717	3367.4
1342.972	3460.96
1346.226	3466.32
1349.479	3376.88
1352.733	3331.31
1355.986	3374.73
1359.238	3343.94
1362.491	3346.72
1365.743	3347.47
1368.995	3350.68
1372.247	3366.92
1375.498	3383.31
1378.749	3446.16
1382	3385.63
1385.251	3464.43
1388.501	3432.29
1391.751	3399.59
1395	3379.99
1398.25	3418.03
1401.499	3414.26
1404.748	3323.41
1407.996	3236.45
1411.244	3229.95
1414.492	3204.42
1417.74	3176.34
1420.987	3194.28
1424.234	3252.16
1427.481	3250.57
1430.728	3305.94
1433.974	3279.73
1437.22	3311.83
1440.465	3316.05
1443.711	3320.62
1446.956	3356.1
1450.201	3365.08
1453.445	3412.61
1456.689	3376.81
1459.933	3393.24
1463.177	3421.71
1466.42	3389.68
1469.663	3371.22
1472.906	3337.67
1476.148	3483.51
1479.391	3360.61
1482.633	3349.23
1485.874	3347.69
1489.115	3310.27
1492.356	3340.78
1495.597	3308.26
1498.838	3324.55
1502.078	3271.49
1505.318	3187.17
1508.557	3245.27
1511.797	3155.21
1515.036	3337.72
1518.274	3318.92
1521.513	3299.99
1524.751	3334.86
1527.989	3335.27
1531.227	3343.12
1534.464	3309.29
1537.701	3363.41
1540.938	3394.17
1544.174	3349.24
1547.41	3364.29
1550.646	3399.74
1553.882	3423.24
1557.117	3478.23
1560.352	3504.11
1563.587	3456.88
1566.821	3403.91
1570.055	3465.18
1573.289	3425.18
1576.523	3523.82
1579.756	3524.01
1582.989	3538.04
1586.222	3494.11
1589.454	3544.08
1592.686	3507.74
1595.918	3526.36
1599.15	3502.71
1602.381	3618.15
1605.612	3539.48
1608.843	3643.23
1612.073	3540.84
1615.303	3521.05
1618.533	3501.3
1621.762	3512.86
1624.992	3515.36
1628.221	3481.29
1631.449	3467.56
1634.678	3558.4
1637.906	3496.94
1641.134	3552.83
1644.361	3495.94
1647.588	3481.19
1650.815	3487.98
1654.042	3484.85
1657.269	3525.21
1660.495	3470.91
1663.72	3409.42
1666.946	3396.37
1670.171	3298.36
1673.396	3275.04
1676.621	3275.19
1679.845	3325.49
1683.069	3367.42
1686.293	3428.89
1689.517	3376.82
1692.74	3268.69
1695.963	3288.1
1699.185	3392.78
1702.408	3338.74
1705.63	3397.14
1708.852	3400.7
1712.073	3372.55
1715.294	3333.38
1718.515	3358.3
1721.736	3302.37
1724.956	3264.18
1728.176	3300.57
1731.396	3320.02
1734.616	3318.64
1737.835	3325.68
1741.054	3320.26
1744.272	3318.2
1747.491	3328.91
1750.709	3419.46
1753.927	3317.94
1757.144	3377.84
1760.361	3453.46
1763.578	3464.21
1766.795	3391.43
1770.011	3410.26
1773.227	3477.63
1776.443	3505.13
1779.658	3553.4
1782.874	3494.63
1786.089	3456.44
1789.303	3461.47
1792.518	3472.15
1795.732	3461.38
1798.945	3463.09
1802.159	3526.19
1805.372	3383.97
1808.585	3349.5
1811.797	3355.69
1815.01	3438
1818.222	3446.01
1821.434	3313.95
1824.645	3425.75
1827.856	3383.77
1831.067	3432.54
1834.278	3352.44
1837.488	3343.24
1840.698	3528.12
1843.908	3427.49
1847.117	3383.2
1850.326	3206.01
1853.535	3346.21
1856.744	3482.62
1859.952	3354.77
1863.16	3353.82
1866.368	3377.83
1869.575	3538.21
1872.782	3411.39
1875.989	3354.04
1879.196	3484.88
1882.402	3481.51
1885.608	3533.03
1888.814	3391.81
1892.019	3259.43
1895.224	3313.53
1898.429	3310.99
1901.634	3279.74
1904.838	3263.22
1908.042	3305.25
1911.246	3304.53
1914.449	3195.39
1917.652	3209.09
1920.855	3194.41
1924.058	3272.84
1927.26	3301.8
1930.462	3338.12
1933.664	3351.78
1936.865	3278.55
1940.066	3275.51
1943.267	3222.7
1946.467	3252.84
1949.668	3290.42
1952.868	3358.05
1956.067	3314.85
1959.267	3232.93
1962.466	3268.04
1965.665	3256.54
1968.863	3253.86
1972.061	3290.45
1975.259	3293.71
1978.457	3384
1981.654	3329.14
1984.852	3329.82
1988.048	3233.47
1991.245	3256.02
1994.441	3346.3
1997.637	3360.2
2000.833	3343.7
2004.028	3388.9
2007.223	3431.04
2010.418	3393.01
2013.613	3363.34
2016.807	3303.85
2020.001	3325.5
2023.194	3404.42
2026.388	3366.94
2029.581	3312.82
2032.774	3347.05
2035.966	3340.19
2039.158	3250.38
2042.35	3290.38
2045.542	3214.5
2048.733	3347.29
2051.924	3408.7
2055.115	3455.1
2058.306	3361.84
2061.496	3433.02
2064.686	3513.79
2067.875	3433.01
2071.065	3468.26
2074.254	3505.57
2077.442	3453.4
2080.631	3557.71
2083.819	3390.37
2087.007	3356.88
2090.195	3309.88
2093.382	3369.68
2096.569	3341.9
2099.756	3281.78
2102.942	3282.37
2106.128	3274.16
2109.314	3270.18
2112.5	3203.51
2115.685	3187.87
2118.87	3202.73
2122.055	3276.79
2125.239	3220.85
2128.424	3174.11
2131.608	3340.22
2134.791	3319.37
2137.974	3408.1
2141.157	3382.54
2144.34	3310.19
2147.523	3328.64
2150.705	3323.37
2153.887	3319
2157.068	3237.95
2160.25	3267.9
2163.431	3330.36
2166.611	3241.7
2169.792	3254.73
2172.972	3118.65
2176.152	3242.66
2179.331	3288.79
2182.511	3271.26
2185.69	3307.01
2188.868	3291.81
2192.047	3378.5
2195.225	3337
2198.403	3283.19
2201.58	3284.7
2204.758	3285.76
2207.935	3386.76
2211.111	3232.51
2214.288	3209.28
2217.464	3258.91
2220.64	3249
2223.815	3316.73
2226.991	3218.72
2230.166	3244.05
2233.34	3258.69
2236.515	3292.67
2239.689	3388.02
2242.863	3319.93
2246.036	3383.43
2249.209	3409.77
2252.382	3459.97
2255.555	3425.01
2258.727	3337.64
2261.9	3390.92
2265.071	3383.31
2268.243	3394.85
2271.414	3306.35
2274.585	3232.89
2277.756	3315.3
2280.926	3268.31
2284.096	3320.75
2287.266	3198.77
2290.436	3268.86
2293.605	3313
2296.774	3330.65
2299.942	3376.49
2303.111	3394.97
2306.279	3438.88
2309.447	3428.49
2312.614	3402.47
2315.781	3418.87
2318.948	3375.11
2322.115	3419.08
2325.281	3316.19
2328.447	3352.02
2331.613	3334.44
2334.779	3278.75
2337.944	3291.78
2341.109	3283.55
2344.274	3260.28
2347.438	3223.04
2350.602	3257.01
2353.766	3280.04
2356.929	3259.94
2360.092	3305.28
2363.255	3231.51
2366.418	3120.51
2369.58	3296.86
2372.742	2962.9
2375.904	3002.64
2379.066	2962.71
2382.227	3011.98
2385.388	2970.17
2388.548	2866.1
2391.709	2941.92
2394.869	2911.56
2398.029	3067.14
2401.188	3104.89
2404.347	3000.14
2407.506	3224.58
2410.665	3248.79
2413.823	3279.72
2416.981	3206.96
2420.139	3259.26
2423.296	3324.32
2426.453	3297.84
2429.61	3327.51
2432.767	3215.05
2435.923	3270.77
2439.079	3143.29
2442.235	3235.01
2445.391	3138
2448.546	3144.33
2451.701	3218.82
2454.855	3155.71
2458.009	3239.87
2461.163	3259.07
2464.317	3197.65
2467.471	3242.77
2470.624	3280.51
2473.777	3336.46
2476.929	3328.03
2480.082	3357.68
2483.234	3326.39
2486.385	3191.54
2489.537	3193.75
2492.688	3120.21
2495.839	3136.29
2498.989	3141.13
2502.14	3119.46
2505.29	3086.01
2508.439	3118.05
2511.589	3016.14
2514.738	3045.9
2517.887	3074.28
2521.035	3237
2524.183	3229.53
2527.331	3194.85
2530.479	3145.85
2533.627	3167.42
