Data from N_3_DEC_NC_4N_Splice17_13-07-12-378.txt Node
Date: Sat Mar 14 13:07:12 EDT 2020
User: sa697716
Spectrometer: FLMS03696
Trigger mode: 0
Integration Time (sec): 3.180400E-1
Scans to average: 20
Electric dark correction enabled: true
Nonlinearity correction enabled: true
Boxcar width: 5
XAxis mode: Wavelengths
Number of Pixels in Spectrum: 2048
>>>>>Begin Spectral Data<<<<<
187.83	-308316.59
188.298	2402.31
188.766	1325.92
189.233	1146.49
189.701	1633.84
190.169	2379.37
190.636	910.06
191.104	756.62
191.571	127.31
192.039	-49.84
192.506	-63.24
192.974	523.36
193.441	-606.27
193.908	65.92
194.375	-4.92
194.842	54.16
195.31	203.59
195.777	164.45
196.244	356.44
196.711	396.09
197.177	514.61
197.644	706.02
198.111	1227.94
198.578	1733.28
199.045	1376.54
199.511	2238.82
199.978	2612.06
200.445	2232.95
200.911	2474.92
201.378	2736.2
201.844	2473.81
202.31	4197.54
202.777	4376.91
203.243	2447.8
203.709	2331.8
204.176	2780.66
204.642	2300.25
205.108	2145.46
205.574	1736.97
206.04	1593.79
206.506	1498.84
206.972	1405.02
207.438	1342.99
207.903	1524.17
208.369	1325.2
208.835	1313.7
209.301	1372.5
209.766	1414.18
210.232	1396.82
210.697	1730.38
211.163	2116.16
211.628	3199.35
212.094	2685.98
212.559	3316.91
213.024	2055.12
213.49	2512.81
213.955	2441.14
214.42	2373.03
214.885	2205.36
215.35	2104.53
215.815	2051.76
216.28	2162.73
216.745	1748.18
217.21	1890.31
217.675	1720.72
218.14	1927.69
218.604	2124.2
219.069	2390.88
219.534	2500.5
219.998	2850.18
220.463	3415.13
220.927	4122.6
221.392	3849.65
221.856	3896.41
222.32	4851.79
222.785	5952.45
223.249	7447.05
223.713	8280.14
224.177	8266.87
224.642	10521.38
225.106	12901.17
225.57	14083.2
226.034	10472.6
226.497	15938.85
226.961	14342.41
227.425	16711.75
227.889	18506.66
228.353	18433.2
228.816	37864.89
229.28	36198.56
229.744	30427.71
230.207	18510.98
230.671	18173.18
231.134	29952.25
231.597	34504.83
232.061	34357.74
232.524	33459.49
232.987	23004.02
233.45	20693.3
233.914	18568.28
234.377	19000.23
234.84	17368.84
235.303	20436.05
235.766	22810.52
236.229	23525.66
236.691	14793.56
237.154	16647.07
237.617	12529.95
238.08	12815.44
238.542	15006.99
239.005	10732.93
239.468	10643.34
239.93	10040.98
240.393	9138.91
240.855	8017.59
241.317	8215.34
241.78	9993.29
242.242	10318.25
242.704	11159.76
243.166	9728.56
243.629	8850.19
244.091	10179.5
244.553	11155.82
245.015	11989.92
245.477	15468.58
245.939	22652.3
246.4	24050.22
246.862	23351.04
247.324	22023.41
247.786	24577.59
248.247	32163.34
248.709	33107.58
249.17	24792.14
249.632	23403.1
250.093	27193.11
250.555	23470.94
251.016	14337.06
251.477	13601.17
251.939	14696.38
252.4	15430.61
252.861	18329.31
253.322	17103.71
253.783	20373
254.244	26399.78
254.705	20790.54
255.166	18450.41
255.627	18197.2
256.088	25674.93
256.549	27268.78
257.009	23508.23
257.47	28521.23
257.931	23247.59
258.391	17423.45
258.852	17966.65
259.312	18853.98
259.773	23281.87
260.233	19714.26
260.694	16650.45
261.154	18895.8
261.614	15226.47
262.074	13600.99
262.534	14150.93
262.994	13380.71
263.455	17811.65
263.915	15009.79
264.374	14137.22
264.834	15440.35
265.294	17116
265.754	17710.26
266.214	16757.06
266.673	15681.38
267.133	19784.82
267.593	19596.47
268.052	23926.77
268.512	20803.78
268.971	25155.05
269.431	27576.54
269.89	24720.2
270.349	37075.46
270.809	41391.83
271.268	37189.48
271.727	83262.24
272.186	53934.55
272.645	40452.38
273.104	29157.38
273.563	42223.06
274.022	33145.39
274.481	28267.33
274.94	21781.19
275.399	16170.12
275.857	18798.49
276.316	25437.07
276.775	22655.5
277.233	22336.08
277.692	20959.95
278.15	23727.41
278.609	24444.66
279.067	22632.71
279.525	21023.87
279.984	27111.93
280.442	32574.26
280.9	32197.69
281.358	21183.84
281.816	19744.7
282.274	19351.32
282.732	19970.99
283.19	20052.57
283.648	17283.67
284.106	18397.47
284.564	18729.57
285.021	17397.04
285.479	12974.04
285.937	11791.65
286.394	10364.53
286.852	10683.93
287.309	11219.08
287.767	10873.88
288.224	10382.17
288.682	11419.18
289.139	12553.08
289.596	11498.09
290.053	11963.47
290.511	15095.71
290.968	18344.74
291.425	24917.47
291.882	20767.07
292.339	18095.45
292.796	17906.05
293.252	16867.77
293.709	13402.4
294.166	12015.19
294.623	13257.87
295.079	12709.59
295.536	12785.93
295.992	11605.7
296.449	11464.43
296.905	11917.65
297.362	11422.29
297.818	12011.97
298.274	12470.32
298.731	12688.84
299.187	12551.55
299.643	13471.53
300.099	16306.28
300.555	17869.94
301.011	14914.84
301.467	14428.37
301.923	16838.86
302.379	16457.29
302.835	16169.12
303.291	16197.51
303.746	18451.04
304.202	23339.96
304.658	23442.52
305.113	15749.24
305.569	15459.5
306.024	16477.56
306.479	15636.16
306.935	13226.31
307.39	14436.23
307.845	13348.46
308.301	13436.15
308.756	13109.6
309.211	12632.84
309.666	12928.88
310.121	16082.47
310.576	16307.81
311.031	16198.4
311.486	18547.9
311.94	18501.18
312.395	24784.11
312.85	46590.56
313.305	228074.9
313.759	1182141.81
314.214	85487.33
314.668	67798.54
315.123	57025.41
315.577	20503.63
316.032	18272.18
316.486	22893.04
316.94	18063.62
317.394	12574.47
317.849	9769.02
318.303	9276.17
318.757	8752.05
319.211	9705.19
319.665	8501.22
320.119	8615.31
320.572	12311.71
321.026	11505.58
321.48	9585.84
321.934	10472.09
322.387	10480.75
322.841	11349.81
323.295	10233.13
323.748	11756.77
324.202	11901.07
324.655	14301.89
325.108	20009.43
325.562	14186.56
326.015	16854.58
326.468	12761.66
326.921	14253.06
327.374	13313.44
327.827	13861
328.28	15695.87
328.733	10542
329.186	9296.89
329.639	8865.34
330.092	7458.05
330.545	7095.5
330.997	7172.36
331.45	7854.81
331.903	9227.53
332.355	15887.61
332.808	15391.81
333.26	12701.04
333.713	13817.12
334.165	13917.79
334.617	18616.13
335.069	15062.77
335.522	27228.45
335.974	30076.23
336.426	27533.24
336.878	19040.37
337.33	9666.23
337.782	9462.72
338.234	11835.04
338.686	14122.76
339.137	16739.54
339.589	15730
340.041	12333.98
340.493	10628.9
340.944	10912.09
341.396	11741.11
341.847	9891.83
342.299	11721.24
342.75	14345.53
343.201	12517.78
343.653	14400.34
344.104	17672.36
344.555	13937.74
345.006	21700.82
345.457	16627.44
345.908	13203.13
346.359	12416.06
346.81	10112.91
347.261	10616.48
347.712	10432.24
348.163	11187.62
348.613	11383.88
349.064	10651.19
349.515	9326.26
349.965	9561.34
350.416	11522.76
350.866	12625.92
351.317	14282.04
351.767	23678.31
352.217	29918.86
352.668	24896.18
353.118	22851.98
353.568	21934.39
354.018	17361.06
354.468	18342.87
354.918	13154.16
355.368	11499.96
355.818	16252.93
356.268	46585.22
356.718	195230.35
357.168	48723.2
357.617	24440.22
358.067	27193.98
358.517	25505.14
358.966	29903.84
359.416	33613.89
359.865	36419.29
360.315	43400.48
360.764	20318.98
361.213	11434.25
361.663	10800.32
362.112	13303.01
362.561	21505.16
363.01	16235.26
363.459	13662.36
363.908	14793.23
364.357	12553.67
364.806	21170.99
365.255	14557.85
365.703	13374.58
366.152	13394.6
366.601	10867.31
367.05	8850.85
367.498	8038.49
367.947	8376.03
368.395	8717.42
368.844	7713.05
369.292	9279.45
369.74	6428.55
370.189	9849.21
370.637	11540.19
371.085	9963.66
371.533	12154.61
371.981	11682.38
372.429	11180.93
372.877	11657.56
373.325	9769.86
373.773	9956.59
374.221	8860.31
374.669	10971.36
375.116	9470.16
375.564	9547.58
376.012	10631.49
376.459	8786.24
376.907	10513.32
377.354	12678.7
377.801	11861.12
378.249	13641.32
378.696	17468.78
379.143	21190.84
379.591	22605.48
380.038	38293.77
380.485	27673.98
380.932	30017
381.379	27471.14
381.826	20310.88
382.273	14444.71
382.72	12616.86
383.166	12331.16
383.613	8013.24
384.06	7247.41
384.506	8405.66
384.953	6177.93
385.4	6214.64
385.846	5445.35
386.292	5294.02
386.739	5173.29
387.185	5126.74
387.631	5146.76
388.078	5013.87
388.524	5363.43
388.97	4954.98
389.416	4140.8
389.862	4413.05
390.308	4199.64
390.754	4277.54
391.2	4659.24
391.645	4777.41
392.091	4595.21
392.537	4449.03
392.983	4448.88
393.428	4396.06
393.874	4716.08
394.319	4756.19
394.765	4527.68
395.21	4654.95
395.655	4354.18
396.101	4091.7
396.546	3700.51
396.991	3733.08
397.436	3469.69
397.881	3358.22
398.326	3180.54
398.771	3017.4
399.216	2628.88
399.661	2366.19
400.106	2365.35
400.551	2440.55
400.995	2191.31
401.44	2168.41
401.885	2037.1
402.329	2056.08
402.774	1972.75
403.218	1916.86
403.663	1849.05
404.107	1909.79
404.551	1929.53
404.995	1768.66
405.44	1702.43
405.884	1724.05
406.328	1669.23
406.772	1661.45
407.216	1520.85
407.66	1469.15
408.104	1389.42
408.547	1297.99
408.991	1252.98
409.435	1205.12
409.879	1187.61
410.322	1171.11
410.766	1135.48
411.209	1080.69
411.653	1038.61
412.096	1015.78
412.54	1013.96
412.983	1008.05
413.426	1010.63
413.869	1008.54
414.312	992.16
414.756	956.54
415.199	908.2
415.642	880.76
416.085	881.94
416.527	875.31
416.97	887.08
417.413	843.72
417.856	833.55
418.298	824.69
418.741	818.51
419.184	813.98
419.626	845.29
420.069	848.74
420.511	853.58
420.953	836.13
421.396	827.15
421.838	804.45
422.28	825.23
422.722	829.22
423.164	841.72
423.606	827.41
424.048	822.93
424.49	781.96
424.932	776.66
425.374	764.82
425.816	775.51
426.258	793.09
426.699	801.76
427.141	788.59
427.582	799.89
428.024	793.86
428.465	786.87
428.907	767.34
429.348	756.37
429.789	755.72
430.231	739.94
430.672	747.47
431.113	724.8
431.554	713.7
431.995	692.01
432.436	668.85
432.877	654.37
433.318	645.99
433.759	642.99
434.2	645.09
434.64	637.12
435.081	638.27
435.522	606.28
435.962	584.73
436.403	572.56
436.843	580.04
437.284	565.89
437.724	548.67
438.164	546.53
438.604	533.82
439.045	513.93
439.485	495.64
439.925	484.26
440.365	471.1
440.805	464.05
441.245	458.52
441.685	443.49
442.125	438.29
442.564	441.26
443.004	432.02
443.444	430.17
443.883	429.84
444.323	422.66
444.762	421.07
445.202	427.62
445.641	438.13
446.081	432.32
446.52	435.04
446.959	432.08
447.398	421.31
447.837	415.84
448.276	408.47
448.716	411.59
449.154	415.3
449.593	407.53
450.032	404.6
450.471	394.29
450.91	394.98
451.349	393.24
451.787	389.88
452.226	396.81
452.664	396.81
453.103	397.1
453.541	395.34
453.98	396.59
454.418	397.17
454.856	391.58
455.295	391.09
455.733	394.37
456.171	395.19
456.609	395.1
457.047	394.39
457.485	399.46
457.923	400.3
458.361	393.94
458.798	393.52
459.236	392.28
459.674	393.54
460.111	394.98
460.549	391.28
460.987	389.91
461.424	388.89
461.862	385.93
462.299	379.66
462.736	379.05
463.173	381.61
463.611	379.21
464.048	378.85
464.485	381.54
464.922	376.93
465.359	373.78
465.796	374.08
466.233	371.87
466.67	370.29
467.106	370.52
467.543	366.42
467.98	360.43
468.416	349.46
468.853	345.72
469.29	335.08
469.726	331.88
470.162	324.04
470.599	315.66
471.035	312.68
471.471	304.42
471.907	300.6
472.344	298.03
472.78	299.47
473.216	302.87
473.652	299.74
474.088	298.66
474.523	298.31
474.959	301.04
475.395	297.74
475.831	296.07
476.266	297.04
476.702	296.56
477.138	294.16
477.573	292.74
478.008	291.85
478.444	294.6
478.879	298.47
479.314	300.08
479.75	300.43
480.185	301.98
480.62	303.77
481.055	305.5
481.49	307.98
481.925	312.37
482.36	319.6
482.795	328.04
483.229	334.54
483.664	341.03
484.099	341.14
484.534	345.53
484.968	348.56
485.403	349.12
485.837	347.67
486.271	347.01
486.706	346.87
487.14	341.46
487.574	336.45
488.009	333.75
488.443	331.12
488.877	335.76
489.311	336.73
489.745	341.5
490.179	345.2
490.613	353.25
491.046	355.91
491.48	358.38
491.914	359.23
492.348	362.35
492.781	365.31
493.215	366.44
493.648	366.94
494.082	370.34
494.515	371.18
494.948	377.03
495.382	379.08
495.815	383.49
496.248	388.42
496.681	396.06
497.114	403.09
497.547	410.26
497.98	419.93
498.413	426.02
498.846	433.6
499.279	440.02
499.711	444.29
500.144	448.05
500.577	455.89
501.009	464.28
501.442	473.48
501.874	477.31
502.306	481.62
502.739	489.72
503.171	500.17
503.603	505.04
504.036	512.98
504.468	519.24
504.9	529.31
505.332	536.3
505.764	542.51
506.196	549.06
506.627	560.99
507.059	572.02
507.491	578.84
507.923	580.7
508.354	593.25
508.786	603.94
509.217	618.19
509.649	630.5
510.08	645.76
510.512	659.87
510.943	673.51
511.374	685.07
511.805	701.54
512.237	717.97
512.668	742.26
513.099	764.18
513.53	786.15
513.961	804.39
514.391	829.77
514.822	857.05
515.253	884.75
515.684	905.94
516.114	929.41
516.545	947.74
516.975	969.47
517.406	986.45
517.836	991.23
518.267	1000.34
518.697	1016.78
519.127	1024.1
519.558	1031.74
519.988	1038.04
520.418	1048.85
520.848	1065.43
521.278	1075.42
521.708	1108.34
522.138	1121.92
522.567	1148.74
522.997	1169.6
523.427	1183.72
523.857	1199.58
524.286	1211.07
524.716	1226.47
525.145	1244.28
525.575	1254.56
526.004	1267.92
526.433	1249.46
526.863	1250.79
527.292	1246.09
527.721	1253.01
528.15	1259.68
528.579	1262.74
529.008	1272.63
529.437	1291.06
529.866	1302.67
530.295	1317.53
530.724	1328.93
531.152	1351.41
531.581	1364.3
532.01	1377.92
532.438	1385.57
532.867	1397.21
533.295	1410.7
533.723	1416.15
534.152	1414.93
534.58	1415.54
535.008	1403.46
535.436	1406.34
535.865	1413.07
536.293	1424.76
536.721	1437.51
537.149	1456.66
537.576	1460.52
538.004	1471.27
538.432	1476.41
538.86	1474.69
539.287	1479.37
539.715	1490.71
540.143	1491.99
540.57	1489.12
540.998	1485.21
541.425	1467.57
541.852	1451.56
542.28	1449.29
542.707	1435.8
543.134	1426.86
543.561	1424.3
543.988	1419.4
544.415	1418.79
544.842	1414.12
545.269	1408.4
545.696	1410.59
546.123	1421.12
546.549	1413.13
546.976	1404.72
547.403	1405.57
547.829	1405.99
548.256	1407.95
548.682	1405.27
549.108	1400.85
549.535	1401.2
549.961	1403.12
550.387	1393.43
550.813	1389.92
551.24	1395.76
551.666	1394.73
552.092	1387.27
552.518	1383.43
552.943	1378.86
553.369	1384.81
553.795	1388.42
554.221	1389.06
554.646	1387.57
555.072	1396.61
555.498	1399.18
555.923	1405.51
556.349	1418.07
556.774	1425.08
557.199	1424.58
557.625	1428.42
558.05	1423.46
558.475	1431.09
558.9	1429.39
559.325	1420.97
559.75	1414.65
560.175	1409.27
560.6	1403.53
561.025	1400.33
561.449	1399.01
561.874	1403.51
562.299	1405.99
562.723	1410.23
563.148	1400.93
563.572	1402.36
563.997	1408.66
564.421	1410.54
564.846	1408.12
565.27	1408.91
565.694	1404.84
566.118	1412.4
566.542	1415.54
566.966	1408.16
567.39	1402.43
567.814	1392.48
568.238	1390.36
568.662	1392.33
569.086	1392.55
569.509	1395.65
569.933	1382.82
570.357	1375.08
570.78	1357.1
571.204	1345.56
571.627	1335.54
572.05	1331.06
572.474	1328.39
572.897	1316.27
573.32	1308.4
573.743	1298.46
574.166	1284.53
574.589	1281.22
575.012	1273.86
575.435	1270.31
575.858	1261
576.281	1250.79
576.704	1237.49
577.126	1225.99
577.549	1216.76
577.972	1207.56
578.394	1198.84
578.817	1191.9
579.239	1177.83
579.661	1167.15
580.084	1154.77
580.506	1144.92
580.928	1140.84
581.35	1131.74
581.772	1128.12
582.194	1118.05
582.616	1107.78
583.038	1096.53
583.46	1087.2
583.882	1083.23
584.303	1084.44
584.725	1080.2
585.147	1081.7
585.568	1088.99
585.99	1097.67
586.411	1101.77
586.833	1110.57
587.254	1110.77
587.675	1119.17
588.096	1126.94
588.518	1122.02
588.939	1109.44
589.36	1107.14
589.781	1096.44
590.202	1076.46
590.623	1068.64
591.043	1064.4
591.464	1053.87
591.885	1050.91
592.305	1046.31
592.726	1036.51
593.147	1037.2
593.567	1032.14
593.987	1026.12
594.408	1021.11
594.828	1017.23
595.248	1012.85
595.669	1001.08
596.089	996.48
596.509	990.85
596.929	980.28
597.349	979.85
597.769	971.92
598.189	968.31
598.608	969.2
599.028	970.52
599.448	970.53
599.867	961.03
600.287	955.94
600.706	952.23
601.126	945.13
601.545	944.43
601.965	943.05
602.384	938.78
602.803	939.46
603.222	935.52
603.641	930.56
604.061	926.91
604.48	922.87
604.898	928.53
605.317	930.96
605.736	931.08
606.155	928.82
606.574	921.28
606.992	924.14
607.411	919.71
607.829	912.7
608.248	909.1
608.666	906.49
609.085	905.46
609.503	898.45
609.921	893.81
610.339	893.85
610.758	891.41
611.176	887.05
611.594	879.44
612.012	876.46
612.43	877.46
612.847	881.24
613.265	881.69
613.683	882.96
614.101	883.05
614.518	878.62
614.936	871.23
615.353	861.01
615.771	858.62
616.188	857.72
616.606	854.01
617.023	848.91
617.44	838.09
617.857	831.71
618.274	825.31
618.691	820.47
619.108	814.04
619.525	809.17
619.942	812.02
620.359	813.13
620.776	808.87
621.192	806.37
621.609	803.92
622.026	808.26
622.442	811.98
622.859	813.67
623.275	808.2
623.691	810.72
624.108	818.66
624.524	827.55
624.94	827.28
625.356	833.02
625.772	840.3
626.188	846.83
626.604	846.37
627.02	842.3
627.436	840.13
627.852	844.28
628.268	852.2
628.683	844.56
629.099	838.58
629.514	833.75
629.93	836.76
630.345	839.67
630.761	837.11
631.176	838.2
631.591	835.07
632.007	831.15
632.422	828.74
632.837	820.42
633.252	819.11
633.667	811.35
634.082	804.54
634.497	794.65
634.911	781.21
635.326	777.4
635.741	765.49
636.155	756.75
636.57	756.2
636.984	753.49
637.399	752.84
637.813	749.23
638.228	746.61
638.642	747.58
639.056	739.34
639.47	736.36
639.884	728.43
640.298	721.94
640.712	717.95
641.126	707.2
641.54	699.56
641.954	692.32
642.368	683.1
642.781	676.82
643.195	662.99
643.609	660.83
644.022	654.27
644.436	648.93
644.849	639.71
645.262	630.93
645.676	629.12
646.089	624.43
646.502	614.96
646.915	610.03
647.328	598.94
647.741	596.86
648.154	587.47
648.567	586.15
648.98	577.7
649.393	576.87
649.805	575.1
650.218	570.43
650.631	561.53
651.043	557.95
651.456	554.08
651.868	552.3
652.28	560.28
652.693	566.81
653.105	568.43
653.517	573.1
653.929	572.57
654.341	574.39
654.753	566.81
655.165	569.34
655.577	566.35
655.989	562.24
656.401	556.65
656.813	537.01
657.224	525.46
657.636	507.95
658.047	497.7
658.459	486.13
658.87	478.17
659.282	470.82
659.693	458.93
660.104	450.38
660.515	442.72
660.926	439.62
661.338	436.31
661.749	431.16
662.159	426.43
662.57	423.91
662.981	420.04
663.392	416.06
663.803	417.47
664.213	414.45
664.624	410.44
665.035	410.21
665.445	403.71
665.855	401.56
666.266	398.03
666.676	396.32
667.086	389.67
667.497	389.87
667.907	387
668.317	382.23
668.727	383.98
669.137	384.17
669.547	383.43
669.956	384.27
670.366	384.12
670.776	385.3
671.186	387.74
671.595	391.24
672.005	393.47
672.414	394.08
672.824	394.62
673.233	394.54
673.642	396.96
674.052	400.45
674.461	404.44
674.87	407.66
675.279	407.58
675.688	408.49
676.097	410.85
676.506	410.48
676.915	418.75
677.323	420.96
677.732	421.71
678.141	423.12
678.549	418.1
678.958	417.88
679.366	418.4
679.775	422.13
680.183	431.94
680.592	436.37
681	441.22
681.408	439.41
681.816	445.27
682.224	450.47
682.632	458.43
683.04	477.45
683.448	493.07
683.856	513.23
684.264	535.12
684.671	553.48
685.079	577.71
685.487	603.73
685.894	640.83
686.302	671.56
686.709	700.05
687.116	731.7
687.524	758.11
687.931	782.29
688.338	803.03
688.745	822.93
689.152	844.92
689.559	874.49
689.966	908.31
690.373	926.77
690.78	958.91
691.187	1002.17
691.593	1038.86
692	1071.16
692.407	1116.93
692.813	1176.07
693.22	1222.09
693.626	1270.97
694.032	1311.79
694.439	1368.32
694.845	1416.91
695.251	1475.4
695.657	1530.46
696.063	1606.93
696.469	1667.96
696.875	1726.73
697.281	1761.89
697.687	1804.87
698.093	1843.89
698.498	1909.71
698.904	1962.79
699.31	2036.71
699.715	2093.23
700.12	2171.4
700.526	2195.15
700.931	2258.08
701.337	2307.51
701.742	2342.32
702.147	2417.9
702.552	2449.15
702.957	2503.85
703.362	2529.77
703.767	2560.64
704.172	2600.81
704.577	2573.77
704.981	2620.13
705.386	2642.06
705.791	2645.04
706.195	2712.11
706.6	2725.85
707.004	2796.58
707.408	2779.93
707.813	2808.96
708.217	2809.42
708.621	2816.65
709.025	2901.31
709.43	2909.75
709.834	2963.98
710.237	3026.61
710.641	3020.71
711.045	3047.34
711.449	3051.59
711.853	3082.57
712.256	3121.46
712.66	3155.93
713.064	3225.06
713.467	3266.91
713.87	3364.38
714.274	3408.59
714.677	3506.31
715.08	3646.86
715.484	3789.53
715.887	3963.62
716.29	4133.96
716.693	4315.08
717.096	4521.54
717.499	4638.55
717.901	4664.71
718.304	4691.86
718.707	4718.26
719.109	4636.77
719.512	4614.7
719.915	4505.9
720.317	4463.01
720.719	4504.43
721.122	4483.02
721.524	4447.01
721.926	4418.16
722.328	4505.17
722.731	4502.39
723.133	4530.79
723.535	4695.88
723.937	4717.54
724.338	4767.96
724.74	4806.2
725.142	4770.54
725.544	4775.5
725.945	4804.08
726.347	4800.43
726.748	4799.16
727.15	4813.97
727.551	4785.56
727.952	4763.68
728.354	4741.22
728.755	4742.96
729.156	4708.11
729.557	4687.49
729.958	4581.75
730.359	4534.22
730.76	4522.46
731.161	4470.53
731.562	4449.05
731.962	4450.56
732.363	4397.81
732.763	4343.41
733.164	4373.08
733.564	4315.87
733.965	4234.37
734.365	4207.32
734.766	4230.51
735.166	4195.31
735.566	4151.56
735.966	4130.75
736.366	4130.02
736.766	4079.5
737.166	4108.43
737.566	4077.58
737.966	4056.91
738.365	4091.63
738.765	4087.88
739.165	4026.27
739.564	4007
739.964	4046.32
740.363	4008.8
740.763	4006.81
741.162	3998.61
741.561	3972.33
741.96	3932.31
742.36	3950.62
742.759	3955.2
743.158	3989.16
743.557	4000.32
743.955	4033.88
744.354	3995.11
744.753	4044.55
745.152	4008.17
745.55	4054
745.949	4050.68
746.348	4052.27
746.746	4066.93
747.144	4033.64
747.543	4013.58
747.941	4057.82
748.339	3999.2
748.737	3992.71
749.136	3986
749.534	4041.32
749.932	4016.29
750.33	4033.95
750.727	4082.25
751.125	4062.76
751.523	4048.8
751.921	4087.85
752.318	4059.08
752.716	4108.48
753.113	4122.08
753.511	4143.49
753.908	4144.92
754.305	4132.39
754.703	4186.18
755.1	4238.68
755.497	4291.44
755.894	4455.08
756.291	4606.76
756.688	4889.11
757.085	5264.87
757.482	5792.46
757.878	6370.5
758.275	6890.61
758.672	7605.73
759.068	8186.46
759.465	9017.99
759.861	10088.51
760.258	11333.26
760.654	11970.37
761.05	11868.88
761.447	11328.85
761.843	10542.68
762.239	9730.17
762.635	9363.26
763.031	9014.64
763.427	8515.38
763.822	7988.2
764.218	7464.17
764.614	6781.66
765.01	6327.59
765.405	6033.63
765.801	5808.97
766.196	5524.73
766.592	5365.77
766.987	5098.5
767.382	4917.24
767.778	4837.81
768.173	4725.25
768.568	4661.61
768.963	4555.69
769.358	4572.14
769.753	4533.15
770.148	4460.95
770.542	4459.61
770.937	4433.78
771.332	4512.59
771.726	4528.17
772.121	4477.5
772.515	4524.58
772.91	4512.53
773.304	4571.15
773.699	4513.79
774.093	4559.41
774.487	4604.07
774.881	4639.56
775.275	4634.57
775.669	4596.13
776.063	4635.64
776.457	4664.74
776.851	4600.79
777.245	4595.44
777.638	4626.39
778.032	4725.26
778.425	4694.71
778.819	4735.41
779.212	4701.88
779.606	4667.54
779.999	4684.15
780.392	4667.93
780.786	4737.35
781.179	4757.6
781.572	4793.72
781.965	4803.5
782.358	4752.94
782.751	4798.47
783.143	4758.32
783.536	4820.96
783.929	4859.7
784.322	4961.07
784.714	4987.31
785.107	4983.69
785.499	5042.63
785.891	5026.33
786.284	5012.27
786.676	5135.82
787.068	5124.58
787.46	5166.66
787.852	5184.03
788.245	5255.98
788.636	5281.29
789.028	5341.29
789.42	5375.95
789.812	5384.23
790.204	5462.67
790.595	5545.14
790.987	5378.37
791.378	5395.38
791.77	5507.66
792.161	5619.61
792.553	5664.48
792.944	5569.94
793.335	5513.02
793.726	5575.87
794.117	5649.99
794.508	5766.19
794.899	5741.98
795.29	5862.55
795.681	5914.52
796.072	5795.01
796.463	5645.23
796.853	5657.86
797.244	5793.36
797.634	5821.57
798.025	5821.34
798.415	5837.25
798.806	5919.23
799.196	5995.54
799.586	6041.83
799.976	6007.39
800.366	6202.25
800.756	6402.65
801.146	6367.26
801.536	6390.96
801.926	6452.55
802.316	6474.86
802.706	6535.18
803.095	6428.95
803.485	6512.28
803.874	6541.85
804.264	6766.5
804.653	6746.36
805.043	6875.44
805.432	6970.82
805.821	6971.6
806.21	6995.93
806.599	7100.35
806.988	7141.06
807.377	7235.83
807.766	7350.04
808.155	7595.67
808.544	7365.96
808.933	7377.81
809.321	7358.81
809.71	7616.24
810.098	7754.98
810.487	8146.35
810.875	8557.58
811.264	8569.43
811.652	8825.21
812.04	8953.9
812.428	9100.98
812.816	9754.92
813.204	10112.75
813.592	10582.78
813.98	10871.73
814.368	10789.37
814.756	11206.17
815.144	11139.16
815.531	11539.88
815.919	11462.7
816.306	11723.03
816.694	11454.88
817.081	11503.77
817.469	11802.58
817.856	11801.75
818.243	12031.11
818.63	12369.46
819.017	12007.88
819.404	12060.21
819.791	12388.32
820.178	12913.63
820.565	13128.47
820.952	13924.86
821.339	13507.5
821.725	13668.28
822.112	13028.03
822.498	12993.18
822.885	13107.53
823.271	13021.95
823.657	13379.46
824.044	13388.92
824.43	13459.04
824.816	13426.35
825.202	13065.96
825.588	13932.61
825.974	13940.13
826.36	14388.81
826.746	14426.98
827.132	14731.36
827.517	14716.65
827.903	14048.11
828.289	14080.78
828.674	13412.37
829.06	13326.92
829.445	13653.18
829.83	13962.35
830.216	14372.39
830.601	14685.41
830.986	14327.89
831.371	14212.15
831.756	14688.34
832.141	14312.57
832.526	14308.68
832.911	14548.65
833.295	14450.64
833.68	14855.78
834.065	14323.18
834.449	13542.71
834.834	13481.65
835.218	13479.4
835.603	13768.97
835.987	13588.65
836.371	14304.88
836.755	14217.12
837.139	14557.28
837.524	14766.32
837.908	14610.85
838.291	14656.02
838.675	14710.67
839.059	14877.62
839.443	14855.62
839.827	14649.95
840.21	15050.06
840.594	14919.55
840.977	15088.63
841.361	15069.06
841.744	15383.21
842.127	15243.38
842.511	15454.04
842.894	15961.11
843.277	16285.62
843.66	16748.29
844.043	16824.7
844.426	16140.78
844.809	15876.88
845.191	15907.96
845.574	15511.71
845.957	15192.66
846.339	15105.08
846.722	14663.69
847.104	14727.75
847.487	14579.42
847.869	14598.24
848.252	14832.42
848.634	15107.91
849.016	15332.83
849.398	15433.06
849.78	16158.81
850.162	16170.04
850.544	16518.57
850.926	17035.19
851.307	16952.21
851.689	17193.07
852.071	17566.79
852.452	17842.93
852.834	17829.03
853.215	18162.43
853.597	18297.68
853.978	18543.91
854.359	18924.05
854.741	18073.86
855.122	17996.53
855.503	17747.44
855.884	17853.83
856.265	17803.66
856.646	17894.33
857.026	17562.7
857.407	17501.07
857.788	17628.93
858.169	17871.33
858.549	17158.37
858.93	17695.21
859.31	17740.55
859.69	17916.64
860.071	17575.26
860.451	17387.25
860.831	16761.44
861.211	17745.02
861.591	18219.54
861.971	18196.53
862.351	18369.64
862.731	18687.88
863.111	18910.02
863.491	19188.72
863.87	19938.01
864.25	20239.51
864.629	19903.96
865.009	20341.5
865.388	21063.77
865.768	22578.84
866.147	22498.13
866.526	21241.88
866.905	21506.95
867.284	22716.53
867.663	21574.98
868.042	20680.97
868.421	20603.21
868.8	20944.68
869.179	21148.98
869.558	19918.3
869.936	18355.64
870.315	18676.73
870.693	19138.7
871.072	20629.76
871.45	19644.79
871.828	19898.46
872.207	20923.42
872.585	20620.39
872.963	21180.76
873.341	20454.95
873.719	20213.09
874.097	19970.44
874.475	20346.45
874.853	20819.89
875.23	19963.8
875.608	20804.39
875.986	22498.68
876.363	21510.18
876.741	22176.06
877.118	21624.09
877.495	22690.08
877.873	23069.02
878.25	24272.03
878.627	23278.74
879.004	23606.54
879.381	23489.49
879.758	22872.16
880.135	21288.97
880.512	22508.58
880.889	21901.66
881.265	21674.03
881.642	21491.49
882.019	21861.82
882.395	21423.48
882.772	22292.72
883.148	21319.87
883.524	21224.74
883.901	21104.23
884.277	21419.1
884.653	21283.71
885.029	21897.29
885.405	24255.46
885.781	24066.88
886.157	23065.38
886.532	23337.9
886.908	23309.39
887.284	25914.26
887.659	26770.04
888.035	27607.05
888.411	28319.73
888.786	28692.66
889.161	29682.22
889.537	29126.47
889.912	30050.26
890.287	30015.75
890.662	30783.7
891.037	30230.79
891.412	28173.1
891.787	27881.15
892.162	26892.23
892.536	27517.17
892.911	26480.63
893.286	25906.35
893.66	24850.15
894.035	25477.1
894.409	27731.65
894.784	26606.33
895.158	27030.6
895.532	28641.77
895.906	29421.36
896.281	30103.64
896.655	29627.14
897.029	33839.42
897.402	35253.47
897.776	39246.09
898.15	39109.2
898.524	38683.94
898.898	39207.2
899.271	43894.97
899.645	37983.81
900.018	36480.59
900.392	37841.47
900.765	38116.29
901.138	35280.22
901.511	34729.08
901.884	31887.04
902.258	29398.74
902.631	30391.65
903.003	34950.68
903.376	31546.43
903.749	35408.35
904.122	37898.75
904.495	41716.83
904.867	42261.41
905.24	36672.85
905.612	34163.64
905.985	34934.4
906.357	36554.37
906.729	34894.94
907.102	29828.06
907.474	28685.34
907.846	28848.92
908.218	28471.12
908.59	25166.19
908.962	24345.3
909.334	26232.28
909.705	27543.22
910.077	26749.9
910.449	27844.55
910.82	28628.43
911.192	31515.3
911.563	32749.81
911.935	35074.63
912.306	35126.46
912.677	36278.1
913.048	35933.47
913.419	39004.27
913.79	39241.48
914.161	42083.98
914.532	40218.32
914.903	36935.91
915.274	35064.27
915.645	34553.96
916.015	30422.11
916.386	29025.44
916.756	30904.7
917.127	31872.79
917.497	28492.99
917.868	31010.63
918.238	29474.32
918.608	30342.84
918.978	30976.3
919.348	32827.93
919.718	33931.51
920.088	32688
920.458	33949.38
920.828	35736.07
921.198	33877.45
921.567	36190.29
921.937	28035.4
922.306	28298.8
922.676	30513.52
923.045	25486.29
923.415	24208.63
923.784	22034.7
924.153	22648.69
924.522	22634.02
924.891	21277.95
925.26	22794.53
925.629	22242.31
925.998	25553.47
926.367	24952.72
926.736	23761.1
927.104	28285.5
927.473	30399.15
927.842	36739.67
928.21	36388.44
928.578	38257.48
928.947	36186.55
929.315	36400.38
929.683	42695.44
930.051	43064.88
930.42	50004.01
930.788	42730.57
931.156	42387.25
931.523	39776.7
931.891	36767.82
932.259	35307.92
932.627	40896.08
932.994	57824.04
933.362	47771.89
933.729	41476.16
934.097	39676.25
934.464	33557.84
934.831	38760.77
935.199	38193.06
935.566	37023.63
935.933	37459.14
936.3	45372.07
936.667	35318.54
937.034	31862.03
937.401	31535.89
937.767	27224.94
938.134	24225.64
938.501	34171.87
938.867	36392.56
939.234	61584.84
939.6	52508.51
939.967	57969.71
940.333	38811.36
940.699	33035.56
941.065	26551.73
941.431	34844.24
941.798	33594.89
942.163	44197.62
942.529	27605.62
942.895	25415.8
943.261	16453.47
943.627	21599.49
943.992	18901.96
944.358	18949.29
944.723	19037.19
945.089	18529.52
945.454	17128.8
945.82	18301.15
946.185	17604.01
946.55	20405.92
946.915	18330.2
947.28	21496.77
947.645	18936.32
948.01	17497.53
948.375	18245.86
948.74	21870.7
949.104	25517.68
949.469	36810.13
949.834	64978.19
950.198	61583.84
950.562	36948.97
950.927	30751.68
951.291	36985.8
951.655	31522.26
952.02	29592.24
952.384	22382.01
952.748	19460.29
953.112	18998.65
953.476	16531.38
953.839	15290.77
954.203	15125.61
954.567	18903.29
954.931	29779.79
955.294	25505.4
955.658	25578.08
956.021	43501.5
956.385	73708.63
956.748	108931.98
957.111	168784.59
957.474	189416.47
957.837	213449.61
958.2	161556.43
958.563	58132.55
958.926	39260.99
959.289	59581.52
959.652	66648.55
960.015	49996.65
960.377	71803.54
960.74	82002.65
961.102	141609.02
961.465	152137.99
961.827	81493.42
962.189	156347.47
962.552	108414.3
962.914	86907.95
963.276	56390.14
963.638	46561.46
964	46131.07
964.362	31175.59
964.724	30097.65
965.085	21449.66
965.447	17566.14
965.809	20013.5
966.17	20030.32
966.532	21651.27
966.893	19896.33
967.255	18110.2
967.616	21399.62
967.977	17137.46
968.338	18720.56
968.699	15368.47
969.061	15373.95
969.421	15488.67
969.782	17387.96
970.143	14681.02
970.504	15218.21
970.865	17277.39
971.225	17647.9
971.586	17269.25
971.946	24624.72
972.307	21373.79
972.667	28006.83
973.027	28827.04
973.388	34953.03
973.748	23744.39
974.108	25875.24
974.468	35026.83
974.828	27034.62
975.188	20784.21
975.548	19087.83
975.907	16009.53
976.267	17939.96
976.627	15079.98
976.986	15628.83
977.346	14886.76
977.705	14348.45
978.064	13066.34
978.424	10883.12
978.783	11238.27
979.142	12862.92
979.501	12299.26
979.86	13003.06
980.219	12525.87
980.578	16141.83
980.937	18082.36
981.296	16117.23
981.654	16542.62
982.013	25742.99
982.371	33387.49
982.73	31223.85
983.088	35285.17
983.447	37740.62
983.805	53909.06
984.163	112790.5
984.521	125011.89
984.879	183309.74
985.237	-298539.23
985.595	288200.2
985.953	71635.04
986.311	41279.77
986.669	23933.55
987.026	20647.03
987.384	27729.75
987.741	28655.65
988.099	20486.53
988.456	16348.94
988.814	15308.95
989.171	13295.1
989.528	13107.77
989.885	13849.31
990.242	10969.87
990.599	13668.14
990.956	11207.51
991.313	7845
991.67	6438.72
992.027	6827.8
992.383	6070.16
992.74	5321.22
993.096	5587.12
993.453	5798.33
993.809	5999.89
994.165	8015.29
994.522	7350.62
994.878	8089.49
995.234	10160.05
995.59	10038.31
995.946	9479.24
996.302	10811.5
996.658	12498.9
997.013	13767.4
997.369	16330.08
997.725	20960.06
998.08	13525.21
998.436	20874.72
998.791	28783.98
999.147	28741.95
999.502	31334.38
999.857	22753.33
1000.212	37080.44
1000.567	52791.89
1000.922	30520.39
1001.277	19384.58
1001.632	14347.63
1001.987	18487.06
1002.342	13242.93
1002.696	10588.99
1003.051	8466.4
1003.406	10255.04
1003.76	10220.34
1004.114	10056.73
1004.469	8472.3
1004.823	7004.13
1005.177	7552.64
1005.531	6005.62
1005.885	5336.04
1006.239	6033.67
1006.593	7578.72
1006.947	10128.01
1007.301	7601.54
1007.655	8284.74
1008.008	6087.18
1008.362	6829.84
1008.715	9720.37
1009.069	8822.02
1009.422	13242.6
1009.776	26586.78
1010.129	17626.59
1010.482	14749.98
1010.835	12468.69
1011.188	26006.99
1011.541	24528.27
1011.894	-149547.86
1012.247	439991.36
1012.6	29905.71
1012.952	18929.66
1013.305	9775.82
1013.657	7038.79
1014.01	6675.82
1014.362	5496.62
1014.715	4896.15
1015.067	4252.83
1015.419	4160.46
1015.771	3708.81
1016.123	3296.46
1016.475	3404.63
1016.827	3624.03
1017.179	3890.14
1017.531	3926.26
1017.883	3996.71
1018.234	3878.22
1018.586	4882.51
1018.938	5202.73
1019.289	7192.79
1019.64	8220.7
1019.992	7693.16
1020.343	7006.29
1020.694	5554.49
1021.045	4908.43
1021.396	5609.46
1021.747	6062.73
1022.098	7241.09
1022.449	5256.99
1022.8	4881.42
1023.151	3395.91
1023.501	3004.91
1023.852	3249.85
1024.202	3375.94
1024.553	3703.72
1024.903	3633.93
1025.253	3118.48
1025.604	2783.2
1025.954	3452.92
1026.304	4181.97
1026.654	4843.91
1027.004	7089.35
1027.354	11426.96
1027.703	10790.62
1028.053	14269.52
1028.403	20765.73
1028.753	30039.88
1029.102	40471.28
1029.452	207695.47
1029.801	8910.61
1030.15	5781.44
1030.499	4884.63
897.758	2704.61
901.051	2661.1
904.343	2696.31
907.636	2699.15
910.928	2762.51
914.22	2670.4
917.511	2680.31
920.803	2742.19
924.094	2762.43
927.384	2739.99
930.675	2703.14
933.965	2654.9
937.255	2664.6
940.544	2631.13
943.834	2565.43
947.123	2511.38
950.411	2609.01
953.7	2580
956.988	2550.64
960.276	2489.75
963.563	2572.05
966.851	2567.62
970.138	2628.27
973.424	2619.48
976.711	2567.92
979.997	2706.64
983.283	2739.94
986.568	2643.4
989.853	2662.66
993.138	2687.63
996.423	2769.16
999.708	2705.24
1002.992	2773.27
1006.275	2602.52
1009.559	2652.28
1012.842	2770.79
1016.125	2699.04
1019.408	2678.6
1022.69	2767.04
1025.972	2782.49
1029.254	2757.33
1032.536	2689.39
1035.817	2717.72
1039.098	2657.71
1042.379	2808.84
1045.659	2802.79
1048.939	2734.64
1052.219	2756.69
1055.498	2769.39
1058.778	2753.41
1062.057	2740.96
1065.335	2760.59
1068.614	2781.44
1071.892	2761.81
1075.17	2838.75
1078.447	2826.14
1081.724	2818.5
1085.001	2853.53
1088.278	2829.49
1091.554	2843.85
1094.83	2840.58
1098.106	2866.11
1101.382	2912.6
1104.657	2911.4
1107.932	2908.84
1111.206	2873.89
1114.481	2830.59
1117.755	2829.79
1121.029	2808.46
1124.302	2862.72
1127.575	2811.12
1130.848	2798.07
1134.121	2757.58
1137.393	2707.26
1140.665	2777.11
1143.937	2751.01
1147.208	2709.91
1150.48	2747.72
1153.75	2737.83
1157.021	2773.2
1160.291	2739.04
1163.561	2786.27
1166.831	2776.32
1170.101	2809.61
1173.37	2782.33
1176.639	2724.2
1179.907	2783.48
1183.176	2787.44
1186.444	2796.83
1189.711	2823.46
1192.979	2836.79
1196.246	2793.33
1199.513	2810.24
1202.78	2807.8
1206.046	2816.06
1209.312	2842.71
1212.578	2867.31
1215.843	2819.36
1219.108	2796.81
1222.373	2817.9
1225.638	2782.28
1228.902	2763.35
1232.166	2728.78
1235.43	2711.6
1238.693	2734.33
1241.956	2733.14
1245.219	2770.25
1248.482	2761.84
1251.744	2756.47
1255.006	2907.54
1258.268	2865.64
1261.529	2807
1264.79	2815.07
1268.051	2918.88
1271.312	2935.59
1274.572	2897.82
1277.832	2886.86
1281.092	2879.79
1284.351	2853.18
1287.61	2829.14
1290.869	2743.38
1294.128	2717.28
1297.386	2811.47
1300.644	2798.23
1303.902	2813.03
1307.159	2668.74
1310.416	2724.48
1313.673	2751.89
1316.93	2734.95
1320.186	2780.75
1323.442	2826.32
1326.697	2812.38
1329.953	2804.52
1333.208	2826.34
1336.463	2809.46
1339.717	2745.63
1342.972	2886.04
1346.226	2861.12
1349.479	2790.6
1352.733	2760.11
1355.986	2787.89
1359.238	2763.2
1362.491	2768.62
1365.743	2770.32
1368.995	2765.88
1372.247	2776.92
1375.498	2802.13
1378.749	2813.51
1382	2770.11
1385.251	2825.96
1388.501	2787.49
1391.751	2768.51
1395	2744.27
1398.25	2773.79
1401.499	2781.89
1404.748	2705.84
1407.996	2698.55
1411.244	2683.06
1414.492	2664.07
1417.74	2642.33
1420.987	2651.63
1424.234	2711.75
1427.481	2693.79
1430.728	2749.96
1433.974	2726.5
1437.22	2741.15
1440.465	2744.31
1443.711	2705.45
1446.956	2742.04
1450.201	2728.94
1453.445	2775.31
1456.689	2752.39
1459.933	2765.94
1463.177	2798.25
1466.42	2767.54
1469.663	2747.99
1472.906	2741.79
1476.148	2818.9
1479.391	2776.66
1482.633	2746.65
1485.874	2757.44
1489.115	2742.36
1492.356	2748.48
1495.597	2721
1498.838	2724.58
1502.078	2694.29
1505.318	2642.04
1508.557	2685.17
1511.797	2659.34
1515.036	2731.47
1518.274	2722.28
1521.513	2696.64
1524.751	2718.75
1527.989	2731.2
1531.227	2744.82
1534.464	2736.04
1537.701	2756.94
1540.938	2776.21
1544.174	2730.89
1547.41	2728.31
1550.646	2769.27
1553.882	2800.55
1557.117	2854.56
1560.352	2871.46
1563.587	2827.72
1566.821	2785.11
1570.055	2821.13
1573.289	2790.54
1576.523	2865.97
1579.756	2870.06
1582.989	2890.94
1586.222	2850.76
1589.454	2894.79
1592.686	2861.53
1595.918	2885.98
1599.15	2875.38
1602.381	2953.05
1605.612	2906.51
1608.843	3004.63
1612.073	2917.13
1615.303	2901.54
1618.533	2890.45
1621.762	2894.18
1624.992	2879.73
1628.221	2866.32
1631.449	2850.87
1634.678	2909.15
1637.906	2862.12
1641.134	2901.42
1644.361	2857.59
1647.588	2847.95
1650.815	2862.79
1654.042	2844.32
1657.269	2874.88
1660.495	2824.57
1663.72	2847.53
1666.946	2811.43
1670.171	2751.07
1673.396	2728.96
1676.621	2718.08
1679.845	2740.54
1683.069	2760.86
1686.293	2806.76
1689.517	2773.89
1692.74	2701.09
1695.963	2732.73
1699.185	2748.11
1702.408	2721.05
1705.63	2767.84
1708.852	2775.35
1712.073	2747.67
1715.294	2728.59
1718.515	2792.91
1721.736	2737.85
1724.956	2733.28
1728.176	2760.45
1731.396	2782.41
1734.616	2771.27
1737.835	2799.66
1741.054	2777.6
1744.272	2772.28
1747.491	2804.15
1750.709	2860.41
1753.927	2761.17
1757.144	2807.78
1760.361	2849.05
1763.578	2841.92
1766.795	2783.52
1770.011	2790.61
1773.227	2833.72
1776.443	2866.86
1779.658	2913.09
1782.874	2855.02
1786.089	2831.31
1789.303	2833.39
1792.518	2839.95
1795.732	2826.79
1798.945	2838.73
1802.159	2886.29
1805.372	2785.66
1808.585	2769.02
1811.797	2770.36
1815.01	2823.56
1818.222	2823.7
1821.434	2795.99
1824.645	2856.36
1827.856	2837.91
1831.067	2876.35
1834.278	2834.2
1837.488	2819.04
1840.698	2970.87
1843.908	2892.68
1847.117	2855.99
1850.326	2734.59
1853.535	2842.28
1856.744	2872.7
1859.952	2782.66
1863.16	2786.42
1866.368	2809.37
1869.575	2913.47
1872.782	2800.82
1875.989	2741.34
1879.196	2828.73
1882.402	2822.69
1885.608	2864.69
1888.814	2763.03
1892.019	2654.2
1895.224	2710.8
1898.429	2692
1901.634	2668.84
1904.838	2645.41
1908.042	2694.43
1911.246	2700.71
1914.449	2629.78
1917.652	2628.46
1920.855	2608.88
1924.058	2663.95
1927.26	2700.87
1930.462	2727.13
1933.664	2753.32
1936.865	2688.05
1940.066	2694.75
1943.267	2641.84
1946.467	2660.18
1949.668	2687.52
1952.868	2752.59
1956.067	2730.42
1959.267	2661.07
1962.466	2688.61
1965.665	2675.85
1968.863	2669.49
1972.061	2685.71
1975.259	2689.76
1978.457	2768.87
1981.654	2724.97
1984.852	2725.59
1988.048	2659.04
1991.245	2663.63
1994.441	2745.55
1997.637	2732.26
2000.833	2714.63
2004.028	2755.03
2007.223	2809.76
2010.418	2782.4
2013.613	2744.73
2016.807	2712.93
2020.001	2721.58
2023.194	2769.7
2026.388	2741.74
2029.581	2692.39
2032.774	2739.81
2035.966	2744.53
2039.158	2674.43
2042.35	2705.21
2045.542	2629.12
2048.733	2732.6
2051.924	2754.66
2055.115	2787.07
2058.306	2724.31
2061.496	2788.01
2064.686	2849.96
2067.875	2766.77
2071.065	2778.16
2074.254	2807.86
2077.442	2759.5
2080.631	2850.45
2083.819	2738.33
2087.007	2724.2
2090.195	2687.16
2093.382	2727.64
2096.569	2705.93
2099.756	2659.91
2102.942	2682.55
2106.128	2691.85
2109.314	2684.02
2112.5	2644.72
2115.685	2620.71
2118.87	2630.9
2122.055	2697.33
2125.239	2666.04
2128.424	2637.7
2131.608	2744.84
2134.791	2725.88
2137.974	2784.82
2141.157	2769.62
2144.34	2718.94
2147.523	2734.57
2150.705	2749.55
2153.887	2729.96
2157.068	2675.86
2160.25	2679.26
2163.431	2717.95
2166.611	2659.98
2169.792	2675.48
2172.972	2567.2
2176.152	2648.66
2179.331	2683.55
2182.511	2665.17
2185.69	2694.28
2188.868	2688.21
2192.047	2746.79
2195.225	2735.35
2198.403	2684.38
2201.58	2678.18
2204.758	2673.88
2207.935	2758.37
2211.111	2645.27
2214.288	2628.63
2217.464	2666.03
2220.64	2640.96
2223.815	2695.95
2226.991	2614.52
2230.166	2634.53
2233.34	2661.85
2236.515	2688.97
2239.689	2765.41
2242.863	2707.68
2246.036	2761.05
2249.209	2764.77
2252.382	2803.59
2255.555	2785.63
2258.727	2722.02
2261.9	2763.94
2265.071	2755.89
2268.243	2759.95
2271.414	2689.32
2274.585	2646.26
2277.756	2716.47
2280.926	2674.25
2284.096	2714.17
2287.266	2619.32
2290.436	2678.58
2293.605	2706.83
2296.774	2735.91
2299.942	2759.37
2303.111	2775.36
2306.279	2827.64
2309.447	2812.13
2312.614	2786.81
2315.781	2805.34
2318.948	2775.36
2322.115	2813.2
2325.281	2714.67
2328.447	2734.87
2331.613	2711.86
2334.779	2681.27
2337.944	2685.23
2341.109	2679.78
2344.274	2666.67
2347.438	2628.7
2350.602	2654.09
2353.766	2674.76
2356.929	2659.48
2360.092	2697.89
2363.255	2651.2
2366.418	2579.9
2369.58	2697.59
2372.742	2476.72
2375.904	2492.79
2379.066	2464.37
2382.227	2507.93
2385.388	2468.83
2388.548	2388.74
2391.709	2446.92
2394.869	2430.89
2398.029	2531.48
2401.188	2545.96
2404.347	2478.28
2407.506	2626.4
2410.665	2656.47
2413.823	2663.11
2416.981	2615.14
2420.139	2650.73
2423.296	2700.08
2426.453	2673.57
2429.61	2696
2432.767	2626.25
2435.923	2666.56
2439.079	2630
2442.235	2680.34
2445.391	2603.96
2448.546	2636.05
2451.701	2685.59
2454.855	2653.66
2458.009	2711.57
2461.163	2713.17
2464.317	2670.73
2467.471	2706.1
2470.624	2745.19
2473.777	2712.44
2476.929	2725.02
2480.082	2750.36
2483.234	2711.91
2486.385	2670.21
2489.537	2662.75
2492.688	2619.41
2495.839	2637.81
2498.989	2646.75
2502.14	2633.79
2505.29	2614.8
2508.439	2643
2511.589	2564.41
2514.738	2580.44
2517.887	2610.74
2521.035	2672.05
2524.183	2659.82
2527.331	2639.58
2530.479	2611.78
2533.627	2626.31
