Data from C_1_HIR_WI_4N_Splice17_12-59-53-298.txt Node
Date: Sat Mar 07 12:59:53 EST 2020
User: sa697716
Spectrometer: NQ5500242
Trigger mode: 0
Integration Time (sec): 1.450000E-1
Scans to average: 20
Nonlinearity correction enabled: false
Boxcar width: 5
Storing dark spectrum: false
XAxis mode: Wavelengths
Number of Pixels in Spectrum: 512
>>>>>Begin Spectral Data<<<<<
187.83	174.76
188.298	184.01
188.766	153.22
189.233	124.02
189.701	141.15
190.169	167.93
190.636	186.19
191.104	235.77
191.571	32.9
192.039	-100.15
192.506	-443.87
192.974	107.63
193.441	170.35
193.908	15.05
194.375	39.43
194.842	2.1
195.31	79.12
195.777	336.78
196.244	46.5
196.711	30.8
197.177	31.01
197.644	29.22
198.111	28.98
198.578	29.26
199.045	29.43
199.511	29.36
199.978	29.26
200.445	29.21
200.911	28.79
201.378	28.89
201.844	28.72
202.31	28.39
202.777	28.63
203.243	28.7
203.709	28.64
204.176	28.56
204.642	28.52
205.108	28.73
205.574	28.35
206.04	28.16
206.506	27.92
206.972	28.06
207.438	27.81
207.903	27.47
208.369	27.01
208.835	26.51
209.301	25.94
209.766	24.9
210.232	24.27
210.697	23.94
211.163	23.4
211.628	22.76
212.094	22.28
212.559	21.96
213.024	21.51
213.49	21.11
213.955	20.42
214.42	19.94
214.885	19.54
215.35	18.86
215.815	17.92
216.28	16.78
216.745	15.58
217.21	14.35
217.675	13.12
218.14	12.15
218.604	11.27
219.069	10.61
219.534	9.98
219.998	9.48
220.463	9.04
220.927	8.62
221.392	8.35
221.856	8.09
222.32	7.87
222.785	7.72
223.249	7.55
223.713	7.38
224.177	7.24
224.642	7.14
225.106	6.98
225.57	6.86
226.034	6.78
226.497	6.68
226.961	6.59
227.425	6.48
227.889	6.38
228.353	6.26
228.816	6.18
229.28	6.11
229.744	6.03
230.207	5.97
230.671	5.89
231.134	5.81
231.597	5.76
232.061	5.68
232.524	5.61
232.987	5.55
233.45	5.51
233.914	5.44
234.377	5.36
234.84	5.31
235.303	5.25
235.766	5.21
236.229	5.15
236.691	5.1
237.154	5.06
237.617	5.02
238.08	4.98
238.542	4.94
239.005	4.91
239.468	4.88
239.93	4.83
240.393	4.79
240.855	4.73
241.317	4.69
241.78	4.64
242.242	4.58
242.704	4.55
243.166	4.51
243.629	4.48
244.091	4.43
244.553	4.39
245.015	4.36
245.477	4.33
245.939	4.29
246.4	4.27
246.862	4.24
247.324	4.22
247.786	4.18
248.247	4.14
248.709	4.1
249.17	4.06
249.632	4.03
250.093	4.01
250.555	3.98
251.016	3.96
251.477	3.92
251.939	3.9
252.4	3.87
252.861	3.85
253.322	3.83
253.783	3.81
254.244	3.8
254.705	3.77
255.166	3.74
255.627	3.72
256.088	3.71
256.549	3.69
257.009	3.66
257.47	3.64
257.931	3.6
258.391	3.58
258.852	3.55
259.312	3.53
259.773	3.5
260.233	3.49
260.694	3.47
261.154	3.45
261.614	3.43
262.074	3.41
262.534	3.4
262.994	3.39
263.455	3.38
263.915	3.36
264.374	3.34
264.834	3.34
265.294	3.32
265.754	3.32
266.214	3.31
266.673	3.3
267.133	3.3
267.593	3.29
268.052	3.28
268.512	3.28
268.971	3.28
269.431	3.27
269.89	3.26
270.349	3.26
270.809	3.25
271.268	3.25
271.727	3.24
272.186	3.23
272.645	3.22
273.104	3.21
273.563	3.2
274.022	3.19
274.481	3.19
274.94	3.18
275.399	3.17
275.857	3.15
276.316	3.14
276.775	3.14
277.233	3.13
277.692	3.12
278.15	3.11
278.609	3.1
279.067	3.1
279.525	3.09
279.984	3.08
280.442	3.08
280.9	3.09
281.358	3.08
281.816	3.08
282.274	3.07
282.732	3.07
283.19	3.05
283.648	3.05
284.106	3.03
284.564	3.02
285.021	3.03
285.479	3.01
285.937	3
286.394	3
286.852	2.98
287.309	2.97
287.767	2.96
288.224	2.96
288.682	2.94
289.139	2.93
289.596	2.92
290.053	2.9
290.511	2.88
290.968	2.88
291.425	2.86
291.882	2.86
292.339	2.84
292.796	2.83
293.252	2.83
293.709	2.83
294.166	2.82
294.623	2.81
295.079	2.81
295.536	2.81
295.992	2.8
296.449	2.79
296.905	2.8
297.362	2.79
297.818	2.79
298.274	2.79
298.731	2.77
299.187	2.77
299.643	2.76
300.099	2.76
300.555	2.75
301.011	2.74
301.467	2.74
301.923	2.72
302.379	2.72
302.835	2.72
303.291	2.71
303.746	2.71
304.202	2.71
304.658	2.71
305.113	2.71
305.569	2.71
306.024	2.71
306.479	2.7
306.935	2.7
307.39	2.69
307.845	2.69
308.301	2.69
308.756	2.68
309.211	2.68
309.666	2.68
310.121	2.68
310.576	2.67
311.031	2.67
311.486	2.67
311.94	2.67
312.395	2.68
312.85	2.67
313.305	2.67
313.759	2.68
314.214	2.67
314.668	2.66
315.123	2.66
315.577	2.66
316.032	2.66
316.486	2.66
316.94	2.65
317.394	2.65
317.849	2.64
318.303	2.63
318.757	2.62
319.211	2.62
319.665	2.6
320.119	2.6
320.572	2.59
321.026	2.58
321.48	2.58
321.934	2.56
322.387	2.56
322.841	2.57
323.295	2.57
323.748	2.57
324.202	2.57
324.655	2.57
325.108	2.57
325.562	2.57
326.015	2.57
326.468	2.57
326.921	2.57
327.374	2.56
327.827	2.55
328.28	2.55
328.733	2.55
329.186	2.55
329.639	2.55
330.092	2.55
330.545	2.55
330.997	2.54
331.45	2.54
331.903	2.55
332.355	2.56
332.808	2.56
333.26	2.55
333.713	2.54
334.165	2.54
334.617	2.54
335.069	2.53
335.522	2.53
335.974	2.53
336.426	2.53
336.878	2.52
337.33	2.51
337.782	2.52
338.234	2.52
338.686	2.52
339.137	2.54
339.589	2.53
340.041	2.53
340.493	2.52
340.944	2.51
341.396	2.51
341.847	2.51
342.299	2.5
342.75	2.49
343.201	2.48
343.653	2.47
344.104	2.45
344.555	2.45
345.006	2.44
345.457	2.44
345.908	2.43
346.359	2.43
346.81	2.42
347.261	2.41
347.712	2.41
348.163	2.4
348.613	2.4
349.064	2.4
349.515	2.39
349.965	2.39
350.416	2.39
350.866	2.38
351.317	2.37
351.767	2.38
352.217	2.38
352.668	2.38
353.118	2.38
353.568	2.37
354.018	2.37
354.468	2.38
354.918	2.37
355.368	2.38
355.818	2.38
356.268	2.37
356.718	2.36
357.168	2.35
357.617	2.34
358.067	2.34
358.517	2.35
358.966	2.34
359.416	2.34
359.865	2.35
360.315	2.35
360.764	2.35
361.213	2.35
361.663	2.35
362.112	2.36
362.561	2.36
363.01	2.36
363.459	2.35
363.908	2.35
364.357	2.35
364.806	2.35
365.255	2.34
365.703	2.34
366.152	2.34
366.601	2.34
367.05	2.33
367.498	2.32
367.947	2.32
368.395	2.32
368.844	2.32
369.292	2.31
369.74	2.31
370.189	2.31
370.637	2.3
371.085	2.3
371.533	2.29
371.981	2.3
372.429	2.31
372.877	2.3
373.325	2.3
373.773	2.3
374.221	2.29
374.669	2.28
375.116	2.27
375.564	2.27
376.012	2.26
376.459	2.26
376.907	2.26
377.354	2.26
377.801	2.26
378.249	2.26
378.696	2.26
379.143	2.26
379.591	2.26
380.038	2.26
380.485	2.26
380.932	2.26
381.379	2.26
381.826	2.26
382.273	2.26
382.72	2.25
383.166	2.24
383.613	2.24
384.06	2.23
384.506	2.22
384.953	2.23
385.4	2.22
385.846	2.22
386.292	2.22
386.739	2.22
387.185	2.22
387.631	2.23
388.078	2.23
388.524	2.23
388.97	2.23
389.416	2.24
389.862	2.24
390.308	2.26
390.754	2.26
391.2	2.27
391.645	2.28
392.091	2.31
392.537	2.32
392.983	2.33
393.428	2.35
393.874	2.37
394.319	2.38
394.765	2.39
395.21	2.39
395.655	2.41
396.101	2.42
396.546	2.44
396.991	2.45
397.436	2.46
397.881	2.48
398.326	2.51
398.771	2.52
399.216	2.54
399.661	2.57
400.106	2.6
400.551	2.61
400.995	2.62
401.44	2.64
401.885	2.65
402.329	2.68
402.774	2.7
403.218	2.72
403.663	2.75
404.107	2.77
404.551	2.8
404.995	2.82
405.44	2.84
405.884	2.87
406.328	2.9
406.772	2.93
407.216	2.94
407.66	2.96
408.104	2.97
408.547	2.99
408.991	3.02
409.435	3.04
409.879	3.07
410.322	3.1
410.766	3.14
411.209	3.16
411.653	3.19
412.096	3.23
412.54	3.26
412.983	3.29
413.426	3.33
413.869	3.35
414.312	3.39
414.756	3.42
415.199	3.43
415.642	3.44
416.085	3.46
416.527	3.46
416.97	3.46
417.413	3.46
417.856	3.47
418.298	3.46
418.741	3.46
419.184	3.47
419.626	3.47
420.069	3.5
420.511	3.51
420.953	3.52
421.396	3.54
421.838	3.56
422.28	3.59
422.722	3.62
423.164	3.64
423.606	3.66
424.048	3.67
424.49	3.69
424.932	3.67
425.374	3.65
425.816	3.62
426.258	3.58
426.699	3.58
427.141	3.57
427.582	3.58
428.024	3.6
428.465	3.61
428.907	3.62
429.348	3.62
429.789	3.64
430.231	3.69
430.672	3.76
431.113	3.82
431.554	3.87
431.995	3.91
432.436	3.95
432.877	3.97
433.318	4.01
433.759	4.05
434.2	4.09
434.64	4.14
435.081	4.18
435.522	4.21
435.962	4.24
436.403	4.28
436.843	4.3
437.284	4.3
437.724	4.31
438.164	4.32
438.604	4.35
439.045	4.37
439.485	4.39
439.925	4.4
440.365	4.43
440.805	4.45
441.245	4.46
441.685	4.48
442.125	4.52
442.564	4.54
443.004	4.57
443.444	4.59
443.883	4.62
444.323	4.64
444.762	4.66
445.202	4.68
445.641	4.71
446.081	4.75
446.52	4.77
446.959	4.81
447.398	4.85
447.837	4.86
448.276	4.87
448.716	4.89
449.154	4.91
449.593	4.92
450.032	4.93
450.471	4.93
450.91	4.93
451.349	4.93
451.787	4.91
452.226	4.89
452.664	4.9
453.103	4.89
453.541	4.88
453.98	4.89
454.418	4.86
454.856	4.86
455.295	4.84
455.733	4.81
456.171	4.81
456.609	4.81
457.047	4.8
457.485	4.77
457.923	4.78
458.361	4.78
458.798	4.79
459.236	4.81
459.674	4.81
460.111	4.81
460.549	4.84
460.987	4.84
461.424	4.85
461.862	4.86
462.299	4.89
462.736	4.89
463.173	4.89
463.611	4.91
464.048	4.92
464.485	4.95
464.922	4.96
465.359	4.97
465.796	5.01
466.233	5.04
466.67	5.07
467.106	5.1
467.543	5.14
467.98	5.17
468.416	5.19
468.853	5.22
469.29	5.24
469.726	5.27
470.162	5.28
470.599	5.29
471.035	5.3
471.471	5.31
471.907	5.3
472.344	5.32
472.78	5.33
473.216	5.33
473.652	5.33
474.088	5.33
474.523	5.33
474.959	5.34
475.395	5.33
475.831	5.33
476.266	5.34
476.702	5.33
477.138	5.33
477.573	5.33
478.008	5.32
478.444	5.31
478.879	5.31
479.314	5.3
479.75	5.28
480.185	5.26
480.62	5.23
481.055	5.19
481.49	5.14
481.925	5.07
482.36	5.01
482.795	4.97
483.229	4.93
483.664	4.91
484.099	4.87
484.534	4.85
484.968	4.85
485.403	4.85
485.837	4.86
486.271	4.89
486.706	4.91
487.14	4.94
487.574	4.96
488.009	4.98
488.443	4.98
488.877	5.01
489.311	5.03
489.745	5.05
490.179	5.07
490.613	5.1
491.046	5.12
491.48	5.15
491.914	5.19
492.348	5.23
492.781	5.28
493.215	5.33
493.648	5.37
494.082	5.41
494.515	5.44
494.948	5.48
495.382	5.51
495.815	5.56
496.248	5.6
496.681	5.65
497.114	5.69
497.547	5.73
497.98	5.79
498.413	5.85
498.846	5.92
499.279	5.99
499.711	6.07
500.144	6.16
500.577	6.25
501.009	6.35
501.442	6.47
501.874	6.6
502.306	6.73
502.739	6.86
503.171	6.98
503.603	7.11
504.036	7.25
504.468	7.4
504.9	7.54
505.332	7.7
505.764	7.86
506.196	8.02
506.627	8.19
507.059	8.37
507.491	8.55
507.923	8.75
508.354	8.96
508.786	9.17
509.217	9.38
509.649	9.6
510.08	9.81
510.512	10.04
510.943	10.27
511.374	10.51
511.805	10.74
512.237	10.94
512.668	11.14
513.099	11.35
513.53	11.57
513.961	11.81
514.391	12.07
514.822	12.36
515.253	12.66
515.684	12.96
516.114	13.28
516.545	13.61
516.975	14
517.406	14.41
517.836	14.82
518.267	15.22
518.697	15.6
519.127	15.98
519.558	16.38
519.988	16.76
520.418	17.14
520.848	17.5
521.278	17.86
521.708	18.37
522.138	18.66
522.567	18.93
522.997	19.2
523.427	19.5
523.857	19.8
524.286	20.09
524.716	20.37
525.145	20.66
525.575	20.94
526.004	21.22
526.433	21.32
526.863	21.62
527.292	21.94
527.721	22.22
528.15	22.45
528.579	22.65
529.008	22.82
529.437	22.97
529.866	23.11
530.295	23.26
530.724	23.41
531.152	23.53
531.581	23.67
532.01	23.78
532.438	23.9
532.867	24.02
533.295	24.15
533.723	24.27
534.152	24.39
534.58	24.49
535.008	24.56
535.436	24.61
535.865	24.65
536.293	24.67
536.721	24.7
537.149	24.76
537.576	24.8
538.004	24.86
538.432	24.92
538.86	24.97
539.287	25.02
539.715	25.1
540.143	25.18
540.57	25.29
540.998	25.39
541.425	25.5
541.852	25.6
542.28	25.69
542.707	25.79
543.134	25.86
543.561	25.93
543.988	26.01
544.415	26.07
544.842	26.15
545.269	26.22
545.696	26.29
546.123	26.34
546.549	26.4
546.976	26.47
547.403	26.52
547.829	26.58
548.256	26.65
548.682	26.7
549.108	26.78
549.535	26.81
549.961	26.84
550.387	26.87
550.813	26.92
551.24	26.93
551.666	26.94
552.092	26.94
552.518	26.92
552.943	26.89
553.369	26.85
553.795	26.79
554.221	26.73
554.646	26.65
555.072	26.55
555.498	26.42
555.923	26.33
556.349	26.22
556.774	26.12
557.199	26.01
557.625	25.9
558.05	25.79
558.475	25.69
558.9	25.59
559.325	25.49
559.75	25.38
560.175	25.28
560.6	25.13
561.025	24.97
561.449	24.8
561.874	24.61
562.299	24.44
562.723	24.24
563.148	24.04
563.572	23.82
563.997	23.61
564.421	23.38
564.846	23.15
565.27	22.93
565.694	22.72
566.118	22.49
566.542	22.28
566.966	22.04
567.39	21.82
567.814	21.61
568.238	21.42
568.662	21.24
569.086	21.07
569.509	20.91
569.933	20.74
570.357	20.57
570.78	20.41
571.204	20.26
571.627	20.12
572.05	19.97
572.474	19.81
572.897	19.66
573.32	19.49
573.743	19.32
574.166	19.15
574.589	18.98
575.012	18.82
575.435	18.69
575.858	18.55
576.281	18.43
576.704	18.31
577.126	18.2
577.549	18.08
577.972	17.98
578.394	17.88
578.817	17.8
579.239	17.73
579.661	17.65
580.084	17.57
580.506	17.47
580.928	17.37
581.35	17.27
581.772	17.16
582.194	17.05
582.616	16.95
583.038	16.86
583.46	16.75
583.882	16.63
584.303	16.49
584.725	16.33
585.147	16.2
585.568	16.07
585.99	15.94
586.411	15.83
586.833	15.73
587.254	15.62
587.675	15.53
588.096	15.43
588.518	15.35
588.939	15.32
589.36	15.29
589.781	15.25
590.202	15.22
590.623	15.18
591.043	15.12
591.464	15.07
591.885	15.01
592.305	14.95
592.726	14.91
593.147	14.85
593.567	14.78
593.987	14.71
594.408	14.65
594.828	14.59
595.248	14.55
595.669	14.52
596.089	14.46
596.509	14.4
596.929	14.34
597.349	14.27
597.769	14.2
598.189	14.14
598.608	14.09
599.028	14.04
599.448	13.99
599.867	13.93
600.287	13.87
600.706	13.83
601.126	13.78
601.545	13.73
601.965	13.69
602.384	13.64
602.803	13.57
603.222	13.49
603.641	13.42
604.061	13.34
604.48	13.23
604.898	13.13
605.317	13.04
605.736	12.94
606.155	12.84
606.574	12.73
606.992	12.63
607.411	12.53
607.829	12.4
608.248	12.29
608.666	12.19
609.085	12.1
609.503	12.01
609.921	11.9
610.339	11.79
610.758	11.7
611.176	11.59
611.594	11.49
612.012	11.37
612.43	11.29
612.847	11.2
613.265	11.11
613.683	11.02
614.101	10.94
614.518	10.85
614.936	10.77
615.353	10.67
615.771	10.61
616.188	10.54
616.606	10.49
617.023	10.44
617.44	10.4
617.857	10.33
618.274	10.26
618.691	10.18
619.108	10.12
619.525	10.07
619.942	10.03
620.359	9.96
620.776	9.9
621.192	9.82
621.609	9.76
622.026	9.71
622.442	9.66
622.859	9.63
623.275	9.6
623.691	9.56
624.108	9.52
624.524	9.48
624.94	9.46
625.356	9.44
625.772	9.43
626.188	9.42
626.604	9.4
627.02	9.36
627.436	9.35
627.852	9.32
628.268	9.32
628.683	9.31
629.099	9.29
629.514	9.27
629.93	9.26
630.345	9.24
630.761	9.21
631.176	9.18
631.591	9.17
632.007	9.14
632.422	9.12
632.837	9.08
633.252	9.03
633.667	8.98
634.082	8.95
634.497	8.9
634.911	8.83
635.326	8.77
635.741	8.7
636.155	8.64
636.57	8.56
636.984	8.48
637.399	8.39
637.813	8.31
638.228	8.22
638.642	8.11
639.056	8.01
639.47	7.93
639.884	7.85
640.298	7.76
640.712	7.67
641.126	7.58
641.54	7.48
641.954	7.38
642.368	7.3
642.781	7.21
643.195	7.12
643.609	7.03
644.022	6.95
644.436	6.86
644.849	6.77
645.262	6.67
645.676	6.58
646.089	6.51
646.502	6.46
646.915	6.4
647.328	6.34
647.741	6.29
648.154	6.24
648.567	6.21
648.98	6.16
649.393	6.13
649.805	6.1
650.218	6.07
650.631	6.04
651.043	5.99
651.456	5.94
651.868	5.87
652.28	5.81
652.693	5.76
653.105	5.7
653.517	5.64
653.929	5.58
654.341	5.53
654.753	5.48
655.165	5.43
655.577	5.38
655.989	5.35
656.401	5.32
656.813	5.3
657.224	5.25
657.636	5.2
658.047	5.16
658.459	5.11
658.87	5.05
659.282	4.99
659.693	4.93
660.104	4.87
660.515	4.8
660.926	4.73
661.338	4.67
661.749	4.61
662.159	4.56
662.57	4.52
662.981	4.47
663.392	4.42
663.803	4.37
664.213	4.33
664.624	4.29
665.035	4.26
665.445	4.23
665.855	4.21
666.266	4.18
666.676	4.16
667.086	4.12
667.497	4.1
667.907	4.07
668.317	4.05
668.727	4.04
669.137	4.02
669.547	4.01
669.956	3.98
670.366	3.96
670.776	3.94
671.186	3.93
671.595	3.93
672.005	3.92
672.414	3.93
672.824	3.93
673.233	3.92
673.642	3.92
674.052	3.93
674.461	3.94
674.87	3.95
675.279	3.98
675.688	3.98
676.097	4
676.506	4.02
676.915	4.02
677.323	4.05
677.732	4.07
678.141	4.08
678.549	4.1
678.958	4.13
679.366	4.15
679.775	4.17
680.183	4.21
680.592	4.24
681	4.28
681.408	4.32
681.816	4.37
682.224	4.42
682.632	4.48
683.04	4.53
683.448	4.59
683.856	4.65
684.264	4.74
684.671	4.82
685.079	4.92
685.487	5.03
685.894	5.17
686.302	5.32
686.709	5.5
687.116	5.7
687.524	5.92
687.931	6.18
688.338	6.46
688.745	6.74
689.152	7.04
689.559	7.37
689.966	7.71
690.373	8.07
690.78	8.44
691.187	8.82
691.593	9.22
692	9.64
692.407	10.04
692.813	10.48
693.22	10.92
693.626	11.37
694.032	11.83
694.439	12.3
694.845	12.77
695.251	13.25
695.657	13.71
696.063	14.19
696.469	14.66
696.875	15.16
697.281	15.63
697.687	16.09
698.093	16.56
698.498	17.03
698.904	17.49
699.31	17.95
699.715	18.41
700.12	18.9
700.526	19.37
700.931	19.83
701.337	20.28
701.742	20.72
702.147	21.18
702.552	21.63
702.957	22.08
703.362	22.5
703.767	22.93
704.172	23.34
704.577	23.74
704.981	24.13
705.386	24.55
705.791	24.95
706.195	25.35
706.6	25.76
707.004	26.13
707.408	26.52
707.813	26.92
708.217	27.29
708.621	27.66
709.025	28.02
709.43	28.38
709.834	28.74
710.237	29.09
710.641	29.43
711.045	29.75
711.449	30.09
711.853	30.41
712.256	30.68
712.66	30.93
713.064	31.2
713.467	31.42
713.87	31.63
714.274	31.81
714.677	31.97
715.08	32.12
715.484	32.26
715.887	32.43
716.29	32.58
716.693	32.78
717.096	33.04
717.499	33.31
717.901	33.62
718.304	33.92
718.707	34.23
719.109	34.55
719.512	34.87
719.915	35.17
720.317	35.44
720.719	35.68
721.122	35.9
721.524	36.08
721.926	36.27
722.328	36.44
722.731	36.59
723.133	36.74
723.535	36.9
723.937	37.07
724.338	37.23
724.74	37.39
725.142	37.67
725.544	37.82
725.945	38.01
726.347	38.16
726.748	38.29
727.15	38.44
727.551	38.61
727.952	38.76
728.354	38.91
728.755	39.09
729.156	39.26
729.557	39.32
729.958	39.52
730.359	39.7
730.76	39.86
731.161	40
731.562	40.16
731.962	40.25
732.363	40.37
732.763	40.49
733.164	40.58
733.564	40.68
733.965	40.75
734.365	40.81
734.766	40.86
735.166	40.91
735.566	40.97
735.966	41.02
736.366	41.07
736.766	41.1
737.166	41.14
737.566	41.18
737.966	41.19
738.365	41.22
738.765	41.26
739.165	41.31
739.564	41.37
739.964	41.41
740.363	41.42
740.763	41.48
741.162	41.52
741.561	41.54
741.96	41.55
742.36	41.58
742.759	41.61
743.158	41.63
743.557	41.63
743.955	41.63
744.354	41.66
744.753	41.69
745.152	41.71
745.55	41.71
745.949	41.73
746.348	41.75
746.746	41.73
747.144	41.73
747.543	41.71
747.941	41.7
748.339	41.66
748.737	41.62
749.136	41.59
749.534	41.55
749.932	41.55
750.33	41.51
750.727	41.51
751.125	41.5
751.523	41.47
751.921	41.48
752.318	41.47
752.716	41.45
753.113	41.46
753.511	41.46
753.908	41.47
754.305	41.44
754.703	41.36
755.1	41.16
755.497	40.83
755.894	40.33
756.291	39.67
756.688	38.95
757.085	38.28
757.482	37.65
757.878	37.06
758.275	36.49
758.672	35.91
759.068	35.41
759.465	34.99
759.861	34.78
760.258	34.76
760.654	34.92
761.05	35.18
761.447	35.49
761.843	35.74
762.239	36.01
762.635	36.3
763.031	36.69
763.427	37.09
763.822	37.54
764.218	37.98
764.614	38.41
765.01	38.76
765.405	39.12
765.801	39.39
766.196	39.69
766.592	39.92
766.987	40.11
767.382	40.24
767.778	40.34
768.173	40.42
768.568	40.45
768.963	40.47
769.358	40.51
769.753	40.52
770.148	40.54
770.542	40.51
770.937	40.49
771.332	40.48
771.726	40.45
772.121	40.46
772.515	40.39
772.91	40.36
773.304	40.34
773.699	40.32
774.093	40.29
774.487	40.26
774.881	40.26
775.275	40.23
775.669	40.19
776.063	40.16
776.457	40.14
776.851	40.11
777.245	40.05
777.638	40.01
778.032	39.99
778.425	39.98
778.819	39.96
779.212	39.92
779.606	39.88
779.999	39.85
780.392	39.83
780.786	39.76
781.179	39.76
781.572	39.76
781.965	39.74
782.358	39.69
782.751	39.65
783.143	39.6
783.536	39.57
783.929	39.53
784.322	39.49
784.714	39.46
785.107	39.44
785.499	39.37
785.891	39.31
786.284	39.24
786.676	39.2
787.068	39.14
787.46	39.1
787.852	39.02
788.245	38.96
788.636	38.9
789.028	38.81
789.42	38.71
789.812	38.67
790.204	38.61
790.595	38.57
790.987	38.5
791.378	38.46
791.77	38.41
792.161	38.35
792.553	38.31
792.944	38.27
793.335	38.25
793.726	38.23
794.117	38.16
794.508	38.11
794.899	38.07
795.29	38.02
795.681	37.94
796.072	37.89
796.463	37.89
796.853	37.82
797.244	37.79
797.634	37.72
798.025	37.68
798.415	37.64
798.806	37.6
799.196	37.55
799.586	37.52
799.976	37.5
800.366	37.45
800.756	37.37
801.146	37.33
801.536	37.27
801.926	37.22
802.316	37.17
802.706	37.13
803.095	37.08
803.485	37.02
803.874	36.93
804.264	36.86
804.653	36.81
805.043	36.76
805.432	36.68
805.821	36.63
806.21	36.57
806.599	36.52
806.988	36.44
807.377	36.39
807.766	36.32
808.155	36.24
808.544	36.19
808.933	36.11
809.321	35.99
809.71	35.93
810.098	35.8
810.487	35.68
810.875	35.57
811.264	35.46
811.652	35.35
812.04	35.24
812.428	35.17
812.816	35.03
813.204	34.93
813.592	34.83
813.98	34.73
814.368	34.66
814.756	34.59
815.144	34.52
815.531	34.46
815.919	34.4
816.306	34.36
816.694	34.29
817.081	34.3
817.469	34.27
817.856	34.25
818.243	34.22
818.63	34.14
819.017	34.08
819.404	34.03
819.791	33.99
820.178	33.96
820.565	33.9
820.952	33.87
821.339	33.81
821.725	33.76
822.112	33.74
822.498	33.72
822.885	33.74
823.271	33.74
823.657	33.69
824.044	33.65
824.43	33.62
824.816	33.6
825.202	33.56
825.588	33.54
825.974	33.5
826.36	33.44
826.746	33.4
827.132	33.36
827.517	33.32
827.903	33.32
828.289	33.31
828.674	33.28
829.06	33.25
829.445	33.2
829.83	33.15
830.216	33.12
830.601	33.1
830.986	33.09
831.371	33.05
831.756	33.04
832.141	33.03
832.526	32.98
832.911	32.96
833.295	32.95
833.68	32.97
834.065	32.97
834.449	32.96
834.834	32.94
835.218	32.9
835.603	32.89
835.987	32.86
836.371	32.83
836.755	32.8
837.139	32.77
837.524	32.75
837.908	32.72
838.291	32.71
838.675	32.7
839.059	32.69
839.443	32.68
839.827	32.68
840.21	32.66
840.594	32.68
840.977	32.69
841.361	32.69
841.744	32.65
842.127	32.61
842.511	32.58
842.894	32.56
843.277	32.53
843.66	32.5
844.043	32.48
844.426	32.47
844.809	32.43
845.191	32.41
845.574	32.37
845.957	32.36
846.339	32.33
846.722	32.32
847.104	32.32
847.487	32.3
847.869	32.3
848.252	32.29
848.634	32.27
849.016	32.27
849.398	32.25
849.78	32.23
850.162	32.18
850.544	32.17
850.926	32.13
851.307	32.11
851.689	32.1
852.071	32.06
852.452	32.02
852.834	32
853.215	31.98
853.597	31.97
853.978	31.97
854.359	31.99
854.741	32.01
855.122	32.02
855.503	32.02
855.884	32
856.265	32
856.646	31.99
857.026	32
857.407	32
857.788	31.97
858.169	31.97
858.549	31.96
858.93	31.94
859.31	31.94
859.69	31.95
860.071	31.96
860.451	31.95
860.831	31.94
861.211	31.89
861.591	31.87
861.971	31.85
862.351	31.84
862.731	31.83
863.111	31.81
863.491	31.79
863.87	31.75
864.25	31.71
864.629	31.7
865.009	31.7
865.388	31.7
865.768	31.71
866.147	31.7
866.526	31.68
866.905	31.66
867.284	31.66
867.663	31.66
868.042	31.65
868.421	31.66
868.8	31.66
869.179	31.65
869.558	31.65
869.936	31.64
870.315	31.64
870.693	31.64
871.072	31.65
871.45	31.65
871.828	31.65
872.207	31.67
872.585	31.64
872.963	31.63
873.341	31.62
873.719	31.61
874.097	31.6
874.475	31.59
874.853	31.6
875.23	31.6
875.608	31.6
875.986	31.6
876.363	31.57
876.741	31.57
877.118	31.58
877.495	31.58
877.873	31.57
878.25	31.56
878.627	31.56
879.004	31.53
879.381	31.53
879.758	31.49
880.135	31.48
880.512	31.47
880.889	31.46
881.265	31.45
881.642	31.45
882.019	31.46
882.395	31.44
882.772	31.43
883.148	31.41
883.524	31.39
883.901	31.38
884.277	31.35
884.653	31.34
885.029	31.33
885.405	31.31
885.781	31.28
886.157	31.28
886.532	31.28
886.908	31.25
887.284	31.27
887.659	31.24
888.035	31.24
888.411	31.24
888.786	31.24
889.161	31.24
889.537	31.26
889.912	31.27
890.287	31.26
890.662	31.24
891.037	31.25
891.412	31.24
891.787	31.23
892.162	31.22
892.536	31.21
892.911	31.21
893.286	31.18
893.66	31.15
894.035	31.14
894.409	31.11
894.784	31.1
895.158	31.09
895.532	31.09
895.906	31.08
896.281	31.07
896.655	31.05
897.029	31.04
897.402	31.03
897.776	31.04
898.15	31.03
898.524	31.03
898.898	31.01
899.271	31.01
899.645	31.01
900.018	31.02
900.392	31.03
900.765	31.06
901.138	31.05
901.511	31.06
901.884	31.06
902.258	31.05
902.631	31.05
903.003	31.07
903.376	31.07
903.749	31.05
904.122	31.05
904.495	31.07
904.867	31.06
905.24	31.07
905.612	31.08
905.985	31.07
906.357	31.04
906.729	31.04
907.102	31.03
907.474	31.02
907.846	31.01
908.218	30.99
908.59	30.97
908.962	30.95
909.334	30.95
909.705	30.91
910.077	30.92
910.449	30.92
910.82	30.91
911.192	30.89
911.563	30.88
911.935	30.87
912.306	30.88
912.677	30.87
913.048	30.89
913.419	30.87
913.79	30.87
914.161	30.85
914.532	30.85
914.903	30.85
915.274	30.86
915.645	30.87
916.015	30.88
916.386	30.87
916.756	30.86
917.127	30.86
917.497	30.86
917.868	30.85
918.238	30.83
918.608	30.83
918.978	30.84
919.348	30.84
919.718	30.85
920.088	30.85
920.458	30.83
920.828	30.81
921.198	30.8
921.567	30.79
921.937	30.82
922.306	30.84
922.676	30.83
923.045	30.81
923.415	30.79
923.784	30.77
924.153	30.76
924.522	30.79
924.891	30.8
925.26	30.77
925.629	30.78
925.998	30.75
926.367	30.73
926.736	30.72
927.104	30.71
927.473	30.68
927.842	30.67
928.21	30.66
928.578	30.61
928.947	30.61
929.315	30.6
929.683	30.57
930.051	30.53
930.42	30.51
930.788	30.47
931.156	30.43
931.523	30.44
931.891	30.45
932.259	30.44
932.627	30.45
932.994	30.45
933.362	30.45
933.729	30.45
934.097	30.46
934.464	30.46
934.831	30.48
935.199	30.49
935.566	30.51
935.933	30.44
936.3	30.45
936.667	30.45
937.034	30.49
937.401	30.47
937.767	30.48
938.134	30.53
938.501	30.56
938.867	30.61
939.234	30.63
939.6	30.6
939.967	30.65
940.333	30.6
940.699	30.6
941.065	30.47
941.431	30.51
941.798	30.52
942.163	30.48
942.529	30.42
942.895	30.38
943.261	30.34
943.627	30.27
943.992	30.26
944.358	30.29
944.723	30.29
945.089	30.3
945.454	30.25
945.82	30.2
946.185	30.15
946.55	30.1
946.915	30.09
947.28	30.07
947.645	30.12
948.01	30.15
948.375	30.11
948.74	30.11
949.104	30.12
949.469	30.16
949.834	30.16
950.198	30.19
950.562	30.22
950.927	30.22
951.291	30.19
951.655	30.14
952.02	30.09
952.384	30.06
952.748	30.05
953.112	30.04
953.476	29.99
953.839	29.95
954.203	29.93
954.567	29.9
954.931	29.85
955.294	29.89
955.658	29.97
956.021	29.95
956.385	29.96
956.748	29.9
957.111	29.87
957.474	29.9
957.837	29.92
958.2	29.9
958.563	29.88
958.926	29.89
959.289	29.89
959.652	29.83
960.015	29.81
960.377	29.82
960.74	29.87
961.102	29.88
961.465	29.89
961.827	29.94
962.189	30.01
962.552	30.04
962.914	30.08
963.276	30.1
963.638	30.1
964	30.13
964.362	30.14
964.724	30.1
965.085	30.09
965.447	30.06
965.809	29.99
966.17	29.95
966.532	29.96
966.893	29.94
967.255	29.89
967.616	29.91
967.977	29.95
968.338	29.96
968.699	30
969.061	30.02
969.421	30.08
969.782	30.13
970.143	30.11
970.504	30.11
970.865	30.16
971.225	30.18
971.586	30.17
971.946	30.09
972.307	30.12
972.667	30.05
973.027	30.1
973.388	30.04
973.748	30
974.108	30.02
974.468	29.97
974.828	29.97
975.188	29.98
975.548	30.02
975.907	30.04
976.267	30.01
976.627	30.04
976.986	29.96
977.346	29.93
977.705	29.96
978.064	30.03
978.424	30.07
978.783	29.99
979.142	29.97
979.501	29.96
979.86	30
980.219	30
980.578	30.03
980.937	30.04
981.296	30.06
981.654	30.06
982.013	30.01
982.371	30.02
982.73	30.08
983.088	30.1
983.447	30.13
983.805	30.15
984.163	30.11
984.521	30.14
984.879	30.1
985.237	30.16
985.595	30.21
985.953	30.16
986.311	30.14
986.669	30.15
987.026	30.15
987.384	30.12
987.741	30.08
988.099	30.2
988.456	30.16
988.814	30.23
989.171	30.23
989.528	30.2
989.885	30.19
990.242	30.18
990.599	30.18
990.956	30.11
991.313	30.13
991.67	30.15
992.027	30.23
992.383	30.22
992.74	30.27
993.096	30.19
993.453	30.12
993.809	30.16
994.165	30.18
994.522	30.18
994.878	30.25
995.234	30.19
995.59	30.17
995.946	30.09
996.302	30.16
996.658	30.13
997.013	30.1
997.369	30.22
997.725	30.24
998.08	30.27
998.436	30.29
998.791	30.34
999.147	30.39
999.502	30.4
999.857	30.34
1000.212	30.25
1000.567	30.23
1000.922	30.29
1001.277	30.23
1001.632	30.16
1001.987	30.1
1002.342	29.96
1002.696	29.89
1003.051	29.99
1003.406	30.11
1003.76	30.08
1004.114	30.14
1004.469	30.17
1004.823	30.37
1005.177	30.44
1005.531	30.6
1005.885	30.67
1006.239	30.9
1006.593	31.08
1006.947	30.99
1007.301	30.94
1007.655	30.94
1008.008	30.95
1008.362	30.97
1008.715	30.8
1009.069	30.85
1009.422	30.86
1009.776	30.91
1010.129	30.84
1010.482	30.8
1010.835	30.84
1011.188	30.81
1011.541	30.92
1011.894	30.99
1012.247	30.99
1012.6	31.07
1012.952	30.97
1013.305	31
1013.657	31.1
1014.01	31.03
1014.362	30.89
1014.715	31.11
1015.067	31.06
1015.419	31.06
1015.771	30.97
1016.123	31.04
1016.475	31.02
1016.827	31.14
1017.179	31.18
1017.531	31.15
1017.883	31.19
1018.234	31.51
1018.586	31.37
1018.938	31.74
1019.289	31.64
1019.64	31.6
1019.992	31.61
1020.343	31.48
1020.694	31.39
1021.045	31.39
1021.396	31.33
1021.747	31.39
1022.098	31.11
1022.449	31.13
1022.8	30.89
1023.151	31.17
1023.501	31.5
1023.852	31.58
1024.202	31.9
1024.553	32.02
1024.903	32
1025.253	32.03
1025.604	32.22
1025.954	32.23
1026.304	32.08
1026.654	32.23
1027.004	32.16
1027.354	32.11
1027.703	31.79
1028.053	31.41
1028.403	31.41
1028.753	31.25
1029.102	31.49
1029.452	31.57
1029.801	31.93
1030.15	32.06
1030.499	31.94
897.758	1239.29
901.051	1247.97
904.343	1245.24
907.636	1267.58
910.928	1233.64
914.22	1233.96
917.511	1218.04
920.803	1162.82
924.094	1158.57
927.384	1133.09
930.675	1086.77
933.965	1081.29
937.255	1018.27
940.544	976.96
943.834	930.55
947.123	923.77
950.411	870.73
953.7	853.05
956.988	808.67
960.276	777.35
963.563	763.74
966.851	737.25
970.138	731.24
973.424	708.63
976.711	711.31
979.997	675.82
983.283	671.45
986.568	656.64
989.853	637.7
993.138	626.35
996.423	600.88
999.708	584.45
1002.992	576.88
1006.275	551.63
1009.559	545.49
1012.842	527.81
1016.125	514.17
1019.408	504.35
1022.69	496.63
1025.972	486.33
1029.254	474.53
1032.536	467.16
1035.817	457.43
1039.098	452.2
1042.379	442.88
1045.659	438.41
1048.939	426.38
1052.219	418.31
1055.498	411.46
1058.778	402.01
1062.057	393.09
1065.335	389.01
1068.614	384.94
1071.892	381.26
1075.17	368.84
1078.447	361.5
1081.724	358.98
1085.001	356.61
1088.278	349.66
1091.554	343.33
1094.83	343.67
1098.106	341.58
1101.382	338.6
1104.657	335.86
1107.932	329.86
1111.206	332.66
1114.481	323.87
1117.755	321.13
1121.029	318.33
1124.302	317.73
1127.575	311.33
1130.848	307.65
1134.121	303.19
1137.393	301.64
1140.665	294.76
1143.937	293.2
1147.208	291.11
1150.48	290.86
1153.75	286.95
1157.021	282.76
1160.291	282.76
1163.561	279.85
1166.831	280.28
1170.101	278.86
1173.37	277.37
1176.639	278.82
1179.907	275.95
1183.176	271.66
1186.444	271.98
1189.711	271.47
1192.979	271.12
1196.246	268.53
1199.513	270.32
1202.78	268.22
1206.046	268.05
1209.312	265.92
1212.578	265.64
1215.843	267.99
1219.108	267.26
1222.373	272.23
1225.638	274.11
1228.902	277.67
1232.166	279.4
1235.43	280.77
1238.693	283.82
1241.956	285.73
1245.219	290.58
1248.482	290.79
1251.744	290.66
1255.006	291.25
1258.268	284.07
1261.529	281.2
1264.79	280.26
1268.051	277.8
1271.312	274.76
1274.572	272.57
1277.832	268.95
1281.092	264.76
1284.351	262.85
1287.61	262.72
1290.869	258.82
1294.128	257.62
1297.386	257.31
1300.644	253.59
1303.902	254.55
1307.159	253.81
1310.416	253.2
1313.673	253.55
1316.93	256.23
1320.186	255.85
1323.442	256.57
1326.697	261.11
1329.953	261.32
1333.208	262.82
1336.463	265.91
1339.717	266.08
1342.972	269.08
1346.226	271.89
1349.479	272.38
1352.733	272.93
1355.986	275.44
1359.238	274.82
1362.491	276.48
1365.743	279.75
1368.995	279.77
1372.247	277.87
1375.498	278.28
1378.749	280.53
1382	276.86
1385.251	277.73
1388.501	275.51
1391.751	275.87
1395	275.59
1398.25	273.21
1401.499	270.37
1404.748	269.76
1407.996	269.8
1411.244	267.99
1414.492	265.92
1417.74	263.63
1420.987	259.87
1424.234	259.93
1427.481	256.66
1430.728	255.84
1433.974	253.53
1437.22	251.81
1440.465	250.69
1443.711	247.95
1446.956	245.42
1450.201	243.18
1453.445	240.88
1456.689	240.14
1459.933	235.82
1463.177	233.62
1466.42	229.9
1469.663	226.9
1472.906	225.99
1476.148	220.34
1479.391	217.79
1482.633	216.78
1485.874	212.8
1489.115	211.34
1492.356	208.86
1495.597	208.84
1498.838	205.87
1502.078	205.02
1505.318	204.09
1508.557	203.7
1511.797	203.62
1515.036	202.51
1518.274	201.82
1521.513	200.55
1524.751	200
1527.989	199.64
1531.227	198.66
1534.464	199.09
1537.701	197.15
1540.938	196.97
1544.174	195.08
1547.41	194.63
1550.646	193.39
1553.882	193.24
1557.117	190.77
1560.352	190.11
1563.587	189.03
1566.821	187.85
1570.055	185.72
1573.289	185.2
1576.523	184.74
1579.756	183.24
1582.989	182.19
1586.222	181.63
1589.454	180.83
1592.686	182.43
1595.918	181.56
1599.15	181.14
1602.381	181.56
1605.612	181.55
1608.843	181.6
1612.073	181.44
1615.303	182.98
1618.533	183.15
1621.762	183.55
1624.992	184.02
1628.221	183.09
1631.449	183.25
1634.678	183.01
1637.906	183.69
1641.134	183.86
1644.361	183.73
1647.588	184.07
1650.815	182.52
1654.042	182.4
1657.269	182.9
1660.495	182.65
1663.72	182.3
1666.946	182.98
1670.171	183.59
1673.396	183.18
1676.621	183.5
1679.845	183.49
1683.069	183.73
1686.293	185.02
1689.517	185.97
1692.74	186.22
1695.963	186.33
1699.185	188.19
1702.408	188.1
1705.63	188.72
1708.852	189.68
1712.073	189.38
1715.294	190.1
1718.515	191.02
1721.736	190.85
1724.956	190.84
1728.176	190.88
1731.396	192.37
1734.616	191.59
1737.835	192.36
1741.054	190.63
1744.272	190.71
1747.491	192.82
1750.709	193.41
1753.927	193.17
1757.144	192.94
1760.361	193.57
1763.578	194.14
1766.795	193.59
1770.011	195.63
1773.227	194.86
1776.443	197.85
1779.658	198.92
1782.874	198.34
1786.089	198.79
1789.303	199.44
1792.518	201.25
1795.732	201.31
1798.945	202.74
1802.159	203.33
1805.372	203.32
1808.585	207.23
1811.797	207.48
1815.01	207.67
1818.222	209.3
1821.434	211.05
1824.645	211.79
1827.856	215.43
1831.067	216.8
1834.278	216.95
1837.488	218.38
1840.698	219.76
1843.908	217.93
1847.117	218.72
1850.326	219.73
1853.535	218.87
1856.744	222.5
1859.952	221.82
1863.16	220.44
1866.368	219.53
1869.575	221.35
1872.782	218.33
1875.989	217.15
1879.196	216.22
1882.402	215.33
1885.608	215.88
1888.814	216.52
1892.019	214.93
1895.224	214.6
1898.429	214.11
1901.634	215.05
1904.838	214.84
1908.042	216.29
1911.246	217.37
1914.449	218.71
1917.652	218.69
1920.855	218.51
1924.058	218.95
1927.26	217.85
1930.462	219.08
1933.664	221.1
1936.865	218.87
1940.066	218.81
1943.267	218.66
1946.467	217.79
1949.668	219.31
1952.868	221.79
1956.067	221.79
1959.267	221.72
1962.466	222.47
1965.665	221.66
1968.863	221.22
1972.061	225.27
1975.259	227.08
1978.457	228.22
1981.654	231.57
1984.852	231.81
1988.048	231.41
1991.245	233.27
1994.441	235.84
1997.637	236.93
2000.833	241.3
2004.028	245.03
2007.223	246.16
2010.418	248.56
2013.613	252.69
2016.807	254.79
2020.001	256.86
2023.194	261.01
2026.388	267.25
2029.581	273.2
2032.774	276.12
2035.966	281.64
2039.158	281.86
2042.35	287.73
2045.542	289.02
2048.733	294.61
2051.924	298.14
2055.115	303.1
2058.306	303.21
2061.496	306.17
2064.686	305.44
2067.875	310.9
2071.065	311.67
2074.254	310.57
2077.442	313.26
2080.631	316.03
2083.819	317.83
2087.007	319.24
2090.195	323.12
2093.382	326.58
2096.569	324.13
2099.756	329.95
2102.942	330.97
2106.128	333.92
2109.314	341.49
2112.5	340.86
2115.685	347.17
2118.87	347.98
2122.055	354.2
2125.239	356.69
2128.424	361.02
2131.608	364.4
2134.791	367.95
2137.974	370.01
2141.157	371.05
2144.34	372.29
2147.523	377.34
2150.705	374.97
2153.887	379.05
2157.068	379.38
2160.25	377.01
2163.431	377.61
2166.611	381.99
2169.792	389.67
2172.972	393.56
2176.152	395.32
2179.331	400.04
2182.511	408
2185.69	412.06
2188.868	419.95
2192.047	421.94
2195.225	433.74
2198.403	445.22
2201.58	452.53
2204.758	460.22
2207.935	471.03
2211.111	480.26
2214.288	486.31
2217.464	487.09
2220.64	494.98
2223.815	501.48
2226.991	519.68
2230.166	519.36
2233.34	528.01
2236.515	537.48
2239.689	538.05
2242.863	539.97
2246.036	554.97
2249.209	550.4
2252.382	559.71
2255.555	576.43
2258.727	577.83
2261.9	583.74
2265.071	589.73
2268.243	597.41
2271.414	604.53
2274.585	618
2277.756	623.18
2280.926	627.59
2284.096	644.2
2287.266	657.26
2290.436	662.63
2293.605	678.41
2296.774	695.5
2299.942	718.79
2303.111	725.54
2306.279	739.65
2309.447	750.69
2312.614	769.9
2315.781	793.05
2318.948	825.31
2322.115	813.88
2325.281	857.22
2328.447	841.17
2331.613	874.66
2334.779	864.68
2337.944	903.54
2341.109	912.99
2344.274	937.35
2347.438	971.87
2350.602	968.95
2353.766	1002.01
2356.929	1017.41
2360.092	1008.27
2363.255	1081.35
2366.418	1080.06
2369.58	1102.64
2372.742	1167.07
2375.904	1197.42
2379.066	1192.24
2382.227	1165.62
2385.388	1270.47
2388.548	1271.68
2391.709	1286.9
2394.869	1433.02
2398.029	1372.06
2401.188	1408.94
2404.347	1398.92
2407.506	1377.91
2410.665	1415.09
2413.823	1500.56
2416.981	1593.25
2420.139	1533.94
2423.296	1516.64
2426.453	1582.69
2429.61	1524.31
2432.767	1590.39
2435.923	1575.84
2439.079	1724.05
2442.235	1740.62
2445.391	1727.04
2448.546	1709.73
2451.701	1663.62
2454.855	1664.05
2458.009	1756.98
2461.163	1831.61
2464.317	1896.55
2467.471	1949.34
2470.624	1953.95
2473.777	1901
2476.929	1861.78
2480.082	1807.66
2483.234	1791.45
2486.385	1876.77
2489.537	1887.55
2492.688	1961.25
2495.839	1904.95
2498.989	1866.16
2502.14	1873.67
2505.29	1882.72
2508.439	1914.76
2511.589	1907.46
2514.738	2081.95
2517.887	2028.97
2521.035	2142.23
2524.183	2160.34
2527.331	2179.66
2530.479	2168.1
2533.627	2184.14
