Data from C_1_DEC_NC_4N_Splice17_12-57-57-542.txt Node
Date: Sat Mar 07 12:57:57 EST 2020
User: sa697716
Spectrometer: NQ5500242
Trigger mode: 0
Integration Time (sec): 1.450000E-1
Scans to average: 20
Nonlinearity correction enabled: false
Boxcar width: 5
Storing dark spectrum: false
XAxis mode: Wavelengths
Number of Pixels in Spectrum: 512
>>>>>Begin Spectral Data<<<<<
187.83	120.59
188.298	124.23
188.766	111.51
189.233	96.34
189.701	92.36
190.169	105.99
190.636	94.27
191.104	58.92
191.571	-130.35
192.039	-335.92
192.506	-684.73
192.974	177.94
193.441	204.73
193.908	72.52
194.375	33.85
194.842	-20.67
195.31	-7.61
195.777	-224.62
196.244	28.79
196.711	41.64
197.177	45.46
197.644	45.68
198.111	45.47
198.578	45.91
199.045	46.74
199.511	47.15
199.978	47.25
200.445	47.53
200.911	48.01
201.378	48.07
201.844	48.38
202.31	48.04
202.777	48.02
203.243	48.49
203.709	48.44
204.176	48.15
204.642	47.85
205.108	47.76
205.574	47.44
206.04	46.85
206.506	46.67
206.972	46.27
207.438	45.94
207.903	45.36
208.369	44.69
208.835	44.2
209.301	43.48
209.766	42.59
210.232	41.61
210.697	40.83
211.163	40.05
211.628	39.28
212.094	38.58
212.559	38.22
213.024	37.65
213.49	36.77
213.955	35.7
214.42	34.97
214.885	34
215.35	33.25
215.815	31.91
216.28	30.16
216.745	28.2
217.21	26.43
217.675	24.64
218.14	23.22
218.604	21.98
219.069	21.05
219.534	20.21
219.998	19.54
220.463	18.85
220.927	18.31
221.392	17.9
221.856	17.53
222.32	17.18
222.785	16.89
223.249	16.59
223.713	16.34
224.177	16.09
224.642	15.85
225.106	15.59
225.57	15.36
226.034	15.15
226.497	14.93
226.961	14.7
227.425	14.5
227.889	14.3
228.353	14.12
228.816	13.91
229.28	13.7
229.744	13.51
230.207	13.34
230.671	13.16
231.134	12.97
231.597	12.83
232.061	12.7
232.524	12.54
232.987	12.38
233.45	12.27
233.914	12.13
234.377	12
234.84	11.86
235.303	11.74
235.766	11.62
236.229	11.5
236.691	11.38
237.154	11.25
237.617	11.16
238.08	11.05
238.542	10.9
239.005	10.8
239.468	10.7
239.93	10.59
240.393	10.49
240.855	10.37
241.317	10.27
241.78	10.16
242.242	10.06
242.704	9.96
243.166	9.86
243.629	9.79
244.091	9.69
244.553	9.6
245.015	9.51
245.477	9.42
245.939	9.33
246.4	9.25
246.862	9.18
247.324	9.09
247.786	9
248.247	8.93
248.709	8.84
249.17	8.76
249.632	8.7
250.093	8.66
250.555	8.59
251.016	8.53
251.477	8.47
251.939	8.41
252.4	8.36
252.861	8.31
253.322	8.26
253.783	8.21
254.244	8.17
254.705	8.11
255.166	8.05
255.627	7.99
256.088	7.95
256.549	7.89
257.009	7.84
257.47	7.79
257.931	7.73
258.391	7.66
258.852	7.61
259.312	7.56
259.773	7.51
260.233	7.47
260.694	7.42
261.154	7.38
261.614	7.33
262.074	7.29
262.534	7.26
262.994	7.23
263.455	7.2
263.915	7.17
264.374	7.14
264.834	7.13
265.294	7.09
265.754	7.07
266.214	7.05
266.673	7.03
267.133	7.02
267.593	6.99
268.052	6.98
268.512	6.96
268.971	6.95
269.431	6.93
269.89	6.92
270.349	6.9
270.809	6.88
271.268	6.87
271.727	6.86
272.186	6.84
272.645	6.82
273.104	6.8
273.563	6.78
274.022	6.76
274.481	6.74
274.94	6.73
275.399	6.7
275.857	6.69
276.316	6.67
276.775	6.65
277.233	6.63
277.692	6.62
278.15	6.6
278.609	6.58
279.067	6.57
279.525	6.55
279.984	6.53
280.442	6.51
280.9	6.5
281.358	6.48
281.816	6.46
282.274	6.45
282.732	6.42
283.19	6.4
283.648	6.38
284.106	6.35
284.564	6.33
285.021	6.32
285.479	6.3
285.937	6.27
286.394	6.26
286.852	6.23
287.309	6.2
287.767	6.18
288.224	6.15
288.682	6.12
289.139	6.1
289.596	6.07
290.053	6.04
290.511	6
290.968	5.98
291.425	5.95
291.882	5.93
292.339	5.9
292.796	5.88
293.252	5.86
293.709	5.85
294.166	5.83
294.623	5.83
295.079	5.81
295.536	5.8
295.992	5.79
296.449	5.77
296.905	5.77
297.362	5.76
297.818	5.74
298.274	5.73
298.731	5.71
299.187	5.69
299.643	5.68
300.099	5.67
300.555	5.65
301.011	5.63
301.467	5.62
301.923	5.6
302.379	5.59
302.835	5.58
303.291	5.58
303.746	5.57
304.202	5.57
304.658	5.55
305.113	5.54
305.569	5.54
306.024	5.53
306.479	5.51
306.935	5.5
307.39	5.5
307.845	5.48
308.301	5.47
308.756	5.46
309.211	5.45
309.666	5.45
310.121	5.44
310.576	5.43
311.031	5.42
311.486	5.41
311.94	5.41
312.395	5.4
312.85	5.39
313.305	5.38
313.759	5.38
314.214	5.36
314.668	5.34
315.123	5.32
315.577	5.32
316.032	5.3
316.486	5.29
316.94	5.27
317.394	5.26
317.849	5.24
318.303	5.22
318.757	5.2
319.211	5.19
319.665	5.18
320.119	5.18
320.572	5.16
321.026	5.15
321.48	5.13
321.934	5.12
322.387	5.1
322.841	5.1
323.295	5.09
323.748	5.08
324.202	5.07
324.655	5.06
325.108	5.05
325.562	5.05
326.015	5.05
326.468	5.05
326.921	5.04
327.374	5.04
327.827	5.03
328.28	5.02
328.733	5.02
329.186	5.01
329.639	5.01
330.092	5.01
330.545	5
330.997	4.99
331.45	4.99
331.903	5
332.355	5.01
332.808	5
333.26	5
333.713	5
334.165	4.99
334.617	4.99
335.069	4.98
335.522	4.99
335.974	4.99
336.426	4.98
336.878	4.96
337.33	4.94
337.782	4.94
338.234	4.94
338.686	4.94
339.137	4.94
339.589	4.91
340.041	4.9
340.493	4.89
340.944	4.86
341.396	4.85
341.847	4.84
342.299	4.83
342.75	4.81
343.201	4.79
343.653	4.78
344.104	4.76
344.555	4.75
345.006	4.73
345.457	4.73
345.908	4.71
346.359	4.71
346.81	4.7
347.261	4.69
347.712	4.68
348.163	4.67
348.613	4.67
349.064	4.67
349.515	4.68
349.965	4.67
350.416	4.66
350.866	4.66
351.317	4.65
351.767	4.65
352.217	4.65
352.668	4.64
353.118	4.65
353.568	4.64
354.018	4.65
354.468	4.65
354.918	4.65
355.368	4.66
355.818	4.66
356.268	4.66
356.718	4.67
357.168	4.66
357.617	4.66
358.067	4.65
358.517	4.66
358.966	4.66
359.416	4.66
359.865	4.65
360.315	4.65
360.764	4.65
361.213	4.64
361.663	4.64
362.112	4.64
362.561	4.65
363.01	4.65
363.459	4.63
363.908	4.63
364.357	4.63
364.806	4.63
365.255	4.62
365.703	4.62
366.152	4.64
366.601	4.64
367.05	4.63
367.498	4.62
367.947	4.62
368.395	4.63
368.844	4.63
369.292	4.62
369.74	4.62
370.189	4.63
370.637	4.62
371.085	4.62
371.533	4.62
371.981	4.62
372.429	4.61
372.877	4.6
373.325	4.6
373.773	4.6
374.221	4.59
374.669	4.6
375.116	4.59
375.564	4.6
376.012	4.59
376.459	4.6
376.907	4.62
377.354	4.62
377.801	4.64
378.249	4.66
378.696	4.67
379.143	4.68
379.591	4.69
380.038	4.71
380.485	4.71
380.932	4.72
381.379	4.73
381.826	4.73
382.273	4.74
382.72	4.74
383.166	4.75
383.613	4.76
384.06	4.78
384.506	4.8
384.953	4.81
385.4	4.83
385.846	4.86
386.292	4.88
386.739	4.91
387.185	4.93
387.631	4.95
388.078	4.98
388.524	5
388.97	5.02
389.416	5.06
389.862	5.1
390.308	5.13
390.754	5.16
391.2	5.2
391.645	5.24
392.091	5.29
392.537	5.34
392.983	5.37
393.428	5.42
393.874	5.46
394.319	5.49
394.765	5.51
395.21	5.54
395.655	5.58
396.101	5.61
396.546	5.65
396.991	5.68
397.436	5.71
397.881	5.77
398.326	5.81
398.771	5.84
399.216	5.87
399.661	5.92
400.106	5.96
400.551	5.98
400.995	6
401.44	6.02
401.885	6.04
402.329	6.07
402.774	6.09
403.218	6.12
403.663	6.15
404.107	6.18
404.551	6.19
404.995	6.21
405.44	6.23
405.884	6.25
406.328	6.27
406.772	6.28
407.216	6.31
407.66	6.31
408.104	6.31
408.547	6.32
408.991	6.34
409.435	6.35
409.879	6.35
410.322	6.37
410.766	6.39
411.209	6.42
411.653	6.44
412.096	6.45
412.54	6.47
412.983	6.48
413.426	6.52
413.869	6.53
414.312	6.55
414.756	6.58
415.199	6.58
415.642	6.58
416.085	6.57
416.527	6.54
416.97	6.52
417.413	6.51
417.856	6.5
418.298	6.48
418.741	6.47
419.184	6.46
419.626	6.46
420.069	6.46
420.511	6.47
420.953	6.47
421.396	6.5
421.838	6.52
422.28	6.53
422.722	6.56
423.164	6.55
423.606	6.55
424.048	6.55
424.49	6.54
424.932	6.52
425.374	6.49
425.816	6.47
426.258	6.43
426.699	6.41
427.141	6.41
427.582	6.39
428.024	6.4
428.465	6.39
428.907	6.37
429.348	6.36
429.789	6.37
430.231	6.4
430.672	6.42
431.113	6.44
431.554	6.45
431.995	6.45
432.436	6.46
432.877	6.46
433.318	6.48
433.759	6.52
434.2	6.55
434.64	6.56
435.081	6.57
435.522	6.59
435.962	6.6
436.403	6.63
436.843	6.65
437.284	6.66
437.724	6.69
438.164	6.69
438.604	6.72
439.045	6.73
439.485	6.75
439.925	6.77
440.365	6.78
440.805	6.79
441.245	6.84
441.685	6.86
442.125	6.91
442.564	6.92
443.004	6.95
443.444	6.97
443.883	7.01
444.323	7.04
444.762	7.07
445.202	7.12
445.641	7.17
446.081	7.21
446.52	7.25
446.959	7.28
447.398	7.33
447.837	7.38
448.276	7.41
448.716	7.44
449.154	7.48
449.593	7.52
450.032	7.55
450.471	7.56
450.91	7.57
451.349	7.59
451.787	7.59
452.226	7.6
452.664	7.62
453.103	7.62
453.541	7.63
453.98	7.64
454.418	7.63
454.856	7.64
455.295	7.63
455.733	7.61
456.171	7.62
456.609	7.62
457.047	7.61
457.485	7.61
457.923	7.62
458.361	7.62
458.798	7.62
459.236	7.63
459.674	7.61
460.111	7.63
460.549	7.65
460.987	7.66
461.424	7.67
461.862	7.68
462.299	7.69
462.736	7.68
463.173	7.68
463.611	7.68
464.048	7.69
464.485	7.71
464.922	7.72
465.359	7.73
465.796	7.74
466.233	7.74
466.67	7.76
467.106	7.77
467.543	7.78
467.98	7.78
468.416	7.78
468.853	7.78
469.29	7.78
469.726	7.78
470.162	7.78
470.599	7.78
471.035	7.78
471.471	7.78
471.907	7.78
472.344	7.79
472.78	7.8
473.216	7.8
473.652	7.81
474.088	7.8
474.523	7.82
474.959	7.82
475.395	7.82
475.831	7.81
476.266	7.83
476.702	7.82
477.138	7.83
477.573	7.84
478.008	7.85
478.444	7.85
478.879	7.87
479.314	7.86
479.75	7.87
480.185	7.86
480.62	7.87
481.055	7.87
481.49	7.88
481.925	7.88
482.36	7.89
482.795	7.89
483.229	7.9
483.664	7.92
484.099	7.94
484.534	7.96
484.968	8
485.403	8.02
485.837	8.05
486.271	8.09
486.706	8.12
487.14	8.15
487.574	8.19
488.009	8.24
488.443	8.27
488.877	8.32
489.311	8.38
489.745	8.42
490.179	8.49
490.613	8.55
491.046	8.62
491.48	8.7
491.914	8.78
492.348	8.86
492.781	8.95
493.215	9.04
493.648	9.12
494.082	9.22
494.515	9.32
494.948	9.42
495.382	9.51
495.815	9.62
496.248	9.73
496.681	9.86
497.114	9.98
497.547	10.11
497.98	10.25
498.413	10.39
498.846	10.53
499.279	10.68
499.711	10.85
500.144	11.03
500.577	11.2
501.009	11.38
501.442	11.56
501.874	11.76
502.306	11.96
502.739	12.16
503.171	12.37
503.603	12.58
504.036	12.8
504.468	13.02
504.9	13.26
505.332	13.5
505.764	13.75
506.196	13.99
506.627	14.26
507.059	14.53
507.491	14.8
507.923	15.09
508.354	15.4
508.786	15.71
509.217	16.02
509.649	16.33
510.08	16.65
510.512	16.98
510.943	17.33
511.374	17.65
511.805	18
512.237	18.34
512.668	18.69
513.099	19.03
513.53	19.38
513.961	19.75
514.391	20.11
514.822	20.49
515.253	20.86
515.684	21.22
516.114	21.59
516.545	21.97
516.975	22.35
517.406	22.72
517.836	23.09
518.267	23.47
518.697	23.82
519.127	24.17
519.558	24.5
519.988	24.85
520.418	25.18
520.848	25.51
521.278	25.83
521.708	26.23
522.138	26.54
522.567	26.84
522.997	27.13
523.427	27.41
523.857	27.7
524.286	27.96
524.716	28.23
525.145	28.49
525.575	28.74
526.004	28.98
526.433	29.12
526.863	29.34
527.292	29.54
527.721	29.75
528.15	29.93
528.579	30.13
529.008	30.31
529.437	30.47
529.866	30.64
530.295	30.8
530.724	30.96
531.152	31.12
531.581	31.25
532.01	31.39
532.438	31.52
532.867	31.67
533.295	31.79
533.723	31.9
534.152	32.02
534.58	32.12
535.008	32.22
535.436	32.31
535.865	32.4
536.293	32.51
536.721	32.57
537.149	32.66
537.576	32.74
538.004	32.81
538.432	32.87
538.86	32.92
539.287	32.97
539.715	33.03
540.143	33.1
540.57	33.14
540.998	33.16
541.425	33.23
541.852	33.27
542.28	33.32
542.707	33.34
543.134	33.38
543.561	33.43
543.988	33.48
544.415	33.51
544.842	33.51
545.269	33.57
545.696	33.61
546.123	33.63
546.549	33.64
546.976	33.65
547.403	33.67
547.829	33.68
548.256	33.69
548.682	33.71
549.108	33.74
549.535	33.78
549.961	33.77
550.387	33.77
550.813	33.79
551.24	33.78
551.666	33.78
552.092	33.8
552.518	33.79
552.943	33.78
553.369	33.76
553.795	33.71
554.221	33.69
554.646	33.67
555.072	33.65
555.498	33.59
555.923	33.55
556.349	33.51
556.774	33.44
557.199	33.39
557.625	33.34
558.05	33.27
558.475	33.22
558.9	33.13
559.325	33.06
559.75	32.98
560.175	32.92
560.6	32.83
561.025	32.75
561.449	32.66
561.874	32.56
562.299	32.47
562.723	32.37
563.148	32.25
563.572	32.13
563.997	32.01
564.421	31.89
564.846	31.74
565.27	31.63
565.694	31.49
566.118	31.36
566.542	31.22
566.966	31.07
567.39	30.92
567.814	30.78
568.238	30.64
568.662	30.51
569.086	30.37
569.509	30.24
569.933	30.1
570.357	29.96
570.78	29.82
571.204	29.7
571.627	29.55
572.05	29.41
572.474	29.31
572.897	29.2
573.32	29.05
573.743	28.92
574.166	28.8
574.589	28.66
575.012	28.53
575.435	28.41
575.858	28.29
576.281	28.19
576.704	28.07
577.126	27.95
577.549	27.81
577.972	27.71
578.394	27.59
578.817	27.49
579.239	27.38
579.661	27.29
580.084	27.19
580.506	27.09
580.928	26.97
581.35	26.9
581.772	26.8
582.194	26.71
582.616	26.63
583.038	26.54
583.46	26.44
583.882	26.36
584.303	26.27
584.725	26.18
585.147	26.11
585.568	26.04
585.99	25.94
586.411	25.87
586.833	25.8
587.254	25.71
587.675	25.64
588.096	25.58
588.518	25.51
588.939	25.46
589.36	25.41
589.781	25.33
590.202	25.3
590.623	25.24
591.043	25.2
591.464	25.16
591.885	25.11
592.305	25.06
592.726	25.02
593.147	24.99
593.567	24.94
593.987	24.89
594.408	24.85
594.828	24.81
595.248	24.78
595.669	24.73
596.089	24.69
596.509	24.67
596.929	24.65
597.349	24.61
597.769	24.56
598.189	24.51
598.608	24.48
599.028	24.45
599.448	24.38
599.867	24.33
600.287	24.29
600.706	24.24
601.126	24.18
601.545	24.12
601.965	24.09
602.384	24.04
602.803	23.97
603.222	23.9
603.641	23.85
604.061	23.8
604.48	23.73
604.898	23.65
605.317	23.57
605.736	23.51
606.155	23.42
606.574	23.32
606.992	23.23
607.411	23.15
607.829	23.04
608.248	22.93
608.666	22.83
609.085	22.74
609.503	22.66
609.921	22.56
610.339	22.46
610.758	22.38
611.176	22.28
611.594	22.19
612.012	22.1
612.43	22.01
612.847	21.93
613.265	21.83
613.683	21.74
614.101	21.65
614.518	21.55
614.936	21.45
615.353	21.34
615.771	21.25
616.188	21.18
616.606	21.08
617.023	21.02
617.44	20.95
617.857	20.88
618.274	20.81
618.691	20.74
619.108	20.69
619.525	20.64
619.942	20.59
620.359	20.55
620.776	20.5
621.192	20.46
621.609	20.42
622.026	20.38
622.442	20.34
622.859	20.3
623.275	20.27
623.691	20.25
624.108	20.22
624.524	20.2
624.94	20.19
625.356	20.17
625.772	20.14
626.188	20.14
626.604	20.12
627.02	20.12
627.436	20.11
627.852	20.1
628.268	20.09
628.683	20.08
629.099	20.07
629.514	20.05
629.93	20.02
630.345	20
630.761	19.95
631.176	19.92
631.591	19.86
632.007	19.82
632.422	19.75
632.837	19.68
633.252	19.61
633.667	19.51
634.082	19.41
634.497	19.32
634.911	19.22
635.326	19.11
635.741	18.97
636.155	18.84
636.57	18.71
636.984	18.57
637.399	18.41
637.813	18.25
638.228	18.09
638.642	17.91
639.056	17.73
639.47	17.56
639.884	17.38
640.298	17.2
640.712	17.01
641.126	16.81
641.54	16.61
641.954	16.42
642.368	16.22
642.781	16.03
643.195	15.85
643.609	15.67
644.022	15.48
644.436	15.32
644.849	15.15
645.262	14.99
645.676	14.85
646.089	14.72
646.502	14.59
646.915	14.48
647.328	14.36
647.741	14.24
648.154	14.13
648.567	14.04
648.98	13.95
649.393	13.87
649.805	13.81
650.218	13.73
650.631	13.66
651.043	13.58
651.456	13.51
651.868	13.45
652.28	13.38
652.693	13.32
653.105	13.24
653.517	13.16
653.929	13.07
654.341	12.96
654.753	12.86
655.165	12.77
655.577	12.66
655.989	12.54
656.401	12.41
656.813	12.28
657.224	12.14
657.636	11.99
658.047	11.85
658.459	11.71
658.87	11.56
659.282	11.4
659.693	11.24
660.104	11.07
660.515	10.92
660.926	10.76
661.338	10.6
661.749	10.44
662.159	10.29
662.57	10.14
662.981	9.99
663.392	9.84
663.803	9.7
664.213	9.57
664.624	9.44
665.035	9.32
665.445	9.2
665.855	9.09
666.266	8.99
666.676	8.89
667.086	8.8
667.497	8.72
667.907	8.64
668.317	8.57
668.727	8.5
669.137	8.45
669.547	8.4
669.956	8.35
670.366	8.32
670.776	8.27
671.186	8.25
671.595	8.22
672.005	8.2
672.414	8.18
672.824	8.17
673.233	8.17
673.642	8.17
674.052	8.17
674.461	8.17
674.87	8.19
675.279	8.21
675.688	8.23
676.097	8.27
676.506	8.3
676.915	8.34
677.323	8.39
677.732	8.44
678.141	8.5
678.549	8.57
678.958	8.67
679.366	8.77
679.775	8.89
680.183	9.02
680.592	9.17
681	9.35
681.408	9.55
681.816	9.77
682.224	10.01
682.632	10.28
683.04	10.58
683.448	10.89
683.856	11.23
684.264	11.62
684.671	12.01
685.079	12.45
685.487	12.91
685.894	13.41
686.302	13.95
686.709	14.51
687.116	15.09
687.524	15.71
687.931	16.35
688.338	17.01
688.745	17.69
689.152	18.39
689.559	19.12
689.966	19.85
690.373	20.58
690.78	21.32
691.187	22.07
691.593	22.82
692	23.55
692.407	24.28
692.813	25.02
693.22	25.74
693.626	26.47
694.032	27.18
694.439	27.89
694.845	28.57
695.251	29.24
695.657	29.88
696.063	30.52
696.469	31.19
696.875	31.83
697.281	32.42
697.687	33.03
698.093	33.61
698.498	34.16
698.904	34.7
699.31	35.23
699.715	35.76
700.12	36.26
700.526	36.76
700.931	37.22
701.337	37.67
701.742	38.11
702.147	38.55
702.552	38.96
702.957	39.33
703.362	39.72
703.767	40.1
704.172	40.47
704.577	40.81
704.981	41.16
705.386	41.48
705.791	41.83
706.195	42.15
706.6	42.47
707.004	42.77
707.408	43.09
707.813	43.38
708.217	43.68
708.621	43.95
709.025	44.22
709.43	44.46
709.834	44.75
710.237	44.98
710.641	45.23
711.045	45.47
711.449	45.73
711.853	45.97
712.256	46.19
712.66	46.39
713.064	46.6
713.467	46.81
713.87	47.04
714.274	47.22
714.677	47.42
715.08	47.61
715.484	47.77
715.887	47.96
716.29	48.12
716.693	48.33
717.096	48.51
717.499	48.69
717.901	48.86
718.304	49.02
718.707	49.18
719.109	49.34
719.512	49.46
719.915	49.63
720.317	49.73
720.719	49.82
721.122	49.92
721.524	50.06
721.926	50.2
722.328	50.31
722.731	50.39
723.133	50.52
723.535	50.64
723.937	50.76
724.338	50.86
724.74	50.98
725.142	51.21
725.544	51.3
725.945	51.4
726.347	51.45
726.748	51.52
727.15	51.61
727.551	51.68
727.952	51.73
728.354	51.79
728.755	51.82
729.156	51.85
729.557	51.82
729.958	51.88
730.359	51.91
730.76	51.99
731.161	52.03
731.562	52.12
731.962	52.14
732.363	52.19
732.763	52.24
733.164	52.29
733.564	52.35
733.965	52.37
734.365	52.41
734.766	52.44
735.166	52.43
735.566	52.49
735.966	52.52
736.366	52.56
736.766	52.6
737.166	52.66
737.566	52.7
737.966	52.74
738.365	52.78
738.765	52.81
739.165	52.84
739.564	52.88
739.964	52.89
740.363	52.89
740.763	52.91
741.162	52.9
741.561	52.89
741.96	52.91
742.36	52.92
742.759	52.93
743.158	52.94
743.557	52.93
743.955	52.95
744.354	52.97
744.753	52.99
745.152	53.03
745.55	53.06
745.949	53.08
746.348	53.11
746.746	53.11
747.144	53.13
747.543	53.14
747.941	53.18
748.339	53.16
748.737	53.14
749.136	53.12
749.534	53.08
749.932	53.06
750.33	53.04
750.727	53.04
751.125	53.04
751.523	53.03
751.921	53.03
752.318	53.05
752.716	53.06
753.113	53.1
753.511	53.14
753.908	53.2
754.305	53.24
754.703	53.27
755.1	53.28
755.497	53.29
755.894	53.3
756.291	53.29
756.688	53.29
757.085	53.3
757.482	53.31
757.878	53.32
758.275	53.31
758.672	53.31
759.068	53.35
759.465	53.35
759.861	53.35
760.258	53.37
760.654	53.39
761.05	53.39
761.447	53.42
761.843	53.41
762.239	53.41
762.635	53.4
763.031	53.38
763.427	53.34
763.822	53.33
764.218	53.34
764.614	53.32
765.01	53.3
765.405	53.29
765.801	53.26
766.196	53.27
766.592	53.25
766.987	53.24
767.382	53.23
767.778	53.22
768.173	53.24
768.568	53.21
768.963	53.21
769.358	53.22
769.753	53.22
770.148	53.25
770.542	53.25
770.937	53.26
771.332	53.29
771.726	53.29
772.121	53.3
772.515	53.3
772.91	53.31
773.304	53.32
773.699	53.3
774.093	53.29
774.487	53.26
774.881	53.27
775.275	53.25
775.669	53.21
776.063	53.19
776.457	53.18
776.851	53.16
777.245	53.14
777.638	53.12
778.032	53.14
778.425	53.2
778.819	53.19
779.212	53.2
779.606	53.2
779.999	53.19
780.392	53.22
780.786	53.23
781.179	53.22
781.572	53.27
781.965	53.31
782.358	53.3
782.751	53.25
783.143	53.26
783.536	53.24
783.929	53.25
784.322	53.27
784.714	53.27
785.107	53.29
785.499	53.29
785.891	53.29
786.284	53.28
786.676	53.31
787.068	53.31
787.46	53.31
787.852	53.32
788.245	53.31
788.636	53.3
789.028	53.32
789.42	53.32
789.812	53.33
790.204	53.33
790.595	53.34
790.987	53.32
791.378	53.32
791.77	53.34
792.161	53.33
792.553	53.37
792.944	53.36
793.335	53.33
793.726	53.33
794.117	53.32
794.508	53.32
794.899	53.29
795.29	53.3
795.681	53.28
796.072	53.29
796.463	53.32
796.853	53.27
797.244	53.27
797.634	53.27
798.025	53.28
798.415	53.26
798.806	53.26
799.196	53.29
799.586	53.28
799.976	53.29
800.366	53.27
800.756	53.26
801.146	53.29
801.536	53.3
801.926	53.31
802.316	53.32
802.706	53.36
803.095	53.37
803.485	53.35
803.874	53.35
804.264	53.35
804.653	53.35
805.043	53.37
805.432	53.35
805.821	53.37
806.21	53.38
806.599	53.37
806.988	53.36
807.377	53.35
807.766	53.37
808.155	53.35
808.544	53.38
808.933	53.39
809.321	53.37
809.71	53.36
810.098	53.34
810.487	53.3
810.875	53.29
811.264	53.27
811.652	53.29
812.04	53.28
812.428	53.33
812.816	53.31
813.204	53.28
813.592	53.27
813.98	53.29
814.368	53.3
814.756	53.33
815.144	53.32
815.531	53.33
815.919	53.3
816.306	53.33
816.694	53.28
817.081	53.29
817.469	53.32
817.856	53.33
818.243	53.3
818.63	53.29
819.017	53.29
819.404	53.29
819.791	53.29
820.178	53.3
820.565	53.24
820.952	53.28
821.339	53.28
821.725	53.28
822.112	53.29
822.498	53.33
822.885	53.4
823.271	53.39
823.657	53.39
824.044	53.4
824.43	53.42
824.816	53.45
825.202	53.43
825.588	53.42
825.974	53.42
826.36	53.41
826.746	53.39
827.132	53.35
827.517	53.37
827.903	53.41
828.289	53.42
828.674	53.41
829.06	53.41
829.445	53.41
829.83	53.41
830.216	53.41
830.601	53.42
830.986	53.45
831.371	53.44
831.756	53.44
832.141	53.42
832.526	53.42
832.911	53.43
833.295	53.44
833.68	53.46
834.065	53.48
834.449	53.49
834.834	53.49
835.218	53.48
835.603	53.47
835.987	53.44
836.371	53.43
836.755	53.43
837.139	53.4
837.524	53.41
837.908	53.42
838.291	53.43
838.675	53.42
839.059	53.42
839.443	53.42
839.827	53.42
840.21	53.44
840.594	53.48
840.977	53.47
841.361	53.48
841.744	53.46
842.127	53.43
842.511	53.42
842.894	53.4
843.277	53.4
843.66	53.4
844.043	53.4
844.426	53.41
844.809	53.4
845.191	53.41
845.574	53.42
845.957	53.43
846.339	53.44
846.722	53.46
847.104	53.49
847.487	53.48
847.869	53.5
848.252	53.52
848.634	53.53
849.016	53.53
849.398	53.54
849.78	53.54
850.162	53.57
850.544	53.59
850.926	53.58
851.307	53.58
851.689	53.58
852.071	53.59
852.452	53.6
852.834	53.59
853.215	53.6
853.597	53.6
853.978	53.6
854.359	53.61
854.741	53.61
855.122	53.61
855.503	53.61
855.884	53.63
856.265	53.64
856.646	53.61
857.026	53.62
857.407	53.61
857.788	53.61
858.169	53.62
858.549	53.61
858.93	53.61
859.31	53.62
859.69	53.64
860.071	53.65
860.451	53.65
860.831	53.66
861.211	53.64
861.591	53.64
861.971	53.62
862.351	53.63
862.731	53.62
863.111	53.6
863.491	53.59
863.87	53.56
864.25	53.52
864.629	53.51
865.009	53.53
865.388	53.53
865.768	53.54
866.147	53.55
866.526	53.56
866.905	53.56
867.284	53.58
867.663	53.6
868.042	53.63
868.421	53.66
868.8	53.66
869.179	53.65
869.558	53.66
869.936	53.66
870.315	53.65
870.693	53.63
871.072	53.65
871.45	53.67
871.828	53.68
872.207	53.68
872.585	53.66
872.963	53.69
873.341	53.69
873.719	53.69
874.097	53.69
874.475	53.74
874.853	53.74
875.23	53.75
875.608	53.75
875.986	53.78
876.363	53.79
876.741	53.8
877.118	53.79
877.495	53.8
877.873	53.82
878.25	53.86
878.627	53.83
879.004	53.83
879.381	53.82
879.758	53.8
880.135	53.77
880.512	53.74
880.889	53.74
881.265	53.71
881.642	53.71
882.019	53.69
882.395	53.65
882.772	53.66
883.148	53.64
883.524	53.62
883.901	53.62
884.277	53.59
884.653	53.57
885.029	53.57
885.405	53.59
885.781	53.58
886.157	53.57
886.532	53.59
886.908	53.56
887.284	53.56
887.659	53.53
888.035	53.53
888.411	53.51
888.786	53.53
889.161	53.53
889.537	53.52
889.912	53.53
890.287	53.54
890.662	53.53
891.037	53.54
891.412	53.55
891.787	53.57
892.162	53.58
892.536	53.61
892.911	53.6
893.286	53.6
893.66	53.59
894.035	53.6
894.409	53.59
894.784	53.6
895.158	53.6
895.532	53.61
895.906	53.61
896.281	53.61
896.655	53.62
897.029	53.62
897.402	53.62
897.776	53.65
898.15	53.66
898.524	53.69
898.898	53.69
899.271	53.7
899.645	53.72
900.018	53.75
900.392	53.77
900.765	53.78
901.138	53.79
901.511	53.8
901.884	53.79
902.258	53.8
902.631	53.81
903.003	53.82
903.376	53.82
903.749	53.77
904.122	53.79
904.495	53.79
904.867	53.8
905.24	53.81
905.612	53.83
905.985	53.8
906.357	53.77
906.729	53.77
907.102	53.76
907.474	53.77
907.846	53.8
908.218	53.77
908.59	53.76
908.962	53.77
909.334	53.79
909.705	53.77
910.077	53.81
910.449	53.81
910.82	53.82
911.192	53.83
911.563	53.83
911.935	53.83
912.306	53.84
912.677	53.84
913.048	53.84
913.419	53.79
913.79	53.81
914.161	53.81
914.532	53.82
914.903	53.8
915.274	53.8
915.645	53.78
916.015	53.81
916.386	53.82
916.756	53.83
917.127	53.83
917.497	53.86
917.868	53.84
918.238	53.83
918.608	53.84
918.978	53.85
919.348	53.84
919.718	53.84
920.088	53.84
920.458	53.81
920.828	53.8
921.198	53.77
921.567	53.76
921.937	53.8
922.306	53.78
922.676	53.76
923.045	53.76
923.415	53.74
923.784	53.75
924.153	53.78
924.522	53.82
924.891	53.81
925.26	53.83
925.629	53.87
925.998	53.82
926.367	53.84
926.736	53.87
927.104	53.86
927.473	53.84
927.842	53.8
928.21	53.78
928.578	53.72
928.947	53.73
929.315	53.71
929.683	53.66
930.051	53.65
930.42	53.63
930.788	53.56
931.156	53.52
931.523	53.57
931.891	53.61
932.259	53.58
932.627	53.62
932.994	53.61
933.362	53.59
933.729	53.59
934.097	53.59
934.464	53.61
934.831	53.63
935.199	53.7
935.566	53.68
935.933	53.62
936.3	53.61
936.667	53.59
937.034	53.65
937.401	53.71
937.767	53.73
938.134	53.7
938.501	53.7
938.867	53.76
939.234	53.72
939.6	53.7
939.967	53.72
940.333	53.73
940.699	53.71
941.065	53.59
941.431	53.56
941.798	53.52
942.163	53.55
942.529	53.52
942.895	53.51
943.261	53.48
943.627	53.45
943.992	53.44
944.358	53.45
944.723	53.43
945.089	53.43
945.454	53.42
945.82	53.43
946.185	53.41
946.55	53.36
946.915	53.33
947.28	53.3
947.645	53.3
948.01	53.35
948.375	53.28
948.74	53.25
949.104	53.28
949.469	53.25
949.834	53.2
950.198	53.16
950.562	53.13
950.927	53.11
951.291	53.02
951.655	52.95
952.02	52.88
952.384	52.86
952.748	52.84
953.112	52.81
953.476	52.75
953.839	52.74
954.203	52.76
954.567	52.75
954.931	52.7
955.294	52.72
955.658	52.78
956.021	52.8
956.385	52.79
956.748	52.76
957.111	52.75
957.474	52.81
957.837	52.76
958.2	52.75
958.563	52.74
958.926	52.76
959.289	52.76
959.652	52.75
960.015	52.73
960.377	52.71
960.74	52.75
961.102	52.78
961.465	52.77
961.827	52.82
962.189	52.85
962.552	52.83
962.914	52.83
963.276	52.84
963.638	52.85
964	52.81
964.362	52.87
964.724	52.87
965.085	52.8
965.447	52.79
965.809	52.79
966.17	52.71
966.532	52.74
966.893	52.74
967.255	52.76
967.616	52.71
967.977	52.74
968.338	52.68
968.699	52.67
969.061	52.71
969.421	52.72
969.782	52.72
970.143	52.74
970.504	52.75
970.865	52.78
971.225	52.76
971.586	52.77
971.946	52.77
972.307	52.76
972.667	52.72
973.027	52.71
973.388	52.7
973.748	52.68
974.108	52.7
974.468	52.67
974.828	52.62
975.188	52.56
975.548	52.51
975.907	52.54
976.267	52.55
976.627	52.62
976.986	52.55
977.346	52.49
977.705	52.44
978.064	52.45
978.424	52.48
978.783	52.45
979.142	52.44
979.501	52.47
979.86	52.45
980.219	52.4
980.578	52.41
980.937	52.52
981.296	52.59
981.654	52.64
982.013	52.6
982.371	52.61
982.73	52.67
983.088	52.66
983.447	52.69
983.805	52.64
984.163	52.67
984.521	52.59
984.879	52.5
985.237	52.48
985.595	52.49
985.953	52.52
986.311	52.44
986.669	52.41
987.026	52.49
987.384	52.51
987.741	52.56
988.099	52.64
988.456	52.64
988.814	52.66
989.171	52.64
989.528	52.62
989.885	52.53
990.242	52.54
990.599	52.57
990.956	52.53
991.313	52.5
991.67	52.43
992.027	52.46
992.383	52.44
992.74	52.51
993.096	52.52
993.453	52.53
993.809	52.62
994.165	52.74
994.522	52.82
994.878	52.91
995.234	52.94
995.59	53.01
995.946	53.01
996.302	53.11
996.658	53.13
997.013	53.09
997.369	53.07
997.725	53.14
998.08	53.18
998.436	53.15
998.791	53.1
999.147	53.04
999.502	53.09
999.857	52.98
1000.212	52.96
1000.567	52.83
1000.922	52.88
1001.277	52.98
1001.632	52.91
1001.987	52.85
1002.342	52.65
1002.696	52.64
1003.051	52.83
1003.406	52.9
1003.76	53
1004.114	53.05
1004.469	53.23
1004.823	53.54
1005.177	53.49
1005.531	53.5
1005.885	53.54
1006.239	53.72
1006.593	53.92
1006.947	53.87
1007.301	53.7
1007.655	53.59
1008.008	53.62
1008.362	53.67
1008.715	53.43
1009.069	53.41
1009.422	53.49
1009.776	53.48
1010.129	53.38
1010.482	53.25
1010.835	53.16
1011.188	53.15
1011.541	53.2
1011.894	53.13
1012.247	53
1012.6	52.95
1012.952	52.99
1013.305	53.07
1013.657	53.22
1014.01	53.39
1014.362	53.47
1014.715	53.66
1015.067	53.8
1015.419	54.01
1015.771	53.99
1016.123	53.93
1016.475	54.04
1016.827	54.2
1017.179	54.08
1017.531	54.07
1017.883	53.95
1018.234	54.03
1018.586	54.03
1018.938	54.32
1019.289	54.12
1019.64	54.21
1019.992	54.32
1020.343	54.24
1020.694	54.13
1021.045	54.14
1021.396	54.03
1021.747	54.27
1022.098	54.24
1022.449	54.08
1022.8	53.97
1023.151	54.16
1023.501	54.39
1023.852	54.43
1024.202	54.32
1024.553	54.38
1024.903	54.44
1025.253	54.54
1025.604	54.37
1025.954	54.11
1026.304	54.36
1026.654	54.18
1027.004	54.11
1027.354	53.81
1027.703	53.83
1028.053	54.02
1028.403	54.12
1028.753	53.93
1029.102	53.92
1029.452	53.91
1029.801	54.09
1030.15	53.92
1030.499	53.9
897.758	1193.11
901.051	1201.66
904.343	1194.91
907.636	1220.25
910.928	1189.28
914.22	1188.85
917.511	1170.64
920.803	1119.64
924.094	1112.6
927.384	1089.44
930.675	1042.3
933.965	1038.36
937.255	975.41
940.544	939.25
943.834	894.53
947.123	886.42
950.411	834.45
953.7	820.56
956.988	778.39
960.276	749.22
963.563	736.31
966.851	714.01
970.138	706.71
973.424	687.28
976.711	690.28
979.997	653.63
983.283	649.92
986.568	636.86
989.853	617.34
993.138	603.79
996.423	583.51
999.708	565.97
1002.992	558.35
1006.275	533.84
1009.559	528.26
1012.842	509.61
1016.125	497.9
1019.408	488.82
1022.69	481.48
1025.972	471.26
1029.254	462.66
1032.536	453.18
1035.817	444.41
1039.098	439.32
1042.379	430.61
1045.659	426.51
1048.939	416.46
1052.219	407.67
1055.498	401.69
1058.778	393.18
1062.057	384.71
1065.335	380.27
1068.614	376
1071.892	372.56
1075.17	360.64
1078.447	354.71
1081.724	351.25
1085.001	348.32
1088.278	341.61
1091.554	334.77
1094.83	335.5
1098.106	333.49
1101.382	330.75
1104.657	328.68
1107.932	322.6
1111.206	325.38
1114.481	316.58
1117.755	313.87
1121.029	311.71
1124.302	311.87
1127.575	305.64
1130.848	302.06
1134.121	298.58
1137.393	296.76
1140.665	290.3
1143.937	289.73
1147.208	287.19
1150.48	286.85
1153.75	283.84
1157.021	279.37
1160.291	279.49
1163.561	277.17
1166.831	276.68
1170.101	274.23
1173.37	273.86
1176.639	275.02
1179.907	271.31
1183.176	268.1
1186.444	268.25
1189.711	267.55
1192.979	267.35
1196.246	264.7
1199.513	266.22
1202.78	264.79
1206.046	264.75
1209.312	262.3
1212.578	262.17
1215.843	265.53
1219.108	263.59
1222.373	268.37
1225.638	270.45
1228.902	274.04
1232.166	274.72
1235.43	276.4
1238.693	279.67
1241.956	281.56
1245.219	285.74
1248.482	285.96
1251.744	285.66
1255.006	285.82
1258.268	279.74
1261.529	277.13
1264.79	275.21
1268.051	273.78
1271.312	270.64
1274.572	267.95
1277.832	264.85
1281.092	260.41
1284.351	258.25
1287.61	258.14
1290.869	255.51
1294.128	253.7
1297.386	253.16
1300.644	250.32
1303.902	251.5
1307.159	250.59
1310.416	250.41
1313.673	249.94
1316.93	253.11
1320.186	252.54
1323.442	253.38
1326.697	257.22
1329.953	258.38
1333.208	259.12
1336.463	262.17
1339.717	262.35
1342.972	264.92
1346.226	267.16
1349.479	268.52
1352.733	269.36
1355.986	270.5
1359.238	269.63
1362.491	271.51
1365.743	273.17
1368.995	273.72
1372.247	272.28
1375.498	272.24
1378.749	274.59
1382	270.4
1385.251	271.23
1388.501	268.96
1391.751	270.12
1395	269.12
1398.25	266.77
1401.499	264.33
1404.748	263.8
1407.996	262.23
1411.244	260.64
1414.492	258.4
1417.74	256.21
1420.987	251.52
1424.234	251.94
1427.481	248.41
1430.728	247.56
1433.974	245.58
1437.22	242.89
1440.465	242.04
1443.711	239.57
1446.956	237.64
1450.201	235.61
1453.445	232.98
1456.689	232.89
1459.933	228.26
1463.177	226.91
1466.42	223.2
1469.663	220.14
1472.906	219.72
1476.148	214.8
1479.391	212.27
1482.633	210.87
1485.874	207.21
1489.115	206.21
1492.356	203.89
1495.597	203.78
1498.838	200.82
1502.078	200.68
1505.318	199.98
1508.557	200.03
1511.797	199.61
1515.036	198.61
1518.274	197.82
1521.513	196.52
1524.751	196.35
1527.989	196.25
1531.227	195.16
1534.464	195.73
1537.701	193.91
1540.938	193.77
1544.174	191.21
1547.41	191.54
1550.646	190.25
1553.882	190.49
1557.117	188.33
1560.352	187.76
1563.587	187.03
1566.821	186.09
1570.055	184.44
1573.289	183.92
1576.523	183.25
1579.756	182.03
1582.989	180.73
1586.222	180.56
1589.454	180.23
1592.686	181.46
1595.918	180.12
1599.15	179.34
1602.381	179.99
1605.612	180.04
1608.843	179.91
1612.073	179.88
1615.303	181.32
1618.533	181.28
1621.762	181.4
1624.992	180.99
1628.221	180.58
1631.449	180.87
1634.678	180.77
1637.906	181.23
1641.134	181.54
1644.361	181.44
1647.588	181.94
1650.815	180.94
1654.042	180.31
1657.269	181.75
1660.495	181.52
1663.72	181.09
1666.946	181.78
1670.171	182.31
1673.396	181.7
1676.621	181.11
1679.845	182.02
1683.069	181.6
1686.293	183.13
1689.517	184.08
1692.74	183.56
1695.963	184.39
1699.185	185.96
1702.408	186.31
1705.63	186.91
1708.852	187.51
1712.073	188.12
1715.294	188.09
1718.515	189.43
1721.736	188.68
1724.956	189.48
1728.176	189.38
1731.396	190.65
1734.616	189.71
1737.835	190.11
1741.054	188.82
1744.272	189.55
1747.491	191.25
1750.709	190.9
1753.927	190.87
1757.144	190.84
1760.361	190.94
1763.578	191.78
1766.795	191.08
1770.011	192.23
1773.227	192.42
1776.443	194.7
1779.658	194.92
1782.874	194.21
1786.089	195.43
1789.303	195.65
1792.518	197.57
1795.732	197.6
1798.945	198.6
1802.159	199.42
1805.372	200.31
1808.585	203.21
1811.797	203.8
1815.01	204.37
1818.222	205.99
1821.434	207.21
1824.645	208.22
1827.856	211.47
1831.067	213.43
1834.278	212.51
1837.488	214.07
1840.698	215.27
1843.908	213.32
1847.117	214.2
1850.326	215.23
1853.535	214.16
1856.744	217.36
1859.952	216.44
1863.16	214.8
1866.368	213.13
1869.575	215.8
1872.782	211.41
1875.989	210.97
1879.196	209.09
1882.402	207.42
1885.608	207.63
1888.814	208.13
1892.019	206.88
1895.224	206.73
1898.429	205.42
1901.634	205.84
1904.838	206.04
1908.042	208.2
1911.246	207.61
1914.449	209.81
1917.652	209.93
1920.855	209.63
1924.058	209.82
1927.26	208.69
1930.462	209.07
1933.664	211.38
1936.865	209.61
1940.066	209.01
1943.267	208.14
1946.467	208.15
1949.668	209.35
1952.868	211.93
1956.067	212.34
1959.267	212.18
1962.466	212.94
1965.665	211.85
1968.863	212.18
1972.061	215.7
1975.259	217.07
1978.457	218.87
1981.654	221.18
1984.852	221.83
1988.048	220.85
1991.245	223.17
1994.441	225.45
1997.637	227.01
2000.833	231.84
2004.028	234.72
2007.223	236.27
2010.418	238.47
2013.613	242.14
2016.807	245
2020.001	247.06
2023.194	250.94
2026.388	256.57
2029.581	262.28
2032.774	264.97
2035.966	269.62
2039.158	270.24
2042.35	276.12
2045.542	277.73
2048.733	282.41
2051.924	285.36
2055.115	290.89
2058.306	291.36
2061.496	293.35
2064.686	293.41
2067.875	298.17
2071.065	299.86
2074.254	298.53
2077.442	300.66
2080.631	303.06
2083.819	306.1
2087.007	307.59
2090.195	309.43
2093.382	313.13
2096.569	311.5
2099.756	316.04
2102.942	317.42
2106.128	320.24
2109.314	328.24
2112.5	327.62
2115.685	334.84
2118.87	334.84
2122.055	341.74
2125.239	344.35
2128.424	348.53
2131.608	352.06
2134.791	357.51
2137.974	358.35
2141.157	358.95
2144.34	359.28
2147.523	365.59
2150.705	362.93
2153.887	366.67
2157.068	366.77
2160.25	364.07
2163.431	364.68
2166.611	368.62
2169.792	375.2
2172.972	379.42
2176.152	381.97
2179.331	386.97
2182.511	392.52
2185.69	396.1
2188.868	404.16
2192.047	405.04
2195.225	417.8
2198.403	425.95
2201.58	432.17
2204.758	440.08
2207.935	450.29
2211.111	457.83
2214.288	463.33
2217.464	464.63
2220.64	473.07
2223.815	478.46
2226.991	496.78
2230.166	495.57
2233.34	507.58
2236.515	516.74
2239.689	516.09
2242.863	516.89
2246.036	531.94
2249.209	528.4
2252.382	536.93
2255.555	553.37
2258.727	554.83
2261.9	559.67
2265.071	565.43
2268.243	573.43
2271.414	578.62
2274.585	592.61
2277.756	599.24
2280.926	602.07
2284.096	616.87
2287.266	628.52
2290.436	631.9
2293.605	647.96
2296.774	665.7
2299.942	688.02
2303.111	692.66
2306.279	707.83
2309.447	716.5
2312.614	735.13
2315.781	758.36
2318.948	787.94
2322.115	779.62
2325.281	820.68
2328.447	805.76
2331.613	835.36
2334.779	826.79
2337.944	861.85
2341.109	871.16
2344.274	896.16
2347.438	925.81
2350.602	923.78
2353.766	955.46
2356.929	968.86
2360.092	960.14
2363.255	1026.51
2366.418	1028.06
2369.58	1048.4
2372.742	1109.72
2375.904	1140.49
2379.066	1134.14
2382.227	1114.02
2385.388	1208.38
2388.548	1210.68
2391.709	1223.71
2394.869	1367.42
2398.029	1306.95
2401.188	1342.42
2404.347	1332.39
2407.506	1312.08
2410.665	1347.71
2413.823	1426.35
2416.981	1511.06
2420.139	1458.58
2423.296	1446.52
2426.453	1512.26
2429.61	1458.09
2432.767	1525.65
2435.923	1509.78
2439.079	1648.48
2442.235	1669.91
2445.391	1654.84
2448.546	1642.5
2451.701	1592.9
2454.855	1597.45
2458.009	1682.37
2461.163	1754.18
2464.317	1813.32
2467.471	1861.52
2470.624	1862.9
2473.777	1815.22
2476.929	1775.78
2480.082	1725.73
2483.234	1709.06
2486.385	1789.47
2489.537	1798.13
2492.688	1866.94
2495.839	1810.33
2498.989	1773.48
2502.14	1782.92
2505.29	1799.17
2508.439	1833.5
2511.589	1823.77
2514.738	1984.03
2517.887	1940.12
2521.035	2052.69
2524.183	2073.6
2527.331	2094.15
2530.479	2087.82
2533.627	2097.85
