Data from C_1_DIV_WI_4N_Splice17_12-54-47-588.txt Node
Date: Sat Mar 07 12:54:47 EST 2020
User: sa697716
Spectrometer: NQ5500242
Trigger mode: 0
Integration Time (sec): 1.450000E-1
Scans to average: 20
Nonlinearity correction enabled: false
Boxcar width: 5
Storing dark spectrum: false
XAxis mode: Wavelengths
Number of Pixels in Spectrum: 512
>>>>>Begin Spectral Data<<<<<
187.83	119.26
188.298	142.25
188.766	121.65
189.233	117.28
189.701	110.08
190.169	123.93
190.636	179.03
191.104	205.88
191.571	18.27
192.039	-131.59
192.506	-648.14
192.974	151.26
193.441	208.04
193.908	89.99
194.375	73.63
194.842	27.13
195.31	22.74
195.777	182.09
196.244	25.9
196.711	31.46
197.177	35.09
197.644	34.63
198.111	35.16
198.578	36.17
199.045	36.17
199.511	36.03
199.978	36.33
200.445	36.55
200.911	36.76
201.378	37.33
201.844	37.62
202.31	37.37
202.777	37.63
203.243	37.66
203.709	37.32
204.176	37.11
204.642	37.1
205.108	37.22
205.574	37.15
206.04	36.62
206.506	36.29
206.972	36.08
207.438	35.76
207.903	35.4
208.369	34.97
208.835	34.55
209.301	34.14
209.766	33.68
210.232	32.81
210.697	32.17
211.163	31.88
211.628	31.19
212.094	30.62
212.559	30.38
213.024	29.87
213.49	29.38
213.955	28.96
214.42	28.57
214.885	28.06
215.35	27.54
215.815	26.69
216.28	25.42
216.745	24.1
217.21	22.91
217.675	21.72
218.14	20.72
218.604	19.83
219.069	19.18
219.534	18.59
219.998	18.02
220.463	17.52
220.927	17.06
221.392	16.78
221.856	16.52
222.32	16.24
222.785	16.03
223.249	15.82
223.713	15.63
224.177	15.46
224.642	15.24
225.106	15.04
225.57	14.84
226.034	14.68
226.497	14.49
226.961	14.31
227.425	14.12
227.889	13.92
228.353	13.75
228.816	13.57
229.28	13.37
229.744	13.22
230.207	13.06
230.671	12.9
231.134	12.72
231.597	12.58
232.061	12.42
232.524	12.27
232.987	12.13
233.45	12
233.914	11.84
234.377	11.67
234.84	11.53
235.303	11.41
235.766	11.29
236.229	11.16
236.691	11.03
237.154	10.92
237.617	10.8
238.08	10.69
238.542	10.56
239.005	10.46
239.468	10.36
239.93	10.25
240.393	10.15
240.855	10.03
241.317	9.92
241.78	9.81
242.242	9.71
242.704	9.61
243.166	9.51
243.629	9.43
244.091	9.32
244.553	9.23
245.015	9.14
245.477	9.04
245.939	8.95
246.4	8.87
246.862	8.79
247.324	8.71
247.786	8.62
248.247	8.54
248.709	8.45
249.17	8.37
249.632	8.3
250.093	8.22
250.555	8.15
251.016	8.08
251.477	8.01
251.939	7.94
252.4	7.88
252.861	7.81
253.322	7.75
253.783	7.68
254.244	7.63
254.705	7.56
255.166	7.51
255.627	7.45
256.088	7.4
256.549	7.35
257.009	7.29
257.47	7.23
257.931	7.18
258.391	7.12
258.852	7.06
259.312	7.01
259.773	6.97
260.233	6.93
260.694	6.88
261.154	6.83
261.614	6.77
262.074	6.72
262.534	6.68
262.994	6.64
263.455	6.61
263.915	6.58
264.374	6.54
264.834	6.51
265.294	6.47
265.754	6.44
266.214	6.41
266.673	6.39
267.133	6.36
267.593	6.34
268.052	6.32
268.512	6.3
268.971	6.27
269.431	6.25
269.89	6.21
270.349	6.19
270.809	6.16
271.268	6.14
271.727	6.11
272.186	6.08
272.645	6.06
273.104	6.03
273.563	6
274.022	5.98
274.481	5.95
274.94	5.93
275.399	5.9
275.857	5.88
276.316	5.85
276.775	5.83
277.233	5.81
277.692	5.78
278.15	5.76
278.609	5.74
279.067	5.71
279.525	5.69
279.984	5.66
280.442	5.64
280.9	5.62
281.358	5.6
281.816	5.57
282.274	5.55
282.732	5.53
283.19	5.5
283.648	5.48
284.106	5.46
284.564	5.44
285.021	5.42
285.479	5.41
285.937	5.39
286.394	5.37
286.852	5.35
287.309	5.33
287.767	5.3
288.224	5.28
288.682	5.25
289.139	5.22
289.596	5.19
290.053	5.16
290.511	5.12
290.968	5.1
291.425	5.06
291.882	5.04
292.339	5
292.796	4.98
293.252	4.96
293.709	4.94
294.166	4.93
294.623	4.91
295.079	4.89
295.536	4.87
295.992	4.85
296.449	4.84
296.905	4.82
297.362	4.8
297.818	4.79
298.274	4.77
298.731	4.75
299.187	4.73
299.643	4.71
300.099	4.7
300.555	4.68
301.011	4.66
301.467	4.64
301.923	4.62
302.379	4.61
302.835	4.59
303.291	4.58
303.746	4.56
304.202	4.55
304.658	4.53
305.113	4.52
305.569	4.5
306.024	4.48
306.479	4.47
306.935	4.45
307.39	4.45
307.845	4.43
308.301	4.42
308.756	4.41
309.211	4.4
309.666	4.4
310.121	4.39
310.576	4.38
311.031	4.38
311.486	4.37
311.94	4.36
312.395	4.35
312.85	4.35
313.305	4.34
313.759	4.33
314.214	4.31
314.668	4.3
315.123	4.29
315.577	4.28
316.032	4.27
316.486	4.26
316.94	4.24
317.394	4.22
317.849	4.21
318.303	4.19
318.757	4.16
319.211	4.15
319.665	4.13
320.119	4.11
320.572	4.09
321.026	4.08
321.48	4.06
321.934	4.04
322.387	4.03
322.841	4
323.295	3.99
323.748	3.98
324.202	3.97
324.655	3.96
325.108	3.95
325.562	3.95
326.015	3.93
326.468	3.93
326.921	3.92
327.374	3.91
327.827	3.91
328.28	3.9
328.733	3.9
329.186	3.89
329.639	3.88
330.092	3.87
330.545	3.87
330.997	3.86
331.45	3.85
331.903	3.85
332.355	3.85
332.808	3.84
333.26	3.84
333.713	3.83
334.165	3.82
334.617	3.82
335.069	3.81
335.522	3.81
335.974	3.81
336.426	3.8
336.878	3.8
337.33	3.79
337.782	3.78
338.234	3.78
338.686	3.77
339.137	3.77
339.589	3.76
340.041	3.75
340.493	3.74
340.944	3.72
341.396	3.7
341.847	3.68
342.299	3.66
342.75	3.65
343.201	3.63
343.653	3.61
344.104	3.59
344.555	3.57
345.006	3.55
345.457	3.54
345.908	3.52
346.359	3.52
346.81	3.51
347.261	3.5
347.712	3.49
348.163	3.47
348.613	3.47
349.064	3.47
349.515	3.46
349.965	3.46
350.416	3.46
350.866	3.46
351.317	3.44
351.767	3.44
352.217	3.43
352.668	3.42
353.118	3.42
353.568	3.42
354.018	3.41
354.468	3.41
354.918	3.41
355.368	3.41
355.818	3.41
356.268	3.4
356.718	3.39
357.168	3.38
357.617	3.38
358.067	3.37
358.517	3.38
358.966	3.38
359.416	3.37
359.865	3.36
360.315	3.36
360.764	3.35
361.213	3.35
361.663	3.35
362.112	3.35
362.561	3.35
363.01	3.35
363.459	3.33
363.908	3.32
364.357	3.32
364.806	3.3
365.255	3.3
365.703	3.31
366.152	3.31
366.601	3.31
367.05	3.32
367.498	3.31
367.947	3.3
368.395	3.3
368.844	3.3
369.292	3.29
369.74	3.29
370.189	3.28
370.637	3.28
371.085	3.26
371.533	3.25
371.981	3.24
372.429	3.23
372.877	3.23
373.325	3.23
373.773	3.22
374.221	3.22
374.669	3.21
375.116	3.21
375.564	3.2
376.012	3.19
376.459	3.19
376.907	3.19
377.354	3.19
377.801	3.18
378.249	3.17
378.696	3.17
379.143	3.16
379.591	3.16
380.038	3.16
380.485	3.16
380.932	3.16
381.379	3.16
381.826	3.16
382.273	3.16
382.72	3.15
383.166	3.15
383.613	3.15
384.06	3.15
384.506	3.15
384.953	3.15
385.4	3.15
385.846	3.16
386.292	3.15
386.739	3.15
387.185	3.15
387.631	3.16
388.078	3.16
388.524	3.16
388.97	3.17
389.416	3.18
389.862	3.18
390.308	3.2
390.754	3.21
391.2	3.22
391.645	3.23
392.091	3.24
392.537	3.26
392.983	3.26
393.428	3.27
393.874	3.27
394.319	3.28
394.765	3.29
395.21	3.28
395.655	3.29
396.101	3.3
396.546	3.3
396.991	3.32
397.436	3.32
397.881	3.35
398.326	3.37
398.771	3.38
399.216	3.39
399.661	3.41
400.106	3.43
400.551	3.43
400.995	3.44
401.44	3.45
401.885	3.45
402.329	3.47
402.774	3.47
403.218	3.49
403.663	3.5
404.107	3.51
404.551	3.52
404.995	3.52
405.44	3.53
405.884	3.55
406.328	3.57
406.772	3.56
407.216	3.57
407.66	3.57
408.104	3.56
408.547	3.57
408.991	3.57
409.435	3.58
409.879	3.59
410.322	3.61
410.766	3.62
411.209	3.64
411.653	3.66
412.096	3.67
412.54	3.68
412.983	3.7
413.426	3.73
413.869	3.74
414.312	3.77
414.756	3.79
415.199	3.78
415.642	3.79
416.085	3.8
416.527	3.79
416.97	3.79
417.413	3.8
417.856	3.8
418.298	3.79
418.741	3.78
419.184	3.77
419.626	3.76
420.069	3.78
420.511	3.78
420.953	3.78
421.396	3.79
421.838	3.81
422.28	3.81
422.722	3.84
423.164	3.84
423.606	3.85
424.048	3.85
424.49	3.86
424.932	3.84
425.374	3.83
425.816	3.81
426.258	3.8
426.699	3.79
427.141	3.78
427.582	3.77
428.024	3.78
428.465	3.78
428.907	3.77
429.348	3.77
429.789	3.76
430.231	3.78
430.672	3.8
431.113	3.82
431.554	3.83
431.995	3.84
432.436	3.85
432.877	3.85
433.318	3.87
433.759	3.9
434.2	3.92
434.64	3.93
435.081	3.94
435.522	3.95
435.962	3.95
436.403	3.99
436.843	4
437.284	4
437.724	4
438.164	3.99
438.604	3.99
439.045	3.99
439.485	4
439.925	4.01
440.365	4.02
440.805	4.03
441.245	4.02
441.685	4.03
442.125	4.04
442.564	4.04
443.004	4.06
443.444	4.06
443.883	4.07
444.323	4.08
444.762	4.09
445.202	4.09
445.641	4.1
446.081	4.1
446.52	4.08
446.959	4.11
447.398	4.13
447.837	4.12
448.276	4.13
448.716	4.13
449.154	4.14
449.593	4.15
450.032	4.16
450.471	4.15
450.91	4.15
451.349	4.17
451.787	4.16
452.226	4.15
452.664	4.17
453.103	4.16
453.541	4.16
453.98	4.16
454.418	4.15
454.856	4.14
455.295	4.13
455.733	4.1
456.171	4.08
456.609	4.08
457.047	4.06
457.485	4.03
457.923	4.03
458.361	4.01
458.798	4.01
459.236	4
459.674	3.98
460.111	3.98
460.549	3.99
460.987	4
461.424	4.01
461.862	4.02
462.299	4.04
462.736	4.04
463.173	4.05
463.611	4.05
464.048	4.05
464.485	4.07
464.922	4.07
465.359	4.06
465.796	4.07
466.233	4.06
466.67	4.06
467.106	4.06
467.543	4.06
467.98	4.05
468.416	4.04
468.853	4.04
469.29	4.02
469.726	4.04
470.162	4.04
470.599	4.03
471.035	4.02
471.471	4.02
471.907	4.01
472.344	4
472.78	4
473.216	4
473.652	4
474.088	3.99
474.523	3.98
474.959	3.98
475.395	3.96
475.831	3.95
476.266	3.95
476.702	3.95
477.138	3.93
477.573	3.93
478.008	3.92
478.444	3.91
478.879	3.91
479.314	3.9
479.75	3.89
480.185	3.88
480.62	3.87
481.055	3.86
481.49	3.85
481.925	3.85
482.36	3.85
482.795	3.84
483.229	3.84
483.664	3.83
484.099	3.83
484.534	3.82
484.968	3.82
485.403	3.82
485.837	3.83
486.271	3.84
486.706	3.84
487.14	3.84
487.574	3.85
488.009	3.86
488.443	3.87
488.877	3.88
489.311	3.9
489.745	3.91
490.179	3.93
490.613	3.95
491.046	3.96
491.48	3.99
491.914	4.01
492.348	4.02
492.781	4.05
493.215	4.08
493.648	4.11
494.082	4.14
494.515	4.17
494.948	4.19
495.382	4.23
495.815	4.27
496.248	4.31
496.681	4.35
497.114	4.4
497.547	4.44
497.98	4.49
498.413	4.54
498.846	4.6
499.279	4.65
499.711	4.71
500.144	4.77
500.577	4.83
501.009	4.89
501.442	4.96
501.874	5.05
502.306	5.12
502.739	5.21
503.171	5.3
503.603	5.39
504.036	5.5
504.468	5.6
504.9	5.7
505.332	5.82
505.764	5.94
506.196	6.05
506.627	6.17
507.059	6.31
507.491	6.43
507.923	6.57
508.354	6.72
508.786	6.87
509.217	7.04
509.649	7.2
510.08	7.36
510.512	7.54
510.943	7.71
511.374	7.88
511.805	8.08
512.237	8.27
512.668	8.47
513.099	8.67
513.53	8.87
513.961	9.08
514.391	9.3
514.822	9.52
515.253	9.74
515.684	9.97
516.114	10.19
516.545	10.41
516.975	10.64
517.406	10.87
517.836	11.1
518.267	11.34
518.697	11.57
519.127	11.79
519.558	12.03
519.988	12.26
520.418	12.49
520.848	12.72
521.278	12.95
521.708	13.32
522.138	13.55
522.567	13.76
522.997	13.97
523.427	14.18
523.857	14.38
524.286	14.59
524.716	14.78
525.145	14.97
525.575	15.17
526.004	15.36
526.433	15.4
526.863	15.57
527.292	15.75
527.721	15.9
528.15	16.05
528.579	16.19
529.008	16.33
529.437	16.47
529.866	16.6
530.295	16.73
530.724	16.83
531.152	16.95
531.581	17.05
532.01	17.15
532.438	17.26
532.867	17.35
533.295	17.44
533.723	17.51
534.152	17.57
534.58	17.64
535.008	17.71
535.436	17.78
535.865	17.83
536.293	17.86
536.721	17.9
537.149	17.94
537.576	17.97
538.004	18.02
538.432	18.05
538.86	18.08
539.287	18.11
539.715	18.15
540.143	18.18
540.57	18.2
540.998	18.23
541.425	18.27
541.852	18.31
542.28	18.34
542.707	18.37
543.134	18.4
543.561	18.43
543.988	18.46
544.415	18.47
544.842	18.48
545.269	18.51
545.696	18.53
546.123	18.55
546.549	18.56
546.976	18.57
547.403	18.59
547.829	18.6
548.256	18.61
548.682	18.62
549.108	18.63
549.535	18.64
549.961	18.65
550.387	18.65
550.813	18.63
551.24	18.62
551.666	18.62
552.092	18.6
552.518	18.6
552.943	18.58
553.369	18.57
553.795	18.54
554.221	18.51
554.646	18.48
555.072	18.45
555.498	18.41
555.923	18.38
556.349	18.33
556.774	18.27
557.199	18.2
557.625	18.14
558.05	18.07
558.475	18
558.9	17.93
559.325	17.86
559.75	17.77
560.175	17.7
560.6	17.6
561.025	17.5
561.449	17.41
561.874	17.31
562.299	17.21
562.723	17.09
563.148	16.98
563.572	16.86
563.997	16.73
564.421	16.6
564.846	16.46
565.27	16.34
565.694	16.22
566.118	16.08
566.542	15.95
566.966	15.81
567.39	15.68
567.814	15.55
568.238	15.41
568.662	15.28
569.086	15.16
569.509	15.04
569.933	14.9
570.357	14.77
570.78	14.66
571.204	14.53
571.627	14.42
572.05	14.3
572.474	14.19
572.897	14.09
573.32	13.99
573.743	13.87
574.166	13.75
574.589	13.66
575.012	13.55
575.435	13.45
575.858	13.36
576.281	13.26
576.704	13.17
577.126	13.08
577.549	12.98
577.972	12.89
578.394	12.82
578.817	12.75
579.239	12.66
579.661	12.58
580.084	12.51
580.506	12.43
580.928	12.35
581.35	12.27
581.772	12.2
582.194	12.13
582.616	12.06
583.038	12
583.46	11.92
583.882	11.86
584.303	11.8
584.725	11.74
585.147	11.69
585.568	11.64
585.99	11.58
586.411	11.52
586.833	11.46
587.254	11.39
587.675	11.34
588.096	11.29
588.518	11.24
588.939	11.2
589.36	11.16
589.781	11.12
590.202	11.08
590.623	11.05
591.043	11.02
591.464	10.98
591.885	10.95
592.305	10.9
592.726	10.89
593.147	10.86
593.567	10.82
593.987	10.78
594.408	10.75
594.828	10.71
595.248	10.68
595.669	10.65
596.089	10.62
596.509	10.59
596.929	10.57
597.349	10.54
597.769	10.51
598.189	10.48
598.608	10.46
599.028	10.43
599.448	10.4
599.867	10.37
600.287	10.34
600.706	10.31
601.126	10.28
601.545	10.25
601.965	10.21
602.384	10.17
602.803	10.14
603.222	10.09
603.641	10.05
604.061	10.02
604.48	9.98
604.898	9.93
605.317	9.88
605.736	9.83
606.155	9.78
606.574	9.72
606.992	9.66
607.411	9.62
607.829	9.53
608.248	9.46
608.666	9.4
609.085	9.34
609.503	9.27
609.921	9.22
610.339	9.15
610.758	9.1
611.176	9.04
611.594	8.98
612.012	8.91
612.43	8.88
612.847	8.82
613.265	8.76
613.683	8.71
614.101	8.65
614.518	8.59
614.936	8.53
615.353	8.47
615.771	8.41
616.188	8.36
616.606	8.32
617.023	8.27
617.44	8.24
617.857	8.19
618.274	8.14
618.691	8.1
619.108	8.06
619.525	8.02
619.942	8
620.359	7.97
620.776	7.94
621.192	7.91
621.609	7.9
622.026	7.86
622.442	7.84
622.859	7.82
623.275	7.82
623.691	7.81
624.108	7.81
624.524	7.79
624.94	7.76
625.356	7.75
625.772	7.74
626.188	7.72
626.604	7.71
627.02	7.71
627.436	7.7
627.852	7.68
628.268	7.67
628.683	7.65
629.099	7.64
629.514	7.62
629.93	7.62
630.345	7.6
630.761	7.58
631.176	7.56
631.591	7.52
632.007	7.49
632.422	7.45
632.837	7.4
633.252	7.35
633.667	7.31
634.082	7.26
634.497	7.2
634.911	7.13
635.326	7.08
635.741	7.01
636.155	6.94
636.57	6.87
636.984	6.81
637.399	6.74
637.813	6.67
638.228	6.58
638.642	6.5
639.056	6.42
639.47	6.35
639.884	6.27
640.298	6.19
640.712	6.1
641.126	6.02
641.54	5.93
641.954	5.86
642.368	5.78
642.781	5.71
643.195	5.63
643.609	5.56
644.022	5.48
644.436	5.42
644.849	5.35
645.262	5.28
645.676	5.22
646.089	5.17
646.502	5.12
646.915	5.08
647.328	5.04
647.741	5
648.154	4.95
648.567	4.93
648.98	4.9
649.393	4.88
649.805	4.85
650.218	4.82
650.631	4.8
651.043	4.78
651.456	4.76
651.868	4.73
652.28	4.71
652.693	4.69
653.105	4.66
653.517	4.63
653.929	4.59
654.341	4.57
654.753	4.54
655.165	4.51
655.577	4.47
655.989	4.43
656.401	4.39
656.813	4.35
657.224	4.3
657.636	4.26
658.047	4.22
658.459	4.17
658.87	4.12
659.282	4.07
659.693	4.03
660.104	3.97
660.515	3.92
660.926	3.89
661.338	3.84
661.749	3.8
662.159	3.76
662.57	3.72
662.981	3.68
663.392	3.65
663.803	3.61
664.213	3.58
664.624	3.56
665.035	3.53
665.445	3.51
665.855	3.49
666.266	3.48
666.676	3.46
667.086	3.44
667.497	3.43
667.907	3.43
668.317	3.42
668.727	3.42
669.137	3.42
669.547	3.41
669.956	3.41
670.366	3.41
670.776	3.4
671.186	3.41
671.595	3.42
672.005	3.42
672.414	3.42
672.824	3.42
673.233	3.43
673.642	3.44
674.052	3.46
674.461	3.47
674.87	3.48
675.279	3.52
675.688	3.53
676.097	3.55
676.506	3.57
676.915	3.6
677.323	3.64
677.732	3.66
678.141	3.69
678.549	3.71
678.958	3.75
679.366	3.79
679.775	3.81
680.183	3.85
680.592	3.91
681	3.96
681.408	4.02
681.816	4.06
682.224	4.12
682.632	4.19
683.04	4.26
683.448	4.34
683.856	4.42
684.264	4.52
684.671	4.63
685.079	4.73
685.487	4.87
685.894	5.02
686.302	5.19
686.709	5.36
687.116	5.55
687.524	5.77
687.931	6
688.338	6.25
688.745	6.52
689.152	6.81
689.559	7.12
689.966	7.43
690.373	7.76
690.78	8.12
691.187	8.5
691.593	8.9
692	9.3
692.407	9.72
692.813	10.15
693.22	10.59
693.626	11.05
694.032	11.52
694.439	12
694.845	12.49
695.251	12.97
695.657	13.45
696.063	13.93
696.469	14.43
696.875	14.94
697.281	15.44
697.687	15.95
698.093	16.44
698.498	16.92
698.904	17.4
699.31	17.88
699.715	18.37
700.12	18.86
700.526	19.36
700.931	19.85
701.337	20.32
701.742	20.78
702.147	21.26
702.552	21.74
702.957	22.2
703.362	22.66
703.767	23.12
704.172	23.57
704.577	24
704.981	24.44
705.386	24.84
705.791	25.27
706.195	25.71
706.6	26.11
707.004	26.53
707.408	26.95
707.813	27.36
708.217	27.77
708.621	28.17
709.025	28.57
709.43	28.95
709.834	29.35
710.237	29.72
710.641	30.09
711.045	30.47
711.449	30.83
711.853	31.2
712.256	31.52
712.66	31.86
713.064	32.2
713.467	32.56
713.87	32.87
714.274	33.19
714.677	33.53
715.08	33.85
715.484	34.15
715.887	34.46
716.29	34.75
716.693	35.06
717.096	35.37
717.499	35.65
717.901	35.92
718.304	36.22
718.707	36.49
719.109	36.75
719.512	36.99
719.915	37.26
720.317	37.48
720.719	37.71
721.122	37.95
721.524	38.16
721.926	38.39
722.328	38.62
722.731	38.81
723.133	39.03
723.535	39.24
723.937	39.46
724.338	39.65
724.74	39.86
725.142	40.12
725.544	40.27
725.945	40.48
726.347	40.61
726.748	40.77
727.15	40.91
727.551	41.08
727.952	41.21
728.354	41.34
728.755	41.47
729.156	41.6
729.557	41.66
729.958	41.81
730.359	41.91
730.76	42.07
731.161	42.19
731.562	42.32
731.962	42.39
732.363	42.5
732.763	42.62
733.164	42.72
733.564	42.82
733.965	42.9
734.365	43.01
734.766	43.1
735.166	43.17
735.566	43.24
735.966	43.32
736.366	43.41
736.766	43.47
737.166	43.53
737.566	43.62
737.966	43.68
738.365	43.75
738.765	43.81
739.165	43.88
739.564	43.93
739.964	43.99
740.363	44.04
740.763	44.1
741.162	44.14
741.561	44.17
741.96	44.19
742.36	44.24
742.759	44.28
743.158	44.32
743.557	44.33
743.955	44.37
744.354	44.41
744.753	44.46
745.152	44.49
745.55	44.52
745.949	44.55
746.348	44.58
746.746	44.59
747.144	44.64
747.543	44.64
747.941	44.67
748.339	44.66
748.737	44.67
749.136	44.66
749.534	44.65
749.932	44.67
750.33	44.69
750.727	44.72
751.125	44.74
751.523	44.71
751.921	44.72
752.318	44.73
752.716	44.77
753.113	44.77
753.511	44.79
753.908	44.83
754.305	44.86
754.703	44.85
755.1	44.87
755.497	44.87
755.894	44.88
756.291	44.9
756.688	44.88
757.085	44.89
757.482	44.89
757.878	44.92
758.275	44.91
758.672	44.91
759.068	44.94
759.465	44.94
759.861	44.95
760.258	44.97
760.654	44.96
761.05	44.99
761.447	45.02
761.843	45.04
762.239	45.02
762.635	45.03
763.031	45.02
763.427	44.99
763.822	44.99
764.218	45
764.614	44.99
765.01	44.98
765.405	44.97
765.801	44.92
766.196	44.89
766.592	44.9
766.987	44.91
767.382	44.9
767.778	44.91
768.173	44.91
768.568	44.87
768.963	44.89
769.358	44.91
769.753	44.91
770.148	44.92
770.542	44.92
770.937	44.91
771.332	44.89
771.726	44.9
772.121	44.88
772.515	44.88
772.91	44.89
773.304	44.89
773.699	44.89
774.093	44.9
774.487	44.9
774.881	44.92
775.275	44.94
775.669	44.95
776.063	44.95
776.457	44.98
776.851	44.96
777.245	44.92
777.638	44.89
778.032	44.89
778.425	44.9
778.819	44.89
779.212	44.93
779.606	44.92
779.999	44.92
780.392	44.92
780.786	44.89
781.179	44.93
781.572	44.98
781.965	45
782.358	44.99
782.751	44.96
783.143	44.96
783.536	44.89
783.929	44.86
784.322	44.89
784.714	44.9
785.107	44.91
785.499	44.89
785.891	44.88
786.284	44.89
786.676	44.91
787.068	44.92
787.46	44.91
787.852	44.94
788.245	44.95
788.636	44.91
789.028	44.89
789.42	44.88
789.812	44.91
790.204	44.91
790.595	44.9
790.987	44.88
791.378	44.87
791.77	44.88
792.161	44.87
792.553	44.88
792.944	44.89
793.335	44.9
793.726	44.94
794.117	44.89
794.508	44.86
794.899	44.87
795.29	44.88
795.681	44.87
796.072	44.88
796.463	44.9
796.853	44.88
797.244	44.87
797.634	44.86
798.025	44.87
798.415	44.9
798.806	44.89
799.196	44.87
799.586	44.85
799.976	44.87
800.366	44.86
800.756	44.85
801.146	44.87
801.536	44.89
801.926	44.9
802.316	44.9
802.706	44.9
803.095	44.91
803.485	44.9
803.874	44.92
804.264	44.92
804.653	44.92
805.043	44.91
805.432	44.9
805.821	44.89
806.21	44.88
806.599	44.84
806.988	44.83
807.377	44.85
807.766	44.85
808.155	44.83
808.544	44.81
808.933	44.8
809.321	44.79
809.71	44.78
810.098	44.77
810.487	44.77
810.875	44.78
811.264	44.79
811.652	44.76
812.04	44.75
812.428	44.79
812.816	44.78
813.204	44.78
813.592	44.79
813.98	44.81
814.368	44.82
814.756	44.8
815.144	44.8
815.531	44.79
815.919	44.78
816.306	44.79
816.694	44.75
817.081	44.76
817.469	44.78
817.856	44.76
818.243	44.71
818.63	44.71
819.017	44.71
819.404	44.69
819.791	44.68
820.178	44.69
820.565	44.65
820.952	44.66
821.339	44.64
821.725	44.63
822.112	44.64
822.498	44.68
822.885	44.67
823.271	44.68
823.657	44.64
824.044	44.63
824.43	44.64
824.816	44.65
825.202	44.64
825.588	44.65
825.974	44.65
826.36	44.63
826.746	44.59
827.132	44.61
827.517	44.61
827.903	44.66
828.289	44.68
828.674	44.66
829.06	44.66
829.445	44.65
829.83	44.64
830.216	44.62
830.601	44.63
830.986	44.66
831.371	44.62
831.756	44.62
832.141	44.61
832.526	44.6
832.911	44.62
833.295	44.63
833.68	44.63
834.065	44.64
834.449	44.66
834.834	44.67
835.218	44.66
835.603	44.68
835.987	44.67
836.371	44.67
836.755	44.65
837.139	44.63
837.524	44.63
837.908	44.66
838.291	44.67
838.675	44.64
839.059	44.63
839.443	44.6
839.827	44.59
840.21	44.59
840.594	44.6
840.977	44.61
841.361	44.62
841.744	44.61
842.127	44.58
842.511	44.58
842.894	44.6
843.277	44.61
843.66	44.61
844.043	44.61
844.426	44.64
844.809	44.63
845.191	44.64
845.574	44.64
845.957	44.67
846.339	44.67
846.722	44.68
847.104	44.68
847.487	44.69
847.869	44.69
848.252	44.69
848.634	44.68
849.016	44.7
849.398	44.71
849.78	44.72
850.162	44.71
850.544	44.72
850.926	44.71
851.307	44.72
851.689	44.7
852.071	44.73
852.452	44.75
852.834	44.74
853.215	44.73
853.597	44.72
853.978	44.72
854.359	44.72
854.741	44.71
855.122	44.68
855.503	44.66
855.884	44.65
856.265	44.63
856.646	44.6
857.026	44.61
857.407	44.61
857.788	44.6
858.169	44.62
858.549	44.62
858.93	44.62
859.31	44.64
859.69	44.65
860.071	44.67
860.451	44.67
860.831	44.68
861.211	44.64
861.591	44.62
861.971	44.59
862.351	44.59
862.731	44.57
863.111	44.57
863.491	44.55
863.87	44.54
864.25	44.53
864.629	44.52
865.009	44.52
865.388	44.52
865.768	44.51
866.147	44.52
866.526	44.51
866.905	44.51
867.284	44.53
867.663	44.54
868.042	44.54
868.421	44.55
868.8	44.55
869.179	44.55
869.558	44.56
869.936	44.57
870.315	44.58
870.693	44.59
871.072	44.58
871.45	44.57
871.828	44.58
872.207	44.59
872.585	44.58
872.963	44.59
873.341	44.58
873.719	44.58
874.097	44.58
874.475	44.6
874.853	44.58
875.23	44.6
875.608	44.6
875.986	44.62
876.363	44.61
876.741	44.62
877.118	44.63
877.495	44.64
877.873	44.65
878.25	44.67
878.627	44.68
879.004	44.68
879.381	44.67
879.758	44.64
880.135	44.62
880.512	44.6
880.889	44.59
881.265	44.57
881.642	44.58
882.019	44.61
882.395	44.59
882.772	44.57
883.148	44.56
883.524	44.55
883.901	44.57
884.277	44.59
884.653	44.57
885.029	44.57
885.405	44.57
885.781	44.58
886.157	44.55
886.532	44.57
886.908	44.57
887.284	44.58
887.659	44.57
888.035	44.56
888.411	44.54
888.786	44.57
889.161	44.59
889.537	44.59
889.912	44.57
890.287	44.57
890.662	44.55
891.037	44.55
891.412	44.53
891.787	44.54
892.162	44.54
892.536	44.54
892.911	44.54
893.286	44.52
893.66	44.52
894.035	44.52
894.409	44.49
894.784	44.5
895.158	44.51
895.532	44.53
895.906	44.51
896.281	44.52
896.655	44.53
897.029	44.54
897.402	44.54
897.776	44.54
898.15	44.55
898.524	44.59
898.898	44.59
899.271	44.59
899.645	44.59
900.018	44.63
900.392	44.61
900.765	44.62
901.138	44.59
901.511	44.6
901.884	44.62
902.258	44.62
902.631	44.6
903.003	44.6
903.376	44.6
903.749	44.6
904.122	44.59
904.495	44.61
904.867	44.58
905.24	44.61
905.612	44.61
905.985	44.59
906.357	44.58
906.729	44.58
907.102	44.59
907.474	44.61
907.846	44.6
908.218	44.61
908.59	44.61
908.962	44.62
909.334	44.63
909.705	44.64
910.077	44.65
910.449	44.64
910.82	44.66
911.192	44.66
911.563	44.62
911.935	44.61
912.306	44.62
912.677	44.63
913.048	44.63
913.419	44.58
913.79	44.59
914.161	44.59
914.532	44.61
914.903	44.59
915.274	44.61
915.645	44.64
916.015	44.66
916.386	44.64
916.756	44.65
917.127	44.67
917.497	44.72
917.868	44.71
918.238	44.69
918.608	44.7
918.978	44.71
919.348	44.71
919.718	44.67
920.088	44.66
920.458	44.67
920.828	44.62
921.198	44.59
921.567	44.56
921.937	44.54
922.306	44.53
922.676	44.5
923.045	44.49
923.415	44.48
923.784	44.5
924.153	44.49
924.522	44.5
924.891	44.5
925.26	44.51
925.629	44.54
925.998	44.56
926.367	44.58
926.736	44.6
927.104	44.6
927.473	44.57
927.842	44.57
928.21	44.58
928.578	44.56
928.947	44.56
929.315	44.52
929.683	44.49
930.051	44.46
930.42	44.46
930.788	44.43
931.156	44.42
931.523	44.44
931.891	44.47
932.259	44.48
932.627	44.49
932.994	44.5
933.362	44.5
933.729	44.54
934.097	44.55
934.464	44.56
934.831	44.57
935.199	44.62
935.566	44.59
935.933	44.54
936.3	44.5
936.667	44.48
937.034	44.48
937.401	44.49
937.767	44.44
938.134	44.43
938.501	44.43
938.867	44.45
939.234	44.39
939.6	44.38
939.967	44.4
940.333	44.38
940.699	44.4
941.065	44.39
941.431	44.41
941.798	44.37
942.163	44.3
942.529	44.26
942.895	44.23
943.261	44.22
943.627	44.2
943.992	44.18
944.358	44.17
944.723	44.14
945.089	44.06
945.454	43.99
945.82	44.06
946.185	44.11
946.55	44.06
946.915	44.01
947.28	43.95
947.645	43.97
948.01	43.96
948.375	43.95
948.74	43.88
949.104	43.96
949.469	43.94
949.834	43.84
950.198	43.82
950.562	43.85
950.927	43.84
951.291	43.84
951.655	43.76
952.02	43.76
952.384	43.76
952.748	43.82
953.112	43.76
953.476	43.75
953.839	43.73
954.203	43.74
954.567	43.71
954.931	43.71
955.294	43.71
955.658	43.79
956.021	43.74
956.385	43.71
956.748	43.69
957.111	43.67
957.474	43.71
957.837	43.72
958.2	43.68
958.563	43.72
958.926	43.71
959.289	43.67
959.652	43.64
960.015	43.67
960.377	43.65
960.74	43.67
961.102	43.72
961.465	43.71
961.827	43.74
962.189	43.77
962.552	43.69
962.914	43.71
963.276	43.74
963.638	43.73
964	43.74
964.362	43.74
964.724	43.72
965.085	43.7
965.447	43.66
965.809	43.63
966.17	43.64
966.532	43.67
966.893	43.64
967.255	43.64
967.616	43.64
967.977	43.69
968.338	43.74
968.699	43.73
969.061	43.72
969.421	43.77
969.782	43.81
970.143	43.81
970.504	43.86
970.865	43.9
971.225	43.86
971.586	43.88
971.946	43.85
972.307	43.81
972.667	43.81
973.027	43.84
973.388	43.86
973.748	43.82
974.108	43.86
974.468	43.78
974.828	43.8
975.188	43.83
975.548	43.82
975.907	43.86
976.267	43.9
976.627	43.91
976.986	43.9
977.346	43.82
977.705	43.83
978.064	43.8
978.424	43.86
978.783	43.8
979.142	43.84
979.501	43.87
979.86	43.85
980.219	43.81
980.578	43.8
980.937	43.8
981.296	43.84
981.654	43.86
982.013	43.89
982.371	43.86
982.73	43.9
983.088	43.86
983.447	43.85
983.805	43.85
984.163	43.89
984.521	43.87
984.879	43.88
985.237	43.87
985.595	43.91
985.953	43.84
986.311	43.77
986.669	43.78
987.026	43.8
987.384	43.84
987.741	43.81
988.099	43.84
988.456	43.85
988.814	43.84
989.171	43.86
989.528	43.81
989.885	43.84
990.242	43.98
990.599	43.97
990.956	43.96
991.313	43.92
991.67	43.95
992.027	44.02
992.383	44.07
992.74	44.11
993.096	44.2
993.453	44.2
993.809	44.21
994.165	44.15
994.522	44.18
994.878	44.24
995.234	44.27
995.59	44.25
995.946	44.21
996.302	44.29
996.658	44.32
997.013	44.21
997.369	44.21
997.725	44.33
998.08	44.37
998.436	44.35
998.791	44.34
999.147	44.31
999.502	44.36
999.857	44.29
1000.212	44.23
1000.567	44.19
1000.922	44.23
1001.277	44.15
1001.632	44.08
1001.987	44.04
1002.342	44.06
1002.696	43.98
1003.051	44.06
1003.406	44.13
1003.76	44.1
1004.114	44.05
1004.469	44.11
1004.823	44.38
1005.177	44.53
1005.531	44.51
1005.885	44.5
1006.239	44.44
1006.593	44.51
1006.947	44.46
1007.301	44.32
1007.655	44.38
1008.008	44.43
1008.362	44.46
1008.715	44.24
1009.069	44.27
1009.422	44.27
1009.776	44.28
1010.129	44.36
1010.482	44.27
1010.835	44.36
1011.188	44.36
1011.541	44.29
1011.894	44.41
1012.247	44.37
1012.6	44.4
1012.952	44.3
1013.305	44.38
1013.657	44.47
1014.01	44.54
1014.362	44.66
1014.715	44.67
1015.067	44.89
1015.419	45.02
1015.771	44.89
1016.123	44.98
1016.475	45.05
1016.827	45.09
1017.179	45.08
1017.531	45.07
1017.883	44.97
1018.234	45.09
1018.586	45.07
1018.938	45.11
1019.289	45.18
1019.64	45.26
1019.992	45.25
1020.343	45.19
1020.694	45.32
1021.045	45.33
1021.396	45.41
1021.747	45.59
1022.098	45.64
1022.449	45.57
1022.8	45.29
1023.151	45.32
1023.501	45.27
1023.852	44.97
1024.202	44.84
1024.553	44.92
1024.903	44.94
1025.253	45.15
1025.604	44.85
1025.954	44.47
1026.304	44.75
1026.654	44.99
1027.004	44.46
1027.354	44.43
1027.703	44.5
1028.053	44.72
1028.403	44.77
1028.753	44.42
1029.102	44.27
1029.452	44.62
1029.801	44.98
1030.15	44.71
1030.499	44.6
897.758	1062.13
901.051	1067.41
904.343	1066.52
907.636	1085.69
910.928	1055.3
914.22	1057.84
917.511	1043.48
920.803	995.85
924.094	990.23
927.384	967.16
930.675	926.37
933.965	923.4
937.255	868.87
940.544	833.3
943.834	792.89
947.123	787.46
950.411	741.53
953.7	727.34
956.988	691.51
960.276	665.67
963.563	655.4
966.851	633.33
970.138	627.97
973.424	609.45
976.711	612.24
979.997	583.33
983.283	578.88
986.568	566.34
989.853	549.35
993.138	537.35
996.423	517.36
999.708	501.73
1002.992	494.87
1006.275	474.14
1009.559	469.37
1012.842	452.81
1016.125	441.61
1019.408	433.89
1022.69	427.1
1025.972	418.44
1029.254	409.79
1032.536	402.96
1035.817	393.92
1039.098	390.96
1042.379	382.06
1045.659	378.63
1048.939	368.96
1052.219	360.6
1055.498	356.43
1058.778	348.52
1062.057	341.64
1065.335	338.29
1068.614	334.2
1071.892	331.08
1075.17	320.62
1078.447	314.42
1081.724	311.38
1085.001	310.32
1088.278	303.75
1091.554	297.5
1094.83	297.11
1098.106	294.46
1101.382	292.2
1104.657	290.2
1107.932	285.58
1111.206	288.02
1114.481	280.76
1117.755	278.42
1121.029	275.16
1124.302	275.19
1127.575	269.66
1130.848	266.89
1134.121	263.99
1137.393	262.41
1140.665	256.6
1143.937	255.41
1147.208	252.47
1150.48	252.05
1153.75	248.98
1157.021	246.14
1160.291	246.29
1163.561	244.12
1166.831	244
1170.101	241.95
1173.37	241.75
1176.639	242.61
1179.907	239.8
1183.176	237.14
1186.444	237.38
1189.711	236.95
1192.979	235.82
1196.246	234.15
1199.513	234.89
1202.78	233.65
1206.046	233.54
1209.312	231.28
1212.578	230.94
1215.843	233.15
1219.108	231.99
1222.373	236.43
1225.638	237.89
1228.902	240.68
1232.166	242.18
1235.43	243.16
1238.693	246.51
1241.956	247.79
1245.219	251.41
1248.482	251.86
1251.744	251.87
1255.006	251.91
1258.268	246.25
1261.529	244.26
1264.79	243.42
1268.051	241.53
1271.312	238.75
1274.572	236.03
1277.832	234.05
1281.092	230.04
1284.351	228.64
1287.61	228.56
1290.869	224.8
1294.128	223.16
1297.386	223.47
1300.644	220.68
1303.902	220.98
1307.159	220.84
1310.416	220.49
1313.673	219.48
1316.93	222.39
1320.186	221.86
1323.442	222.74
1326.697	226.35
1329.953	227.38
1333.208	227.28
1336.463	230.33
1339.717	230.52
1342.972	232.99
1346.226	234.87
1349.479	236.27
1352.733	236.63
1355.986	238.2
1359.238	237.23
1362.491	239.4
1365.743	240.95
1368.995	240.88
1372.247	240.13
1375.498	239.91
1378.749	242.04
1382	239.53
1385.251	239.43
1388.501	237.83
1391.751	238.1
1395	237.21
1398.25	235.11
1401.499	233.32
1404.748	233.44
1407.996	232.5
1411.244	231.24
1414.492	228.53
1417.74	226.28
1420.987	223.93
1424.234	222.67
1427.481	220.16
1430.728	220.35
1433.974	218.6
1437.22	216.48
1440.465	215.52
1443.711	212.37
1446.956	210.94
1450.201	209.63
1453.445	207.06
1456.689	205.56
1459.933	202.84
1463.177	200.94
1466.42	197.44
1469.663	194.92
1472.906	193.64
1476.148	189.92
1479.391	187.7
1482.633	186.49
1485.874	183.33
1489.115	182.58
1492.356	180.44
1495.597	179.88
1498.838	177.53
1502.078	176.92
1505.318	176.15
1508.557	176.47
1511.797	175.63
1515.036	175.31
1518.274	173.91
1521.513	172.81
1524.751	172.66
1527.989	172.24
1531.227	171.73
1534.464	171.52
1537.701	170.49
1540.938	170.33
1544.174	167.92
1547.41	167.84
1550.646	166.79
1553.882	167.42
1557.117	165.1
1560.352	164.06
1563.587	163.81
1566.821	162.7
1570.055	161.43
1573.289	160.63
1576.523	160.09
1579.756	159.37
1582.989	158.47
1586.222	157.93
1589.454	156.91
1592.686	158.15
1595.918	157.22
1599.15	156.63
1602.381	157.2
1605.612	157.37
1608.843	157.48
1612.073	157.58
1615.303	158.24
1618.533	158
1621.762	158.22
1624.992	159.08
1628.221	158.34
1631.449	158.39
1634.678	158.54
1637.906	158.76
1641.134	158.53
1644.361	158.53
1647.588	158.59
1650.815	157.99
1654.042	157.83
1657.269	158.79
1660.495	158.28
1663.72	158.91
1666.946	159.6
1670.171	159.84
1673.396	159.65
1676.621	160.13
1679.845	160
1683.069	160.08
1686.293	161.11
1689.517	162.05
1692.74	161.41
1695.963	161.68
1699.185	162.38
1702.408	162.35
1705.63	163.03
1708.852	163.51
1712.073	163.26
1715.294	163.89
1718.515	164.61
1721.736	164.15
1724.956	164.46
1728.176	164.9
1731.396	166.03
1734.616	165.29
1737.835	166.37
1741.054	164.62
1744.272	165.45
1747.491	166.91
1750.709	167.26
1753.927	167.38
1757.144	167.23
1760.361	167.57
1763.578	168.03
1766.795	167.46
1770.011	168.83
1773.227	168.81
1776.443	171
1779.658	171.16
1782.874	170.64
1786.089	171.01
1789.303	171.37
1792.518	173.32
1795.732	173.59
1798.945	174.58
1802.159	175.27
1805.372	175.8
1808.585	178.27
1811.797	178.64
1815.01	179.21
1818.222	180.6
1821.434	182.13
1824.645	182.67
1827.856	185.57
1831.067	186.35
1834.278	186.13
1837.488	187.68
1840.698	188.45
1843.908	186.85
1847.117	188.19
1850.326	188.64
1853.535	188.1
1856.744	190.72
1859.952	190.49
1863.16	188.88
1866.368	187.99
1869.575	189.6
1872.782	186.38
1875.989	185.87
1879.196	184.83
1882.402	183.37
1885.608	183.99
1888.814	184.49
1892.019	183.41
1895.224	182.88
1898.429	182.5
1901.634	182.82
1904.838	182.29
1908.042	184.38
1911.246	185.07
1914.449	186.35
1917.652	186.67
1920.855	186.14
1924.058	185.99
1927.26	184.92
1930.462	185.36
1933.664	187.06
1936.865	185.99
1940.066	186.04
1943.267	184.75
1946.467	183.47
1949.668	184.8
1952.868	186.42
1956.067	186.54
1959.267	187.19
1962.466	187.68
1965.665	186.67
1968.863	186.8
1972.061	189.43
1975.259	191.63
1978.457	193.4
1981.654	196.2
1984.852	196.4
1988.048	196.07
1991.245	197.87
1994.441	199.91
1997.637	201.87
2000.833	205.91
2004.028	208.92
2007.223	209.93
2010.418	211.45
2013.613	215.29
2016.807	217.43
2020.001	220.16
2023.194	223.05
2026.388	228.95
2029.581	233.9
2032.774	235.29
2035.966	239.51
2039.158	239.6
2042.35	245.37
2045.542	246.54
2048.733	250.11
2051.924	253.2
2055.115	257.35
2058.306	258.81
2061.496	260.18
2064.686	260.51
2067.875	264.14
2071.065	267.07
2074.254	265.68
2077.442	268.08
2080.631	270.44
2083.819	272.84
2087.007	273.28
2090.195	276.14
2093.382	278.19
2096.569	276.55
2099.756	281.26
2102.942	283.33
2106.128	284.8
2109.314	291.45
2112.5	290.75
2115.685	297.01
2118.87	296.98
2122.055	303.41
2125.239	304.72
2128.424	309.3
2131.608	311.92
2134.791	314.6
2137.974	316.24
2141.157	316.86
2144.34	317.48
2147.523	322.71
2150.705	319.98
2153.887	324.55
2157.068	324.82
2160.25	321.81
2163.431	322.4
2166.611	326.55
2169.792	331.96
2172.972	335.78
2176.152	338.13
2179.331	342.48
2182.511	346.47
2185.69	350.25
2188.868	357.02
2192.047	357.78
2195.225	368.38
2198.403	376.74
2201.58	383.02
2204.758	390.75
2207.935	398.1
2211.111	405.97
2214.288	411
2217.464	413.7
2220.64	420.48
2223.815	424.09
2226.991	441.71
2230.166	441.94
2233.34	450.25
2236.515	457.31
2239.689	458
2242.863	460.24
2246.036	471.84
2249.209	469
2252.382	476.22
2255.555	491.08
2258.727	493.14
2261.9	496.13
2265.071	501.51
2268.243	510.45
2271.414	516.74
2274.585	528.05
2277.756	533.8
2280.926	537.69
2284.096	551.96
2287.266	562.89
2290.436	565.61
2293.605	577.9
2296.774	594.14
2299.942	612.71
2303.111	617.11
2306.279	629.38
2309.447	636.52
2312.614	654.12
2315.781	673.25
2318.948	699.87
2322.115	691.69
2325.281	728.27
2328.447	716.34
2331.613	745.06
2334.779	737.76
2337.944	769.93
2341.109	778.18
2344.274	801.79
2347.438	827.06
2350.602	826.13
2353.766	851.74
2356.929	866.56
2360.092	860.53
2363.255	919.78
2366.418	918.27
2369.58	934.91
2372.742	985.85
2375.904	1012.56
2379.066	1007.23
2382.227	988.78
2385.388	1077.59
2388.548	1076.95
2391.709	1085.23
2394.869	1213.17
2398.029	1162.03
2401.188	1195.54
2404.347	1190.94
2407.506	1174.14
2410.665	1205.37
2413.823	1277.45
2416.981	1355.71
2420.139	1303.82
2423.296	1293.41
2426.453	1356.82
2429.61	1301.39
2432.767	1362.31
2435.923	1346.86
2439.079	1468.92
2442.235	1490.82
2445.391	1476.59
2448.546	1465
2451.701	1419.58
2454.855	1423.57
2458.009	1508.05
2461.163	1569.55
2464.317	1625.78
2467.471	1668.92
2470.624	1671.22
2473.777	1627.47
2476.929	1587.46
2480.082	1542.88
2483.234	1526.38
2486.385	1610.22
2489.537	1616.32
2492.688	1674.21
2495.839	1621.42
2498.989	1588.07
2502.14	1596.74
2505.29	1608.96
2508.439	1638.74
2511.589	1634.34
2514.738	1781.33
2517.887	1742.69
2521.035	1828.75
2524.183	1846.25
2527.331	1862.13
2530.479	1855.93
2533.627	1869.53
