Data from C_1_DIV_WI_4N_Splice17_12-54-32-746.txt Node
Date: Sat Mar 07 12:54:32 EST 2020
User: sa697716
Spectrometer: NQ5500242
Trigger mode: 0
Integration Time (sec): 1.450000E-1
Scans to average: 20
Nonlinearity correction enabled: false
Boxcar width: 5
Storing dark spectrum: false
XAxis mode: Wavelengths
Number of Pixels in Spectrum: 512
>>>>>Begin Spectral Data<<<<<
187.83	53.67
188.298	58.57
188.766	34.4
189.233	40.93
189.701	35.93
190.169	57.96
190.636	7.17
191.104	-49.31
191.571	-391.45
192.039	-189.11
192.506	-552.24
192.974	144.89
193.441	135.65
193.908	16.66
194.375	39.92
194.842	-37.42
195.31	64.8
195.777	49.19
196.244	35.94
196.711	27.13
197.177	29
197.644	28.71
198.111	27.8
198.578	28.07
199.045	28.15
199.511	28.11
199.978	28.21
200.445	27.88
200.911	27.64
201.378	27.78
201.844	27.85
202.31	28.06
202.777	28.25
203.243	28.54
203.709	28.66
204.176	28.34
204.642	28.31
205.108	28.82
205.574	28.72
206.04	28.54
206.506	28.14
206.972	28.42
207.438	28.09
207.903	27.8
208.369	27.25
208.835	26.74
209.301	26.76
209.766	26.25
210.232	25.55
210.697	25.41
211.163	25.24
211.628	25
212.094	24.42
212.559	24.25
213.024	23.87
213.49	23.76
213.955	23.44
214.42	23.08
214.885	22.81
215.35	22.58
215.815	21.95
216.28	21.16
216.745	20.43
217.21	19.7
217.675	18.95
218.14	18.41
218.604	17.85
219.069	17.46
219.534	17.12
219.998	16.75
220.463	16.43
220.927	16.11
221.392	15.87
221.856	15.66
222.32	15.47
222.785	15.3
223.249	15.1
223.713	14.93
224.177	14.74
224.642	14.56
225.106	14.4
225.57	14.2
226.034	14.07
226.497	13.91
226.961	13.74
227.425	13.58
227.889	13.42
228.353	13.26
228.816	13.09
229.28	12.93
229.744	12.78
230.207	12.61
230.671	12.47
231.134	12.31
231.597	12.19
232.061	12.03
232.524	11.88
232.987	11.74
233.45	11.62
233.914	11.5
234.377	11.36
234.84	11.22
235.303	11.11
235.766	10.99
236.229	10.88
236.691	10.74
237.154	10.64
237.617	10.53
238.08	10.41
238.542	10.28
239.005	10.18
239.468	10.07
239.93	9.96
240.393	9.86
240.855	9.73
241.317	9.62
241.78	9.52
242.242	9.41
242.704	9.33
243.166	9.24
243.629	9.16
244.091	9.06
244.553	8.97
245.015	8.88
245.477	8.8
245.939	8.73
246.4	8.64
246.862	8.56
247.324	8.47
247.786	8.38
248.247	8.28
248.709	8.19
249.17	8.11
249.632	8.04
250.093	7.97
250.555	7.89
251.016	7.82
251.477	7.76
251.939	7.7
252.4	7.63
252.861	7.57
253.322	7.53
253.783	7.47
254.244	7.42
254.705	7.35
255.166	7.29
255.627	7.23
256.088	7.18
256.549	7.13
257.009	7.07
257.47	7.02
257.931	6.96
258.391	6.9
258.852	6.85
259.312	6.8
259.773	6.75
260.233	6.7
260.694	6.66
261.154	6.6
261.614	6.56
262.074	6.52
262.534	6.47
262.994	6.43
263.455	6.4
263.915	6.37
264.374	6.33
264.834	6.3
265.294	6.26
265.754	6.24
266.214	6.21
266.673	6.19
267.133	6.16
267.593	6.14
268.052	6.11
268.512	6.1
268.971	6.07
269.431	6.05
269.89	6.02
270.349	6
270.809	5.97
271.268	5.95
271.727	5.93
272.186	5.91
272.645	5.89
273.104	5.86
273.563	5.83
274.022	5.81
274.481	5.79
274.94	5.77
275.399	5.74
275.857	5.72
276.316	5.69
276.775	5.67
277.233	5.64
277.692	5.61
278.15	5.59
278.609	5.57
279.067	5.55
279.525	5.53
279.984	5.51
280.442	5.48
280.9	5.46
281.358	5.44
281.816	5.42
282.274	5.4
282.732	5.37
283.19	5.35
283.648	5.32
284.106	5.29
284.564	5.27
285.021	5.25
285.479	5.23
285.937	5.21
286.394	5.19
286.852	5.17
287.309	5.15
287.767	5.12
288.224	5.09
288.682	5.07
289.139	5.03
289.596	5
290.053	4.97
290.511	4.93
290.968	4.91
291.425	4.88
291.882	4.85
292.339	4.82
292.796	4.81
293.252	4.79
293.709	4.77
294.166	4.75
294.623	4.74
295.079	4.72
295.536	4.71
295.992	4.7
296.449	4.68
296.905	4.66
297.362	4.64
297.818	4.62
298.274	4.61
298.731	4.58
299.187	4.57
299.643	4.54
300.099	4.53
300.555	4.51
301.011	4.48
301.467	4.46
301.923	4.44
302.379	4.43
302.835	4.41
303.291	4.39
303.746	4.38
304.202	4.37
304.658	4.35
305.113	4.34
305.569	4.34
306.024	4.32
306.479	4.3
306.935	4.3
307.39	4.28
307.845	4.27
308.301	4.26
308.756	4.25
309.211	4.23
309.666	4.23
310.121	4.22
310.576	4.21
311.031	4.2
311.486	4.19
311.94	4.18
312.395	4.17
312.85	4.16
313.305	4.15
313.759	4.14
314.214	4.13
314.668	4.11
315.123	4.1
315.577	4.08
316.032	4.07
316.486	4.05
316.94	4.04
317.394	4.02
317.849	4
318.303	3.98
318.757	3.97
319.211	3.96
319.665	3.94
320.119	3.92
320.572	3.91
321.026	3.89
321.48	3.88
321.934	3.86
322.387	3.85
322.841	3.84
323.295	3.83
323.748	3.81
324.202	3.79
324.655	3.78
325.108	3.78
325.562	3.77
326.015	3.76
326.468	3.76
326.921	3.75
327.374	3.74
327.827	3.74
328.28	3.73
328.733	3.72
329.186	3.72
329.639	3.71
330.092	3.7
330.545	3.69
330.997	3.68
331.45	3.67
331.903	3.67
332.355	3.67
332.808	3.67
333.26	3.66
333.713	3.66
334.165	3.65
334.617	3.65
335.069	3.64
335.522	3.64
335.974	3.65
336.426	3.64
336.878	3.62
337.33	3.62
337.782	3.61
338.234	3.61
338.686	3.6
339.137	3.6
339.589	3.59
340.041	3.59
340.493	3.57
340.944	3.56
341.396	3.54
341.847	3.53
342.299	3.51
342.75	3.49
343.201	3.46
343.653	3.45
344.104	3.43
344.555	3.41
345.006	3.4
345.457	3.39
345.908	3.38
346.359	3.38
346.81	3.37
347.261	3.36
347.712	3.35
348.163	3.34
348.613	3.34
349.064	3.34
349.515	3.32
349.965	3.32
350.416	3.31
350.866	3.31
351.317	3.3
351.767	3.3
352.217	3.29
352.668	3.28
353.118	3.28
353.568	3.27
354.018	3.28
354.468	3.28
354.918	3.28
355.368	3.28
355.818	3.28
356.268	3.27
356.718	3.26
357.168	3.26
357.617	3.25
358.067	3.25
358.517	3.26
358.966	3.25
359.416	3.24
359.865	3.23
360.315	3.22
360.764	3.22
361.213	3.21
361.663	3.2
362.112	3.2
362.561	3.19
363.01	3.18
363.459	3.16
363.908	3.16
364.357	3.16
364.806	3.14
365.255	3.14
365.703	3.14
366.152	3.14
366.601	3.13
367.05	3.14
367.498	3.14
367.947	3.14
368.395	3.15
368.844	3.14
369.292	3.13
369.74	3.14
370.189	3.13
370.637	3.13
371.085	3.12
371.533	3.12
371.981	3.12
372.429	3.11
372.877	3.1
373.325	3.09
373.773	3.08
374.221	3.08
374.669	3.07
375.116	3.06
375.564	3.05
376.012	3.04
376.459	3.04
376.907	3.04
377.354	3.04
377.801	3.04
378.249	3.04
378.696	3.04
379.143	3.03
379.591	3.03
380.038	3.04
380.485	3.04
380.932	3.05
381.379	3.04
381.826	3.04
382.273	3.04
382.72	3.02
383.166	3.02
383.613	3.01
384.06	3.01
384.506	3
384.953	2.99
385.4	2.99
385.846	3
386.292	3
386.739	2.99
387.185	2.99
387.631	3
388.078	3.01
388.524	3.01
388.97	3.02
389.416	3.02
389.862	3.03
390.308	3.05
390.754	3.05
391.2	3.05
391.645	3.06
392.091	3.07
392.537	3.08
392.983	3.09
393.428	3.09
393.874	3.1
394.319	3.11
394.765	3.12
395.21	3.12
395.655	3.13
396.101	3.15
396.546	3.16
396.991	3.16
397.436	3.17
397.881	3.19
398.326	3.21
398.771	3.23
399.216	3.24
399.661	3.25
400.106	3.26
400.551	3.27
400.995	3.27
401.44	3.28
401.885	3.28
402.329	3.3
402.774	3.31
403.218	3.33
403.663	3.35
404.107	3.36
404.551	3.37
404.995	3.37
405.44	3.37
405.884	3.38
406.328	3.4
406.772	3.41
407.216	3.42
407.66	3.41
408.104	3.4
408.547	3.4
408.991	3.41
409.435	3.42
409.879	3.43
410.322	3.45
410.766	3.47
411.209	3.48
411.653	3.51
412.096	3.52
412.54	3.53
412.983	3.54
413.426	3.57
413.869	3.58
414.312	3.61
414.756	3.63
415.199	3.62
415.642	3.62
416.085	3.62
416.527	3.61
416.97	3.6
417.413	3.6
417.856	3.6
418.298	3.58
418.741	3.58
419.184	3.57
419.626	3.55
420.069	3.56
420.511	3.57
420.953	3.58
421.396	3.58
421.838	3.61
422.28	3.62
422.722	3.64
423.164	3.65
423.606	3.65
424.048	3.66
424.49	3.68
424.932	3.68
425.374	3.67
425.816	3.65
426.258	3.64
426.699	3.63
427.141	3.61
427.582	3.61
428.024	3.61
428.465	3.61
428.907	3.6
429.348	3.59
429.789	3.59
430.231	3.61
430.672	3.62
431.113	3.63
431.554	3.64
431.995	3.66
432.436	3.65
432.877	3.66
433.318	3.67
433.759	3.69
434.2	3.71
434.64	3.73
435.081	3.72
435.522	3.74
435.962	3.75
436.403	3.77
436.843	3.78
437.284	3.78
437.724	3.78
438.164	3.77
438.604	3.78
439.045	3.78
439.485	3.79
439.925	3.79
440.365	3.79
440.805	3.8
441.245	3.81
441.685	3.83
442.125	3.85
442.564	3.86
443.004	3.88
443.444	3.87
443.883	3.88
444.323	3.87
444.762	3.88
445.202	3.88
445.641	3.89
446.081	3.89
446.52	3.87
446.959	3.89
447.398	3.89
447.837	3.9
448.276	3.91
448.716	3.92
449.154	3.96
449.593	3.97
450.032	3.97
450.471	3.96
450.91	3.96
451.349	3.97
451.787	3.97
452.226	3.96
452.664	3.97
453.103	3.96
453.541	3.95
453.98	3.95
454.418	3.93
454.856	3.93
455.295	3.93
455.733	3.92
456.171	3.91
456.609	3.91
457.047	3.88
457.485	3.86
457.923	3.85
458.361	3.85
458.798	3.84
459.236	3.83
459.674	3.82
460.111	3.81
460.549	3.82
460.987	3.81
461.424	3.82
461.862	3.83
462.299	3.84
462.736	3.85
463.173	3.86
463.611	3.86
464.048	3.87
464.485	3.88
464.922	3.89
465.359	3.88
465.796	3.9
466.233	3.89
466.67	3.9
467.106	3.91
467.543	3.89
467.98	3.88
468.416	3.87
468.853	3.87
469.29	3.85
469.726	3.85
470.162	3.84
470.599	3.83
471.035	3.81
471.471	3.8
471.907	3.79
472.344	3.79
472.78	3.79
473.216	3.79
473.652	3.78
474.088	3.78
474.523	3.78
474.959	3.78
475.395	3.77
475.831	3.77
476.266	3.77
476.702	3.75
477.138	3.75
477.573	3.75
478.008	3.75
478.444	3.75
478.879	3.74
479.314	3.74
479.75	3.73
480.185	3.73
480.62	3.72
481.055	3.72
481.49	3.72
481.925	3.72
482.36	3.71
482.795	3.7
483.229	3.7
483.664	3.7
484.099	3.69
484.534	3.68
484.968	3.68
485.403	3.68
485.837	3.68
486.271	3.69
486.706	3.69
487.14	3.7
487.574	3.7
488.009	3.7
488.443	3.7
488.877	3.71
489.311	3.74
489.745	3.75
490.179	3.77
490.613	3.79
491.046	3.8
491.48	3.82
491.914	3.84
492.348	3.86
492.781	3.89
493.215	3.92
493.648	3.95
494.082	3.98
494.515	4.01
494.948	4.04
495.382	4.07
495.815	4.11
496.248	4.15
496.681	4.2
497.114	4.24
497.547	4.29
497.98	4.33
498.413	4.39
498.846	4.44
499.279	4.49
499.711	4.56
500.144	4.62
500.577	4.69
501.009	4.75
501.442	4.82
501.874	4.9
502.306	4.98
502.739	5.07
503.171	5.16
503.603	5.25
504.036	5.36
504.468	5.46
504.9	5.56
505.332	5.67
505.764	5.79
506.196	5.9
506.627	6.02
507.059	6.15
507.491	6.28
507.923	6.41
508.354	6.56
508.786	6.7
509.217	6.87
509.649	7.04
510.08	7.21
510.512	7.38
510.943	7.57
511.374	7.76
511.805	7.94
512.237	8.12
512.668	8.32
513.099	8.52
513.53	8.72
513.961	8.93
514.391	9.14
514.822	9.35
515.253	9.56
515.684	9.78
516.114	10
516.545	10.22
516.975	10.46
517.406	10.69
517.836	10.91
518.267	11.16
518.697	11.38
519.127	11.6
519.558	11.84
519.988	12.08
520.418	12.31
520.848	12.52
521.278	12.77
521.708	13.14
522.138	13.37
522.567	13.59
522.997	13.8
523.427	14.02
523.857	14.23
524.286	14.43
524.716	14.63
525.145	14.83
525.575	15.03
526.004	15.2
526.433	15.24
526.863	15.4
527.292	15.57
527.721	15.73
528.15	15.87
528.579	16.02
529.008	16.17
529.437	16.29
529.866	16.41
530.295	16.53
530.724	16.66
531.152	16.77
531.581	16.89
532.01	16.98
532.438	17.09
532.867	17.18
533.295	17.27
533.723	17.35
534.152	17.43
534.58	17.51
535.008	17.56
535.436	17.63
535.865	17.69
536.293	17.73
536.721	17.78
537.149	17.81
537.576	17.87
538.004	17.91
538.432	17.94
538.86	17.99
539.287	18.03
539.715	18.09
540.143	18.1
540.57	18.12
540.998	18.14
541.425	18.17
541.852	18.19
542.28	18.2
542.707	18.23
543.134	18.26
543.561	18.29
543.988	18.3
544.415	18.3
544.842	18.34
545.269	18.37
545.696	18.4
546.123	18.43
546.549	18.46
546.976	18.48
547.403	18.49
547.829	18.51
548.256	18.52
548.682	18.54
549.108	18.56
549.535	18.57
549.961	18.57
550.387	18.56
550.813	18.55
551.24	18.55
551.666	18.53
552.092	18.52
552.518	18.51
552.943	18.5
553.369	18.47
553.795	18.43
554.221	18.39
554.646	18.36
555.072	18.34
555.498	18.3
555.923	18.26
556.349	18.2
556.774	18.15
557.199	18.08
557.625	18.01
558.05	17.94
558.475	17.88
558.9	17.81
559.325	17.73
559.75	17.64
560.175	17.55
560.6	17.46
561.025	17.38
561.449	17.28
561.874	17.17
562.299	17.05
562.723	16.95
563.148	16.82
563.572	16.69
563.997	16.57
564.421	16.44
564.846	16.32
565.27	16.19
565.694	16.06
566.118	15.94
566.542	15.83
566.966	15.69
567.39	15.55
567.814	15.43
568.238	15.29
568.662	15.16
569.086	15.03
569.509	14.9
569.933	14.78
570.357	14.65
570.78	14.51
571.204	14.38
571.627	14.27
572.05	14.15
572.474	14.05
572.897	13.95
573.32	13.84
573.743	13.72
574.166	13.61
574.589	13.5
575.012	13.41
575.435	13.31
575.858	13.21
576.281	13.11
576.704	13.02
577.126	12.92
577.549	12.84
577.972	12.74
578.394	12.66
578.817	12.58
579.239	12.5
579.661	12.42
580.084	12.35
580.506	12.28
580.928	12.2
581.35	12.13
581.772	12.05
582.194	11.97
582.616	11.91
583.038	11.83
583.46	11.76
583.882	11.7
584.303	11.64
584.725	11.57
585.147	11.51
585.568	11.46
585.99	11.41
586.411	11.36
586.833	11.3
587.254	11.24
587.675	11.2
588.096	11.15
588.518	11.1
588.939	11.06
589.36	11
589.781	10.96
590.202	10.93
590.623	10.9
591.043	10.85
591.464	10.82
591.885	10.78
592.305	10.75
592.726	10.73
593.147	10.69
593.567	10.65
593.987	10.63
594.408	10.6
594.828	10.56
595.248	10.52
595.669	10.5
596.089	10.48
596.509	10.45
596.929	10.41
597.349	10.38
597.769	10.35
598.189	10.31
598.608	10.29
599.028	10.26
599.448	10.23
599.867	10.19
600.287	10.16
600.706	10.12
601.126	10.09
601.545	10.06
601.965	10.03
602.384	10
602.803	9.96
603.222	9.92
603.641	9.88
604.061	9.84
604.48	9.81
604.898	9.75
605.317	9.71
605.736	9.66
606.155	9.6
606.574	9.56
606.992	9.5
607.411	9.45
607.829	9.37
608.248	9.3
608.666	9.24
609.085	9.18
609.503	9.13
609.921	9.07
610.339	9.01
610.758	8.96
611.176	8.89
611.594	8.83
612.012	8.76
612.43	8.73
612.847	8.68
613.265	8.62
613.683	8.56
614.101	8.5
614.518	8.44
614.936	8.39
615.353	8.32
615.771	8.27
616.188	8.22
616.606	8.18
617.023	8.13
617.44	8.08
617.857	8.04
618.274	8
618.691	7.96
619.108	7.92
619.525	7.87
619.942	7.85
620.359	7.82
620.776	7.79
621.192	7.75
621.609	7.73
622.026	7.7
622.442	7.68
622.859	7.66
623.275	7.64
623.691	7.63
624.108	7.62
624.524	7.61
624.94	7.59
625.356	7.58
625.772	7.58
626.188	7.57
626.604	7.57
627.02	7.55
627.436	7.54
627.852	7.53
628.268	7.51
628.683	7.49
629.099	7.48
629.514	7.47
629.93	7.45
630.345	7.43
630.761	7.4
631.176	7.37
631.591	7.34
632.007	7.31
632.422	7.27
632.837	7.22
633.252	7.18
633.667	7.12
634.082	7.07
634.497	7.01
634.911	6.95
635.326	6.89
635.741	6.83
636.155	6.76
636.57	6.69
636.984	6.63
637.399	6.56
637.813	6.47
638.228	6.39
638.642	6.31
639.056	6.23
639.47	6.16
639.884	6.08
640.298	5.99
640.712	5.92
641.126	5.85
641.54	5.76
641.954	5.68
642.368	5.6
642.781	5.53
643.195	5.46
643.609	5.39
644.022	5.32
644.436	5.26
644.849	5.19
645.262	5.12
645.676	5.05
646.089	4.99
646.502	4.94
646.915	4.89
647.328	4.86
647.741	4.81
648.154	4.77
648.567	4.74
648.98	4.71
649.393	4.68
649.805	4.66
650.218	4.64
650.631	4.62
651.043	4.6
651.456	4.58
651.868	4.55
652.28	4.53
652.693	4.51
653.105	4.49
653.517	4.46
653.929	4.44
654.341	4.4
654.753	4.36
655.165	4.33
655.577	4.3
655.989	4.26
656.401	4.22
656.813	4.19
657.224	4.14
657.636	4.09
658.047	4.05
658.459	4.01
658.87	3.97
659.282	3.92
659.693	3.88
660.104	3.82
660.515	3.77
660.926	3.73
661.338	3.68
661.749	3.64
662.159	3.59
662.57	3.56
662.981	3.53
663.392	3.5
663.803	3.46
664.213	3.43
664.624	3.41
665.035	3.38
665.445	3.36
665.855	3.34
666.266	3.32
666.676	3.32
667.086	3.28
667.497	3.27
667.907	3.26
668.317	3.25
668.727	3.24
669.137	3.24
669.547	3.23
669.956	3.23
670.366	3.23
670.776	3.23
671.186	3.23
671.595	3.24
672.005	3.24
672.414	3.25
672.824	3.26
673.233	3.27
673.642	3.28
674.052	3.29
674.461	3.3
674.87	3.3
675.279	3.32
675.688	3.34
676.097	3.36
676.506	3.38
676.915	3.39
677.323	3.42
677.732	3.44
678.141	3.47
678.549	3.5
678.958	3.54
679.366	3.58
679.775	3.61
680.183	3.64
680.592	3.69
681	3.73
681.408	3.79
681.816	3.83
682.224	3.9
682.632	3.96
683.04	4.03
683.448	4.12
683.856	4.2
684.264	4.3
684.671	4.41
685.079	4.52
685.487	4.66
685.894	4.81
686.302	4.97
686.709	5.16
687.116	5.35
687.524	5.57
687.931	5.79
688.338	6.04
688.745	6.31
689.152	6.59
689.559	6.9
689.966	7.22
690.373	7.56
690.78	7.93
691.187	8.3
691.593	8.7
692	9.12
692.407	9.54
692.813	9.98
693.22	10.42
693.626	10.87
694.032	11.34
694.439	11.81
694.845	12.29
695.251	12.77
695.657	13.25
696.063	13.73
696.469	14.24
696.875	14.75
697.281	15.24
697.687	15.77
698.093	16.28
698.498	16.78
698.904	17.3
699.31	17.8
699.715	18.32
700.12	18.82
700.526	19.32
700.931	19.8
701.337	20.27
701.742	20.75
702.147	21.22
702.552	21.69
702.957	22.14
703.362	22.59
703.767	23.03
704.172	23.45
704.577	23.89
704.981	24.33
705.386	24.76
705.791	25.17
706.195	25.6
706.6	26.04
707.004	26.46
707.408	26.87
707.813	27.29
708.217	27.7
708.621	28.12
709.025	28.5
709.43	28.89
709.834	29.29
710.237	29.67
710.641	30.05
711.045	30.42
711.449	30.8
711.853	31.16
712.256	31.49
712.66	31.82
713.064	32.14
713.467	32.49
713.87	32.84
714.274	33.15
714.677	33.48
715.08	33.8
715.484	34.11
715.887	34.4
716.29	34.7
716.693	35
717.096	35.33
717.499	35.63
717.901	35.91
718.304	36.17
718.707	36.46
719.109	36.73
719.512	36.98
719.915	37.25
720.317	37.5
720.719	37.72
721.122	37.98
721.524	38.21
721.926	38.44
722.328	38.69
722.731	38.91
723.133	39.13
723.535	39.33
723.937	39.54
724.338	39.73
724.74	39.92
725.142	40.19
725.544	40.35
725.945	40.53
726.347	40.67
726.748	40.82
727.15	40.97
727.551	41.11
727.952	41.27
728.354	41.45
728.755	41.56
729.156	41.69
729.557	41.77
729.958	41.89
730.359	42.02
730.76	42.17
731.161	42.29
731.562	42.4
731.962	42.5
732.363	42.59
732.763	42.69
733.164	42.79
733.564	42.9
733.965	42.99
734.365	43.07
734.766	43.14
735.166	43.22
735.566	43.3
735.966	43.39
736.366	43.48
736.766	43.55
737.166	43.62
737.566	43.68
737.966	43.74
738.365	43.8
738.765	43.88
739.165	43.94
739.564	44
739.964	44.05
740.363	44.08
740.763	44.11
741.162	44.17
741.561	44.2
741.96	44.25
742.36	44.29
742.759	44.33
743.158	44.37
743.557	44.4
743.955	44.45
744.354	44.47
744.753	44.54
745.152	44.57
745.55	44.61
745.949	44.65
746.348	44.67
746.746	44.69
747.144	44.71
747.543	44.73
747.941	44.77
748.339	44.76
748.737	44.78
749.136	44.77
749.534	44.78
749.932	44.79
750.33	44.78
750.727	44.81
751.125	44.81
751.523	44.81
751.921	44.84
752.318	44.84
752.716	44.87
753.113	44.88
753.511	44.9
753.908	44.95
754.305	44.95
754.703	44.96
755.1	44.96
755.497	44.99
755.894	44.99
756.291	44.98
756.688	44.97
757.085	44.97
757.482	45
757.878	45
758.275	44.97
758.672	44.97
759.068	44.99
759.465	44.99
759.861	45.01
760.258	45.02
760.654	45.03
761.05	45.05
761.447	45.05
761.843	45.02
762.239	45.02
762.635	45.02
763.031	45.02
763.427	44.99
763.822	44.99
764.218	44.98
764.614	45
765.01	44.98
765.405	44.95
765.801	44.93
766.196	44.96
766.592	44.95
766.987	44.93
767.382	44.92
767.778	44.94
768.173	44.98
768.568	44.98
768.963	44.98
769.358	45
769.753	45.02
770.148	45.04
770.542	45.03
770.937	45.04
771.332	45.06
771.726	45.1
772.121	45.09
772.515	45.06
772.91	45.04
773.304	45.03
773.699	45.02
774.093	45.01
774.487	45.01
774.881	45.01
775.275	44.98
775.669	44.96
776.063	44.93
776.457	44.96
776.851	44.93
777.245	44.92
777.638	44.9
778.032	44.92
778.425	44.95
778.819	44.95
779.212	44.96
779.606	45
779.999	44.99
780.392	44.99
780.786	44.96
781.179	44.98
781.572	45.02
781.965	45.05
782.358	45.05
782.751	45.02
783.143	45.01
783.536	45.01
783.929	45
784.322	45.03
784.714	45.04
785.107	45.06
785.499	45.08
785.891	45.07
786.284	45.05
786.676	45.04
787.068	45.05
787.46	45.05
787.852	45.04
788.245	45.04
788.636	45.01
789.028	45
789.42	45
789.812	44.98
790.204	44.96
790.595	44.96
790.987	44.97
791.378	45
791.77	45.01
792.161	45.01
792.553	45.02
792.944	45.02
793.335	45.03
793.726	45.04
794.117	45
794.508	44.96
794.899	44.96
795.29	44.95
795.681	44.91
796.072	44.88
796.463	44.87
796.853	44.86
797.244	44.85
797.634	44.84
798.025	44.84
798.415	44.86
798.806	44.88
799.196	44.91
799.586	44.91
799.976	44.92
800.366	44.94
800.756	44.96
801.146	44.97
801.536	45
801.926	45.01
802.316	44.98
802.706	44.99
803.095	44.98
803.485	44.96
803.874	44.95
804.264	44.96
804.653	44.94
805.043	44.93
805.432	44.92
805.821	44.92
806.21	44.91
806.599	44.93
806.988	44.92
807.377	44.98
807.766	44.97
808.155	44.98
808.544	45
808.933	45
809.321	44.98
809.71	44.99
810.098	44.97
810.487	44.95
810.875	44.93
811.264	44.93
811.652	44.89
812.04	44.89
812.428	44.89
812.816	44.86
813.204	44.86
813.592	44.85
813.98	44.84
814.368	44.83
814.756	44.84
815.144	44.85
815.531	44.85
815.919	44.85
816.306	44.87
816.694	44.84
817.081	44.88
817.469	44.88
817.856	44.87
818.243	44.85
818.63	44.85
819.017	44.85
819.404	44.83
819.791	44.83
820.178	44.8
820.565	44.77
820.952	44.77
821.339	44.74
821.725	44.72
822.112	44.73
822.498	44.74
822.885	44.75
823.271	44.75
823.657	44.74
824.044	44.75
824.43	44.77
824.816	44.79
825.202	44.77
825.588	44.79
825.974	44.79
826.36	44.79
826.746	44.8
827.132	44.8
827.517	44.8
827.903	44.81
828.289	44.83
828.674	44.84
829.06	44.83
829.445	44.84
829.83	44.84
830.216	44.84
830.601	44.83
830.986	44.82
831.371	44.81
831.756	44.84
832.141	44.85
832.526	44.81
832.911	44.8
833.295	44.8
833.68	44.82
834.065	44.82
834.449	44.83
834.834	44.83
835.218	44.85
835.603	44.85
835.987	44.83
836.371	44.8
836.755	44.8
837.139	44.79
837.524	44.82
837.908	44.82
838.291	44.84
838.675	44.83
839.059	44.85
839.443	44.82
839.827	44.82
840.21	44.83
840.594	44.84
840.977	44.83
841.361	44.84
841.744	44.79
842.127	44.78
842.511	44.76
842.894	44.77
843.277	44.76
843.66	44.78
844.043	44.81
844.426	44.8
844.809	44.81
845.191	44.83
845.574	44.83
845.957	44.85
846.339	44.85
846.722	44.87
847.104	44.88
847.487	44.87
847.869	44.85
848.252	44.84
848.634	44.87
849.016	44.88
849.398	44.88
849.78	44.89
850.162	44.88
850.544	44.89
850.926	44.88
851.307	44.88
851.689	44.88
852.071	44.89
852.452	44.87
852.834	44.87
853.215	44.85
853.597	44.85
853.978	44.86
854.359	44.87
854.741	44.86
855.122	44.84
855.503	44.83
855.884	44.82
856.265	44.83
856.646	44.83
857.026	44.83
857.407	44.86
857.788	44.86
858.169	44.85
858.549	44.85
858.93	44.85
859.31	44.87
859.69	44.87
860.071	44.89
860.451	44.86
860.831	44.85
861.211	44.82
861.591	44.81
861.971	44.78
862.351	44.77
862.731	44.77
863.111	44.76
863.491	44.76
863.87	44.75
864.25	44.73
864.629	44.74
865.009	44.76
865.388	44.76
865.768	44.76
866.147	44.76
866.526	44.77
866.905	44.78
867.284	44.77
867.663	44.77
868.042	44.79
868.421	44.8
868.8	44.8
869.179	44.82
869.558	44.81
869.936	44.8
870.315	44.79
870.693	44.79
871.072	44.78
871.45	44.8
871.828	44.81
872.207	44.82
872.585	44.82
872.963	44.83
873.341	44.8
873.719	44.82
874.097	44.82
874.475	44.84
874.853	44.86
875.23	44.89
875.608	44.9
875.986	44.9
876.363	44.9
876.741	44.91
877.118	44.9
877.495	44.9
877.873	44.9
878.25	44.92
878.627	44.95
879.004	44.9
879.381	44.89
879.758	44.86
880.135	44.86
880.512	44.84
880.889	44.82
881.265	44.8
881.642	44.82
882.019	44.82
882.395	44.79
882.772	44.77
883.148	44.78
883.524	44.76
883.901	44.78
884.277	44.77
884.653	44.77
885.029	44.78
885.405	44.79
885.781	44.8
886.157	44.79
886.532	44.81
886.908	44.8
887.284	44.8
887.659	44.79
888.035	44.78
888.411	44.79
888.786	44.8
889.161	44.8
889.537	44.8
889.912	44.78
890.287	44.78
890.662	44.76
891.037	44.78
891.412	44.77
891.787	44.76
892.162	44.76
892.536	44.75
892.911	44.73
893.286	44.72
893.66	44.7
894.035	44.7
894.409	44.7
894.784	44.73
895.158	44.71
895.532	44.73
895.906	44.74
896.281	44.73
896.655	44.73
897.029	44.73
897.402	44.73
897.776	44.76
898.15	44.75
898.524	44.78
898.898	44.73
899.271	44.72
899.645	44.73
900.018	44.74
900.392	44.75
900.765	44.78
901.138	44.77
901.511	44.78
901.884	44.8
902.258	44.81
902.631	44.78
903.003	44.81
903.376	44.82
903.749	44.8
904.122	44.81
904.495	44.81
904.867	44.79
905.24	44.82
905.612	44.83
905.985	44.79
906.357	44.78
906.729	44.81
907.102	44.82
907.474	44.84
907.846	44.84
908.218	44.86
908.59	44.86
908.962	44.88
909.334	44.87
909.705	44.85
910.077	44.85
910.449	44.86
910.82	44.84
911.192	44.86
911.563	44.87
911.935	44.87
912.306	44.86
912.677	44.89
913.048	44.89
913.419	44.89
913.79	44.93
914.161	44.95
914.532	44.94
914.903	44.94
915.274	44.93
915.645	44.91
916.015	44.91
916.386	44.94
916.756	44.92
917.127	44.91
917.497	44.91
917.868	44.88
918.238	44.85
918.608	44.86
918.978	44.83
919.348	44.84
919.718	44.82
920.088	44.83
920.458	44.8
920.828	44.77
921.198	44.76
921.567	44.75
921.937	44.76
922.306	44.77
922.676	44.77
923.045	44.8
923.415	44.8
923.784	44.81
924.153	44.8
924.522	44.82
924.891	44.83
925.26	44.82
925.629	44.84
925.998	44.81
926.367	44.79
926.736	44.78
927.104	44.77
927.473	44.72
927.842	44.7
928.21	44.7
928.578	44.69
928.947	44.69
929.315	44.67
929.683	44.64
930.051	44.65
930.42	44.64
930.788	44.63
931.156	44.62
931.523	44.63
931.891	44.64
932.259	44.64
932.627	44.63
932.994	44.61
933.362	44.59
933.729	44.59
934.097	44.6
934.464	44.63
934.831	44.6
935.199	44.59
935.566	44.57
935.933	44.51
936.3	44.44
936.667	44.4
937.034	44.46
937.401	44.49
937.767	44.44
938.134	44.39
938.501	44.32
938.867	44.41
939.234	44.36
939.6	44.36
939.967	44.41
940.333	44.38
940.699	44.39
941.065	44.23
941.431	44.19
941.798	44.18
942.163	44.15
942.529	44.16
942.895	44.1
943.261	44.08
943.627	44.04
943.992	44.03
944.358	44.06
944.723	44.03
945.089	44.02
945.454	44.03
945.82	44.03
946.185	44.04
946.55	44.02
946.915	43.99
947.28	43.96
947.645	43.99
948.01	44.02
948.375	43.95
948.74	43.94
949.104	44
949.469	43.95
949.834	43.99
950.198	44
950.562	43.94
950.927	43.93
951.291	43.91
951.655	43.83
952.02	43.82
952.384	43.82
952.748	43.83
953.112	43.81
953.476	43.8
953.839	43.74
954.203	43.72
954.567	43.7
954.931	43.69
955.294	43.69
955.658	43.79
956.021	43.73
956.385	43.75
956.748	43.68
957.111	43.67
957.474	43.68
957.837	43.64
958.2	43.6
958.563	43.6
958.926	43.6
959.289	43.61
959.652	43.55
960.015	43.56
960.377	43.56
960.74	43.59
961.102	43.61
961.465	43.66
961.827	43.71
962.189	43.71
962.552	43.73
962.914	43.77
963.276	43.81
963.638	43.8
964	43.8
964.362	43.81
964.724	43.8
965.085	43.78
965.447	43.75
965.809	43.77
966.17	43.8
966.532	43.83
966.893	43.83
967.255	43.81
967.616	43.85
967.977	43.86
968.338	43.88
968.699	43.92
969.061	43.96
969.421	43.96
969.782	43.95
970.143	43.92
970.504	43.97
970.865	43.99
971.225	43.91
971.586	43.9
971.946	43.87
972.307	43.79
972.667	43.78
973.027	43.82
973.388	43.83
973.748	43.85
974.108	43.94
974.468	43.89
974.828	43.88
975.188	43.96
975.548	43.97
975.907	44
976.267	44.09
976.627	44.12
976.986	44
977.346	43.98
977.705	43.92
978.064	43.89
978.424	43.92
978.783	43.88
979.142	43.83
979.501	43.85
979.86	43.83
980.219	43.78
980.578	43.76
980.937	43.86
981.296	43.84
981.654	43.91
982.013	43.86
982.371	43.83
982.73	43.84
983.088	43.88
983.447	43.82
983.805	43.85
984.163	43.87
984.521	43.82
984.879	43.78
985.237	43.78
985.595	43.79
985.953	43.82
986.311	43.79
986.669	43.84
987.026	43.81
987.384	43.86
987.741	43.77
988.099	43.82
988.456	43.82
988.814	43.77
989.171	43.76
989.528	43.74
989.885	43.69
990.242	43.73
990.599	43.71
990.956	43.78
991.313	43.73
991.67	43.78
992.027	43.81
992.383	43.87
992.74	43.97
993.096	43.99
993.453	43.99
993.809	43.97
994.165	43.96
994.522	43.92
994.878	43.88
995.234	43.89
995.59	43.85
995.946	43.84
996.302	43.85
996.658	43.79
997.013	43.81
997.369	43.82
997.725	43.85
998.08	43.85
998.436	43.88
998.791	43.94
999.147	43.98
999.502	44.04
999.857	43.98
1000.212	43.96
1000.567	44
1000.922	43.9
1001.277	43.82
1001.632	43.86
1001.987	43.9
1002.342	43.81
1002.696	43.68
1003.051	43.75
1003.406	43.93
1003.76	43.88
1004.114	43.83
1004.469	43.86
1004.823	44.18
1005.177	44.25
1005.531	44.27
1005.885	44.23
1006.239	44.24
1006.593	44.46
1006.947	44.35
1007.301	44.04
1007.655	43.97
1008.008	44.05
1008.362	44
1008.715	43.86
1009.069	43.96
1009.422	43.93
1009.776	43.95
1010.129	44.01
1010.482	43.82
1010.835	44.01
1011.188	44.19
1011.541	44.35
1011.894	44.25
1012.247	44.17
1012.6	44.03
1012.952	43.81
1013.305	43.93
1013.657	43.91
1014.01	43.99
1014.362	43.92
1014.715	43.78
1015.067	43.79
1015.419	43.77
1015.771	43.74
1016.123	43.81
1016.475	43.77
1016.827	43.87
1017.179	43.84
1017.531	43.73
1017.883	43.68
1018.234	43.81
1018.586	43.8
1018.938	43.94
1019.289	43.87
1019.64	43.9
1019.992	43.9
1020.343	43.85
1020.694	43.76
1021.045	43.61
1021.396	43.63
1021.747	43.57
1022.098	43.66
1022.449	43.7
1022.8	43.24
1023.151	43.31
1023.501	43.31
1023.852	43.38
1024.202	43.3
1024.553	43.12
1024.903	43.16
1025.253	43.33
1025.604	43.3
1025.954	42.82
1026.304	42.79
1026.654	43.14
1027.004	43.09
1027.354	42.89
1027.703	42.53
1028.053	42.84
1028.403	43.27
1028.753	43.01
1029.102	42.9
1029.452	42.89
1029.801	43.15
1030.15	43.05
1030.499	42.84
897.758	1054.85
901.051	1061.67
904.343	1060.78
907.636	1081.59
910.928	1052.55
914.22	1051.75
917.511	1037.64
920.803	990.36
924.094	984.27
927.384	960.44
930.675	921.8
933.965	918.85
937.255	864.54
940.544	829.2
943.834	788.76
947.123	783.08
950.411	737.88
953.7	722.27
956.988	687.66
960.276	663.55
963.563	652.76
966.851	631.15
970.138	623.4
973.424	604.62
976.711	608.73
979.997	578.49
983.283	573.99
986.568	562.66
989.853	545.75
993.138	533.05
996.423	512.43
999.708	497.93
1002.992	491.11
1006.275	472.01
1009.559	468
1012.842	449.99
1016.125	438.21
1019.408	430.43
1022.69	425.16
1025.972	415.54
1029.254	407.99
1032.536	400.88
1035.817	391.41
1039.098	388.57
1042.379	380.32
1045.659	375.73
1048.939	366.75
1052.219	360.42
1055.498	355.45
1058.778	346.7
1062.057	340.7
1065.335	336.68
1068.614	332.48
1071.892	330.07
1075.17	319.23
1078.447	312.75
1081.724	310.15
1085.001	309.44
1088.278	302.47
1091.554	296.42
1094.83	295.6
1098.106	292.74
1101.382	291.23
1104.657	289.52
1107.932	284.13
1111.206	286.4
1114.481	279.1
1117.755	276.65
1121.029	272.91
1124.302	273.31
1127.575	267.15
1130.848	265.12
1134.121	262.28
1137.393	260.06
1140.665	254.46
1143.937	253.52
1147.208	250.8
1150.48	250.4
1153.75	247.92
1157.021	245.21
1160.291	244.71
1163.561	243.58
1166.831	243.36
1170.101	241.42
1173.37	240.93
1176.639	241.58
1179.907	239.2
1183.176	236.59
1186.444	236.87
1189.711	235.97
1192.979	234.69
1196.246	233.64
1199.513	234.62
1202.78	232.52
1206.046	232.66
1209.312	229.95
1212.578	230.31
1215.843	232.44
1219.108	230.59
1222.373	234.84
1225.638	236.12
1228.902	239.48
1232.166	240.47
1235.43	241.15
1238.693	245.03
1241.956	245.96
1245.219	250.71
1248.482	250.97
1251.744	250.36
1255.006	250.94
1258.268	246.01
1261.529	244.24
1264.79	242.97
1268.051	240.8
1271.312	238.26
1274.572	235.5
1277.832	233.74
1281.092	228.96
1284.351	227.12
1287.61	227.25
1290.869	224.59
1294.128	222.42
1297.386	222.64
1300.644	219.75
1303.902	220.51
1307.159	219.6
1310.416	219.66
1313.673	218.6
1316.93	221.61
1320.186	221.34
1323.442	222.22
1326.697	225.24
1329.953	226.01
1333.208	226
1336.463	229.08
1339.717	229.07
1342.972	231.95
1346.226	233.76
1349.479	235.06
1352.733	235.76
1355.986	236.85
1359.238	236.08
1362.491	237.98
1365.743	239.99
1368.995	239.93
1372.247	239.92
1375.498	239.67
1378.749	241.9
1382	238.85
1385.251	239.23
1388.501	237.46
1391.751	237.96
1395	237.21
1398.25	235.27
1401.499	233.32
1404.748	233.61
1407.996	231.47
1411.244	229.95
1414.492	227.65
1417.74	225.47
1420.987	222.35
1424.234	221.21
1427.481	219.01
1430.728	218.8
1433.974	217.16
1437.22	215.02
1440.465	213.6
1443.711	211.04
1446.956	209.83
1450.201	207.93
1453.445	205.92
1456.689	205.3
1459.933	202.57
1463.177	200.13
1466.42	196.62
1469.663	193.75
1472.906	192.62
1476.148	188.78
1479.391	186.73
1482.633	185.42
1485.874	182.26
1489.115	181.02
1492.356	179.33
1495.597	178.35
1498.838	176.36
1502.078	175.76
1505.318	175.34
1508.557	175.6
1511.797	175.67
1515.036	174.49
1518.274	173.79
1521.513	173.03
1524.751	172.51
1527.989	171.36
1531.227	171.49
1534.464	171.53
1537.701	169.93
1540.938	169.66
1544.174	167.87
1547.41	167.14
1550.646	166.45
1553.882	166.77
1557.117	164.62
1560.352	164.13
1563.587	164.08
1566.821	162.62
1570.055	161.39
1573.289	160.83
1576.523	160.13
1579.756	158.66
1582.989	158.5
1586.222	157.83
1589.454	156.63
1592.686	158.13
1595.918	156.66
1599.15	156.08
1602.381	156.54
1605.612	156.54
1608.843	156.79
1612.073	157.07
1615.303	157.91
1618.533	157.46
1621.762	158.27
1624.992	158.86
1628.221	157.82
1631.449	158.37
1634.678	158.14
1637.906	158.95
1641.134	158.63
1644.361	158.84
1647.588	158.81
1650.815	158.45
1654.042	157.89
1657.269	158.2
1660.495	157.99
1663.72	158.06
1666.946	158.72
1670.171	158.97
1673.396	158.72
1676.621	159.12
1679.845	159.11
1683.069	159.14
1686.293	160.36
1689.517	161.46
1692.74	161.14
1695.963	161.3
1699.185	162.3
1702.408	162.36
1705.63	163.32
1708.852	163.49
1712.073	163.44
1715.294	163.86
1718.515	164.61
1721.736	163.9
1724.956	164.28
1728.176	164.73
1731.396	165.8
1734.616	165.58
1737.835	166.45
1741.054	164.7
1744.272	165.66
1747.491	166.98
1750.709	166.94
1753.927	167.23
1757.144	166.72
1760.361	166.83
1763.578	167.6
1766.795	167.26
1770.011	168.05
1773.227	167.94
1776.443	170.44
1779.658	170.27
1782.874	169.67
1786.089	170.48
1789.303	170.48
1792.518	172.6
1795.732	172.59
1798.945	173.47
1802.159	173.86
1805.372	174.68
1808.585	177.2
1811.797	177
1815.01	178.02
1818.222	179.71
1821.434	180.87
1824.645	182.01
1827.856	185.03
1831.067	186.54
1834.278	186.02
1837.488	187.66
1840.698	188.39
1843.908	186.94
1847.117	188
1850.326	188.45
1853.535	187.94
1856.744	190.63
1859.952	189.75
1863.16	188.1
1866.368	186.87
1869.575	188.51
1872.782	185.58
1875.989	184.79
1879.196	183.55
1882.402	182.14
1885.608	182.54
1888.814	182.71
1892.019	181.51
1895.224	181.18
1898.429	180.74
1901.634	181.18
1904.838	180.6
1908.042	182.52
1911.246	183.19
1914.449	184.71
1917.652	185.27
1920.855	184.88
1924.058	184.96
1927.26	184.11
1930.462	184.78
1933.664	186.37
1936.865	184.82
1940.066	184.99
1943.267	183.85
1946.467	182.9
1949.668	184.23
1952.868	186.2
1956.067	186.62
1959.267	186.95
1962.466	187.67
1965.665	186.96
1968.863	186.84
1972.061	190.26
1975.259	191.92
1978.457	193.77
1981.654	195.83
1984.852	196.04
1988.048	195.5
1991.245	196.85
1994.441	198.86
1997.637	200.5
2000.833	203.94
2004.028	207.52
2007.223	208.22
2010.418	209.84
2013.613	212.95
2016.807	216.04
2020.001	217.92
2023.194	221.5
2026.388	226.9
2029.581	231.77
2032.774	233.9
2035.966	238.32
2039.158	238.24
2042.35	244.04
2045.542	244.86
2048.733	249.43
2051.924	251.42
2055.115	256.53
2058.306	256.88
2061.496	258.53
2064.686	259.26
2067.875	263.1
2071.065	265.14
2074.254	263.96
2077.442	266.04
2080.631	268.51
2083.819	270.69
2087.007	271.34
2090.195	273.53
2093.382	276.01
2096.569	275.01
2099.756	279.75
2102.942	280.89
2106.128	282.64
2109.314	289.15
2112.5	288.14
2115.685	294.69
2118.87	294.72
2122.055	301.63
2125.239	303.6
2128.424	308
2131.608	309.85
2134.791	313.07
2137.974	314.33
2141.157	315.91
2144.34	316.53
2147.523	322.49
2150.705	320.58
2153.887	324.02
2157.068	324.53
2160.25	321.31
2163.431	322.02
2166.611	326.8
2169.792	331.72
2172.972	335.45
2176.152	337.35
2179.331	341.44
2182.511	345.04
2185.69	348.28
2188.868	354.41
2192.047	355.83
2195.225	366.55
2198.403	374.41
2201.58	380.4
2204.758	386.86
2207.935	395.77
2211.111	402.73
2214.288	407.8
2217.464	409.92
2220.64	417.89
2223.815	423.21
2226.991	439.54
2230.166	439.39
2233.34	448.81
2236.515	456.95
2239.689	458.81
2242.863	458.92
2246.036	470.74
2249.209	468.94
2252.382	475.82
2255.555	489.71
2258.727	491.25
2261.9	494.79
2265.071	500.05
2268.243	508.45
2271.414	512.48
2274.585	523.37
2277.756	530.09
2280.926	534.25
2284.096	547.25
2287.266	559.12
2290.436	562.24
2293.605	575.15
2296.774	589.78
2299.942	609.27
2303.111	615.4
2306.279	629.14
2309.447	635.07
2312.614	654.1
2315.781	672.51
2318.948	700.58
2322.115	691.98
2325.281	727.51
2328.447	714.36
2331.613	744.06
2334.779	736.02
2337.944	765.73
2341.109	774.36
2344.274	798.19
2347.438	822.44
2350.602	821.68
2353.766	847.19
2356.929	861.02
2360.092	855.94
2363.255	915.09
2366.418	912.41
2369.58	931.08
2372.742	982.37
2375.904	1008.77
2379.066	1004.95
2382.227	986.45
2385.388	1075.14
2388.548	1073.96
2391.709	1083.99
2394.869	1214.04
2398.029	1160.81
2401.188	1190.89
2404.347	1184.39
2407.506	1168.27
2410.665	1199.91
2413.823	1270.67
2416.981	1346.71
2420.139	1295.91
2423.296	1285.2
2426.453	1343.4
2429.61	1291.27
2432.767	1354.54
2435.923	1344.82
2439.079	1464.32
2442.235	1485.92
2445.391	1470.03
2448.546	1458.33
2451.701	1417.54
2454.855	1421.25
2458.009	1506.1
2461.163	1566.55
2464.317	1616.26
2467.471	1656.75
2470.624	1660.45
2473.777	1620.24
2476.929	1575.61
2480.082	1531.33
2483.234	1515.68
2486.385	1589.63
2489.537	1598.94
2492.688	1651.8
2495.839	1610.82
2498.989	1576.46
2502.14	1585.22
2505.29	1596.65
2508.439	1620.34
2511.589	1618.41
2514.738	1761.42
2517.887	1723
2521.035	1814.58
2524.183	1830.77
2527.331	1848.11
2530.479	1834.6
2533.627	1847.62
