Data from C_1_DIV_OH_2N_Splice17_12-51-30-980.txt Node
Date: Sat Mar 07 12:51:30 EST 2020
User: sa697716
Spectrometer: NQ5500242
Trigger mode: 0
Integration Time (sec): 1.450000E-1
Scans to average: 20
Nonlinearity correction enabled: false
Boxcar width: 5
Storing dark spectrum: false
XAxis mode: Wavelengths
Number of Pixels in Spectrum: 512
>>>>>Begin Spectral Data<<<<<
187.83	127.59
188.298	152.03
188.766	127.78
189.233	107.05
189.701	111.92
190.169	123.1
190.636	162.16
191.104	273.13
191.571	301.48
192.039	416.2
192.506	554.37
192.974	-24.81
193.441	73.11
193.908	65.36
194.375	58.25
194.842	39
195.31	91.08
195.777	217.6
196.244	42.42
196.711	34.81
197.177	35.24
197.644	33.44
198.111	32.91
198.578	32.49
199.045	32.58
199.511	32.57
199.978	32.42
200.445	32.19
200.911	32.33
201.378	32.42
201.844	32.26
202.31	31.85
202.777	32.16
203.243	32.16
203.709	32.23
204.176	31.78
204.642	31.57
205.108	31.89
205.574	31.96
206.04	31.57
206.506	31.03
206.972	30.93
207.438	30.92
207.903	30.59
208.369	29.83
208.835	29.18
209.301	28.67
209.766	27.76
210.232	26.83
210.697	25.99
211.163	25.45
211.628	25.05
212.094	24.47
212.559	24.12
213.024	23.46
213.49	23.11
213.955	22.69
214.42	22.24
214.885	21.79
215.35	21.03
215.815	20.17
216.28	18.95
216.745	17.71
217.21	16.42
217.675	15.18
218.14	14.14
218.604	13.27
219.069	12.49
219.534	11.92
219.998	11.46
220.463	11.08
220.927	10.65
221.392	10.34
221.856	10.03
222.32	9.77
222.785	9.57
223.249	9.39
223.713	9.22
224.177	9.11
224.642	8.95
225.106	8.77
225.57	8.59
226.034	8.46
226.497	8.35
226.961	8.25
227.425	8.14
227.889	8.02
228.353	7.91
228.816	7.81
229.28	7.69
229.744	7.59
230.207	7.5
230.671	7.41
231.134	7.33
231.597	7.24
232.061	7.16
232.524	7.08
232.987	7.01
233.45	6.94
233.914	6.85
234.377	6.76
234.84	6.69
235.303	6.64
235.766	6.57
236.229	6.51
236.691	6.44
237.154	6.38
237.617	6.33
238.08	6.27
238.542	6.22
239.005	6.17
239.468	6.12
239.93	6.06
240.393	6
240.855	5.93
241.317	5.88
241.78	5.83
242.242	5.77
242.704	5.72
243.166	5.66
243.629	5.62
244.091	5.56
244.553	5.51
245.015	5.48
245.477	5.43
245.939	5.39
246.4	5.35
246.862	5.31
247.324	5.28
247.786	5.24
248.247	5.2
248.709	5.15
249.17	5.11
249.632	5.08
250.093	5.04
250.555	5.01
251.016	4.98
251.477	4.94
251.939	4.91
252.4	4.89
252.861	4.87
253.322	4.84
253.783	4.82
254.244	4.81
254.705	4.77
255.166	4.75
255.627	4.72
256.088	4.69
256.549	4.67
257.009	4.63
257.47	4.6
257.931	4.57
258.391	4.54
258.852	4.5
259.312	4.47
259.773	4.45
260.233	4.43
260.694	4.4
261.154	4.38
261.614	4.36
262.074	4.32
262.534	4.3
262.994	4.29
263.455	4.27
263.915	4.25
264.374	4.23
264.834	4.21
265.294	4.19
265.754	4.18
266.214	4.17
266.673	4.15
267.133	4.15
267.593	4.14
268.052	4.12
268.512	4.12
268.971	4.11
269.431	4.09
269.89	4.08
270.349	4.07
270.809	4.06
271.268	4.05
271.727	4.04
272.186	4.02
272.645	4.01
273.104	3.99
273.563	3.98
274.022	3.97
274.481	3.97
274.94	3.96
275.399	3.94
275.857	3.94
276.316	3.93
276.775	3.92
277.233	3.91
277.692	3.9
278.15	3.89
278.609	3.88
279.067	3.87
279.525	3.86
279.984	3.85
280.442	3.83
280.9	3.82
281.358	3.81
281.816	3.79
282.274	3.79
282.732	3.77
283.19	3.76
283.648	3.75
284.106	3.73
284.564	3.73
285.021	3.72
285.479	3.71
285.937	3.7
286.394	3.69
286.852	3.68
287.309	3.67
287.767	3.65
288.224	3.63
288.682	3.62
289.139	3.61
289.596	3.59
290.053	3.57
290.511	3.55
290.968	3.55
291.425	3.53
291.882	3.52
292.339	3.52
292.796	3.51
293.252	3.5
293.709	3.49
294.166	3.48
294.623	3.47
295.079	3.46
295.536	3.46
295.992	3.45
296.449	3.44
296.905	3.43
297.362	3.42
297.818	3.41
298.274	3.4
298.731	3.39
299.187	3.38
299.643	3.37
300.099	3.36
300.555	3.35
301.011	3.35
301.467	3.34
301.923	3.33
302.379	3.33
302.835	3.32
303.291	3.31
303.746	3.31
304.202	3.3
304.658	3.3
305.113	3.29
305.569	3.29
306.024	3.28
306.479	3.27
306.935	3.27
307.39	3.26
307.845	3.26
308.301	3.26
308.756	3.26
309.211	3.26
309.666	3.26
310.121	3.26
310.576	3.25
311.031	3.25
311.486	3.24
311.94	3.25
312.395	3.25
312.85	3.24
313.305	3.24
313.759	3.24
314.214	3.23
314.668	3.22
315.123	3.22
315.577	3.22
316.032	3.22
316.486	3.21
316.94	3.2
317.394	3.19
317.849	3.19
318.303	3.18
318.757	3.17
319.211	3.16
319.665	3.16
320.119	3.14
320.572	3.13
321.026	3.14
321.48	3.13
321.934	3.12
322.387	3.12
322.841	3.11
323.295	3.1
323.748	3.1
324.202	3.1
324.655	3.11
325.108	3.11
325.562	3.11
326.015	3.1
326.468	3.1
326.921	3.09
327.374	3.09
327.827	3.09
328.28	3.08
328.733	3.07
329.186	3.07
329.639	3.06
330.092	3.06
330.545	3.06
330.997	3.06
331.45	3.06
331.903	3.06
332.355	3.07
332.808	3.06
333.26	3.07
333.713	3.07
334.165	3.06
334.617	3.07
335.069	3.05
335.522	3.06
335.974	3.06
336.426	3.05
336.878	3.05
337.33	3.04
337.782	3.04
338.234	3.05
338.686	3.04
339.137	3.05
339.589	3.04
340.041	3.05
340.493	3.04
340.944	3.02
341.396	3.02
341.847	3.01
342.299	3
342.75	2.99
343.201	2.98
343.653	2.97
344.104	2.96
344.555	2.95
345.006	2.94
345.457	2.94
345.908	2.93
346.359	2.93
346.81	2.93
347.261	2.93
347.712	2.93
348.163	2.93
348.613	2.94
349.064	2.94
349.515	2.94
349.965	2.94
350.416	2.94
350.866	2.94
351.317	2.94
351.767	2.93
352.217	2.94
352.668	2.94
353.118	2.94
353.568	2.93
354.018	2.93
354.468	2.94
354.918	2.94
355.368	2.94
355.818	2.95
356.268	2.94
356.718	2.95
357.168	2.94
357.617	2.94
358.067	2.94
358.517	2.96
358.966	2.96
359.416	2.96
359.865	2.96
360.315	2.97
360.764	2.98
361.213	2.98
361.663	2.98
362.112	2.99
362.561	3.01
363.01	3.01
363.459	2.99
363.908	3
364.357	3
364.806	2.99
365.255	3
365.703	3.01
366.152	3.02
366.601	3.03
367.05	3.03
367.498	3.04
367.947	3.05
368.395	3.07
368.844	3.08
369.292	3.1
369.74	3.11
370.189	3.11
370.637	3.12
371.085	3.13
371.533	3.15
371.981	3.17
372.429	3.18
372.877	3.2
373.325	3.21
373.773	3.22
374.221	3.23
374.669	3.26
375.116	3.28
375.564	3.29
376.012	3.32
376.459	3.34
376.907	3.36
377.354	3.39
377.801	3.41
378.249	3.45
378.696	3.47
379.143	3.5
379.591	3.53
380.038	3.57
380.485	3.61
380.932	3.65
381.379	3.68
381.826	3.71
382.273	3.74
382.72	3.76
383.166	3.8
383.613	3.83
384.06	3.87
384.506	3.89
384.953	3.93
385.4	3.96
385.846	4
386.292	4.03
386.739	4.06
387.185	4.1
387.631	4.14
388.078	4.17
388.524	4.22
388.97	4.25
389.416	4.3
389.862	4.34
390.308	4.38
390.754	4.42
391.2	4.47
391.645	4.51
392.091	4.56
392.537	4.59
392.983	4.63
393.428	4.65
393.874	4.69
394.319	4.72
394.765	4.75
395.21	4.77
395.655	4.8
396.101	4.83
396.546	4.85
396.991	4.88
397.436	4.9
397.881	4.95
398.326	4.98
398.771	5.01
399.216	5.03
399.661	5.05
400.106	5.07
400.551	5.08
400.995	5.07
401.44	5.09
401.885	5.1
402.329	5.11
402.774	5.11
403.218	5.13
403.663	5.14
404.107	5.15
404.551	5.15
404.995	5.15
405.44	5.16
405.884	5.17
406.328	5.18
406.772	5.18
407.216	5.19
407.66	5.2
408.104	5.19
408.547	5.18
408.991	5.18
409.435	5.18
409.879	5.18
410.322	5.2
410.766	5.21
411.209	5.22
411.653	5.23
412.096	5.23
412.54	5.22
412.983	5.23
413.426	5.26
413.869	5.28
414.312	5.3
414.756	5.31
415.199	5.31
415.642	5.31
416.085	5.31
416.527	5.31
416.97	5.3
417.413	5.31
417.856	5.32
418.298	5.31
418.741	5.31
419.184	5.3
419.626	5.3
420.069	5.32
420.511	5.32
420.953	5.32
421.396	5.33
421.838	5.35
422.28	5.36
422.722	5.35
423.164	5.35
423.606	5.36
424.048	5.37
424.49	5.38
424.932	5.36
425.374	5.34
425.816	5.33
426.258	5.31
426.699	5.29
427.141	5.28
427.582	5.28
428.024	5.28
428.465	5.27
428.907	5.26
429.348	5.24
429.789	5.23
430.231	5.24
430.672	5.25
431.113	5.26
431.554	5.28
431.995	5.28
432.436	5.29
432.877	5.29
433.318	5.32
433.759	5.33
434.2	5.36
434.64	5.38
435.081	5.39
435.522	5.4
435.962	5.42
436.403	5.45
436.843	5.46
437.284	5.48
437.724	5.49
438.164	5.5
438.604	5.52
439.045	5.55
439.485	5.58
439.925	5.59
440.365	5.62
440.805	5.63
441.245	5.67
441.685	5.7
442.125	5.75
442.564	5.78
443.004	5.8
443.444	5.84
443.883	5.86
444.323	5.88
444.762	5.92
445.202	5.95
445.641	6
446.081	6.02
446.52	6.06
446.959	6.09
447.398	6.14
447.837	6.17
448.276	6.2
448.716	6.25
449.154	6.3
449.593	6.33
450.032	6.37
450.471	6.38
450.91	6.4
451.349	6.43
451.787	6.46
452.226	6.47
452.664	6.49
453.103	6.49
453.541	6.5
453.98	6.51
454.418	6.51
454.856	6.52
455.295	6.53
455.733	6.52
456.171	6.52
456.609	6.51
457.047	6.49
457.485	6.49
457.923	6.5
458.361	6.5
458.798	6.51
459.236	6.51
459.674	6.52
460.111	6.52
460.549	6.54
460.987	6.55
461.424	6.56
461.862	6.57
462.299	6.57
462.736	6.58
463.173	6.57
463.611	6.56
464.048	6.58
464.485	6.58
464.922	6.59
465.359	6.59
465.796	6.6
466.233	6.6
466.67	6.61
467.106	6.62
467.543	6.62
467.98	6.62
468.416	6.62
468.853	6.62
469.29	6.63
469.726	6.63
470.162	6.64
470.599	6.64
471.035	6.65
471.471	6.65
471.907	6.66
472.344	6.67
472.78	6.7
473.216	6.72
473.652	6.72
474.088	6.71
474.523	6.72
474.959	6.73
475.395	6.73
475.831	6.72
476.266	6.72
476.702	6.72
477.138	6.72
477.573	6.72
478.008	6.73
478.444	6.74
478.879	6.75
479.314	6.75
479.75	6.75
480.185	6.75
480.62	6.76
481.055	6.75
481.49	6.76
481.925	6.77
482.36	6.77
482.795	6.78
483.229	6.77
483.664	6.79
484.099	6.8
484.534	6.8
484.968	6.82
485.403	6.83
485.837	6.85
486.271	6.88
486.706	6.91
487.14	6.93
487.574	6.95
488.009	6.99
488.443	7.02
488.877	7.06
489.311	7.1
489.745	7.15
490.179	7.21
490.613	7.26
491.046	7.31
491.48	7.36
491.914	7.42
492.348	7.49
492.781	7.56
493.215	7.63
493.648	7.7
494.082	7.78
494.515	7.86
494.948	7.93
495.382	8.01
495.815	8.1
496.248	8.2
496.681	8.3
497.114	8.4
497.547	8.5
497.98	8.6
498.413	8.7
498.846	8.81
499.279	8.93
499.711	9.06
500.144	9.2
500.577	9.32
501.009	9.45
501.442	9.59
501.874	9.73
502.306	9.88
502.739	10.04
503.171	10.2
503.603	10.37
504.036	10.54
504.468	10.71
504.9	10.88
505.332	11.05
505.764	11.24
506.196	11.43
506.627	11.62
507.059	11.82
507.491	12.01
507.923	12.21
508.354	12.44
508.786	12.65
509.217	12.88
509.649	13.11
510.08	13.35
510.512	13.57
510.943	13.8
511.374	14.04
511.805	14.28
512.237	14.52
512.668	14.77
513.099	14.98
513.53	15.22
513.961	15.45
514.391	15.7
514.822	15.94
515.253	16.18
515.684	16.42
516.114	16.66
516.545	16.91
516.975	17.15
517.406	17.39
517.836	17.64
518.267	17.89
518.697	18.12
519.127	18.33
519.558	18.56
519.988	18.79
520.418	19.01
520.848	19.22
521.278	19.44
521.708	19.78
522.138	19.98
522.567	20.17
522.997	20.36
523.427	20.56
523.857	20.75
524.286	20.91
524.716	21.08
525.145	21.26
525.575	21.42
526.004	21.57
526.433	21.59
526.863	21.73
527.292	21.88
527.721	22.01
528.15	22.14
528.579	22.25
529.008	22.37
529.437	22.47
529.866	22.57
530.295	22.68
530.724	22.78
531.152	22.88
531.581	22.98
532.01	23.06
532.438	23.15
532.867	23.23
533.295	23.32
533.723	23.39
534.152	23.47
534.58	23.53
535.008	23.58
535.436	23.64
535.865	23.68
536.293	23.71
536.721	23.76
537.149	23.81
537.576	23.84
538.004	23.88
538.432	23.91
538.86	23.96
539.287	23.98
539.715	24.03
540.143	24.06
540.57	24.09
540.998	24.12
541.425	24.14
541.852	24.16
542.28	24.19
542.707	24.21
543.134	24.23
543.561	24.25
543.988	24.28
544.415	24.27
544.842	24.29
545.269	24.3
545.696	24.31
546.123	24.34
546.549	24.35
546.976	24.36
547.403	24.38
547.829	24.39
548.256	24.39
548.682	24.42
549.108	24.43
549.535	24.45
549.961	24.46
550.387	24.47
550.813	24.46
551.24	24.46
551.666	24.46
552.092	24.45
552.518	24.45
552.943	24.44
553.369	24.42
553.795	24.41
554.221	24.38
554.646	24.37
555.072	24.35
555.498	24.32
555.923	24.29
556.349	24.24
556.774	24.21
557.199	24.16
557.625	24.12
558.05	24.05
558.475	24
558.9	23.95
559.325	23.92
559.75	23.88
560.175	23.83
560.6	23.77
561.025	23.73
561.449	23.66
561.874	23.59
562.299	23.54
562.723	23.48
563.148	23.41
563.572	23.32
563.997	23.21
564.421	23.11
564.846	23.02
565.27	22.93
565.694	22.84
566.118	22.75
566.542	22.66
566.966	22.55
567.39	22.46
567.814	22.36
568.238	22.27
568.662	22.18
569.086	22.1
569.509	22.02
569.933	21.93
570.357	21.83
570.78	21.73
571.204	21.64
571.627	21.54
572.05	21.45
572.474	21.37
572.897	21.29
573.32	21.19
573.743	21.08
574.166	20.98
574.589	20.87
575.012	20.79
575.435	20.7
575.858	20.6
576.281	20.52
576.704	20.43
577.126	20.35
577.549	20.26
577.972	20.17
578.394	20.09
578.817	20.03
579.239	19.97
579.661	19.91
580.084	19.84
580.506	19.8
580.928	19.74
581.35	19.69
581.772	19.62
582.194	19.56
582.616	19.51
583.038	19.47
583.46	19.39
583.882	19.32
584.303	19.26
584.725	19.2
585.147	19.13
585.568	19.08
585.99	19.03
586.411	18.98
586.833	18.94
587.254	18.88
587.675	18.83
588.096	18.8
588.518	18.76
588.939	18.72
589.36	18.67
589.781	18.64
590.202	18.6
590.623	18.56
591.043	18.52
591.464	18.49
591.885	18.45
592.305	18.42
592.726	18.39
593.147	18.38
593.567	18.33
593.987	18.31
594.408	18.28
594.828	18.26
595.248	18.23
595.669	18.2
596.089	18.18
596.509	18.17
596.929	18.15
597.349	18.11
597.769	18.07
598.189	18.05
598.608	18.03
599.028	18
599.448	17.97
599.867	17.94
600.287	17.92
600.706	17.88
601.126	17.84
601.545	17.81
601.965	17.77
602.384	17.75
602.803	17.72
603.222	17.68
603.641	17.64
604.061	17.6
604.48	17.53
604.898	17.47
605.317	17.42
605.736	17.38
606.155	17.32
606.574	17.27
606.992	17.2
607.411	17.14
607.829	17.06
608.248	16.99
608.666	16.92
609.085	16.86
609.503	16.8
609.921	16.74
610.339	16.67
610.758	16.59
611.176	16.52
611.594	16.46
612.012	16.38
612.43	16.32
612.847	16.25
613.265	16.18
613.683	16.11
614.101	16.04
614.518	15.97
614.936	15.9
615.353	15.82
615.771	15.78
616.188	15.7
616.606	15.63
617.023	15.58
617.44	15.54
617.857	15.5
618.274	15.46
618.691	15.41
619.108	15.37
619.525	15.33
619.942	15.31
620.359	15.27
620.776	15.24
621.192	15.23
621.609	15.21
622.026	15.16
622.442	15.13
622.859	15.1
623.275	15.08
623.691	15.06
624.108	15.04
624.524	15.01
624.94	15
625.356	14.99
625.772	14.97
626.188	14.96
626.604	14.96
627.02	14.96
627.436	14.96
627.852	14.94
628.268	14.94
628.683	14.94
629.099	14.93
629.514	14.91
629.93	14.9
630.345	14.88
630.761	14.85
631.176	14.82
631.591	14.79
632.007	14.74
632.422	14.71
632.837	14.66
633.252	14.61
633.667	14.56
634.082	14.51
634.497	14.45
634.911	14.37
635.326	14.3
635.741	14.22
636.155	14.14
636.57	14.06
636.984	13.96
637.399	13.87
637.813	13.76
638.228	13.65
638.642	13.54
639.056	13.42
639.47	13.31
639.884	13.2
640.298	13.07
640.712	12.96
641.126	12.84
641.54	12.73
641.954	12.6
642.368	12.49
642.781	12.38
643.195	12.26
643.609	12.14
644.022	12.03
644.436	11.93
644.849	11.81
645.262	11.71
645.676	11.61
646.089	11.51
646.502	11.44
646.915	11.35
647.328	11.26
647.741	11.19
648.154	11.13
648.567	11.07
648.98	11.01
649.393	10.96
649.805	10.91
650.218	10.86
650.631	10.8
651.043	10.75
651.456	10.69
651.868	10.64
652.28	10.58
652.693	10.52
653.105	10.47
653.517	10.41
653.929	10.35
654.341	10.28
654.753	10.2
655.165	10.11
655.577	10.03
655.989	9.94
656.401	9.85
656.813	9.76
657.224	9.65
657.636	9.54
658.047	9.42
658.459	9.31
658.87	9.19
659.282	9.07
659.693	8.96
660.104	8.83
660.515	8.71
660.926	8.6
661.338	8.47
661.749	8.36
662.159	8.23
662.57	8.13
662.981	8.01
663.392	7.91
663.803	7.81
664.213	7.69
664.624	7.59
665.035	7.5
665.445	7.41
665.855	7.32
666.266	7.24
666.676	7.17
667.086	7.09
667.497	7.01
667.907	6.95
668.317	6.89
668.727	6.85
669.137	6.81
669.547	6.76
669.956	6.72
670.366	6.69
670.776	6.65
671.186	6.62
671.595	6.59
672.005	6.58
672.414	6.57
672.824	6.56
673.233	6.55
673.642	6.54
674.052	6.53
674.461	6.53
674.87	6.53
675.279	6.54
675.688	6.55
676.097	6.57
676.506	6.58
676.915	6.59
677.323	6.61
677.732	6.64
678.141	6.69
678.549	6.74
678.958	6.8
679.366	6.88
679.775	6.94
680.183	7.02
680.592	7.13
681	7.25
681.408	7.38
681.816	7.54
682.224	7.71
682.632	7.88
683.04	8.07
683.448	8.29
683.856	8.5
684.264	8.76
684.671	9.03
685.079	9.32
685.487	9.64
685.894	9.97
686.302	10.32
686.709	10.69
687.116	11.07
687.524	11.47
687.931	11.88
688.338	12.32
688.745	12.75
689.152	13.21
689.559	13.67
689.966	14.12
690.373	14.59
690.78	15.06
691.187	15.54
691.593	16.01
692	16.48
692.407	16.95
692.813	17.43
693.22	17.89
693.626	18.34
694.032	18.79
694.439	19.23
694.845	19.66
695.251	20.08
695.657	20.47
696.063	20.89
696.469	21.28
696.875	21.68
697.281	22.06
697.687	22.44
698.093	22.82
698.498	23.16
698.904	23.51
699.31	23.86
699.715	24.2
700.12	24.54
700.526	24.87
700.931	25.19
701.337	25.48
701.742	25.75
702.147	26.05
702.552	26.33
702.957	26.57
703.362	26.82
703.767	27.06
704.172	27.29
704.577	27.51
704.981	27.73
705.386	27.95
705.791	28.18
706.195	28.41
706.6	28.62
707.004	28.8
707.408	29.03
707.813	29.25
708.217	29.45
708.621	29.65
709.025	29.84
709.43	30.02
709.834	30.19
710.237	30.34
710.641	30.5
711.045	30.64
711.449	30.81
711.853	30.97
712.256	31.11
712.66	31.24
713.064	31.37
713.467	31.51
713.87	31.65
714.274	31.76
714.677	31.91
715.08	32.03
715.484	32.18
715.887	32.31
716.29	32.41
716.693	32.53
717.096	32.65
717.499	32.76
717.901	32.88
718.304	32.99
718.707	33.11
719.109	33.23
719.512	33.32
719.915	33.41
720.317	33.47
720.719	33.53
721.122	33.64
721.524	33.74
721.926	33.8
722.328	33.89
722.731	33.98
723.133	34.06
723.535	34.11
723.937	34.18
724.338	34.24
724.74	34.32
725.142	34.45
725.544	34.49
725.945	34.56
726.347	34.64
726.748	34.68
727.15	34.71
727.551	34.78
727.952	34.83
728.354	34.88
728.755	34.94
729.156	34.99
729.557	34.97
729.958	35
730.359	35.01
730.76	35.06
731.161	35.1
731.562	35.15
731.962	35.16
732.363	35.18
732.763	35.19
733.164	35.19
733.564	35.24
733.965	35.26
734.365	35.33
734.766	35.33
735.166	35.35
735.566	35.37
735.966	35.4
736.366	35.41
736.766	35.42
737.166	35.45
737.566	35.49
737.966	35.5
738.365	35.52
738.765	35.52
739.165	35.56
739.564	35.57
739.964	35.6
740.363	35.59
740.763	35.62
741.162	35.65
741.561	35.67
741.96	35.67
742.36	35.67
742.759	35.69
743.158	35.69
743.557	35.69
743.955	35.71
744.354	35.72
744.753	35.76
745.152	35.76
745.55	35.76
745.949	35.76
746.348	35.77
746.746	35.78
747.144	35.76
747.543	35.77
747.941	35.78
748.339	35.77
748.737	35.75
749.136	35.72
749.534	35.71
749.932	35.73
750.33	35.74
750.727	35.76
751.125	35.76
751.523	35.77
751.921	35.77
752.318	35.77
752.716	35.78
753.113	35.81
753.511	35.82
753.908	35.84
754.305	35.83
754.703	35.82
755.1	35.8
755.497	35.81
755.894	35.79
756.291	35.79
756.688	35.76
757.085	35.76
757.482	35.72
757.878	35.7
758.275	35.68
758.672	35.66
759.068	35.68
759.465	35.66
759.861	35.64
760.258	35.66
760.654	35.67
761.05	35.66
761.447	35.68
761.843	35.69
762.239	35.69
762.635	35.69
763.031	35.7
763.427	35.68
763.822	35.7
764.218	35.73
764.614	35.72
765.01	35.72
765.405	35.71
765.801	35.69
766.196	35.69
766.592	35.7
766.987	35.69
767.382	35.7
767.778	35.69
768.173	35.68
768.568	35.66
768.963	35.66
769.358	35.68
769.753	35.7
770.148	35.7
770.542	35.71
770.937	35.71
771.332	35.73
771.726	35.71
772.121	35.72
772.515	35.72
772.91	35.7
773.304	35.71
773.699	35.71
774.093	35.67
774.487	35.67
774.881	35.65
775.275	35.65
775.669	35.63
776.063	35.61
776.457	35.62
776.851	35.6
777.245	35.58
777.638	35.57
778.032	35.58
778.425	35.59
778.819	35.58
779.212	35.58
779.606	35.58
779.999	35.56
780.392	35.57
780.786	35.54
781.179	35.56
781.572	35.59
781.965	35.6
782.358	35.59
782.751	35.6
783.143	35.6
783.536	35.59
783.929	35.57
784.322	35.59
784.714	35.59
785.107	35.59
785.499	35.57
785.891	35.56
786.284	35.54
786.676	35.52
787.068	35.49
787.46	35.5
787.852	35.51
788.245	35.5
788.636	35.48
789.028	35.48
789.42	35.47
789.812	35.49
790.204	35.5
790.595	35.51
790.987	35.52
791.378	35.53
791.77	35.53
792.161	35.51
792.553	35.53
792.944	35.52
793.335	35.54
793.726	35.53
794.117	35.5
794.508	35.47
794.899	35.44
795.29	35.43
795.681	35.42
796.072	35.39
796.463	35.4
796.853	35.38
797.244	35.38
797.634	35.36
798.025	35.36
798.415	35.36
798.806	35.35
799.196	35.37
799.586	35.37
799.976	35.38
800.366	35.39
800.756	35.37
801.146	35.37
801.536	35.38
801.926	35.38
802.316	35.4
802.706	35.39
803.095	35.41
803.485	35.39
803.874	35.39
804.264	35.37
804.653	35.38
805.043	35.38
805.432	35.38
805.821	35.35
806.21	35.33
806.599	35.3
806.988	35.3
807.377	35.27
807.766	35.28
808.155	35.24
808.544	35.25
808.933	35.23
809.321	35.24
809.71	35.22
810.098	35.23
810.487	35.22
810.875	35.24
811.264	35.24
811.652	35.25
812.04	35.23
812.428	35.25
812.816	35.22
813.204	35.23
813.592	35.18
813.98	35.18
814.368	35.16
814.756	35.14
815.144	35.1
815.531	35.09
815.919	35.08
816.306	35.09
816.694	35.07
817.081	35.1
817.469	35.09
817.856	35.11
818.243	35.12
818.63	35.13
819.017	35.16
819.404	35.17
819.791	35.17
820.178	35.18
820.565	35.16
820.952	35.16
821.339	35.14
821.725	35.14
822.112	35.14
822.498	35.13
822.885	35.14
823.271	35.11
823.657	35.08
824.044	35.08
824.43	35.07
824.816	35.08
825.202	35.05
825.588	35.05
825.974	35.05
826.36	35.02
826.746	35.02
827.132	34.99
827.517	35
827.903	35.03
828.289	35.03
828.674	35.04
829.06	35.04
829.445	35.05
829.83	35.03
830.216	35.03
830.601	35.04
830.986	35.04
831.371	35.05
831.756	35.04
832.141	35.03
832.526	35.01
832.911	34.99
833.295	34.98
833.68	34.99
834.065	35
834.449	35
834.834	35
835.218	35
835.603	35
835.987	34.98
836.371	34.98
836.755	34.97
837.139	34.97
837.524	34.97
837.908	34.96
838.291	34.97
838.675	34.95
839.059	34.93
839.443	34.91
839.827	34.9
840.21	34.91
840.594	34.91
840.977	34.9
841.361	34.9
841.744	34.87
842.127	34.85
842.511	34.83
842.894	34.83
843.277	34.82
843.66	34.81
844.043	34.82
844.426	34.83
844.809	34.82
845.191	34.84
845.574	34.82
845.957	34.83
846.339	34.85
846.722	34.83
847.104	34.85
847.487	34.84
847.869	34.86
848.252	34.85
848.634	34.83
849.016	34.85
849.398	34.85
849.78	34.88
850.162	34.86
850.544	34.86
850.926	34.88
851.307	34.87
851.689	34.87
852.071	34.86
852.452	34.85
852.834	34.86
853.215	34.82
853.597	34.81
853.978	34.8
854.359	34.8
854.741	34.8
855.122	34.8
855.503	34.79
855.884	34.78
856.265	34.79
856.646	34.78
857.026	34.8
857.407	34.8
857.788	34.8
858.169	34.8
858.549	34.79
858.93	34.79
859.31	34.78
859.69	34.78
860.071	34.79
860.451	34.78
860.831	34.78
861.211	34.76
861.591	34.76
861.971	34.74
862.351	34.73
862.731	34.74
863.111	34.72
863.491	34.73
863.87	34.7
864.25	34.71
864.629	34.71
865.009	34.71
865.388	34.7
865.768	34.72
866.147	34.73
866.526	34.72
866.905	34.71
867.284	34.74
867.663	34.73
868.042	34.74
868.421	34.74
868.8	34.74
869.179	34.74
869.558	34.74
869.936	34.74
870.315	34.72
870.693	34.73
871.072	34.74
871.45	34.75
871.828	34.74
872.207	34.75
872.585	34.74
872.963	34.75
873.341	34.75
873.719	34.74
874.097	34.72
874.475	34.74
874.853	34.74
875.23	34.73
875.608	34.72
875.986	34.76
876.363	34.75
876.741	34.76
877.118	34.75
877.495	34.74
877.873	34.77
878.25	34.78
878.627	34.78
879.004	34.79
879.381	34.8
879.758	34.78
880.135	34.74
880.512	34.74
880.889	34.74
881.265	34.74
881.642	34.75
882.019	34.74
882.395	34.74
882.772	34.72
883.148	34.7
883.524	34.69
883.901	34.69
884.277	34.69
884.653	34.68
885.029	34.68
885.405	34.69
885.781	34.67
886.157	34.67
886.532	34.65
886.908	34.65
887.284	34.66
887.659	34.65
888.035	34.66
888.411	34.66
888.786	34.67
889.161	34.67
889.537	34.64
889.912	34.64
890.287	34.62
890.662	34.62
891.037	34.63
891.412	34.62
891.787	34.6
892.162	34.59
892.536	34.59
892.911	34.58
893.286	34.57
893.66	34.57
894.035	34.57
894.409	34.57
894.784	34.58
895.158	34.54
895.532	34.56
895.906	34.57
896.281	34.56
896.655	34.54
897.029	34.55
897.402	34.55
897.776	34.54
898.15	34.57
898.524	34.59
898.898	34.58
899.271	34.6
899.645	34.6
900.018	34.61
900.392	34.62
900.765	34.65
901.138	34.65
901.511	34.66
901.884	34.68
902.258	34.65
902.631	34.63
903.003	34.63
903.376	34.64
903.749	34.62
904.122	34.65
904.495	34.66
904.867	34.67
905.24	34.66
905.612	34.65
905.985	34.64
906.357	34.65
906.729	34.66
907.102	34.67
907.474	34.66
907.846	34.65
908.218	34.62
908.59	34.62
908.962	34.63
909.334	34.63
909.705	34.64
910.077	34.66
910.449	34.65
910.82	34.65
911.192	34.63
911.563	34.65
911.935	34.64
912.306	34.65
912.677	34.62
913.048	34.61
913.419	34.59
913.79	34.58
914.161	34.57
914.532	34.58
914.903	34.6
915.274	34.59
915.645	34.58
916.015	34.6
916.386	34.61
916.756	34.63
917.127	34.64
917.497	34.63
917.868	34.63
918.238	34.64
918.608	34.64
918.978	34.65
919.348	34.66
919.718	34.66
920.088	34.68
920.458	34.7
920.828	34.66
921.198	34.64
921.567	34.66
921.937	34.7
922.306	34.68
922.676	34.67
923.045	34.68
923.415	34.65
923.784	34.66
924.153	34.64
924.522	34.61
924.891	34.62
925.26	34.63
925.629	34.61
925.998	34.58
926.367	34.59
926.736	34.59
927.104	34.59
927.473	34.59
927.842	34.59
928.21	34.59
928.578	34.59
928.947	34.61
929.315	34.61
929.683	34.64
930.051	34.61
930.42	34.62
930.788	34.61
931.156	34.57
931.523	34.55
931.891	34.56
932.259	34.57
932.627	34.58
932.994	34.56
933.362	34.56
933.729	34.57
934.097	34.61
934.464	34.63
934.831	34.64
935.199	34.68
935.566	34.7
935.933	34.67
936.3	34.67
936.667	34.64
937.034	34.7
937.401	34.74
937.767	34.74
938.134	34.73
938.501	34.72
938.867	34.75
939.234	34.69
939.6	34.71
939.967	34.73
940.333	34.72
940.699	34.72
941.065	34.65
941.431	34.6
941.798	34.54
942.163	34.49
942.529	34.49
942.895	34.46
943.261	34.47
943.627	34.4
943.992	34.39
944.358	34.38
944.723	34.38
945.089	34.35
945.454	34.32
945.82	34.3
946.185	34.35
946.55	34.29
946.915	34.29
947.28	34.29
947.645	34.27
948.01	34.32
948.375	34.3
948.74	34.3
949.104	34.3
949.469	34.3
949.834	34.3
950.198	34.25
950.562	34.19
950.927	34.14
951.291	34.07
951.655	34.05
952.02	33.98
952.384	33.95
952.748	33.93
953.112	33.92
953.476	33.88
953.839	33.82
954.203	33.81
954.567	33.83
954.931	33.83
955.294	33.83
955.658	33.87
956.021	33.89
956.385	33.87
956.748	33.87
957.111	33.87
957.474	33.93
957.837	33.96
958.2	33.95
958.563	33.97
958.926	33.99
959.289	34.03
959.652	33.99
960.015	33.96
960.377	33.99
960.74	34.01
961.102	34.02
961.465	34.01
961.827	34.08
962.189	34.15
962.552	34.13
962.914	34.1
963.276	34.11
963.638	34.14
964	34.13
964.362	34.12
964.724	34.06
965.085	34.06
965.447	34.06
965.809	34.01
966.17	33.96
966.532	33.96
966.893	34.01
967.255	33.99
967.616	34.01
967.977	34.05
968.338	34.07
968.699	34.12
969.061	34.11
969.421	34.08
969.782	34.08
970.143	34.12
970.504	34.12
970.865	34.13
971.225	34.14
971.586	34.17
971.946	34.14
972.307	34.18
972.667	34.09
973.027	34.09
973.388	34.13
973.748	34.16
974.108	34.2
974.468	34.22
974.828	34.23
975.188	34.25
975.548	34.18
975.907	34.18
976.267	34.15
976.627	34.22
976.986	34.23
977.346	34.2
977.705	34.18
978.064	34.12
978.424	34.15
978.783	34.11
979.142	34.09
979.501	34.11
979.86	34.17
980.219	34.2
980.578	34.25
980.937	34.29
981.296	34.29
981.654	34.28
982.013	34.31
982.371	34.29
982.73	34.29
983.088	34.3
983.447	34.31
983.805	34.25
984.163	34.28
984.521	34.21
984.879	34.14
985.237	34.17
985.595	34.22
985.953	34.22
986.311	34.23
986.669	34.23
987.026	34.2
987.384	34.25
987.741	34.25
988.099	34.22
988.456	34.28
988.814	34.35
989.171	34.32
989.528	34.36
989.885	34.31
990.242	34.32
990.599	34.37
990.956	34.37
991.313	34.34
991.67	34.36
992.027	34.53
992.383	34.5
992.74	34.59
993.096	34.58
993.453	34.54
993.809	34.67
994.165	34.71
994.522	34.78
994.878	34.92
995.234	34.99
995.59	35.03
995.946	34.88
996.302	34.89
996.658	34.83
997.013	34.93
997.369	34.92
997.725	34.91
998.08	34.92
998.436	34.76
998.791	34.73
999.147	34.63
999.502	34.63
999.857	34.62
1000.212	34.55
1000.567	34.58
1000.922	34.61
1001.277	34.57
1001.632	34.5
1001.987	34.46
1002.342	34.49
1002.696	34.52
1003.051	34.67
1003.406	34.72
1003.76	34.7
1004.114	34.67
1004.469	34.62
1004.823	34.83
1005.177	34.94
1005.531	35.03
1005.885	35.03
1006.239	35.16
1006.593	35.18
1006.947	35.11
1007.301	35.05
1007.655	35.08
1008.008	35.29
1008.362	35.46
1008.715	35.15
1009.069	35.16
1009.422	35.09
1009.776	35.09
1010.129	35.15
1010.482	35.1
1010.835	35.17
1011.188	35.2
1011.541	35.28
1011.894	35.26
1012.247	35.09
1012.6	35.2
1012.952	35.12
1013.305	35.31
1013.657	35.36
1014.01	35.2
1014.362	35.27
1014.715	35.42
1015.067	35.57
1015.419	35.74
1015.771	35.74
1016.123	35.79
1016.475	35.69
1016.827	35.79
1017.179	35.78
1017.531	35.83
1017.883	35.93
1018.234	36.1
1018.586	35.96
1018.938	35.91
1019.289	35.68
1019.64	35.8
1019.992	35.92
1020.343	36.01
1020.694	35.98
1021.045	35.86
1021.396	35.86
1021.747	35.89
1022.098	35.64
1022.449	35.62
1022.8	35.72
1023.151	35.79
1023.501	35.76
1023.852	35.94
1024.202	36.01
1024.553	36.1
1024.903	36.18
1025.253	36.26
1025.604	36.34
1025.954	36.25
1026.304	36.34
1026.654	36.29
1027.004	36.13
1027.354	35.94
1027.703	35.39
1028.053	35.34
1028.403	35.6
1028.753	35.54
1029.102	35.54
1029.452	35.48
1029.801	35.71
1030.15	35.57
1030.499	35.36
897.758	1010.79
901.051	1016.16
904.343	1015.31
907.636	1032.99
910.928	1005.65
914.22	1006.25
917.511	993.8
920.803	951.35
924.094	944.45
927.384	922.1
930.675	884.98
933.965	882.4
937.255	829.57
940.544	795.73
943.834	760.4
947.123	754.06
950.411	709.43
953.7	694.36
956.988	658.61
960.276	633.04
963.563	621.81
966.851	601.88
970.138	596.69
973.424	579.65
976.711	581.49
979.997	549.67
983.283	545.9
986.568	534.62
989.853	518.62
993.138	508.43
996.423	488.19
999.708	474.75
1002.992	467.11
1006.275	445.73
1009.559	440.83
1012.842	427.31
1016.125	416.56
1019.408	408.91
1022.69	403.57
1025.972	395.32
1029.254	385.63
1032.536	379.84
1035.817	371.79
1039.098	369.06
1042.379	360.94
1045.659	357.21
1048.939	345.95
1052.219	338.9
1055.498	334.89
1058.778	326.74
1062.057	320.02
1065.335	317.04
1068.614	312.76
1071.892	310.01
1075.17	298.86
1078.447	293.66
1081.724	290.96
1085.001	289.63
1088.278	284.54
1091.554	278.21
1094.83	278.44
1098.106	275.12
1101.382	273.54
1104.657	272.05
1107.932	266.96
1111.206	269.43
1114.481	262.2
1117.755	259.98
1121.029	257.36
1124.302	256.65
1127.575	251.27
1130.848	248.25
1134.121	245.66
1137.393	243.54
1140.665	237.8
1143.937	236.35
1147.208	234.07
1150.48	233.73
1153.75	231.48
1157.021	228.75
1160.291	228.62
1163.561	226.67
1166.831	226.26
1170.101	224.66
1173.37	224.99
1176.639	226
1179.907	223.95
1183.176	221.6
1186.444	221.69
1189.711	220.9
1192.979	220.23
1196.246	218.52
1199.513	220.01
1202.78	218.83
1206.046	218.47
1209.312	215.72
1212.578	215.86
1215.843	217.39
1219.108	215.82
1222.373	219.73
1225.638	220.95
1228.902	223.7
1232.166	225.12
1235.43	226.01
1238.693	229.22
1241.956	230.48
1245.219	234.02
1248.482	233.8
1251.744	233.75
1255.006	234.52
1258.268	228.75
1261.529	227.07
1264.79	225.44
1268.051	223.43
1271.312	220.56
1274.572	217.72
1277.832	216.06
1281.092	212.68
1284.351	211.53
1287.61	211.56
1290.869	208.67
1294.128	207.82
1297.386	206.96
1300.644	205.25
1303.902	205.22
1307.159	205.05
1310.416	204.86
1313.673	204.1
1316.93	206.49
1320.186	206.19
1323.442	206.81
1326.697	209.67
1329.953	210.32
1333.208	211.89
1336.463	213.47
1339.717	214.36
1342.972	216.01
1346.226	218.52
1349.479	220.05
1352.733	220.42
1355.986	221.8
1359.238	221.48
1362.491	222.64
1365.743	224.73
1368.995	224.47
1372.247	225.37
1375.498	224.89
1378.749	226.93
1382	224.28
1385.251	224.1
1388.501	222.33
1391.751	222.92
1395	222.16
1398.25	220.71
1401.499	219.19
1404.748	218.96
1407.996	216.59
1411.244	215.66
1414.492	214.16
1417.74	211.67
1420.987	209.55
1424.234	209.58
1427.481	206.03
1430.728	206.05
1433.974	204.67
1437.22	202.38
1440.465	201.47
1443.711	199.53
1446.956	197.89
1450.201	195.45
1453.445	194.21
1456.689	192.58
1459.933	189.32
1463.177	188.7
1466.42	185.04
1469.663	182.62
1472.906	181.66
1476.148	177.43
1479.391	175.01
1482.633	173.99
1485.874	171.65
1489.115	169.91
1492.356	168.64
1495.597	167.92
1498.838	165.02
1502.078	164.6
1505.318	163.89
1508.557	163.71
1511.797	163.71
1515.036	162.72
1518.274	161.57
1521.513	160.8
1524.751	159.87
1527.989	158.99
1531.227	158.65
1534.464	158.8
1537.701	157.27
1540.938	156.88
1544.174	155.33
1547.41	154.63
1550.646	154.15
1553.882	154.52
1557.117	151.67
1560.352	151.84
1563.587	151.15
1566.821	150.18
1570.055	148.83
1573.289	147.52
1576.523	147.5
1579.756	146.07
1582.989	145.79
1586.222	145.44
1589.454	143.94
1592.686	145.27
1595.918	144.16
1599.15	143.76
1602.381	144.36
1605.612	144.33
1608.843	145.11
1612.073	144.65
1615.303	145.56
1618.533	145.47
1621.762	145.44
1624.992	146.13
1628.221	145.7
1631.449	145.67
1634.678	145.15
1637.906	145.43
1641.134	145.77
1644.361	145.54
1647.588	145.53
1650.815	145.01
1654.042	144.32
1657.269	145.32
1660.495	145.42
1663.72	145
1666.946	145.64
1670.171	146.58
1673.396	146.04
1676.621	146.18
1679.845	146.47
1683.069	146.38
1686.293	147.33
1689.517	148.12
1692.74	147.77
1695.963	147.9
1699.185	149.7
1702.408	149.54
1705.63	150.3
1708.852	151.03
1712.073	150.46
1715.294	150.93
1718.515	152.35
1721.736	152.02
1724.956	152.71
1728.176	152.7
1731.396	153.99
1734.616	153.19
1737.835	154.15
1741.054	152.78
1744.272	153.05
1747.491	154.85
1750.709	155.1
1753.927	154.99
1757.144	154.66
1760.361	155.15
1763.578	155.75
1766.795	155.55
1770.011	156.57
1773.227	156.41
1776.443	158.25
1779.658	158.68
1782.874	158.2
1786.089	158.62
1789.303	159.17
1792.518	160.88
1795.732	160.67
1798.945	161.67
1802.159	162.39
1805.372	163.07
1808.585	165.66
1811.797	165.87
1815.01	166.16
1818.222	167.74
1821.434	169.54
1824.645	170.14
1827.856	172.95
1831.067	174.18
1834.278	173.96
1837.488	175.32
1840.698	175.95
1843.908	174.67
1847.117	175.55
1850.326	177.18
1853.535	175.81
1856.744	178.22
1859.952	177.65
1863.16	176.58
1866.368	175.9
1869.575	177.65
1872.782	174.7
1875.989	174.9
1879.196	174.21
1882.402	173.48
1885.608	173.75
1888.814	174.96
1892.019	173.67
1895.224	173.9
1898.429	173.84
1901.634	174.63
1904.838	174.6
1908.042	176.83
1911.246	176.67
1914.449	178.2
1917.652	178.55
1920.855	178.52
1924.058	178.11
1927.26	178.05
1930.462	178.37
1933.664	179.87
1936.865	178.65
1940.066	178.22
1943.267	177.49
1946.467	177.1
1949.668	178.06
1952.868	179.97
1956.067	179.96
1959.267	181.57
1962.466	181.68
1965.665	180.94
1968.863	180.71
1972.061	183.58
1975.259	185.03
1978.457	186.27
1981.654	188.46
1984.852	188.65
1988.048	188.24
1991.245	189.51
1994.441	191.09
1997.637	192.72
2000.833	195.98
2004.028	198.75
2007.223	199.26
2010.418	201.45
2013.613	204.7
2016.807	207.24
2020.001	209.11
2023.194	212.91
2026.388	217.43
2029.581	222.03
2032.774	223.75
2035.966	228
2039.158	228.48
2042.35	233.46
2045.542	234.8
2048.733	237.72
2051.924	240.82
2055.115	244.77
2058.306	244.19
2061.496	246.93
2064.686	246.49
2067.875	250.74
2071.065	252.73
2074.254	251.09
2077.442	253.45
2080.631	254.3
2083.819	257.45
2087.007	257.82
2090.195	261.24
2093.382	263.16
2096.569	261.98
2099.756	266.04
2102.942	267.65
2106.128	269.2
2109.314	275.57
2112.5	274.76
2115.685	282.25
2118.87	282.75
2122.055	288.92
2125.239	289.64
2128.424	294.77
2131.608	295.79
2134.791	300.15
2137.974	300.36
2141.157	301.35
2144.34	302.95
2147.523	307.55
2150.705	305.23
2153.887	307.43
2157.068	307.03
2160.25	305.94
2163.431	307.23
2166.611	311.79
2169.792	315.36
2172.972	320.1
2176.152	322.31
2179.331	326.45
2182.511	332.15
2185.69	335.03
2188.868	341.4
2192.047	343.32
2195.225	352.87
2198.403	360.31
2201.58	366.4
2204.758	374.83
2207.935	380.82
2211.111	387.76
2214.288	392.56
2217.464	393.4
2220.64	400.08
2223.815	405.63
2226.991	419.91
2230.166	419.97
2233.34	426.99
2236.515	435.82
2239.689	435.41
2242.863	438.82
2246.036	451.08
2249.209	448.94
2252.382	455.39
2255.555	469.03
2258.727	470.63
2261.9	475.41
2265.071	480.22
2268.243	488.65
2271.414	492.09
2274.585	502.77
2277.756	508.35
2280.926	513.51
2284.096	523.87
2287.266	534.4
2290.436	540.15
2293.605	553.03
2296.774	568.51
2299.942	584.45
2303.111	591.16
2306.279	604.69
2309.447	614.45
2312.614	630.04
2315.781	645.15
2318.948	674.31
2322.115	667.42
2325.281	704.25
2328.447	687.44
2331.613	711.66
2334.779	707.04
2337.944	736.89
2341.109	743.81
2344.274	766.82
2347.438	789.92
2350.602	790.57
2353.766	816.34
2356.929	830.1
2360.092	819.42
2363.255	882.96
2366.418	884.71
2369.58	901.31
2372.742	949.9
2375.904	977.02
2379.066	968.96
2382.227	955.89
2385.388	1038.11
2388.548	1036.69
2391.709	1047.08
2394.869	1171.68
2398.029	1123.33
2401.188	1152.26
2404.347	1146.7
2407.506	1132.19
2410.665	1161.55
2413.823	1230.02
2416.981	1302.31
2420.139	1256.38
2423.296	1247.74
2426.453	1301.28
2429.61	1250.79
2432.767	1306.46
2435.923	1294.38
2439.079	1410.39
2442.235	1431.67
2445.391	1418.8
2448.546	1405.79
2451.701	1369.36
2454.855	1372.45
2458.009	1445.24
2461.163	1511.22
2464.317	1566.05
2467.471	1604.06
2470.624	1605.83
2473.777	1563
2476.929	1524.47
2480.082	1482.89
2483.234	1469.99
2486.385	1535.67
2489.537	1541.74
2492.688	1600.85
2495.839	1553.28
2498.989	1517.54
2502.14	1525.24
2505.29	1538.09
2508.439	1568.13
2511.589	1560.84
2514.738	1700.9
2517.887	1663.38
2521.035	1755.72
2524.183	1772.22
2527.331	1790.23
2530.479	1780.39
2533.627	1792.57
