Data from C_1_DEC_OH_4N_Splice17_12-43-51-569.txt Node
Date: Sat Mar 07 12:43:51 EST 2020
User: sa697716
Spectrometer: NQ5500242
Trigger mode: 0
Integration Time (sec): 1.450000E-1
Scans to average: 20
Nonlinearity correction enabled: false
Boxcar width: 5
Storing dark spectrum: false
XAxis mode: Wavelengths
Number of Pixels in Spectrum: 512
>>>>>Begin Spectral Data<<<<<
187.83	84.49
188.298	72.18
188.766	70.27
189.233	50.57
189.701	62.02
190.169	61.84
190.636	71.62
191.104	47.85
191.571	-34.06
192.039	51.83
192.506	-112.85
192.974	158.24
193.441	152.28
193.908	101.65
194.375	47
194.842	21.26
195.31	0.06
195.777	-80.92
196.244	25.65
196.711	37.52
197.177	40.19
197.644	39.78
198.111	39.15
198.578	39.46
199.045	39.73
199.511	39.67
199.978	39.68
200.445	39.83
200.911	40.24
201.378	40.4
201.844	40.28
202.31	39.88
202.777	39.8
203.243	40.07
203.709	40.2
204.176	39.87
204.642	40.04
205.108	40.5
205.574	40.65
206.04	40.04
206.506	39.94
206.972	39.93
207.438	40.15
207.903	39.78
208.369	39.19
208.835	38.54
209.301	38.32
209.766	37.48
210.232	36.82
210.697	36.14
211.163	35.83
211.628	35.31
212.094	34.76
212.559	34.31
213.024	33.73
213.49	33.2
213.955	32.98
214.42	32.41
214.885	31.89
215.35	31.2
215.815	30.26
216.28	29.19
216.745	27.95
217.21	26.82
217.675	25.81
218.14	25.05
218.604	24.42
219.069	23.67
219.534	23.12
219.998	22.71
220.463	22.29
220.927	21.88
221.392	21.58
221.856	21.32
222.32	21.06
222.785	20.81
223.249	20.57
223.713	20.35
224.177	20.15
224.642	19.94
225.106	19.68
225.57	19.43
226.034	19.25
226.497	19.05
226.961	18.82
227.425	18.64
227.889	18.43
228.353	18.24
228.816	18.04
229.28	17.85
229.744	17.66
230.207	17.47
230.671	17.3
231.134	17.11
231.597	16.94
232.061	16.76
232.524	16.57
232.987	16.41
233.45	16.24
233.914	16.06
234.377	15.89
234.84	15.71
235.303	15.57
235.766	15.43
236.229	15.28
236.691	15.14
237.154	15
237.617	14.86
238.08	14.72
238.542	14.57
239.005	14.45
239.468	14.3
239.93	14.18
240.393	14.07
240.855	13.91
241.317	13.79
241.78	13.66
242.242	13.53
242.704	13.41
243.166	13.29
243.629	13.18
244.091	13.07
244.553	12.96
245.015	12.85
245.477	12.72
245.939	12.61
246.4	12.5
246.862	12.4
247.324	12.3
247.786	12.21
248.247	12.11
248.709	12.01
249.17	11.9
249.632	11.82
250.093	11.75
250.555	11.67
251.016	11.61
251.477	11.54
251.939	11.48
252.4	11.42
252.861	11.34
253.322	11.28
253.783	11.23
254.244	11.18
254.705	11.11
255.166	11.04
255.627	10.99
256.088	10.93
256.549	10.87
257.009	10.8
257.47	10.73
257.931	10.67
258.391	10.6
258.852	10.54
259.312	10.47
259.773	10.42
260.233	10.37
260.694	10.32
261.154	10.26
261.614	10.21
262.074	10.17
262.534	10.13
262.994	10.09
263.455	10.06
263.915	10.04
264.374	10.01
264.834	9.99
265.294	9.96
265.754	9.93
266.214	9.92
266.673	9.9
267.133	9.88
267.593	9.87
268.052	9.85
268.512	9.83
268.971	9.81
269.431	9.79
269.89	9.77
270.349	9.75
270.809	9.73
271.268	9.71
271.727	9.69
272.186	9.66
272.645	9.64
273.104	9.61
273.563	9.59
274.022	9.56
274.481	9.53
274.94	9.51
275.399	9.48
275.857	9.46
276.316	9.42
276.775	9.39
277.233	9.36
277.692	9.33
278.15	9.31
278.609	9.28
279.067	9.26
279.525	9.24
279.984	9.2
280.442	9.17
280.9	9.15
281.358	9.13
281.816	9.11
282.274	9.08
282.732	9.05
283.19	9.02
283.648	8.99
284.106	8.96
284.564	8.94
285.021	8.91
285.479	8.88
285.937	8.84
286.394	8.81
286.852	8.77
287.309	8.74
287.767	8.7
288.224	8.67
288.682	8.63
289.139	8.59
289.596	8.56
290.053	8.52
290.511	8.49
290.968	8.46
291.425	8.42
291.882	8.4
292.339	8.38
292.796	8.37
293.252	8.35
293.709	8.33
294.166	8.31
294.623	8.29
295.079	8.27
295.536	8.25
295.992	8.24
296.449	8.21
296.905	8.19
297.362	8.17
297.818	8.15
298.274	8.12
298.731	8.11
299.187	8.08
299.643	8.05
300.099	8.03
300.555	8.01
301.011	7.99
301.467	7.98
301.923	7.95
302.379	7.93
302.835	7.91
303.291	7.89
303.746	7.87
304.202	7.86
304.658	7.85
305.113	7.84
305.569	7.83
306.024	7.82
306.479	7.8
306.935	7.78
307.39	7.77
307.845	7.75
308.301	7.74
308.756	7.72
309.211	7.71
309.666	7.69
310.121	7.67
310.576	7.64
311.031	7.62
311.486	7.61
311.94	7.6
312.395	7.58
312.85	7.57
313.305	7.56
313.759	7.54
314.214	7.52
314.668	7.5
315.123	7.5
315.577	7.48
316.032	7.46
316.486	7.45
316.94	7.42
317.394	7.4
317.849	7.37
318.303	7.35
318.757	7.33
319.211	7.33
319.665	7.3
320.119	7.28
320.572	7.26
321.026	7.25
321.48	7.23
321.934	7.21
322.387	7.2
322.841	7.19
323.295	7.18
323.748	7.16
324.202	7.14
324.655	7.12
325.108	7.1
325.562	7.1
326.015	7.07
326.468	7.06
326.921	7.05
327.374	7.03
327.827	7.02
328.28	6.99
328.733	6.99
329.186	6.97
329.639	6.96
330.092	6.95
330.545	6.93
330.997	6.91
331.45	6.9
331.903	6.89
332.355	6.88
332.808	6.88
333.26	6.87
333.713	6.85
334.165	6.83
334.617	6.83
335.069	6.81
335.522	6.82
335.974	6.82
336.426	6.81
336.878	6.79
337.33	6.78
337.782	6.76
338.234	6.75
338.686	6.75
339.137	6.75
339.589	6.73
340.041	6.71
340.493	6.69
340.944	6.66
341.396	6.64
341.847	6.63
342.299	6.6
342.75	6.59
343.201	6.56
343.653	6.54
344.104	6.52
344.555	6.5
345.006	6.49
345.457	6.48
345.908	6.46
346.359	6.46
346.81	6.45
347.261	6.43
347.712	6.42
348.163	6.41
348.613	6.4
349.064	6.4
349.515	6.39
349.965	6.38
350.416	6.36
350.866	6.35
351.317	6.34
351.767	6.34
352.217	6.34
352.668	6.33
353.118	6.32
353.568	6.31
354.018	6.3
354.468	6.3
354.918	6.3
355.368	6.3
355.818	6.3
356.268	6.28
356.718	6.28
357.168	6.27
357.617	6.27
358.067	6.26
358.517	6.27
358.966	6.27
359.416	6.27
359.865	6.25
360.315	6.25
360.764	6.25
361.213	6.24
361.663	6.23
362.112	6.22
362.561	6.22
363.01	6.21
363.459	6.19
363.908	6.18
364.357	6.17
364.806	6.16
365.255	6.15
365.703	6.15
366.152	6.15
366.601	6.15
367.05	6.14
367.498	6.13
367.947	6.13
368.395	6.13
368.844	6.12
369.292	6.11
369.74	6.1
370.189	6.1
370.637	6.09
371.085	6.08
371.533	6.07
371.981	6.07
372.429	6.06
372.877	6.05
373.325	6.04
373.773	6.03
374.221	6.02
374.669	6.01
375.116	5.98
375.564	5.98
376.012	5.97
376.459	5.95
376.907	5.95
377.354	5.94
377.801	5.94
378.249	5.93
378.696	5.92
379.143	5.92
379.591	5.93
380.038	5.93
380.485	5.93
380.932	5.93
381.379	5.93
381.826	5.91
382.273	5.91
382.72	5.89
383.166	5.89
383.613	5.87
384.06	5.86
384.506	5.85
384.953	5.85
385.4	5.85
385.846	5.84
386.292	5.84
386.739	5.84
387.185	5.83
387.631	5.84
388.078	5.85
388.524	5.85
388.97	5.85
389.416	5.85
389.862	5.85
390.308	5.87
390.754	5.87
391.2	5.87
391.645	5.87
392.091	5.88
392.537	5.89
392.983	5.89
393.428	5.89
393.874	5.9
394.319	5.89
394.765	5.89
395.21	5.88
395.655	5.88
396.101	5.89
396.546	5.89
396.991	5.9
397.436	5.91
397.881	5.92
398.326	5.93
398.771	5.94
399.216	5.95
399.661	5.95
400.106	5.97
400.551	5.97
400.995	5.96
401.44	5.97
401.885	5.98
402.329	5.98
402.774	5.97
403.218	5.99
403.663	6
404.107	6.01
404.551	6.02
404.995	6.01
405.44	6.01
405.884	6.03
406.328	6.04
406.772	6.04
407.216	6.05
407.66	6.04
408.104	6.03
408.547	6.02
408.991	6.03
409.435	6.03
409.879	6.04
410.322	6.05
410.766	6.06
411.209	6.07
411.653	6.09
412.096	6.1
412.54	6.11
412.983	6.12
413.426	6.15
413.869	6.16
414.312	6.19
414.756	6.2
415.199	6.2
415.642	6.2
416.085	6.21
416.527	6.19
416.97	6.18
417.413	6.18
417.856	6.19
418.298	6.17
418.741	6.17
419.184	6.15
419.626	6.15
420.069	6.15
420.511	6.15
420.953	6.15
421.396	6.15
421.838	6.16
422.28	6.16
422.722	6.16
423.164	6.16
423.606	6.16
424.048	6.15
424.49	6.15
424.932	6.15
425.374	6.13
425.816	6.11
426.258	6.1
426.699	6.1
427.141	6.09
427.582	6.09
428.024	6.1
428.465	6.11
428.907	6.11
429.348	6.1
429.789	6.11
430.231	6.15
430.672	6.16
431.113	6.18
431.554	6.19
431.995	6.19
432.436	6.18
432.877	6.18
433.318	6.19
433.759	6.22
434.2	6.25
434.64	6.25
435.081	6.25
435.522	6.26
435.962	6.28
436.403	6.3
436.843	6.31
437.284	6.32
437.724	6.33
438.164	6.32
438.604	6.32
439.045	6.31
439.485	6.31
439.925	6.31
440.365	6.32
440.805	6.31
441.245	6.31
441.685	6.32
442.125	6.33
442.564	6.34
443.004	6.34
443.444	6.35
443.883	6.36
444.323	6.36
444.762	6.37
445.202	6.36
445.641	6.37
446.081	6.38
446.52	6.37
446.959	6.39
447.398	6.4
447.837	6.4
448.276	6.4
448.716	6.4
449.154	6.41
449.593	6.42
450.032	6.42
450.471	6.42
450.91	6.4
451.349	6.4
451.787	6.38
452.226	6.36
452.664	6.36
453.103	6.36
453.541	6.35
453.98	6.35
454.418	6.33
454.856	6.33
455.295	6.31
455.733	6.29
456.171	6.29
456.609	6.28
457.047	6.27
457.485	6.26
457.923	6.25
458.361	6.25
458.798	6.25
459.236	6.24
459.674	6.24
460.111	6.25
460.549	6.27
460.987	6.27
461.424	6.28
461.862	6.28
462.299	6.29
462.736	6.3
463.173	6.3
463.611	6.31
464.048	6.33
464.485	6.32
464.922	6.32
465.359	6.33
465.796	6.33
466.233	6.34
466.67	6.34
467.106	6.35
467.543	6.35
467.98	6.35
468.416	6.35
468.853	6.34
469.29	6.35
469.726	6.35
470.162	6.34
470.599	6.34
471.035	6.32
471.471	6.32
471.907	6.31
472.344	6.31
472.78	6.31
473.216	6.29
473.652	6.3
474.088	6.29
474.523	6.28
474.959	6.28
475.395	6.26
475.831	6.25
476.266	6.24
476.702	6.23
477.138	6.23
477.573	6.23
478.008	6.22
478.444	6.21
478.879	6.21
479.314	6.2
479.75	6.19
480.185	6.17
480.62	6.17
481.055	6.15
481.49	6.14
481.925	6.14
482.36	6.13
482.795	6.13
483.229	6.11
483.664	6.12
484.099	6.11
484.534	6.12
484.968	6.13
485.403	6.13
485.837	6.14
486.271	6.15
486.706	6.15
487.14	6.15
487.574	6.16
488.009	6.17
488.443	6.18
488.877	6.2
489.311	6.22
489.745	6.23
490.179	6.26
490.613	6.29
491.046	6.31
491.48	6.34
491.914	6.36
492.348	6.39
492.781	6.44
493.215	6.47
493.648	6.51
494.082	6.54
494.515	6.57
494.948	6.61
495.382	6.66
495.815	6.71
496.248	6.76
496.681	6.82
497.114	6.87
497.547	6.92
497.98	6.97
498.413	7.04
498.846	7.11
499.279	7.18
499.711	7.26
500.144	7.34
500.577	7.42
501.009	7.51
501.442	7.6
501.874	7.71
502.306	7.81
502.739	7.93
503.171	8.05
503.603	8.17
504.036	8.32
504.468	8.45
504.9	8.59
505.332	8.74
505.764	8.9
506.196	9.06
506.627	9.23
507.059	9.4
507.491	9.59
507.923	9.78
508.354	9.99
508.786	10.19
509.217	10.42
509.649	10.63
510.08	10.87
510.512	11.11
510.943	11.35
511.374	11.59
511.805	11.85
512.237	12.11
512.668	12.37
513.099	12.64
513.53	12.92
513.961	13.2
514.391	13.51
514.822	13.8
515.253	14.1
515.684	14.39
516.114	14.71
516.545	15.03
516.975	15.35
517.406	15.68
517.836	15.99
518.267	16.32
518.697	16.64
519.127	16.93
519.558	17.25
519.988	17.56
520.418	17.88
520.848	18.17
521.278	18.47
521.708	18.88
522.138	19.16
522.567	19.45
522.997	19.72
523.427	20
523.857	20.28
524.286	20.53
524.716	20.79
525.145	21.03
525.575	21.28
526.004	21.51
526.433	21.61
526.863	21.83
527.292	22.03
527.721	22.23
528.15	22.4
528.579	22.58
529.008	22.76
529.437	22.92
529.866	23.07
530.295	23.23
530.724	23.38
531.152	23.52
531.581	23.65
532.01	23.77
532.438	23.89
532.867	24.02
533.295	24.13
533.723	24.23
534.152	24.33
534.58	24.42
535.008	24.49
535.436	24.56
535.865	24.63
536.293	24.69
536.721	24.74
537.149	24.82
537.576	24.86
538.004	24.91
538.432	24.95
538.86	25
539.287	25.04
539.715	25.08
540.143	25.12
540.57	25.15
540.998	25.19
541.425	25.22
541.852	25.25
542.28	25.28
542.707	25.3
543.134	25.33
543.561	25.37
543.988	25.39
544.415	25.42
544.842	25.44
545.269	25.48
545.696	25.49
546.123	25.51
546.549	25.54
546.976	25.56
547.403	25.59
547.829	25.6
548.256	25.61
548.682	25.62
549.108	25.62
549.535	25.63
549.961	25.62
550.387	25.62
550.813	25.63
551.24	25.61
551.666	25.59
552.092	25.56
552.518	25.55
552.943	25.51
553.369	25.47
553.795	25.44
554.221	25.41
554.646	25.36
555.072	25.32
555.498	25.26
555.923	25.19
556.349	25.12
556.774	25.06
557.199	24.97
557.625	24.89
558.05	24.79
558.475	24.69
558.9	24.58
559.325	24.49
559.75	24.36
560.175	24.25
560.6	24.14
561.025	24.02
561.449	23.87
561.874	23.73
562.299	23.61
562.723	23.47
563.148	23.32
563.572	23.16
563.997	23.01
564.421	22.85
564.846	22.7
565.27	22.52
565.694	22.35
566.118	22.18
566.542	22.01
566.966	21.82
567.39	21.65
567.814	21.47
568.238	21.29
568.662	21.11
569.086	20.94
569.509	20.76
569.933	20.59
570.357	20.42
570.78	20.26
571.204	20.1
571.627	19.94
572.05	19.78
572.474	19.64
572.897	19.49
573.32	19.33
573.743	19.18
574.166	19.04
574.589	18.89
575.012	18.75
575.435	18.62
575.858	18.49
576.281	18.37
576.704	18.24
577.126	18.12
577.549	18.01
577.972	17.91
578.394	17.78
578.817	17.67
579.239	17.57
579.661	17.47
580.084	17.36
580.506	17.26
580.928	17.16
581.35	17.07
581.772	16.97
582.194	16.88
582.616	16.8
583.038	16.72
583.46	16.63
583.882	16.55
584.303	16.47
584.725	16.42
585.147	16.33
585.568	16.25
585.99	16.17
586.411	16.11
586.833	16.03
587.254	15.96
587.675	15.9
588.096	15.85
588.518	15.78
588.939	15.73
589.36	15.66
589.781	15.62
590.202	15.57
590.623	15.54
591.043	15.49
591.464	15.45
591.885	15.4
592.305	15.36
592.726	15.32
593.147	15.28
593.567	15.23
593.987	15.2
594.408	15.15
594.828	15.11
595.248	15.07
595.669	15.05
596.089	15
596.509	14.97
596.929	14.94
597.349	14.9
597.769	14.86
598.189	14.83
598.608	14.8
599.028	14.77
599.448	14.73
599.867	14.68
600.287	14.63
600.706	14.59
601.126	14.54
601.545	14.49
601.965	14.44
602.384	14.39
602.803	14.34
603.222	14.28
603.641	14.22
604.061	14.17
604.48	14.09
604.898	14.01
605.317	13.95
605.736	13.88
606.155	13.81
606.574	13.73
606.992	13.66
607.411	13.59
607.829	13.49
608.248	13.4
608.666	13.32
609.085	13.24
609.503	13.18
609.921	13.11
610.339	13.04
610.758	12.98
611.176	12.9
611.594	12.82
612.012	12.74
612.43	12.69
612.847	12.62
613.265	12.55
613.683	12.48
614.101	12.41
614.518	12.34
614.936	12.26
615.353	12.19
615.771	12.13
616.188	12.06
616.606	12.01
617.023	11.96
617.44	11.92
617.857	11.86
618.274	11.82
618.691	11.76
619.108	11.71
619.525	11.68
619.942	11.65
620.359	11.61
620.776	11.59
621.192	11.56
621.609	11.53
622.026	11.49
622.442	11.47
622.859	11.45
623.275	11.42
623.691	11.41
624.108	11.39
624.524	11.37
624.94	11.36
625.356	11.34
625.772	11.33
626.188	11.31
626.604	11.3
627.02	11.29
627.436	11.28
627.852	11.28
628.268	11.27
628.683	11.26
629.099	11.24
629.514	11.23
629.93	11.22
630.345	11.19
630.761	11.16
631.176	11.14
631.591	11.1
632.007	11.06
632.422	11.02
632.837	10.97
633.252	10.91
633.667	10.85
634.082	10.78
634.497	10.71
634.911	10.64
635.326	10.56
635.741	10.48
636.155	10.39
636.57	10.31
636.984	10.21
637.399	10.11
637.813	10.01
638.228	9.9
638.642	9.8
639.056	9.68
639.47	9.58
639.884	9.47
640.298	9.36
640.712	9.25
641.126	9.15
641.54	9.04
641.954	8.94
642.368	8.85
642.781	8.75
643.195	8.66
643.609	8.57
644.022	8.49
644.436	8.41
644.849	8.33
645.262	8.25
645.676	8.16
646.089	8.1
646.502	8.04
646.915	7.99
647.328	7.93
647.741	7.88
648.154	7.83
648.567	7.79
648.98	7.74
649.393	7.71
649.805	7.68
650.218	7.65
650.631	7.62
651.043	7.59
651.456	7.56
651.868	7.53
652.28	7.5
652.693	7.48
653.105	7.46
653.517	7.43
653.929	7.39
654.341	7.36
654.753	7.32
655.165	7.29
655.577	7.25
655.989	7.22
656.401	7.19
656.813	7.15
657.224	7.1
657.636	7.04
658.047	7
658.459	6.95
658.87	6.89
659.282	6.83
659.693	6.78
660.104	6.73
660.515	6.68
660.926	6.63
661.338	6.58
661.749	6.54
662.159	6.49
662.57	6.46
662.981	6.43
663.392	6.41
663.803	6.39
664.213	6.36
664.624	6.33
665.035	6.31
665.445	6.29
665.855	6.27
666.266	6.25
666.676	6.25
667.086	6.23
667.497	6.22
667.907	6.21
668.317	6.21
668.727	6.21
669.137	6.22
669.547	6.22
669.956	6.23
670.366	6.23
670.776	6.25
671.186	6.25
671.595	6.27
672.005	6.29
672.414	6.3
672.824	6.31
673.233	6.32
673.642	6.34
674.052	6.37
674.461	6.39
674.87	6.42
675.279	6.45
675.688	6.48
676.097	6.51
676.506	6.53
676.915	6.57
677.323	6.6
677.732	6.63
678.141	6.65
678.549	6.69
678.958	6.72
679.366	6.77
679.775	6.79
680.183	6.84
680.592	6.9
681	6.96
681.408	7.02
681.816	7.1
682.224	7.19
682.632	7.26
683.04	7.34
683.448	7.44
683.856	7.54
684.264	7.67
684.671	7.8
685.079	7.95
685.487	8.13
685.894	8.32
686.302	8.53
686.709	8.76
687.116	9.03
687.524	9.33
687.931	9.65
688.338	10.01
688.745	10.38
689.152	10.77
689.559	11.2
689.966	11.66
690.373	12.14
690.78	12.63
691.187	13.17
691.593	13.72
692	14.28
692.407	14.87
692.813	15.46
693.22	16.08
693.626	16.71
694.032	17.35
694.439	17.99
694.845	18.66
695.251	19.3
695.657	19.95
696.063	20.6
696.469	21.27
696.875	21.96
697.281	22.65
697.687	23.34
698.093	24.01
698.498	24.68
698.904	25.34
699.31	25.96
699.715	26.63
700.12	27.28
700.526	27.92
700.931	28.54
701.337	29.13
701.742	29.69
702.147	30.26
702.552	30.84
702.957	31.36
703.362	31.91
703.767	32.45
704.172	32.96
704.577	33.47
704.981	33.99
705.386	34.49
705.791	34.99
706.195	35.48
706.6	35.96
707.004	36.43
707.408	36.93
707.813	37.39
708.217	37.83
708.621	38.3
709.025	38.73
709.43	39.16
709.834	39.58
710.237	39.99
710.641	40.4
711.045	40.79
711.449	41.17
711.853	41.56
712.256	41.94
712.66	42.32
713.064	42.67
713.467	43.04
713.87	43.4
714.274	43.73
714.677	44.07
715.08	44.39
715.484	44.74
715.887	45.07
716.29	45.37
716.693	45.67
717.096	45.98
717.499	46.28
717.901	46.57
718.304	46.85
718.707	47.17
719.109	47.46
719.512	47.73
719.915	47.98
720.317	48.23
720.719	48.46
721.122	48.72
721.524	48.96
721.926	49.19
722.328	49.41
722.731	49.61
723.133	49.8
723.535	50.01
723.937	50.23
724.338	50.44
724.74	50.65
725.142	50.9
725.544	51.07
725.945	51.27
726.347	51.41
726.748	51.58
727.15	51.74
727.551	51.91
727.952	52.04
728.354	52.15
728.755	52.26
729.156	52.39
729.557	52.45
729.958	52.55
730.359	52.65
730.76	52.78
731.161	52.86
731.562	52.99
731.962	53.06
732.363	53.18
732.763	53.3
733.164	53.39
733.564	53.48
733.965	53.58
734.365	53.68
734.766	53.73
735.166	53.81
735.566	53.9
735.966	53.96
736.366	54.02
736.766	54.07
737.166	54.14
737.566	54.2
737.966	54.24
738.365	54.27
738.765	54.34
739.165	54.42
739.564	54.46
739.964	54.51
740.363	54.54
740.763	54.59
741.162	54.61
741.561	54.64
741.96	54.65
742.36	54.7
742.759	54.75
743.158	54.77
743.557	54.78
743.955	54.81
744.354	54.84
744.753	54.88
745.152	54.95
745.55	55.01
745.949	55.05
746.348	55.13
746.746	55.16
747.144	55.19
747.543	55.2
747.941	55.24
748.339	55.25
748.737	55.26
749.136	55.26
749.534	55.23
749.932	55.24
750.33	55.24
750.727	55.26
751.125	55.25
751.523	55.26
751.921	55.26
752.318	55.25
752.716	55.27
753.113	55.31
753.511	55.33
753.908	55.37
754.305	55.37
754.703	55.34
755.1	55.3
755.497	55.3
755.894	55.3
756.291	55.31
756.688	55.31
757.085	55.3
757.482	55.27
757.878	55.27
758.275	55.26
758.672	55.27
759.068	55.31
759.465	55.32
759.861	55.32
760.258	55.35
760.654	55.35
761.05	55.35
761.447	55.38
761.843	55.39
762.239	55.36
762.635	55.36
763.031	55.34
763.427	55.33
763.822	55.34
764.218	55.34
764.614	55.34
765.01	55.34
765.405	55.33
765.801	55.29
766.196	55.28
766.592	55.26
766.987	55.25
767.382	55.24
767.778	55.21
768.173	55.2
768.568	55.17
768.963	55.13
769.358	55.14
769.753	55.13
770.148	55.13
770.542	55.13
770.937	55.14
771.332	55.15
771.726	55.14
772.121	55.15
772.515	55.15
772.91	55.16
773.304	55.18
773.699	55.15
774.093	55.17
774.487	55.18
774.881	55.2
775.275	55.19
775.669	55.16
776.063	55.15
776.457	55.15
776.851	55.11
777.245	55.1
777.638	55.09
778.032	55.1
778.425	55.1
778.819	55.07
779.212	55.07
779.606	55.09
779.999	55.09
780.392	55.09
780.786	55.09
781.179	55.12
781.572	55.15
781.965	55.17
782.358	55.16
782.751	55.14
783.143	55.13
783.536	55.11
783.929	55.11
784.322	55.14
784.714	55.15
785.107	55.15
785.499	55.13
785.891	55.12
786.284	55.11
786.676	55.11
787.068	55.1
787.46	55.11
787.852	55.12
788.245	55.11
788.636	55.08
789.028	55.07
789.42	55.06
789.812	55.06
790.204	55.07
790.595	55.08
790.987	55.09
791.378	55.13
791.77	55.14
792.161	55.12
792.553	55.13
792.944	55.13
793.335	55.16
793.726	55.17
794.117	55.17
794.508	55.14
794.899	55.12
795.29	55.11
795.681	55.08
796.072	55.07
796.463	55.1
796.853	55.08
797.244	55.08
797.634	55.06
798.025	55.07
798.415	55.08
798.806	55.06
799.196	55.08
799.586	55.08
799.976	55.1
800.366	55.12
800.756	55.1
801.146	55.08
801.536	55.09
801.926	55.08
802.316	55.08
802.706	55.11
803.095	55.14
803.485	55.12
803.874	55.1
804.264	55.08
804.653	55.07
805.043	55.08
805.432	55.09
805.821	55.12
806.21	55.12
806.599	55.13
806.988	55.1
807.377	55.07
807.766	55.1
808.155	55.07
808.544	55.06
808.933	55.03
809.321	55.01
809.71	55
810.098	54.96
810.487	54.92
810.875	54.89
811.264	54.89
811.652	54.9
812.04	54.87
812.428	54.94
812.816	54.93
813.204	54.94
813.592	54.91
813.98	54.9
814.368	54.9
814.756	54.91
815.144	54.88
815.531	54.85
815.919	54.83
816.306	54.83
816.694	54.77
817.081	54.78
817.469	54.75
817.856	54.77
818.243	54.76
818.63	54.76
819.017	54.75
819.404	54.76
819.791	54.78
820.178	54.8
820.565	54.79
820.952	54.8
821.339	54.78
821.725	54.84
822.112	54.84
822.498	54.87
822.885	54.88
823.271	54.89
823.657	54.87
824.044	54.86
824.43	54.87
824.816	54.89
825.202	54.88
825.588	54.87
825.974	54.85
826.36	54.83
826.746	54.81
827.132	54.79
827.517	54.81
827.903	54.83
828.289	54.85
828.674	54.84
829.06	54.82
829.445	54.82
829.83	54.81
830.216	54.81
830.601	54.83
830.986	54.83
831.371	54.83
831.756	54.8
832.141	54.8
832.526	54.78
832.911	54.75
833.295	54.76
833.68	54.78
834.065	54.78
834.449	54.75
834.834	54.73
835.218	54.74
835.603	54.75
835.987	54.76
836.371	54.74
836.755	54.75
837.139	54.75
837.524	54.75
837.908	54.72
838.291	54.75
838.675	54.76
839.059	54.78
839.443	54.76
839.827	54.74
840.21	54.74
840.594	54.76
840.977	54.73
841.361	54.75
841.744	54.73
842.127	54.73
842.511	54.71
842.894	54.71
843.277	54.7
843.66	54.66
844.043	54.69
844.426	54.68
844.809	54.69
845.191	54.7
845.574	54.7
845.957	54.73
846.339	54.75
846.722	54.74
847.104	54.75
847.487	54.74
847.869	54.77
848.252	54.76
848.634	54.76
849.016	54.74
849.398	54.74
849.78	54.74
850.162	54.72
850.544	54.69
850.926	54.69
851.307	54.67
851.689	54.69
852.071	54.71
852.452	54.72
852.834	54.73
853.215	54.72
853.597	54.7
853.978	54.69
854.359	54.7
854.741	54.71
855.122	54.71
855.503	54.71
855.884	54.68
856.265	54.65
856.646	54.62
857.026	54.64
857.407	54.65
857.788	54.66
858.169	54.69
858.549	54.65
858.93	54.65
859.31	54.64
859.69	54.66
860.071	54.7
860.451	54.7
860.831	54.71
861.211	54.69
861.591	54.68
861.971	54.65
862.351	54.64
862.731	54.68
863.111	54.69
863.491	54.71
863.87	54.68
864.25	54.63
864.629	54.63
865.009	54.63
865.388	54.62
865.768	54.64
866.147	54.63
866.526	54.62
866.905	54.6
867.284	54.61
867.663	54.59
868.042	54.61
868.421	54.63
868.8	54.62
869.179	54.63
869.558	54.63
869.936	54.62
870.315	54.62
870.693	54.63
871.072	54.64
871.45	54.65
871.828	54.68
872.207	54.68
872.585	54.64
872.963	54.65
873.341	54.63
873.719	54.64
874.097	54.64
874.475	54.67
874.853	54.66
875.23	54.68
875.608	54.7
875.986	54.71
876.363	54.71
876.741	54.77
877.118	54.79
877.495	54.8
877.873	54.81
878.25	54.83
878.627	54.85
879.004	54.86
879.381	54.83
879.758	54.79
880.135	54.78
880.512	54.78
880.889	54.74
881.265	54.74
881.642	54.73
882.019	54.75
882.395	54.72
882.772	54.68
883.148	54.64
883.524	54.65
883.901	54.66
884.277	54.64
884.653	54.61
885.029	54.62
885.405	54.61
885.781	54.63
886.157	54.59
886.532	54.6
886.908	54.61
887.284	54.62
887.659	54.6
888.035	54.58
888.411	54.58
888.786	54.6
889.161	54.6
889.537	54.6
889.912	54.6
890.287	54.6
890.662	54.6
891.037	54.61
891.412	54.59
891.787	54.57
892.162	54.54
892.536	54.52
892.911	54.51
893.286	54.52
893.66	54.51
894.035	54.5
894.409	54.51
894.784	54.51
895.158	54.48
895.532	54.52
895.906	54.52
896.281	54.55
896.655	54.58
897.029	54.58
897.402	54.55
897.776	54.55
898.15	54.55
898.524	54.54
898.898	54.51
899.271	54.54
899.645	54.53
900.018	54.55
900.392	54.58
900.765	54.58
901.138	54.59
901.511	54.59
901.884	54.59
902.258	54.59
902.631	54.6
903.003	54.62
903.376	54.6
903.749	54.59
904.122	54.6
904.495	54.58
904.867	54.58
905.24	54.57
905.612	54.6
905.985	54.58
906.357	54.56
906.729	54.57
907.102	54.57
907.474	54.6
907.846	54.6
908.218	54.57
908.59	54.6
908.962	54.61
909.334	54.61
909.705	54.61
910.077	54.64
910.449	54.67
910.82	54.66
911.192	54.65
911.563	54.61
911.935	54.61
912.306	54.62
912.677	54.6
913.048	54.62
913.419	54.6
913.79	54.59
914.161	54.59
914.532	54.57
914.903	54.58
915.274	54.59
915.645	54.61
916.015	54.61
916.386	54.62
916.756	54.61
917.127	54.58
917.497	54.59
917.868	54.57
918.238	54.55
918.608	54.58
918.978	54.57
919.348	54.57
919.718	54.57
920.088	54.57
920.458	54.57
920.828	54.56
921.198	54.52
921.567	54.51
921.937	54.52
922.306	54.52
922.676	54.5
923.045	54.46
923.415	54.43
923.784	54.43
924.153	54.46
924.522	54.44
924.891	54.42
925.26	54.44
925.629	54.44
925.998	54.43
926.367	54.42
926.736	54.4
927.104	54.42
927.473	54.41
927.842	54.34
928.21	54.34
928.578	54.31
928.947	54.32
929.315	54.28
929.683	54.25
930.051	54.24
930.42	54.23
930.788	54.18
931.156	54.14
931.523	54.14
931.891	54.22
932.259	54.18
932.627	54.16
932.994	54.16
933.362	54.15
933.729	54.18
934.097	54.19
934.464	54.21
934.831	54.23
935.199	54.27
935.566	54.25
935.933	54.23
936.3	54.2
936.667	54.22
937.034	54.21
937.401	54.24
937.767	54.27
938.134	54.27
938.501	54.24
938.867	54.22
939.234	54.22
939.6	54.24
939.967	54.22
940.333	54.21
940.699	54.28
941.065	54.23
941.431	54.2
941.798	54.08
942.163	54.06
942.529	54.05
942.895	54.07
943.261	54.04
943.627	54.01
943.992	53.96
944.358	53.97
944.723	53.91
945.089	53.89
945.454	53.94
945.82	54
946.185	53.99
946.55	54.01
946.915	54
947.28	53.99
947.645	54.01
948.01	54.03
948.375	54.04
948.74	53.99
949.104	54.02
949.469	53.93
949.834	53.87
950.198	53.85
950.562	53.79
950.927	53.79
951.291	53.75
951.655	53.72
952.02	53.69
952.384	53.66
952.748	53.63
953.112	53.61
953.476	53.56
953.839	53.53
954.203	53.47
954.567	53.48
954.931	53.38
955.294	53.34
955.658	53.38
956.021	53.38
956.385	53.37
956.748	53.37
957.111	53.31
957.474	53.36
957.837	53.32
958.2	53.31
958.563	53.3
958.926	53.36
959.289	53.37
959.652	53.28
960.015	53.22
960.377	53.25
960.74	53.21
961.102	53.25
961.465	53.27
961.827	53.29
962.189	53.32
962.552	53.31
962.914	53.32
963.276	53.35
963.638	53.38
964	53.44
964.362	53.39
964.724	53.41
965.085	53.37
965.447	53.33
965.809	53.33
966.17	53.34
966.532	53.38
966.893	53.35
967.255	53.35
967.616	53.37
967.977	53.37
968.338	53.34
968.699	53.38
969.061	53.41
969.421	53.44
969.782	53.43
970.143	53.41
970.504	53.37
970.865	53.4
971.225	53.38
971.586	53.33
971.946	53.3
972.307	53.3
972.667	53.27
973.027	53.26
973.388	53.26
973.748	53.27
974.108	53.3
974.468	53.26
974.828	53.27
975.188	53.26
975.548	53.22
975.907	53.27
976.267	53.31
976.627	53.34
976.986	53.29
977.346	53.21
977.705	53.22
978.064	53.22
978.424	53.22
978.783	53.13
979.142	53.11
979.501	53.13
979.86	53.07
980.219	53
980.578	52.99
980.937	53.07
981.296	53.07
981.654	53.04
982.013	53
982.371	52.99
982.73	53.06
983.088	53.06
983.447	53.05
983.805	53.07
984.163	53.07
984.521	52.98
984.879	52.83
985.237	52.91
985.595	52.94
985.953	52.96
986.311	52.96
986.669	52.93
987.026	52.97
987.384	52.97
987.741	52.9
988.099	52.97
988.456	52.99
988.814	53.07
989.171	53.02
989.528	53.05
989.885	53.03
990.242	53.01
990.599	53.06
990.956	53.08
991.313	53.1
991.67	53.16
992.027	53.17
992.383	53.24
992.74	53.29
993.096	53.3
993.453	53.31
993.809	53.35
994.165	53.43
994.522	53.37
994.878	53.38
995.234	53.39
995.59	53.45
995.946	53.41
996.302	53.43
996.658	53.35
997.013	53.36
997.369	53.23
997.725	53.25
998.08	53.3
998.436	53.38
998.791	53.39
999.147	53.47
999.502	53.44
999.857	53.45
1000.212	53.36
1000.567	53.41
1000.922	53.3
1001.277	53.39
1001.632	53.24
1001.987	53.08
1002.342	52.91
1002.696	52.85
1003.051	52.83
1003.406	52.9
1003.76	52.83
1004.114	52.85
1004.469	52.91
1004.823	53.27
1005.177	53.23
1005.531	53.37
1005.885	53.42
1006.239	53.54
1006.593	53.64
1006.947	53.63
1007.301	53.54
1007.655	53.5
1008.008	53.55
1008.362	53.56
1008.715	53.35
1009.069	53.49
1009.422	53.39
1009.776	53.45
1010.129	53.49
1010.482	53.37
1010.835	53.36
1011.188	53.34
1011.541	53.45
1011.894	53.54
1012.247	53.48
1012.6	53.47
1012.952	53.35
1013.305	53.66
1013.657	53.7
1014.01	53.62
1014.362	53.65
1014.715	53.68
1015.067	53.75
1015.419	53.9
1015.771	53.77
1016.123	53.69
1016.475	53.57
1016.827	53.53
1017.179	53.34
1017.531	53.28
1017.883	53.25
1018.234	53.24
1018.586	53.22
1018.938	53.24
1019.289	53.04
1019.64	53.11
1019.992	53.28
1020.343	53.42
1020.694	53.47
1021.045	53.35
1021.396	53.32
1021.747	53.49
1022.098	53.5
1022.449	53.45
1022.8	53.53
1023.151	53.49
1023.501	53.5
1023.852	53.52
1024.202	53.33
1024.553	53.22
1024.903	53.41
1025.253	53.71
1025.604	53.63
1025.954	53.56
1026.304	53.68
1026.654	53.68
1027.004	53.58
1027.354	53.34
1027.703	53.11
1028.053	53.28
1028.403	53.26
1028.753	52.94
1029.102	52.9
1029.452	53.05
1029.801	53.38
1030.15	53.23
1030.499	53.03
897.758	897.76
901.051	907.9
904.343	903.52
907.636	916.75
910.928	894.18
914.22	896.92
917.511	886.15
920.803	848.3
924.094	845.89
927.384	823.17
930.675	788.89
933.965	786.77
937.255	743.74
940.544	715.79
943.834	684.1
947.123	678.08
950.411	637.5
953.7	624.23
956.988	594.28
960.276	571.4
963.563	562.47
966.851	546.16
970.138	541.83
973.424	523.88
976.711	526.44
979.997	502.17
983.283	498.34
986.568	490.07
989.853	476.75
993.138	466.67
996.423	449.77
999.708	438.79
1002.992	434.12
1006.275	414.35
1009.559	411.27
1012.842	398.3
1016.125	388.25
1019.408	381.66
1022.69	376.17
1025.972	368.72
1029.254	362.02
1032.536	356.9
1035.817	348.38
1039.098	344.41
1042.379	339.08
1045.659	334.79
1048.939	327.46
1052.219	320.63
1055.498	317.56
1058.778	310.53
1062.057	304.71
1065.335	302.1
1068.614	298.44
1071.892	296
1075.17	287.9
1078.447	282.56
1081.724	280.52
1085.001	277.72
1088.278	273.66
1091.554	268.91
1094.83	268.53
1098.106	267.1
1101.382	265.3
1104.657	263.46
1107.932	260.2
1111.206	260.55
1114.481	254.83
1117.755	253.18
1121.029	251.91
1124.302	251
1127.575	245.77
1130.848	243.78
1134.121	240.87
1137.393	238.86
1140.665	234.23
1143.937	232.34
1147.208	232.89
1150.48	231.97
1153.75	229.16
1157.021	225.91
1160.291	226.09
1163.561	224.18
1166.831	224.25
1170.101	222.39
1173.37	222.7
1176.639	223.19
1179.907	220.7
1183.176	217.99
1186.444	218.51
1189.711	217.76
1192.979	217.29
1196.246	216.34
1199.513	217.02
1202.78	215.59
1206.046	215.7
1209.312	213.68
1212.578	213.83
1215.843	215.97
1219.108	214.14
1222.373	217.93
1225.638	219.07
1228.902	221.47
1232.166	221.62
1235.43	223.11
1238.693	226.18
1241.956	227.03
1245.219	229.56
1248.482	229.98
1251.744	229.78
1255.006	230.08
1258.268	225.15
1261.529	223.94
1264.79	222.77
1268.051	221.22
1271.312	218.84
1274.572	216.22
1277.832	214.81
1281.092	211.06
1284.351	209.73
1287.61	209.76
1290.869	207.8
1294.128	206.77
1297.386	206.54
1300.644	204.09
1303.902	204.63
1307.159	203.64
1310.416	203.52
1313.673	202.25
1316.93	205.28
1320.186	204.9
1323.442	205.75
1326.697	207.78
1329.953	207.79
1333.208	208.02
1336.463	210.97
1339.717	211.25
1342.972	212.64
1346.226	214.24
1349.479	215.52
1352.733	215.66
1355.986	216.59
1359.238	215.79
1362.491	216.46
1365.743	218.23
1368.995	218.13
1372.247	216.41
1375.498	215.24
1378.749	216.88
1382	213.93
1385.251	213.26
1388.501	211.89
1391.751	211.47
1395	210.75
1398.25	208.73
1401.499	206.74
1404.748	205.84
1407.996	203.92
1411.244	203.75
1414.492	201.6
1417.74	199.56
1420.987	197.36
1424.234	196.15
1427.481	192.83
1430.728	192.47
1433.974	191.31
1437.22	189.14
1440.465	188.65
1443.711	186.49
1446.956	184.83
1450.201	183.68
1453.445	181.79
1456.689	181.13
1459.933	178.35
1463.177	177.84
1466.42	174.41
1469.663	171.92
1472.906	171.48
1476.148	167.09
1479.391	166.51
1482.633	165.68
1485.874	162.57
1489.115	161.46
1492.356	159.74
1495.597	159.46
1498.838	157.33
1502.078	157.41
1505.318	157.44
1508.557	157.28
1511.797	158.09
1515.036	156.46
1518.274	155.81
1521.513	155.74
1524.751	155.47
1527.989	155.56
1531.227	155.17
1534.464	155.59
1537.701	154.49
1540.938	154.19
1544.174	152.53
1547.41	152.92
1550.646	152.2
1553.882	152.73
1557.117	151.31
1560.352	150.88
1563.587	151.18
1566.821	150.37
1570.055	149.01
1573.289	148.7
1576.523	148.6
1579.756	147.7
1582.989	146.71
1586.222	146.51
1589.454	146.06
1592.686	147.16
1595.918	146.79
1599.15	145.55
1602.381	145.9
1605.612	146.36
1608.843	146.43
1612.073	145.93
1615.303	147.3
1618.533	147.31
1621.762	147.87
1624.992	147.94
1628.221	147.69
1631.449	147.56
1634.678	147.83
1637.906	148.86
1641.134	148.92
1644.361	148.66
1647.588	149.19
1650.815	148.39
1654.042	148.21
1657.269	148.87
1660.495	148.73
1663.72	148.43
1666.946	149.29
1670.171	149.47
1673.396	149.05
1676.621	148.97
1679.845	149.64
1683.069	150.01
1686.293	150.75
1689.517	151.35
1692.74	151.31
1695.963	151.54
1699.185	152.6
1702.408	152.5
1705.63	153.12
1708.852	153.75
1712.073	153.98
1715.294	154.18
1718.515	154.87
1721.736	154.52
1724.956	154.75
1728.176	154.96
1731.396	155.82
1734.616	155.27
1737.835	155.66
1741.054	154.21
1744.272	154.75
1747.491	155.66
1750.709	155.36
1753.927	154.92
1757.144	154.96
1760.361	155.14
1763.578	155.24
1766.795	154.75
1770.011	155.85
1773.227	155.55
1776.443	157.46
1779.658	156.95
1782.874	157.41
1786.089	157.77
1789.303	158.13
1792.518	159.82
1795.732	159.55
1798.945	160.91
1802.159	161.54
1805.372	161.32
1808.585	163.82
1811.797	164.23
1815.01	164.95
1818.222	165.57
1821.434	167.09
1824.645	167.24
1827.856	169.79
1831.067	170.85
1834.278	170.1
1837.488	170.88
1840.698	172.38
1843.908	170.88
1847.117	171.34
1850.326	171.74
1853.535	170.3
1856.744	171.72
1859.952	171.5
1863.16	169.38
1866.368	168.29
1869.575	168.82
1872.782	165.97
1875.989	164.41
1879.196	163.44
1882.402	161.94
1885.608	161.62
1888.814	161.39
1892.019	159.82
1895.224	158.84
1898.429	158.09
1901.634	157.95
1904.838	158.03
1908.042	159.95
1911.246	159.32
1914.449	160.06
1917.652	159.19
1920.855	159.16
1924.058	158.74
1927.26	158.29
1930.462	158.24
1933.664	159.85
1936.865	159.11
1940.066	158.28
1943.267	157.19
1946.467	157.36
1949.668	157.97
1952.868	160.49
1956.067	160.74
1959.267	161.38
1962.466	161.77
1965.665	161.39
1968.863	161.82
1972.061	163.89
1975.259	165.24
1978.457	166.13
1981.654	168.9
1984.852	169.39
1988.048	168.72
1991.245	169.89
1994.441	172.3
1997.637	173.85
2000.833	177.84
2004.028	179.76
2007.223	180.95
2010.418	182.91
2013.613	186.31
2016.807	187.7
2020.001	189.48
2023.194	193.64
2026.388	197.69
2029.581	202.07
2032.774	204.1
2035.966	206.84
2039.158	207.62
2042.35	211.72
2045.542	213.33
2048.733	216.69
2051.924	219.67
2055.115	224.3
2058.306	223.61
2061.496	225.98
2064.686	224.85
2067.875	228.66
2071.065	231.03
2074.254	229.64
2077.442	232.43
2080.631	233.77
2083.819	235.87
2087.007	236.17
2090.195	237.81
2093.382	240.19
2096.569	239.45
2099.756	244.38
2102.942	245.01
2106.128	246.41
2109.314	252.57
2112.5	251.66
2115.685	257.06
2118.87	257.06
2122.055	263.59
2125.239	265.14
2128.424	268.47
2131.608	270.48
2134.791	273.56
2137.974	274.93
2141.157	275.83
2144.34	276.42
2147.523	280.72
2150.705	279.16
2153.887	282.28
2157.068	281.28
2160.25	278.68
2163.431	280.57
2166.611	282.84
2169.792	288.24
2172.972	290.66
2176.152	292.61
2179.331	296.61
2182.511	300.49
2185.69	302.82
2188.868	309.34
2192.047	309.79
2195.225	318.85
2198.403	325.78
2201.58	331.7
2204.758	338.21
2207.935	345.68
2211.111	351.01
2214.288	354.67
2217.464	356
2220.64	365.18
2223.815	367.97
2226.991	382.44
2230.166	383.78
2233.34	388.55
2236.515	395.51
2239.689	395.61
2242.863	396.29
2246.036	407.95
2249.209	406.6
2252.382	412.71
2255.555	421.59
2258.727	424.16
2261.9	427.58
2265.071	431.36
2268.243	439.42
2271.414	444.06
2274.585	452.32
2277.756	458.3
2280.926	462.03
2284.096	472.41
2287.266	482.2
2290.436	486.03
2293.605	496.83
2296.774	511.43
2299.942	524.9
2303.111	528.6
2306.279	540.38
2309.447	547.38
2312.614	559.99
2315.781	575.75
2318.948	600.05
2322.115	592.81
2325.281	626.26
2328.447	610.09
2331.613	631.45
2334.779	627.45
2337.944	655.53
2341.109	661.54
2344.274	679.56
2347.438	702.76
2350.602	700.48
2353.766	725.11
2356.929	736.84
2360.092	724.28
2363.255	780.48
2366.418	781.73
2369.58	797.69
2372.742	841.23
2375.904	863.12
2379.066	859.33
2382.227	843.05
2385.388	912.97
2388.548	911.57
2391.709	920.94
2394.869	1035.47
2398.029	989.62
2401.188	1016.99
2404.347	1010.87
2407.506	995.28
2410.665	1027.92
2413.823	1085.82
2416.981	1150.68
2420.139	1119.17
2423.296	1102.87
2426.453	1149.72
2429.61	1105.13
2432.767	1154.53
2435.923	1139.72
2439.079	1248.87
2442.235	1267.09
2445.391	1248.44
2448.546	1239.65
2451.701	1207.75
2454.855	1201.85
2458.009	1273.46
2461.163	1327.96
2464.317	1375.8
2467.471	1411.08
2470.624	1414.58
2473.777	1371.09
2476.929	1338.06
2480.082	1299.93
2483.234	1289.58
2486.385	1351.55
2489.537	1359.93
2492.688	1409.46
2495.839	1371.16
2498.989	1336.99
2502.14	1343.5
2505.29	1355.52
2508.439	1378.73
2511.589	1375.69
2514.738	1498.3
2517.887	1461.98
2521.035	1545.68
2524.183	1555.53
2527.331	1566.81
2530.479	1557.74
2533.627	1570.57
