Data from C_1_DIV_PA_2n_Splice17_12-36-40-503.txt Node
Date: Sat Mar 07 12:36:40 EST 2020
User: sa697716
Spectrometer: NQ5500242
Trigger mode: 0
Integration Time (sec): 1.450000E-1
Scans to average: 20
Nonlinearity correction enabled: false
Boxcar width: 5
Storing dark spectrum: false
XAxis mode: Wavelengths
Number of Pixels in Spectrum: 512
>>>>>Begin Spectral Data<<<<<
187.83	70.33
188.298	80.39
188.766	73.61
189.233	87.05
189.701	97.7
190.169	128.28
190.636	149.21
191.104	216.04
191.571	348.78
192.039	395.26
192.506	1113.72
192.974	-168.62
193.441	-68.46
193.908	-11.34
194.375	71.57
194.842	103.53
195.31	132.91
195.777	139.01
196.244	24.27
196.711	27.09
197.177	29.58
197.644	28.05
198.111	27.45
198.578	27.05
199.045	27.56
199.511	27.61
199.978	27.42
200.445	27.91
200.911	28.29
201.378	28.21
201.844	28.19
202.31	27.9
202.777	28.3
203.243	28.36
203.709	28.62
204.176	28.16
204.642	28.01
205.108	28.15
205.574	28.08
206.04	27.68
206.506	27.73
206.972	27.71
207.438	27.62
207.903	27.27
208.369	26.82
208.835	26.21
209.301	25.9
209.766	25.25
210.232	24.6
210.697	24.12
211.163	23.7
211.628	23.2
212.094	22.97
212.559	22.46
213.024	21.97
213.49	21.57
213.955	21.17
214.42	20.68
214.885	20.17
215.35	19.68
215.815	18.82
216.28	17.72
216.745	16.59
217.21	15.45
217.675	14.49
218.14	13.72
218.604	13.07
219.069	12.44
219.534	11.96
219.998	11.56
220.463	11.17
220.927	10.77
221.392	10.58
221.856	10.41
222.32	10.23
222.785	10.1
223.249	9.95
223.713	9.8
224.177	9.7
224.642	9.58
225.106	9.46
225.57	9.33
226.034	9.25
226.497	9.15
226.961	9.04
227.425	8.93
227.889	8.83
228.353	8.74
228.816	8.66
229.28	8.55
229.744	8.47
230.207	8.39
230.671	8.32
231.134	8.26
231.597	8.19
232.061	8.11
232.524	8.05
232.987	7.98
233.45	7.91
233.914	7.85
234.377	7.79
234.84	7.72
235.303	7.68
235.766	7.63
236.229	7.57
236.691	7.52
237.154	7.49
237.617	7.44
238.08	7.39
238.542	7.33
239.005	7.29
239.468	7.24
239.93	7.19
240.393	7.13
240.855	7.08
241.317	7.03
241.78	6.98
242.242	6.92
242.704	6.87
243.166	6.82
243.629	6.79
244.091	6.75
244.553	6.7
245.015	6.66
245.477	6.62
245.939	6.59
246.4	6.55
246.862	6.5
247.324	6.47
247.786	6.42
248.247	6.38
248.709	6.33
249.17	6.28
249.632	6.25
250.093	6.23
250.555	6.19
251.016	6.15
251.477	6.11
251.939	6.08
252.4	6.06
252.861	6.03
253.322	6.01
253.783	5.99
254.244	5.97
254.705	5.93
255.166	5.9
255.627	5.87
256.088	5.84
256.549	5.82
257.009	5.8
257.47	5.76
257.931	5.73
258.391	5.69
258.852	5.66
259.312	5.63
259.773	5.61
260.233	5.6
260.694	5.58
261.154	5.55
261.614	5.53
262.074	5.51
262.534	5.49
262.994	5.48
263.455	5.47
263.915	5.46
264.374	5.44
264.834	5.42
265.294	5.41
265.754	5.4
266.214	5.39
266.673	5.38
267.133	5.37
267.593	5.37
268.052	5.35
268.512	5.35
268.971	5.33
269.431	5.32
269.89	5.31
270.349	5.31
270.809	5.29
271.268	5.28
271.727	5.27
272.186	5.26
272.645	5.25
273.104	5.25
273.563	5.24
274.022	5.23
274.481	5.22
274.94	5.21
275.399	5.2
275.857	5.19
276.316	5.19
276.775	5.17
277.233	5.16
277.692	5.14
278.15	5.13
278.609	5.11
279.067	5.1
279.525	5.09
279.984	5.07
280.442	5.06
280.9	5.05
281.358	5.04
281.816	5.04
282.274	5.03
282.732	5.01
283.19	5
283.648	4.98
284.106	4.97
284.564	4.96
285.021	4.96
285.479	4.95
285.937	4.93
286.394	4.92
286.852	4.91
287.309	4.9
287.767	4.89
288.224	4.88
288.682	4.87
289.139	4.86
289.596	4.85
290.053	4.82
290.511	4.81
290.968	4.8
291.425	4.79
291.882	4.78
292.339	4.76
292.796	4.75
293.252	4.75
293.709	4.74
294.166	4.73
294.623	4.72
295.079	4.71
295.536	4.7
295.992	4.69
296.449	4.69
296.905	4.68
297.362	4.68
297.818	4.67
298.274	4.67
298.731	4.66
299.187	4.65
299.643	4.65
300.099	4.65
300.555	4.64
301.011	4.64
301.467	4.63
301.923	4.62
302.379	4.62
302.835	4.61
303.291	4.59
303.746	4.58
304.202	4.58
304.658	4.57
305.113	4.56
305.569	4.56
306.024	4.55
306.479	4.54
306.935	4.52
307.39	4.52
307.845	4.51
308.301	4.51
308.756	4.51
309.211	4.51
309.666	4.51
310.121	4.51
310.576	4.51
311.031	4.51
311.486	4.5
311.94	4.51
312.395	4.5
312.85	4.49
313.305	4.49
313.759	4.48
314.214	4.47
314.668	4.46
315.123	4.45
315.577	4.45
316.032	4.45
316.486	4.44
316.94	4.43
317.394	4.43
317.849	4.42
318.303	4.41
318.757	4.41
319.211	4.41
319.665	4.4
320.119	4.39
320.572	4.37
321.026	4.37
321.48	4.36
321.934	4.35
322.387	4.34
322.841	4.34
323.295	4.33
323.748	4.32
324.202	4.32
324.655	4.32
325.108	4.32
325.562	4.31
326.015	4.31
326.468	4.31
326.921	4.31
327.374	4.3
327.827	4.31
328.28	4.3
328.733	4.3
329.186	4.29
329.639	4.29
330.092	4.28
330.545	4.27
330.997	4.27
331.45	4.27
331.903	4.27
332.355	4.28
332.808	4.27
333.26	4.27
333.713	4.26
334.165	4.26
334.617	4.26
335.069	4.26
335.522	4.27
335.974	4.26
336.426	4.25
336.878	4.25
337.33	4.25
337.782	4.26
338.234	4.26
338.686	4.26
339.137	4.26
339.589	4.25
340.041	4.25
340.493	4.24
340.944	4.23
341.396	4.23
341.847	4.22
342.299	4.2
342.75	4.19
343.201	4.18
343.653	4.17
344.104	4.15
344.555	4.15
345.006	4.15
345.457	4.15
345.908	4.14
346.359	4.14
346.81	4.14
347.261	4.14
347.712	4.13
348.163	4.13
348.613	4.13
349.064	4.14
349.515	4.14
349.965	4.13
350.416	4.12
350.866	4.11
351.317	4.11
351.767	4.12
352.217	4.12
352.668	4.13
353.118	4.12
353.568	4.12
354.018	4.12
354.468	4.12
354.918	4.13
355.368	4.13
355.818	4.14
356.268	4.14
356.718	4.14
357.168	4.13
357.617	4.12
358.067	4.12
358.517	4.14
358.966	4.14
359.416	4.14
359.865	4.13
360.315	4.13
360.764	4.15
361.213	4.14
361.663	4.14
362.112	4.15
362.561	4.16
363.01	4.17
363.459	4.16
363.908	4.15
364.357	4.17
364.806	4.17
365.255	4.18
365.703	4.18
366.152	4.19
366.601	4.21
367.05	4.21
367.498	4.21
367.947	4.22
368.395	4.23
368.844	4.25
369.292	4.26
369.74	4.26
370.189	4.27
370.637	4.27
371.085	4.28
371.533	4.27
371.981	4.29
372.429	4.29
372.877	4.3
373.325	4.31
373.773	4.31
374.221	4.31
374.669	4.32
375.116	4.32
375.564	4.33
376.012	4.34
376.459	4.35
376.907	4.36
377.354	4.37
377.801	4.39
378.249	4.41
378.696	4.42
379.143	4.43
379.591	4.45
380.038	4.47
380.485	4.49
380.932	4.5
381.379	4.51
381.826	4.53
382.273	4.55
382.72	4.55
383.166	4.56
383.613	4.57
384.06	4.57
384.506	4.59
384.953	4.61
385.4	4.61
385.846	4.63
386.292	4.65
386.739	4.67
387.185	4.68
387.631	4.7
388.078	4.72
388.524	4.74
388.97	4.76
389.416	4.77
389.862	4.79
390.308	4.81
390.754	4.83
391.2	4.86
391.645	4.88
392.091	4.91
392.537	4.93
392.983	4.95
393.428	4.97
393.874	4.99
394.319	5.01
394.765	5.03
395.21	5.05
395.655	5.06
396.101	5.08
396.546	5.1
396.991	5.12
397.436	5.15
397.881	5.19
398.326	5.22
398.771	5.25
399.216	5.27
399.661	5.31
400.106	5.33
400.551	5.35
400.995	5.37
401.44	5.39
401.885	5.4
402.329	5.43
402.774	5.44
403.218	5.47
403.663	5.5
404.107	5.51
404.551	5.53
404.995	5.55
405.44	5.58
405.884	5.6
406.328	5.63
406.772	5.64
407.216	5.66
407.66	5.67
408.104	5.67
408.547	5.69
408.991	5.72
409.435	5.74
409.879	5.76
410.322	5.78
410.766	5.8
411.209	5.82
411.653	5.85
412.096	5.87
412.54	5.9
412.983	5.92
413.426	5.95
413.869	5.97
414.312	6
414.756	6.03
415.199	6.04
415.642	6.06
416.085	6.07
416.527	6.07
416.97	6.06
417.413	6.07
417.856	6.09
418.298	6.08
418.741	6.1
419.184	6.11
419.626	6.11
420.069	6.13
420.511	6.13
420.953	6.13
421.396	6.15
421.838	6.16
422.28	6.17
422.722	6.19
423.164	6.2
423.606	6.21
424.048	6.22
424.49	6.22
424.932	6.22
425.374	6.22
425.816	6.23
426.258	6.22
426.699	6.23
427.141	6.23
427.582	6.24
428.024	6.25
428.465	6.26
428.907	6.25
429.348	6.26
429.789	6.27
430.231	6.3
430.672	6.31
431.113	6.34
431.554	6.36
431.995	6.38
432.436	6.39
432.877	6.4
433.318	6.41
433.759	6.43
434.2	6.45
434.64	6.46
435.081	6.47
435.522	6.48
435.962	6.49
436.403	6.51
436.843	6.51
437.284	6.51
437.724	6.51
438.164	6.5
438.604	6.52
439.045	6.52
439.485	6.52
439.925	6.51
440.365	6.52
440.805	6.52
441.245	6.52
441.685	6.54
442.125	6.55
442.564	6.57
443.004	6.56
443.444	6.55
443.883	6.56
444.323	6.55
444.762	6.54
445.202	6.53
445.641	6.54
446.081	6.55
446.52	6.53
446.959	6.54
447.398	6.54
447.837	6.54
448.276	6.53
448.716	6.53
449.154	6.55
449.593	6.57
450.032	6.55
450.471	6.54
450.91	6.52
451.349	6.52
451.787	6.51
452.226	6.49
452.664	6.5
453.103	6.5
453.541	6.5
453.98	6.5
454.418	6.48
454.856	6.49
455.295	6.47
455.733	6.46
456.171	6.46
456.609	6.45
457.047	6.44
457.485	6.42
457.923	6.4
458.361	6.39
458.798	6.37
459.236	6.37
459.674	6.36
460.111	6.37
460.549	6.37
460.987	6.38
461.424	6.39
461.862	6.39
462.299	6.39
462.736	6.4
463.173	6.4
463.611	6.42
464.048	6.42
464.485	6.43
464.922	6.43
465.359	6.44
465.796	6.44
466.233	6.45
466.67	6.46
467.106	6.48
467.543	6.48
467.98	6.48
468.416	6.48
468.853	6.49
469.29	6.49
469.726	6.49
470.162	6.49
470.599	6.49
471.035	6.48
471.471	6.47
471.907	6.45
472.344	6.45
472.78	6.45
473.216	6.44
473.652	6.44
474.088	6.43
474.523	6.42
474.959	6.42
475.395	6.38
475.831	6.38
476.266	6.38
476.702	6.37
477.138	6.35
477.573	6.35
478.008	6.34
478.444	6.32
478.879	6.31
479.314	6.3
479.75	6.3
480.185	6.29
480.62	6.28
481.055	6.26
481.49	6.24
481.925	6.23
482.36	6.22
482.795	6.2
483.229	6.19
483.664	6.18
484.099	6.16
484.534	6.14
484.968	6.14
485.403	6.15
485.837	6.15
486.271	6.15
486.706	6.15
487.14	6.15
487.574	6.14
488.009	6.14
488.443	6.14
488.877	6.16
489.311	6.16
489.745	6.17
490.179	6.16
490.613	6.16
491.046	6.16
491.48	6.17
491.914	6.17
492.348	6.19
492.781	6.21
493.215	6.22
493.648	6.22
494.082	6.22
494.515	6.23
494.948	6.24
495.382	6.25
495.815	6.26
496.248	6.27
496.681	6.27
497.114	6.28
497.547	6.27
497.98	6.27
498.413	6.27
498.846	6.28
499.279	6.28
499.711	6.29
500.144	6.3
500.577	6.32
501.009	6.32
501.442	6.34
501.874	6.35
502.306	6.37
502.739	6.39
503.171	6.42
503.603	6.44
504.036	6.46
504.468	6.48
504.9	6.49
505.332	6.51
505.764	6.53
506.196	6.56
506.627	6.58
507.059	6.6
507.491	6.62
507.923	6.64
508.354	6.67
508.786	6.7
509.217	6.73
509.649	6.76
510.08	6.79
510.512	6.83
510.943	6.86
511.374	6.89
511.805	6.94
512.237	6.98
512.668	7.03
513.099	7.07
513.53	7.11
513.961	7.16
514.391	7.21
514.822	7.26
515.253	7.3
515.684	7.37
516.114	7.43
516.545	7.49
516.975	7.56
517.406	7.61
517.836	7.67
518.267	7.74
518.697	7.82
519.127	7.87
519.558	7.95
519.988	8.04
520.418	8.1
520.848	8.17
521.278	8.24
521.708	8.41
522.138	8.47
522.567	8.54
522.997	8.6
523.427	8.67
523.857	8.75
524.286	8.81
524.716	8.86
525.145	8.94
525.575	9.01
526.004	9.07
526.433	9.04
526.863	9.11
527.292	9.18
527.721	9.24
528.15	9.29
528.579	9.34
529.008	9.4
529.437	9.45
529.866	9.5
530.295	9.54
530.724	9.58
531.152	9.62
531.581	9.66
532.01	9.69
532.438	9.74
532.867	9.78
533.295	9.82
533.723	9.84
534.152	9.87
534.58	9.9
535.008	9.91
535.436	9.95
535.865	9.96
536.293	9.99
536.721	10
537.149	10.02
537.576	10.04
538.004	10.05
538.432	10.06
538.86	10.08
539.287	10.09
539.715	10.12
540.143	10.12
540.57	10.14
540.998	10.14
541.425	10.15
541.852	10.17
542.28	10.18
542.707	10.19
543.134	10.21
543.561	10.23
543.988	10.23
544.415	10.25
544.842	10.26
545.269	10.27
545.696	10.29
546.123	10.3
546.549	10.31
546.976	10.33
547.403	10.34
547.829	10.36
548.256	10.35
548.682	10.37
549.108	10.37
549.535	10.37
549.961	10.37
550.387	10.37
550.813	10.37
551.24	10.36
551.666	10.36
552.092	10.35
552.518	10.35
552.943	10.34
553.369	10.32
553.795	10.29
554.221	10.27
554.646	10.24
555.072	10.22
555.498	10.19
555.923	10.17
556.349	10.13
556.774	10.1
557.199	10.06
557.625	10.04
558.05	10.01
558.475	9.98
558.9	9.94
559.325	9.92
559.75	9.88
560.175	9.85
560.6	9.81
561.025	9.77
561.449	9.71
561.874	9.67
562.299	9.63
562.723	9.58
563.148	9.53
563.572	9.47
563.997	9.4
564.421	9.35
564.846	9.27
565.27	9.22
565.694	9.16
566.118	9.1
566.542	9.05
566.966	8.99
567.39	8.93
567.814	8.87
568.238	8.83
568.662	8.79
569.086	8.74
569.509	8.71
569.933	8.66
570.357	8.6
570.78	8.56
571.204	8.51
571.627	8.47
572.05	8.43
572.474	8.4
572.897	8.36
573.32	8.31
573.743	8.27
574.166	8.24
574.589	8.2
575.012	8.17
575.435	8.14
575.858	8.11
576.281	8.07
576.704	8.04
577.126	8.01
577.549	7.97
577.972	7.94
578.394	7.92
578.817	7.89
579.239	7.88
579.661	7.87
580.084	7.84
580.506	7.82
580.928	7.8
581.35	7.78
581.772	7.75
582.194	7.74
582.616	7.71
583.038	7.69
583.46	7.66
583.882	7.64
584.303	7.61
584.725	7.59
585.147	7.57
585.568	7.54
585.99	7.52
586.411	7.5
586.833	7.48
587.254	7.45
587.675	7.43
588.096	7.41
588.518	7.4
588.939	7.39
589.36	7.37
589.781	7.36
590.202	7.37
590.623	7.37
591.043	7.35
591.464	7.33
591.885	7.33
592.305	7.33
592.726	7.33
593.147	7.31
593.567	7.3
593.987	7.3
594.408	7.28
594.828	7.27
595.248	7.26
595.669	7.26
596.089	7.25
596.509	7.24
596.929	7.21
597.349	7.2
597.769	7.19
598.189	7.17
598.608	7.16
599.028	7.16
599.448	7.14
599.867	7.13
600.287	7.12
600.706	7.11
601.126	7.1
601.545	7.08
601.965	7.08
602.384	7.06
602.803	7.05
603.222	7.04
603.641	7.02
604.061	7.01
604.48	6.99
604.898	6.97
605.317	6.96
605.736	6.95
606.155	6.94
606.574	6.93
606.992	6.92
607.411	6.92
607.829	6.88
608.248	6.85
608.666	6.84
609.085	6.83
609.503	6.82
609.921	6.8
610.339	6.79
610.758	6.78
611.176	6.76
611.594	6.74
612.012	6.72
612.43	6.73
612.847	6.72
613.265	6.71
613.683	6.7
614.101	6.69
614.518	6.68
614.936	6.66
615.353	6.66
615.771	6.65
616.188	6.64
616.606	6.64
617.023	6.62
617.44	6.62
617.857	6.61
618.274	6.6
618.691	6.58
619.108	6.56
619.525	6.55
619.942	6.55
620.359	6.54
620.776	6.53
621.192	6.51
621.609	6.51
622.026	6.5
622.442	6.49
622.859	6.49
623.275	6.48
623.691	6.49
624.108	6.49
624.524	6.47
624.94	6.47
625.356	6.47
625.772	6.46
626.188	6.47
626.604	6.45
627.02	6.45
627.436	6.45
627.852	6.44
628.268	6.43
628.683	6.44
629.099	6.44
629.514	6.44
629.93	6.43
630.345	6.43
630.761	6.42
631.176	6.42
631.591	6.42
632.007	6.41
632.422	6.41
632.837	6.4
633.252	6.37
633.667	6.36
634.082	6.35
634.497	6.34
634.911	6.32
635.326	6.31
635.741	6.31
636.155	6.28
636.57	6.28
636.984	6.26
637.399	6.24
637.813	6.24
638.228	6.22
638.642	6.2
639.056	6.18
639.47	6.17
639.884	6.16
640.298	6.14
640.712	6.12
641.126	6.1
641.54	6.08
641.954	6.06
642.368	6.04
642.781	6.03
643.195	6.02
643.609	6
644.022	5.99
644.436	5.98
644.849	5.97
645.262	5.96
645.676	5.95
646.089	5.95
646.502	5.95
646.915	5.94
647.328	5.94
647.741	5.94
648.154	5.94
648.567	5.93
648.98	5.92
649.393	5.92
649.805	5.91
650.218	5.9
650.631	5.89
651.043	5.9
651.456	5.89
651.868	5.87
652.28	5.87
652.693	5.86
653.105	5.86
653.517	5.86
653.929	5.87
654.341	5.86
654.753	5.86
655.165	5.85
655.577	5.85
655.989	5.85
656.401	5.85
656.813	5.85
657.224	5.84
657.636	5.83
658.047	5.83
658.459	5.81
658.87	5.81
659.282	5.81
659.693	5.81
660.104	5.79
660.515	5.79
660.926	5.78
661.338	5.77
661.749	5.76
662.159	5.75
662.57	5.75
662.981	5.74
663.392	5.73
663.803	5.72
664.213	5.72
664.624	5.72
665.035	5.72
665.445	5.72
665.855	5.72
666.266	5.73
666.676	5.74
667.086	5.73
667.497	5.74
667.907	5.74
668.317	5.75
668.727	5.75
669.137	5.75
669.547	5.76
669.956	5.77
670.366	5.77
670.776	5.76
671.186	5.78
671.595	5.78
672.005	5.79
672.414	5.79
672.824	5.79
673.233	5.8
673.642	5.81
674.052	5.82
674.461	5.83
674.87	5.84
675.279	5.86
675.688	5.88
676.097	5.9
676.506	5.92
676.915	5.95
677.323	5.96
677.732	5.98
678.141	5.99
678.549	6
678.958	6.03
679.366	6.05
679.775	6.07
680.183	6.08
680.592	6.12
681	6.14
681.408	6.15
681.816	6.18
682.224	6.21
682.632	6.23
683.04	6.25
683.448	6.27
683.856	6.27
684.264	6.29
684.671	6.29
685.079	6.3
685.487	6.31
685.894	6.35
686.302	6.37
686.709	6.4
687.116	6.44
687.524	6.47
687.931	6.52
688.338	6.58
688.745	6.64
689.152	6.7
689.559	6.77
689.966	6.85
690.373	6.92
690.78	7.01
691.187	7.1
691.593	7.2
692	7.33
692.407	7.43
692.813	7.56
693.22	7.7
693.626	7.84
694.032	8
694.439	8.17
694.845	8.35
695.251	8.53
695.657	8.71
696.063	8.92
696.469	9.12
696.875	9.36
697.281	9.59
697.687	9.83
698.093	10.1
698.498	10.35
698.904	10.63
699.31	10.88
699.715	11.17
700.12	11.47
700.526	11.76
700.931	12.06
701.337	12.36
701.742	12.67
702.147	12.98
702.552	13.29
702.957	13.61
703.362	13.93
703.767	14.27
704.172	14.6
704.577	14.95
704.981	15.3
705.386	15.65
705.791	16
706.195	16.35
706.6	16.72
707.004	17.08
707.408	17.45
707.813	17.83
708.217	18.2
708.621	18.59
709.025	18.96
709.43	19.34
709.834	19.72
710.237	20.1
710.641	20.49
711.045	20.88
711.449	21.28
711.853	21.68
712.256	22.07
712.66	22.47
713.064	22.86
713.467	23.27
713.87	23.68
714.274	24.08
714.677	24.49
715.08	24.89
715.484	25.3
715.887	25.71
716.29	26.11
716.693	26.53
717.096	26.94
717.499	27.37
717.901	27.8
718.304	28.21
718.707	28.62
719.109	29.04
719.512	29.46
719.915	29.87
720.317	30.26
720.719	30.63
721.122	31.01
721.524	31.38
721.926	31.76
722.328	32.13
722.731	32.52
723.133	32.9
723.535	33.26
723.937	33.62
724.338	33.97
724.74	34.33
725.142	34.72
725.544	35.06
725.945	35.43
726.347	35.74
726.748	36.05
727.15	36.34
727.551	36.65
727.952	36.97
728.354	37.24
728.755	37.54
729.156	37.83
729.557	38.07
729.958	38.33
730.359	38.58
730.76	38.85
731.161	39.1
731.562	39.38
731.962	39.58
732.363	39.81
732.763	40.04
733.164	40.27
733.564	40.48
733.965	40.67
734.365	40.88
734.766	41.08
735.166	41.27
735.566	41.46
735.966	41.64
736.366	41.84
736.766	41.98
737.166	42.15
737.566	42.3
737.966	42.46
738.365	42.61
738.765	42.77
739.165	42.89
739.564	43.03
739.964	43.16
740.363	43.26
740.763	43.36
741.162	43.48
741.561	43.59
741.96	43.69
742.36	43.81
742.759	43.91
743.158	43.99
743.557	44.08
743.955	44.2
744.354	44.28
744.753	44.39
745.152	44.5
745.55	44.59
745.949	44.66
746.348	44.74
746.746	44.8
747.144	44.87
747.543	44.96
747.941	45.05
748.339	45.06
748.737	45.1
749.136	45.13
749.534	45.18
749.932	45.22
750.33	45.3
750.727	45.35
751.125	45.4
751.523	45.42
751.921	45.45
752.318	45.48
752.716	45.51
753.113	45.56
753.511	45.6
753.908	45.65
754.305	45.68
754.703	45.69
755.1	45.7
755.497	45.69
755.894	45.69
756.291	45.67
756.688	45.64
757.085	45.66
757.482	45.64
757.878	45.63
758.275	45.58
758.672	45.57
759.068	45.57
759.465	45.58
759.861	45.61
760.258	45.64
760.654	45.67
761.05	45.71
761.447	45.73
761.843	45.75
762.239	45.78
762.635	45.81
763.031	45.85
763.427	45.85
763.822	45.89
764.218	45.93
764.614	45.94
765.01	45.96
765.405	45.97
765.801	45.98
766.196	46.02
766.592	46.04
766.987	46.06
767.382	46.06
767.778	46.1
768.173	46.07
768.568	46.05
768.963	46.08
769.358	46.1
769.753	46.12
770.148	46.15
770.542	46.14
770.937	46.15
771.332	46.17
771.726	46.18
772.121	46.15
772.515	46.18
772.91	46.18
773.304	46.19
773.699	46.17
774.093	46.18
774.487	46.18
774.881	46.21
775.275	46.19
775.669	46.16
776.063	46.16
776.457	46.18
776.851	46.17
777.245	46.15
777.638	46.14
778.032	46.16
778.425	46.16
778.819	46.13
779.212	46.09
779.606	46.12
779.999	46.14
780.392	46.17
780.786	46.15
781.179	46.19
781.572	46.24
781.965	46.27
782.358	46.29
782.751	46.28
783.143	46.32
783.536	46.33
783.929	46.35
784.322	46.35
784.714	46.35
785.107	46.38
785.499	46.35
785.891	46.36
786.284	46.34
786.676	46.32
787.068	46.33
787.46	46.33
787.852	46.35
788.245	46.32
788.636	46.3
789.028	46.28
789.42	46.27
789.812	46.28
790.204	46.28
790.595	46.26
790.987	46.25
791.378	46.27
791.77	46.27
792.161	46.23
792.553	46.24
792.944	46.25
793.335	46.27
793.726	46.26
794.117	46.24
794.508	46.2
794.899	46.21
795.29	46.24
795.681	46.19
796.072	46.18
796.463	46.19
796.853	46.17
797.244	46.16
797.634	46.14
798.025	46.16
798.415	46.16
798.806	46.17
799.196	46.17
799.586	46.15
799.976	46.18
800.366	46.18
800.756	46.21
801.146	46.25
801.536	46.26
801.926	46.26
802.316	46.24
802.706	46.26
803.095	46.25
803.485	46.23
803.874	46.22
804.264	46.22
804.653	46.24
805.043	46.19
805.432	46.17
805.821	46.15
806.21	46.17
806.599	46.19
806.988	46.16
807.377	46.16
807.766	46.18
808.155	46.18
808.544	46.18
808.933	46.16
809.321	46.16
809.71	46.16
810.098	46.15
810.487	46.14
810.875	46.1
811.264	46.1
811.652	46.11
812.04	46.09
812.428	46.1
812.816	46.07
813.204	46.06
813.592	46.05
813.98	46.05
814.368	46.07
814.756	46.04
815.144	46.04
815.531	46.03
815.919	46
816.306	46.01
816.694	46.01
817.081	46.04
817.469	46.03
817.856	46.03
818.243	46.01
818.63	46
819.017	46
819.404	45.99
819.791	45.98
820.178	45.99
820.565	45.96
820.952	45.94
821.339	45.93
821.725	45.93
822.112	45.94
822.498	45.95
822.885	45.96
823.271	45.95
823.657	45.95
824.044	45.98
824.43	45.97
824.816	45.98
825.202	45.98
825.588	45.99
825.974	45.97
826.36	45.96
826.746	45.97
827.132	45.95
827.517	45.96
827.903	45.99
828.289	45.99
828.674	46.01
829.06	46.01
829.445	46.01
829.83	46.02
830.216	46.03
830.601	46.04
830.986	46.04
831.371	46.07
831.756	46.07
832.141	46.06
832.526	46.07
832.911	46.06
833.295	46.07
833.68	46.09
834.065	46.08
834.449	46.06
834.834	46.07
835.218	46.08
835.603	46.05
835.987	46.07
836.371	46.07
836.755	46.04
837.139	46.03
837.524	46.03
837.908	46.04
838.291	46.06
838.675	46.07
839.059	46.06
839.443	46.06
839.827	46.06
840.21	46.05
840.594	46.06
840.977	46.07
841.361	46.08
841.744	46.08
842.127	46.03
842.511	46.01
842.894	46.01
843.277	45.99
843.66	45.98
844.043	46
844.426	45.99
844.809	45.99
845.191	46
845.574	46.01
845.957	46.01
846.339	46.04
846.722	46.06
847.104	46.06
847.487	46.09
847.869	46.08
848.252	46.07
848.634	46.1
849.016	46.09
849.398	46.1
849.78	46.1
850.162	46.1
850.544	46.11
850.926	46.1
851.307	46.11
851.689	46.12
852.071	46.12
852.452	46.14
852.834	46.15
853.215	46.14
853.597	46.14
853.978	46.11
854.359	46.11
854.741	46.11
855.122	46.11
855.503	46.09
855.884	46.07
856.265	46.08
856.646	46.06
857.026	46.05
857.407	46.08
857.788	46.08
858.169	46.11
858.549	46.11
858.93	46.13
859.31	46.13
859.69	46.15
860.071	46.19
860.451	46.2
860.831	46.23
861.211	46.21
861.591	46.18
861.971	46.17
862.351	46.16
862.731	46.16
863.111	46.13
863.491	46.13
863.87	46.11
864.25	46.09
864.629	46.06
865.009	46.05
865.388	46.07
865.768	46.09
866.147	46.09
866.526	46.09
866.905	46.1
867.284	46.12
867.663	46.11
868.042	46.14
868.421	46.16
868.8	46.15
869.179	46.14
869.558	46.13
869.936	46.12
870.315	46.12
870.693	46.1
871.072	46.11
871.45	46.11
871.828	46.12
872.207	46.12
872.585	46.11
872.963	46.15
873.341	46.14
873.719	46.14
874.097	46.15
874.475	46.17
874.853	46.18
875.23	46.19
875.608	46.17
875.986	46.16
876.363	46.14
876.741	46.14
877.118	46.12
877.495	46.15
877.873	46.19
878.25	46.2
878.627	46.22
879.004	46.2
879.381	46.22
879.758	46.19
880.135	46.21
880.512	46.22
880.889	46.22
881.265	46.21
881.642	46.21
882.019	46.18
882.395	46.15
882.772	46.14
883.148	46.13
883.524	46.13
883.901	46.15
884.277	46.14
884.653	46.13
885.029	46.11
885.405	46.12
885.781	46.12
886.157	46.13
886.532	46.15
886.908	46.15
887.284	46.15
887.659	46.13
888.035	46.12
888.411	46.1
888.786	46.09
889.161	46.1
889.537	46.09
889.912	46.09
890.287	46.09
890.662	46.06
891.037	46.07
891.412	46.06
891.787	46.05
892.162	46.07
892.536	46.09
892.911	46.11
893.286	46.11
893.66	46.11
894.035	46.12
894.409	46.1
894.784	46.12
895.158	46.1
895.532	46.13
895.906	46.14
896.281	46.12
896.655	46.11
897.029	46.1
897.402	46.1
897.776	46.11
898.15	46.09
898.524	46.1
898.898	46.07
899.271	46.09
899.645	46.09
900.018	46.11
900.392	46.13
900.765	46.13
901.138	46.12
901.511	46.12
901.884	46.12
902.258	46.14
902.631	46.14
903.003	46.17
903.376	46.16
903.749	46.15
904.122	46.16
904.495	46.18
904.867	46.18
905.24	46.21
905.612	46.23
905.985	46.22
906.357	46.21
906.729	46.22
907.102	46.23
907.474	46.25
907.846	46.24
908.218	46.23
908.59	46.21
908.962	46.21
909.334	46.2
909.705	46.18
910.077	46.19
910.449	46.19
910.82	46.18
911.192	46.16
911.563	46.14
911.935	46.12
912.306	46.14
912.677	46.14
913.048	46.15
913.419	46.14
913.79	46.14
914.161	46.13
914.532	46.11
914.903	46.13
915.274	46.12
915.645	46.12
916.015	46.14
916.386	46.11
916.756	46.09
917.127	46.13
917.497	46.13
917.868	46.12
918.238	46.12
918.608	46.16
918.978	46.15
919.348	46.17
919.718	46.19
920.088	46.22
920.458	46.22
920.828	46.22
921.198	46.17
921.567	46.16
921.937	46.19
922.306	46.18
922.676	46.16
923.045	46.13
923.415	46.11
923.784	46.08
924.153	46.05
924.522	46.05
924.891	46.02
925.26	46.04
925.629	46.03
925.998	46
926.367	46
926.736	45.98
927.104	45.98
927.473	45.98
927.842	45.96
928.21	45.96
928.578	45.91
928.947	45.95
929.315	45.91
929.683	45.93
930.051	45.92
930.42	45.89
930.788	45.86
931.156	45.81
931.523	45.79
931.891	45.81
932.259	45.81
932.627	45.82
932.994	45.81
933.362	45.78
933.729	45.76
934.097	45.74
934.464	45.75
934.831	45.75
935.199	45.79
935.566	45.77
935.933	45.74
936.3	45.7
936.667	45.69
937.034	45.66
937.401	45.68
937.767	45.64
938.134	45.61
938.501	45.62
938.867	45.65
939.234	45.64
939.6	45.66
939.967	45.65
940.333	45.6
940.699	45.61
941.065	45.6
941.431	45.59
941.798	45.58
942.163	45.61
942.529	45.57
942.895	45.5
943.261	45.51
943.627	45.49
943.992	45.51
944.358	45.56
944.723	45.56
945.089	45.54
945.454	45.56
945.82	45.55
946.185	45.53
946.55	45.5
946.915	45.52
947.28	45.44
947.645	45.42
948.01	45.44
948.375	45.43
948.74	45.41
949.104	45.43
949.469	45.38
949.834	45.38
950.198	45.36
950.562	45.35
950.927	45.3
951.291	45.27
951.655	45.22
952.02	45.2
952.384	45.14
952.748	45.16
953.112	45.15
953.476	45.12
953.839	45.07
954.203	45.04
954.567	45.05
954.931	45.04
955.294	45.05
955.658	45.15
956.021	45.09
956.385	45.1
956.748	45.02
957.111	44.99
957.474	44.95
957.837	44.93
958.2	44.91
958.563	44.87
958.926	44.88
959.289	44.9
959.652	44.79
960.015	44.8
960.377	44.78
960.74	44.81
961.102	44.82
961.465	44.85
961.827	44.91
962.189	44.96
962.552	44.93
962.914	44.88
963.276	44.92
963.638	44.98
964	44.95
964.362	44.99
964.724	44.97
965.085	44.95
965.447	44.93
965.809	44.91
966.17	44.86
966.532	44.88
966.893	44.92
967.255	44.9
967.616	44.9
967.977	44.94
968.338	44.9
968.699	44.89
969.061	44.88
969.421	44.87
969.782	44.89
970.143	44.88
970.504	44.91
970.865	44.92
971.225	44.86
971.586	44.85
971.946	44.86
972.307	44.89
972.667	44.87
973.027	44.88
973.388	44.9
973.748	44.86
974.108	44.93
974.468	44.86
974.828	44.85
975.188	44.85
975.548	44.78
975.907	44.74
976.267	44.75
976.627	44.72
976.986	44.72
977.346	44.68
977.705	44.72
978.064	44.67
978.424	44.69
978.783	44.64
979.142	44.62
979.501	44.68
979.86	44.68
980.219	44.62
980.578	44.64
980.937	44.61
981.296	44.6
981.654	44.57
982.013	44.55
982.371	44.57
982.73	44.62
983.088	44.67
983.447	44.6
983.805	44.59
984.163	44.57
984.521	44.6
984.879	44.56
985.237	44.57
985.595	44.59
985.953	44.54
986.311	44.54
986.669	44.5
987.026	44.44
987.384	44.52
987.741	44.54
988.099	44.66
988.456	44.59
988.814	44.62
989.171	44.68
989.528	44.66
989.885	44.64
990.242	44.63
990.599	44.63
990.956	44.66
991.313	44.57
991.67	44.5
992.027	44.42
992.383	44.55
992.74	44.58
993.096	44.52
993.453	44.44
993.809	44.48
994.165	44.49
994.522	44.52
994.878	44.55
995.234	44.55
995.59	44.59
995.946	44.49
996.302	44.4
996.658	44.47
997.013	44.49
997.369	44.56
997.725	44.57
998.08	44.54
998.436	44.41
998.791	44.41
999.147	44.45
999.502	44.49
999.857	44.58
1000.212	44.46
1000.567	44.4
1000.922	44.33
1001.277	44.25
1001.632	44.15
1001.987	44.19
1002.342	44.26
1002.696	44.13
1003.051	44.24
1003.406	44.26
1003.76	44.27
1004.114	44.29
1004.469	44.28
1004.823	44.52
1005.177	44.57
1005.531	44.73
1005.885	44.74
1006.239	44.61
1006.593	44.79
1006.947	44.67
1007.301	44.54
1007.655	44.41
1008.008	44.5
1008.362	44.52
1008.715	44.33
1009.069	44.39
1009.422	44.29
1009.776	44.22
1010.129	44.44
1010.482	44.46
1010.835	44.47
1011.188	44.58
1011.541	44.63
1011.894	44.53
1012.247	44.5
1012.6	44.46
1012.952	44.16
1013.305	44.14
1013.657	44.2
1014.01	43.99
1014.362	43.94
1014.715	43.91
1015.067	43.86
1015.419	44.08
1015.771	44.08
1016.123	43.96
1016.475	43.98
1016.827	44.22
1017.179	44.21
1017.531	44.21
1017.883	44.12
1018.234	44.09
1018.586	44.02
1018.938	43.98
1019.289	43.81
1019.64	43.82
1019.992	43.85
1020.343	43.83
1020.694	43.82
1021.045	43.9
1021.396	43.64
1021.747	43.9
1022.098	43.8
1022.449	43.77
1022.8	43.75
1023.151	43.68
1023.501	43.7
1023.852	43.79
1024.202	43.59
1024.553	43.36
1024.903	43.39
1025.253	43.36
1025.604	43.13
1025.954	42.98
1026.304	43.01
1026.654	43
1027.004	42.94
1027.354	42.82
1027.703	42.43
1028.053	42.47
1028.403	42.85
1028.753	42.78
1029.102	43.16
1029.452	43.41
1029.801	43.68
1030.15	43.69
1030.499	43.66
897.758	758.88
901.051	761.86
904.343	762.79
907.636	776.7
910.928	754.46
914.22	757.08
917.511	746.83
920.803	712.74
924.094	710.81
927.384	693.57
930.675	667.04
933.965	665.02
937.255	629.01
940.544	603.75
943.834	576.38
947.123	572.06
950.411	540.9
953.7	531.23
956.988	503.45
960.276	485.91
963.563	476.8
966.851	462.91
970.138	458.39
973.424	445.16
976.711	446.83
979.997	426.13
983.283	423.16
986.568	413.24
989.853	402.02
993.138	396.25
996.423	380.2
999.708	371.13
1002.992	364.84
1006.275	351.27
1009.559	347.42
1012.842	336.09
1016.125	327.08
1019.408	321.91
1022.69	318.39
1025.972	311.02
1029.254	304.17
1032.536	299.37
1035.817	294.06
1039.098	291.38
1042.379	285.28
1045.659	282.04
1048.939	276.01
1052.219	270.89
1055.498	267.66
1058.778	260.45
1062.057	256.37
1065.335	254.27
1068.614	251.97
1071.892	248.31
1075.17	242.3
1078.447	237.92
1081.724	235.99
1085.001	233.76
1088.278	229.78
1091.554	225.24
1094.83	226.52
1098.106	224.41
1101.382	222.52
1104.657	221.4
1107.932	218.21
1111.206	218.56
1114.481	213.67
1117.755	212.37
1121.029	210.84
1124.302	210.24
1127.575	206.28
1130.848	203.78
1134.121	201.87
1137.393	200.23
1140.665	195.66
1143.937	195
1147.208	194.04
1150.48	192.87
1153.75	191.02
1157.021	189.1
1160.291	189.37
1163.561	187.49
1166.831	187.42
1170.101	186.47
1173.37	185.87
1176.639	186.69
1179.907	185.48
1183.176	182.95
1186.444	182.97
1189.711	181.83
1192.979	181.24
1196.246	180.17
1199.513	181.61
1202.78	180.05
1206.046	179.69
1209.312	179.01
1212.578	178.5
1215.843	179.25
1219.108	178.34
1222.373	181.85
1225.638	183.67
1228.902	184.69
1232.166	185.64
1235.43	186.11
1238.693	188.85
1241.956	189.42
1245.219	191.3
1248.482	192.29
1251.744	192.31
1255.006	192.56
1258.268	188.73
1261.529	187.05
1264.79	186.82
1268.051	184.57
1271.312	182.86
1274.572	180.72
1277.832	180.32
1281.092	177.18
1284.351	175.57
1287.61	175.76
1290.869	174.07
1294.128	172.93
1297.386	172.43
1300.644	171.11
1303.902	171.79
1307.159	170.65
1310.416	170.44
1313.673	169.52
1316.93	171.28
1320.186	170.83
1323.442	170.8
1326.697	172.33
1329.953	172.49
1333.208	173.01
1336.463	174.78
1339.717	174.69
1342.972	176.87
1346.226	177.93
1349.479	178.3
1352.733	179.14
1355.986	180.78
1359.238	180.33
1362.491	180.75
1365.743	182.23
1368.995	181.73
1372.247	181.44
1375.498	181.19
1378.749	181.86
1382	179.49
1385.251	178.84
1388.501	177.11
1391.751	175.73
1395	175.86
1398.25	174.72
1401.499	172.51
1404.748	172.08
1407.996	169.79
1411.244	168.42
1414.492	166.76
1417.74	164.62
1420.987	163.09
1424.234	162.4
1427.481	160.63
1430.728	159.17
1433.974	158.27
1437.22	156.25
1440.465	155.88
1443.711	153.46
1446.956	152.51
1450.201	151.41
1453.445	150.16
1456.689	149.41
1459.933	146.82
1463.177	145.86
1466.42	143.68
1469.663	141.24
1472.906	140.94
1476.148	137.47
1479.391	136.48
1482.633	135.74
1485.874	133.26
1489.115	132.2
1492.356	130.94
1495.597	130.56
1498.838	128.93
1502.078	128.63
1505.318	128.57
1508.557	128.12
1511.797	128.18
1515.036	127.33
1518.274	126.64
1521.513	126.41
1524.751	126.43
1527.989	126.14
1531.227	126.1
1534.464	125.95
1537.701	125.11
1540.938	124.89
1544.174	123.93
1547.41	124.46
1550.646	123.78
1553.882	124.21
1557.117	123.33
1560.352	122.57
1563.587	122.45
1566.821	122.06
1570.055	121.35
1573.289	121.16
1576.523	121.01
1579.756	120.66
1582.989	119.79
1586.222	119.54
1589.454	118.82
1592.686	120.21
1595.918	120.04
1599.15	119.61
1602.381	119.57
1605.612	119.77
1608.843	120
1612.073	119.94
1615.303	120.3
1618.533	120.45
1621.762	120.99
1624.992	121.55
1628.221	120.53
1631.449	120.33
1634.678	120.6
1637.906	121.35
1641.134	121.07
1644.361	120.8
1647.588	121.34
1650.815	121.11
1654.042	121.36
1657.269	121.93
1660.495	121.97
1663.72	121.76
1666.946	122.42
1670.171	122.47
1673.396	122.06
1676.621	122.6
1679.845	123.11
1683.069	123.14
1686.293	123.7
1689.517	123.6
1692.74	123.39
1695.963	123.79
1699.185	124.47
1702.408	124.88
1705.63	125.58
1708.852	126.1
1712.073	125.67
1715.294	125.65
1718.515	126.46
1721.736	126.49
1724.956	126.8
1728.176	126.75
1731.396	126.99
1734.616	126.78
1737.835	126.97
1741.054	126.13
1744.272	126.32
1747.491	127.4
1750.709	127.7
1753.927	127.1
1757.144	126.79
1760.361	127.02
1763.578	127.41
1766.795	127.11
1770.011	128.06
1773.227	127.83
1776.443	128.71
1779.658	128.6
1782.874	128.53
1786.089	128.59
1789.303	129.04
1792.518	130.28
1795.732	130.14
1798.945	130.76
1802.159	131.35
1805.372	131.27
1808.585	132.7
1811.797	133.18
1815.01	134.48
1818.222	135.56
1821.434	136.86
1824.645	136.98
1827.856	139.14
1831.067	140.04
1834.278	140.41
1837.488	141.46
1840.698	142.01
1843.908	141.29
1847.117	141.9
1850.326	142.04
1853.535	139.89
1856.744	141.38
1859.952	141
1863.16	139.38
1866.368	138.05
1869.575	138.72
1872.782	135.55
1875.989	134.38
1879.196	134.23
1882.402	132.71
1885.608	132.32
1888.814	133.48
1892.019	131.25
1895.224	130.99
1898.429	130.83
1901.634	131.47
1904.838	130.84
1908.042	132.7
1911.246	133.07
1914.449	133.25
1917.652	133.1
1920.855	133.42
1924.058	133.34
1927.26	133.46
1930.462	133.17
1933.664	134.33
1936.865	133.44
1940.066	132.9
1943.267	131.7
1946.467	131.69
1949.668	132.49
1952.868	134.31
1956.067	134.17
1959.267	134.2
1962.466	134.86
1965.665	134.73
1968.863	134.83
1972.061	136.94
1975.259	137.88
1978.457	139.59
1981.654	141.01
1984.852	141.05
1988.048	140.55
1991.245	141.89
1994.441	142.85
1997.637	144.39
2000.833	147.24
2004.028	148.65
2007.223	150.05
2010.418	151.47
2013.613	154.28
2016.807	155.89
2020.001	157.93
2023.194	160.91
2026.388	164.02
2029.581	168.23
2032.774	169.39
2035.966	171.95
2039.158	173.03
2042.35	176.05
2045.542	177.48
2048.733	179.64
2051.924	182.92
2055.115	185.35
2058.306	185.34
2061.496	187.17
2064.686	187.04
2067.875	189.84
2071.065	191.96
2074.254	191.12
2077.442	193.22
2080.631	194.47
2083.819	196.54
2087.007	196.77
2090.195	198.57
2093.382	200.95
2096.569	200.56
2099.756	204.28
2102.942	205.57
2106.128	206.46
2109.314	210.79
2112.5	210.3
2115.685	215.2
2118.87	215.54
2122.055	219.12
2125.239	220.9
2128.424	223.78
2131.608	225.36
2134.791	228.03
2137.974	229.36
2141.157	229.96
2144.34	230.9
2147.523	233.26
2150.705	231.29
2153.887	234.84
2157.068	235.53
2160.25	233.29
2163.431	234.15
2166.611	236.34
2169.792	240.8
2172.972	242.67
2176.152	243.96
2179.331	247.67
2182.511	251.98
2185.69	253.86
2188.868	258.3
2192.047	257.45
2195.225	266.41
2198.403	271.22
2201.58	276.46
2204.758	280.14
2207.935	285.3
2211.111	292.25
2214.288	294.55
2217.464	295.35
2220.64	303.01
2223.815	305.99
2226.991	319.65
2230.166	318.48
2233.34	323.5
2236.515	329.48
2239.689	330.68
2242.863	333.01
2246.036	341.27
2249.209	341.36
2252.382	347.57
2255.555	355.65
2258.727	356.88
2261.9	359.97
2265.071	365.03
2268.243	371.31
2271.414	375
2274.585	382.64
2277.756	386.79
2280.926	392.73
2284.096	400.14
2287.266	405.99
2290.436	410.67
2293.605	419.3
2296.774	429.49
2299.942	442.79
2303.111	446.16
2306.279	456.05
2309.447	460.33
2312.614	473.13
2315.781	481.36
2318.948	502.62
2322.115	498.39
2325.281	525.99
2328.447	514.79
2331.613	534.36
2334.779	528.39
2337.944	552.16
2341.109	556.93
2344.274	575
2347.438	590.77
2350.602	591.52
2353.766	612.08
2356.929	623.38
2360.092	618.18
2363.255	662.23
2366.418	665.03
2369.58	675.5
2372.742	714.99
2375.904	734.14
2379.066	731.63
2382.227	719.96
2385.388	778.17
2388.548	776.96
2391.709	785.2
2394.869	870.29
2398.029	835.18
2401.188	859.82
2404.347	855.34
2407.506	840.65
2410.665	863.23
2413.823	916.24
2416.981	971.4
2420.139	941.8
2423.296	930
2426.453	966.65
2429.61	928.31
2432.767	970.69
2435.923	958.06
2439.079	1050.71
2442.235	1068.83
2445.391	1055.71
2448.546	1044.2
2451.701	1019.97
2454.855	1018.89
2458.009	1079.09
2461.163	1125.5
2464.317	1170.88
2467.471	1200.59
2470.624	1203.15
2473.777	1174.14
2476.929	1139.47
2480.082	1106.51
2483.234	1097.73
2486.385	1150.67
2489.537	1156.45
2492.688	1200.34
2495.839	1173.11
2498.989	1144.87
2502.14	1150.04
2505.29	1155.99
2508.439	1167.49
2511.589	1169.1
2514.738	1280.16
2517.887	1248.44
2521.035	1319.56
2524.183	1330.7
2527.331	1339.98
2530.479	1327.28
2533.627	1339.48
