Data from C_1_HIR_IL_4N_Splice17_12-49-55-569.txt Node
Date: Sat Mar 07 12:49:55 EST 2020
User: sa697716
Spectrometer: NQ5500242
Trigger mode: 0
Integration Time (sec): 1.450000E-1
Scans to average: 20
Nonlinearity correction enabled: false
Boxcar width: 5
Storing dark spectrum: false
XAxis mode: Wavelengths
Number of Pixels in Spectrum: 512
>>>>>Begin Spectral Data<<<<<
187.83	118.88
188.298	129.01
188.766	110.92
189.233	89.6
189.701	94.56
190.169	107.94
190.636	115.22
191.104	156.03
191.571	48.07
192.039	-51.9
192.506	-373.21
192.974	186.88
193.441	257.08
193.908	103.01
194.375	46.96
194.842	16.95
195.31	1.64
195.777	-281.08
196.244	15.71
196.711	27.15
197.177	30.3
197.644	29.48
198.111	29.15
198.578	29.4
199.045	30.07
199.511	30.4
199.978	30.7
200.445	30.74
200.911	31.09
201.378	31.06
201.844	30.98
202.31	30.49
202.777	30.71
203.243	30.88
203.709	31.01
204.176	30.51
204.642	30.54
205.108	30.7
205.574	30.91
206.04	30.82
206.506	30.73
206.972	31
207.438	30.89
207.903	30.86
208.369	30.38
208.835	29.89
209.301	29.58
209.766	28.82
210.232	28.23
210.697	27.73
211.163	27.37
211.628	27.01
212.094	26.41
212.559	26.43
213.024	25.94
213.49	25.68
213.955	25.35
214.42	25.14
214.885	24.89
215.35	24.27
215.815	23.62
216.28	22.7
216.745	21.72
217.21	20.9
217.675	20.14
218.14	19.61
218.604	19.16
219.069	18.75
219.534	18.41
219.998	18.11
220.463	17.88
220.927	17.62
221.392	17.45
221.856	17.25
222.32	17.07
222.785	16.9
223.249	16.7
223.713	16.51
224.177	16.36
224.642	16.21
225.106	16.05
225.57	15.88
226.034	15.74
226.497	15.6
226.961	15.46
227.425	15.32
227.889	15.19
228.353	15.05
228.816	14.9
229.28	14.74
229.744	14.59
230.207	14.45
230.671	14.3
231.134	14.16
231.597	14.03
232.061	13.91
232.524	13.79
232.987	13.63
233.45	13.53
233.914	13.42
234.377	13.3
234.84	13.17
235.303	13.05
235.766	12.95
236.229	12.84
236.691	12.72
237.154	12.62
237.617	12.51
238.08	12.43
238.542	12.32
239.005	12.21
239.468	12.1
239.93	12.02
240.393	11.93
240.855	11.81
241.317	11.7
241.78	11.6
242.242	11.5
242.704	11.41
243.166	11.32
243.629	11.24
244.091	11.15
244.553	11.08
245.015	10.99
245.477	10.9
245.939	10.84
246.4	10.77
246.862	10.7
247.324	10.62
247.786	10.54
248.247	10.45
248.709	10.37
249.17	10.3
249.632	10.24
250.093	10.17
250.555	10.11
251.016	10.06
251.477	10
251.939	9.95
252.4	9.91
252.861	9.86
253.322	9.81
253.783	9.76
254.244	9.71
254.705	9.65
255.166	9.6
255.627	9.56
256.088	9.51
256.549	9.47
257.009	9.42
257.47	9.37
257.931	9.3
258.391	9.25
258.852	9.2
259.312	9.16
259.773	9.11
260.233	9.08
260.694	9.05
261.154	9.01
261.614	8.96
262.074	8.93
262.534	8.89
262.994	8.87
263.455	8.85
263.915	8.82
264.374	8.8
264.834	8.79
265.294	8.77
265.754	8.75
266.214	8.73
266.673	8.72
267.133	8.72
267.593	8.71
268.052	8.69
268.512	8.69
268.971	8.67
269.431	8.65
269.89	8.63
270.349	8.63
270.809	8.61
271.268	8.59
271.727	8.57
272.186	8.55
272.645	8.53
273.104	8.51
273.563	8.49
274.022	8.48
274.481	8.46
274.94	8.44
275.399	8.42
275.857	8.4
276.316	8.38
276.775	8.36
277.233	8.34
277.692	8.32
278.15	8.29
278.609	8.27
279.067	8.24
279.525	8.21
279.984	8.18
280.442	8.15
280.9	8.13
281.358	8.1
281.816	8.06
282.274	8.04
282.732	8.01
283.19	7.98
283.648	7.95
284.106	7.92
284.564	7.89
285.021	7.87
285.479	7.85
285.937	7.82
286.394	7.79
286.852	7.77
287.309	7.74
287.767	7.71
288.224	7.68
288.682	7.66
289.139	7.64
289.596	7.61
290.053	7.59
290.511	7.56
290.968	7.54
291.425	7.51
291.882	7.5
292.339	7.48
292.796	7.47
293.252	7.45
293.709	7.43
294.166	7.42
294.623	7.39
295.079	7.37
295.536	7.35
295.992	7.34
296.449	7.32
296.905	7.31
297.362	7.29
297.818	7.26
298.274	7.25
298.731	7.23
299.187	7.21
299.643	7.19
300.099	7.18
300.555	7.15
301.011	7.13
301.467	7.11
301.923	7.08
302.379	7.06
302.835	7.04
303.291	7.02
303.746	7
304.202	6.99
304.658	6.97
305.113	6.95
305.569	6.94
306.024	6.92
306.479	6.91
306.935	6.89
307.39	6.87
307.845	6.85
308.301	6.83
308.756	6.83
309.211	6.81
309.666	6.8
310.121	6.78
310.576	6.76
311.031	6.75
311.486	6.73
311.94	6.72
312.395	6.71
312.85	6.7
313.305	6.68
313.759	6.67
314.214	6.66
314.668	6.63
315.123	6.62
315.577	6.61
316.032	6.6
316.486	6.59
316.94	6.58
317.394	6.56
317.849	6.55
318.303	6.53
318.757	6.5
319.211	6.47
319.665	6.45
320.119	6.44
320.572	6.41
321.026	6.41
321.48	6.38
321.934	6.37
322.387	6.35
322.841	6.33
323.295	6.33
323.748	6.33
324.202	6.32
324.655	6.31
325.108	6.3
325.562	6.29
326.015	6.27
326.468	6.26
326.921	6.25
327.374	6.24
327.827	6.24
328.28	6.23
328.733	6.22
329.186	6.21
329.639	6.2
330.092	6.18
330.545	6.19
330.997	6.18
331.45	6.18
331.903	6.17
332.355	6.16
332.808	6.15
333.26	6.13
333.713	6.13
334.165	6.11
334.617	6.11
335.069	6.1
335.522	6.09
335.974	6.09
336.426	6.07
336.878	6.07
337.33	6.05
337.782	6.05
338.234	6.04
338.686	6.03
339.137	6.04
339.589	6.02
340.041	6.01
340.493	6
340.944	5.98
341.396	5.98
341.847	5.97
342.299	5.96
342.75	5.94
343.201	5.92
343.653	5.9
344.104	5.88
344.555	5.86
345.006	5.85
345.457	5.84
345.908	5.84
346.359	5.82
346.81	5.8
347.261	5.8
347.712	5.8
348.163	5.78
348.613	5.78
349.064	5.79
349.515	5.78
349.965	5.77
350.416	5.76
350.866	5.75
351.317	5.74
351.767	5.73
352.217	5.72
352.668	5.72
353.118	5.72
353.568	5.71
354.018	5.7
354.468	5.7
354.918	5.7
355.368	5.69
355.818	5.69
356.268	5.69
356.718	5.69
357.168	5.69
357.617	5.68
358.067	5.67
358.517	5.68
358.966	5.67
359.416	5.66
359.865	5.66
360.315	5.65
360.764	5.65
361.213	5.64
361.663	5.63
362.112	5.63
362.561	5.64
363.01	5.64
363.459	5.62
363.908	5.62
364.357	5.62
364.806	5.62
365.255	5.61
365.703	5.62
366.152	5.63
366.601	5.65
367.05	5.65
367.498	5.63
367.947	5.63
368.395	5.64
368.844	5.64
369.292	5.65
369.74	5.65
370.189	5.65
370.637	5.64
371.085	5.62
371.533	5.61
371.981	5.61
372.429	5.61
372.877	5.61
373.325	5.6
373.773	5.6
374.221	5.6
374.669	5.6
375.116	5.59
375.564	5.6
376.012	5.6
376.459	5.61
376.907	5.61
377.354	5.61
377.801	5.61
378.249	5.62
378.696	5.63
379.143	5.63
379.591	5.63
380.038	5.65
380.485	5.64
380.932	5.65
381.379	5.65
381.826	5.66
382.273	5.67
382.72	5.66
383.166	5.67
383.613	5.67
384.06	5.68
384.506	5.69
384.953	5.7
385.4	5.71
385.846	5.73
386.292	5.73
386.739	5.73
387.185	5.74
387.631	5.76
388.078	5.77
388.524	5.79
388.97	5.8
389.416	5.82
389.862	5.82
390.308	5.83
390.754	5.84
391.2	5.86
391.645	5.88
392.091	5.9
392.537	5.9
392.983	5.91
393.428	5.92
393.874	5.92
394.319	5.93
394.765	5.94
395.21	5.94
395.655	5.94
396.101	5.96
396.546	5.96
396.991	5.98
397.436	6
397.881	6.01
398.326	6.03
398.771	6.04
399.216	6.05
399.661	6.07
400.106	6.09
400.551	6.12
400.995	6.12
401.44	6.13
401.885	6.15
402.329	6.15
402.774	6.17
403.218	6.18
403.663	6.19
404.107	6.21
404.551	6.23
404.995	6.23
405.44	6.23
405.884	6.25
406.328	6.26
406.772	6.25
407.216	6.26
407.66	6.26
408.104	6.27
408.547	6.28
408.991	6.29
409.435	6.29
409.879	6.29
410.322	6.3
410.766	6.32
411.209	6.33
411.653	6.36
412.096	6.36
412.54	6.38
412.983	6.38
413.426	6.41
413.869	6.41
414.312	6.43
414.756	6.44
415.199	6.45
415.642	6.45
416.085	6.45
416.527	6.44
416.97	6.44
417.413	6.43
417.856	6.44
418.298	6.44
418.741	6.45
419.184	6.46
419.626	6.45
420.069	6.46
420.511	6.46
420.953	6.46
421.396	6.47
421.838	6.5
422.28	6.52
422.722	6.53
423.164	6.52
423.606	6.52
424.048	6.51
424.49	6.52
424.932	6.52
425.374	6.51
425.816	6.5
426.258	6.5
426.699	6.48
427.141	6.47
427.582	6.46
428.024	6.45
428.465	6.46
428.907	6.45
429.348	6.44
429.789	6.44
430.231	6.46
430.672	6.48
431.113	6.48
431.554	6.49
431.995	6.49
432.436	6.49
432.877	6.5
433.318	6.5
433.759	6.53
434.2	6.56
434.64	6.59
435.081	6.58
435.522	6.59
435.962	6.61
436.403	6.63
436.843	6.64
437.284	6.64
437.724	6.66
438.164	6.66
438.604	6.66
439.045	6.64
439.485	6.63
439.925	6.63
440.365	6.62
440.805	6.61
441.245	6.63
441.685	6.64
442.125	6.65
442.564	6.65
443.004	6.65
443.444	6.65
443.883	6.66
444.323	6.66
444.762	6.67
445.202	6.68
445.641	6.7
446.081	6.71
446.52	6.71
446.959	6.72
447.398	6.73
447.837	6.74
448.276	6.74
448.716	6.77
449.154	6.79
449.593	6.8
450.032	6.8
450.471	6.79
450.91	6.77
451.349	6.79
451.787	6.79
452.226	6.79
452.664	6.79
453.103	6.79
453.541	6.78
453.98	6.79
454.418	6.78
454.856	6.78
455.295	6.77
455.733	6.76
456.171	6.76
456.609	6.75
457.047	6.75
457.485	6.73
457.923	6.74
458.361	6.73
458.798	6.72
459.236	6.73
459.674	6.72
460.111	6.72
460.549	6.73
460.987	6.73
461.424	6.74
461.862	6.74
462.299	6.76
462.736	6.76
463.173	6.77
463.611	6.78
464.048	6.77
464.485	6.77
464.922	6.77
465.359	6.77
465.796	6.78
466.233	6.79
466.67	6.79
467.106	6.8
467.543	6.78
467.98	6.78
468.416	6.78
468.853	6.79
469.29	6.78
469.726	6.79
470.162	6.79
470.599	6.8
471.035	6.79
471.471	6.77
471.907	6.77
472.344	6.78
472.78	6.78
473.216	6.77
473.652	6.79
474.088	6.78
474.523	6.78
474.959	6.78
475.395	6.75
475.831	6.76
476.266	6.76
476.702	6.75
477.138	6.74
477.573	6.74
478.008	6.74
478.444	6.72
478.879	6.73
479.314	6.72
479.75	6.71
480.185	6.7
480.62	6.7
481.055	6.68
481.49	6.67
481.925	6.68
482.36	6.68
482.795	6.67
483.229	6.67
483.664	6.66
484.099	6.66
484.534	6.66
484.968	6.66
485.403	6.67
485.837	6.69
486.271	6.7
486.706	6.71
487.14	6.72
487.574	6.72
488.009	6.74
488.443	6.75
488.877	6.77
489.311	6.79
489.745	6.82
490.179	6.84
490.613	6.87
491.046	6.9
491.48	6.93
491.914	6.95
492.348	6.98
492.781	7.02
493.215	7.06
493.648	7.09
494.082	7.13
494.515	7.16
494.948	7.21
495.382	7.24
495.815	7.28
496.248	7.33
496.681	7.37
497.114	7.41
497.547	7.47
497.98	7.52
498.413	7.57
498.846	7.63
499.279	7.69
499.711	7.75
500.144	7.82
500.577	7.9
501.009	7.97
501.442	8.05
501.874	8.15
502.306	8.23
502.739	8.34
503.171	8.44
503.603	8.53
504.036	8.64
504.468	8.75
504.9	8.85
505.332	8.96
505.764	9.09
506.196	9.21
506.627	9.34
507.059	9.48
507.491	9.6
507.923	9.75
508.354	9.9
508.786	10.07
509.217	10.23
509.649	10.4
510.08	10.58
510.512	10.75
510.943	10.93
511.374	11.12
511.805	11.3
512.237	11.49
512.668	11.68
513.099	11.88
513.53	12.07
513.961	12.28
514.391	12.49
514.822	12.7
515.253	12.91
515.684	13.13
516.114	13.36
516.545	13.58
516.975	13.81
517.406	14.04
517.836	14.26
518.267	14.5
518.697	14.71
519.127	14.93
519.558	15.15
519.988	15.36
520.418	15.58
520.848	15.79
521.278	16
521.708	16.34
522.138	16.55
522.567	16.75
522.997	16.94
523.427	17.14
523.857	17.32
524.286	17.51
524.716	17.69
525.145	17.87
525.575	18.05
526.004	18.21
526.433	18.24
526.863	18.39
527.292	18.55
527.721	18.69
528.15	18.82
528.579	18.97
529.008	19.11
529.437	19.23
529.866	19.33
530.295	19.45
530.724	19.55
531.152	19.64
531.581	19.74
532.01	19.84
532.438	19.92
532.867	20.01
533.295	20.08
533.723	20.15
534.152	20.21
534.58	20.3
535.008	20.35
535.436	20.41
535.865	20.46
536.293	20.51
536.721	20.55
537.149	20.6
537.576	20.63
538.004	20.69
538.432	20.73
538.86	20.77
539.287	20.79
539.715	20.84
540.143	20.87
540.57	20.91
540.998	20.95
541.425	20.98
541.852	21.02
542.28	21.06
542.707	21.06
543.134	21.09
543.561	21.12
543.988	21.16
544.415	21.18
544.842	21.2
545.269	21.23
545.696	21.25
546.123	21.27
546.549	21.29
546.976	21.3
547.403	21.33
547.829	21.34
548.256	21.36
548.682	21.36
549.108	21.37
549.535	21.38
549.961	21.37
550.387	21.36
550.813	21.38
551.24	21.37
551.666	21.37
552.092	21.36
552.518	21.34
552.943	21.32
553.369	21.31
553.795	21.27
554.221	21.26
554.646	21.23
555.072	21.2
555.498	21.15
555.923	21.12
556.349	21.06
556.774	21.01
557.199	20.95
557.625	20.9
558.05	20.85
558.475	20.79
558.9	20.72
559.325	20.67
559.75	20.6
560.175	20.52
560.6	20.43
561.025	20.37
561.449	20.29
561.874	20.21
562.299	20.12
562.723	20.02
563.148	19.93
563.572	19.82
563.997	19.71
564.421	19.6
564.846	19.51
565.27	19.4
565.694	19.3
566.118	19.17
566.542	19.06
566.966	18.93
567.39	18.81
567.814	18.7
568.238	18.6
568.662	18.49
569.086	18.37
569.509	18.25
569.933	18.15
570.357	18.03
570.78	17.93
571.204	17.83
571.627	17.72
572.05	17.61
572.474	17.51
572.897	17.39
573.32	17.29
573.743	17.19
574.166	17.08
574.589	16.98
575.012	16.88
575.435	16.77
575.858	16.68
576.281	16.6
576.704	16.51
577.126	16.41
577.549	16.32
577.972	16.25
578.394	16.17
578.817	16.1
579.239	16.03
579.661	15.95
580.084	15.89
580.506	15.82
580.928	15.75
581.35	15.69
581.772	15.63
582.194	15.56
582.616	15.49
583.038	15.44
583.46	15.38
583.882	15.31
584.303	15.25
584.725	15.19
585.147	15.13
585.568	15.08
585.99	15.01
586.411	14.96
586.833	14.9
587.254	14.85
587.675	14.79
588.096	14.74
588.518	14.7
588.939	14.68
589.36	14.65
589.781	14.61
590.202	14.58
590.623	14.56
591.043	14.52
591.464	14.49
591.885	14.47
592.305	14.45
592.726	14.43
593.147	14.4
593.567	14.36
593.987	14.33
594.408	14.31
594.828	14.26
595.248	14.24
595.669	14.22
596.089	14.19
596.509	14.16
596.929	14.16
597.349	14.12
597.769	14.1
598.189	14.08
598.608	14.06
599.028	14.03
599.448	14.01
599.867	13.97
600.287	13.94
600.706	13.91
601.126	13.88
601.545	13.83
601.965	13.81
602.384	13.77
602.803	13.72
603.222	13.68
603.641	13.64
604.061	13.61
604.48	13.56
604.898	13.52
605.317	13.48
605.736	13.43
606.155	13.38
606.574	13.32
606.992	13.27
607.411	13.22
607.829	13.13
608.248	13.06
608.666	13
609.085	12.94
609.503	12.88
609.921	12.82
610.339	12.75
610.758	12.69
611.176	12.61
611.594	12.55
612.012	12.48
612.43	12.45
612.847	12.39
613.265	12.33
613.683	12.28
614.101	12.22
614.518	12.16
614.936	12.1
615.353	12.04
615.771	11.99
616.188	11.94
616.606	11.89
617.023	11.83
617.44	11.8
617.857	11.76
618.274	11.71
618.691	11.66
619.108	11.62
619.525	11.58
619.942	11.56
620.359	11.54
620.776	11.52
621.192	11.49
621.609	11.46
622.026	11.43
622.442	11.42
622.859	11.4
623.275	11.38
623.691	11.37
624.108	11.36
624.524	11.34
624.94	11.32
625.356	11.31
625.772	11.32
626.188	11.3
626.604	11.29
627.02	11.27
627.436	11.25
627.852	11.24
628.268	11.23
628.683	11.23
629.099	11.22
629.514	11.21
629.93	11.2
630.345	11.18
630.761	11.17
631.176	11.16
631.591	11.13
632.007	11.11
632.422	11.08
632.837	11.04
633.252	11
633.667	10.95
634.082	10.89
634.497	10.84
634.911	10.79
635.326	10.72
635.741	10.67
636.155	10.6
636.57	10.54
636.984	10.48
637.399	10.4
637.813	10.32
638.228	10.25
638.642	10.17
639.056	10.08
639.47	10
639.884	9.93
640.298	9.84
640.712	9.77
641.126	9.69
641.54	9.61
641.954	9.52
642.368	9.44
642.781	9.37
643.195	9.29
643.609	9.21
644.022	9.14
644.436	9.07
644.849	8.99
645.262	8.93
645.676	8.85
646.089	8.79
646.502	8.74
646.915	8.69
647.328	8.63
647.741	8.59
648.154	8.55
648.567	8.5
648.98	8.46
649.393	8.42
649.805	8.39
650.218	8.37
650.631	8.34
651.043	8.31
651.456	8.28
651.868	8.26
652.28	8.22
652.693	8.19
653.105	8.15
653.517	8.12
653.929	8.08
654.341	8.04
654.753	8
655.165	7.95
655.577	7.91
655.989	7.86
656.401	7.8
656.813	7.77
657.224	7.72
657.636	7.66
658.047	7.62
658.459	7.56
658.87	7.49
659.282	7.43
659.693	7.38
660.104	7.31
660.515	7.26
660.926	7.2
661.338	7.14
661.749	7.09
662.159	7.04
662.57	7.01
662.981	6.96
663.392	6.93
663.803	6.89
664.213	6.85
664.624	6.81
665.035	6.77
665.445	6.76
665.855	6.73
666.266	6.7
666.676	6.67
667.086	6.64
667.497	6.62
667.907	6.61
668.317	6.59
668.727	6.57
669.137	6.56
669.547	6.55
669.956	6.53
670.366	6.53
670.776	6.53
671.186	6.53
671.595	6.54
672.005	6.52
672.414	6.53
672.824	6.53
673.233	6.54
673.642	6.55
674.052	6.56
674.461	6.56
674.87	6.57
675.279	6.59
675.688	6.6
676.097	6.61
676.506	6.63
676.915	6.65
677.323	6.67
677.732	6.68
678.141	6.7
678.549	6.72
678.958	6.75
679.366	6.78
679.775	6.8
680.183	6.84
680.592	6.91
681	6.96
681.408	7
681.816	7.07
682.224	7.14
682.632	7.22
683.04	7.31
683.448	7.38
683.856	7.47
684.264	7.58
684.671	7.71
685.079	7.82
685.487	7.97
685.894	8.14
686.302	8.32
686.709	8.51
687.116	8.73
687.524	8.96
687.931	9.23
688.338	9.5
688.745	9.79
689.152	10.09
689.559	10.42
689.966	10.76
690.373	11.11
690.78	11.49
691.187	11.88
691.593	12.27
692	12.67
692.407	13.07
692.813	13.51
693.22	13.94
693.626	14.37
694.032	14.81
694.439	15.24
694.845	15.7
695.251	16.13
695.657	16.57
696.063	17.02
696.469	17.49
696.875	17.94
697.281	18.38
697.687	18.82
698.093	19.28
698.498	19.72
698.904	20.14
699.31	20.56
699.715	21
700.12	21.43
700.526	21.84
700.931	22.24
701.337	22.63
701.742	23.01
702.147	23.39
702.552	23.76
702.957	24.11
703.362	24.49
703.767	24.84
704.172	25.18
704.577	25.51
704.981	25.83
705.386	26.16
705.791	26.48
706.195	26.81
706.6	27.15
707.004	27.43
707.408	27.75
707.813	28.04
708.217	28.33
708.621	28.63
709.025	28.91
709.43	29.18
709.834	29.46
710.237	29.73
710.641	29.98
711.045	30.23
711.449	30.52
711.853	30.78
712.256	31.03
712.66	31.26
713.064	31.49
713.467	31.73
713.87	31.97
714.274	32.17
714.677	32.39
715.08	32.61
715.484	32.81
715.887	33.03
716.29	33.22
716.693	33.43
717.096	33.62
717.499	33.83
717.901	34.02
718.304	34.2
718.707	34.4
719.109	34.58
719.512	34.77
719.915	34.95
720.317	35.11
720.719	35.25
721.122	35.4
721.524	35.57
721.926	35.71
722.328	35.88
722.731	36
723.133	36.16
723.535	36.3
723.937	36.42
724.338	36.54
724.74	36.64
725.142	36.83
725.544	36.94
725.945	37.07
726.347	37.15
726.748	37.24
727.15	37.35
727.551	37.44
727.952	37.51
728.354	37.62
728.755	37.71
729.156	37.81
729.557	37.82
729.958	37.89
730.359	37.95
730.76	38.06
731.161	38.13
731.562	38.2
731.962	38.25
732.363	38.33
732.763	38.39
733.164	38.43
733.564	38.49
733.965	38.56
734.365	38.62
734.766	38.67
735.166	38.72
735.566	38.77
735.966	38.84
736.366	38.9
736.766	38.92
737.166	38.95
737.566	39.01
737.966	39.05
738.365	39.09
738.765	39.13
739.165	39.14
739.564	39.17
739.964	39.21
740.363	39.23
740.763	39.26
741.162	39.3
741.561	39.32
741.96	39.32
742.36	39.36
742.759	39.39
743.158	39.42
743.557	39.45
743.955	39.47
744.354	39.49
744.753	39.5
745.152	39.53
745.55	39.56
745.949	39.6
746.348	39.65
746.746	39.65
747.144	39.68
747.543	39.68
747.941	39.72
748.339	39.72
748.737	39.72
749.136	39.72
749.534	39.71
749.932	39.71
750.33	39.73
750.727	39.74
751.125	39.74
751.523	39.75
751.921	39.78
752.318	39.8
752.716	39.82
753.113	39.83
753.511	39.84
753.908	39.87
754.305	39.89
754.703	39.88
755.1	39.87
755.497	39.86
755.894	39.83
756.291	39.8
756.688	39.75
757.085	39.71
757.482	39.69
757.878	39.67
758.275	39.63
758.672	39.59
759.068	39.58
759.465	39.55
759.861	39.53
760.258	39.55
760.654	39.56
761.05	39.58
761.447	39.6
761.843	39.62
762.239	39.62
762.635	39.61
763.031	39.64
763.427	39.64
763.822	39.66
764.218	39.7
764.614	39.71
765.01	39.7
765.405	39.7
765.801	39.7
766.196	39.73
766.592	39.74
766.987	39.77
767.382	39.76
767.778	39.79
768.173	39.79
768.568	39.77
768.963	39.76
769.358	39.8
769.753	39.81
770.148	39.79
770.542	39.77
770.937	39.78
771.332	39.77
771.726	39.76
772.121	39.75
772.515	39.75
772.91	39.75
773.304	39.75
773.699	39.71
774.093	39.71
774.487	39.73
774.881	39.75
775.275	39.72
775.669	39.69
776.063	39.66
776.457	39.67
776.851	39.65
777.245	39.65
777.638	39.61
778.032	39.62
778.425	39.63
778.819	39.62
779.212	39.63
779.606	39.66
779.999	39.68
780.392	39.72
780.786	39.72
781.179	39.75
781.572	39.76
781.965	39.8
782.358	39.79
782.751	39.78
783.143	39.79
783.536	39.78
783.929	39.74
784.322	39.77
784.714	39.75
785.107	39.76
785.499	39.74
785.891	39.73
786.284	39.74
786.676	39.77
787.068	39.75
787.46	39.74
787.852	39.71
788.245	39.73
788.636	39.7
789.028	39.7
789.42	39.67
789.812	39.67
790.204	39.66
790.595	39.66
790.987	39.65
791.378	39.67
791.77	39.66
792.161	39.67
792.553	39.67
792.944	39.67
793.335	39.69
793.726	39.68
794.117	39.63
794.508	39.63
794.899	39.59
795.29	39.58
795.681	39.55
796.072	39.56
796.463	39.55
796.853	39.53
797.244	39.52
797.634	39.51
798.025	39.54
798.415	39.57
798.806	39.56
799.196	39.57
799.586	39.58
799.976	39.59
800.366	39.58
800.756	39.6
801.146	39.63
801.536	39.65
801.926	39.64
802.316	39.64
802.706	39.66
803.095	39.67
803.485	39.65
803.874	39.64
804.264	39.61
804.653	39.6
805.043	39.61
805.432	39.58
805.821	39.58
806.21	39.58
806.599	39.57
806.988	39.54
807.377	39.52
807.766	39.53
808.155	39.5
808.544	39.53
808.933	39.55
809.321	39.53
809.71	39.52
810.098	39.51
810.487	39.49
810.875	39.46
811.264	39.45
811.652	39.46
812.04	39.46
812.428	39.49
812.816	39.47
813.204	39.46
813.592	39.44
813.98	39.43
814.368	39.45
814.756	39.44
815.144	39.45
815.531	39.44
815.919	39.44
816.306	39.44
816.694	39.4
817.081	39.39
817.469	39.38
817.856	39.38
818.243	39.37
818.63	39.33
819.017	39.31
819.404	39.31
819.791	39.29
820.178	39.28
820.565	39.26
820.952	39.26
821.339	39.25
821.725	39.28
822.112	39.29
822.498	39.3
822.885	39.32
823.271	39.32
823.657	39.31
824.044	39.32
824.43	39.34
824.816	39.33
825.202	39.34
825.588	39.34
825.974	39.31
826.36	39.3
826.746	39.29
827.132	39.29
827.517	39.31
827.903	39.34
828.289	39.37
828.674	39.35
829.06	39.37
829.445	39.37
829.83	39.39
830.216	39.4
830.601	39.41
830.986	39.41
831.371	39.4
831.756	39.39
832.141	39.37
832.526	39.35
832.911	39.36
833.295	39.36
833.68	39.37
834.065	39.37
834.449	39.37
834.834	39.35
835.218	39.35
835.603	39.35
835.987	39.36
836.371	39.36
836.755	39.35
837.139	39.34
837.524	39.34
837.908	39.34
838.291	39.35
838.675	39.34
839.059	39.36
839.443	39.36
839.827	39.34
840.21	39.33
840.594	39.32
840.977	39.3
841.361	39.31
841.744	39.28
842.127	39.27
842.511	39.24
842.894	39.24
843.277	39.23
843.66	39.22
844.043	39.24
844.426	39.25
844.809	39.26
845.191	39.28
845.574	39.29
845.957	39.32
846.339	39.32
846.722	39.34
847.104	39.35
847.487	39.35
847.869	39.36
848.252	39.35
848.634	39.35
849.016	39.37
849.398	39.38
849.78	39.37
850.162	39.34
850.544	39.34
850.926	39.34
851.307	39.34
851.689	39.35
852.071	39.34
852.452	39.34
852.834	39.34
853.215	39.32
853.597	39.32
853.978	39.3
854.359	39.32
854.741	39.32
855.122	39.3
855.503	39.28
855.884	39.26
856.265	39.26
856.646	39.26
857.026	39.28
857.407	39.29
857.788	39.27
858.169	39.28
858.549	39.25
858.93	39.26
859.31	39.27
859.69	39.29
860.071	39.29
860.451	39.3
860.831	39.29
861.211	39.26
861.591	39.25
861.971	39.24
862.351	39.25
862.731	39.26
863.111	39.24
863.491	39.23
863.87	39.22
864.25	39.2
864.629	39.19
865.009	39.2
865.388	39.2
865.768	39.22
866.147	39.21
866.526	39.2
866.905	39.21
867.284	39.23
867.663	39.22
868.042	39.23
868.421	39.25
868.8	39.27
869.179	39.27
869.558	39.27
869.936	39.26
870.315	39.27
870.693	39.26
871.072	39.26
871.45	39.26
871.828	39.27
872.207	39.28
872.585	39.27
872.963	39.27
873.341	39.27
873.719	39.28
874.097	39.29
874.475	39.31
874.853	39.32
875.23	39.33
875.608	39.35
875.986	39.36
876.363	39.35
876.741	39.36
877.118	39.37
877.495	39.36
877.873	39.36
878.25	39.37
878.627	39.39
879.004	39.4
879.381	39.39
879.758	39.36
880.135	39.37
880.512	39.37
880.889	39.37
881.265	39.36
881.642	39.37
882.019	39.38
882.395	39.36
882.772	39.33
883.148	39.33
883.524	39.33
883.901	39.34
884.277	39.33
884.653	39.31
885.029	39.3
885.405	39.31
885.781	39.31
886.157	39.3
886.532	39.32
886.908	39.31
887.284	39.3
887.659	39.28
888.035	39.27
888.411	39.27
888.786	39.28
889.161	39.27
889.537	39.26
889.912	39.25
890.287	39.24
890.662	39.23
891.037	39.26
891.412	39.26
891.787	39.26
892.162	39.27
892.536	39.27
892.911	39.28
893.286	39.28
893.66	39.27
894.035	39.25
894.409	39.25
894.784	39.25
895.158	39.24
895.532	39.25
895.906	39.22
896.281	39.21
896.655	39.2
897.029	39.19
897.402	39.18
897.776	39.2
898.15	39.21
898.524	39.22
898.898	39.22
899.271	39.21
899.645	39.21
900.018	39.24
900.392	39.25
900.765	39.24
901.138	39.25
901.511	39.26
901.884	39.26
902.258	39.26
902.631	39.25
903.003	39.26
903.376	39.25
903.749	39.24
904.122	39.23
904.495	39.24
904.867	39.27
905.24	39.25
905.612	39.27
905.985	39.26
906.357	39.28
906.729	39.29
907.102	39.3
907.474	39.33
907.846	39.33
908.218	39.34
908.59	39.33
908.962	39.33
909.334	39.34
909.705	39.34
910.077	39.35
910.449	39.32
910.82	39.31
911.192	39.28
911.563	39.26
911.935	39.23
912.306	39.24
912.677	39.24
913.048	39.21
913.419	39.21
913.79	39.21
914.161	39.2
914.532	39.22
914.903	39.21
915.274	39.2
915.645	39.2
916.015	39.22
916.386	39.2
916.756	39.19
917.127	39.21
917.497	39.21
917.868	39.22
918.238	39.19
918.608	39.19
918.978	39.2
919.348	39.21
919.718	39.21
920.088	39.22
920.458	39.23
920.828	39.2
921.198	39.18
921.567	39.16
921.937	39.15
922.306	39.19
922.676	39.18
923.045	39.18
923.415	39.18
923.784	39.19
924.153	39.19
924.522	39.18
924.891	39.19
925.26	39.21
925.629	39.22
925.998	39.2
926.367	39.17
926.736	39.16
927.104	39.16
927.473	39.14
927.842	39.11
928.21	39.13
928.578	39.12
928.947	39.14
929.315	39.13
929.683	39.13
930.051	39.09
930.42	39.07
930.788	39.05
931.156	39.04
931.523	39.02
931.891	39.07
932.259	39.05
932.627	39.05
932.994	39.06
933.362	39.03
933.729	39.04
934.097	39.1
934.464	39.12
934.831	39.13
935.199	39.16
935.566	39.18
935.933	39.13
936.3	39.12
936.667	39.1
937.034	39.11
937.401	39.17
937.767	39.16
938.134	39.15
938.501	39.15
938.867	39.19
939.234	39.17
939.6	39.15
939.967	39.13
940.333	39.11
940.699	39.13
941.065	39.05
941.431	39
941.798	38.99
942.163	38.93
942.529	38.94
942.895	38.95
943.261	38.91
943.627	38.93
943.992	38.95
944.358	38.94
944.723	38.93
945.089	38.9
945.454	38.88
945.82	38.85
946.185	38.9
946.55	38.83
946.915	38.77
947.28	38.78
947.645	38.76
948.01	38.75
948.375	38.76
948.74	38.75
949.104	38.8
949.469	38.75
949.834	38.76
950.198	38.74
950.562	38.72
950.927	38.68
951.291	38.66
951.655	38.63
952.02	38.64
952.384	38.6
952.748	38.56
953.112	38.54
953.476	38.52
953.839	38.45
954.203	38.45
954.567	38.47
954.931	38.47
955.294	38.44
955.658	38.47
956.021	38.42
956.385	38.4
956.748	38.41
957.111	38.39
957.474	38.44
957.837	38.47
958.2	38.45
958.563	38.43
958.926	38.42
959.289	38.47
959.652	38.41
960.015	38.4
960.377	38.4
960.74	38.44
961.102	38.42
961.465	38.44
961.827	38.47
962.189	38.46
962.552	38.46
962.914	38.46
963.276	38.47
963.638	38.42
964	38.4
964.362	38.41
964.724	38.35
965.085	38.35
965.447	38.27
965.809	38.27
966.17	38.26
966.532	38.26
966.893	38.24
967.255	38.2
967.616	38.29
967.977	38.3
968.338	38.27
968.699	38.31
969.061	38.36
969.421	38.41
969.782	38.4
970.143	38.4
970.504	38.41
970.865	38.48
971.225	38.52
971.586	38.46
971.946	38.48
972.307	38.51
972.667	38.48
973.027	38.43
973.388	38.41
973.748	38.37
974.108	38.42
974.468	38.39
974.828	38.34
975.188	38.29
975.548	38.3
975.907	38.29
976.267	38.25
976.627	38.28
976.986	38.28
977.346	38.26
977.705	38.29
978.064	38.25
978.424	38.25
978.783	38.25
979.142	38.26
979.501	38.26
979.86	38.28
980.219	38.25
980.578	38.22
980.937	38.22
981.296	38.23
981.654	38.22
982.013	38.22
982.371	38.21
982.73	38.21
983.088	38.25
983.447	38.25
983.805	38.3
984.163	38.41
984.521	38.42
984.879	38.39
985.237	38.4
985.595	38.44
985.953	38.47
986.311	38.46
986.669	38.46
987.026	38.45
987.384	38.4
987.741	38.32
988.099	38.34
988.456	38.31
988.814	38.3
989.171	38.28
989.528	38.28
989.885	38.21
990.242	38.23
990.599	38.31
990.956	38.35
991.313	38.43
991.67	38.47
992.027	38.5
992.383	38.55
992.74	38.68
993.096	38.66
993.453	38.61
993.809	38.68
994.165	38.75
994.522	38.71
994.878	38.72
995.234	38.71
995.59	38.63
995.946	38.6
996.302	38.55
996.658	38.52
997.013	38.55
997.369	38.58
997.725	38.57
998.08	38.58
998.436	38.48
998.791	38.44
999.147	38.39
999.502	38.46
999.857	38.42
1000.212	38.26
1000.567	38.19
1000.922	38.17
1001.277	38.08
1001.632	37.96
1001.987	37.89
1002.342	37.92
1002.696	37.96
1003.051	38.05
1003.406	38.12
1003.76	38.14
1004.114	38.28
1004.469	38.32
1004.823	38.57
1005.177	38.6
1005.531	38.8
1005.885	38.81
1006.239	38.87
1006.593	38.94
1006.947	38.93
1007.301	38.78
1007.655	38.72
1008.008	38.72
1008.362	38.82
1008.715	38.58
1009.069	38.73
1009.422	38.66
1009.776	38.59
1010.129	38.61
1010.482	38.51
1010.835	38.48
1011.188	38.63
1011.541	38.73
1011.894	38.8
1012.247	38.64
1012.6	38.59
1012.952	38.48
1013.305	38.49
1013.657	38.7
1014.01	38.66
1014.362	38.63
1014.715	38.54
1015.067	38.45
1015.419	38.38
1015.771	38.3
1016.123	38.34
1016.475	38.49
1016.827	38.57
1017.179	38.59
1017.531	38.42
1017.883	38.37
1018.234	38.39
1018.586	38.42
1018.938	38.56
1019.289	38.42
1019.64	38.44
1019.992	38.31
1020.343	38.15
1020.694	38.13
1021.045	38.1
1021.396	38.16
1021.747	38.25
1022.098	38.26
1022.449	38.36
1022.8	38.28
1023.151	38.38
1023.501	38.47
1023.852	38.63
1024.202	38.61
1024.553	38.39
1024.903	38.36
1025.253	38.41
1025.604	38.3
1025.954	38.17
1026.304	38.15
1026.654	38.04
1027.004	37.92
1027.354	37.66
1027.703	37.39
1028.053	37.67
1028.403	38.12
1028.753	37.88
1029.102	37.99
1029.452	38.22
1029.801	38.59
1030.15	38.54
1030.499	38.59
897.758	1009.03
901.051	1015.97
904.343	1013.03
907.636	1029.83
910.928	1001.27
914.22	1005.74
917.511	990.67
920.803	951.13
924.094	944.35
927.384	922.2
930.675	883.95
933.965	881.27
937.255	830.64
940.544	797.46
943.834	761.17
947.123	756.87
950.411	710.15
953.7	696.49
956.988	660.46
960.276	634.52
963.563	626.24
966.851	604.22
970.138	599.46
973.424	579.74
976.711	583.46
979.997	554.98
983.283	550.34
986.568	539.3
989.853	523.42
993.138	512.97
996.423	494.32
999.708	478.85
1002.992	473.25
1006.275	452.23
1009.559	448.93
1012.842	432.72
1016.125	421.22
1019.408	414.25
1022.69	408.04
1025.972	399.05
1029.254	389.46
1032.536	382.94
1035.817	376.36
1039.098	371.56
1042.379	363.76
1045.659	359.87
1048.939	350.32
1052.219	343.45
1055.498	337.56
1058.778	330.56
1062.057	323.54
1065.335	320.66
1068.614	316.61
1071.892	311.78
1075.17	303.85
1078.447	297.78
1081.724	295.31
1085.001	293.72
1088.278	288.19
1091.554	282
1094.83	281.85
1098.106	279.25
1101.382	277.62
1104.657	275.99
1107.932	271.87
1111.206	272.03
1114.481	266.2
1117.755	263.5
1121.029	261.33
1124.302	260.45
1127.575	256.5
1130.848	253.22
1134.121	251.13
1137.393	248.93
1140.665	243.38
1143.937	241.94
1147.208	240.26
1150.48	239.24
1153.75	236.92
1157.021	233.79
1160.291	233.81
1163.561	231.49
1166.831	231.53
1170.101	229.72
1173.37	229.85
1176.639	230.4
1179.907	228.65
1183.176	225.95
1186.444	226.05
1189.711	225.22
1192.979	225.02
1196.246	223.25
1199.513	224.73
1202.78	223.04
1206.046	222.81
1209.312	220.44
1212.578	220.83
1215.843	222.34
1219.108	221.6
1222.373	225.48
1225.638	226.61
1228.902	228.25
1232.166	229.95
1235.43	230.68
1238.693	234.81
1241.956	235.84
1245.219	239.49
1248.482	239.11
1251.744	239.02
1255.006	239.15
1258.268	233.89
1261.529	232.78
1264.79	231.62
1268.051	228.9
1271.312	226.77
1274.572	223.32
1277.832	221.75
1281.092	217.57
1284.351	216.58
1287.61	216.45
1290.869	214.46
1294.128	212.95
1297.386	212.76
1300.644	210.54
1303.902	211.28
1307.159	210.35
1310.416	210.26
1313.673	209.53
1316.93	212.76
1320.186	212.33
1323.442	212.53
1326.697	214.65
1329.953	216.17
1333.208	216.22
1336.463	219.52
1339.717	219.99
1342.972	221.95
1346.226	223.88
1349.479	224.9
1352.733	224.99
1355.986	226.97
1359.238	227.11
1362.491	228.35
1365.743	229.69
1368.995	230.02
1372.247	229.59
1375.498	229.27
1378.749	231.86
1382	229.33
1385.251	229.49
1388.501	228.41
1391.751	228.08
1395	227.46
1398.25	226.03
1401.499	224.57
1404.748	224
1407.996	221.38
1411.244	220.73
1414.492	218.57
1417.74	216.93
1420.987	214.17
1424.234	213.01
1427.481	210.13
1430.728	209.84
1433.974	208.4
1437.22	206.65
1440.465	206.27
1443.711	204.56
1446.956	202.49
1450.201	200.15
1453.445	198.57
1456.689	197.67
1459.933	194.57
1463.177	193.42
1466.42	190.24
1469.663	187.34
1472.906	185.94
1476.148	181.82
1479.391	179.54
1482.633	178.61
1485.874	175.94
1489.115	174.14
1492.356	172.82
1495.597	172.03
1498.838	169.77
1502.078	168.75
1505.318	168.55
1508.557	168.17
1511.797	167.68
1515.036	166.82
1518.274	165.34
1521.513	164.75
1524.751	164.61
1527.989	163.87
1531.227	163.59
1534.464	163.38
1537.701	162.37
1540.938	161.82
1544.174	160.31
1547.41	160.11
1550.646	159.23
1553.882	159.92
1557.117	157.58
1560.352	157.19
1563.587	156.15
1566.821	155.34
1570.055	154.33
1573.289	153.35
1576.523	152.91
1579.756	151.71
1582.989	151.07
1586.222	150.8
1589.454	149.62
1592.686	150.72
1595.918	149.73
1599.15	149.61
1602.381	149.87
1605.612	149.47
1608.843	149.95
1612.073	149.99
1615.303	150.8
1618.533	150.37
1621.762	150.87
1624.992	151.43
1628.221	150.83
1631.449	150.63
1634.678	150.43
1637.906	151.44
1641.134	151.55
1644.361	151.09
1647.588	151.25
1650.815	150.63
1654.042	150.4
1657.269	151.02
1660.495	151.19
1663.72	150.99
1666.946	152.1
1670.171	152.61
1673.396	152.12
1676.621	152.21
1679.845	152.58
1683.069	152.78
1686.293	154
1689.517	154.94
1692.74	154.87
1695.963	154.79
1699.185	156.25
1702.408	155.57
1705.63	156.45
1708.852	156.77
1712.073	156.9
1715.294	157.35
1718.515	158.06
1721.736	157.5
1724.956	158.17
1728.176	158.15
1731.396	159.56
1734.616	159.26
1737.835	160.23
1741.054	157.81
1744.272	158.69
1747.491	160.5
1750.709	160.25
1753.927	160.33
1757.144	160.41
1760.361	161.05
1763.578	161.49
1766.795	161.19
1770.011	161.71
1773.227	161.61
1776.443	164.57
1779.658	164.47
1782.874	163.71
1786.089	164.85
1789.303	165.34
1792.518	167.04
1795.732	166.45
1798.945	167.47
1802.159	167.94
1805.372	169.13
1808.585	171.26
1811.797	171.41
1815.01	172.11
1818.222	173.54
1821.434	175.07
1824.645	175.72
1827.856	178.21
1831.067	179.92
1834.278	179.76
1837.488	181.18
1840.698	181.76
1843.908	180.77
1847.117	181.65
1850.326	182.38
1853.535	181.81
1856.744	184.18
1859.952	183.78
1863.16	182.28
1866.368	181.01
1869.575	182.56
1872.782	180.04
1875.989	179.29
1879.196	178.93
1882.402	178.12
1885.608	178.53
1888.814	178.67
1892.019	177.85
1895.224	177.74
1898.429	177.77
1901.634	178.54
1904.838	178.42
1908.042	180.73
1911.246	180.99
1914.449	182.09
1917.652	181.89
1920.855	181.6
1924.058	181.77
1927.26	181.03
1930.462	181.29
1933.664	182.78
1936.865	182.21
1940.066	181.83
1943.267	179.71
1946.467	179.75
1949.668	181.08
1952.868	183.07
1956.067	183.39
1959.267	184.18
1962.466	184.49
1965.665	183.71
1968.863	183.94
1972.061	186.33
1975.259	187.7
1978.457	190.11
1981.654	191.88
1984.852	191.7
1988.048	191.43
1991.245	193.01
1994.441	194.57
1997.637	196.15
2000.833	199.72
2004.028	203.02
2007.223	203.81
2010.418	206.07
2013.613	209.31
2016.807	212.04
2020.001	213.97
2023.194	217.25
2026.388	222.18
2029.581	226.73
2032.774	229.11
2035.966	233.01
2039.158	232.82
2042.35	236.93
2045.542	239.48
2048.733	241.68
2051.924	244.89
2055.115	249.85
2058.306	250.05
2061.496	252.3
2064.686	251.76
2067.875	256.05
2071.065	258.32
2074.254	256.94
2077.442	259.76
2080.631	259.82
2083.819	263.08
2087.007	263.95
2090.195	265.42
2093.382	268.01
2096.569	266.5
2099.756	271.77
2102.942	272.34
2106.128	273.95
2109.314	280
2112.5	279.02
2115.685	286.9
2118.87	287.68
2122.055	292.75
2125.239	294.69
2128.424	299.04
2131.608	300.32
2134.791	303.38
2137.974	304.94
2141.157	306.41
2144.34	307.45
2147.523	311.61
2150.705	308.49
2153.887	311.2
2157.068	311.55
2160.25	309.4
2163.431	310.24
2166.611	315.29
2169.792	319.32
2172.972	322.96
2176.152	325.46
2179.331	329.4
2182.511	334.81
2185.69	338.03
2188.868	345.64
2192.047	346.17
2195.225	356.23
2198.403	365.15
2201.58	370.58
2204.758	379.78
2207.935	386.81
2211.111	392.36
2214.288	397.91
2217.464	399.66
2220.64	406.65
2223.815	410.75
2226.991	428.15
2230.166	427.81
2233.34	433.36
2236.515	442.04
2239.689	441.93
2242.863	443.1
2246.036	456.28
2249.209	452.83
2252.382	459.37
2255.555	472.12
2258.727	474.29
2261.9	476.8
2265.071	483.2
2268.243	492.02
2271.414	496.91
2274.585	506.89
2277.756	513.4
2280.926	516.39
2284.096	529.08
2287.266	540.13
2290.436	543.28
2293.605	556.03
2296.774	571.84
2299.942	586.93
2303.111	591.57
2306.279	603.75
2309.447	611.47
2312.614	628.7
2315.781	647.64
2318.948	674.8
2322.115	666.41
2325.281	705.15
2328.447	689.81
2331.613	715.71
2334.779	710.73
2337.944	741.66
2341.109	748.1
2344.274	770.53
2347.438	793.43
2350.602	791.6
2353.766	819.72
2356.929	833.25
2360.092	820.76
2363.255	879.12
2366.418	878.84
2369.58	895.05
2372.742	947.82
2375.904	973.76
2379.066	968.56
2382.227	952.8
2385.388	1032.6
2388.548	1027.23
2391.709	1039.34
2394.869	1166.27
2398.029	1120.94
2401.188	1148.15
2404.347	1143.73
2407.506	1124.67
2410.665	1154.53
2413.823	1222.37
2416.981	1294.17
2420.139	1255.5
2423.296	1246.81
2426.453	1302.14
2429.61	1250.27
2432.767	1304.05
2435.923	1296.52
2439.079	1412.72
2442.235	1432.24
2445.391	1418.24
2448.546	1411.03
2451.701	1369.75
2454.855	1368.3
2458.009	1442.17
2461.163	1507.16
2464.317	1562.09
2467.471	1600.84
2470.624	1597.8
2473.777	1557.81
2476.929	1520.26
2480.082	1478.81
2483.234	1460.01
2486.385	1536.78
2489.537	1541.51
2492.688	1600.17
2495.839	1549.45
2498.989	1518.65
2502.14	1524.91
2505.29	1540.47
2508.439	1568.28
2511.589	1561.21
2514.738	1705.43
2517.887	1668.76
2521.035	1755.66
2524.183	1771.43
2527.331	1786.47
2530.479	1777.01
2533.627	1785.84
