Data from C_1_DEC_VA_2N_Splice17_12-41-46-911.txt Node
Date: Sat Mar 07 12:41:46 EST 2020
User: sa697716
Spectrometer: NQ5500242
Trigger mode: 0
Integration Time (sec): 1.450000E-1
Scans to average: 20
Nonlinearity correction enabled: false
Boxcar width: 5
Storing dark spectrum: false
XAxis mode: Wavelengths
Number of Pixels in Spectrum: 512
>>>>>Begin Spectral Data<<<<<
187.83	74.28
188.298	80.91
188.766	80.93
189.233	80.32
189.701	70.43
190.169	65.74
190.636	87.72
191.104	126.85
191.571	219.99
192.039	121.13
192.506	191.01
192.974	51.5
193.441	129.62
193.908	62.61
194.375	69.29
194.842	45.41
195.31	46.74
195.777	130.11
196.244	40.52
196.711	38.61
197.177	41.1
197.644	40.48
198.111	39.77
198.578	39.65
199.045	40.03
199.511	40.21
199.978	39.79
200.445	39.99
200.911	40.12
201.378	40.33
201.844	40.77
202.31	40.29
202.777	40.53
203.243	40.5
203.709	40.28
204.176	40.06
204.642	39.65
205.108	39.61
205.574	39.27
206.04	38.69
206.506	38.07
206.972	37.62
207.438	37.33
207.903	36.8
208.369	36.32
208.835	35.74
209.301	34.94
209.766	34.11
210.232	33.14
210.697	32.32
211.163	31.7
211.628	31.16
212.094	30.52
212.559	30.04
213.024	29.43
213.49	28.88
213.955	28.32
214.42	27.86
214.885	27.27
215.35	26.66
215.815	25.43
216.28	23.94
216.745	22.27
217.21	20.63
217.675	19.11
218.14	17.87
218.604	16.76
219.069	15.83
219.534	15.04
219.998	14.37
220.463	13.79
220.927	13.31
221.392	12.95
221.856	12.64
222.32	12.35
222.785	12.14
223.249	11.85
223.713	11.61
224.177	11.42
224.642	11.24
225.106	11.05
225.57	10.87
226.034	10.72
226.497	10.55
226.961	10.39
227.425	10.24
227.889	10.08
228.353	9.96
228.816	9.84
229.28	9.69
229.744	9.57
230.207	9.45
230.671	9.32
231.134	9.22
231.597	9.12
232.061	9
232.524	8.88
232.987	8.78
233.45	8.69
233.914	8.57
234.377	8.47
234.84	8.38
235.303	8.3
235.766	8.22
236.229	8.11
236.691	8.02
237.154	7.96
237.617	7.89
238.08	7.81
238.542	7.71
239.005	7.66
239.468	7.58
239.93	7.5
240.393	7.43
240.855	7.34
241.317	7.28
241.78	7.22
242.242	7.13
242.704	7.07
243.166	7
243.629	6.95
244.091	6.88
244.553	6.81
245.015	6.75
245.477	6.68
245.939	6.62
246.4	6.57
246.862	6.51
247.324	6.46
247.786	6.39
248.247	6.33
248.709	6.27
249.17	6.21
249.632	6.18
250.093	6.13
250.555	6.08
251.016	6.05
251.477	5.99
251.939	5.95
252.4	5.9
252.861	5.87
253.322	5.83
253.783	5.8
254.244	5.77
254.705	5.73
255.166	5.7
255.627	5.67
256.088	5.64
256.549	5.62
257.009	5.59
257.47	5.56
257.931	5.52
258.391	5.48
258.852	5.44
259.312	5.4
259.773	5.38
260.233	5.34
260.694	5.31
261.154	5.26
261.614	5.23
262.074	5.2
262.534	5.17
262.994	5.14
263.455	5.12
263.915	5.1
264.374	5.09
264.834	5.07
265.294	5.05
265.754	5.03
266.214	5.01
266.673	5
267.133	4.99
267.593	4.98
268.052	4.97
268.512	4.96
268.971	4.94
269.431	4.92
269.89	4.9
270.349	4.89
270.809	4.88
271.268	4.87
271.727	4.85
272.186	4.84
272.645	4.82
273.104	4.81
273.563	4.8
274.022	4.79
274.481	4.78
274.94	4.77
275.399	4.76
275.857	4.75
276.316	4.74
276.775	4.73
277.233	4.72
277.692	4.7
278.15	4.69
278.609	4.67
279.067	4.66
279.525	4.65
279.984	4.63
280.442	4.62
280.9	4.61
281.358	4.6
281.816	4.59
282.274	4.58
282.732	4.57
283.19	4.56
283.648	4.55
284.106	4.54
284.564	4.52
285.021	4.52
285.479	4.51
285.937	4.5
286.394	4.48
286.852	4.46
287.309	4.45
287.767	4.44
288.224	4.42
288.682	4.4
289.139	4.38
289.596	4.37
290.053	4.35
290.511	4.33
290.968	4.31
291.425	4.3
291.882	4.28
292.339	4.26
292.796	4.25
293.252	4.24
293.709	4.23
294.166	4.23
294.623	4.22
295.079	4.21
295.536	4.2
295.992	4.19
296.449	4.18
296.905	4.18
297.362	4.17
297.818	4.16
298.274	4.15
298.731	4.14
299.187	4.13
299.643	4.12
300.099	4.11
300.555	4.1
301.011	4.1
301.467	4.08
301.923	4.07
302.379	4.06
302.835	4.05
303.291	4.05
303.746	4.05
304.202	4.05
304.658	4.04
305.113	4.03
305.569	4.02
306.024	4.02
306.479	4.02
306.935	4.01
307.39	4
307.845	4
308.301	4
308.756	4
309.211	3.99
309.666	3.99
310.121	3.98
310.576	3.99
311.031	3.98
311.486	3.98
311.94	3.98
312.395	3.98
312.85	3.98
313.305	3.97
313.759	3.97
314.214	3.96
314.668	3.96
315.123	3.96
315.577	3.95
316.032	3.95
316.486	3.94
316.94	3.93
317.394	3.92
317.849	3.9
318.303	3.89
318.757	3.87
319.211	3.86
319.665	3.85
320.119	3.84
320.572	3.83
321.026	3.81
321.48	3.8
321.934	3.78
322.387	3.77
322.841	3.77
323.295	3.76
323.748	3.76
324.202	3.75
324.655	3.74
325.108	3.74
325.562	3.74
326.015	3.74
326.468	3.73
326.921	3.73
327.374	3.73
327.827	3.74
328.28	3.73
328.733	3.73
329.186	3.72
329.639	3.72
330.092	3.71
330.545	3.7
330.997	3.7
331.45	3.71
331.903	3.71
332.355	3.71
332.808	3.7
333.26	3.7
333.713	3.7
334.165	3.7
334.617	3.7
335.069	3.69
335.522	3.69
335.974	3.7
336.426	3.69
336.878	3.68
337.33	3.67
337.782	3.67
338.234	3.67
338.686	3.67
339.137	3.67
339.589	3.66
340.041	3.66
340.493	3.65
340.944	3.63
341.396	3.62
341.847	3.61
342.299	3.59
342.75	3.58
343.201	3.56
343.653	3.56
344.104	3.54
344.555	3.54
345.006	3.53
345.457	3.52
345.908	3.51
346.359	3.51
346.81	3.5
347.261	3.49
347.712	3.48
348.163	3.47
348.613	3.47
349.064	3.48
349.515	3.47
349.965	3.46
350.416	3.46
350.866	3.47
351.317	3.46
351.767	3.47
352.217	3.47
352.668	3.47
353.118	3.47
353.568	3.47
354.018	3.46
354.468	3.47
354.918	3.47
355.368	3.48
355.818	3.48
356.268	3.48
356.718	3.48
357.168	3.47
357.617	3.46
358.067	3.47
358.517	3.48
358.966	3.48
359.416	3.48
359.865	3.47
360.315	3.47
360.764	3.47
361.213	3.46
361.663	3.45
362.112	3.47
362.561	3.47
363.01	3.47
363.459	3.45
363.908	3.45
364.357	3.45
364.806	3.44
365.255	3.44
365.703	3.45
366.152	3.46
366.601	3.46
367.05	3.46
367.498	3.46
367.947	3.47
368.395	3.48
368.844	3.48
369.292	3.48
369.74	3.49
370.189	3.5
370.637	3.51
371.085	3.5
371.533	3.51
371.981	3.51
372.429	3.51
372.877	3.51
373.325	3.52
373.773	3.51
374.221	3.51
374.669	3.52
375.116	3.5
375.564	3.5
376.012	3.51
376.459	3.51
376.907	3.52
377.354	3.52
377.801	3.54
378.249	3.55
378.696	3.57
379.143	3.58
379.591	3.6
380.038	3.62
380.485	3.64
380.932	3.65
381.379	3.67
381.826	3.68
382.273	3.69
382.72	3.69
383.166	3.71
383.613	3.73
384.06	3.73
384.506	3.75
384.953	3.77
385.4	3.8
385.846	3.83
386.292	3.86
386.739	3.88
387.185	3.91
387.631	3.94
388.078	3.97
388.524	3.99
388.97	4.02
389.416	4.05
389.862	4.08
390.308	4.12
390.754	4.15
391.2	4.18
391.645	4.22
392.091	4.27
392.537	4.31
392.983	4.34
393.428	4.38
393.874	4.41
394.319	4.44
394.765	4.46
395.21	4.47
395.655	4.49
396.101	4.52
396.546	4.54
396.991	4.56
397.436	4.59
397.881	4.61
398.326	4.65
398.771	4.68
399.216	4.71
399.661	4.74
400.106	4.76
400.551	4.78
400.995	4.79
401.44	4.81
401.885	4.83
402.329	4.84
402.774	4.85
403.218	4.86
403.663	4.87
404.107	4.89
404.551	4.9
404.995	4.91
405.44	4.91
405.884	4.93
406.328	4.94
406.772	4.94
407.216	4.94
407.66	4.93
408.104	4.92
408.547	4.92
408.991	4.92
409.435	4.91
409.879	4.92
410.322	4.93
410.766	4.94
411.209	4.94
411.653	4.95
412.096	4.96
412.54	4.98
412.983	4.99
413.426	5.01
413.869	5.01
414.312	5.04
414.756	5.04
415.199	5.04
415.642	5.03
416.085	5.04
416.527	5.04
416.97	5.03
417.413	5.03
417.856	5.02
418.298	5.02
418.741	5.03
419.184	5.01
419.626	5.02
420.069	5.02
420.511	5.02
420.953	5.01
421.396	5
421.838	5.02
422.28	5.02
422.722	5.03
423.164	5.03
423.606	5.02
424.048	5.02
424.49	5.02
424.932	5.01
425.374	5
425.816	4.98
426.258	4.97
426.699	4.95
427.141	4.93
427.582	4.93
428.024	4.93
428.465	4.92
428.907	4.91
429.348	4.9
429.789	4.89
430.231	4.9
430.672	4.91
431.113	4.93
431.554	4.94
431.995	4.95
432.436	4.95
432.877	4.95
433.318	4.96
433.759	4.99
434.2	5.02
434.64	5.06
435.081	5.06
435.522	5.08
435.962	5.11
436.403	5.13
436.843	5.14
437.284	5.13
437.724	5.15
438.164	5.15
438.604	5.16
439.045	5.17
439.485	5.17
439.925	5.17
440.365	5.19
440.805	5.2
441.245	5.22
441.685	5.26
442.125	5.31
442.564	5.33
443.004	5.36
443.444	5.38
443.883	5.41
444.323	5.43
444.762	5.47
445.202	5.49
445.641	5.53
446.081	5.56
446.52	5.57
446.959	5.61
447.398	5.64
447.837	5.67
448.276	5.69
448.716	5.73
449.154	5.78
449.593	5.81
450.032	5.84
450.471	5.85
450.91	5.86
451.349	5.88
451.787	5.86
452.226	5.88
452.664	5.89
453.103	5.88
453.541	5.89
453.98	5.89
454.418	5.89
454.856	5.89
455.295	5.88
455.733	5.87
456.171	5.87
456.609	5.87
457.047	5.85
457.485	5.83
457.923	5.83
458.361	5.81
458.798	5.8
459.236	5.8
459.674	5.8
460.111	5.79
460.549	5.8
460.987	5.8
461.424	5.81
461.862	5.82
462.299	5.84
462.736	5.83
463.173	5.84
463.611	5.84
464.048	5.84
464.485	5.84
464.922	5.86
465.359	5.86
465.796	5.86
466.233	5.85
466.67	5.84
467.106	5.84
467.543	5.84
467.98	5.85
468.416	5.84
468.853	5.83
469.29	5.82
469.726	5.83
470.162	5.84
470.599	5.84
471.035	5.85
471.471	5.85
471.907	5.85
472.344	5.87
472.78	5.88
473.216	5.88
473.652	5.9
474.088	5.9
474.523	5.89
474.959	5.9
475.395	5.88
475.831	5.87
476.266	5.88
476.702	5.87
477.138	5.86
477.573	5.86
478.008	5.87
478.444	5.86
478.879	5.87
479.314	5.87
479.75	5.86
480.185	5.86
480.62	5.86
481.055	5.86
481.49	5.87
481.925	5.87
482.36	5.86
482.795	5.86
483.229	5.87
483.664	5.89
484.099	5.9
484.534	5.91
484.968	5.93
485.403	5.95
485.837	5.97
486.271	6
486.706	6.02
487.14	6.05
487.574	6.08
488.009	6.11
488.443	6.15
488.877	6.19
489.311	6.24
489.745	6.29
490.179	6.35
490.613	6.4
491.046	6.44
491.48	6.51
491.914	6.57
492.348	6.64
492.781	6.72
493.215	6.78
493.648	6.86
494.082	6.93
494.515	7.01
494.948	7.1
495.382	7.19
495.815	7.3
496.248	7.41
496.681	7.53
497.114	7.65
497.547	7.76
497.98	7.89
498.413	8.02
498.846	8.16
499.279	8.3
499.711	8.44
500.144	8.6
500.577	8.77
501.009	8.93
501.442	9.11
501.874	9.3
502.306	9.49
502.739	9.7
503.171	9.91
503.603	10.13
504.036	10.36
504.468	10.6
504.9	10.82
505.332	11.07
505.764	11.33
506.196	11.59
506.627	11.85
507.059	12.12
507.491	12.4
507.923	12.68
508.354	12.99
508.786	13.29
509.217	13.6
509.649	13.93
510.08	14.26
510.512	14.58
510.943	14.92
511.374	15.28
511.805	15.64
512.237	16
512.668	16.37
513.099	16.72
513.53	17.09
513.961	17.46
514.391	17.83
514.822	18.22
515.253	18.6
515.684	18.98
516.114	19.36
516.545	19.74
516.975	20.12
517.406	20.5
517.836	20.89
518.267	21.27
518.697	21.65
519.127	22.02
519.558	22.37
519.988	22.75
520.418	23.1
520.848	23.44
521.278	23.77
521.708	24.21
522.138	24.53
522.567	24.85
522.997	25.16
523.427	25.46
523.857	25.76
524.286	26.03
524.716	26.31
525.145	26.57
525.575	26.83
526.004	27.09
526.433	27.23
526.863	27.45
527.292	27.67
527.721	27.87
528.15	28.08
528.579	28.27
529.008	28.45
529.437	28.61
529.866	28.79
530.295	28.96
530.724	29.1
531.152	29.25
531.581	29.4
532.01	29.53
532.438	29.65
532.867	29.78
533.295	29.89
533.723	29.99
534.152	30.1
534.58	30.18
535.008	30.24
535.436	30.32
535.865	30.39
536.293	30.45
536.721	30.52
537.149	30.59
537.576	30.63
538.004	30.7
538.432	30.75
538.86	30.78
539.287	30.82
539.715	30.88
540.143	30.93
540.57	30.96
540.998	30.99
541.425	31.03
541.852	31.05
542.28	31.11
542.707	31.14
543.134	31.17
543.561	31.22
543.988	31.26
544.415	31.29
544.842	31.29
545.269	31.33
545.696	31.37
546.123	31.4
546.549	31.43
546.976	31.45
547.403	31.47
547.829	31.49
548.256	31.49
548.682	31.48
549.108	31.51
549.535	31.55
549.961	31.55
550.387	31.55
550.813	31.54
551.24	31.52
551.666	31.5
552.092	31.5
552.518	31.48
552.943	31.46
553.369	31.45
553.795	31.41
554.221	31.36
554.646	31.33
555.072	31.29
555.498	31.24
555.923	31.18
556.349	31.09
556.774	31.02
557.199	30.94
557.625	30.86
558.05	30.76
558.475	30.69
558.9	30.6
559.325	30.5
559.75	30.38
560.175	30.25
560.6	30.15
561.025	30.04
561.449	29.91
561.874	29.77
562.299	29.65
562.723	29.51
563.148	29.35
563.572	29.18
563.997	29.02
564.421	28.86
564.846	28.72
565.27	28.56
565.694	28.39
566.118	28.22
566.542	28.05
566.966	27.87
567.39	27.7
567.814	27.53
568.238	27.36
568.662	27.19
569.086	27.01
569.509	26.85
569.933	26.67
570.357	26.5
570.78	26.32
571.204	26.16
571.627	25.98
572.05	25.82
572.474	25.66
572.897	25.51
573.32	25.35
573.743	25.2
574.166	25.04
574.589	24.9
575.012	24.75
575.435	24.61
575.858	24.48
576.281	24.34
576.704	24.2
577.126	24.07
577.549	23.94
577.972	23.8
578.394	23.66
578.817	23.53
579.239	23.41
579.661	23.3
580.084	23.18
580.506	23.06
580.928	22.95
581.35	22.84
581.772	22.73
582.194	22.62
582.616	22.52
583.038	22.43
583.46	22.32
583.882	22.21
584.303	22.11
584.725	22.02
585.147	21.93
585.568	21.85
585.99	21.75
586.411	21.68
586.833	21.59
587.254	21.5
587.675	21.42
588.096	21.35
588.518	21.28
588.939	21.21
589.36	21.14
589.781	21.09
590.202	21.01
590.623	20.96
591.043	20.89
591.464	20.83
591.885	20.78
592.305	20.72
592.726	20.69
593.147	20.63
593.567	20.58
593.987	20.51
594.408	20.46
594.828	20.41
595.248	20.37
595.669	20.33
596.089	20.3
596.509	20.27
596.929	20.23
597.349	20.18
597.769	20.14
598.189	20.11
598.608	20.08
599.028	20.05
599.448	19.99
599.867	19.95
600.287	19.9
600.706	19.83
601.126	19.77
601.545	19.71
601.965	19.66
602.384	19.6
602.803	19.53
603.222	19.48
603.641	19.4
604.061	19.35
604.48	19.26
604.898	19.18
605.317	19.1
605.736	19.02
606.155	18.93
606.574	18.84
606.992	18.74
607.411	18.64
607.829	18.5
608.248	18.39
608.666	18.29
609.085	18.19
609.503	18.09
609.921	17.99
610.339	17.9
610.758	17.81
611.176	17.7
611.594	17.59
612.012	17.5
612.43	17.42
612.847	17.33
613.265	17.23
613.683	17.14
614.101	17.04
614.518	16.95
614.936	16.85
615.353	16.77
615.771	16.69
616.188	16.62
616.606	16.53
617.023	16.45
617.44	16.38
617.857	16.31
618.274	16.23
618.691	16.17
619.108	16.11
619.525	16.04
619.942	15.97
620.359	15.92
620.776	15.86
621.192	15.8
621.609	15.77
622.026	15.73
622.442	15.7
622.859	15.67
623.275	15.64
623.691	15.61
624.108	15.6
624.524	15.58
624.94	15.56
625.356	15.56
625.772	15.55
626.188	15.54
626.604	15.51
627.02	15.5
627.436	15.49
627.852	15.47
628.268	15.45
628.683	15.43
629.099	15.41
629.514	15.39
629.93	15.35
630.345	15.31
630.761	15.26
631.176	15.22
631.591	15.16
632.007	15.09
632.422	15.02
632.837	14.95
633.252	14.85
633.667	14.76
634.082	14.65
634.497	14.54
634.911	14.43
635.326	14.31
635.741	14.18
636.155	14.04
636.57	13.91
636.984	13.75
637.399	13.6
637.813	13.44
638.228	13.27
638.642	13.11
639.056	12.95
639.47	12.78
639.884	12.62
640.298	12.44
640.712	12.25
641.126	12.08
641.54	11.9
641.954	11.72
642.368	11.56
642.781	11.39
643.195	11.24
643.609	11.07
644.022	10.91
644.436	10.76
644.849	10.62
645.262	10.5
645.676	10.36
646.089	10.25
646.502	10.14
646.915	10.04
647.328	9.94
647.741	9.84
648.154	9.77
648.567	9.7
648.98	9.62
649.393	9.55
649.805	9.49
650.218	9.43
650.631	9.37
651.043	9.31
651.456	9.25
651.868	9.19
652.28	9.13
652.693	9.08
653.105	9.02
653.517	8.95
653.929	8.89
654.341	8.81
654.753	8.74
655.165	8.66
655.577	8.58
655.989	8.49
656.401	8.4
656.813	8.31
657.224	8.2
657.636	8.09
658.047	7.98
658.459	7.87
658.87	7.76
659.282	7.64
659.693	7.53
660.104	7.41
660.515	7.29
660.926	7.19
661.338	7.06
661.749	6.97
662.159	6.86
662.57	6.77
662.981	6.67
663.392	6.57
663.803	6.48
664.213	6.38
664.624	6.31
665.035	6.23
665.445	6.15
665.855	6.09
666.266	6.01
666.676	5.97
667.086	5.9
667.497	5.86
667.907	5.82
668.317	5.79
668.727	5.76
669.137	5.74
669.547	5.72
669.956	5.71
670.366	5.69
670.776	5.68
671.186	5.67
671.595	5.66
672.005	5.65
672.414	5.65
672.824	5.65
673.233	5.66
673.642	5.67
674.052	5.67
674.461	5.68
674.87	5.7
675.279	5.73
675.688	5.77
676.097	5.8
676.506	5.85
676.915	5.9
677.323	5.95
677.732	6
678.141	6.06
678.549	6.13
678.958	6.22
679.366	6.3
679.775	6.38
680.183	6.48
680.592	6.6
681	6.72
681.408	6.86
681.816	7.01
682.224	7.18
682.632	7.37
683.04	7.57
683.448	7.79
683.856	8.03
684.264	8.3
684.671	8.59
685.079	8.91
685.487	9.26
685.894	9.65
686.302	10.07
686.709	10.53
687.116	11
687.524	11.51
687.931	12.05
688.338	12.64
688.745	13.23
689.152	13.86
689.559	14.52
689.966	15.19
690.373	15.88
690.78	16.6
691.187	17.32
691.593	18.06
692	18.8
692.407	19.53
692.813	20.29
693.22	21.04
693.626	21.8
694.032	22.55
694.439	23.29
694.845	24.03
695.251	24.75
695.657	25.48
696.063	26.21
696.469	26.93
696.875	27.66
697.281	28.36
697.687	29.05
698.093	29.74
698.498	30.39
698.904	31.05
699.31	31.68
699.715	32.29
700.12	32.9
700.526	33.5
700.931	34.08
701.337	34.63
701.742	35.16
702.147	35.68
702.552	36.18
702.957	36.69
703.362	37.19
703.767	37.65
704.172	38.1
704.577	38.57
704.981	38.99
705.386	39.44
705.791	39.88
706.195	40.3
706.6	40.71
707.004	41.11
707.408	41.51
707.813	41.88
708.217	42.27
708.621	42.65
709.025	42.99
709.43	43.33
709.834	43.66
710.237	43.98
710.641	44.29
711.045	44.6
711.449	44.92
711.853	45.22
712.256	45.52
712.66	45.81
713.064	46.09
713.467	46.39
713.87	46.69
714.274	46.96
714.677	47.25
715.08	47.52
715.484	47.78
715.887	48.05
716.29	48.28
716.693	48.54
717.096	48.77
717.499	48.99
717.901	49.2
718.304	49.39
718.707	49.59
719.109	49.8
719.512	49.98
719.915	50.19
720.317	50.36
720.719	50.52
721.122	50.69
721.524	50.86
721.926	51.04
722.328	51.2
722.731	51.37
723.133	51.55
723.535	51.68
723.937	51.85
724.338	52
724.74	52.14
725.142	52.34
725.544	52.46
725.945	52.59
726.347	52.69
726.748	52.79
727.15	52.92
727.551	53.01
727.952	53.1
728.354	53.18
728.755	53.26
729.156	53.37
729.557	53.42
729.958	53.5
730.359	53.59
730.76	53.7
731.161	53.78
731.562	53.85
731.962	53.92
732.363	54.01
732.763	54.08
733.164	54.16
733.564	54.19
733.965	54.25
734.365	54.33
734.766	54.38
735.166	54.43
735.566	54.49
735.966	54.53
736.366	54.58
736.766	54.62
737.166	54.64
737.566	54.69
737.966	54.75
738.365	54.75
738.765	54.79
739.165	54.83
739.564	54.85
739.964	54.87
740.363	54.88
740.763	54.9
741.162	54.93
741.561	54.94
741.96	54.94
742.36	54.95
742.759	55
743.158	55
743.557	55
743.955	55.03
744.354	55.06
744.753	55.11
745.152	55.16
745.55	55.2
745.949	55.24
746.348	55.28
746.746	55.28
747.144	55.3
747.543	55.31
747.941	55.33
748.339	55.32
748.737	55.31
749.136	55.3
749.534	55.29
749.932	55.29
750.33	55.27
750.727	55.28
751.125	55.3
751.523	55.3
751.921	55.32
752.318	55.34
752.716	55.36
753.113	55.37
753.511	55.38
753.908	55.39
754.305	55.4
754.703	55.38
755.1	55.37
755.497	55.36
755.894	55.33
756.291	55.33
756.688	55.32
757.085	55.3
757.482	55.29
757.878	55.29
758.275	55.27
758.672	55.26
759.068	55.29
759.465	55.32
759.861	55.35
760.258	55.36
760.654	55.38
761.05	55.38
761.447	55.42
761.843	55.41
762.239	55.4
762.635	55.4
763.031	55.39
763.427	55.35
763.822	55.32
764.218	55.3
764.614	55.3
765.01	55.25
765.405	55.24
765.801	55.17
766.196	55.17
766.592	55.14
766.987	55.14
767.382	55.12
767.778	55.11
768.173	55.11
768.568	55.09
768.963	55.05
769.358	55.06
769.753	55.04
770.148	55.05
770.542	55.03
770.937	55.07
771.332	55.03
771.726	55.05
772.121	55.06
772.515	55.07
772.91	55.08
773.304	55.1
773.699	55.11
774.093	55.13
774.487	55.15
774.881	55.18
775.275	55.16
775.669	55.17
776.063	55.14
776.457	55.15
776.851	55.12
777.245	55.07
777.638	55.05
778.032	55.05
778.425	55.03
778.819	55
779.212	55
779.606	55.03
779.999	55.04
780.392	55.07
780.786	55.04
781.179	55.05
781.572	55.13
781.965	55.16
782.358	55.16
782.751	55.18
783.143	55.19
783.536	55.2
783.929	55.19
784.322	55.2
784.714	55.19
785.107	55.23
785.499	55.22
785.891	55.18
786.284	55.18
786.676	55.18
787.068	55.18
787.46	55.18
787.852	55.16
788.245	55.15
788.636	55.11
789.028	55.09
789.42	55.06
789.812	55.07
790.204	55.09
790.595	55.09
790.987	55.1
791.378	55.11
791.77	55.13
792.161	55.12
792.553	55.1
792.944	55.11
793.335	55.14
793.726	55.13
794.117	55.12
794.508	55.09
794.899	55.08
795.29	55.05
795.681	55.01
796.072	55.01
796.463	55.01
796.853	55
797.244	55
797.634	54.98
798.025	55.04
798.415	55.05
798.806	55.04
799.196	55.08
799.586	55.09
799.976	55.11
800.366	55.09
800.756	55.1
801.146	55.1
801.536	55.13
801.926	55.14
802.316	55.13
802.706	55.13
803.095	55.16
803.485	55.13
803.874	55.12
804.264	55.11
804.653	55.11
805.043	55.09
805.432	55.1
805.821	55.09
806.21	55.09
806.599	55.09
806.988	55.08
807.377	55.08
807.766	55.06
808.155	55.05
808.544	55.07
808.933	55.07
809.321	55.08
809.71	55.09
810.098	55.08
810.487	55.05
810.875	55.04
811.264	55.01
811.652	55.01
812.04	55.01
812.428	55.04
812.816	55
813.204	55
813.592	54.98
813.98	54.97
814.368	54.99
814.756	55.01
815.144	55
815.531	55.02
815.919	54.99
816.306	55.01
816.694	54.99
817.081	55
817.469	55.01
817.856	55.02
818.243	55.02
818.63	55
819.017	55
819.404	54.98
819.791	54.97
820.178	54.99
820.565	54.97
820.952	54.97
821.339	54.95
821.725	54.96
822.112	54.98
822.498	55.02
822.885	55.05
823.271	55.03
823.657	55.01
824.044	55.03
824.43	55.04
824.816	55.04
825.202	55.06
825.588	55.08
825.974	55.05
826.36	55.05
826.746	55.01
827.132	54.98
827.517	54.99
827.903	55.05
828.289	55.06
828.674	55.04
829.06	55.05
829.445	55.04
829.83	55.04
830.216	55.03
830.601	55.01
830.986	55.02
831.371	55.03
831.756	55.04
832.141	54.99
832.526	54.99
832.911	54.97
833.295	54.95
833.68	54.95
834.065	54.96
834.449	54.97
834.834	54.96
835.218	54.96
835.603	54.96
835.987	54.95
836.371	54.98
836.755	54.95
837.139	54.96
837.524	54.99
837.908	55
838.291	55
838.675	54.99
839.059	55.02
839.443	54.98
839.827	54.99
840.21	54.97
840.594	54.97
840.977	55
841.361	55.01
841.744	54.95
842.127	54.92
842.511	54.9
842.894	54.89
843.277	54.88
843.66	54.88
844.043	54.88
844.426	54.89
844.809	54.9
845.191	54.92
845.574	54.91
845.957	54.96
846.339	54.99
846.722	55
847.104	55.02
847.487	55.03
847.869	55.06
848.252	55.04
848.634	55.04
849.016	55.04
849.398	55.04
849.78	55.05
850.162	55.04
850.544	55.04
850.926	55.04
851.307	55.04
851.689	55.03
852.071	55.03
852.452	55.03
852.834	55.02
853.215	55.01
853.597	55
853.978	55
854.359	54.98
854.741	54.97
855.122	54.96
855.503	54.94
855.884	54.93
856.265	54.92
856.646	54.91
857.026	54.93
857.407	54.95
857.788	54.92
858.169	54.92
858.549	54.93
858.93	54.94
859.31	54.94
859.69	54.96
860.071	55
860.451	54.99
860.831	55.03
861.211	55.01
861.591	55
861.971	55.01
862.351	55.04
862.731	55.04
863.111	55.02
863.491	55.01
863.87	55.01
864.25	54.98
864.629	54.98
865.009	54.95
865.388	54.96
865.768	54.94
866.147	54.95
866.526	54.93
866.905	54.91
867.284	54.93
867.663	54.92
868.042	54.92
868.421	54.93
868.8	54.94
869.179	54.94
869.558	54.93
869.936	54.92
870.315	54.92
870.693	54.91
871.072	54.93
871.45	54.92
871.828	54.94
872.207	54.96
872.585	54.97
872.963	54.97
873.341	54.96
873.719	54.98
874.097	54.98
874.475	55.01
874.853	55.01
875.23	55.02
875.608	55.02
875.986	55.05
876.363	55.03
876.741	55.04
877.118	55.05
877.495	55.07
877.873	55.08
878.25	55.13
878.627	55.11
879.004	55.12
879.381	55.13
879.758	55.11
880.135	55.09
880.512	55.1
880.889	55.08
881.265	55.06
881.642	55.04
882.019	55.04
882.395	55
882.772	54.98
883.148	54.96
883.524	54.92
883.901	54.93
884.277	54.92
884.653	54.9
885.029	54.9
885.405	54.91
885.781	54.92
886.157	54.93
886.532	54.94
886.908	54.94
887.284	54.94
887.659	54.92
888.035	54.89
888.411	54.87
888.786	54.88
889.161	54.89
889.537	54.89
889.912	54.88
890.287	54.88
890.662	54.87
891.037	54.89
891.412	54.87
891.787	54.85
892.162	54.87
892.536	54.88
892.911	54.85
893.286	54.84
893.66	54.81
894.035	54.82
894.409	54.79
894.784	54.78
895.158	54.76
895.532	54.79
895.906	54.82
896.281	54.81
896.655	54.79
897.029	54.81
897.402	54.79
897.776	54.82
898.15	54.81
898.524	54.84
898.898	54.84
899.271	54.84
899.645	54.86
900.018	54.88
900.392	54.89
900.765	54.94
901.138	54.95
901.511	54.99
901.884	54.97
902.258	54.97
902.631	54.96
903.003	54.99
903.376	54.98
903.749	54.96
904.122	54.97
904.495	54.95
904.867	54.94
905.24	54.96
905.612	54.97
905.985	54.98
906.357	55
906.729	55.01
907.102	54.96
907.474	54.97
907.846	54.97
908.218	54.92
908.59	54.93
908.962	54.93
909.334	54.92
909.705	54.9
910.077	54.91
910.449	54.91
910.82	54.88
911.192	54.89
911.563	54.87
911.935	54.87
912.306	54.92
912.677	54.93
913.048	54.93
913.419	54.92
913.79	54.91
914.161	54.91
914.532	54.88
914.903	54.91
915.274	54.92
915.645	54.92
916.015	54.94
916.386	54.92
916.756	54.9
917.127	54.9
917.497	54.89
917.868	54.9
918.238	54.87
918.608	54.9
918.978	54.9
919.348	54.91
919.718	54.9
920.088	54.89
920.458	54.87
920.828	54.85
921.198	54.8
921.567	54.81
921.937	54.82
922.306	54.82
922.676	54.78
923.045	54.75
923.415	54.71
923.784	54.75
924.153	54.75
924.522	54.77
924.891	54.78
925.26	54.8
925.629	54.78
925.998	54.79
926.367	54.8
926.736	54.79
927.104	54.82
927.473	54.79
927.842	54.74
928.21	54.74
928.578	54.71
928.947	54.73
929.315	54.69
929.683	54.68
930.051	54.65
930.42	54.62
930.788	54.59
931.156	54.55
931.523	54.57
931.891	54.58
932.259	54.54
932.627	54.54
932.994	54.49
933.362	54.47
933.729	54.46
934.097	54.44
934.464	54.44
934.831	54.44
935.199	54.43
935.566	54.38
935.933	54.3
936.3	54.28
936.667	54.26
937.034	54.28
937.401	54.32
937.767	54.29
938.134	54.28
938.501	54.27
938.867	54.29
939.234	54.3
939.6	54.32
939.967	54.4
940.333	54.41
940.699	54.45
941.065	54.42
941.431	54.42
941.798	54.36
942.163	54.38
942.529	54.37
942.895	54.34
943.261	54.3
943.627	54.33
943.992	54.32
944.358	54.31
944.723	54.29
945.089	54.23
945.454	54.21
945.82	54.25
946.185	54.26
946.55	54.23
946.915	54.21
947.28	54.23
947.645	54.19
948.01	54.2
948.375	54.22
948.74	54.23
949.104	54.28
949.469	54.3
949.834	54.28
950.198	54.22
950.562	54.24
950.927	54.23
951.291	54.19
951.655	54.19
952.02	54.18
952.384	54.13
952.748	54.04
953.112	54.04
953.476	53.96
953.839	53.95
954.203	53.94
954.567	53.91
954.931	53.87
955.294	53.84
955.658	53.86
956.021	53.87
956.385	53.84
956.748	53.87
957.111	53.79
957.474	53.82
957.837	53.81
958.2	53.79
958.563	53.77
958.926	53.8
959.289	53.82
959.652	53.78
960.015	53.69
960.377	53.72
960.74	53.7
961.102	53.72
961.465	53.7
961.827	53.68
962.189	53.72
962.552	53.7
962.914	53.67
963.276	53.68
963.638	53.74
964	53.77
964.362	53.78
964.724	53.82
965.085	53.83
965.447	53.81
965.809	53.88
966.17	53.84
966.532	53.87
966.893	53.9
967.255	53.92
967.616	53.84
967.977	53.89
968.338	53.88
968.699	53.81
969.061	53.85
969.421	53.92
969.782	53.89
970.143	53.9
970.504	53.87
970.865	53.92
971.225	53.89
971.586	53.88
971.946	53.8
972.307	53.83
972.667	53.83
973.027	53.87
973.388	53.83
973.748	53.85
974.108	53.88
974.468	53.86
974.828	53.85
975.188	53.81
975.548	53.78
975.907	53.84
976.267	53.76
976.627	53.8
976.986	53.67
977.346	53.62
977.705	53.58
978.064	53.54
978.424	53.59
978.783	53.5
979.142	53.5
979.501	53.58
979.86	53.65
980.219	53.63
980.578	53.63
980.937	53.7
981.296	53.71
981.654	53.71
982.013	53.72
982.371	53.62
982.73	53.65
983.088	53.6
983.447	53.51
983.805	53.4
984.163	53.33
984.521	53.27
984.879	53.23
985.237	53.21
985.595	53.21
985.953	53.17
986.311	53.15
986.669	53.17
987.026	53.15
987.384	53.13
987.741	53.04
988.099	53.17
988.456	53.24
988.814	53.21
989.171	53.2
989.528	53.19
989.885	53.24
990.242	53.31
990.599	53.3
990.956	53.41
991.313	53.43
991.67	53.53
992.027	53.49
992.383	53.46
992.74	53.55
993.096	53.53
993.453	53.53
993.809	53.48
994.165	53.5
994.522	53.48
994.878	53.45
995.234	53.42
995.59	53.37
995.946	53.41
996.302	53.41
996.658	53.41
997.013	53.4
997.369	53.39
997.725	53.42
998.08	53.44
998.436	53.39
998.791	53.42
999.147	53.49
999.502	53.52
999.857	53.5
1000.212	53.37
1000.567	53.29
1000.922	53.36
1001.277	53.37
1001.632	53.33
1001.987	53.23
1002.342	53.31
1002.696	53.23
1003.051	53.31
1003.406	53.44
1003.76	53.46
1004.114	53.46
1004.469	53.51
1004.823	53.59
1005.177	53.57
1005.531	53.66
1005.885	53.74
1006.239	53.66
1006.593	53.78
1006.947	53.63
1007.301	53.47
1007.655	53.44
1008.008	53.53
1008.362	53.49
1008.715	53.41
1009.069	53.47
1009.422	53.28
1009.776	53.2
1010.129	53.14
1010.482	53.15
1010.835	53.16
1011.188	53.31
1011.541	53.2
1011.894	53.24
1012.247	53.23
1012.6	53.2
1012.952	53.13
1013.305	53.17
1013.657	53.08
1014.01	53.13
1014.362	52.98
1014.715	53.08
1015.067	53.04
1015.419	53.28
1015.771	53.27
1016.123	53.41
1016.475	53.53
1016.827	53.74
1017.179	53.82
1017.531	53.92
1017.883	53.96
1018.234	54.09
1018.586	54.02
1018.938	54.07
1019.289	53.97
1019.64	54.01
1019.992	53.9
1020.343	53.85
1020.694	53.65
1021.045	53.59
1021.396	53.57
1021.747	53.67
1022.098	53.69
1022.449	53.6
1022.8	53.6
1023.151	53.53
1023.501	53.53
1023.852	53.52
1024.202	53.42
1024.553	53.4
1024.903	53.5
1025.253	53.55
1025.604	53.42
1025.954	52.98
1026.304	53.07
1026.654	52.79
1027.004	52.68
1027.354	52.71
1027.703	52.32
1028.053	52.22
1028.403	52.44
1028.753	52.44
1029.102	52.7
1029.452	53.02
1029.801	53.69
1030.15	53.65
1030.499	53.82
897.758	844.81
901.051	849.09
904.343	849.76
907.636	865.84
910.928	843.02
914.22	845.84
917.511	836.96
920.803	796.75
924.094	795.19
927.384	776.24
930.675	747.37
933.965	745.89
937.255	705.05
940.544	677.41
943.834	649.11
947.123	643.45
950.411	605.33
953.7	593.18
956.988	567.6
960.276	544.57
963.563	536
966.851	519.84
970.138	514.74
973.424	499.29
976.711	501.76
979.997	475.28
983.283	470.96
986.568	462.71
989.853	450.82
993.138	439.93
996.423	424.23
999.708	414.6
1002.992	407.95
1006.275	390.18
1009.559	387.06
1012.842	374.05
1016.125	365.59
1019.408	360.89
1022.69	356.5
1025.972	348.35
1029.254	342.79
1032.536	337.99
1035.817	329.46
1039.098	325.6
1042.379	321.37
1045.659	318.13
1048.939	310.63
1052.219	305.2
1055.498	300.98
1058.778	293.88
1062.057	288.93
1065.335	285.86
1068.614	282.6
1071.892	280.19
1075.17	273
1078.447	267.49
1081.724	265.11
1085.001	263.26
1088.278	258.07
1091.554	254.2
1094.83	254.2
1098.106	251.45
1101.382	249.99
1104.657	248.3
1107.932	244.41
1111.206	245.23
1114.481	240.19
1117.755	238.38
1121.029	236.77
1124.302	236.38
1127.575	231.6
1130.848	229.41
1134.121	227.55
1137.393	225.9
1140.665	220.64
1143.937	219.77
1147.208	219.65
1150.48	218.45
1153.75	216.28
1157.021	213.42
1160.291	213.13
1163.561	211.26
1166.831	211.46
1170.101	209.99
1173.37	210.17
1176.639	211.22
1179.907	209.75
1183.176	206.08
1186.444	206.61
1189.711	205.73
1192.979	205.65
1196.246	204.24
1199.513	205.25
1202.78	203.62
1206.046	203.75
1209.312	201.74
1212.578	202.03
1215.843	202.94
1219.108	202.53
1222.373	205.59
1225.638	206.92
1228.902	208.85
1232.166	210.03
1235.43	210.98
1238.693	214.2
1241.956	214.41
1245.219	216.81
1248.482	218.25
1251.744	218.01
1255.006	218.37
1258.268	213.56
1261.529	212.36
1264.79	211.06
1268.051	209.12
1271.312	206.56
1274.572	204.02
1277.832	203.59
1281.092	200.07
1284.351	197.83
1287.61	198.38
1290.869	195.6
1294.128	194.77
1297.386	194.35
1300.644	192.33
1303.902	193.87
1307.159	193.2
1310.416	192.71
1313.673	191.83
1316.93	193.93
1320.186	193.73
1323.442	194.62
1326.697	197.6
1329.953	197.64
1333.208	198.17
1336.463	200.77
1339.717	200.25
1342.972	202.48
1346.226	204.59
1349.479	204.87
1352.733	205.96
1355.986	207.71
1359.238	206.57
1362.491	207.48
1365.743	209.45
1368.995	209.79
1372.247	209.86
1375.498	209.54
1378.749	211.2
1382	208.92
1385.251	208.77
1388.501	207.98
1391.751	207.05
1395	206.37
1398.25	204.68
1401.499	202.9
1404.748	202.56
1407.996	199.48
1411.244	198.48
1414.492	196.28
1417.74	194.43
1420.987	192.17
1424.234	190.48
1427.481	188.16
1430.728	187.72
1433.974	186.19
1437.22	184
1440.465	183.27
1443.711	181.28
1446.956	180.14
1450.201	179.29
1453.445	176.85
1456.689	176.59
1459.933	174.23
1463.177	172.76
1466.42	170.24
1469.663	168.31
1472.906	168.09
1476.148	164.56
1479.391	164.04
1482.633	162.86
1485.874	159.97
1489.115	159.17
1492.356	157.78
1495.597	157.62
1498.838	156.06
1502.078	155.53
1505.318	155.31
1508.557	154.89
1511.797	155.04
1515.036	153.52
1518.274	153
1521.513	152.64
1524.751	152.33
1527.989	152.07
1531.227	151.65
1534.464	151.7
1537.701	150.89
1540.938	150.78
1544.174	149.58
1547.41	149.59
1550.646	149.17
1553.882	149.68
1557.117	148.46
1560.352	147.89
1563.587	147.25
1566.821	146.55
1570.055	145.8
1573.289	145.36
1576.523	145.12
1579.756	144.06
1582.989	143.11
1586.222	142.97
1589.454	142.4
1592.686	143.38
1595.918	142.69
1599.15	142.44
1602.381	142.52
1605.612	142.38
1608.843	142.41
1612.073	141.8
1615.303	143.22
1618.533	143.38
1621.762	143.17
1624.992	143.38
1628.221	142.64
1631.449	143.15
1634.678	143.08
1637.906	143.78
1641.134	143.65
1644.361	143.37
1647.588	144.35
1650.815	143.54
1654.042	143.45
1657.269	143.98
1660.495	143.98
1663.72	143.51
1666.946	143.75
1670.171	144.07
1673.396	143.91
1676.621	144.29
1679.845	144.96
1683.069	144.46
1686.293	145.4
1689.517	145.57
1692.74	145.71
1695.963	145.33
1699.185	146.64
1702.408	147.23
1705.63	147.66
1708.852	148.14
1712.073	147.58
1715.294	147.45
1718.515	148.43
1721.736	147.72
1724.956	148.8
1728.176	148.72
1731.396	150.38
1734.616	149.63
1737.835	149.7
1741.054	148.48
1744.272	148.73
1747.491	150.41
1750.709	150.57
1753.927	150.3
1757.144	150.22
1760.361	150.14
1763.578	150.47
1766.795	149.8
1770.011	151.2
1773.227	150.81
1776.443	152.3
1779.658	151.98
1782.874	152.41
1786.089	152.66
1789.303	153.14
1792.518	154.58
1795.732	154.47
1798.945	155.65
1802.159	156.1
1805.372	155.91
1808.585	158.34
1811.797	159.53
1815.01	159.92
1818.222	160.36
1821.434	161.63
1824.645	161.78
1827.856	164.01
1831.067	164.75
1834.278	164.75
1837.488	165.85
1840.698	166.98
1843.908	165.74
1847.117	165.4
1850.326	166.31
1853.535	165.92
1856.744	167.91
1859.952	167.93
1863.16	166.36
1866.368	165.34
1869.575	165.95
1872.782	162.55
1875.989	160.69
1879.196	160.04
1882.402	158.76
1885.608	158.32
1888.814	156.97
1892.019	154.94
1895.224	153.74
1898.429	152.37
1901.634	152.07
1904.838	151.18
1908.042	152.8
1911.246	152.17
1914.449	152.08
1917.652	152.18
1920.855	151.59
1924.058	151.31
1927.26	150.41
1930.462	150.74
1933.664	152.36
1936.865	151.95
1940.066	151.06
1943.267	150.27
1946.467	150.62
1949.668	151.56
1952.868	152.83
1956.067	153.39
1959.267	154.85
1962.466	155.45
1965.665	154
1968.863	155.1
1972.061	157.34
1975.259	159.24
1978.457	160.19
1981.654	162.68
1984.852	162.67
1988.048	162.67
1991.245	164.26
1994.441	166.14
1997.637	167.16
2000.833	171.98
2004.028	173.63
2007.223	174.39
2010.418	176.62
2013.613	179.05
2016.807	181.25
2020.001	183.24
2023.194	186.57
2026.388	190.13
2029.581	194.16
2032.774	196.39
2035.966	198.87
2039.158	199.47
2042.35	203.78
2045.542	205.26
2048.733	209
2051.924	211.63
2055.115	215.27
2058.306	215.11
2061.496	217.73
2064.686	217.39
2067.875	221.07
2071.065	222.35
2074.254	221.7
2077.442	223.88
2080.631	224.79
2083.819	227.79
2087.007	227.21
2090.195	231
2093.382	232.7
2096.569	231.47
2099.756	235.56
2102.942	236.1
2106.128	238.51
2109.314	243.71
2112.5	243.14
2115.685	248.01
2118.87	247.73
2122.055	253.76
2125.239	253.92
2128.424	256.95
2131.608	258.41
2134.791	261.83
2137.974	263.58
2141.157	264.07
2144.34	264.84
2147.523	268.15
2150.705	266.75
2153.887	269.91
2157.068	270.05
2160.25	268.67
2163.431	268.93
2166.611	272.82
2169.792	277.24
2172.972	279.99
2176.152	282.08
2179.331	284.9
2182.511	289.74
2185.69	291.98
2188.868	297.13
2192.047	298.18
2195.225	305.5
2198.403	314.02
2201.58	319.15
2204.758	324.5
2207.935	330.57
2211.111	336.11
2214.288	340.76
2217.464	341.72
2220.64	349.4
2223.815	352.88
2226.991	365.79
2230.166	366.57
2233.34	373.84
2236.515	378.58
2239.689	379.11
2242.863	381.71
2246.036	391.07
2249.209	389.12
2252.382	394.65
2255.555	404.62
2258.727	406.81
2261.9	409.31
2265.071	413.49
2268.243	418.6
2271.414	423.89
2274.585	433.58
2277.756	436.45
2280.926	443.85
2284.096	451.97
2287.266	461.5
2290.436	463.42
2293.605	473.88
2296.774	488.14
2299.942	500.57
2303.111	504.2
2306.279	515.26
2309.447	520.4
2312.614	534.44
2315.781	545.1
2318.948	569.22
2322.115	561.74
2325.281	593.91
2328.447	578.76
2331.613	600.28
2334.779	597.17
2337.944	622.51
2341.109	627.78
2344.274	645.09
2347.438	665.3
2350.602	664.44
2353.766	689.22
2356.929	700.45
2360.092	692.55
2363.255	743.98
2366.418	745.55
2369.58	756.65
2372.742	800.44
2375.904	822.89
2379.066	819.02
2382.227	806.39
2385.388	872.87
2388.548	869.95
2391.709	879.74
2394.869	981.17
2398.029	946.65
2401.188	967.83
2404.347	960.01
2407.506	947.02
2410.665	971.9
2413.823	1030.57
2416.981	1092.24
2420.139	1059.7
2423.296	1048.46
2426.453	1091.88
2429.61	1047.19
2432.767	1087.29
2435.923	1077.55
2439.079	1183
2442.235	1200.67
2445.391	1190.6
2448.546	1174.73
2451.701	1142.71
2454.855	1141.3
2458.009	1208.67
2461.163	1259.72
2464.317	1306.18
2467.471	1344.6
2470.624	1343.37
2473.777	1313.09
2476.929	1273.54
2480.082	1235.35
2483.234	1227.16
2486.385	1289.99
2489.537	1296
2492.688	1341.47
2495.839	1311.29
2498.989	1285.4
2502.14	1287.44
2505.29	1304.4
2508.439	1317.21
2511.589	1317.3
2514.738	1440.98
2517.887	1406.12
2521.035	1483.08
2524.183	1491.9
2527.331	1504.64
2530.479	1490.68
2533.627	1500.77
