Data from C_1_DEC_NC_4N_Splice17_12-58-05-330.txt Node
Date: Sat Mar 07 12:58:05 EST 2020
User: sa697716
Spectrometer: NQ5500242
Trigger mode: 0
Integration Time (sec): 1.450000E-1
Scans to average: 20
Nonlinearity correction enabled: false
Boxcar width: 5
Storing dark spectrum: false
XAxis mode: Wavelengths
Number of Pixels in Spectrum: 512
>>>>>Begin Spectral Data<<<<<
187.83	124.58
188.298	136.94
188.766	102.06
189.233	90.53
189.701	70.25
190.169	81.6
190.636	46.65
191.104	10.83
191.571	-319.16
192.039	-267.65
192.506	-844.17
192.974	178.36
193.441	243.07
193.908	40.84
194.375	10.79
194.842	-73.78
195.31	-136.03
195.777	-485.33
196.244	17.42
196.711	39.16
197.177	44.13
197.644	45.36
198.111	46.6
198.578	47.08
199.045	47.71
199.511	47.92
199.978	47.82
200.445	48.16
200.911	48.15
201.378	48.13
201.844	48.43
202.31	48.03
202.777	47.99
203.243	47.77
203.709	47.51
204.176	47.12
204.642	46.87
205.108	46.97
205.574	46.75
206.04	46.62
206.506	46.47
206.972	46.15
207.438	46.01
207.903	45.6
208.369	45.03
208.835	44.33
209.301	43.6
209.766	42.79
210.232	41.69
210.697	40.93
211.163	39.99
211.628	39.14
212.094	38.04
212.559	37.58
213.024	36.72
213.49	36.17
213.955	35.5
214.42	34.67
214.885	33.97
215.35	32.96
215.815	31.65
216.28	30.07
216.745	28.37
217.21	26.61
217.675	24.88
218.14	23.5
218.604	22.28
219.069	21.31
219.534	20.56
219.998	19.86
220.463	19.31
220.927	18.77
221.392	18.34
221.856	18
222.32	17.71
222.785	17.42
223.249	17.19
223.713	16.91
224.177	16.67
224.642	16.43
225.106	16.14
225.57	15.87
226.034	15.68
226.497	15.45
226.961	15.23
227.425	15.04
227.889	14.84
228.353	14.63
228.816	14.45
229.28	14.25
229.744	14.07
230.207	13.91
230.671	13.74
231.134	13.55
231.597	13.42
232.061	13.26
232.524	13.09
232.987	12.93
233.45	12.8
233.914	12.63
234.377	12.49
234.84	12.33
235.303	12.21
235.766	12.09
236.229	11.97
236.691	11.83
237.154	11.7
237.617	11.59
238.08	11.47
238.542	11.33
239.005	11.24
239.468	11.13
239.93	11.04
240.393	10.94
240.855	10.81
241.317	10.69
241.78	10.59
242.242	10.48
242.704	10.38
243.166	10.28
243.629	10.2
244.091	10.11
244.553	10.01
245.015	9.91
245.477	9.81
245.939	9.72
246.4	9.64
246.862	9.55
247.324	9.47
247.786	9.38
248.247	9.3
248.709	9.21
249.17	9.12
249.632	9.05
250.093	8.98
250.555	8.91
251.016	8.85
251.477	8.78
251.939	8.72
252.4	8.67
252.861	8.62
253.322	8.57
253.783	8.51
254.244	8.47
254.705	8.41
255.166	8.35
255.627	8.29
256.088	8.24
256.549	8.19
257.009	8.13
257.47	8.07
257.931	8
258.391	7.94
258.852	7.89
259.312	7.83
259.773	7.78
260.233	7.74
260.694	7.69
261.154	7.64
261.614	7.59
262.074	7.55
262.534	7.52
262.994	7.49
263.455	7.45
263.915	7.41
264.374	7.39
264.834	7.36
265.294	7.33
265.754	7.3
266.214	7.28
266.673	7.26
267.133	7.25
267.593	7.23
268.052	7.21
268.512	7.19
268.971	7.18
269.431	7.16
269.89	7.13
270.349	7.12
270.809	7.1
271.268	7.09
271.727	7.07
272.186	7.04
272.645	7.03
273.104	7.01
273.563	6.99
274.022	6.97
274.481	6.96
274.94	6.94
275.399	6.92
275.857	6.9
276.316	6.88
276.775	6.87
277.233	6.86
277.692	6.84
278.15	6.82
278.609	6.81
279.067	6.79
279.525	6.77
279.984	6.75
280.442	6.74
280.9	6.73
281.358	6.71
281.816	6.69
282.274	6.67
282.732	6.64
283.19	6.62
283.648	6.59
284.106	6.57
284.564	6.55
285.021	6.54
285.479	6.51
285.937	6.47
286.394	6.46
286.852	6.42
287.309	6.4
287.767	6.38
288.224	6.35
288.682	6.32
289.139	6.29
289.596	6.26
290.053	6.22
290.511	6.19
290.968	6.17
291.425	6.14
291.882	6.13
292.339	6.11
292.796	6.1
293.252	6.08
293.709	6.07
294.166	6.05
294.623	6.04
295.079	6.02
295.536	6.01
295.992	5.99
296.449	5.98
296.905	5.96
297.362	5.94
297.818	5.93
298.274	5.92
298.731	5.9
299.187	5.88
299.643	5.86
300.099	5.85
300.555	5.83
301.011	5.81
301.467	5.8
301.923	5.79
302.379	5.77
302.835	5.76
303.291	5.75
303.746	5.74
304.202	5.74
304.658	5.73
305.113	5.72
305.569	5.71
306.024	5.7
306.479	5.69
306.935	5.68
307.39	5.67
307.845	5.66
308.301	5.65
308.756	5.64
309.211	5.63
309.666	5.63
310.121	5.62
310.576	5.61
311.031	5.6
311.486	5.6
311.94	5.59
312.395	5.58
312.85	5.58
313.305	5.56
313.759	5.55
314.214	5.54
314.668	5.53
315.123	5.52
315.577	5.5
316.032	5.49
316.486	5.47
316.94	5.46
317.394	5.44
317.849	5.42
318.303	5.41
318.757	5.38
319.211	5.37
319.665	5.35
320.119	5.34
320.572	5.32
321.026	5.31
321.48	5.3
321.934	5.28
322.387	5.27
322.841	5.25
323.295	5.25
323.748	5.24
324.202	5.23
324.655	5.22
325.108	5.21
325.562	5.21
326.015	5.2
326.468	5.2
326.921	5.19
327.374	5.18
327.827	5.18
328.28	5.18
328.733	5.17
329.186	5.16
329.639	5.16
330.092	5.15
330.545	5.15
330.997	5.14
331.45	5.14
331.903	5.14
332.355	5.15
332.808	5.14
333.26	5.13
333.713	5.13
334.165	5.12
334.617	5.12
335.069	5.12
335.522	5.11
335.974	5.11
336.426	5.11
336.878	5.1
337.33	5.08
337.782	5.09
338.234	5.09
338.686	5.08
339.137	5.08
339.589	5.06
340.041	5.05
340.493	5.03
340.944	5.01
341.396	5
341.847	4.99
342.299	4.96
342.75	4.95
343.201	4.93
343.653	4.91
344.104	4.89
344.555	4.88
345.006	4.87
345.457	4.86
345.908	4.85
346.359	4.86
346.81	4.85
347.261	4.84
347.712	4.83
348.163	4.82
348.613	4.82
349.064	4.82
349.515	4.82
349.965	4.82
350.416	4.81
350.866	4.81
351.317	4.79
351.767	4.8
352.217	4.79
352.668	4.79
353.118	4.79
353.568	4.79
354.018	4.8
354.468	4.8
354.918	4.79
355.368	4.8
355.818	4.81
356.268	4.8
356.718	4.8
357.168	4.8
357.617	4.8
358.067	4.79
358.517	4.79
358.966	4.8
359.416	4.8
359.865	4.79
360.315	4.79
360.764	4.79
361.213	4.78
361.663	4.77
362.112	4.78
362.561	4.79
363.01	4.79
363.459	4.78
363.908	4.77
364.357	4.76
364.806	4.77
365.255	4.77
365.703	4.77
366.152	4.78
366.601	4.79
367.05	4.79
367.498	4.78
367.947	4.78
368.395	4.78
368.844	4.79
369.292	4.78
369.74	4.79
370.189	4.78
370.637	4.77
371.085	4.76
371.533	4.76
371.981	4.76
372.429	4.76
372.877	4.76
373.325	4.75
373.773	4.75
374.221	4.75
374.669	4.75
375.116	4.75
375.564	4.74
376.012	4.76
376.459	4.76
376.907	4.76
377.354	4.77
377.801	4.79
378.249	4.8
378.696	4.8
379.143	4.81
379.591	4.82
380.038	4.83
380.485	4.85
380.932	4.86
381.379	4.87
381.826	4.88
382.273	4.89
382.72	4.89
383.166	4.9
383.613	4.93
384.06	4.92
384.506	4.94
384.953	4.96
385.4	4.99
385.846	5.01
386.292	5.03
386.739	5.05
387.185	5.07
387.631	5.09
388.078	5.12
388.524	5.13
388.97	5.17
389.416	5.2
389.862	5.23
390.308	5.26
390.754	5.31
391.2	5.34
391.645	5.38
392.091	5.43
392.537	5.47
392.983	5.5
393.428	5.55
393.874	5.59
394.319	5.62
394.765	5.66
395.21	5.7
395.655	5.72
396.101	5.76
396.546	5.79
396.991	5.83
397.436	5.87
397.881	5.93
398.326	5.96
398.771	6.01
399.216	6.04
399.661	6.08
400.106	6.1
400.551	6.12
400.995	6.15
401.44	6.18
401.885	6.2
402.329	6.22
402.774	6.24
403.218	6.27
403.663	6.29
404.107	6.32
404.551	6.34
404.995	6.36
405.44	6.39
405.884	6.4
406.328	6.42
406.772	6.43
407.216	6.44
407.66	6.45
408.104	6.45
408.547	6.46
408.991	6.46
409.435	6.47
409.879	6.48
410.322	6.5
410.766	6.53
411.209	6.55
411.653	6.57
412.096	6.58
412.54	6.6
412.983	6.62
413.426	6.65
413.869	6.67
414.312	6.71
414.756	6.72
415.199	6.72
415.642	6.72
416.085	6.72
416.527	6.71
416.97	6.71
417.413	6.71
417.856	6.7
418.298	6.69
418.741	6.69
419.184	6.68
419.626	6.69
420.069	6.69
420.511	6.69
420.953	6.69
421.396	6.71
421.838	6.7
422.28	6.7
422.722	6.73
423.164	6.71
423.606	6.71
424.048	6.7
424.49	6.69
424.932	6.68
425.374	6.65
425.816	6.62
426.258	6.59
426.699	6.58
427.141	6.57
427.582	6.56
428.024	6.56
428.465	6.56
428.907	6.55
429.348	6.52
429.789	6.52
430.231	6.55
430.672	6.58
431.113	6.6
431.554	6.61
431.995	6.62
432.436	6.63
432.877	6.65
433.318	6.69
433.759	6.71
434.2	6.74
434.64	6.76
435.081	6.76
435.522	6.78
435.962	6.79
436.403	6.82
436.843	6.83
437.284	6.83
437.724	6.84
438.164	6.82
438.604	6.84
439.045	6.86
439.485	6.88
439.925	6.9
440.365	6.92
440.805	6.94
441.245	6.97
441.685	7.02
442.125	7.06
442.564	7.1
443.004	7.13
443.444	7.16
443.883	7.21
444.323	7.21
444.762	7.24
445.202	7.27
445.641	7.32
446.081	7.36
446.52	7.37
446.959	7.43
447.398	7.46
447.837	7.49
448.276	7.53
448.716	7.57
449.154	7.63
449.593	7.68
450.032	7.73
450.471	7.75
450.91	7.76
451.349	7.8
451.787	7.8
452.226	7.81
452.664	7.83
453.103	7.84
453.541	7.84
453.98	7.86
454.418	7.85
454.856	7.86
455.295	7.86
455.733	7.84
456.171	7.83
456.609	7.83
457.047	7.82
457.485	7.82
457.923	7.83
458.361	7.84
458.798	7.83
459.236	7.83
459.674	7.82
460.111	7.82
460.549	7.85
460.987	7.85
461.424	7.86
461.862	7.87
462.299	7.89
462.736	7.89
463.173	7.88
463.611	7.9
464.048	7.92
464.485	7.92
464.922	7.93
465.359	7.92
465.796	7.95
466.233	7.96
466.67	7.97
467.106	7.97
467.543	7.97
467.98	7.96
468.416	7.94
468.853	7.95
469.29	7.96
469.726	7.97
470.162	7.97
470.599	7.96
471.035	7.96
471.471	7.96
471.907	7.97
472.344	7.98
472.78	7.99
473.216	8
473.652	7.99
474.088	7.99
474.523	7.99
474.959	8
475.395	7.99
475.831	8
476.266	8.01
476.702	8
477.138	8
477.573	8.02
478.008	8.04
478.444	8.04
478.879	8.05
479.314	8.05
479.75	8.06
480.185	8.06
480.62	8.05
481.055	8.06
481.49	8.06
481.925	8.07
482.36	8.07
482.795	8.08
483.229	8.08
483.664	8.11
484.099	8.12
484.534	8.14
484.968	8.17
485.403	8.2
485.837	8.24
486.271	8.28
486.706	8.31
487.14	8.35
487.574	8.4
488.009	8.45
488.443	8.49
488.877	8.55
489.311	8.61
489.745	8.67
490.179	8.74
490.613	8.81
491.046	8.87
491.48	8.94
491.914	9.02
492.348	9.1
492.781	9.19
493.215	9.28
493.648	9.38
494.082	9.46
494.515	9.56
494.948	9.67
495.382	9.77
495.815	9.89
496.248	10.02
496.681	10.15
497.114	10.28
497.547	10.4
497.98	10.54
498.413	10.7
498.846	10.86
499.279	11.01
499.711	11.17
500.144	11.34
500.577	11.52
501.009	11.69
501.442	11.88
501.874	12.08
502.306	12.28
502.739	12.49
503.171	12.69
503.603	12.92
504.036	13.16
504.468	13.4
504.9	13.63
505.332	13.87
505.764	14.14
506.196	14.4
506.627	14.67
507.059	14.96
507.491	15.25
507.923	15.55
508.354	15.85
508.786	16.16
509.217	16.47
509.649	16.81
510.08	17.13
510.512	17.47
510.943	17.82
511.374	18.17
511.805	18.53
512.237	18.88
512.668	19.25
513.099	19.62
513.53	19.99
513.961	20.36
514.391	20.72
514.822	21.11
515.253	21.48
515.684	21.84
516.114	22.22
516.545	22.59
516.975	22.96
517.406	23.32
517.836	23.69
518.267	24.07
518.697	24.44
519.127	24.79
519.558	25.14
519.988	25.48
520.418	25.82
520.848	26.15
521.278	26.48
521.708	27.01
522.138	27.32
522.567	27.64
522.997	27.92
523.427	28.2
523.857	28.5
524.286	28.77
524.716	29.05
525.145	29.31
525.575	29.57
526.004	29.81
526.433	29.84
526.863	30.08
527.292	30.29
527.721	30.5
528.15	30.7
528.579	30.89
529.008	31.08
529.437	31.25
529.866	31.41
530.295	31.58
530.724	31.73
531.152	31.89
531.581	32.04
532.01	32.18
532.438	32.32
532.867	32.45
533.295	32.57
533.723	32.68
534.152	32.8
534.58	32.92
535.008	32.98
535.436	33.09
535.865	33.16
536.293	33.23
536.721	33.31
537.149	33.39
537.576	33.46
538.004	33.56
538.432	33.62
538.86	33.68
539.287	33.73
539.715	33.82
540.143	33.89
540.57	33.95
540.998	33.99
541.425	34.04
541.852	34.08
542.28	34.13
542.707	34.15
543.134	34.21
543.561	34.25
543.988	34.3
544.415	34.31
544.842	34.33
545.269	34.37
545.696	34.42
546.123	34.45
546.549	34.48
546.976	34.5
547.403	34.54
547.829	34.54
548.256	34.58
548.682	34.57
549.108	34.6
549.535	34.62
549.961	34.62
550.387	34.65
550.813	34.64
551.24	34.65
551.666	34.64
552.092	34.62
552.518	34.61
552.943	34.58
553.369	34.57
553.795	34.55
554.221	34.52
554.646	34.49
555.072	34.45
555.498	34.41
555.923	34.37
556.349	34.34
556.774	34.29
557.199	34.25
557.625	34.19
558.05	34.14
558.475	34.08
558.9	34.01
559.325	33.95
559.75	33.86
560.175	33.77
560.6	33.67
561.025	33.57
561.449	33.46
561.874	33.33
562.299	33.23
562.723	33.11
563.148	32.97
563.572	32.83
563.997	32.69
564.421	32.54
564.846	32.4
565.27	32.27
565.694	32.14
566.118	31.99
566.542	31.87
566.966	31.73
567.39	31.6
567.814	31.48
568.238	31.34
568.662	31.21
569.086	31.08
569.509	30.95
569.933	30.81
570.357	30.68
570.78	30.55
571.204	30.41
571.627	30.28
572.05	30.14
572.474	30.01
572.897	29.88
573.32	29.75
573.743	29.61
574.166	29.48
574.589	29.36
575.012	29.22
575.435	29.1
575.858	28.96
576.281	28.84
576.704	28.71
577.126	28.58
577.549	28.46
577.972	28.33
578.394	28.23
578.817	28.14
579.239	28.02
579.661	27.93
580.084	27.83
580.506	27.75
580.928	27.65
581.35	27.56
581.772	27.47
582.194	27.39
582.616	27.31
583.038	27.21
583.46	27.11
583.882	27.02
584.303	26.93
584.725	26.85
585.147	26.77
585.568	26.69
585.99	26.61
586.411	26.52
586.833	26.44
587.254	26.37
587.675	26.31
588.096	26.24
588.518	26.18
588.939	26.12
589.36	26.06
589.781	25.99
590.202	25.94
590.623	25.87
591.043	25.83
591.464	25.79
591.885	25.73
592.305	25.68
592.726	25.65
593.147	25.59
593.567	25.55
593.987	25.51
594.408	25.46
594.828	25.4
595.248	25.37
595.669	25.35
596.089	25.3
596.509	25.27
596.929	25.23
597.349	25.19
597.769	25.15
598.189	25.11
598.608	25.07
599.028	25.05
599.448	25
599.867	24.96
600.287	24.91
600.706	24.86
601.126	24.81
601.545	24.76
601.965	24.71
602.384	24.65
602.803	24.57
603.222	24.51
603.641	24.43
604.061	24.38
604.48	24.29
604.898	24.21
605.317	24.14
605.736	24.07
606.155	23.99
606.574	23.89
606.992	23.8
607.411	23.72
607.829	23.6
608.248	23.51
608.666	23.41
609.085	23.34
609.503	23.24
609.921	23.16
610.339	23.06
610.758	22.96
611.176	22.85
611.594	22.78
612.012	22.67
612.43	22.6
612.847	22.5
613.265	22.4
613.683	22.29
614.101	22.2
614.518	22.09
614.936	22
615.353	21.89
615.771	21.82
616.188	21.73
616.606	21.67
617.023	21.59
617.44	21.51
617.857	21.45
618.274	21.38
618.691	21.31
619.108	21.24
619.525	21.18
619.942	21.14
620.359	21.08
620.776	21.02
621.192	20.96
621.609	20.94
622.026	20.9
622.442	20.86
622.859	20.84
623.275	20.81
623.691	20.8
624.108	20.79
624.524	20.77
624.94	20.76
625.356	20.76
625.772	20.75
626.188	20.72
626.604	20.69
627.02	20.68
627.436	20.66
627.852	20.65
628.268	20.63
628.683	20.6
629.099	20.59
629.514	20.56
629.93	20.53
630.345	20.5
630.761	20.45
631.176	20.42
631.591	20.36
632.007	20.31
632.422	20.25
632.837	20.18
633.252	20.1
633.667	20.02
634.082	19.92
634.497	19.82
634.911	19.7
635.326	19.59
635.741	19.46
636.155	19.33
636.57	19.2
636.984	19.05
637.399	18.88
637.813	18.72
638.228	18.55
638.642	18.36
639.056	18.17
639.47	18.01
639.884	17.82
640.298	17.63
640.712	17.45
641.126	17.25
641.54	17.05
641.954	16.85
642.368	16.66
642.781	16.47
643.195	16.29
643.609	16.11
644.022	15.91
644.436	15.74
644.849	15.57
645.262	15.41
645.676	15.25
646.089	15.1
646.502	14.96
646.915	14.83
647.328	14.72
647.741	14.6
648.154	14.5
648.567	14.41
648.98	14.32
649.393	14.24
649.805	14.16
650.218	14.09
650.631	14.04
651.043	13.96
651.456	13.9
651.868	13.82
652.28	13.75
652.693	13.67
653.105	13.59
653.517	13.52
653.929	13.43
654.341	13.33
654.753	13.22
655.165	13.11
655.577	13
655.989	12.87
656.401	12.74
656.813	12.62
657.224	12.48
657.636	12.32
658.047	12.18
658.459	12.02
658.87	11.86
659.282	11.68
659.693	11.53
660.104	11.35
660.515	11.19
660.926	11.02
661.338	10.84
661.749	10.69
662.159	10.54
662.57	10.39
662.981	10.26
663.392	10.11
663.803	9.99
664.213	9.85
664.624	9.73
665.035	9.61
665.445	9.49
665.855	9.39
666.266	9.29
666.676	9.19
667.086	9.08
667.497	8.98
667.907	8.91
668.317	8.84
668.727	8.78
669.137	8.72
669.547	8.67
669.956	8.62
670.366	8.57
670.776	8.52
671.186	8.49
671.595	8.46
672.005	8.44
672.414	8.42
672.824	8.4
673.233	8.38
673.642	8.38
674.052	8.38
674.461	8.39
674.87	8.39
675.279	8.43
675.688	8.44
676.097	8.48
676.506	8.52
676.915	8.56
677.323	8.61
677.732	8.67
678.141	8.74
678.549	8.81
678.958	8.9
679.366	9.02
679.775	9.13
680.183	9.27
680.592	9.43
681	9.61
681.408	9.8
681.816	10.02
682.224	10.27
682.632	10.53
683.04	10.83
683.448	11.15
683.856	11.49
684.264	11.87
684.671	12.28
685.079	12.73
685.487	13.21
685.894	13.72
686.302	14.26
686.709	14.83
687.116	15.42
687.524	16.05
687.931	16.71
688.338	17.39
688.745	18.08
689.152	18.78
689.559	19.51
689.966	20.24
690.373	20.98
690.78	21.74
691.187	22.49
691.593	23.27
692	24.03
692.407	24.76
692.813	25.52
693.22	26.26
693.626	27
694.032	27.73
694.439	28.44
694.845	29.15
695.251	29.86
695.657	30.52
696.063	31.17
696.469	31.81
696.875	32.46
697.281	33.09
697.687	33.69
698.093	34.29
698.498	34.87
698.904	35.45
699.31	35.99
699.715	36.5
700.12	37.02
700.526	37.53
700.931	38.02
701.337	38.47
701.742	38.9
702.147	39.33
702.552	39.76
702.957	40.14
703.362	40.51
703.767	40.9
704.172	41.29
704.577	41.64
704.981	42
705.386	42.34
705.791	42.69
706.195	43.04
706.6	43.37
707.004	43.68
707.408	44.01
707.813	44.33
708.217	44.63
708.621	44.9
709.025	45.17
709.43	45.45
709.834	45.73
710.237	45.97
710.641	46.22
711.045	46.46
711.449	46.7
711.853	46.95
712.256	47.16
712.66	47.37
713.064	47.61
713.467	47.84
713.87	48.03
714.274	48.22
714.677	48.44
715.08	48.6
715.484	48.8
715.887	49.03
716.29	49.21
716.693	49.41
717.096	49.58
717.499	49.72
717.901	49.9
718.304	50.07
718.707	50.25
719.109	50.37
719.512	50.54
719.915	50.67
720.317	50.77
720.719	50.86
721.122	50.98
721.524	51.09
721.926	51.23
722.328	51.36
722.731	51.47
723.133	51.57
723.535	51.69
723.937	51.81
724.338	51.92
724.74	52.02
725.142	52.22
725.544	52.32
725.945	52.45
726.347	52.5
726.748	52.57
727.15	52.63
727.551	52.73
727.952	52.81
728.354	52.88
728.755	52.93
729.156	52.98
729.557	52.92
729.958	52.95
730.359	52.98
730.76	53.07
731.161	53.11
731.562	53.18
731.962	53.18
732.363	53.25
732.763	53.28
733.164	53.34
733.564	53.42
733.965	53.47
734.365	53.51
734.766	53.54
735.166	53.58
735.566	53.63
735.966	53.64
736.366	53.7
736.766	53.7
737.166	53.75
737.566	53.77
737.966	53.77
738.365	53.83
738.765	53.89
739.165	53.92
739.564	53.95
739.964	53.96
740.363	53.98
740.763	53.99
741.162	54.02
741.561	54
741.96	54
742.36	54.02
742.759	54.03
743.158	54.02
743.557	54.03
743.955	54.06
744.354	54.07
744.753	54.1
745.152	54.14
745.55	54.17
745.949	54.22
746.348	54.24
746.746	54.24
747.144	54.26
747.543	54.26
747.941	54.26
748.339	54.24
748.737	54.23
749.136	54.21
749.534	54.17
749.932	54.17
750.33	54.15
750.727	54.17
751.125	54.19
751.523	54.19
751.921	54.19
752.318	54.23
752.716	54.23
753.113	54.25
753.511	54.27
753.908	54.31
754.305	54.33
754.703	54.34
755.1	54.34
755.497	54.35
755.894	54.35
756.291	54.37
756.688	54.35
757.085	54.39
757.482	54.43
757.878	54.43
758.275	54.42
758.672	54.39
759.068	54.41
759.465	54.4
759.861	54.4
760.258	54.41
760.654	54.42
761.05	54.45
761.447	54.45
761.843	54.41
762.239	54.42
762.635	54.43
763.031	54.47
763.427	54.43
763.822	54.45
764.218	54.48
764.614	54.48
765.01	54.46
765.405	54.45
765.801	54.41
766.196	54.4
766.592	54.37
766.987	54.35
767.382	54.33
767.778	54.32
768.173	54.31
768.568	54.28
768.963	54.28
769.358	54.28
769.753	54.28
770.148	54.28
770.542	54.29
770.937	54.34
771.332	54.35
771.726	54.38
772.121	54.39
772.515	54.38
772.91	54.36
773.304	54.35
773.699	54.36
774.093	54.33
774.487	54.36
774.881	54.38
775.275	54.34
775.669	54.33
776.063	54.3
776.457	54.33
776.851	54.3
777.245	54.29
777.638	54.3
778.032	54.3
778.425	54.33
778.819	54.32
779.212	54.32
779.606	54.33
779.999	54.32
780.392	54.33
780.786	54.31
781.179	54.33
781.572	54.38
781.965	54.39
782.358	54.41
782.751	54.41
783.143	54.42
783.536	54.39
783.929	54.38
784.322	54.4
784.714	54.43
785.107	54.45
785.499	54.44
785.891	54.42
786.284	54.43
786.676	54.42
787.068	54.4
787.46	54.4
787.852	54.43
788.245	54.44
788.636	54.46
789.028	54.46
789.42	54.46
789.812	54.48
790.204	54.48
790.595	54.49
790.987	54.48
791.378	54.5
791.77	54.51
792.161	54.48
792.553	54.49
792.944	54.45
793.335	54.43
793.726	54.42
794.117	54.4
794.508	54.38
794.899	54.35
795.29	54.37
795.681	54.35
796.072	54.33
796.463	54.36
796.853	54.36
797.244	54.39
797.634	54.4
798.025	54.42
798.415	54.42
798.806	54.4
799.196	54.42
799.586	54.39
799.976	54.41
800.366	54.43
800.756	54.43
801.146	54.43
801.536	54.42
801.926	54.4
802.316	54.38
802.706	54.41
803.095	54.44
803.485	54.43
803.874	54.42
804.264	54.43
804.653	54.41
805.043	54.43
805.432	54.42
805.821	54.44
806.21	54.45
806.599	54.45
806.988	54.46
807.377	54.46
807.766	54.44
808.155	54.45
808.544	54.45
808.933	54.45
809.321	54.41
809.71	54.41
810.098	54.41
810.487	54.4
810.875	54.4
811.264	54.39
811.652	54.41
812.04	54.42
812.428	54.45
812.816	54.45
813.204	54.43
813.592	54.42
813.98	54.42
814.368	54.41
814.756	54.44
815.144	54.43
815.531	54.44
815.919	54.42
816.306	54.41
816.694	54.4
817.081	54.39
817.469	54.42
817.856	54.42
818.243	54.39
818.63	54.37
819.017	54.34
819.404	54.32
819.791	54.32
820.178	54.34
820.565	54.35
820.952	54.36
821.339	54.36
821.725	54.35
822.112	54.38
822.498	54.41
822.885	54.45
823.271	54.45
823.657	54.45
824.044	54.46
824.43	54.46
824.816	54.47
825.202	54.46
825.588	54.47
825.974	54.46
826.36	54.45
826.746	54.44
827.132	54.44
827.517	54.46
827.903	54.53
828.289	54.55
828.674	54.57
829.06	54.55
829.445	54.57
829.83	54.58
830.216	54.57
830.601	54.57
830.986	54.56
831.371	54.56
831.756	54.58
832.141	54.54
832.526	54.54
832.911	54.51
833.295	54.52
833.68	54.54
834.065	54.56
834.449	54.56
834.834	54.56
835.218	54.58
835.603	54.59
835.987	54.57
836.371	54.57
836.755	54.54
837.139	54.53
837.524	54.53
837.908	54.53
838.291	54.54
838.675	54.55
839.059	54.55
839.443	54.53
839.827	54.52
840.21	54.53
840.594	54.54
840.977	54.56
841.361	54.58
841.744	54.53
842.127	54.5
842.511	54.48
842.894	54.48
843.277	54.48
843.66	54.48
844.043	54.49
844.426	54.48
844.809	54.47
845.191	54.51
845.574	54.51
845.957	54.56
846.339	54.58
846.722	54.6
847.104	54.62
847.487	54.62
847.869	54.64
848.252	54.65
848.634	54.66
849.016	54.67
849.398	54.64
849.78	54.66
850.162	54.66
850.544	54.66
850.926	54.65
851.307	54.67
851.689	54.66
852.071	54.66
852.452	54.66
852.834	54.65
853.215	54.63
853.597	54.67
853.978	54.65
854.359	54.63
854.741	54.62
855.122	54.62
855.503	54.59
855.884	54.6
856.265	54.61
856.646	54.6
857.026	54.61
857.407	54.64
857.788	54.63
858.169	54.63
858.549	54.65
858.93	54.67
859.31	54.67
859.69	54.69
860.071	54.73
860.451	54.74
860.831	54.74
861.211	54.73
861.591	54.73
861.971	54.72
862.351	54.74
862.731	54.75
863.111	54.74
863.491	54.73
863.87	54.69
864.25	54.67
864.629	54.66
865.009	54.67
865.388	54.67
865.768	54.68
866.147	54.67
866.526	54.64
866.905	54.63
867.284	54.65
867.663	54.66
868.042	54.68
868.421	54.69
868.8	54.7
869.179	54.71
869.558	54.7
869.936	54.71
870.315	54.74
870.693	54.78
871.072	54.77
871.45	54.78
871.828	54.82
872.207	54.84
872.585	54.82
872.963	54.81
873.341	54.81
873.719	54.84
874.097	54.83
874.475	54.84
874.853	54.83
875.23	54.87
875.608	54.86
875.986	54.86
876.363	54.85
876.741	54.86
877.118	54.88
877.495	54.89
877.873	54.88
878.25	54.89
878.627	54.88
879.004	54.89
879.381	54.88
879.758	54.88
880.135	54.88
880.512	54.85
880.889	54.86
881.265	54.84
881.642	54.84
882.019	54.85
882.395	54.81
882.772	54.8
883.148	54.8
883.524	54.79
883.901	54.8
884.277	54.76
884.653	54.77
885.029	54.75
885.405	54.76
885.781	54.73
886.157	54.72
886.532	54.74
886.908	54.7
887.284	54.68
887.659	54.65
888.035	54.62
888.411	54.62
888.786	54.64
889.161	54.66
889.537	54.66
889.912	54.67
890.287	54.68
890.662	54.67
891.037	54.69
891.412	54.68
891.787	54.68
892.162	54.7
892.536	54.69
892.911	54.66
893.286	54.66
893.66	54.66
894.035	54.65
894.409	54.64
894.784	54.64
895.158	54.65
895.532	54.68
895.906	54.7
896.281	54.71
896.655	54.71
897.029	54.74
897.402	54.73
897.776	54.75
898.15	54.77
898.524	54.8
898.898	54.81
899.271	54.83
899.645	54.84
900.018	54.84
900.392	54.85
900.765	54.89
901.138	54.88
901.511	54.9
901.884	54.92
902.258	54.92
902.631	54.92
903.003	54.96
903.376	54.92
903.749	54.92
904.122	54.91
904.495	54.92
904.867	54.92
905.24	54.92
905.612	54.92
905.985	54.87
906.357	54.85
906.729	54.85
907.102	54.84
907.474	54.88
907.846	54.9
908.218	54.9
908.59	54.91
908.962	54.91
909.334	54.94
909.705	54.95
910.077	54.97
910.449	54.97
910.82	54.96
911.192	54.94
911.563	54.9
911.935	54.87
912.306	54.89
912.677	54.89
913.048	54.9
913.419	54.86
913.79	54.86
914.161	54.91
914.532	54.91
914.903	54.91
915.274	54.95
915.645	55
916.015	55.01
916.386	54.99
916.756	54.98
917.127	54.97
917.497	54.98
917.868	54.99
918.238	54.91
918.608	54.94
918.978	54.96
919.348	54.97
919.718	54.93
920.088	54.93
920.458	54.97
920.828	54.92
921.198	54.89
921.567	54.89
921.937	54.89
922.306	54.91
922.676	54.89
923.045	54.9
923.415	54.86
923.784	54.88
924.153	54.89
924.522	54.86
924.891	54.91
925.26	54.91
925.629	54.93
925.998	54.91
926.367	54.89
926.736	54.92
927.104	54.9
927.473	54.88
927.842	54.84
928.21	54.84
928.578	54.83
928.947	54.82
929.315	54.81
929.683	54.78
930.051	54.77
930.42	54.77
930.788	54.69
931.156	54.67
931.523	54.68
931.891	54.73
932.259	54.73
932.627	54.71
932.994	54.7
933.362	54.69
933.729	54.71
934.097	54.7
934.464	54.7
934.831	54.71
935.199	54.73
935.566	54.77
935.933	54.7
936.3	54.66
936.667	54.69
937.034	54.7
937.401	54.77
937.767	54.76
938.134	54.77
938.501	54.8
938.867	54.83
939.234	54.81
939.6	54.75
939.967	54.81
940.333	54.82
940.699	54.84
941.065	54.76
941.431	54.72
941.798	54.64
942.163	54.59
942.529	54.61
942.895	54.61
943.261	54.56
943.627	54.53
943.992	54.49
944.358	54.46
944.723	54.42
945.089	54.34
945.454	54.35
945.82	54.4
946.185	54.42
946.55	54.29
946.915	54.29
947.28	54.31
947.645	54.34
948.01	54.33
948.375	54.3
948.74	54.28
949.104	54.32
949.469	54.26
949.834	54.22
950.198	54.16
950.562	54.13
950.927	54.1
951.291	53.97
951.655	53.9
952.02	53.87
952.384	53.82
952.748	53.77
953.112	53.8
953.476	53.75
953.839	53.69
954.203	53.69
954.567	53.7
954.931	53.63
955.294	53.63
955.658	53.65
956.021	53.64
956.385	53.61
956.748	53.58
957.111	53.51
957.474	53.54
957.837	53.53
958.2	53.51
958.563	53.5
958.926	53.52
959.289	53.59
959.652	53.56
960.015	53.61
960.377	53.61
960.74	53.7
961.102	53.7
961.465	53.74
961.827	53.79
962.189	53.85
962.552	53.88
962.914	53.89
963.276	53.87
963.638	53.89
964	53.82
964.362	53.85
964.724	53.81
965.085	53.8
965.447	53.71
965.809	53.73
966.17	53.7
966.532	53.69
966.893	53.67
967.255	53.65
967.616	53.61
967.977	53.64
968.338	53.58
968.699	53.59
969.061	53.6
969.421	53.66
969.782	53.63
970.143	53.64
970.504	53.65
970.865	53.67
971.225	53.64
971.586	53.62
971.946	53.6
972.307	53.64
972.667	53.6
973.027	53.6
973.388	53.57
973.748	53.57
974.108	53.6
974.468	53.54
974.828	53.62
975.188	53.67
975.548	53.69
975.907	53.72
976.267	53.75
976.627	53.77
976.986	53.76
977.346	53.71
977.705	53.67
978.064	53.65
978.424	53.73
978.783	53.64
979.142	53.57
979.501	53.62
979.86	53.65
980.219	53.65
980.578	53.72
980.937	53.74
981.296	53.8
981.654	53.81
982.013	53.73
982.371	53.7
982.73	53.72
983.088	53.77
983.447	53.73
983.805	53.65
984.163	53.65
984.521	53.52
984.879	53.46
985.237	53.42
985.595	53.46
985.953	53.5
986.311	53.46
986.669	53.42
987.026	53.42
987.384	53.42
987.741	53.43
988.099	53.39
988.456	53.42
988.814	53.43
989.171	53.49
989.528	53.45
989.885	53.4
990.242	53.41
990.599	53.49
990.956	53.54
991.313	53.54
991.67	53.55
992.027	53.63
992.383	53.67
992.74	53.78
993.096	53.79
993.453	53.77
993.809	53.76
994.165	53.85
994.522	53.86
994.878	53.86
995.234	53.86
995.59	53.91
995.946	53.94
996.302	53.95
996.658	53.95
997.013	53.94
997.369	53.91
997.725	53.96
998.08	53.96
998.436	53.92
998.791	53.95
999.147	54.01
999.502	53.99
999.857	53.96
1000.212	53.98
1000.567	53.97
1000.922	53.95
1001.277	54.1
1001.632	54.1
1001.987	54.07
1002.342	54
1002.696	53.98
1003.051	54.09
1003.406	54.24
1003.76	54.21
1004.114	54.21
1004.469	54.3
1004.823	54.45
1005.177	54.32
1005.531	54.35
1005.885	54.37
1006.239	54.47
1006.593	54.46
1006.947	54.39
1007.301	54.12
1007.655	54.08
1008.008	54.08
1008.362	54.02
1008.715	53.9
1009.069	53.96
1009.422	54.07
1009.776	54.05
1010.129	54.02
1010.482	53.98
1010.835	53.99
1011.188	54.17
1011.541	54.34
1011.894	54.36
1012.247	54.37
1012.6	54.49
1012.952	54.59
1013.305	54.59
1013.657	54.7
1014.01	54.72
1014.362	54.77
1014.715	54.74
1015.067	54.76
1015.419	54.77
1015.771	54.63
1016.123	54.66
1016.475	54.7
1016.827	54.73
1017.179	54.81
1017.531	54.84
1017.883	54.73
1018.234	54.9
1018.586	54.77
1018.938	55.03
1019.289	54.86
1019.64	55.03
1019.992	55.03
1020.343	54.86
1020.694	54.74
1021.045	54.76
1021.396	54.65
1021.747	54.97
1022.098	55.08
1022.449	55.05
1022.8	55.01
1023.151	55.2
1023.501	55.31
1023.852	55.38
1024.202	55.49
1024.553	55.63
1024.903	55.5
1025.253	55.69
1025.604	55.59
1025.954	55.23
1026.304	55.52
1026.654	55.33
1027.004	55.22
1027.354	55.06
1027.703	54.78
1028.053	54.75
1028.403	54.84
1028.753	54.87
1029.102	54.82
1029.452	54.84
1029.801	55.1
1030.15	55.07
1030.499	54.97
897.758	1199.84
901.051	1207.56
904.343	1202.98
907.636	1227.96
910.928	1195.44
914.22	1194.41
917.511	1176.24
920.803	1123.37
924.094	1117.83
927.384	1090.29
930.675	1045.75
933.965	1040.57
937.255	978.42
940.544	940.3
943.834	897.79
947.123	888.92
950.411	838.42
953.7	823.4
956.988	782.44
960.276	752.54
963.563	740.51
966.851	717.31
970.138	710.48
973.424	690.57
976.711	693.5
979.997	654.85
983.283	652.46
986.568	638.77
989.853	619.2
993.138	606.24
996.423	585.9
999.708	567.84
1002.992	560.59
1006.275	537.05
1009.559	531.77
1012.842	513.62
1016.125	502.32
1019.408	492.9
1022.69	485.53
1025.972	476.18
1029.254	465.82
1032.536	456.41
1035.817	447.64
1039.098	443.13
1042.379	433.37
1045.659	429.1
1048.939	418.46
1052.219	409.41
1055.498	403.13
1058.778	394.11
1062.057	386.51
1065.335	382.72
1068.614	378.14
1071.892	374.67
1075.17	362.39
1078.447	356.61
1081.724	352.99
1085.001	350.51
1088.278	344.09
1091.554	337.35
1094.83	337.76
1098.106	334.92
1101.382	332.77
1104.657	330.48
1107.932	324.17
1111.206	326.78
1114.481	317.96
1117.755	316.02
1121.029	313.24
1124.302	313.07
1127.575	306.82
1130.848	303.33
1134.121	299.42
1137.393	297.42
1140.665	291.31
1143.937	290.89
1147.208	289.01
1150.48	288.39
1153.75	284.82
1157.021	281.12
1160.291	280.99
1163.561	279.29
1166.831	278.91
1170.101	276.6
1173.37	276.06
1176.639	277.42
1179.907	273.77
1183.176	269.74
1186.444	270.55
1189.711	269.75
1192.979	269.12
1196.246	267.21
1199.513	267.67
1202.78	266.15
1206.046	266.39
1209.312	264.16
1212.578	263.72
1215.843	267.05
1219.108	265.45
1222.373	270.05
1225.638	271.96
1228.902	275.45
1232.166	276
1235.43	278.56
1238.693	281.89
1241.956	283.85
1245.219	287.55
1248.482	288.13
1251.744	287.68
1255.006	287.82
1258.268	281.79
1261.529	279.3
1264.79	277.59
1268.051	276.24
1271.312	272.63
1274.572	269.77
1277.832	266.9
1281.092	262.35
1284.351	260.28
1287.61	260.1
1290.869	257.37
1294.128	255.32
1297.386	254.71
1300.644	251.93
1303.902	252.75
1307.159	251.62
1310.416	251.77
1313.673	251.2
1316.93	254.35
1320.186	253.68
1323.442	254.77
1326.697	259.09
1329.953	259.65
1333.208	260.64
1336.463	263.45
1339.717	263.51
1342.972	266.68
1346.226	268.72
1349.479	269.93
1352.733	270.78
1355.986	272.28
1359.238	271.5
1362.491	272.69
1365.743	274.81
1368.995	275.5
1372.247	273.93
1375.498	273.91
1378.749	275.93
1382	272.85
1385.251	273.53
1388.501	270.86
1391.751	271.81
1395	270.47
1398.25	268.3
1401.499	266.16
1404.748	265.17
1407.996	264.32
1411.244	262.89
1414.492	261
1417.74	257.35
1420.987	253.24
1424.234	253.62
1427.481	250.25
1430.728	249.72
1433.974	247.46
1437.22	245.03
1440.465	244.24
1443.711	241.44
1446.956	239.54
1450.201	237.2
1453.445	235.59
1456.689	234.76
1459.933	230.53
1463.177	228.88
1466.42	225.03
1469.663	222.25
1472.906	221.37
1476.148	216.06
1479.391	213.87
1482.633	212.49
1485.874	208.9
1489.115	207.34
1492.356	205.23
1495.597	205.26
1498.838	202.29
1502.078	201.88
1505.318	201.06
1508.557	201.19
1511.797	201.29
1515.036	200.13
1518.274	199.12
1521.513	197.89
1524.751	197.98
1527.989	197.44
1531.227	196.24
1534.464	196.78
1537.701	195.34
1540.938	195.3
1544.174	192.65
1547.41	192.77
1550.646	191.37
1553.882	191.65
1557.117	189.26
1560.352	188.58
1563.587	188.2
1566.821	187.14
1570.055	185.31
1573.289	184.37
1576.523	183.95
1579.756	182.65
1582.989	181.47
1586.222	181.19
1589.454	180.82
1592.686	181.92
1595.918	180.79
1599.15	180.06
1602.381	180.68
1605.612	180.75
1608.843	181.09
1612.073	180.79
1615.303	182.33
1618.533	182.21
1621.762	182.33
1624.992	182.11
1628.221	181.96
1631.449	181.78
1634.678	181.95
1637.906	182.53
1641.134	182.71
1644.361	182.43
1647.588	182.64
1650.815	181.75
1654.042	181.22
1657.269	182.67
1660.495	182.38
1663.72	181.91
1666.946	182.74
1670.171	182.96
1673.396	182.46
1676.621	182.39
1679.845	183.09
1683.069	183.02
1686.293	184.29
1689.517	185.43
1692.74	184.81
1695.963	185.6
1699.185	187.38
1702.408	187.74
1705.63	188.23
1708.852	188.72
1712.073	189.03
1715.294	189.1
1718.515	190.54
1721.736	190.23
1724.956	190.87
1728.176	191.08
1731.396	192.04
1734.616	191.22
1737.835	191.6
1741.054	190.41
1744.272	191.11
1747.491	192.75
1750.709	192.62
1753.927	192.47
1757.144	192.15
1760.361	192.12
1763.578	192.61
1766.795	192.34
1770.011	193.14
1773.227	193.33
1776.443	195.71
1779.658	196.02
1782.874	195.17
1786.089	196.27
1789.303	196.51
1792.518	198.42
1795.732	198.6
1798.945	199.71
1802.159	200.28
1805.372	201.33
1808.585	204.37
1811.797	204.9
1815.01	205.5
1818.222	207.33
1821.434	208.68
1824.645	209.52
1827.856	212.63
1831.067	213.95
1834.278	213.75
1837.488	215.44
1840.698	216.62
1843.908	214.53
1847.117	215.04
1850.326	216.02
1853.535	215.34
1856.744	218.27
1859.952	217.29
1863.16	216.04
1866.368	214.85
1869.575	216.49
1872.782	212.5
1875.989	211.78
1879.196	210.26
1882.402	208.83
1885.608	209.06
1888.814	209.26
1892.019	207.91
1895.224	207.7
1898.429	206.59
1901.634	206.97
1904.838	207.69
1908.042	209.38
1911.246	209.71
1914.449	211.39
1917.652	211.82
1920.855	211.65
1924.058	211.83
1927.26	210.71
1930.462	211.52
1933.664	213.49
1936.865	211.86
1940.066	211.23
1943.267	210.98
1946.467	209.78
1949.668	211.32
1952.868	213.45
1956.067	213.57
1959.267	213.6
1962.466	214.53
1965.665	213.14
1968.863	213.58
1972.061	216.91
1975.259	218.92
1978.457	220.02
1981.654	222.86
1984.852	223.09
1988.048	222.57
1991.245	224.5
1994.441	226.63
1997.637	228.06
2000.833	233.76
2004.028	236.67
2007.223	238.15
2010.418	240.04
2013.613	243.88
2016.807	247.07
2020.001	248.68
2023.194	252.68
2026.388	258.61
2029.581	264.74
2032.774	267.55
2035.966	271.54
2039.158	271.95
2042.35	278.15
2045.542	279.02
2048.733	284.3
2051.924	287.62
2055.115	293.39
2058.306	293.44
2061.496	296.06
2064.686	296.28
2067.875	300.07
2071.065	302.59
2074.254	301.3
2077.442	303.42
2080.631	305.96
2083.819	308.4
2087.007	309.13
2090.195	311.92
2093.382	315.03
2096.569	313.26
2099.756	317.6
2102.942	319.92
2106.128	322.24
2109.314	329.82
2112.5	329.37
2115.685	335.83
2118.87	335.69
2122.055	343.9
2125.239	345.88
2128.424	350.97
2131.608	354.34
2134.791	359
2137.974	360.4
2141.157	360.79
2144.34	361.47
2147.523	366.54
2150.705	365.06
2153.887	369.78
2157.068	368.86
2160.25	366.57
2163.431	367.45
2166.611	371.34
2169.792	378.53
2172.972	382.05
2176.152	384.52
2179.331	389.86
2182.511	396.67
2185.69	400.15
2188.868	406.92
2192.047	407.85
2195.225	420.08
2198.403	428.17
2201.58	435.75
2204.758	442.9
2207.935	453.31
2211.111	461.21
2214.288	466.61
2217.464	467.62
2220.64	475.81
2223.815	482
2226.991	500.8
2230.166	499.87
2233.34	511.44
2236.515	519.65
2239.689	520.11
2242.863	521.68
2246.036	535.89
2249.209	532.89
2252.382	541.44
2255.555	558.54
2258.727	559.89
2261.9	563.67
2265.071	570.35
2268.243	579.99
2271.414	585.24
2274.585	598.45
2277.756	604.46
2280.926	608.12
2284.096	623.13
2287.266	635.38
2290.436	637.83
2293.605	654.72
2296.774	673.28
2299.942	692.43
2303.111	695.89
2306.279	712.57
2309.447	721.37
2312.614	739.75
2315.781	761.85
2318.948	791.24
2322.115	782.35
2325.281	824.12
2328.447	808.11
2331.613	840.26
2334.779	833.76
2337.944	868.33
2341.109	874.61
2344.274	900.58
2347.438	930.68
2350.602	930.58
2353.766	963.79
2356.929	976.99
2360.092	969.67
2363.255	1036.7
2366.418	1035.85
2369.58	1058.36
2372.742	1121.33
2375.904	1153.05
2379.066	1146.19
2382.227	1124.91
2385.388	1222.66
2388.548	1217.12
2391.709	1232.14
2394.869	1373.64
2398.029	1315.02
2401.188	1350.54
2404.347	1337.63
2407.506	1317.01
2410.665	1354.68
2413.823	1435.99
2416.981	1523.43
2420.139	1465.56
2423.296	1457.98
2426.453	1520.47
2429.61	1466.92
2432.767	1532.44
2435.923	1516.62
2439.079	1662
2442.235	1678.12
2445.391	1663.34
2448.546	1650.26
2451.701	1599.79
2454.855	1601.44
2458.009	1695.2
2461.163	1766.11
2464.317	1825.68
2467.471	1875.55
2470.624	1876.61
2473.777	1824.21
2476.929	1786.53
2480.082	1735.14
2483.234	1715.41
2486.385	1802.59
2489.537	1813.02
2492.688	1874.91
2495.839	1820.3
2498.989	1783.49
2502.14	1792.53
2505.29	1808.92
2508.439	1842.77
2511.589	1835.09
2514.738	1996.35
2517.887	1954.62
2521.035	2062.4
2524.183	2079.14
2527.331	2098.31
2530.479	2093.26
2533.627	2103.05
