Data from C_1_DEC_OH_4N_Splice17_12-43-18-918.txt Node
Date: Sat Mar 07 12:43:18 EST 2020
User: sa697716
Spectrometer: NQ5500242
Trigger mode: 0
Integration Time (sec): 1.450000E-1
Scans to average: 20
Nonlinearity correction enabled: false
Boxcar width: 5
Storing dark spectrum: false
XAxis mode: Wavelengths
Number of Pixels in Spectrum: 512
>>>>>Begin Spectral Data<<<<<
187.83	50.89
188.298	76.71
188.766	37.32
189.233	52.87
189.701	47.8
190.169	54.75
190.636	38.9
191.104	-28.44
191.571	-162.64
192.039	-86.84
192.506	-756.61
192.974	220.94
193.441	382.47
193.908	63.27
194.375	71.09
194.842	21.73
195.31	11.81
195.777	-107.95
196.244	5.44
196.711	14.71
197.177	18.63
197.644	18.14
198.111	18.64
198.578	18.96
199.045	19.58
199.511	19.4
199.978	19.75
200.445	19.9
200.911	19.73
201.378	19.57
201.844	19.63
202.31	19.32
202.777	19.64
203.243	19.47
203.709	19.37
204.176	19.27
204.642	19.54
205.108	19.58
205.574	19.43
206.04	19.26
206.506	19.11
206.972	19.21
207.438	18.93
207.903	18.44
208.369	18.01
208.835	17.57
209.301	16.88
209.766	16.2
210.232	15.28
210.697	14.85
211.163	14.55
211.628	14.24
212.094	13.54
212.559	13.27
213.024	12.98
213.49	12.71
213.955	12.24
214.42	12.06
214.885	11.69
215.35	11.36
215.815	10.5
216.28	9.36
216.745	8.39
217.21	7.44
217.675	6.61
218.14	5.88
218.604	5.31
219.069	4.82
219.534	4.34
219.998	3.98
220.463	3.69
220.927	3.43
221.392	3.29
221.856	3.13
222.32	3
222.785	2.87
223.249	2.76
223.713	2.64
224.177	2.57
224.642	2.51
225.106	2.42
225.57	2.33
226.034	2.28
226.497	2.23
226.961	2.16
227.425	2.11
227.889	2.07
228.353	2.02
228.816	1.96
229.28	1.93
229.744	1.89
230.207	1.85
230.671	1.82
231.134	1.8
231.597	1.76
232.061	1.74
232.524	1.71
232.987	1.69
233.45	1.68
233.914	1.68
234.377	1.65
234.84	1.63
235.303	1.62
235.766	1.61
236.229	1.59
236.691	1.58
237.154	1.56
237.617	1.54
238.08	1.52
238.542	1.5
239.005	1.49
239.468	1.47
239.93	1.46
240.393	1.44
240.855	1.41
241.317	1.4
241.78	1.38
242.242	1.38
242.704	1.38
243.166	1.36
243.629	1.36
244.091	1.34
244.553	1.34
245.015	1.32
245.477	1.32
245.939	1.32
246.4	1.31
246.862	1.3
247.324	1.3
247.786	1.29
248.247	1.29
248.709	1.27
249.17	1.24
249.632	1.24
250.093	1.23
250.555	1.22
251.016	1.21
251.477	1.2
251.939	1.2
252.4	1.19
252.861	1.19
253.322	1.18
253.783	1.17
254.244	1.17
254.705	1.16
255.166	1.15
255.627	1.14
256.088	1.14
256.549	1.14
257.009	1.12
257.47	1.11
257.931	1.1
258.391	1.09
258.852	1.08
259.312	1.07
259.773	1.07
260.233	1.07
260.694	1.06
261.154	1.05
261.614	1.05
262.074	1.05
262.534	1.04
262.994	1.03
263.455	1.03
263.915	1.03
264.374	1.02
264.834	1.02
265.294	1.01
265.754	1.01
266.214	1
266.673	0.99
267.133	0.99
267.593	0.99
268.052	0.99
268.512	0.99
268.971	0.99
269.431	0.98
269.89	0.97
270.349	0.98
270.809	0.97
271.268	0.97
271.727	0.97
272.186	0.96
272.645	0.97
273.104	0.96
273.563	0.96
274.022	0.96
274.481	0.96
274.94	0.97
275.399	0.96
275.857	0.96
276.316	0.96
276.775	0.96
277.233	0.96
277.692	0.96
278.15	0.96
278.609	0.96
279.067	0.96
279.525	0.97
279.984	0.97
280.442	0.97
280.9	0.97
281.358	0.97
281.816	0.97
282.274	0.97
282.732	0.97
283.19	0.96
283.648	0.96
284.106	0.95
284.564	0.94
285.021	0.95
285.479	0.94
285.937	0.94
286.394	0.94
286.852	0.93
287.309	0.93
287.767	0.93
288.224	0.93
288.682	0.93
289.139	0.93
289.596	0.93
290.053	0.92
290.511	0.91
290.968	0.91
291.425	0.9
291.882	0.9
292.339	0.9
292.796	0.9
293.252	0.9
293.709	0.9
294.166	0.9
294.623	0.89
295.079	0.89
295.536	0.9
295.992	0.9
296.449	0.9
296.905	0.9
297.362	0.89
297.818	0.89
298.274	0.88
298.731	0.88
299.187	0.87
299.643	0.86
300.099	0.86
300.555	0.85
301.011	0.85
301.467	0.85
301.923	0.85
302.379	0.85
302.835	0.85
303.291	0.85
303.746	0.85
304.202	0.86
304.658	0.86
305.113	0.86
305.569	0.86
306.024	0.86
306.479	0.86
306.935	0.85
307.39	0.85
307.845	0.85
308.301	0.86
308.756	0.86
309.211	0.86
309.666	0.86
310.121	0.87
310.576	0.87
311.031	0.87
311.486	0.88
311.94	0.88
312.395	0.88
312.85	0.88
313.305	0.88
313.759	0.88
314.214	0.88
314.668	0.88
315.123	0.88
315.577	0.88
316.032	0.89
316.486	0.88
316.94	0.89
317.394	0.88
317.849	0.87
318.303	0.87
318.757	0.87
319.211	0.87
319.665	0.87
320.119	0.86
320.572	0.85
321.026	0.84
321.48	0.84
321.934	0.83
322.387	0.83
322.841	0.83
323.295	0.83
323.748	0.83
324.202	0.83
324.655	0.83
325.108	0.84
325.562	0.84
326.015	0.84
326.468	0.84
326.921	0.85
327.374	0.84
327.827	0.85
328.28	0.85
328.733	0.85
329.186	0.85
329.639	0.85
330.092	0.85
330.545	0.85
330.997	0.84
331.45	0.84
331.903	0.85
332.355	0.86
332.808	0.86
333.26	0.85
333.713	0.85
334.165	0.85
334.617	0.85
335.069	0.85
335.522	0.85
335.974	0.85
336.426	0.84
336.878	0.83
337.33	0.83
337.782	0.83
338.234	0.84
338.686	0.84
339.137	0.85
339.589	0.84
340.041	0.85
340.493	0.84
340.944	0.84
341.396	0.85
341.847	0.85
342.299	0.84
342.75	0.84
343.201	0.83
343.653	0.83
344.104	0.82
344.555	0.82
345.006	0.82
345.457	0.82
345.908	0.82
346.359	0.82
346.81	0.82
347.261	0.82
347.712	0.82
348.163	0.81
348.613	0.82
349.064	0.82
349.515	0.82
349.965	0.82
350.416	0.81
350.866	0.81
351.317	0.8
351.767	0.8
352.217	0.81
352.668	0.81
353.118	0.81
353.568	0.81
354.018	0.81
354.468	0.81
354.918	0.81
355.368	0.81
355.818	0.81
356.268	0.81
356.718	0.81
357.168	0.81
357.617	0.81
358.067	0.81
358.517	0.83
358.966	0.82
359.416	0.83
359.865	0.83
360.315	0.84
360.764	0.85
361.213	0.84
361.663	0.83
362.112	0.84
362.561	0.85
363.01	0.85
363.459	0.83
363.908	0.83
364.357	0.83
364.806	0.82
365.255	0.82
365.703	0.82
366.152	0.82
366.601	0.83
367.05	0.82
367.498	0.82
367.947	0.82
368.395	0.83
368.844	0.83
369.292	0.82
369.74	0.83
370.189	0.83
370.637	0.83
371.085	0.82
371.533	0.82
371.981	0.81
372.429	0.82
372.877	0.82
373.325	0.82
373.773	0.82
374.221	0.83
374.669	0.83
375.116	0.82
375.564	0.82
376.012	0.82
376.459	0.82
376.907	0.83
377.354	0.82
377.801	0.82
378.249	0.83
378.696	0.83
379.143	0.82
379.591	0.83
380.038	0.83
380.485	0.83
380.932	0.84
381.379	0.84
381.826	0.85
382.273	0.86
382.72	0.86
383.166	0.88
383.613	0.89
384.06	0.9
384.506	0.92
384.953	0.95
385.4	0.98
385.846	1.02
386.292	1.06
386.739	1.1
387.185	1.16
387.631	1.21
388.078	1.25
388.524	1.3
388.97	1.35
389.416	1.41
389.862	1.49
390.308	1.6
390.754	1.73
391.2	1.86
391.645	1.98
392.091	2.1
392.537	2.22
392.983	2.4
393.428	2.63
393.874	2.94
394.319	3.28
394.765	3.64
395.21	4.02
395.655	4.41
396.101	4.85
396.546	5.33
396.991	5.89
397.436	6.47
397.881	7.06
398.326	7.65
398.771	8.19
399.216	8.72
399.661	9.21
400.106	9.65
400.551	10.05
400.995	10.42
401.44	10.76
401.885	11.09
402.329	11.44
402.774	11.8
403.218	12.2
403.663	12.64
404.107	13.1
404.551	13.57
404.995	14.02
405.44	14.45
405.884	14.91
406.328	15.42
406.772	15.98
407.216	16.55
407.66	17.09
408.104	17.56
408.547	17.98
408.991	18.37
409.435	18.81
409.879	19.3
410.322	19.85
410.766	20.39
411.209	20.93
411.653	21.4
412.096	21.83
412.54	22.22
412.983	22.63
413.426	23.08
413.869	23.53
414.312	23.94
414.756	24.29
415.199	24.59
415.642	24.87
416.085	25.08
416.527	25.23
416.97	25.29
417.413	25.3
417.856	25.28
418.298	25.25
418.741	25.26
419.184	25.33
419.626	25.45
420.069	25.63
420.511	25.77
420.953	25.96
421.396	26.21
421.838	26.53
422.28	26.9
422.722	27.29
423.164	27.64
423.606	27.92
424.048	28.11
424.49	28.15
424.932	27.92
425.374	27.47
425.816	26.84
426.258	26.22
426.699	25.82
427.141	25.79
427.582	26.05
428.024	26.45
428.465	26.86
428.907	27.22
429.348	27.57
429.789	28.13
430.231	29.06
430.672	30.3
431.113	31.65
431.554	32.9
431.995	33.82
432.436	34.46
432.877	34.94
433.318	35.37
433.759	35.83
434.2	36.45
434.64	37.16
435.081	37.82
435.522	38.38
435.962	38.81
436.403	39.13
436.843	39.38
437.284	39.67
437.724	40.06
438.164	40.54
438.604	41.12
439.045	41.69
439.485	42.16
439.925	42.55
440.365	42.87
440.805	43.07
441.245	43.25
441.685	43.46
442.125	43.64
442.564	43.88
443.004	44.17
443.444	44.5
443.883	44.84
444.323	45.2
444.762	45.56
445.202	45.98
445.641	46.52
446.081	47.15
446.52	47.78
446.959	48.41
447.398	48.81
447.837	48.98
448.276	48.99
448.716	48.93
449.154	48.9
449.593	48.84
450.032	48.68
450.471	48.43
450.91	48.12
451.349	47.83
451.787	47.54
452.226	47.36
452.664	47.26
453.103	47.16
453.541	47.1
453.98	46.92
454.418	46.69
454.856	46.46
455.295	46.26
455.733	46.07
456.171	45.91
456.609	45.76
457.047	45.64
457.485	45.58
457.923	45.65
458.361	45.71
458.798	45.87
459.236	46.03
459.674	46.17
460.111	46.34
460.549	46.54
460.987	46.73
461.424	46.92
461.862	47.12
462.299	47.28
462.736	47.41
463.173	47.66
463.611	47.95
464.048	48.33
464.485	48.82
464.922	49.29
465.359	49.76
465.796	50.19
466.233	50.6
466.67	51.07
467.106	51.68
467.543	52.3
467.98	52.9
468.416	53.42
468.853	53.88
469.29	54.3
469.726	54.75
470.162	55.24
470.599	55.72
471.035	56.14
471.471	56.41
471.907	56.55
472.344	56.63
472.78	56.7
473.216	56.79
473.652	56.92
474.088	56.96
474.523	56.96
474.959	56.91
475.395	56.84
475.831	56.79
476.266	56.77
476.702	56.75
477.138	56.7
477.573	56.58
478.008	56.39
478.444	56.1
478.879	55.81
479.314	55.42
479.75	54.99
480.185	54.5
480.62	53.87
481.055	53.02
481.49	51.92
481.925	50.74
482.36	49.66
482.795	48.77
483.229	48.05
483.664	47.46
484.099	46.93
484.534	46.48
484.968	46.16
485.403	45.99
485.837	46.07
486.271	46.39
486.706	46.7
487.14	46.92
487.574	46.98
488.009	46.96
488.443	46.9
488.877	46.89
489.311	46.88
489.745	46.88
490.179	46.9
490.613	46.89
491.046	46.89
491.48	46.95
491.914	47.09
492.348	47.31
492.781	47.53
493.215	47.69
493.648	47.78
494.082	47.84
494.515	47.86
494.948	47.88
495.382	47.88
495.815	47.84
496.248	47.81
496.681	47.71
497.114	47.57
497.547	47.44
497.98	47.42
498.413	47.49
498.846	47.61
499.279	47.67
499.711	47.72
500.144	47.83
500.577	48.03
501.009	48.34
501.442	48.75
501.874	49.18
502.306	49.59
502.739	49.92
503.171	50.18
503.603	50.4
504.036	50.7
504.468	51.05
504.9	51.37
505.332	51.65
505.764	51.88
506.196	52.06
506.627	52.27
507.059	52.54
507.491	52.85
507.923	53.16
508.354	53.5
508.786	53.76
509.217	53.96
509.649	54.12
510.08	54.28
510.512	54.48
510.943	54.71
511.374	54.89
511.805	54.91
512.237	54.74
512.668	54.54
513.099	54.33
513.53	54.22
513.961	54.17
514.391	54.21
514.822	54.37
515.253	54.58
515.684	54.78
516.114	55.08
516.545	55.53
516.975	56.23
517.406	57
517.836	57.76
518.267	58.42
518.697	59.05
519.127	59.66
519.558	60.24
519.988	60.78
520.418	61.28
520.848	61.71
521.278	62.05
521.708	62.27
522.138	62.29
522.567	62.26
522.997	62.28
523.427	62.43
523.857	62.6
524.286	62.78
524.716	62.97
525.145	63.15
525.575	63.32
526.004	63.6
526.433	63.96
526.863	64.53
527.292	65.09
527.721	65.51
528.15	65.71
528.579	65.77
529.008	65.73
529.437	65.65
529.866	65.56
530.295	65.58
530.724	65.57
531.152	65.55
531.581	65.49
532.01	65.43
532.438	65.43
532.867	65.48
533.295	65.6
533.723	65.71
534.152	65.79
534.58	65.81
535.008	65.68
535.436	65.49
535.865	65.18
536.293	64.89
536.721	64.71
537.149	64.62
537.576	64.61
538.004	64.6
538.432	64.55
538.86	64.55
539.287	64.59
539.715	64.77
540.143	64.99
540.57	65.3
540.998	65.65
541.425	65.96
541.852	66.25
542.28	66.5
542.707	66.68
543.134	66.9
543.561	67.1
543.988	67.28
544.415	67.46
544.842	67.64
545.269	67.85
545.696	68.01
546.123	68.17
546.549	68.32
546.976	68.47
547.403	68.67
547.829	68.87
548.256	69.05
548.682	69.18
549.108	69.31
549.535	69.44
549.961	69.53
550.387	69.68
550.813	69.82
551.24	69.91
551.666	69.94
552.092	69.92
552.518	69.85
552.943	69.76
553.369	69.66
553.795	69.49
554.221	69.25
554.646	68.93
555.072	68.55
555.498	68.18
555.923	67.86
556.349	67.62
556.774	67.41
557.199	67.21
557.625	66.99
558.05	66.8
558.475	66.65
558.9	66.53
559.325	66.44
559.75	66.33
560.175	66.19
560.6	65.97
561.025	65.64
561.449	65.25
561.874	64.87
562.299	64.52
562.723	64.19
563.148	63.82
563.572	63.4
563.997	62.98
564.421	62.53
564.846	62.11
565.27	61.7
565.694	61.3
566.118	60.88
566.542	60.44
566.966	59.99
567.39	59.6
567.814	59.23
568.238	58.96
568.662	58.74
569.086	58.57
569.509	58.39
569.933	58.24
570.357	58.11
570.78	58.01
571.204	57.93
571.627	57.87
572.05	57.75
572.474	57.67
572.897	57.57
573.32	57.37
573.743	57.17
574.166	56.97
574.589	56.78
575.012	56.64
575.435	56.59
575.858	56.58
576.281	56.59
576.704	56.6
577.126	56.61
577.549	56.63
577.972	56.73
578.394	56.86
578.817	57.03
579.239	57.21
579.661	57.37
580.084	57.46
580.506	57.54
580.928	57.53
581.35	57.51
581.772	57.44
582.194	57.37
582.616	57.32
583.038	57.24
583.46	57.11
583.882	56.89
584.303	56.53
584.725	56.06
585.147	55.58
585.568	55.2
585.99	54.88
586.411	54.66
586.833	54.46
587.254	54.25
587.675	54.09
588.096	53.94
588.518	53.86
588.939	53.96
589.36	54.17
589.781	54.39
590.202	54.51
590.623	54.58
591.043	54.57
591.464	54.55
591.885	54.52
592.305	54.46
592.726	54.39
593.147	54.29
593.567	54.15
593.987	54.01
594.408	53.87
594.828	53.78
595.248	53.67
595.669	53.54
596.089	53.37
596.509	53.17
596.929	52.94
597.349	52.7
597.769	52.47
598.189	52.26
598.608	52.1
599.028	51.97
599.448	51.84
599.867	51.72
600.287	51.61
600.706	51.51
601.126	51.41
601.545	51.32
601.965	51.25
602.384	51.18
602.803	51.1
603.222	50.98
603.641	50.83
604.061	50.67
604.48	50.48
604.898	50.29
605.317	50.12
605.736	49.94
606.155	49.74
606.574	49.57
606.992	49.4
607.411	49.22
607.829	49.05
608.248	48.87
608.666	48.68
609.085	48.5
609.503	48.31
609.921	48.11
610.339	47.96
610.758	47.82
611.176	47.62
611.594	47.41
612.012	47.16
612.43	46.91
612.847	46.72
613.265	46.57
613.683	46.46
614.101	46.38
614.518	46.29
614.936	46.18
615.353	46.08
615.771	46.04
616.188	46.05
616.606	46.07
617.023	46.1
617.44	46.08
617.857	46.01
618.274	45.88
618.691	45.73
619.108	45.56
619.525	45.38
619.942	45.21
620.359	44.98
620.776	44.7
621.192	44.48
621.609	44.24
622.026	44.04
622.442	43.88
622.859	43.73
623.275	43.54
623.691	43.36
624.108	43.19
624.524	43.04
624.94	42.9
625.356	42.77
625.772	42.63
626.188	42.54
626.604	42.42
627.02	42.27
627.436	42.14
627.852	42.09
628.268	42.07
628.683	42.06
629.099	42.05
629.514	42.05
629.93	42.06
630.345	42.08
630.761	42.08
631.176	42.08
631.591	42.06
632.007	42.07
632.422	42.07
632.837	42.07
633.252	42.08
633.667	42.07
634.082	42.07
634.497	42.07
634.911	42.04
635.326	42
635.741	41.95
636.155	41.88
636.57	41.82
636.984	41.72
637.399	41.6
637.813	41.49
638.228	41.36
638.642	41.22
639.056	41.08
639.47	40.98
639.884	40.88
640.298	40.77
640.712	40.7
641.126	40.59
641.54	40.49
641.954	40.37
642.368	40.21
642.781	40.07
643.195	39.92
643.609	39.77
644.022	39.62
644.436	39.46
644.849	39.28
645.262	39.08
645.676	38.89
646.089	38.77
646.502	38.68
646.915	38.62
647.328	38.54
647.741	38.47
648.154	38.42
648.567	38.36
648.98	38.33
649.393	38.34
649.805	38.35
650.218	38.35
650.631	38.26
651.043	38.04
651.456	37.7
651.868	37.22
652.28	36.71
652.693	36.26
653.105	35.93
653.517	35.64
653.929	35.42
654.341	35.25
654.753	35.13
655.165	35.07
655.577	35.11
655.989	35.32
656.401	35.67
656.813	36.06
657.224	36.36
657.636	36.57
658.047	36.72
658.459	36.79
658.87	36.81
659.282	36.79
659.693	36.75
660.104	36.69
660.515	36.61
660.926	36.52
661.338	36.44
661.749	36.33
662.159	36.22
662.57	36.1
662.981	35.99
663.392	35.87
663.803	35.76
664.213	35.66
664.624	35.57
665.035	35.47
665.445	35.36
665.855	35.24
666.266	35.13
666.676	35.01
667.086	34.87
667.497	34.74
667.907	34.62
668.317	34.49
668.727	34.36
669.137	34.23
669.547	34.11
669.956	33.97
670.366	33.88
670.776	33.77
671.186	33.66
671.595	33.57
672.005	33.47
672.414	33.41
672.824	33.34
673.233	33.28
673.642	33.22
674.052	33.16
674.461	33.1
674.87	33.04
675.279	32.99
675.688	32.96
676.097	32.92
676.506	32.9
676.915	32.86
677.323	32.83
677.732	32.82
678.141	32.79
678.549	32.77
678.958	32.77
679.366	32.75
679.775	32.71
680.183	32.67
680.592	32.68
681	32.67
681.408	32.65
681.816	32.58
682.224	32.32
682.632	31.89
683.04	31.33
683.448	30.78
683.856	30.28
684.264	29.85
684.671	29.44
685.079	29.04
685.487	28.67
685.894	28.36
686.302	28.15
686.709	28.16
687.116	28.4
687.524	28.83
687.931	29.3
688.338	29.75
688.745	30.19
689.152	30.59
689.559	31
689.966	31.4
690.373	31.76
690.78	32.12
691.187	32.46
691.593	32.77
692	33.06
692.407	33.33
692.813	33.6
693.22	33.85
693.626	34.11
694.032	34.37
694.439	34.59
694.845	34.83
695.251	35.04
695.657	35.22
696.063	35.39
696.469	35.52
696.875	35.64
697.281	35.75
697.687	35.86
698.093	35.96
698.498	36.06
698.904	36.19
699.31	36.34
699.715	36.53
700.12	36.72
700.526	36.95
700.931	37.19
701.337	37.42
701.742	37.63
702.147	37.88
702.552	38.12
702.957	38.36
703.362	38.59
703.767	38.78
704.172	38.95
704.577	39.12
704.981	39.26
705.386	39.38
705.791	39.53
706.195	39.73
706.6	39.88
707.004	40.02
707.408	40.16
707.813	40.27
708.217	40.39
708.621	40.51
709.025	40.64
709.43	40.75
709.834	40.88
710.237	40.98
710.641	41.01
711.045	41.08
711.449	41.14
711.853	41.15
712.256	41.11
712.66	41
713.064	40.81
713.467	40.53
713.87	40.19
714.274	39.78
714.677	39.34
715.08	38.9
715.484	38.44
715.887	38.02
716.29	37.69
716.693	37.48
717.096	37.46
717.499	37.59
717.901	37.87
718.304	38.19
718.707	38.55
719.109	38.91
719.512	39.23
719.915	39.51
720.317	39.77
720.719	39.96
721.122	40.1
721.524	40.13
721.926	40.08
722.328	39.99
722.731	39.88
723.133	39.84
723.535	39.83
723.937	39.87
724.338	39.91
724.74	39.96
725.142	40.05
725.544	40.1
725.945	40.2
726.347	40.26
726.748	40.32
727.15	40.4
727.551	40.51
727.952	40.65
728.354	40.83
728.755	41.07
729.156	41.33
729.557	41.58
729.958	41.86
730.359	42.07
730.76	42.34
731.161	42.56
731.562	42.76
731.962	42.89
732.363	43.02
732.763	43.1
733.164	43.17
733.564	43.23
733.965	43.22
734.365	43.19
734.766	43.13
735.166	43.05
735.566	43.02
735.966	43.02
736.366	42.99
736.766	42.94
737.166	42.88
737.566	42.82
737.966	42.73
738.365	42.71
738.765	42.71
739.165	42.75
739.564	42.8
739.964	42.81
740.363	42.78
740.763	42.8
741.162	42.83
741.561	42.89
741.96	42.91
742.36	42.95
742.759	42.95
743.158	42.96
743.557	42.92
743.955	42.91
744.354	42.9
744.753	42.91
745.152	42.89
745.55	42.84
745.949	42.79
746.348	42.75
746.746	42.66
747.144	42.61
747.543	42.53
747.941	42.46
748.339	42.35
748.737	42.27
749.136	42.2
749.534	42.12
749.932	42.09
750.33	42.05
750.727	42.01
751.125	41.99
751.523	41.92
751.921	41.88
752.318	41.83
752.716	41.79
753.113	41.76
753.511	41.7
753.908	41.65
754.305	41.51
754.703	41.16
755.1	40.46
755.497	39.26
755.894	37.55
756.291	35.48
756.688	33.29
757.085	31.23
757.482	29.29
757.878	27.48
758.275	25.68
758.672	23.9
759.068	22.3
759.465	21.11
759.861	20.54
760.258	20.62
760.654	21.2
761.05	22.05
761.447	22.91
761.843	23.76
762.239	24.62
762.635	25.65
763.031	26.87
763.427	28.22
763.822	29.64
764.218	31.04
764.614	32.35
765.01	33.55
765.405	34.65
765.801	35.67
766.196	36.57
766.592	37.33
766.987	37.96
767.382	38.43
767.778	38.8
768.173	39.06
768.568	39.25
768.963	39.42
769.358	39.57
769.753	39.68
770.148	39.72
770.542	39.74
770.937	39.73
771.332	39.73
771.726	39.73
772.121	39.73
772.515	39.72
772.91	39.67
773.304	39.62
773.699	39.54
774.093	39.47
774.487	39.42
774.881	39.39
775.275	39.35
775.669	39.27
776.063	39.18
776.457	39.08
776.851	38.97
777.245	38.86
777.638	38.77
778.032	38.72
778.425	38.66
778.819	38.58
779.212	38.46
779.606	38.34
779.999	38.23
780.392	38.15
780.786	38.03
781.179	37.93
781.572	37.86
781.965	37.75
782.358	37.59
782.751	37.45
783.143	37.32
783.536	37.18
783.929	37.07
784.322	36.95
784.714	36.79
785.107	36.66
785.499	36.5
785.891	36.33
786.284	36.17
786.676	36.03
787.068	35.84
787.46	35.67
787.852	35.49
788.245	35.31
788.636	35.11
789.028	34.92
789.42	34.72
789.812	34.55
790.204	34.34
790.595	34.14
790.987	33.98
791.378	33.82
791.77	33.66
792.161	33.52
792.553	33.38
792.944	33.27
793.335	33.18
793.726	33.11
794.117	32.98
794.508	32.89
794.899	32.8
795.29	32.67
795.681	32.52
796.072	32.38
796.463	32.22
796.853	32.07
797.244	31.91
797.634	31.7
798.025	31.53
798.415	31.34
798.806	31.14
799.196	30.94
799.586	30.77
799.976	30.61
800.366	30.45
800.756	30.26
801.146	30.07
801.536	29.9
801.926	29.76
802.316	29.57
802.706	29.43
803.095	29.28
803.485	29.11
803.874	28.92
804.264	28.75
804.653	28.57
805.043	28.39
805.432	28.2
805.821	27.99
806.21	27.76
806.599	27.55
806.988	27.34
807.377	27.13
807.766	26.91
808.155	26.67
808.544	26.42
808.933	26.15
809.321	25.86
809.71	25.56
810.098	25.25
810.487	24.91
810.875	24.54
811.264	24.16
811.652	23.79
812.04	23.37
812.428	23
812.816	22.62
813.204	22.28
813.592	21.96
813.98	21.67
814.368	21.4
814.756	21.15
815.144	20.94
815.531	20.74
815.919	20.59
816.306	20.5
816.694	20.42
817.081	20.36
817.469	20.31
817.856	20.2
818.243	20.04
818.63	19.85
819.017	19.67
819.404	19.48
819.791	19.34
820.178	19.2
820.565	19.08
820.952	18.93
821.339	18.77
821.725	18.62
822.112	18.55
822.498	18.52
822.885	18.51
823.271	18.49
823.657	18.43
824.044	18.34
824.43	18.23
824.816	18.07
825.202	17.93
825.588	17.79
825.974	17.65
826.36	17.49
826.746	17.32
827.132	17.17
827.517	17.04
827.903	16.93
828.289	16.83
828.674	16.71
829.06	16.62
829.445	16.51
829.83	16.4
830.216	16.31
830.601	16.22
830.986	16.16
831.371	16.1
831.756	16.05
832.141	15.99
832.526	15.93
832.911	15.89
833.295	15.84
833.68	15.8
834.065	15.74
834.449	15.68
834.834	15.63
835.218	15.57
835.603	15.52
835.987	15.44
836.371	15.37
836.755	15.31
837.139	15.23
837.524	15.16
837.908	15.1
838.291	15.05
838.675	15
839.059	14.93
839.443	14.86
839.827	14.79
840.21	14.72
840.594	14.65
840.977	14.6
841.361	14.54
841.744	14.47
842.127	14.4
842.511	14.32
842.894	14.26
843.277	14.21
843.66	14.15
844.043	14.11
844.426	14.06
844.809	14
845.191	13.92
845.574	13.83
845.957	13.75
846.339	13.66
846.722	13.58
847.104	13.51
847.487	13.43
847.869	13.34
848.252	13.25
848.634	13.18
849.016	13.1
849.398	13.01
849.78	12.93
850.162	12.81
850.544	12.72
850.926	12.64
851.307	12.56
851.689	12.49
852.071	12.44
852.452	12.39
852.834	12.35
853.215	12.31
853.597	12.31
853.978	12.31
854.359	12.34
854.741	12.37
855.122	12.39
855.503	12.38
855.884	12.36
856.265	12.34
856.646	12.3
857.026	12.27
857.407	12.23
857.788	12.18
858.169	12.14
858.549	12.1
858.93	12.05
859.31	12
859.69	11.98
860.071	11.94
860.451	11.9
860.831	11.85
861.211	11.78
861.591	11.71
861.971	11.63
862.351	11.55
862.731	11.46
863.111	11.37
863.491	11.29
863.87	11.22
864.25	11.14
864.629	11.06
865.009	11.01
865.388	10.96
865.768	10.95
866.147	10.93
866.526	10.92
866.905	10.94
867.284	10.94
867.663	10.92
868.042	10.92
868.421	10.91
868.8	10.9
869.179	10.88
869.558	10.87
869.936	10.84
870.315	10.82
870.693	10.8
871.072	10.78
871.45	10.74
871.828	10.71
872.207	10.69
872.585	10.66
872.963	10.64
873.341	10.62
873.719	10.6
874.097	10.58
874.475	10.57
874.853	10.53
875.23	10.5
875.608	10.49
875.986	10.48
876.363	10.44
876.741	10.41
877.118	10.38
877.495	10.36
877.873	10.33
878.25	10.3
878.627	10.29
879.004	10.27
879.381	10.25
879.758	10.21
880.135	10.18
880.512	10.15
880.889	10.13
881.265	10.11
881.642	10.09
882.019	10.08
882.395	10.05
882.772	10.01
883.148	9.98
883.524	9.96
883.901	9.94
884.277	9.93
884.653	9.91
885.029	9.89
885.405	9.87
885.781	9.85
886.157	9.83
886.532	9.81
886.908	9.79
887.284	9.78
887.659	9.74
888.035	9.72
888.411	9.69
888.786	9.68
889.161	9.64
889.537	9.61
889.912	9.57
890.287	9.52
890.662	9.49
891.037	9.45
891.412	9.41
891.787	9.36
892.162	9.31
892.536	9.26
892.911	9.2
893.286	9.15
893.66	9.08
894.035	9.03
894.409	8.97
894.784	8.9
895.158	8.82
895.532	8.77
895.906	8.71
896.281	8.66
896.655	8.6
897.029	8.56
897.402	8.51
897.776	8.47
898.15	8.44
898.524	8.41
898.898	8.39
899.271	8.39
899.645	8.38
900.018	8.41
900.392	8.42
900.765	8.43
901.138	8.45
901.511	8.48
901.884	8.51
902.258	8.52
902.631	8.55
903.003	8.57
903.376	8.56
903.749	8.54
904.122	8.51
904.495	8.49
904.867	8.46
905.24	8.41
905.612	8.37
905.985	8.34
906.357	8.31
906.729	8.27
907.102	8.23
907.474	8.22
907.846	8.2
908.218	8.19
908.59	8.17
908.962	8.15
909.334	8.15
909.705	8.15
910.077	8.13
910.449	8.12
910.82	8.12
911.192	8.12
911.563	8.11
911.935	8.1
912.306	8.09
912.677	8.07
913.048	8.08
913.419	8.07
913.79	8.07
914.161	8.07
914.532	8.06
914.903	8.05
915.274	8.04
915.645	8.03
916.015	8.03
916.386	8.03
916.756	8.05
917.127	8.06
917.497	8.07
917.868	8.07
918.238	8.06
918.608	8.09
918.978	8.11
919.348	8.11
919.718	8.11
920.088	8.13
920.458	8.1
920.828	8.06
921.198	8.04
921.567	8.04
921.937	8.02
922.306	8.01
922.676	7.98
923.045	7.97
923.415	7.97
923.784	7.96
924.153	7.95
924.522	7.94
924.891	7.93
925.26	7.9
925.629	7.85
925.998	7.82
926.367	7.79
926.736	7.74
927.104	7.68
927.473	7.6
927.842	7.52
928.21	7.46
928.578	7.4
928.947	7.34
929.315	7.27
929.683	7.19
930.051	7.11
930.42	7.04
930.788	6.96
931.156	6.89
931.523	6.82
931.891	6.77
932.259	6.69
932.627	6.65
932.994	6.57
933.362	6.53
933.729	6.51
934.097	6.49
934.464	6.46
934.831	6.44
935.199	6.42
935.566	6.46
935.933	6.43
936.3	6.47
936.667	6.46
937.034	6.55
937.401	6.62
937.767	6.68
938.134	6.74
938.501	6.81
938.867	6.88
939.234	6.95
939.6	7
939.967	7.09
940.333	7.07
940.699	7.1
941.065	7.06
941.431	7.01
941.798	6.99
942.163	6.96
942.529	6.92
942.895	6.86
943.261	6.84
943.627	6.81
943.992	6.82
944.358	6.85
944.723	6.86
945.089	6.84
945.454	6.86
945.82	6.88
946.185	6.91
946.55	6.94
946.915	6.97
947.28	6.97
947.645	6.95
948.01	6.97
948.375	6.97
948.74	6.99
949.104	7.04
949.469	7.03
949.834	7.01
950.198	7
950.562	6.96
950.927	6.96
951.291	6.93
951.655	6.92
952.02	6.9
952.384	6.88
952.748	6.87
953.112	6.83
953.476	6.83
953.839	6.79
954.203	6.74
954.567	6.75
954.931	6.73
955.294	6.74
955.658	6.78
956.021	6.76
956.385	6.76
956.748	6.74
957.111	6.71
957.474	6.72
957.837	6.75
958.2	6.76
958.563	6.75
958.926	6.75
959.289	6.76
959.652	6.72
960.015	6.74
960.377	6.73
960.74	6.73
961.102	6.78
961.465	6.78
961.827	6.81
962.189	6.85
962.552	6.88
962.914	6.91
963.276	6.96
963.638	6.98
964	6.97
964.362	7.03
964.724	7.07
965.085	7.06
965.447	7.1
965.809	7.12
966.17	7.12
966.532	7.13
966.893	7.16
967.255	7.14
967.616	7.19
967.977	7.23
968.338	7.22
968.699	7.22
969.061	7.23
969.421	7.24
969.782	7.25
970.143	7.24
970.504	7.29
970.865	7.29
971.225	7.3
971.586	7.28
971.946	7.28
972.307	7.33
972.667	7.33
973.027	7.37
973.388	7.35
973.748	7.33
974.108	7.39
974.468	7.34
974.828	7.36
975.188	7.36
975.548	7.31
975.907	7.27
976.267	7.2
976.627	7.19
976.986	7.18
977.346	7.17
977.705	7.21
978.064	7.18
978.424	7.26
978.783	7.22
979.142	7.18
979.501	7.24
979.86	7.27
980.219	7.31
980.578	7.39
980.937	7.39
981.296	7.45
981.654	7.42
982.013	7.44
982.371	7.4
982.73	7.43
983.088	7.54
983.447	7.56
983.805	7.59
984.163	7.62
984.521	7.59
984.879	7.55
985.237	7.58
985.595	7.69
985.953	7.63
986.311	7.6
986.669	7.61
987.026	7.6
987.384	7.63
987.741	7.62
988.099	7.6
988.456	7.58
988.814	7.66
989.171	7.62
989.528	7.55
989.885	7.6
990.242	7.63
990.599	7.62
990.956	7.64
991.313	7.62
991.67	7.63
992.027	7.67
992.383	7.71
992.74	7.76
993.096	7.75
993.453	7.72
993.809	7.81
994.165	7.83
994.522	7.82
994.878	7.8
995.234	7.79
995.59	7.84
995.946	7.86
996.302	7.88
996.658	7.89
997.013	7.99
997.369	8.08
997.725	8.07
998.08	8.13
998.436	8.25
998.791	8.33
999.147	8.34
999.502	8.42
999.857	8.46
1000.212	8.42
1000.567	8.36
1000.922	8.37
1001.277	8.36
1001.632	8.33
1001.987	8.39
1002.342	8.28
1002.696	8.28
1003.051	8.46
1003.406	8.49
1003.76	8.43
1004.114	8.58
1004.469	8.65
1004.823	8.79
1005.177	8.76
1005.531	8.84
1005.885	8.73
1006.239	8.8
1006.593	8.82
1006.947	8.71
1007.301	8.58
1007.655	8.63
1008.008	8.62
1008.362	8.65
1008.715	8.46
1009.069	8.58
1009.422	8.66
1009.776	8.56
1010.129	8.68
1010.482	8.77
1010.835	8.82
1011.188	8.84
1011.541	8.88
1011.894	8.92
1012.247	8.89
1012.6	8.91
1012.952	8.76
1013.305	8.67
1013.657	9.04
1014.01	9.03
1014.362	8.99
1014.715	9.13
1015.067	9.16
1015.419	9.3
1015.771	9.43
1016.123	9.5
1016.475	9.63
1016.827	9.89
1017.179	10.07
1017.531	9.89
1017.883	9.88
1018.234	10.08
1018.586	9.95
1018.938	10.18
1019.289	10.15
1019.64	10.18
1019.992	10.18
1020.343	10.12
1020.694	10.07
1021.045	10.01
1021.396	10.27
1021.747	10.6
1022.098	10.53
1022.449	10.59
1022.8	10.55
1023.151	10.44
1023.501	10.49
1023.852	10.52
1024.202	10.6
1024.553	10.6
1024.903	10.79
1025.253	10.72
1025.604	10.42
1025.954	10.41
1026.304	10.31
1026.654	10.63
1027.004	10.97
1027.354	10.81
1027.703	10.85
1028.053	11.13
1028.403	11.12
1028.753	10.93
1029.102	11.19
1029.452	11.46
1029.801	11.66
1030.15	11.96
1030.499	11.62
897.758	879.15
901.051	882.39
904.343	881.98
907.636	895.89
910.928	872.87
914.22	876.64
917.511	868.44
920.803	828.95
924.094	826.71
927.384	807.49
930.675	769.82
933.965	768.46
937.255	729.69
940.544	700.48
943.834	669.48
947.123	664.82
950.411	625.21
953.7	610.44
956.988	583.6
960.276	560.51
963.563	552.23
966.851	538.21
970.138	532.59
973.424	514.11
976.711	517.77
979.997	494.4
983.283	490.06
986.568	480.86
989.853	468.17
993.138	458.56
996.423	440.98
999.708	428.53
1002.992	424.05
1006.275	405.51
1009.559	402.64
1012.842	387.87
1016.125	377.88
1019.408	371.71
1022.69	366.43
1025.972	358.89
1029.254	351.99
1032.536	347.48
1035.817	340.68
1039.098	336.17
1042.379	330.31
1045.659	326.37
1048.939	318.83
1052.219	313.25
1055.498	309.89
1058.778	303.26
1062.057	297.4
1065.335	293.99
1068.614	290.4
1071.892	287.37
1075.17	279.95
1078.447	274.8
1081.724	272.26
1085.001	270.43
1088.278	265.1
1091.554	261.01
1094.83	260.68
1098.106	258.48
1101.382	257.35
1104.657	255.59
1107.932	251.31
1111.206	252.55
1114.481	246.44
1117.755	245.74
1121.029	243.99
1124.302	243.28
1127.575	237.83
1130.848	235.99
1134.121	234.07
1137.393	231.58
1140.665	226.72
1143.937	226.12
1147.208	225.21
1150.48	224.96
1153.75	221.35
1157.021	218.64
1160.291	218.7
1163.561	216.8
1166.831	216.92
1170.101	214.52
1173.37	215.2
1176.639	216.2
1179.907	213.35
1183.176	210.94
1186.444	210.56
1189.711	210.09
1192.979	210.29
1196.246	208.77
1199.513	209.92
1202.78	208.42
1206.046	208.53
1209.312	206.08
1212.578	206.07
1215.843	208.38
1219.108	206.85
1222.373	211.17
1225.638	212.53
1228.902	214.39
1232.166	215.17
1235.43	216.16
1238.693	219.24
1241.956	220.2
1245.219	223.11
1248.482	223.67
1251.744	223.43
1255.006	223.99
1258.268	218.83
1261.529	217.43
1264.79	215.99
1268.051	214.93
1271.312	211.8
1274.572	209.24
1277.832	208.17
1281.092	204.78
1284.351	203.14
1287.61	203.29
1290.869	200.69
1294.128	199.82
1297.386	199.62
1300.644	197.51
1303.902	197.57
1307.159	197.62
1310.416	197.14
1313.673	196.4
1316.93	198.72
1320.186	198.25
1323.442	199.01
1326.697	201.72
1329.953	202
1333.208	202.33
1336.463	204.7
1339.717	205.14
1342.972	206.29
1346.226	208.51
1349.479	209.35
1352.733	210.19
1355.986	211.51
1359.238	210.75
1362.491	210.77
1365.743	212.48
1368.995	212.53
1372.247	212.72
1375.498	211.84
1378.749	213.58
1382	210.14
1385.251	209.57
1388.501	207.69
1391.751	207.3
1395	206.34
1398.25	205.18
1401.499	202.6
1404.748	202.23
1407.996	199.36
1411.244	198.84
1414.492	196.5
1417.74	195.06
1420.987	192.51
1424.234	191.71
1427.481	188.77
1430.728	188.6
1433.974	186.5
1437.22	185.14
1440.465	184.24
1443.711	182.11
1446.956	180.8
1450.201	180.07
1453.445	177.3
1456.689	176.89
1459.933	174.13
1463.177	173.66
1466.42	170.04
1469.663	168.34
1472.906	167.58
1476.148	163.68
1479.391	162.74
1482.633	161.46
1485.874	158.52
1489.115	157.9
1492.356	155.8
1495.597	155.72
1498.838	153.23
1502.078	153.37
1505.318	153.39
1508.557	153.13
1511.797	153.14
1515.036	151.76
1518.274	151.01
1521.513	150.73
1524.751	150.69
1527.989	151.04
1531.227	150.75
1534.464	150.88
1537.701	149.9
1540.938	149.53
1544.174	148
1547.41	148.63
1550.646	147.52
1553.882	148.1
1557.117	146.76
1560.352	146.12
1563.587	146.07
1566.821	144.91
1570.055	144.3
1573.289	143.72
1576.523	143.27
1579.756	142.6
1582.989	141.52
1586.222	141.57
1589.454	141.28
1592.686	141.92
1595.918	141.52
1599.15	140.56
1602.381	141.25
1605.612	141.27
1608.843	141.55
1612.073	141.24
1615.303	142.34
1618.533	142.36
1621.762	143.02
1624.992	142.82
1628.221	142.74
1631.449	142.8
1634.678	142.81
1637.906	143.29
1641.134	143.36
1644.361	143.2
1647.588	143.81
1650.815	143.28
1654.042	143
1657.269	143.45
1660.495	143.52
1663.72	142.96
1666.946	143.67
1670.171	144.06
1673.396	143.86
1676.621	143.98
1679.845	144.55
1683.069	144.44
1686.293	145.12
1689.517	146.01
1692.74	145.99
1695.963	146.18
1699.185	147.57
1702.408	147.23
1705.63	147.68
1708.852	148.54
1712.073	148.3
1715.294	148.16
1718.515	149.07
1721.736	148.78
1724.956	148.96
1728.176	148.92
1731.396	149.67
1734.616	149.35
1737.835	150.01
1741.054	148.82
1744.272	149.24
1747.491	150.41
1750.709	150.81
1753.927	150.79
1757.144	150.18
1760.361	150.33
1763.578	150.91
1766.795	150.71
1770.011	151.21
1773.227	151.03
1776.443	152.86
1779.658	152.11
1782.874	152.3
1786.089	152.4
1789.303	152.54
1792.518	154.76
1795.732	154.76
1798.945	155.52
1802.159	156.43
1805.372	156.67
1808.585	158.69
1811.797	159.28
1815.01	160.07
1818.222	161.2
1821.434	162.39
1824.645	162.72
1827.856	164.89
1831.067	166.13
1834.278	165.29
1837.488	165.99
1840.698	166.92
1843.908	165.82
1847.117	166.42
1850.326	166.71
1853.535	165
1856.744	167.38
1859.952	166.94
1863.16	165.15
1866.368	164.03
1869.575	165.39
1872.782	162.18
1875.989	161.31
1879.196	160.61
1882.402	158.7
1885.608	158.81
1888.814	159.38
1892.019	156.89
1895.224	156.5
1898.429	155.45
1901.634	155.31
1904.838	155.02
1908.042	157.2
1911.246	156.63
1914.449	157.08
1917.652	157.33
1920.855	156.77
1924.058	156.53
1927.26	156.35
1930.462	156.8
1933.664	158.25
1936.865	157.4
1940.066	156.98
1943.267	155.38
1946.467	155.84
1949.668	156.64
1952.868	158.53
1956.067	159.1
1959.267	159.54
1962.466	159.96
1965.665	158.72
1968.863	159.86
1972.061	161.73
1975.259	162.57
1978.457	163.85
1981.654	166.4
1984.852	166.6
1988.048	165.73
1991.245	167.64
1994.441	169.57
1997.637	171.07
2000.833	174.69
2004.028	176
2007.223	177.41
2010.418	180.28
2013.613	182.97
2016.807	184.12
2020.001	186.67
2023.194	190.13
2026.388	193.67
2029.581	197.54
2032.774	199.28
2035.966	203.25
2039.158	203.97
2042.35	208.03
2045.542	208.72
2048.733	210.81
2051.924	215.38
2055.115	218.46
2058.306	218.4
2061.496	219.66
2064.686	219.92
2067.875	222.85
2071.065	224.91
2074.254	224.06
2077.442	226.34
2080.631	227.11
2083.819	231.34
2087.007	229.94
2090.195	233.1
2093.382	234.66
2096.569	234.68
2099.756	238.47
2102.942	240.15
2106.128	240.93
2109.314	246.89
2112.5	246.15
2115.685	252.15
2118.87	252.08
2122.055	257.95
2125.239	258.27
2128.424	262.14
2131.608	263.39
2134.791	266.5
2137.974	267.64
2141.157	268.54
2144.34	269.19
2147.523	272.81
2150.705	271.48
2153.887	274.72
2157.068	274.16
2160.25	272.72
2163.431	274.39
2166.611	276.9
2169.792	282.21
2172.972	286.09
2176.152	287.6
2179.331	291.08
2182.511	295.56
2185.69	298.29
2188.868	304.63
2192.047	305.1
2195.225	313.67
2198.403	320.55
2201.58	326.87
2204.758	332.4
2207.935	338.55
2211.111	344.7
2214.288	348.25
2217.464	350.33
2220.64	357.69
2223.815	359.18
2226.991	374.5
2230.166	374.75
2233.34	380.91
2236.515	388.02
2239.689	387.9
2242.863	388.73
2246.036	400.17
2249.209	398.57
2252.382	403.45
2255.555	414.64
2258.727	417.57
2261.9	420.19
2265.071	424.71
2268.243	431.8
2271.414	435.36
2274.585	445.82
2277.756	450.38
2280.926	454.77
2284.096	464.44
2287.266	474.1
2290.436	476.74
2293.605	487.3
2296.774	500.69
2299.942	515.61
2303.111	518.25
2306.279	529.25
2309.447	534.93
2312.614	548.51
2315.781	562.18
2318.948	587.11
2322.115	581.12
2325.281	612.78
2328.447	600.19
2331.613	620.34
2334.779	614.65
2337.944	642.73
2341.109	650.66
2344.274	668.49
2347.438	688.87
2350.602	687.59
2353.766	709.34
2356.929	720.6
2360.092	708.9
2363.255	760.8
2366.418	763.1
2369.58	775.73
2372.742	820.88
2375.904	841.18
2379.066	837.35
2382.227	825.82
2385.388	893.8
2388.548	893.27
2391.709	904.05
2394.869	1016.97
2398.029	972.09
2401.188	996.14
2404.347	991.59
2407.506	975.77
2410.665	1003.35
2413.823	1065.79
2416.981	1128.23
2420.139	1096.38
2423.296	1086.96
2426.453	1128.24
2429.61	1077.98
2432.767	1127.74
2435.923	1119.81
2439.079	1220.12
2442.235	1239.89
2445.391	1230.04
2448.546	1215.69
2451.701	1181
2454.855	1175.8
2458.009	1243.69
2461.163	1299.84
2464.317	1350.91
2467.471	1387.34
2470.624	1384.14
2473.777	1350.17
2476.929	1312.31
2480.082	1274.34
2483.234	1264.34
2486.385	1327.09
2489.537	1333.95
2492.688	1383.45
2495.839	1350.04
2498.989	1318.65
2502.14	1319.25
2505.29	1332.92
2508.439	1356.26
2511.589	1353.31
2514.738	1471.08
2517.887	1434.14
2521.035	1511.93
2524.183	1527.93
2527.331	1536.34
2530.479	1522.5
2533.627	1535.16
