Data from C_1_DIV_IL_4n_Splice17_12-39-06-635.txt Node
Date: Sat Mar 07 12:39:06 EST 2020
User: sa697716
Spectrometer: NQ5500242
Trigger mode: 0
Integration Time (sec): 1.450000E-1
Scans to average: 20
Nonlinearity correction enabled: false
Boxcar width: 5
Storing dark spectrum: false
XAxis mode: Wavelengths
Number of Pixels in Spectrum: 512
>>>>>Begin Spectral Data<<<<<
187.83	148.4
188.298	171.04
188.766	134.59
189.233	113.18
189.701	116.83
190.169	136.46
190.636	148.87
191.104	186.49
191.571	104.8
192.039	21.45
192.506	-466.27
192.974	168.95
193.441	309.58
193.908	56.64
194.375	19.01
194.842	-22.51
195.31	5.87
195.777	-29.44
196.244	33.9
196.711	38.59
197.177	41.42
197.644	40.73
198.111	40.29
198.578	40.68
199.045	41.3
199.511	41.09
199.978	41.29
200.445	41.5
200.911	41.1
201.378	41.1
201.844	41.25
202.31	40.71
202.777	40.82
203.243	40.61
203.709	40.41
204.176	40.12
204.642	40.16
205.108	40.03
205.574	39.77
206.04	39.59
206.506	39.08
206.972	38.73
207.438	38.66
207.903	38.21
208.369	37.83
208.835	37.32
209.301	36.56
209.766	35.82
210.232	35.12
210.697	34.5
211.163	34.14
211.628	33.77
212.094	33.13
212.559	32.9
213.024	32.29
213.49	31.7
213.955	31.19
214.42	30.95
214.885	30.4
215.35	29.74
215.815	28.64
216.28	27.26
216.745	25.82
217.21	24.55
217.675	23.15
218.14	22.12
218.604	21.21
219.069	20.43
219.534	19.71
219.998	19.16
220.463	18.67
220.927	18.24
221.392	17.89
221.856	17.61
222.32	17.31
222.785	17.13
223.249	16.89
223.713	16.7
224.177	16.49
224.642	16.3
225.106	16.1
225.57	15.91
226.034	15.73
226.497	15.58
226.961	15.42
227.425	15.26
227.889	15.07
228.353	14.91
228.816	14.72
229.28	14.56
229.744	14.41
230.207	14.25
230.671	14.1
231.134	13.95
231.597	13.8
232.061	13.65
232.524	13.53
232.987	13.38
233.45	13.27
233.914	13.16
234.377	13.04
234.84	12.91
235.303	12.8
235.766	12.7
236.229	12.59
236.691	12.48
237.154	12.37
237.617	12.26
238.08	12.15
238.542	12.03
239.005	11.93
239.468	11.81
239.93	11.71
240.393	11.61
240.855	11.49
241.317	11.4
241.78	11.3
242.242	11.21
242.704	11.12
243.166	11.04
243.629	10.96
244.091	10.86
244.553	10.78
245.015	10.69
245.477	10.6
245.939	10.52
246.4	10.44
246.862	10.36
247.324	10.29
247.786	10.21
248.247	10.13
248.709	10.06
249.17	9.98
249.632	9.92
250.093	9.86
250.555	9.79
251.016	9.74
251.477	9.67
251.939	9.62
252.4	9.57
252.861	9.52
253.322	9.48
253.783	9.43
254.244	9.4
254.705	9.35
255.166	9.31
255.627	9.26
256.088	9.22
256.549	9.18
257.009	9.13
257.47	9.09
257.931	9.05
258.391	9
258.852	8.95
259.312	8.9
259.773	8.86
260.233	8.83
260.694	8.8
261.154	8.76
261.614	8.73
262.074	8.69
262.534	8.66
262.994	8.63
263.455	8.61
263.915	8.59
264.374	8.58
264.834	8.56
265.294	8.53
265.754	8.52
266.214	8.51
266.673	8.49
267.133	8.48
267.593	8.47
268.052	8.45
268.512	8.44
268.971	8.43
269.431	8.41
269.89	8.4
270.349	8.39
270.809	8.37
271.268	8.35
271.727	8.34
272.186	8.32
272.645	8.31
273.104	8.28
273.563	8.26
274.022	8.25
274.481	8.23
274.94	8.21
275.399	8.19
275.857	8.17
276.316	8.15
276.775	8.13
277.233	8.11
277.692	8.09
278.15	8.07
278.609	8.06
279.067	8.04
279.525	8.02
279.984	8.01
280.442	7.99
280.9	7.97
281.358	7.95
281.816	7.94
282.274	7.92
282.732	7.91
283.19	7.89
283.648	7.86
284.106	7.83
284.564	7.81
285.021	7.78
285.479	7.76
285.937	7.74
286.394	7.71
286.852	7.69
287.309	7.67
287.767	7.64
288.224	7.6
288.682	7.58
289.139	7.55
289.596	7.53
290.053	7.5
290.511	7.47
290.968	7.45
291.425	7.43
291.882	7.41
292.339	7.39
292.796	7.38
293.252	7.36
293.709	7.34
294.166	7.32
294.623	7.3
295.079	7.28
295.536	7.27
295.992	7.25
296.449	7.23
296.905	7.21
297.362	7.19
297.818	7.17
298.274	7.16
298.731	7.14
299.187	7.13
299.643	7.11
300.099	7.09
300.555	7.07
301.011	7.05
301.467	7.03
301.923	7.01
302.379	7
302.835	6.98
303.291	6.96
303.746	6.94
304.202	6.94
304.658	6.93
305.113	6.92
305.569	6.91
306.024	6.9
306.479	6.89
306.935	6.87
307.39	6.86
307.845	6.85
308.301	6.84
308.756	6.83
309.211	6.8
309.666	6.81
310.121	6.8
310.576	6.79
311.031	6.78
311.486	6.77
311.94	6.76
312.395	6.75
312.85	6.75
313.305	6.73
313.759	6.73
314.214	6.72
314.668	6.69
315.123	6.68
315.577	6.66
316.032	6.64
316.486	6.62
316.94	6.61
317.394	6.59
317.849	6.56
318.303	6.55
318.757	6.53
319.211	6.51
319.665	6.49
320.119	6.47
320.572	6.44
321.026	6.43
321.48	6.42
321.934	6.41
322.387	6.4
322.841	6.39
323.295	6.38
323.748	6.36
324.202	6.35
324.655	6.34
325.108	6.33
325.562	6.33
326.015	6.33
326.468	6.31
326.921	6.3
327.374	6.28
327.827	6.28
328.28	6.27
328.733	6.27
329.186	6.26
329.639	6.25
330.092	6.25
330.545	6.24
330.997	6.23
331.45	6.23
331.903	6.23
332.355	6.23
332.808	6.22
333.26	6.22
333.713	6.21
334.165	6.21
334.617	6.21
335.069	6.19
335.522	6.19
335.974	6.18
336.426	6.17
336.878	6.16
337.33	6.15
337.782	6.14
338.234	6.13
338.686	6.11
339.137	6.11
339.589	6.1
340.041	6.1
340.493	6.09
340.944	6.07
341.396	6.05
341.847	6.04
342.299	6.02
342.75	6
343.201	5.98
343.653	5.97
344.104	5.94
344.555	5.93
345.006	5.92
345.457	5.9
345.908	5.9
346.359	5.9
346.81	5.88
347.261	5.88
347.712	5.88
348.163	5.88
348.613	5.87
349.064	5.87
349.515	5.86
349.965	5.84
350.416	5.83
350.866	5.8
351.317	5.79
351.767	5.79
352.217	5.79
352.668	5.78
353.118	5.77
353.568	5.77
354.018	5.77
354.468	5.77
354.918	5.77
355.368	5.78
355.818	5.79
356.268	5.79
356.718	5.78
357.168	5.77
357.617	5.77
358.067	5.77
358.517	5.78
358.966	5.77
359.416	5.77
359.865	5.77
360.315	5.77
360.764	5.77
361.213	5.77
361.663	5.78
362.112	5.79
362.561	5.79
363.01	5.79
363.459	5.78
363.908	5.77
364.357	5.77
364.806	5.76
365.255	5.77
365.703	5.77
366.152	5.78
366.601	5.78
367.05	5.78
367.498	5.78
367.947	5.79
368.395	5.8
368.844	5.81
369.292	5.82
369.74	5.84
370.189	5.85
370.637	5.86
371.085	5.87
371.533	5.88
371.981	5.89
372.429	5.9
372.877	5.92
373.325	5.94
373.773	5.97
374.221	5.99
374.669	6.03
375.116	6.04
375.564	6.06
376.012	6.08
376.459	6.11
376.907	6.14
377.354	6.17
377.801	6.21
378.249	6.25
378.696	6.27
379.143	6.31
379.591	6.34
380.038	6.38
380.485	6.42
380.932	6.47
381.379	6.5
381.826	6.55
382.273	6.59
382.72	6.63
383.166	6.67
383.613	6.7
384.06	6.74
384.506	6.78
384.953	6.83
385.4	6.88
385.846	6.93
386.292	6.98
386.739	7.01
387.185	7.05
387.631	7.1
388.078	7.14
388.524	7.19
388.97	7.23
389.416	7.28
389.862	7.31
390.308	7.36
390.754	7.4
391.2	7.44
391.645	7.47
392.091	7.53
392.537	7.56
392.983	7.61
393.428	7.63
393.874	7.67
394.319	7.69
394.765	7.7
395.21	7.72
395.655	7.73
396.101	7.76
396.546	7.77
396.991	7.79
397.436	7.8
397.881	7.82
398.326	7.85
398.771	7.87
399.216	7.89
399.661	7.9
400.106	7.9
400.551	7.91
400.995	7.9
401.44	7.9
401.885	7.89
402.329	7.9
402.774	7.89
403.218	7.89
403.663	7.88
404.107	7.88
404.551	7.86
404.995	7.86
405.44	7.85
405.884	7.85
406.328	7.84
406.772	7.83
407.216	7.81
407.66	7.8
408.104	7.78
408.547	7.77
408.991	7.76
409.435	7.75
409.879	7.74
410.322	7.75
410.766	7.76
411.209	7.76
411.653	7.77
412.096	7.76
412.54	7.76
412.983	7.76
413.426	7.79
413.869	7.79
414.312	7.8
414.756	7.81
415.199	7.78
415.642	7.77
416.085	7.76
416.527	7.74
416.97	7.73
417.413	7.72
417.856	7.7
418.298	7.67
418.741	7.66
419.184	7.65
419.626	7.64
420.069	7.64
420.511	7.62
420.953	7.62
421.396	7.62
421.838	7.62
422.28	7.62
422.722	7.63
423.164	7.62
423.606	7.61
424.048	7.61
424.49	7.6
424.932	7.59
425.374	7.58
425.816	7.55
426.258	7.53
426.699	7.51
427.141	7.49
427.582	7.49
428.024	7.49
428.465	7.49
428.907	7.47
429.348	7.45
429.789	7.44
430.231	7.45
430.672	7.46
431.113	7.49
431.554	7.5
431.995	7.51
432.436	7.5
432.877	7.51
433.318	7.53
433.759	7.55
434.2	7.58
434.64	7.6
435.081	7.6
435.522	7.61
435.962	7.62
436.403	7.63
436.843	7.65
437.284	7.65
437.724	7.64
438.164	7.64
438.604	7.64
439.045	7.65
439.485	7.66
439.925	7.67
440.365	7.67
440.805	7.67
441.245	7.68
441.685	7.7
442.125	7.73
442.564	7.75
443.004	7.76
443.444	7.78
443.883	7.8
444.323	7.81
444.762	7.84
445.202	7.87
445.641	7.9
446.081	7.93
446.52	7.95
446.959	7.99
447.398	8.02
447.837	8.04
448.276	8.07
448.716	8.1
449.154	8.14
449.593	8.17
450.032	8.18
450.471	8.2
450.91	8.21
451.349	8.24
451.787	8.24
452.226	8.24
452.664	8.25
453.103	8.25
453.541	8.25
453.98	8.26
454.418	8.24
454.856	8.24
455.295	8.24
455.733	8.22
456.171	8.21
456.609	8.2
457.047	8.21
457.485	8.2
457.923	8.2
458.361	8.19
458.798	8.17
459.236	8.17
459.674	8.17
460.111	8.17
460.549	8.18
460.987	8.18
461.424	8.19
461.862	8.2
462.299	8.21
462.736	8.22
463.173	8.22
463.611	8.24
464.048	8.24
464.485	8.24
464.922	8.25
465.359	8.25
465.796	8.25
466.233	8.26
466.67	8.26
467.106	8.26
467.543	8.26
467.98	8.26
468.416	8.25
468.853	8.25
469.29	8.25
469.726	8.26
470.162	8.26
470.599	8.26
471.035	8.24
471.471	8.24
471.907	8.23
472.344	8.22
472.78	8.22
473.216	8.22
473.652	8.21
474.088	8.2
474.523	8.21
474.959	8.22
475.395	8.2
475.831	8.21
476.266	8.21
476.702	8.21
477.138	8.21
477.573	8.22
478.008	8.22
478.444	8.23
478.879	8.22
479.314	8.2
479.75	8.2
480.185	8.21
480.62	8.2
481.055	8.2
481.49	8.19
481.925	8.19
482.36	8.19
482.795	8.19
483.229	8.19
483.664	8.21
484.099	8.23
484.534	8.23
484.968	8.25
485.403	8.27
485.837	8.3
486.271	8.34
486.706	8.37
487.14	8.4
487.574	8.43
488.009	8.47
488.443	8.5
488.877	8.54
489.311	8.59
489.745	8.63
490.179	8.68
490.613	8.73
491.046	8.78
491.48	8.84
491.914	8.9
492.348	8.98
492.781	9.05
493.215	9.13
493.648	9.21
494.082	9.3
494.515	9.38
494.948	9.48
495.382	9.57
495.815	9.68
496.248	9.78
496.681	9.89
497.114	10
497.547	10.11
497.98	10.25
498.413	10.36
498.846	10.5
499.279	10.64
499.711	10.79
500.144	10.95
500.577	11.11
501.009	11.27
501.442	11.44
501.874	11.63
502.306	11.82
502.739	12.02
503.171	12.23
503.603	12.44
504.036	12.67
504.468	12.88
504.9	13.1
505.332	13.34
505.764	13.58
506.196	13.82
506.627	14.09
507.059	14.34
507.491	14.6
507.923	14.87
508.354	15.16
508.786	15.44
509.217	15.75
509.649	16.07
510.08	16.38
510.512	16.7
510.943	17.02
511.374	17.33
511.805	17.66
512.237	17.98
512.668	18.33
513.099	18.66
513.53	19.01
513.961	19.35
514.391	19.68
514.822	20.05
515.253	20.42
515.684	20.78
516.114	21.15
516.545	21.52
516.975	21.88
517.406	22.23
517.836	22.58
518.267	22.96
518.697	23.3
519.127	23.64
519.558	23.96
519.988	24.29
520.418	24.62
520.848	24.94
521.278	25.28
521.708	25.7
522.138	26.01
522.567	26.33
522.997	26.61
523.427	26.91
523.857	27.19
524.286	27.45
524.716	27.7
525.145	27.95
525.575	28.2
526.004	28.43
526.433	28.53
526.863	28.75
527.292	28.95
527.721	29.14
528.15	29.32
528.579	29.49
529.008	29.67
529.437	29.84
529.866	30
530.295	30.14
530.724	30.29
531.152	30.44
531.581	30.58
532.01	30.69
532.438	30.82
532.867	30.94
533.295	31.06
533.723	31.16
534.152	31.25
534.58	31.34
535.008	31.43
535.436	31.51
535.865	31.57
536.293	31.62
536.721	31.7
537.149	31.76
537.576	31.81
538.004	31.88
538.432	31.92
538.86	31.98
539.287	32.01
539.715	32.06
540.143	32.09
540.57	32.15
540.998	32.2
541.425	32.23
541.852	32.26
542.28	32.3
542.707	32.32
543.134	32.36
543.561	32.38
543.988	32.44
544.415	32.46
544.842	32.47
545.269	32.49
545.696	32.52
546.123	32.54
546.549	32.55
546.976	32.58
547.403	32.6
547.829	32.61
548.256	32.64
548.682	32.64
549.108	32.66
549.535	32.68
549.961	32.69
550.387	32.68
550.813	32.69
551.24	32.68
551.666	32.65
552.092	32.63
552.518	32.61
552.943	32.57
553.369	32.54
553.795	32.51
554.221	32.48
554.646	32.43
555.072	32.36
555.498	32.3
555.923	32.24
556.349	32.19
556.774	32.12
557.199	32.06
557.625	31.98
558.05	31.9
558.475	31.82
558.9	31.72
559.325	31.64
559.75	31.54
560.175	31.45
560.6	31.33
561.025	31.22
561.449	31.09
561.874	30.95
562.299	30.82
562.723	30.67
563.148	30.51
563.572	30.35
563.997	30.2
564.421	30.05
564.846	29.89
565.27	29.72
565.694	29.55
566.118	29.4
566.542	29.23
566.966	29.06
567.39	28.89
567.814	28.73
568.238	28.57
568.662	28.39
569.086	28.22
569.509	28.05
569.933	27.91
570.357	27.74
570.78	27.57
571.204	27.4
571.627	27.24
572.05	27.07
572.474	26.93
572.897	26.77
573.32	26.62
573.743	26.47
574.166	26.31
574.589	26.17
575.012	26.02
575.435	25.88
575.858	25.75
576.281	25.61
576.704	25.49
577.126	25.35
577.549	25.23
577.972	25.09
578.394	24.98
578.817	24.86
579.239	24.75
579.661	24.63
580.084	24.52
580.506	24.42
580.928	24.32
581.35	24.22
581.772	24.11
582.194	24.02
582.616	23.93
583.038	23.84
583.46	23.73
583.882	23.64
584.303	23.56
584.725	23.48
585.147	23.39
585.568	23.32
585.99	23.23
586.411	23.16
586.833	23.07
587.254	22.99
587.675	22.91
588.096	22.85
588.518	22.78
588.939	22.72
589.36	22.63
589.781	22.58
590.202	22.52
590.623	22.46
591.043	22.41
591.464	22.36
591.885	22.31
592.305	22.26
592.726	22.22
593.147	22.18
593.567	22.14
593.987	22.11
594.408	22.05
594.828	22.01
595.248	21.98
595.669	21.93
596.089	21.89
596.509	21.86
596.929	21.83
597.349	21.78
597.769	21.73
598.189	21.69
598.608	21.65
599.028	21.62
599.448	21.58
599.867	21.53
600.287	21.5
600.706	21.45
601.126	21.39
601.545	21.33
601.965	21.28
602.384	21.24
602.803	21.18
603.222	21.11
603.641	21.04
604.061	20.96
604.48	20.89
604.898	20.8
605.317	20.73
605.736	20.64
606.155	20.57
606.574	20.48
606.992	20.38
607.411	20.28
607.829	20.16
608.248	20.07
608.666	19.97
609.085	19.87
609.503	19.79
609.921	19.68
610.339	19.59
610.758	19.48
611.176	19.39
611.594	19.3
612.012	19.2
612.43	19.12
612.847	19.02
613.265	18.93
613.683	18.84
614.101	18.74
614.518	18.64
614.936	18.55
615.353	18.45
615.771	18.37
616.188	18.28
616.606	18.2
617.023	18.12
617.44	18.05
617.857	17.99
618.274	17.91
618.691	17.85
619.108	17.79
619.525	17.73
619.942	17.68
620.359	17.63
620.776	17.58
621.192	17.54
621.609	17.52
622.026	17.47
622.442	17.44
622.859	17.42
623.275	17.38
623.691	17.37
624.108	17.36
624.524	17.34
624.94	17.32
625.356	17.3
625.772	17.28
626.188	17.25
626.604	17.25
627.02	17.24
627.436	17.23
627.852	17.23
628.268	17.21
628.683	17.19
629.099	17.18
629.514	17.17
629.93	17.16
630.345	17.13
630.761	17.08
631.176	17.05
631.591	17
632.007	16.94
632.422	16.89
632.837	16.82
633.252	16.75
633.667	16.67
634.082	16.57
634.497	16.47
634.911	16.37
635.326	16.26
635.741	16.14
636.155	16
636.57	15.88
636.984	15.74
637.399	15.59
637.813	15.45
638.228	15.29
638.642	15.13
639.056	14.99
639.47	14.84
639.884	14.69
640.298	14.52
640.712	14.38
641.126	14.22
641.54	14.07
641.954	13.92
642.368	13.76
642.781	13.62
643.195	13.48
643.609	13.33
644.022	13.18
644.436	13.06
644.849	12.94
645.262	12.8
645.676	12.68
646.089	12.57
646.502	12.46
646.915	12.37
647.328	12.28
647.741	12.19
648.154	12.11
648.567	12.04
648.98	11.96
649.393	11.9
649.805	11.85
650.218	11.78
650.631	11.74
651.043	11.67
651.456	11.61
651.868	11.55
652.28	11.5
652.693	11.45
653.105	11.39
653.517	11.33
653.929	11.26
654.341	11.19
654.753	11.12
655.165	11.02
655.577	10.95
655.989	10.86
656.401	10.77
656.813	10.67
657.224	10.56
657.636	10.45
658.047	10.35
658.459	10.24
658.87	10.12
659.282	10
659.693	9.89
660.104	9.76
660.515	9.65
660.926	9.53
661.338	9.42
661.749	9.32
662.159	9.21
662.57	9.11
662.981	9.02
663.392	8.93
663.803	8.84
664.213	8.76
664.624	8.68
665.035	8.6
665.445	8.53
665.855	8.47
666.266	8.42
666.676	8.37
667.086	8.31
667.497	8.26
667.907	8.21
668.317	8.17
668.727	8.14
669.137	8.12
669.547	8.09
669.956	8.07
670.366	8.05
670.776	8.02
671.186	8.02
671.595	8.02
672.005	8.02
672.414	8.03
672.824	8.03
673.233	8.04
673.642	8.06
674.052	8.08
674.461	8.09
674.87	8.11
675.279	8.15
675.688	8.17
676.097	8.2
676.506	8.23
676.915	8.27
677.323	8.32
677.732	8.35
678.141	8.4
678.549	8.44
678.958	8.51
679.366	8.59
679.775	8.65
680.183	8.73
680.592	8.84
681	8.96
681.408	9.07
681.816	9.21
682.224	9.37
682.632	9.53
683.04	9.71
683.448	9.93
683.856	10.15
684.264	10.4
684.671	10.67
685.079	10.96
685.487	11.28
685.894	11.64
686.302	12.02
686.709	12.42
687.116	12.86
687.524	13.34
687.931	13.82
688.338	14.34
688.745	14.89
689.152	15.46
689.559	16.07
689.966	16.68
690.373	17.3
690.78	17.96
691.187	18.62
691.593	19.3
692	19.99
692.407	20.68
692.813	21.39
693.22	22.09
693.626	22.79
694.032	23.5
694.439	24.21
694.845	24.92
695.251	25.63
695.657	26.32
696.063	27.02
696.469	27.71
696.875	28.4
697.281	29.08
697.687	29.74
698.093	30.42
698.498	31.06
698.904	31.7
699.31	32.3
699.715	32.89
700.12	33.5
700.526	34.08
700.931	34.65
701.337	35.2
701.742	35.72
702.147	36.24
702.552	36.76
702.957	37.23
703.362	37.71
703.767	38.18
704.172	38.65
704.577	39.11
704.981	39.57
705.386	40
705.791	40.44
706.195	40.89
706.6	41.32
707.004	41.69
707.408	42.11
707.813	42.5
708.217	42.91
708.621	43.3
709.025	43.68
709.43	44.03
709.834	44.39
710.237	44.73
710.641	45.06
711.045	45.39
711.449	45.77
711.853	46.1
712.256	46.44
712.66	46.75
713.064	47.07
713.467	47.35
713.87	47.65
714.274	47.93
714.677	48.22
715.08	48.49
715.484	48.76
715.887	49.04
716.29	49.31
716.693	49.57
717.096	49.82
717.499	50.07
717.901	50.32
718.304	50.57
718.707	50.83
719.109	51.09
719.512	51.32
719.915	51.55
720.317	51.73
720.719	51.92
721.122	52.13
721.524	52.33
721.926	52.51
722.328	52.71
722.731	52.87
723.133	53.07
723.535	53.21
723.937	53.39
724.338	53.55
724.74	53.73
725.142	53.91
725.544	54.02
725.945	54.19
726.347	54.32
726.748	54.43
727.15	54.55
727.551	54.67
727.952	54.79
728.354	54.86
728.755	54.97
729.156	55.07
729.557	55.12
729.958	55.22
730.359	55.29
730.76	55.4
731.161	55.49
731.562	55.58
731.962	55.6
732.363	55.67
732.763	55.76
733.164	55.82
733.564	55.86
733.965	55.91
734.365	55.98
734.766	56.04
735.166	56.07
735.566	56.14
735.966	56.2
736.366	56.27
736.766	56.32
737.166	56.37
737.566	56.42
737.966	56.47
738.365	56.53
738.765	56.6
739.165	56.64
739.564	56.67
739.964	56.68
740.363	56.71
740.763	56.74
741.162	56.76
741.561	56.76
741.96	56.78
742.36	56.82
742.759	56.82
743.158	56.81
743.557	56.78
743.955	56.81
744.354	56.84
744.753	56.86
745.152	56.91
745.55	56.95
745.949	57.01
746.348	57.05
746.746	57.06
747.144	57.1
747.543	57.13
747.941	57.17
748.339	57.17
748.737	57.2
749.136	57.22
749.534	57.19
749.932	57.18
750.33	57.2
750.727	57.21
751.125	57.24
751.523	57.24
751.921	57.25
752.318	57.27
752.716	57.28
753.113	57.28
753.511	57.26
753.908	57.33
754.305	57.33
754.703	57.29
755.1	57.29
755.497	57.26
755.894	57.26
756.291	57.27
756.688	57.24
757.085	57.24
757.482	57.24
757.878	57.26
758.275	57.21
758.672	57.2
759.068	57.24
759.465	57.26
759.861	57.25
760.258	57.25
760.654	57.25
761.05	57.26
761.447	57.27
761.843	57.28
762.239	57.25
762.635	57.25
763.031	57.26
763.427	57.24
763.822	57.22
764.218	57.21
764.614	57.21
765.01	57.22
765.405	57.21
765.801	57.19
766.196	57.18
766.592	57.15
766.987	57.14
767.382	57.12
767.778	57.11
768.173	57.09
768.568	57.07
768.963	57.04
769.358	57.02
769.753	57.02
770.148	57
770.542	57
770.937	57.02
771.332	57
771.726	57.04
772.121	57.03
772.515	57.02
772.91	57.02
773.304	57.05
773.699	57.07
774.093	57.05
774.487	57.06
774.881	57.04
775.275	57.04
775.669	57.02
776.063	56.97
776.457	56.96
776.851	56.96
777.245	56.93
777.638	56.93
778.032	56.91
778.425	56.94
778.819	56.95
779.212	56.95
779.606	56.94
779.999	56.94
780.392	56.98
780.786	56.99
781.179	57.01
781.572	57.05
781.965	57.05
782.358	57.08
782.751	57.05
783.143	57.05
783.536	57.04
783.929	57.05
784.322	57.09
784.714	57.09
785.107	57.1
785.499	57.08
785.891	57.08
786.284	57.11
786.676	57.07
787.068	57.06
787.46	57.09
787.852	57.11
788.245	57.1
788.636	57.08
789.028	57.07
789.42	57.04
789.812	57.05
790.204	57.02
790.595	56.99
790.987	57
791.378	57
791.77	56.98
792.161	56.96
792.553	56.97
792.944	56.95
793.335	56.97
793.726	57.01
794.117	56.98
794.508	56.97
794.899	56.97
795.29	56.96
795.681	56.95
796.072	56.94
796.463	56.93
796.853	56.91
797.244	56.93
797.634	56.91
798.025	56.9
798.415	56.89
798.806	56.91
799.196	56.91
799.586	56.9
799.976	56.92
800.366	56.93
800.756	56.97
801.146	56.96
801.536	56.96
801.926	56.95
802.316	56.95
802.706	56.99
803.095	56.99
803.485	56.98
803.874	56.99
804.264	56.96
804.653	56.95
805.043	56.93
805.432	56.93
805.821	56.95
806.21	56.94
806.599	56.93
806.988	56.89
807.377	56.88
807.766	56.88
808.155	56.84
808.544	56.87
808.933	56.86
809.321	56.85
809.71	56.85
810.098	56.83
810.487	56.79
810.875	56.78
811.264	56.77
811.652	56.76
812.04	56.75
812.428	56.81
812.816	56.8
813.204	56.8
813.592	56.77
813.98	56.78
814.368	56.75
814.756	56.78
815.144	56.77
815.531	56.77
815.919	56.75
816.306	56.75
816.694	56.71
817.081	56.7
817.469	56.69
817.856	56.68
818.243	56.66
818.63	56.67
819.017	56.65
819.404	56.65
819.791	56.65
820.178	56.66
820.565	56.63
820.952	56.64
821.339	56.64
821.725	56.64
822.112	56.66
822.498	56.7
822.885	56.72
823.271	56.73
823.657	56.72
824.044	56.71
824.43	56.73
824.816	56.74
825.202	56.74
825.588	56.73
825.974	56.72
826.36	56.73
826.746	56.69
827.132	56.71
827.517	56.71
827.903	56.75
828.289	56.75
828.674	56.74
829.06	56.73
829.445	56.71
829.83	56.73
830.216	56.71
830.601	56.7
830.986	56.7
831.371	56.65
831.756	56.65
832.141	56.62
832.526	56.62
832.911	56.61
833.295	56.62
833.68	56.64
834.065	56.63
834.449	56.61
834.834	56.59
835.218	56.59
835.603	56.58
835.987	56.56
836.371	56.55
836.755	56.52
837.139	56.53
837.524	56.51
837.908	56.52
838.291	56.54
838.675	56.57
839.059	56.56
839.443	56.55
839.827	56.54
840.21	56.54
840.594	56.56
840.977	56.54
841.361	56.53
841.744	56.52
842.127	56.5
842.511	56.45
842.894	56.45
843.277	56.47
843.66	56.46
844.043	56.47
844.426	56.5
844.809	56.51
845.191	56.55
845.574	56.54
845.957	56.56
846.339	56.57
846.722	56.61
847.104	56.6
847.487	56.59
847.869	56.59
848.252	56.58
848.634	56.56
849.016	56.58
849.398	56.56
849.78	56.59
850.162	56.58
850.544	56.54
850.926	56.51
851.307	56.53
851.689	56.55
852.071	56.56
852.452	56.55
852.834	56.54
853.215	56.49
853.597	56.51
853.978	56.48
854.359	56.48
854.741	56.5
855.122	56.51
855.503	56.49
855.884	56.46
856.265	56.45
856.646	56.44
857.026	56.46
857.407	56.49
857.788	56.47
858.169	56.47
858.549	56.45
858.93	56.46
859.31	56.43
859.69	56.46
860.071	56.5
860.451	56.51
860.831	56.51
861.211	56.46
861.591	56.43
861.971	56.43
862.351	56.43
862.731	56.44
863.111	56.43
863.491	56.46
863.87	56.42
864.25	56.4
864.629	56.4
865.009	56.41
865.388	56.41
865.768	56.44
866.147	56.43
866.526	56.4
866.905	56.41
867.284	56.41
867.663	56.36
868.042	56.38
868.421	56.38
868.8	56.38
869.179	56.38
869.558	56.39
869.936	56.38
870.315	56.39
870.693	56.4
871.072	56.41
871.45	56.43
871.828	56.47
872.207	56.47
872.585	56.45
872.963	56.45
873.341	56.44
873.719	56.46
874.097	56.46
874.475	56.47
874.853	56.51
875.23	56.52
875.608	56.51
875.986	56.52
876.363	56.53
876.741	56.51
877.118	56.53
877.495	56.54
877.873	56.51
878.25	56.53
878.627	56.53
879.004	56.49
879.381	56.48
879.758	56.44
880.135	56.43
880.512	56.44
880.889	56.48
881.265	56.46
881.642	56.47
882.019	56.49
882.395	56.46
882.772	56.47
883.148	56.47
883.524	56.46
883.901	56.48
884.277	56.45
884.653	56.41
885.029	56.37
885.405	56.35
885.781	56.34
886.157	56.35
886.532	56.35
886.908	56.31
887.284	56.3
887.659	56.29
888.035	56.28
888.411	56.3
888.786	56.31
889.161	56.33
889.537	56.35
889.912	56.34
890.287	56.34
890.662	56.33
891.037	56.35
891.412	56.34
891.787	56.32
892.162	56.31
892.536	56.3
892.911	56.29
893.286	56.29
893.66	56.27
894.035	56.27
894.409	56.27
894.784	56.25
895.158	56.24
895.532	56.26
895.906	56.28
896.281	56.27
896.655	56.25
897.029	56.26
897.402	56.25
897.776	56.25
898.15	56.25
898.524	56.26
898.898	56.27
899.271	56.27
899.645	56.26
900.018	56.27
900.392	56.3
900.765	56.32
901.138	56.32
901.511	56.34
901.884	56.34
902.258	56.33
902.631	56.32
903.003	56.35
903.376	56.34
903.749	56.34
904.122	56.35
904.495	56.36
904.867	56.38
905.24	56.39
905.612	56.39
905.985	56.39
906.357	56.41
906.729	56.42
907.102	56.41
907.474	56.4
907.846	56.4
908.218	56.39
908.59	56.4
908.962	56.37
909.334	56.38
909.705	56.39
910.077	56.37
910.449	56.35
910.82	56.32
911.192	56.33
911.563	56.32
911.935	56.32
912.306	56.34
912.677	56.32
913.048	56.32
913.419	56.26
913.79	56.25
914.161	56.26
914.532	56.25
914.903	56.26
915.274	56.26
915.645	56.26
916.015	56.3
916.386	56.26
916.756	56.26
917.127	56.27
917.497	56.31
917.868	56.32
918.238	56.3
918.608	56.32
918.978	56.32
919.348	56.34
919.718	56.31
920.088	56.28
920.458	56.3
920.828	56.31
921.198	56.27
921.567	56.28
921.937	56.28
922.306	56.28
922.676	56.28
923.045	56.27
923.415	56.24
923.784	56.26
924.153	56.27
924.522	56.25
924.891	56.22
925.26	56.22
925.629	56.22
925.998	56.2
926.367	56.23
926.736	56.21
927.104	56.21
927.473	56.21
927.842	56.16
928.21	56.16
928.578	56.11
928.947	56.12
929.315	56.13
929.683	56.09
930.051	56.04
930.42	55.98
930.788	55.91
931.156	55.87
931.523	55.83
931.891	55.88
932.259	55.85
932.627	55.85
932.994	55.83
933.362	55.74
933.729	55.74
934.097	55.76
934.464	55.76
934.831	55.77
935.199	55.79
935.566	55.77
935.933	55.74
936.3	55.71
936.667	55.72
937.034	55.78
937.401	55.84
937.767	55.86
938.134	55.84
938.501	55.85
938.867	55.87
939.234	55.85
939.6	55.88
939.967	55.85
940.333	55.84
940.699	55.87
941.065	55.78
941.431	55.76
941.798	55.7
942.163	55.74
942.529	55.74
942.895	55.69
943.261	55.69
943.627	55.67
943.992	55.7
944.358	55.72
944.723	55.71
945.089	55.68
945.454	55.71
945.82	55.74
946.185	55.7
946.55	55.66
946.915	55.71
947.28	55.71
947.645	55.74
948.01	55.71
948.375	55.67
948.74	55.65
949.104	55.72
949.469	55.7
949.834	55.67
950.198	55.59
950.562	55.54
950.927	55.52
951.291	55.44
951.655	55.32
952.02	55.31
952.384	55.31
952.748	55.22
953.112	55.15
953.476	55.09
953.839	55.02
954.203	55.04
954.567	55.04
954.931	54.99
955.294	54.97
955.658	55.09
956.021	55.08
956.385	55.01
956.748	55.04
957.111	55.01
957.474	55.03
957.837	55.05
958.2	55.02
958.563	55.02
958.926	55.08
959.289	55.12
959.652	55.03
960.015	55.01
960.377	55.03
960.74	55.04
961.102	55.06
961.465	55.05
961.827	55.09
962.189	55.13
962.552	55.12
962.914	55.06
963.276	55.06
963.638	55.08
964	55.06
964.362	55.14
964.724	55.09
965.085	55.03
965.447	55.03
965.809	55.03
966.17	54.99
966.532	55.01
966.893	55.04
967.255	55.06
967.616	55.07
967.977	55.08
968.338	54.99
968.699	55.04
969.061	55.08
969.421	55.09
969.782	55.05
970.143	55.05
970.504	55
970.865	54.99
971.225	54.95
971.586	54.92
971.946	54.9
972.307	54.94
972.667	54.93
973.027	54.92
973.388	54.91
973.748	54.97
974.108	55.04
974.468	55.08
974.828	55.14
975.188	55.11
975.548	55.1
975.907	55.14
976.267	55.13
976.627	55.12
976.986	55.04
977.346	55.04
977.705	54.95
978.064	54.87
978.424	54.84
978.783	54.73
979.142	54.75
979.501	54.72
979.86	54.7
980.219	54.72
980.578	54.78
980.937	54.85
981.296	54.84
981.654	54.83
982.013	54.82
982.371	54.8
982.73	54.79
983.088	54.81
983.447	54.8
983.805	54.77
984.163	54.67
984.521	54.55
984.879	54.5
985.237	54.48
985.595	54.46
985.953	54.52
986.311	54.46
986.669	54.49
987.026	54.44
987.384	54.53
987.741	54.48
988.099	54.52
988.456	54.49
988.814	54.57
989.171	54.54
989.528	54.6
989.885	54.48
990.242	54.55
990.599	54.57
990.956	54.59
991.313	54.56
991.67	54.57
992.027	54.64
992.383	54.81
992.74	54.79
993.096	54.81
993.453	54.83
993.809	54.89
994.165	54.88
994.522	54.89
994.878	55.02
995.234	54.95
995.59	55.02
995.946	54.99
996.302	54.86
996.658	54.89
997.013	54.83
997.369	54.81
997.725	54.83
998.08	54.89
998.436	54.9
998.791	54.8
999.147	54.87
999.502	54.88
999.857	54.82
1000.212	54.79
1000.567	54.79
1000.922	54.76
1001.277	54.78
1001.632	54.69
1001.987	54.67
1002.342	54.65
1002.696	54.61
1003.051	54.71
1003.406	54.76
1003.76	54.8
1004.114	54.77
1004.469	54.77
1004.823	55.15
1005.177	55.16
1005.531	55.4
1005.885	55.34
1006.239	55.36
1006.593	55.43
1006.947	55.27
1007.301	55.16
1007.655	55.08
1008.008	55.25
1008.362	55.3
1008.715	54.96
1009.069	54.94
1009.422	54.83
1009.776	54.9
1010.129	54.8
1010.482	54.78
1010.835	54.89
1011.188	54.96
1011.541	54.99
1011.894	54.87
1012.247	54.78
1012.6	54.8
1012.952	54.87
1013.305	54.91
1013.657	54.87
1014.01	54.93
1014.362	54.93
1014.715	54.83
1015.067	54.8
1015.419	54.9
1015.771	54.82
1016.123	54.71
1016.475	54.94
1016.827	54.81
1017.179	54.7
1017.531	54.67
1017.883	54.63
1018.234	54.64
1018.586	54.61
1018.938	54.47
1019.289	54.25
1019.64	54.35
1019.992	54.38
1020.343	54.05
1020.694	54.06
1021.045	53.99
1021.396	53.89
1021.747	53.87
1022.098	53.99
1022.449	54.01
1022.8	54.12
1023.151	54.07
1023.501	54.11
1023.852	54.2
1024.202	54.2
1024.553	54.12
1024.903	54.24
1025.253	54.51
1025.604	54.54
1025.954	54.33
1026.304	54.33
1026.654	54.54
1027.004	54.58
1027.354	54.45
1027.703	54.27
1028.053	54.27
1028.403	54.53
1028.753	54.3
1029.102	54.38
1029.452	54.59
1029.801	54.76
1030.15	54.77
1030.499	54.51
897.758	806.68
901.051	812.39
904.343	811.71
907.636	826.78
910.928	805.54
914.22	806.92
917.511	800.85
920.803	762.15
924.094	761.77
927.384	745.98
930.675	715.11
933.965	714.52
937.255	675.46
940.544	649.15
943.834	621.25
947.123	615.51
950.411	580.37
953.7	568.4
956.988	541.21
960.276	522.56
963.563	513.07
966.851	497.74
970.138	493.43
973.424	478.45
976.711	480.53
979.997	457.6
983.283	454.49
986.568	447.28
989.853	434.69
993.138	427.2
996.423	410.04
999.708	399.91
1002.992	394.6
1006.275	377.94
1009.559	375.64
1012.842	362.98
1016.125	355.42
1019.408	350.71
1022.69	345.86
1025.972	338.64
1029.254	331.22
1032.536	326.56
1035.817	321.3
1039.098	318.3
1042.379	313.55
1045.659	309.09
1048.939	303.05
1052.219	295.75
1055.498	292.43
1058.778	285.28
1062.057	280.17
1065.335	277.73
1068.614	274.1
1071.892	271.51
1075.17	264.22
1078.447	258.79
1081.724	257.11
1085.001	255.1
1088.278	251.1
1091.554	246.29
1094.83	247.01
1098.106	245.1
1101.382	244.07
1104.657	243.16
1107.932	238.51
1111.206	238.96
1114.481	234.58
1117.755	232.75
1121.029	230.71
1124.302	230.58
1127.575	226.09
1130.848	223.98
1134.121	222.24
1137.393	219.95
1140.665	215.35
1143.937	214.64
1147.208	214.06
1150.48	212.47
1153.75	210.75
1157.021	208.61
1160.291	208.45
1163.561	206.43
1166.831	206.46
1170.101	204.99
1173.37	204.97
1176.639	205.76
1179.907	204.06
1183.176	201.89
1186.444	201.89
1189.711	200.76
1192.979	200.14
1196.246	199.06
1199.513	200.32
1202.78	198.69
1206.046	198.78
1209.312	197.2
1212.578	196.83
1215.843	198.11
1219.108	197.24
1222.373	200.75
1225.638	202.28
1228.902	204.14
1232.166	204.75
1235.43	205.24
1238.693	208.49
1241.956	209.01
1245.219	211.16
1248.482	212.51
1251.744	212.17
1255.006	212.16
1258.268	207.63
1261.529	206.72
1264.79	205.38
1268.051	203.85
1271.312	201.93
1274.572	199.74
1277.832	198.89
1281.092	195.89
1284.351	194.04
1287.61	194.3
1290.869	192.03
1294.128	191.26
1297.386	190.7
1300.644	189.56
1303.902	190.38
1307.159	189.92
1310.416	188.78
1313.673	188.17
1316.93	189.94
1320.186	189.76
1323.442	190.28
1326.697	192.56
1329.953	192.96
1333.208	193.2
1336.463	195.15
1339.717	194.69
1342.972	196.34
1346.226	198.11
1349.479	198.47
1352.733	199.36
1355.986	200.98
1359.238	199.91
1362.491	200.67
1365.743	201.58
1368.995	201.07
1372.247	201.26
1375.498	200.43
1378.749	201.4
1382	198.37
1385.251	198.34
1388.501	196.45
1391.751	195.11
1395	194.07
1398.25	192.53
1401.499	190.13
1404.748	189.65
1407.996	187.01
1411.244	186.44
1414.492	184.22
1417.74	182.61
1420.987	180.01
1424.234	179.3
1427.481	176.77
1430.728	176.4
1433.974	175.2
1437.22	173.35
1440.465	173.09
1443.711	170.41
1446.956	168.6
1450.201	167.43
1453.445	166.23
1456.689	165.65
1459.933	162.95
1463.177	162.08
1466.42	160.18
1469.663	157.52
1472.906	157.39
1476.148	153.59
1479.391	151.9
1482.633	151.5
1485.874	149.25
1489.115	147.87
1492.356	146.3
1495.597	146.32
1498.838	144.71
1502.078	144.05
1505.318	144.09
1508.557	143.82
1511.797	143.82
1515.036	144.05
1518.274	143.06
1521.513	142.64
1524.751	142.46
1527.989	142.66
1531.227	142.44
1534.464	142.64
1537.701	142.08
1540.938	141.75
1544.174	140.8
1547.41	141.26
1550.646	140.65
1553.882	141.48
1557.117	139.99
1560.352	139.51
1563.587	139.75
1566.821	139.11
1570.055	138.33
1573.289	137.63
1576.523	137.88
1579.756	136.92
1582.989	136.67
1586.222	136.02
1589.454	135.39
1592.686	137.08
1595.918	136.43
1599.15	135.72
1602.381	135.86
1605.612	135.95
1608.843	136.52
1612.073	135.88
1615.303	137.32
1618.533	137.15
1621.762	138.06
1624.992	138.35
1628.221	137.67
1631.449	138.07
1634.678	138.19
1637.906	139.17
1641.134	138.99
1644.361	138.73
1647.588	139.6
1650.815	138.95
1654.042	138.57
1657.269	138.91
1660.495	139.15
1663.72	139.03
1666.946	139.65
1670.171	139.95
1673.396	139.34
1676.621	139.77
1679.845	140.35
1683.069	139.9
1686.293	140.96
1689.517	141.02
1692.74	140.96
1695.963	141.09
1699.185	141.94
1702.408	141.79
1705.63	142.36
1708.852	143.58
1712.073	142.62
1715.294	142.44
1718.515	143.88
1721.736	143.21
1724.956	143.47
1728.176	143.4
1731.396	143.91
1734.616	143.61
1737.835	144.22
1741.054	142.66
1744.272	142.58
1747.491	143.87
1750.709	144.54
1753.927	143.62
1757.144	143.62
1760.361	144.22
1763.578	144.71
1766.795	144.29
1770.011	145
1773.227	144.98
1776.443	146.01
1779.658	145.8
1782.874	146.03
1786.089	145.91
1789.303	146.41
1792.518	147.17
1795.732	147.23
1798.945	147.74
1802.159	148.56
1805.372	148.67
1808.585	150.33
1811.797	151.53
1815.01	151.84
1818.222	152.9
1821.434	154.6
1824.645	154.62
1827.856	157.31
1831.067	158.24
1834.278	157.64
1837.488	158.6
1840.698	159.33
1843.908	158.08
1847.117	158.13
1850.326	158.62
1853.535	157.56
1856.744	158.92
1859.952	158.53
1863.16	156.56
1866.368	155.25
1869.575	156
1872.782	152.4
1875.989	150.79
1879.196	149.88
1882.402	147.88
1885.608	147.72
1888.814	146.85
1892.019	144.3
1895.224	143.18
1898.429	142.73
1901.634	142.24
1904.838	141.35
1908.042	143.22
1911.246	142.55
1914.449	142.92
1917.652	142.98
1920.855	143.05
1924.058	142.51
1927.26	141.91
1930.462	142.63
1933.664	143.16
1936.865	142.45
1940.066	142.77
1943.267	140.88
1946.467	141.71
1949.668	142.09
1952.868	144.01
1956.067	143.52
1959.267	145.01
1962.466	145.61
1965.665	144.86
1968.863	145.55
1972.061	147.62
1975.259	148.55
1978.457	150.75
1981.654	152.41
1984.852	152.7
1988.048	152.34
1991.245	153.9
1994.441	154.87
1997.637	156.02
2000.833	160.07
2004.028	161.94
2007.223	163.26
2010.418	164.74
2013.613	167.55
2016.807	169.49
2020.001	171.15
2023.194	174.31
2026.388	178.07
2029.581	182.78
2032.774	183.8
2035.966	185.96
2039.158	187.29
2042.35	190.82
2045.542	192.45
2048.733	195.24
2051.924	197.58
2055.115	201.55
2058.306	201.79
2061.496	203.56
2064.686	202.59
2067.875	207.63
2071.065	208.98
2074.254	207.49
2077.442	210.85
2080.631	211.52
2083.819	213.41
2087.007	214.06
2090.195	216.72
2093.382	218.63
2096.569	217.88
2099.756	223.1
2102.942	223.32
2106.128	225.09
2109.314	230.44
2112.5	229.48
2115.685	235.56
2118.87	235.85
2122.055	240.81
2125.239	241.85
2128.424	244.69
2131.608	246.93
2134.791	248.3
2137.974	249.88
2141.157	250.79
2144.34	251.29
2147.523	253.72
2150.705	251.64
2153.887	254.63
2157.068	254.73
2160.25	252.35
2163.431	255
2166.611	256.57
2169.792	261.19
2172.972	265.04
2176.152	264.99
2179.331	268.52
2182.511	273.88
2185.69	276.08
2188.868	280.56
2192.047	281.39
2195.225	290.09
2198.403	295.23
2201.58	301.89
2204.758	307.04
2207.935	311.37
2211.111	319.19
2214.288	323.19
2217.464	323.29
2220.64	330.16
2223.815	333.76
2226.991	346.28
2230.166	346.28
2233.34	351.29
2236.515	356.54
2239.689	357.5
2242.863	358.89
2246.036	369.33
2249.209	367.24
2252.382	372.22
2255.555	382.44
2258.727	384.61
2261.9	387.28
2265.071	391.8
2268.243	398.37
2271.414	400.41
2274.585	409.44
2277.756	413.46
2280.926	418.67
2284.096	426.86
2287.266	436.28
2290.436	438.57
2293.605	448.72
2296.774	461.17
2299.942	474.69
2303.111	477.09
2306.279	490.39
2309.447	493.24
2312.614	507.43
2315.781	518.78
2318.948	540.21
2322.115	534.4
2325.281	563.41
2328.447	549.91
2331.613	570.58
2334.779	565.03
2337.944	589.46
2341.109	593.95
2344.274	612.67
2347.438	630.45
2350.602	627.78
2353.766	652.6
2356.929	662.88
2360.092	656.19
2363.255	704.93
2366.418	704.52
2369.58	714.68
2372.742	758.79
2375.904	778.19
2379.066	774.97
2382.227	762.61
2385.388	824.9
2388.548	822.11
2391.709	830.18
2394.869	926.72
2398.029	887.64
2401.188	911.07
2404.347	909.31
2407.506	894.29
2410.665	919.25
2413.823	974.4
2416.981	1031.82
2420.139	999.41
2423.296	988.85
2426.453	1031.05
2429.61	987.78
2432.767	1030.34
2435.923	1023.2
2439.079	1119.56
2442.235	1132.33
2445.391	1123.44
2448.546	1114.02
2451.701	1082.71
2454.855	1082.54
2458.009	1144.48
2461.163	1193.26
2464.317	1238.67
2467.471	1272.97
2470.624	1274.28
2473.777	1237.05
2476.929	1209.6
2480.082	1167.15
2483.234	1155.26
2486.385	1214.88
2489.537	1222.11
2492.688	1267.34
2495.839	1232.84
2498.989	1207.19
2502.14	1212.43
2505.29	1220.16
2508.439	1243.05
2511.589	1238.82
2514.738	1353.41
2517.887	1323.86
2521.035	1395.25
2524.183	1404.72
2527.331	1416.53
2530.479	1408.44
2533.627	1418.66
