Data from C_1_HIR_WI_4N_Splice17_13-00-06-181.txt Node
Date: Sat Mar 07 13:00:06 EST 2020
User: sa697716
Spectrometer: NQ5500242
Trigger mode: 0
Integration Time (sec): 1.450000E-1
Scans to average: 20
Nonlinearity correction enabled: false
Boxcar width: 5
Storing dark spectrum: false
XAxis mode: Wavelengths
Number of Pixels in Spectrum: 512
>>>>>Begin Spectral Data<<<<<
187.83	157.01
188.298	188.78
188.766	161.54
189.233	154.31
189.701	145.96
190.169	173.36
190.636	182.02
191.104	350.45
191.571	254.43
192.039	214.63
192.506	190.59
192.974	-37.38
193.441	122.81
193.908	100.98
194.375	125.48
194.842	44.42
195.31	47.47
195.777	-118.01
196.244	39.33
196.711	37.74
197.177	40.77
197.644	40.75
198.111	41.78
198.578	41.95
199.045	41.52
199.511	41.81
199.978	42.01
200.445	42.57
200.911	42.64
201.378	42.46
201.844	42.56
202.31	42.09
202.777	41.96
203.243	41.72
203.709	41.42
204.176	41.16
204.642	40.95
205.108	40.96
205.574	40.49
206.04	40
206.506	39.71
206.972	39.58
207.438	39.4
207.903	38.84
208.369	37.91
208.835	37.26
209.301	36.65
209.766	35.4
210.232	34.42
210.697	33.37
211.163	32.6
211.628	32.08
212.094	31.17
212.559	30.77
213.024	30.16
213.49	29.84
213.955	29.02
214.42	28.51
214.885	27.94
215.35	26.83
215.815	25.68
216.28	23.9
216.745	21.86
217.21	20.01
217.675	18.14
218.14	16.7
218.604	15.38
219.069	14.31
219.534	13.37
219.998	12.57
220.463	11.97
220.927	11.4
221.392	10.99
221.856	10.66
222.32	10.38
222.785	10.16
223.249	9.89
223.713	9.65
224.177	9.49
224.642	9.29
225.106	9.09
225.57	8.9
226.034	8.75
226.497	8.62
226.961	8.47
227.425	8.33
227.889	8.18
228.353	8.06
228.816	7.95
229.28	7.82
229.744	7.69
230.207	7.6
230.671	7.49
231.134	7.39
231.597	7.3
232.061	7.2
232.524	7.1
232.987	7.02
233.45	6.97
233.914	6.87
234.377	6.79
234.84	6.72
235.303	6.66
235.766	6.59
236.229	6.52
236.691	6.45
237.154	6.4
237.617	6.35
238.08	6.29
238.542	6.19
239.005	6.15
239.468	6.1
239.93	6.04
240.393	5.99
240.855	5.93
241.317	5.86
241.78	5.8
242.242	5.73
242.704	5.68
243.166	5.62
243.629	5.57
244.091	5.51
244.553	5.46
245.015	5.41
245.477	5.35
245.939	5.31
246.4	5.27
246.862	5.23
247.324	5.19
247.786	5.14
248.247	5.1
248.709	5.05
249.17	5.01
249.632	4.97
250.093	4.93
250.555	4.9
251.016	4.86
251.477	4.83
251.939	4.78
252.4	4.75
252.861	4.73
253.322	4.7
253.783	4.68
254.244	4.65
254.705	4.62
255.166	4.6
255.627	4.57
256.088	4.54
256.549	4.52
257.009	4.5
257.47	4.46
257.931	4.42
258.391	4.38
258.852	4.35
259.312	4.32
259.773	4.28
260.233	4.25
260.694	4.22
261.154	4.19
261.614	4.16
262.074	4.13
262.534	4.1
262.994	4.09
263.455	4.07
263.915	4.04
264.374	4.03
264.834	4.01
265.294	3.99
265.754	3.98
266.214	3.96
266.673	3.95
267.133	3.94
267.593	3.92
268.052	3.91
268.512	3.9
268.971	3.89
269.431	3.88
269.89	3.87
270.349	3.86
270.809	3.85
271.268	3.84
271.727	3.83
272.186	3.82
272.645	3.81
273.104	3.79
273.563	3.78
274.022	3.77
274.481	3.76
274.94	3.75
275.399	3.74
275.857	3.73
276.316	3.72
276.775	3.7
277.233	3.69
277.692	3.68
278.15	3.67
278.609	3.67
279.067	3.66
279.525	3.65
279.984	3.65
280.442	3.64
280.9	3.63
281.358	3.63
281.816	3.63
282.274	3.62
282.732	3.62
283.19	3.62
283.648	3.6
284.106	3.6
284.564	3.59
285.021	3.58
285.479	3.57
285.937	3.56
286.394	3.55
286.852	3.53
287.309	3.52
287.767	3.51
288.224	3.49
288.682	3.47
289.139	3.46
289.596	3.44
290.053	3.42
290.511	3.4
290.968	3.39
291.425	3.37
291.882	3.36
292.339	3.35
292.796	3.33
293.252	3.32
293.709	3.32
294.166	3.31
294.623	3.3
295.079	3.29
295.536	3.28
295.992	3.28
296.449	3.27
296.905	3.27
297.362	3.26
297.818	3.25
298.274	3.25
298.731	3.24
299.187	3.22
299.643	3.21
300.099	3.21
300.555	3.2
301.011	3.19
301.467	3.18
301.923	3.17
302.379	3.17
302.835	3.17
303.291	3.16
303.746	3.15
304.202	3.15
304.658	3.16
305.113	3.15
305.569	3.15
306.024	3.15
306.479	3.15
306.935	3.14
307.39	3.14
307.845	3.13
308.301	3.13
308.756	3.13
309.211	3.13
309.666	3.13
310.121	3.13
310.576	3.13
311.031	3.12
311.486	3.13
311.94	3.13
312.395	3.13
312.85	3.13
313.305	3.12
313.759	3.13
314.214	3.13
314.668	3.12
315.123	3.12
315.577	3.11
316.032	3.11
316.486	3.11
316.94	3.1
317.394	3.09
317.849	3.08
318.303	3.07
318.757	3.05
319.211	3.04
319.665	3.03
320.119	3.01
320.572	3
321.026	2.99
321.48	2.97
321.934	2.96
322.387	2.95
322.841	2.95
323.295	2.95
323.748	2.95
324.202	2.95
324.655	2.95
325.108	2.95
325.562	2.95
326.015	2.96
326.468	2.96
326.921	2.97
327.374	2.97
327.827	2.97
328.28	2.96
328.733	2.96
329.186	2.95
329.639	2.95
330.092	2.95
330.545	2.95
330.997	2.94
331.45	2.95
331.903	2.95
332.355	2.95
332.808	2.95
333.26	2.95
333.713	2.95
334.165	2.94
334.617	2.95
335.069	2.94
335.522	2.94
335.974	2.94
336.426	2.93
336.878	2.92
337.33	2.92
337.782	2.93
338.234	2.93
338.686	2.93
339.137	2.94
339.589	2.93
340.041	2.93
340.493	2.92
340.944	2.9
341.396	2.9
341.847	2.89
342.299	2.87
342.75	2.87
343.201	2.85
343.653	2.84
344.104	2.81
344.555	2.81
345.006	2.79
345.457	2.79
345.908	2.78
346.359	2.77
346.81	2.77
347.261	2.76
347.712	2.74
348.163	2.74
348.613	2.74
349.064	2.75
349.515	2.74
349.965	2.74
350.416	2.73
350.866	2.72
351.317	2.71
351.767	2.71
352.217	2.71
352.668	2.72
353.118	2.72
353.568	2.71
354.018	2.71
354.468	2.72
354.918	2.71
355.368	2.71
355.818	2.72
356.268	2.72
356.718	2.72
357.168	2.72
357.617	2.71
358.067	2.7
358.517	2.71
358.966	2.71
359.416	2.7
359.865	2.7
360.315	2.71
360.764	2.71
361.213	2.7
361.663	2.7
362.112	2.71
362.561	2.71
363.01	2.7
363.459	2.69
363.908	2.69
364.357	2.69
364.806	2.68
365.255	2.67
365.703	2.68
366.152	2.68
366.601	2.69
367.05	2.68
367.498	2.68
367.947	2.67
368.395	2.68
368.844	2.68
369.292	2.67
369.74	2.67
370.189	2.66
370.637	2.65
371.085	2.65
371.533	2.64
371.981	2.63
372.429	2.63
372.877	2.63
373.325	2.62
373.773	2.61
374.221	2.61
374.669	2.61
375.116	2.59
375.564	2.58
376.012	2.58
376.459	2.58
376.907	2.59
377.354	2.58
377.801	2.58
378.249	2.58
378.696	2.58
379.143	2.58
379.591	2.59
380.038	2.6
380.485	2.6
380.932	2.59
381.379	2.59
381.826	2.59
382.273	2.58
382.72	2.56
383.166	2.56
383.613	2.55
384.06	2.54
384.506	2.54
384.953	2.53
385.4	2.53
385.846	2.54
386.292	2.53
386.739	2.52
387.185	2.52
387.631	2.54
388.078	2.54
388.524	2.54
388.97	2.54
389.416	2.54
389.862	2.55
390.308	2.55
390.754	2.56
391.2	2.56
391.645	2.57
392.091	2.58
392.537	2.59
392.983	2.59
393.428	2.61
393.874	2.62
394.319	2.62
394.765	2.63
395.21	2.63
395.655	2.64
396.101	2.65
396.546	2.65
396.991	2.66
397.436	2.66
397.881	2.67
398.326	2.67
398.771	2.68
399.216	2.69
399.661	2.7
400.106	2.71
400.551	2.71
400.995	2.71
401.44	2.72
401.885	2.73
402.329	2.74
402.774	2.74
403.218	2.77
403.663	2.78
404.107	2.8
404.551	2.81
404.995	2.81
405.44	2.81
405.884	2.83
406.328	2.84
406.772	2.84
407.216	2.85
407.66	2.85
408.104	2.84
408.547	2.84
408.991	2.84
409.435	2.85
409.879	2.87
410.322	2.89
410.766	2.9
411.209	2.91
411.653	2.94
412.096	2.94
412.54	2.96
412.983	2.97
413.426	3
413.869	3.01
414.312	3.04
414.756	3.05
415.199	3.05
415.642	3.06
416.085	3.06
416.527	3.04
416.97	3.05
417.413	3.05
417.856	3.05
418.298	3.06
418.741	3.06
419.184	3.06
419.626	3.06
420.069	3.07
420.511	3.08
420.953	3.09
421.396	3.11
421.838	3.13
422.28	3.14
422.722	3.16
423.164	3.16
423.606	3.17
424.048	3.17
424.49	3.18
424.932	3.17
425.374	3.15
425.816	3.12
426.258	3.11
426.699	3.1
427.141	3.1
427.582	3.1
428.024	3.11
428.465	3.12
428.907	3.11
429.348	3.1
429.789	3.11
430.231	3.15
430.672	3.17
431.113	3.2
431.554	3.2
431.995	3.21
432.436	3.22
432.877	3.22
433.318	3.23
433.759	3.27
434.2	3.29
434.64	3.31
435.081	3.31
435.522	3.33
435.962	3.33
436.403	3.37
436.843	3.39
437.284	3.39
437.724	3.41
438.164	3.4
438.604	3.39
439.045	3.39
439.485	3.39
439.925	3.39
440.365	3.4
440.805	3.38
441.245	3.38
441.685	3.38
442.125	3.39
442.564	3.39
443.004	3.39
443.444	3.39
443.883	3.39
444.323	3.39
444.762	3.38
445.202	3.37
445.641	3.39
446.081	3.39
446.52	3.39
446.959	3.41
447.398	3.41
447.837	3.42
448.276	3.42
448.716	3.43
449.154	3.44
449.593	3.46
450.032	3.45
450.471	3.44
450.91	3.43
451.349	3.41
451.787	3.4
452.226	3.38
452.664	3.38
453.103	3.37
453.541	3.36
453.98	3.36
454.418	3.34
454.856	3.33
455.295	3.32
455.733	3.3
456.171	3.29
456.609	3.29
457.047	3.28
457.485	3.28
457.923	3.27
458.361	3.27
458.798	3.26
459.236	3.26
459.674	3.26
460.111	3.26
460.549	3.28
460.987	3.29
461.424	3.3
461.862	3.32
462.299	3.33
462.736	3.34
463.173	3.35
463.611	3.36
464.048	3.37
464.485	3.38
464.922	3.39
465.359	3.39
465.796	3.41
466.233	3.41
466.67	3.41
467.106	3.41
467.543	3.41
467.98	3.4
468.416	3.38
468.853	3.37
469.29	3.37
469.726	3.37
470.162	3.37
470.599	3.34
471.035	3.32
471.471	3.3
471.907	3.29
472.344	3.28
472.78	3.3
473.216	3.29
473.652	3.28
474.088	3.26
474.523	3.26
474.959	3.26
475.395	3.25
475.831	3.25
476.266	3.25
476.702	3.24
477.138	3.23
477.573	3.21
478.008	3.22
478.444	3.21
478.879	3.21
479.314	3.19
479.75	3.19
480.185	3.17
480.62	3.15
481.055	3.13
481.49	3.13
481.925	3.12
482.36	3.12
482.795	3.11
483.229	3.1
483.664	3.11
484.099	3.1
484.534	3.09
484.968	3.09
485.403	3.09
485.837	3.1
486.271	3.11
486.706	3.11
487.14	3.12
487.574	3.12
488.009	3.13
488.443	3.13
488.877	3.15
489.311	3.16
489.745	3.18
490.179	3.2
490.613	3.22
491.046	3.23
491.48	3.26
491.914	3.27
492.348	3.29
492.781	3.32
493.215	3.36
493.648	3.37
494.082	3.4
494.515	3.42
494.948	3.45
495.382	3.48
495.815	3.52
496.248	3.55
496.681	3.6
497.114	3.65
497.547	3.68
497.98	3.73
498.413	3.79
498.846	3.85
499.279	3.91
499.711	3.96
500.144	4.04
500.577	4.11
501.009	4.17
501.442	4.24
501.874	4.32
502.306	4.42
502.739	4.51
503.171	4.61
503.603	4.71
504.036	4.82
504.468	4.93
504.9	5.03
505.332	5.15
505.764	5.28
506.196	5.41
506.627	5.55
507.059	5.69
507.491	5.82
507.923	5.97
508.354	6.14
508.786	6.3
509.217	6.49
509.649	6.67
510.08	6.86
510.512	7.07
510.943	7.26
511.374	7.47
511.805	7.68
512.237	7.9
512.668	8.13
513.099	8.36
513.53	8.58
513.961	8.82
514.391	9.07
514.822	9.32
515.253	9.57
515.684	9.83
516.114	10.09
516.545	10.37
516.975	10.64
517.406	10.92
517.836	11.19
518.267	11.49
518.697	11.77
519.127	12.05
519.558	12.32
519.988	12.6
520.418	12.87
520.848	13.14
521.278	13.41
521.708	13.88
522.138	14.15
522.567	14.41
522.997	14.65
523.427	14.9
523.857	15.14
524.286	15.38
524.716	15.62
525.145	15.86
525.575	16.09
526.004	16.31
526.433	16.31
526.863	16.51
527.292	16.71
527.721	16.91
528.15	17.09
528.579	17.26
529.008	17.43
529.437	17.58
529.866	17.73
530.295	17.89
530.724	18.03
531.152	18.18
531.581	18.32
532.01	18.46
532.438	18.58
532.867	18.71
533.295	18.82
533.723	18.93
534.152	19.02
534.58	19.12
535.008	19.19
535.436	19.28
535.865	19.34
536.293	19.4
536.721	19.46
537.149	19.52
537.576	19.57
538.004	19.64
538.432	19.69
538.86	19.75
539.287	19.8
539.715	19.86
540.143	19.89
540.57	19.94
540.998	19.97
541.425	20.03
541.852	20.06
542.28	20.1
542.707	20.13
543.134	20.17
543.561	20.21
543.988	20.24
544.415	20.26
544.842	20.28
545.269	20.32
545.696	20.36
546.123	20.39
546.549	20.42
546.976	20.46
547.403	20.49
547.829	20.51
548.256	20.53
548.682	20.54
549.108	20.56
549.535	20.59
549.961	20.61
550.387	20.61
550.813	20.62
551.24	20.6
551.666	20.59
552.092	20.56
552.518	20.55
552.943	20.52
553.369	20.5
553.795	20.48
554.221	20.44
554.646	20.38
555.072	20.34
555.498	20.27
555.923	20.21
556.349	20.15
556.774	20.09
557.199	20.03
557.625	19.96
558.05	19.89
558.475	19.79
558.9	19.7
559.325	19.63
559.75	19.54
560.175	19.45
560.6	19.34
561.025	19.23
561.449	19.12
561.874	19
562.299	18.86
562.723	18.73
563.148	18.6
563.572	18.46
563.997	18.32
564.421	18.17
564.846	18.01
565.27	17.87
565.694	17.73
566.118	17.57
566.542	17.43
566.966	17.28
567.39	17.13
567.814	16.99
568.238	16.84
568.662	16.69
569.086	16.54
569.509	16.4
569.933	16.26
570.357	16.11
570.78	15.96
571.204	15.82
571.627	15.68
572.05	15.54
572.474	15.41
572.897	15.29
573.32	15.16
573.743	15.04
574.166	14.92
574.589	14.79
575.012	14.68
575.435	14.56
575.858	14.44
576.281	14.32
576.704	14.21
577.126	14.1
577.549	13.98
577.972	13.87
578.394	13.76
578.817	13.67
579.239	13.58
579.661	13.49
580.084	13.41
580.506	13.32
580.928	13.24
581.35	13.17
581.772	13.08
582.194	13
582.616	12.93
583.038	12.86
583.46	12.77
583.882	12.7
584.303	12.62
584.725	12.55
585.147	12.49
585.568	12.43
585.99	12.37
586.411	12.3
586.833	12.25
587.254	12.2
587.675	12.13
588.096	12.08
588.518	12.03
588.939	11.99
589.36	11.95
589.781	11.88
590.202	11.85
590.623	11.8
591.043	11.75
591.464	11.71
591.885	11.67
592.305	11.65
592.726	11.63
593.147	11.6
593.567	11.57
593.987	11.53
594.408	11.5
594.828	11.47
595.248	11.44
595.669	11.42
596.089	11.38
596.509	11.36
596.929	11.32
597.349	11.28
597.769	11.24
598.189	11.2
598.608	11.18
599.028	11.15
599.448	11.11
599.867	11.07
600.287	11.03
600.706	10.99
601.126	10.94
601.545	10.9
601.965	10.85
602.384	10.81
602.803	10.76
603.222	10.71
603.641	10.65
604.061	10.61
604.48	10.55
604.898	10.48
605.317	10.43
605.736	10.36
606.155	10.3
606.574	10.23
606.992	10.16
607.411	10.09
607.829	9.99
608.248	9.91
608.666	9.82
609.085	9.74
609.503	9.67
609.921	9.59
610.339	9.51
610.758	9.44
611.176	9.36
611.594	9.28
612.012	9.2
612.43	9.15
612.847	9.08
613.265	9.01
613.683	8.95
614.101	8.89
614.518	8.82
614.936	8.75
615.353	8.68
615.771	8.63
616.188	8.57
616.606	8.51
617.023	8.46
617.44	8.42
617.857	8.38
618.274	8.33
618.691	8.28
619.108	8.23
619.525	8.19
619.942	8.15
620.359	8.11
620.776	8.07
621.192	8.05
621.609	8.02
622.026	7.99
622.442	7.96
622.859	7.93
623.275	7.91
623.691	7.89
624.108	7.88
624.524	7.85
624.94	7.84
625.356	7.83
625.772	7.81
626.188	7.8
626.604	7.79
627.02	7.78
627.436	7.77
627.852	7.77
628.268	7.76
628.683	7.75
629.099	7.74
629.514	7.73
629.93	7.72
630.345	7.7
630.761	7.68
631.176	7.65
631.591	7.63
632.007	7.6
632.422	7.57
632.837	7.54
633.252	7.49
633.667	7.45
634.082	7.4
634.497	7.35
634.911	7.29
635.326	7.24
635.741	7.18
636.155	7.11
636.57	7.06
636.984	6.99
637.399	6.92
637.813	6.84
638.228	6.76
638.642	6.67
639.056	6.59
639.47	6.51
639.884	6.43
640.298	6.35
640.712	6.27
641.126	6.18
641.54	6.09
641.954	6
642.368	5.92
642.781	5.86
643.195	5.77
643.609	5.7
644.022	5.62
644.436	5.55
644.849	5.47
645.262	5.39
645.676	5.32
646.089	5.26
646.502	5.2
646.915	5.15
647.328	5.09
647.741	5.05
648.154	5
648.567	4.96
648.98	4.91
649.393	4.88
649.805	4.84
650.218	4.81
650.631	4.79
651.043	4.75
651.456	4.72
651.868	4.69
652.28	4.65
652.693	4.62
653.105	4.59
653.517	4.55
653.929	4.51
654.341	4.47
654.753	4.43
655.165	4.38
655.577	4.34
655.989	4.29
656.401	4.24
656.813	4.2
657.224	4.14
657.636	4.08
658.047	4.04
658.459	3.98
658.87	3.93
659.282	3.86
659.693	3.81
660.104	3.74
660.515	3.69
660.926	3.63
661.338	3.58
661.749	3.54
662.159	3.49
662.57	3.46
662.981	3.41
663.392	3.37
663.803	3.34
664.213	3.31
664.624	3.28
665.035	3.26
665.445	3.24
665.855	3.22
666.266	3.2
666.676	3.19
667.086	3.15
667.497	3.15
667.907	3.13
668.317	3.12
668.727	3.12
669.137	3.11
669.547	3.11
669.956	3.1
670.366	3.11
670.776	3.1
671.186	3.1
671.595	3.11
672.005	3.11
672.414	3.12
672.824	3.12
673.233	3.12
673.642	3.15
674.052	3.16
674.461	3.17
674.87	3.18
675.279	3.21
675.688	3.23
676.097	3.25
676.506	3.27
676.915	3.3
677.323	3.32
677.732	3.34
678.141	3.36
678.549	3.38
678.958	3.4
679.366	3.43
679.775	3.46
680.183	3.49
680.592	3.53
681	3.57
681.408	3.61
681.816	3.67
682.224	3.72
682.632	3.79
683.04	3.86
683.448	3.95
683.856	4.02
684.264	4.12
684.671	4.22
685.079	4.33
685.487	4.46
685.894	4.62
686.302	4.78
686.709	4.98
687.116	5.17
687.524	5.4
687.931	5.64
688.338	5.92
688.745	6.22
689.152	6.52
689.559	6.87
689.966	7.24
690.373	7.61
690.78	8.01
691.187	8.43
691.593	8.87
692	9.32
692.407	9.79
692.813	10.29
693.22	10.78
693.626	11.31
694.032	11.83
694.439	12.36
694.845	12.9
695.251	13.45
695.657	13.99
696.063	14.55
696.469	15.11
696.875	15.69
697.281	16.25
697.687	16.82
698.093	17.37
698.498	17.94
698.904	18.5
699.31	19.06
699.715	19.62
700.12	20.19
700.526	20.74
700.931	21.29
701.337	21.82
701.742	22.35
702.147	22.86
702.552	23.39
702.957	23.89
703.362	24.39
703.767	24.89
704.172	25.38
704.577	25.85
704.981	26.34
705.386	26.82
705.791	27.28
706.195	27.74
706.6	28.22
707.004	28.68
707.408	29.13
707.813	29.58
708.217	30
708.621	30.42
709.025	30.84
709.43	31.24
709.834	31.65
710.237	32.06
710.641	32.45
711.045	32.82
711.449	33.21
711.853	33.62
712.256	33.98
712.66	34.36
713.064	34.73
713.467	35.09
713.87	35.45
714.274	35.79
714.677	36.15
715.08	36.49
715.484	36.83
715.887	37.16
716.29	37.46
716.693	37.79
717.096	38.11
717.499	38.41
717.901	38.72
718.304	39.02
718.707	39.32
719.109	39.62
719.512	39.89
719.915	40.16
720.317	40.4
720.719	40.65
721.122	40.9
721.524	41.14
721.926	41.39
722.328	41.64
722.731	41.85
723.133	42.1
723.535	42.3
723.937	42.52
724.338	42.74
724.74	42.96
725.142	43.26
725.544	43.45
725.945	43.67
726.347	43.83
726.748	43.99
727.15	44.14
727.551	44.3
727.952	44.44
728.354	44.59
728.755	44.71
729.156	44.83
729.557	44.88
729.958	44.99
730.359	45.09
730.76	45.22
731.161	45.33
731.562	45.48
731.962	45.56
732.363	45.69
732.763	45.78
733.164	45.89
733.564	45.99
733.965	46.07
734.365	46.18
734.766	46.25
735.166	46.35
735.566	46.45
735.966	46.52
736.366	46.63
736.766	46.68
737.166	46.76
737.566	46.83
737.966	46.89
738.365	46.94
738.765	47.01
739.165	47.09
739.564	47.13
739.964	47.18
740.363	47.22
740.763	47.25
741.162	47.3
741.561	47.33
741.96	47.35
742.36	47.42
742.759	47.49
743.158	47.49
743.557	47.49
743.955	47.55
744.354	47.59
744.753	47.62
745.152	47.68
745.55	47.73
745.949	47.78
746.348	47.84
746.746	47.84
747.144	47.85
747.543	47.9
747.941	47.95
748.339	47.92
748.737	47.94
749.136	47.95
749.534	47.92
749.932	47.91
750.33	47.91
750.727	47.92
751.125	47.93
751.523	47.93
751.921	47.94
752.318	47.95
752.716	48
753.113	48.04
753.511	48.07
753.908	48.14
754.305	48.19
754.703	48.21
755.1	48.25
755.497	48.27
755.894	48.27
756.291	48.28
756.688	48.28
757.085	48.29
757.482	48.31
757.878	48.32
758.275	48.31
758.672	48.3
759.068	48.32
759.465	48.33
759.861	48.34
760.258	48.38
760.654	48.39
761.05	48.42
761.447	48.44
761.843	48.41
762.239	48.43
762.635	48.41
763.031	48.41
763.427	48.38
763.822	48.37
764.218	48.36
764.614	48.34
765.01	48.34
765.405	48.33
765.801	48.32
766.196	48.32
766.592	48.29
766.987	48.3
767.382	48.28
767.778	48.29
768.173	48.3
768.568	48.29
768.963	48.29
769.358	48.28
769.753	48.28
770.148	48.28
770.542	48.29
770.937	48.29
771.332	48.29
771.726	48.31
772.121	48.29
772.515	48.28
772.91	48.27
773.304	48.29
773.699	48.3
774.093	48.3
774.487	48.29
774.881	48.3
775.275	48.29
775.669	48.3
776.063	48.27
776.457	48.3
776.851	48.29
777.245	48.3
777.638	48.3
778.032	48.31
778.425	48.32
778.819	48.34
779.212	48.32
779.606	48.34
779.999	48.33
780.392	48.39
780.786	48.39
781.179	48.41
781.572	48.44
781.965	48.44
782.358	48.47
782.751	48.44
783.143	48.43
783.536	48.45
783.929	48.45
784.322	48.45
784.714	48.44
785.107	48.45
785.499	48.44
785.891	48.44
786.284	48.47
786.676	48.43
787.068	48.48
787.46	48.46
787.852	48.46
788.245	48.46
788.636	48.44
789.028	48.46
789.42	48.42
789.812	48.45
790.204	48.42
790.595	48.43
790.987	48.45
791.378	48.43
791.77	48.46
792.161	48.45
792.553	48.46
792.944	48.49
793.335	48.48
793.726	48.5
794.117	48.47
794.508	48.45
794.899	48.43
795.29	48.41
795.681	48.41
796.072	48.4
796.463	48.42
796.853	48.4
797.244	48.36
797.634	48.35
798.025	48.35
798.415	48.37
798.806	48.35
799.196	48.32
799.586	48.33
799.976	48.35
800.366	48.34
800.756	48.34
801.146	48.34
801.536	48.37
801.926	48.36
802.316	48.34
802.706	48.35
803.095	48.38
803.485	48.41
803.874	48.43
804.264	48.42
804.653	48.43
805.043	48.44
805.432	48.45
805.821	48.45
806.21	48.47
806.599	48.5
806.988	48.51
807.377	48.49
807.766	48.47
808.155	48.45
808.544	48.43
808.933	48.4
809.321	48.39
809.71	48.39
810.098	48.42
810.487	48.39
810.875	48.37
811.264	48.36
811.652	48.37
812.04	48.39
812.428	48.42
812.816	48.43
813.204	48.43
813.592	48.41
813.98	48.41
814.368	48.39
814.756	48.39
815.144	48.38
815.531	48.38
815.919	48.38
816.306	48.36
816.694	48.34
817.081	48.34
817.469	48.34
817.856	48.33
818.243	48.31
818.63	48.29
819.017	48.27
819.404	48.27
819.791	48.25
820.178	48.27
820.565	48.29
820.952	48.28
821.339	48.26
821.725	48.28
822.112	48.31
822.498	48.34
822.885	48.35
823.271	48.37
823.657	48.35
824.044	48.37
824.43	48.37
824.816	48.38
825.202	48.37
825.588	48.37
825.974	48.36
826.36	48.37
826.746	48.34
827.132	48.35
827.517	48.37
827.903	48.42
828.289	48.43
828.674	48.42
829.06	48.41
829.445	48.41
829.83	48.43
830.216	48.41
830.601	48.39
830.986	48.42
831.371	48.4
831.756	48.41
832.141	48.4
832.526	48.4
832.911	48.39
833.295	48.4
833.68	48.4
834.065	48.4
834.449	48.42
834.834	48.41
835.218	48.41
835.603	48.44
835.987	48.42
836.371	48.4
836.755	48.38
837.139	48.4
837.524	48.4
837.908	48.41
838.291	48.44
838.675	48.43
839.059	48.43
839.443	48.42
839.827	48.4
840.21	48.4
840.594	48.43
840.977	48.45
841.361	48.46
841.744	48.43
842.127	48.41
842.511	48.38
842.894	48.4
843.277	48.42
843.66	48.4
844.043	48.43
844.426	48.43
844.809	48.43
845.191	48.42
845.574	48.4
845.957	48.42
846.339	48.44
846.722	48.46
847.104	48.44
847.487	48.45
847.869	48.45
848.252	48.44
848.634	48.43
849.016	48.44
849.398	48.44
849.78	48.46
850.162	48.45
850.544	48.45
850.926	48.44
851.307	48.45
851.689	48.44
852.071	48.47
852.452	48.48
852.834	48.48
853.215	48.47
853.597	48.48
853.978	48.47
854.359	48.5
854.741	48.5
855.122	48.5
855.503	48.48
855.884	48.48
856.265	48.49
856.646	48.49
857.026	48.51
857.407	48.51
857.788	48.51
858.169	48.52
858.549	48.52
858.93	48.53
859.31	48.56
859.69	48.57
860.071	48.61
860.451	48.59
860.831	48.59
861.211	48.57
861.591	48.57
861.971	48.57
862.351	48.57
862.731	48.6
863.111	48.58
863.491	48.58
863.87	48.55
864.25	48.52
864.629	48.55
865.009	48.56
865.388	48.55
865.768	48.56
866.147	48.56
866.526	48.55
866.905	48.5
867.284	48.51
867.663	48.5
868.042	48.52
868.421	48.55
868.8	48.52
869.179	48.5
869.558	48.49
869.936	48.49
870.315	48.48
870.693	48.48
871.072	48.5
871.45	48.52
871.828	48.53
872.207	48.52
872.585	48.47
872.963	48.49
873.341	48.5
873.719	48.51
874.097	48.51
874.475	48.54
874.853	48.56
875.23	48.56
875.608	48.55
875.986	48.57
876.363	48.57
876.741	48.57
877.118	48.59
877.495	48.61
877.873	48.63
878.25	48.64
878.627	48.64
879.004	48.62
879.381	48.62
879.758	48.61
880.135	48.6
880.512	48.58
880.889	48.6
881.265	48.56
881.642	48.55
882.019	48.54
882.395	48.52
882.772	48.5
883.148	48.48
883.524	48.47
883.901	48.47
884.277	48.43
884.653	48.42
885.029	48.42
885.405	48.44
885.781	48.42
886.157	48.41
886.532	48.42
886.908	48.39
887.284	48.38
887.659	48.36
888.035	48.34
888.411	48.35
888.786	48.36
889.161	48.37
889.537	48.34
889.912	48.34
890.287	48.31
890.662	48.3
891.037	48.33
891.412	48.33
891.787	48.32
892.162	48.35
892.536	48.35
892.911	48.35
893.286	48.35
893.66	48.38
894.035	48.39
894.409	48.4
894.784	48.42
895.158	48.41
895.532	48.46
895.906	48.47
896.281	48.48
896.655	48.51
897.029	48.52
897.402	48.53
897.776	48.52
898.15	48.54
898.524	48.57
898.898	48.59
899.271	48.6
899.645	48.6
900.018	48.62
900.392	48.62
900.765	48.63
901.138	48.62
901.511	48.62
901.884	48.65
902.258	48.65
902.631	48.64
903.003	48.65
903.376	48.64
903.749	48.61
904.122	48.63
904.495	48.65
904.867	48.65
905.24	48.67
905.612	48.68
905.985	48.65
906.357	48.64
906.729	48.66
907.102	48.64
907.474	48.68
907.846	48.67
908.218	48.64
908.59	48.65
908.962	48.65
909.334	48.64
909.705	48.63
910.077	48.63
910.449	48.63
910.82	48.61
911.192	48.62
911.563	48.61
911.935	48.63
912.306	48.65
912.677	48.63
913.048	48.64
913.419	48.63
913.79	48.62
914.161	48.63
914.532	48.63
914.903	48.64
915.274	48.64
915.645	48.62
916.015	48.63
916.386	48.62
916.756	48.63
917.127	48.62
917.497	48.63
917.868	48.64
918.238	48.63
918.608	48.68
918.978	48.66
919.348	48.67
919.718	48.67
920.088	48.68
920.458	48.65
920.828	48.62
921.198	48.6
921.567	48.6
921.937	48.61
922.306	48.59
922.676	48.57
923.045	48.55
923.415	48.48
923.784	48.48
924.153	48.51
924.522	48.51
924.891	48.51
925.26	48.5
925.629	48.51
925.998	48.49
926.367	48.51
926.736	48.47
927.104	48.52
927.473	48.56
927.842	48.54
928.21	48.52
928.578	48.51
928.947	48.53
929.315	48.54
929.683	48.53
930.051	48.51
930.42	48.5
930.788	48.47
931.156	48.43
931.523	48.42
931.891	48.47
932.259	48.48
932.627	48.51
932.994	48.5
933.362	48.51
933.729	48.52
934.097	48.53
934.464	48.55
934.831	48.6
935.199	48.67
935.566	48.69
935.933	48.61
936.3	48.58
936.667	48.56
937.034	48.62
937.401	48.66
937.767	48.68
938.134	48.71
938.501	48.71
938.867	48.74
939.234	48.68
939.6	48.71
939.967	48.77
940.333	48.76
940.699	48.77
941.065	48.65
941.431	48.61
941.798	48.56
942.163	48.47
942.529	48.41
942.895	48.33
943.261	48.33
943.627	48.26
943.992	48.24
944.358	48.24
944.723	48.21
945.089	48.16
945.454	48.12
945.82	48.11
946.185	48.12
946.55	48.1
946.915	48.12
947.28	48.08
947.645	48.11
948.01	48.13
948.375	48.05
948.74	48.05
949.104	48.1
949.469	48.09
949.834	48.06
950.198	48.08
950.562	48.04
950.927	48.01
951.291	47.93
951.655	47.87
952.02	47.82
952.384	47.85
952.748	47.85
953.112	47.84
953.476	47.81
953.839	47.79
954.203	47.72
954.567	47.71
954.931	47.68
955.294	47.7
955.658	47.78
956.021	47.79
956.385	47.73
956.748	47.68
957.111	47.69
957.474	47.73
957.837	47.69
958.2	47.73
958.563	47.74
958.926	47.81
959.289	47.85
959.652	47.79
960.015	47.72
960.377	47.76
960.74	47.8
961.102	47.76
961.465	47.77
961.827	47.84
962.189	47.8
962.552	47.81
962.914	47.77
963.276	47.78
963.638	47.78
964	47.83
964.362	47.82
964.724	47.81
965.085	47.83
965.447	47.76
965.809	47.74
966.17	47.72
966.532	47.74
966.893	47.77
967.255	47.75
967.616	47.78
967.977	47.79
968.338	47.8
968.699	47.78
969.061	47.75
969.421	47.81
969.782	47.86
970.143	47.92
970.504	47.87
970.865	47.91
971.225	47.89
971.586	47.81
971.946	47.77
972.307	47.7
972.667	47.7
973.027	47.71
973.388	47.67
973.748	47.64
974.108	47.64
974.468	47.62
974.828	47.61
975.188	47.59
975.548	47.63
975.907	47.62
976.267	47.66
976.627	47.73
976.986	47.75
977.346	47.74
977.705	47.65
978.064	47.66
978.424	47.73
978.783	47.66
979.142	47.61
979.501	47.66
979.86	47.76
980.219	47.78
980.578	47.76
980.937	47.71
981.296	47.7
981.654	47.76
982.013	47.74
982.371	47.74
982.73	47.8
983.088	47.86
983.447	47.82
983.805	47.77
984.163	47.75
984.521	47.74
984.879	47.74
985.237	47.8
985.595	47.87
985.953	47.85
986.311	47.79
986.669	47.78
987.026	47.75
987.384	47.82
987.741	47.78
988.099	47.82
988.456	47.87
988.814	47.9
989.171	47.87
989.528	47.8
989.885	47.78
990.242	47.84
990.599	47.86
990.956	47.93
991.313	47.94
991.67	48.01
992.027	48.1
992.383	48.11
992.74	48.18
993.096	48.22
993.453	48.23
993.809	48.23
994.165	48.23
994.522	48.25
994.878	48.27
995.234	48.24
995.59	48.16
995.946	48.12
996.302	48.1
996.658	48.05
997.013	48.05
997.369	48.02
997.725	48.13
998.08	48.15
998.436	48.09
998.791	48.08
999.147	48.03
999.502	48.15
999.857	48.01
1000.212	47.93
1000.567	48.04
1000.922	48.02
1001.277	48.12
1001.632	47.99
1001.987	47.99
1002.342	47.96
1002.696	47.94
1003.051	48.01
1003.406	48.04
1003.76	48.22
1004.114	48.22
1004.469	48.2
1004.823	48.54
1005.177	48.51
1005.531	48.67
1005.885	48.75
1006.239	48.82
1006.593	48.96
1006.947	48.9
1007.301	48.76
1007.655	48.59
1008.008	48.65
1008.362	48.6
1008.715	48.26
1009.069	48.33
1009.422	48.35
1009.776	48.33
1010.129	48.39
1010.482	48.31
1010.835	48.28
1011.188	48.48
1011.541	48.58
1011.894	48.76
1012.247	48.92
1012.6	48.98
1012.952	48.92
1013.305	48.92
1013.657	48.96
1014.01	48.85
1014.362	48.83
1014.715	49.03
1015.067	49.01
1015.419	49.1
1015.771	48.86
1016.123	48.82
1016.475	48.8
1016.827	48.92
1017.179	48.92
1017.531	48.85
1017.883	48.9
1018.234	49.12
1018.586	49.15
1018.938	49.26
1019.289	49.14
1019.64	49.16
1019.992	49.01
1020.343	49.06
1020.694	48.85
1021.045	48.85
1021.396	48.88
1021.747	48.9
1022.098	48.79
1022.449	48.63
1022.8	48.46
1023.151	48.64
1023.501	49.05
1023.852	49.03
1024.202	49.02
1024.553	49.15
1024.903	49.25
1025.253	49.58
1025.604	49.79
1025.954	49.54
1026.304	49.48
1026.654	49.61
1027.004	49.41
1027.354	49.13
1027.703	49.26
1028.053	49.42
1028.403	49.41
1028.753	49.28
1029.102	49.28
1029.452	49.34
1029.801	49.81
1030.15	50.07
1030.499	50.02
897.758	1248.88
901.051	1254.9
904.343	1250.87
907.636	1278.32
910.928	1244.06
914.22	1242.6
917.511	1225.09
920.803	1169.14
924.094	1165.82
927.384	1140.55
930.675	1094.41
933.965	1087.94
937.255	1024.27
940.544	983.49
943.834	932.91
947.123	925.64
950.411	873.98
953.7	855.84
956.988	813.03
960.276	779.81
963.563	767.3
966.851	740.44
970.138	734.77
973.424	712.86
976.711	715.46
979.997	679.85
983.283	675.33
986.568	660.79
989.853	641.25
993.138	629.56
996.423	605.25
999.708	587.98
1002.992	581.22
1006.275	555.11
1009.559	549.66
1012.842	531.18
1016.125	518.39
1019.408	509.1
1022.69	501.14
1025.972	491.71
1029.254	479.9
1032.536	472.27
1035.817	462.08
1039.098	456.68
1042.379	448.07
1045.659	442.84
1048.939	432.5
1052.219	422.96
1055.498	416.72
1058.778	407.2
1062.057	397.51
1065.335	393.32
1068.614	388.99
1071.892	385.75
1075.17	372.78
1078.447	365.27
1081.724	363.1
1085.001	360.49
1088.278	353.52
1091.554	346.16
1094.83	346.82
1098.106	344.86
1101.382	342.06
1104.657	339.89
1107.932	333.69
1111.206	336
1114.481	328.73
1117.755	324.93
1121.029	322.05
1124.302	322.55
1127.575	316.29
1130.848	312.44
1134.121	307.83
1137.393	306.35
1140.665	299.22
1143.937	297.58
1147.208	296.29
1150.48	294.71
1153.75	291.69
1157.021	286.85
1160.291	286.67
1163.561	284.09
1166.831	284.18
1170.101	283.23
1173.37	281.95
1176.639	283.27
1179.907	280.46
1183.176	276.75
1186.444	277.07
1189.711	276.81
1192.979	276.22
1196.246	273.74
1199.513	275.37
1202.78	272.86
1206.046	272.68
1209.312	270.68
1212.578	270.63
1215.843	273.24
1219.108	271.66
1222.373	276.39
1225.638	278.05
1228.902	282.41
1232.166	283.29
1235.43	284.91
1238.693	289.33
1241.956	290.95
1245.219	295.04
1248.482	295.19
1251.744	294.62
1255.006	294.96
1258.268	288.59
1261.529	286.05
1264.79	284.26
1268.051	282.64
1271.312	279.08
1274.572	276.21
1277.832	272.67
1281.092	268.73
1284.351	266.5
1287.61	266.54
1290.869	263.42
1294.128	261.69
1297.386	260.62
1300.644	257.34
1303.902	257.88
1307.159	257.8
1310.416	257.31
1313.673	257.48
1316.93	259.88
1320.186	259.81
1323.442	260.78
1326.697	264.84
1329.953	264.98
1333.208	267.02
1336.463	270.27
1339.717	270.79
1342.972	273.38
1346.226	276.13
1349.479	276.78
1352.733	277.82
1355.986	280.01
1359.238	279.25
1362.491	280.96
1365.743	283.89
1368.995	283.94
1372.247	282.58
1375.498	282.53
1378.749	284.59
1382	280.57
1385.251	281.29
1388.501	279.24
1391.751	278.94
1395	278.65
1398.25	276.26
1401.499	273.98
1404.748	273.24
1407.996	271.49
1411.244	269.95
1414.492	267.98
1417.74	265.8
1420.987	262.36
1424.234	262.1
1427.481	258.85
1430.728	257.89
1433.974	255.66
1437.22	254.12
1440.465	252.7
1443.711	250.78
1446.956	248.45
1450.201	246.23
1453.445	243.52
1456.689	242.22
1459.933	238.44
1463.177	236.77
1466.42	233.08
1469.663	229.98
1472.906	228.79
1476.148	223.29
1479.391	220.52
1482.633	219.29
1485.874	214.95
1489.115	213.83
1492.356	211.62
1495.597	211.28
1498.838	208.05
1502.078	207.17
1505.318	206.39
1508.557	206.18
1511.797	206.37
1515.036	205.07
1518.274	204.41
1521.513	203.69
1524.751	203.24
1527.989	202.56
1531.227	201.39
1534.464	201.98
1537.701	200.47
1540.938	200.13
1544.174	197.87
1547.41	197.69
1550.646	196.9
1553.882	196.81
1557.117	194.27
1560.352	193.71
1563.587	193.1
1566.821	191.89
1570.055	190.2
1573.289	188.84
1576.523	188.7
1579.756	187.23
1582.989	185.82
1586.222	185.38
1589.454	184.54
1592.686	185.81
1595.918	184.49
1599.15	184.07
1602.381	184.74
1605.612	184.32
1608.843	184.83
1612.073	184.59
1615.303	186
1618.533	186.48
1621.762	186.24
1624.992	186.37
1628.221	185.66
1631.449	186.32
1634.678	185.66
1637.906	186.34
1641.134	186.62
1644.361	186.27
1647.588	186.54
1650.815	185.33
1654.042	184.65
1657.269	186.21
1660.495	186.36
1663.72	185.99
1666.946	186.15
1670.171	187.04
1673.396	186.63
1676.621	186.81
1679.845	187.06
1683.069	186.73
1686.293	188.23
1689.517	189.42
1692.74	189
1695.963	189.28
1699.185	191.05
1702.408	191.32
1705.63	191.99
1708.852	192.44
1712.073	192.42
1715.294	193.09
1718.515	194.52
1721.736	193.95
1724.956	194.12
1728.176	194.17
1731.396	195.62
1734.616	194.53
1737.835	195.14
1741.054	193.56
1744.272	194.11
1747.491	196
1750.709	196.27
1753.927	196.02
1757.144	195.85
1760.361	196.56
1763.578	196.85
1766.795	196.39
1770.011	198.09
1773.227	198.03
1776.443	200.5
1779.658	201.41
1782.874	200.83
1786.089	201.54
1789.303	202.12
1792.518	204.17
1795.732	203.92
1798.945	206.12
1802.159	206.31
1805.372	206.92
1808.585	210.41
1811.797	211.14
1815.01	211.52
1818.222	213.15
1821.434	214.53
1824.645	215.14
1827.856	218.68
1831.067	220.54
1834.278	219.56
1837.488	221.4
1840.698	222.74
1843.908	220.53
1847.117	221.64
1850.326	222.16
1853.535	221.69
1856.744	225.11
1859.952	224.73
1863.16	222.85
1866.368	221.61
1869.575	223.85
1872.782	220.28
1875.989	219.26
1879.196	217.89
1882.402	216.45
1885.608	217.09
1888.814	217.07
1892.019	215.67
1895.224	215.02
1898.429	214.68
1901.634	215.45
1904.838	215.69
1908.042	217.45
1911.246	217.7
1914.449	219.45
1917.652	219.53
1920.855	219.19
1924.058	219.17
1927.26	218.4
1930.462	219.17
1933.664	221.01
1936.865	219.23
1940.066	218.55
1943.267	217.94
1946.467	217.64
1949.668	219.23
1952.868	221.79
1956.067	222.09
1959.267	222.67
1962.466	223.34
1965.665	222.56
1968.863	222.5
1972.061	226.44
1975.259	228.07
1978.457	229.46
1981.654	232.42
1984.852	232.61
1988.048	231.91
1991.245	233.79
1994.441	236.24
1997.637	237.48
2000.833	241.94
2004.028	246.29
2007.223	247.01
2010.418	249.65
2013.613	253.9
2016.807	256.34
2020.001	258.54
2023.194	262.83
2026.388	268.68
2029.581	274.63
2032.774	277.82
2035.966	283.38
2039.158	283.26
2042.35	288.7
2045.542	289.84
2048.733	295.47
2051.924	299.57
2055.115	304.67
2058.306	304.96
2061.496	308.16
2064.686	307.88
2067.875	312.77
2071.065	314.29
2074.254	312.33
2077.442	315.83
2080.631	318.75
2083.819	320.96
2087.007	321.06
2090.195	325.01
2093.382	327.92
2096.569	325.57
2099.756	330.98
2102.942	332.26
2106.128	334.81
2109.314	342.81
2112.5	341.93
2115.685	348.96
2118.87	349.52
2122.055	356.6
2125.239	358.65
2128.424	362.99
2131.608	366.79
2134.791	371.79
2137.974	373.34
2141.157	374.02
2144.34	375.39
2147.523	380.3
2150.705	377.72
2153.887	381.38
2157.068	382.06
2160.25	379.25
2163.431	380.24
2166.611	384.47
2169.792	390.96
2172.972	394.98
2176.152	396.85
2179.331	401.08
2182.511	408.55
2185.69	412.7
2188.868	421.47
2192.047	422.17
2195.225	434.8
2198.403	445.3
2201.58	453.48
2204.758	461.3
2207.935	471.16
2211.111	481.97
2214.288	488.51
2217.464	489.07
2220.64	497.01
2223.815	503.11
2226.991	521.05
2230.166	520.97
2233.34	531.34
2236.515	538.65
2239.689	539.46
2242.863	542.54
2246.036	557.5
2249.209	554.73
2252.382	564.03
2255.555	581.17
2258.727	582.29
2261.9	588.17
2265.071	594.37
2268.243	602.33
2271.414	609.82
2274.585	623.32
2277.756	628.53
2280.926	632.26
2284.096	645.49
2287.266	659.19
2290.436	663.31
2293.605	679.81
2296.774	699.99
2299.942	721.34
2303.111	727.73
2306.279	742.02
2309.447	751.81
2312.614	772.12
2315.781	794.82
2318.948	830.33
2322.115	818.57
2325.281	863.3
2328.447	845.24
2331.613	881.72
2334.779	871.74
2337.944	908.82
2341.109	918.01
2344.274	944.35
2347.438	976.38
2350.602	973.83
2353.766	1006.48
2356.929	1022.11
2360.092	1012.45
2363.255	1086.73
2366.418	1081.1
2369.58	1105.2
2372.742	1168.7
2375.904	1201.14
2379.066	1195.15
2382.227	1168.77
2385.388	1272.34
2388.548	1271.23
2391.709	1284.08
2394.869	1431.5
2398.029	1370.16
2401.188	1406.55
2404.347	1397.39
2407.506	1378.17
2410.665	1417.63
2413.823	1504.52
2416.981	1598.98
2420.139	1537.44
2423.296	1523.16
2426.453	1590.63
2429.61	1532.1
2432.767	1600.59
2435.923	1586.76
2439.079	1732.26
2442.235	1750.96
2445.391	1734.08
2448.546	1716.81
2451.701	1668.46
2454.855	1672.6
2458.009	1764.99
2461.163	1843
2464.317	1908.01
2467.471	1958.13
2470.624	1960.78
2473.777	1905.19
2476.929	1867.27
2480.082	1810.29
2483.234	1791.89
2486.385	1878.23
2489.537	1888.23
2492.688	1961.51
2495.839	1903.26
2498.989	1862.49
2502.14	1874.24
2505.29	1887.08
2508.439	1927.36
2511.589	1915.34
2514.738	2089.47
2517.887	2039.16
2521.035	2159.92
2524.183	2176.86
2527.331	2193.82
2530.479	2185.78
2533.627	2200.85
