Data from C_1_DIV_OH_2N_Splice17_12-51-55-414.txt Node
Date: Sat Mar 07 12:51:55 EST 2020
User: sa697716
Spectrometer: NQ5500242
Trigger mode: 0
Integration Time (sec): 1.450000E-1
Scans to average: 20
Nonlinearity correction enabled: false
Boxcar width: 5
Storing dark spectrum: false
XAxis mode: Wavelengths
Number of Pixels in Spectrum: 512
>>>>>Begin Spectral Data<<<<<
187.83	123.8
188.298	134.79
188.766	117.48
189.233	107.41
189.701	95.44
190.169	111.58
190.636	82.01
191.104	59.59
191.571	-91.86
192.039	-11.52
192.506	-469.99
192.974	92.97
193.441	46.87
193.908	14.74
194.375	39.99
194.842	-28.45
195.31	-36.97
195.777	-443.66
196.244	-2.07
196.711	22.61
197.177	28.33
197.644	29.26
198.111	29.99
198.578	30.96
199.045	31.19
199.511	31.25
199.978	31.51
200.445	31.63
200.911	31.94
201.378	31.98
201.844	32.09
202.31	31.68
202.777	31.57
203.243	31.51
203.709	31.11
204.176	30.78
204.642	30.62
205.108	30.53
205.574	30.45
206.04	30.03
206.506	29.67
206.972	29.64
207.438	29.68
207.903	29.72
208.369	29.16
208.835	28.9
209.301	28.57
209.766	27.65
210.232	26.88
210.697	26.1
211.163	25.48
211.628	24.85
212.094	24.07
212.559	23.6
213.024	22.86
213.49	22.39
213.955	21.72
214.42	21.16
214.885	20.76
215.35	20.1
215.815	19.21
216.28	18.07
216.745	17
217.21	15.76
217.675	14.57
218.14	13.53
218.604	12.66
219.069	12
219.534	11.34
219.998	10.83
220.463	10.37
220.927	9.96
221.392	9.65
221.856	9.34
222.32	9.13
222.785	8.95
223.249	8.76
223.713	8.58
224.177	8.42
224.642	8.28
225.106	8.11
225.57	7.98
226.034	7.87
226.497	7.77
226.961	7.65
227.425	7.53
227.889	7.39
228.353	7.28
228.816	7.19
229.28	7.09
229.744	6.99
230.207	6.9
230.671	6.8
231.134	6.71
231.597	6.64
232.061	6.57
232.524	6.49
232.987	6.43
233.45	6.38
233.914	6.29
234.377	6.21
234.84	6.14
235.303	6.09
235.766	6.05
236.229	6
236.691	5.93
237.154	5.88
237.617	5.82
238.08	5.76
238.542	5.7
239.005	5.66
239.468	5.62
239.93	5.58
240.393	5.53
240.855	5.47
241.317	5.41
241.78	5.35
242.242	5.29
242.704	5.26
243.166	5.21
243.629	5.17
244.091	5.12
244.553	5.07
245.015	5.03
245.477	4.98
245.939	4.94
246.4	4.91
246.862	4.86
247.324	4.83
247.786	4.8
248.247	4.76
248.709	4.71
249.17	4.66
249.632	4.63
250.093	4.6
250.555	4.57
251.016	4.54
251.477	4.5
251.939	4.47
252.4	4.45
252.861	4.41
253.322	4.4
253.783	4.38
254.244	4.36
254.705	4.34
255.166	4.32
255.627	4.29
256.088	4.27
256.549	4.25
257.009	4.22
257.47	4.19
257.931	4.15
258.391	4.12
258.852	4.09
259.312	4.06
259.773	4.04
260.233	4.02
260.694	3.99
261.154	3.97
261.614	3.95
262.074	3.93
262.534	3.91
262.994	3.9
263.455	3.88
263.915	3.86
264.374	3.84
264.834	3.83
265.294	3.81
265.754	3.8
266.214	3.79
266.673	3.77
267.133	3.77
267.593	3.75
268.052	3.74
268.512	3.74
268.971	3.73
269.431	3.72
269.89	3.71
270.349	3.7
270.809	3.69
271.268	3.68
271.727	3.67
272.186	3.65
272.645	3.65
273.104	3.63
273.563	3.62
274.022	3.6
274.481	3.6
274.94	3.59
275.399	3.57
275.857	3.57
276.316	3.56
276.775	3.55
277.233	3.54
277.692	3.53
278.15	3.53
278.609	3.52
279.067	3.51
279.525	3.5
279.984	3.49
280.442	3.48
280.9	3.47
281.358	3.46
281.816	3.46
282.274	3.45
282.732	3.44
283.19	3.43
283.648	3.42
284.106	3.41
284.564	3.41
285.021	3.4
285.479	3.4
285.937	3.38
286.394	3.37
286.852	3.35
287.309	3.34
287.767	3.33
288.224	3.31
288.682	3.3
289.139	3.28
289.596	3.26
290.053	3.24
290.511	3.23
290.968	3.22
291.425	3.2
291.882	3.2
292.339	3.19
292.796	3.18
293.252	3.18
293.709	3.17
294.166	3.16
294.623	3.16
295.079	3.15
295.536	3.14
295.992	3.13
296.449	3.12
296.905	3.11
297.362	3.11
297.818	3.1
298.274	3.09
298.731	3.08
299.187	3.07
299.643	3.06
300.099	3.06
300.555	3.05
301.011	3.04
301.467	3.03
301.923	3.02
302.379	3.02
302.835	3.01
303.291	3.01
303.746	3
304.202	3
304.658	3
305.113	2.99
305.569	2.99
306.024	2.98
306.479	2.98
306.935	2.97
307.39	2.97
307.845	2.96
308.301	2.96
308.756	2.96
309.211	2.95
309.666	2.96
310.121	2.96
310.576	2.95
311.031	2.95
311.486	2.96
311.94	2.96
312.395	2.96
312.85	2.95
313.305	2.95
313.759	2.96
314.214	2.95
314.668	2.95
315.123	2.95
315.577	2.94
316.032	2.94
316.486	2.93
316.94	2.92
317.394	2.92
317.849	2.91
318.303	2.9
318.757	2.88
319.211	2.88
319.665	2.87
320.119	2.86
320.572	2.86
321.026	2.85
321.48	2.84
321.934	2.84
322.387	2.83
322.841	2.82
323.295	2.82
323.748	2.82
324.202	2.82
324.655	2.81
325.108	2.81
325.562	2.81
326.015	2.81
326.468	2.81
326.921	2.8
327.374	2.79
327.827	2.78
328.28	2.78
328.733	2.78
329.186	2.77
329.639	2.77
330.092	2.77
330.545	2.77
330.997	2.77
331.45	2.77
331.903	2.78
332.355	2.8
332.808	2.8
333.26	2.8
333.713	2.79
334.165	2.79
334.617	2.8
335.069	2.79
335.522	2.79
335.974	2.79
336.426	2.79
336.878	2.78
337.33	2.77
337.782	2.78
338.234	2.78
338.686	2.79
339.137	2.8
339.589	2.79
340.041	2.79
340.493	2.78
340.944	2.76
341.396	2.75
341.847	2.74
342.299	2.74
342.75	2.72
343.201	2.71
343.653	2.7
344.104	2.68
344.555	2.67
345.006	2.66
345.457	2.66
345.908	2.66
346.359	2.66
346.81	2.66
347.261	2.65
347.712	2.65
348.163	2.65
348.613	2.65
349.064	2.65
349.515	2.65
349.965	2.64
350.416	2.64
350.866	2.64
351.317	2.64
351.767	2.64
352.217	2.64
352.668	2.64
353.118	2.64
353.568	2.63
354.018	2.63
354.468	2.64
354.918	2.64
355.368	2.64
355.818	2.64
356.268	2.64
356.718	2.64
357.168	2.64
357.617	2.64
358.067	2.64
358.517	2.66
358.966	2.66
359.416	2.67
359.865	2.67
360.315	2.69
360.764	2.69
361.213	2.69
361.663	2.69
362.112	2.7
362.561	2.72
363.01	2.73
363.459	2.71
363.908	2.71
364.357	2.71
364.806	2.71
365.255	2.71
365.703	2.73
366.152	2.74
366.601	2.75
367.05	2.76
367.498	2.75
367.947	2.77
368.395	2.79
368.844	2.8
369.292	2.82
369.74	2.83
370.189	2.84
370.637	2.85
371.085	2.86
371.533	2.87
371.981	2.88
372.429	2.9
372.877	2.91
373.325	2.93
373.773	2.95
374.221	2.96
374.669	2.97
375.116	2.99
375.564	3
376.012	3.02
376.459	3.04
376.907	3.06
377.354	3.08
377.801	3.1
378.249	3.11
378.696	3.13
379.143	3.16
379.591	3.19
380.038	3.22
380.485	3.24
380.932	3.27
381.379	3.29
381.826	3.31
382.273	3.34
382.72	3.36
383.166	3.39
383.613	3.42
384.06	3.44
384.506	3.46
384.953	3.49
385.4	3.51
385.846	3.55
386.292	3.57
386.739	3.6
387.185	3.62
387.631	3.65
388.078	3.68
388.524	3.7
388.97	3.73
389.416	3.76
389.862	3.8
390.308	3.84
390.754	3.87
391.2	3.9
391.645	3.94
392.091	3.99
392.537	4.03
392.983	4.06
393.428	4.09
393.874	4.13
394.319	4.16
394.765	4.19
395.21	4.2
395.655	4.23
396.101	4.27
396.546	4.29
396.991	4.32
397.436	4.34
397.881	4.38
398.326	4.4
398.771	4.42
399.216	4.44
399.661	4.48
400.106	4.5
400.551	4.5
400.995	4.5
401.44	4.53
401.885	4.53
402.329	4.54
402.774	4.55
403.218	4.56
403.663	4.57
404.107	4.59
404.551	4.58
404.995	4.58
405.44	4.59
405.884	4.6
406.328	4.61
406.772	4.62
407.216	4.63
407.66	4.62
408.104	4.61
408.547	4.61
408.991	4.62
409.435	4.63
409.879	4.63
410.322	4.64
410.766	4.65
411.209	4.65
411.653	4.66
412.096	4.67
412.54	4.68
412.983	4.68
413.426	4.71
413.869	4.72
414.312	4.74
414.756	4.77
415.199	4.76
415.642	4.77
416.085	4.78
416.527	4.77
416.97	4.77
417.413	4.76
417.856	4.76
418.298	4.75
418.741	4.75
419.184	4.74
419.626	4.74
420.069	4.76
420.511	4.75
420.953	4.76
421.396	4.77
421.838	4.79
422.28	4.8
422.722	4.83
423.164	4.84
423.606	4.84
424.048	4.85
424.49	4.84
424.932	4.84
425.374	4.83
425.816	4.81
426.258	4.78
426.699	4.77
427.141	4.76
427.582	4.74
428.024	4.75
428.465	4.75
428.907	4.74
429.348	4.73
429.789	4.74
430.231	4.76
430.672	4.78
431.113	4.81
431.554	4.81
431.995	4.82
432.436	4.82
432.877	4.82
433.318	4.82
433.759	4.85
434.2	4.88
434.64	4.88
435.081	4.89
435.522	4.91
435.962	4.93
436.403	4.96
436.843	5
437.284	5
437.724	5.01
438.164	5.02
438.604	5.05
439.045	5.05
439.485	5.06
439.925	5.06
440.365	5.08
440.805	5.1
441.245	5.11
441.685	5.14
442.125	5.19
442.564	5.22
443.004	5.26
443.444	5.27
443.883	5.3
444.323	5.32
444.762	5.37
445.202	5.38
445.641	5.43
446.081	5.47
446.52	5.48
446.959	5.52
447.398	5.56
447.837	5.59
448.276	5.63
448.716	5.68
449.154	5.71
449.593	5.76
450.032	5.79
450.471	5.81
450.91	5.83
451.349	5.86
451.787	5.87
452.226	5.89
452.664	5.91
453.103	5.91
453.541	5.93
453.98	5.95
454.418	5.93
454.856	5.95
455.295	5.94
455.733	5.92
456.171	5.92
456.609	5.92
457.047	5.91
457.485	5.9
457.923	5.91
458.361	5.91
458.798	5.91
459.236	5.92
459.674	5.92
460.111	5.93
460.549	5.95
460.987	5.95
461.424	5.96
461.862	5.97
462.299	5.98
462.736	5.97
463.173	5.97
463.611	5.98
464.048	5.98
464.485	5.98
464.922	5.99
465.359	5.99
465.796	5.99
466.233	6
466.67	6
467.106	6.01
467.543	6.02
467.98	6.02
468.416	6
468.853	6.01
469.29	6.02
469.726	6.02
470.162	6.03
470.599	6.04
471.035	6.03
471.471	6.03
471.907	6.03
472.344	6.04
472.78	6.05
473.216	6.06
473.652	6.07
474.088	6.06
474.523	6.08
474.959	6.08
475.395	6.09
475.831	6.1
476.266	6.11
476.702	6.11
477.138	6.12
477.573	6.13
478.008	6.13
478.444	6.13
478.879	6.13
479.314	6.13
479.75	6.13
480.185	6.12
480.62	6.11
481.055	6.1
481.49	6.1
481.925	6.11
482.36	6.11
482.795	6.11
483.229	6.12
483.664	6.14
484.099	6.14
484.534	6.15
484.968	6.17
485.403	6.19
485.837	6.21
486.271	6.24
486.706	6.26
487.14	6.29
487.574	6.31
488.009	6.35
488.443	6.38
488.877	6.42
489.311	6.46
489.745	6.51
490.179	6.57
490.613	6.62
491.046	6.67
491.48	6.73
491.914	6.78
492.348	6.85
492.781	6.9
493.215	6.98
493.648	7.04
494.082	7.11
494.515	7.17
494.948	7.24
495.382	7.32
495.815	7.4
496.248	7.5
496.681	7.6
497.114	7.69
497.547	7.79
497.98	7.9
498.413	8
498.846	8.11
499.279	8.22
499.711	8.35
500.144	8.48
500.577	8.6
501.009	8.72
501.442	8.84
501.874	8.99
502.306	9.14
502.739	9.3
503.171	9.45
503.603	9.62
504.036	9.79
504.468	9.95
504.9	10.11
505.332	10.29
505.764	10.5
506.196	10.68
506.627	10.88
507.059	11.06
507.491	11.25
507.923	11.45
508.354	11.66
508.786	11.88
509.217	12.11
509.649	12.33
510.08	12.56
510.512	12.78
510.943	13.02
511.374	13.24
511.805	13.47
512.237	13.7
512.668	13.96
513.099	14.19
513.53	14.42
513.961	14.65
514.391	14.91
514.822	15.16
515.253	15.4
515.684	15.65
516.114	15.9
516.545	16.15
516.975	16.41
517.406	16.65
517.836	16.89
518.267	17.15
518.697	17.38
519.127	17.59
519.558	17.82
519.988	18.06
520.418	18.27
520.848	18.47
521.278	18.68
521.708	19.02
522.138	19.23
522.567	19.41
522.997	19.59
523.427	19.79
523.857	19.98
524.286	20.15
524.716	20.32
525.145	20.49
525.575	20.68
526.004	20.85
526.433	20.85
526.863	20.99
527.292	21.15
527.721	21.29
528.15	21.4
528.579	21.51
529.008	21.63
529.437	21.74
529.866	21.83
530.295	21.93
530.724	22.01
531.152	22.1
531.581	22.19
532.01	22.28
532.438	22.36
532.867	22.45
533.295	22.53
533.723	22.6
534.152	22.66
534.58	22.73
535.008	22.77
535.436	22.82
535.865	22.88
536.293	22.93
536.721	22.97
537.149	23.02
537.576	23.05
538.004	23.09
538.432	23.12
538.86	23.16
539.287	23.19
539.715	23.25
540.143	23.28
540.57	23.31
540.998	23.35
541.425	23.37
541.852	23.39
542.28	23.42
542.707	23.46
543.134	23.49
543.561	23.53
543.988	23.55
544.415	23.55
544.842	23.57
545.269	23.59
545.696	23.6
546.123	23.62
546.549	23.63
546.976	23.65
547.403	23.66
547.829	23.67
548.256	23.66
548.682	23.67
549.108	23.67
549.535	23.69
549.961	23.7
550.387	23.69
550.813	23.7
551.24	23.69
551.666	23.68
552.092	23.67
552.518	23.67
552.943	23.66
553.369	23.64
553.795	23.62
554.221	23.6
554.646	23.56
555.072	23.53
555.498	23.49
555.923	23.47
556.349	23.43
556.774	23.38
557.199	23.33
557.625	23.29
558.05	23.23
558.475	23.2
558.9	23.14
559.325	23.09
559.75	23.05
560.175	22.99
560.6	22.92
561.025	22.85
561.449	22.8
561.874	22.72
562.299	22.63
562.723	22.57
563.148	22.48
563.572	22.39
563.997	22.3
564.421	22.2
564.846	22.09
565.27	22.02
565.694	21.93
566.118	21.81
566.542	21.71
566.966	21.62
567.39	21.53
567.814	21.42
568.238	21.33
568.662	21.22
569.086	21.13
569.509	21.05
569.933	20.96
570.357	20.85
570.78	20.76
571.204	20.65
571.627	20.56
572.05	20.44
572.474	20.36
572.897	20.27
573.32	20.18
573.743	20.09
574.166	20
574.589	19.89
575.012	19.81
575.435	19.72
575.858	19.66
576.281	19.56
576.704	19.48
577.126	19.4
577.549	19.31
577.972	19.22
578.394	19.15
578.817	19.07
579.239	19.01
579.661	18.92
580.084	18.85
580.506	18.78
580.928	18.71
581.35	18.64
581.772	18.57
582.194	18.51
582.616	18.46
583.038	18.39
583.46	18.32
583.882	18.27
584.303	18.22
584.725	18.17
585.147	18.11
585.568	18.07
585.99	18.02
586.411	17.97
586.833	17.91
587.254	17.86
587.675	17.81
588.096	17.77
588.518	17.71
588.939	17.67
589.36	17.63
589.781	17.59
590.202	17.55
590.623	17.51
591.043	17.49
591.464	17.46
591.885	17.43
592.305	17.4
592.726	17.39
593.147	17.36
593.567	17.33
593.987	17.29
594.408	17.25
594.828	17.22
595.248	17.2
595.669	17.18
596.089	17.15
596.509	17.13
596.929	17.1
597.349	17.06
597.769	17.04
598.189	17
598.608	16.98
599.028	16.96
599.448	16.91
599.867	16.88
600.287	16.84
600.706	16.8
601.126	16.76
601.545	16.72
601.965	16.69
602.384	16.64
602.803	16.61
603.222	16.57
603.641	16.52
604.061	16.49
604.48	16.45
604.898	16.38
605.317	16.34
605.736	16.29
606.155	16.23
606.574	16.17
606.992	16.12
607.411	16.06
607.829	15.97
608.248	15.89
608.666	15.82
609.085	15.76
609.503	15.7
609.921	15.64
610.339	15.58
610.758	15.52
611.176	15.45
611.594	15.38
612.012	15.31
612.43	15.27
612.847	15.21
613.265	15.14
613.683	15.08
614.101	15.01
614.518	14.93
614.936	14.85
615.353	14.78
615.771	14.73
616.188	14.67
616.606	14.62
617.023	14.57
617.44	14.52
617.857	14.47
618.274	14.42
618.691	14.37
619.108	14.34
619.525	14.3
619.942	14.28
620.359	14.24
620.776	14.2
621.192	14.17
621.609	14.15
622.026	14.12
622.442	14.1
622.859	14.07
623.275	14.04
623.691	14.02
624.108	14.01
624.524	13.99
624.94	13.98
625.356	13.98
625.772	13.96
626.188	13.94
626.604	13.92
627.02	13.9
627.436	13.9
627.852	13.89
628.268	13.89
628.683	13.87
629.099	13.85
629.514	13.83
629.93	13.81
630.345	13.8
630.761	13.77
631.176	13.75
631.591	13.73
632.007	13.69
632.422	13.65
632.837	13.59
633.252	13.55
633.667	13.5
634.082	13.44
634.497	13.37
634.911	13.29
635.326	13.22
635.741	13.16
636.155	13.05
636.57	12.97
636.984	12.89
637.399	12.79
637.813	12.7
638.228	12.58
638.642	12.48
639.056	12.37
639.47	12.27
639.884	12.16
640.298	12.03
640.712	11.92
641.126	11.8
641.54	11.68
641.954	11.58
642.368	11.46
642.781	11.35
643.195	11.23
643.609	11.13
644.022	11.02
644.436	10.92
644.849	10.81
645.262	10.69
645.676	10.6
646.089	10.51
646.502	10.42
646.915	10.34
647.328	10.26
647.741	10.19
648.154	10.12
648.567	10.06
648.98	9.99
649.393	9.94
649.805	9.9
650.218	9.85
650.631	9.8
651.043	9.74
651.456	9.68
651.868	9.63
652.28	9.58
652.693	9.53
653.105	9.48
653.517	9.43
653.929	9.37
654.341	9.29
654.753	9.22
655.165	9.15
655.577	9.07
655.989	8.99
656.401	8.91
656.813	8.83
657.224	8.73
657.636	8.62
658.047	8.53
658.459	8.42
658.87	8.31
659.282	8.19
659.693	8.09
660.104	7.97
660.515	7.85
660.926	7.75
661.338	7.62
661.749	7.51
662.159	7.41
662.57	7.3
662.981	7.21
663.392	7.12
663.803	7.04
664.213	6.93
664.624	6.85
665.035	6.77
665.445	6.69
665.855	6.62
666.266	6.55
666.676	6.49
667.086	6.41
667.497	6.35
667.907	6.3
668.317	6.26
668.727	6.22
669.137	6.18
669.547	6.14
669.956	6.1
670.366	6.08
670.776	6.05
671.186	6.01
671.595	5.99
672.005	5.97
672.414	5.96
672.824	5.94
673.233	5.94
673.642	5.94
674.052	5.94
674.461	5.94
674.87	5.95
675.279	5.96
675.688	5.99
676.097	6.02
676.506	6.04
676.915	6.06
677.323	6.1
677.732	6.13
678.141	6.17
678.549	6.21
678.958	6.26
679.366	6.33
679.775	6.39
680.183	6.46
680.592	6.55
681	6.66
681.408	6.77
681.816	6.91
682.224	7.05
682.632	7.21
683.04	7.38
683.448	7.56
683.856	7.75
684.264	7.98
684.671	8.25
685.079	8.5
685.487	8.79
685.894	9.09
686.302	9.41
686.709	9.76
687.116	10.13
687.524	10.51
687.931	10.92
688.338	11.35
688.745	11.76
689.152	12.18
689.559	12.66
689.966	13.1
690.373	13.57
690.78	14.05
691.187	14.51
691.593	14.98
692	15.45
692.407	15.91
692.813	16.39
693.22	16.86
693.626	17.33
694.032	17.77
694.439	18.23
694.845	18.66
695.251	19.1
695.657	19.53
696.063	19.96
696.469	20.39
696.875	20.81
697.281	21.21
697.687	21.6
698.093	22
698.498	22.38
698.904	22.74
699.31	23.1
699.715	23.45
700.12	23.79
700.526	24.13
700.931	24.46
701.337	24.79
701.742	25.11
702.147	25.41
702.552	25.71
702.957	25.99
703.362	26.26
703.767	26.53
704.172	26.8
704.577	27.05
704.981	27.28
705.386	27.52
705.791	27.74
706.195	27.98
706.6	28.2
707.004	28.42
707.408	28.64
707.813	28.86
708.217	29.08
708.621	29.29
709.025	29.5
709.43	29.67
709.834	29.87
710.237	30.05
710.641	30.21
711.045	30.39
711.449	30.55
711.853	30.73
712.256	30.88
712.66	31.03
713.064	31.19
713.467	31.34
713.87	31.51
714.274	31.64
714.677	31.79
715.08	31.93
715.484	32.07
715.887	32.21
716.29	32.33
716.693	32.47
717.096	32.6
717.499	32.72
717.901	32.83
718.304	32.94
718.707	33.06
719.109	33.17
719.512	33.28
719.915	33.39
720.317	33.48
720.719	33.57
721.122	33.66
721.524	33.77
721.926	33.87
722.328	33.99
722.731	34.08
723.133	34.16
723.535	34.23
723.937	34.32
724.338	34.4
724.74	34.48
725.142	34.64
725.544	34.71
725.945	34.79
726.347	34.82
726.748	34.87
727.15	34.92
727.551	34.98
727.952	35.03
728.354	35.07
728.755	35.11
729.156	35.14
729.557	35.1
729.958	35.14
730.359	35.17
730.76	35.24
731.161	35.27
731.562	35.32
731.962	35.36
732.363	35.4
732.763	35.45
733.164	35.49
733.564	35.53
733.965	35.56
734.365	35.59
734.766	35.61
735.166	35.62
735.566	35.65
735.966	35.69
736.366	35.72
736.766	35.76
737.166	35.79
737.566	35.81
737.966	35.82
738.365	35.87
738.765	35.9
739.165	35.92
739.564	35.95
739.964	35.96
740.363	35.95
740.763	35.95
741.162	35.97
741.561	35.97
741.96	35.98
742.36	35.99
742.759	36.01
743.158	35.99
743.557	35.98
743.955	35.98
744.354	35.99
744.753	36.02
745.152	36.06
745.55	36.07
745.949	36.09
746.348	36.11
746.746	36.11
747.144	36.1
747.543	36.14
747.941	36.14
748.339	36.13
748.737	36.13
749.136	36.12
749.534	36.09
749.932	36.09
750.33	36.08
750.727	36.07
751.125	36.08
751.523	36.1
751.921	36.08
752.318	36.1
752.716	36.11
753.113	36.13
753.511	36.14
753.908	36.16
754.305	36.16
754.703	36.14
755.1	36.13
755.497	36.13
755.894	36.12
756.291	36.11
756.688	36.08
757.085	36.08
757.482	36.05
757.878	36.06
758.275	36.05
758.672	36.03
759.068	36.04
759.465	36.04
759.861	36.04
760.258	36.03
760.654	36.03
761.05	36.05
761.447	36.06
761.843	36.06
762.239	36.04
762.635	36.04
763.031	36.03
763.427	36.03
763.822	36.04
764.218	36.05
764.614	36.08
765.01	36.08
765.405	36.07
765.801	36.05
766.196	36.07
766.592	36.08
766.987	36.07
767.382	36.07
767.778	36.09
768.173	36.08
768.568	36.05
768.963	36.03
769.358	36.04
769.753	36.03
770.148	36.03
770.542	36.01
770.937	36.01
771.332	36.01
771.726	35.99
772.121	35.98
772.515	35.97
772.91	35.96
773.304	35.96
773.699	35.94
774.093	35.94
774.487	35.92
774.881	35.94
775.275	35.93
775.669	35.92
776.063	35.91
776.457	35.91
776.851	35.9
777.245	35.89
777.638	35.87
778.032	35.87
778.425	35.91
778.819	35.94
779.212	35.93
779.606	35.94
779.999	35.94
780.392	35.97
780.786	35.97
781.179	35.97
781.572	35.98
781.965	35.99
782.358	35.99
782.751	35.95
783.143	35.93
783.536	35.94
783.929	35.92
784.322	35.93
784.714	35.91
785.107	35.91
785.499	35.94
785.891	35.93
786.284	35.95
786.676	35.95
787.068	35.94
787.46	35.93
787.852	35.92
788.245	35.93
788.636	35.91
789.028	35.89
789.42	35.87
789.812	35.84
790.204	35.86
790.595	35.86
790.987	35.86
791.378	35.89
791.77	35.89
792.161	35.88
792.553	35.89
792.944	35.9
793.335	35.91
793.726	35.92
794.117	35.91
794.508	35.88
794.899	35.87
795.29	35.87
795.681	35.84
796.072	35.83
796.463	35.84
796.853	35.82
797.244	35.83
797.634	35.82
798.025	35.84
798.415	35.83
798.806	35.83
799.196	35.85
799.586	35.84
799.976	35.86
800.366	35.87
800.756	35.87
801.146	35.87
801.536	35.84
801.926	35.83
802.316	35.81
802.706	35.83
803.095	35.84
803.485	35.82
803.874	35.81
804.264	35.8
804.653	35.78
805.043	35.76
805.432	35.76
805.821	35.78
806.21	35.78
806.599	35.8
806.988	35.79
807.377	35.79
807.766	35.79
808.155	35.78
808.544	35.76
808.933	35.75
809.321	35.77
809.71	35.78
810.098	35.76
810.487	35.75
810.875	35.73
811.264	35.72
811.652	35.71
812.04	35.7
812.428	35.73
812.816	35.73
813.204	35.74
813.592	35.71
813.98	35.71
814.368	35.72
814.756	35.71
815.144	35.67
815.531	35.68
815.919	35.68
816.306	35.65
816.694	35.62
817.081	35.62
817.469	35.62
817.856	35.62
818.243	35.61
818.63	35.59
819.017	35.59
819.404	35.6
819.791	35.6
820.178	35.59
820.565	35.59
820.952	35.59
821.339	35.58
821.725	35.58
822.112	35.59
822.498	35.61
822.885	35.63
823.271	35.62
823.657	35.58
824.044	35.59
824.43	35.61
824.816	35.61
825.202	35.61
825.588	35.62
825.974	35.6
826.36	35.59
826.746	35.56
827.132	35.56
827.517	35.56
827.903	35.58
828.289	35.58
828.674	35.56
829.06	35.55
829.445	35.54
829.83	35.52
830.216	35.5
830.601	35.49
830.986	35.48
831.371	35.45
831.756	35.45
832.141	35.45
832.526	35.45
832.911	35.45
833.295	35.46
833.68	35.48
834.065	35.5
834.449	35.52
834.834	35.53
835.218	35.54
835.603	35.56
835.987	35.55
836.371	35.53
836.755	35.51
837.139	35.48
837.524	35.49
837.908	35.48
838.291	35.49
838.675	35.48
839.059	35.48
839.443	35.46
839.827	35.44
840.21	35.46
840.594	35.5
840.977	35.5
841.361	35.52
841.744	35.48
842.127	35.45
842.511	35.42
842.894	35.41
843.277	35.41
843.66	35.4
844.043	35.41
844.426	35.4
844.809	35.37
845.191	35.39
845.574	35.38
845.957	35.41
846.339	35.44
846.722	35.45
847.104	35.46
847.487	35.45
847.869	35.45
848.252	35.44
848.634	35.44
849.016	35.45
849.398	35.43
849.78	35.42
850.162	35.41
850.544	35.39
850.926	35.38
851.307	35.37
851.689	35.37
852.071	35.39
852.452	35.38
852.834	35.39
853.215	35.39
853.597	35.39
853.978	35.4
854.359	35.41
854.741	35.41
855.122	35.43
855.503	35.42
855.884	35.41
856.265	35.39
856.646	35.36
857.026	35.37
857.407	35.37
857.788	35.39
858.169	35.37
858.549	35.35
858.93	35.34
859.31	35.32
859.69	35.33
860.071	35.33
860.451	35.34
860.831	35.37
861.211	35.35
861.591	35.34
861.971	35.34
862.351	35.35
862.731	35.35
863.111	35.35
863.491	35.37
863.87	35.36
864.25	35.35
864.629	35.36
865.009	35.36
865.388	35.37
865.768	35.37
866.147	35.36
866.526	35.34
866.905	35.34
867.284	35.34
867.663	35.32
868.042	35.32
868.421	35.33
868.8	35.33
869.179	35.31
869.558	35.29
869.936	35.27
870.315	35.27
870.693	35.29
871.072	35.29
871.45	35.29
871.828	35.3
872.207	35.3
872.585	35.28
872.963	35.27
873.341	35.27
873.719	35.26
874.097	35.27
874.475	35.28
874.853	35.27
875.23	35.29
875.608	35.29
875.986	35.31
876.363	35.33
876.741	35.34
877.118	35.35
877.495	35.36
877.873	35.37
878.25	35.38
878.627	35.38
879.004	35.38
879.381	35.36
879.758	35.34
880.135	35.32
880.512	35.32
880.889	35.34
881.265	35.34
881.642	35.35
882.019	35.36
882.395	35.34
882.772	35.34
883.148	35.34
883.524	35.34
883.901	35.35
884.277	35.33
884.653	35.31
885.029	35.3
885.405	35.29
885.781	35.28
886.157	35.28
886.532	35.31
886.908	35.29
887.284	35.28
887.659	35.27
888.035	35.26
888.411	35.27
888.786	35.26
889.161	35.27
889.537	35.27
889.912	35.27
890.287	35.25
890.662	35.23
891.037	35.24
891.412	35.26
891.787	35.25
892.162	35.26
892.536	35.25
892.911	35.25
893.286	35.24
893.66	35.23
894.035	35.22
894.409	35.23
894.784	35.23
895.158	35.23
895.532	35.21
895.906	35.21
896.281	35.21
896.655	35.21
897.029	35.22
897.402	35.21
897.776	35.22
898.15	35.23
898.524	35.23
898.898	35.22
899.271	35.21
899.645	35.21
900.018	35.22
900.392	35.22
900.765	35.23
901.138	35.23
901.511	35.24
901.884	35.24
902.258	35.23
902.631	35.22
903.003	35.23
903.376	35.22
903.749	35.21
904.122	35.22
904.495	35.24
904.867	35.24
905.24	35.24
905.612	35.24
905.985	35.21
906.357	35.2
906.729	35.24
907.102	35.22
907.474	35.25
907.846	35.24
908.218	35.22
908.59	35.21
908.962	35.22
909.334	35.23
909.705	35.22
910.077	35.24
910.449	35.23
910.82	35.2
911.192	35.2
911.563	35.18
911.935	35.17
912.306	35.16
912.677	35.17
913.048	35.16
913.419	35.14
913.79	35.15
914.161	35.16
914.532	35.18
914.903	35.18
915.274	35.18
915.645	35.2
916.015	35.21
916.386	35.23
916.756	35.23
917.127	35.23
917.497	35.23
917.868	35.22
918.238	35.2
918.608	35.23
918.978	35.22
919.348	35.23
919.718	35.22
920.088	35.25
920.458	35.23
920.828	35.21
921.198	35.2
921.567	35.19
921.937	35.22
922.306	35.21
922.676	35.21
923.045	35.19
923.415	35.2
923.784	35.21
924.153	35.21
924.522	35.22
924.891	35.23
925.26	35.25
925.629	35.28
925.998	35.25
926.367	35.26
926.736	35.24
927.104	35.29
927.473	35.28
927.842	35.25
928.21	35.26
928.578	35.23
928.947	35.25
929.315	35.23
929.683	35.21
930.051	35.21
930.42	35.19
930.788	35.18
931.156	35.14
931.523	35.13
931.891	35.2
932.259	35.19
932.627	35.19
932.994	35.15
933.362	35.11
933.729	35.12
934.097	35.14
934.464	35.18
934.831	35.2
935.199	35.24
935.566	35.25
935.933	35.19
936.3	35.18
936.667	35.19
937.034	35.24
937.401	35.33
937.767	35.33
938.134	35.31
938.501	35.3
938.867	35.28
939.234	35.28
939.6	35.22
939.967	35.21
940.333	35.18
940.699	35.19
941.065	35.11
941.431	35.04
941.798	35.02
942.163	35.03
942.529	35
942.895	34.99
943.261	34.95
943.627	34.98
943.992	35.03
944.358	35.01
944.723	34.99
945.089	35.01
945.454	35.04
945.82	34.99
946.185	34.99
946.55	34.96
946.915	34.97
947.28	34.93
947.645	34.91
948.01	34.86
948.375	34.88
948.74	34.88
949.104	34.87
949.469	34.84
949.834	34.85
950.198	34.8
950.562	34.79
950.927	34.8
951.291	34.73
951.655	34.7
952.02	34.71
952.384	34.65
952.748	34.58
953.112	34.58
953.476	34.53
953.839	34.51
954.203	34.48
954.567	34.51
954.931	34.46
955.294	34.48
955.658	34.52
956.021	34.52
956.385	34.52
956.748	34.5
957.111	34.45
957.474	34.47
957.837	34.45
958.2	34.46
958.563	34.45
958.926	34.46
959.289	34.49
959.652	34.44
960.015	34.42
960.377	34.41
960.74	34.46
961.102	34.46
961.465	34.51
961.827	34.58
962.189	34.6
962.552	34.61
962.914	34.59
963.276	34.6
963.638	34.63
964	34.62
964.362	34.66
964.724	34.63
965.085	34.64
965.447	34.61
965.809	34.55
966.17	34.58
966.532	34.55
966.893	34.54
967.255	34.54
967.616	34.5
967.977	34.52
968.338	34.48
968.699	34.51
969.061	34.5
969.421	34.5
969.782	34.55
970.143	34.55
970.504	34.56
970.865	34.61
971.225	34.6
971.586	34.61
971.946	34.66
972.307	34.66
972.667	34.61
973.027	34.6
973.388	34.55
973.748	34.56
974.108	34.56
974.468	34.57
974.828	34.6
975.188	34.56
975.548	34.53
975.907	34.5
976.267	34.57
976.627	34.64
976.986	34.68
977.346	34.69
977.705	34.63
978.064	34.64
978.424	34.63
978.783	34.58
979.142	34.59
979.501	34.61
979.86	34.63
980.219	34.59
980.578	34.55
980.937	34.61
981.296	34.61
981.654	34.65
982.013	34.64
982.371	34.66
982.73	34.68
983.088	34.75
983.447	34.71
983.805	34.69
984.163	34.74
984.521	34.74
984.879	34.62
985.237	34.69
985.595	34.66
985.953	34.64
986.311	34.58
986.669	34.54
987.026	34.53
987.384	34.6
987.741	34.56
988.099	34.54
988.456	34.57
988.814	34.66
989.171	34.65
989.528	34.7
989.885	34.69
990.242	34.76
990.599	34.88
990.956	34.92
991.313	34.97
991.67	35.05
992.027	35.09
992.383	35.11
992.74	35.13
993.096	35.11
993.453	35.15
993.809	35.18
994.165	35.2
994.522	35.11
994.878	35.08
995.234	35.07
995.59	35.07
995.946	35.08
996.302	35.1
996.658	35.14
997.013	35.14
997.369	35.1
997.725	35.09
998.08	35.12
998.436	35.12
998.791	35.1
999.147	35.12
999.502	35.13
999.857	35.07
1000.212	34.99
1000.567	34.98
1000.922	34.98
1001.277	35.04
1001.632	35.05
1001.987	35.03
1002.342	35
1002.696	35.01
1003.051	35.05
1003.406	35.1
1003.76	35.15
1004.114	35.17
1004.469	35.26
1004.823	35.43
1005.177	35.36
1005.531	35.45
1005.885	35.45
1006.239	35.42
1006.593	35.59
1006.947	35.53
1007.301	35.46
1007.655	35.41
1008.008	35.5
1008.362	35.44
1008.715	35.26
1009.069	35.3
1009.422	35.23
1009.776	35.25
1010.129	35.45
1010.482	35.3
1010.835	35.41
1011.188	35.52
1011.541	35.58
1011.894	35.67
1012.247	35.66
1012.6	35.61
1012.952	35.54
1013.305	35.66
1013.657	35.7
1014.01	35.66
1014.362	35.66
1014.715	35.57
1015.067	35.62
1015.419	35.71
1015.771	35.46
1016.123	35.43
1016.475	35.61
1016.827	35.75
1017.179	35.82
1017.531	35.88
1017.883	35.83
1018.234	35.99
1018.586	36.08
1018.938	36.11
1019.289	35.97
1019.64	36.16
1019.992	36.2
1020.343	36.09
1020.694	35.99
1021.045	35.82
1021.396	35.8
1021.747	35.99
1022.098	35.87
1022.449	35.96
1022.8	36.07
1023.151	36.09
1023.501	36.11
1023.852	36.19
1024.202	36.31
1024.553	36.51
1024.903	36.56
1025.253	36.54
1025.604	36.43
1025.954	36.46
1026.304	36.39
1026.654	36.34
1027.004	36.41
1027.354	36.49
1027.703	36.16
1028.053	36.18
1028.403	36.24
1028.753	36.29
1029.102	36.3
1029.452	36.27
1029.801	36.31
1030.15	36.29
1030.499	36.05
897.758	1025.74
901.051	1034.55
904.343	1028.48
907.636	1046.64
910.928	1018.5
914.22	1020.65
917.511	1004.1
920.803	962.16
924.094	955.38
927.384	932.3
930.675	894.53
933.965	892.81
937.255	836.51
940.544	805.69
943.834	766.02
947.123	760.94
950.411	716.32
953.7	701.58
956.988	668.31
960.276	643.59
963.563	632.52
966.851	612.61
970.138	607.71
973.424	591.53
976.711	592.64
979.997	565.71
983.283	562.75
986.568	551
989.853	534.7
993.138	523.15
996.423	502.17
999.708	489.59
1002.992	481.66
1006.275	459.38
1009.559	455.4
1012.842	440.79
1016.125	428.6
1019.408	419.75
1022.69	415.02
1025.972	405.16
1029.254	397.08
1032.536	391.13
1035.817	383.35
1039.098	380.32
1042.379	372.89
1045.659	368.39
1048.939	358.15
1052.219	352.48
1055.498	348.42
1058.778	339.88
1062.057	334.15
1065.335	329.81
1068.614	326.42
1071.892	322.23
1075.17	312.81
1078.447	306.68
1081.724	304.34
1085.001	302.99
1088.278	296.55
1091.554	289.21
1094.83	289.39
1098.106	287.13
1101.382	285.17
1104.657	283.4
1107.932	278.51
1111.206	279.67
1114.481	273.38
1117.755	270.86
1121.029	268.12
1124.302	267.72
1127.575	263.18
1130.848	260.25
1134.121	257.35
1137.393	255.4
1140.665	249.3
1143.937	248.24
1147.208	246.41
1150.48	245.45
1153.75	243.27
1157.021	240.27
1160.291	240.47
1163.561	238.55
1166.831	238.21
1170.101	236.21
1173.37	236.46
1176.639	237.73
1179.907	235.51
1183.176	232.59
1186.444	232.9
1189.711	232.01
1192.979	230.84
1196.246	229.2
1199.513	229.99
1202.78	229.13
1206.046	228.93
1209.312	226.81
1212.578	226.66
1215.843	228.52
1219.108	227.7
1222.373	231.5
1225.638	233.15
1228.902	236.64
1232.166	237.89
1235.43	239.36
1238.693	241.87
1241.956	243.41
1245.219	246.45
1248.482	246.33
1251.744	245.82
1255.006	245.83
1258.268	240.76
1261.529	238.78
1264.79	237.5
1268.051	234.73
1271.312	232.03
1274.572	229.56
1277.832	228.12
1281.092	224.47
1284.351	223.52
1287.61	224.05
1290.869	221.01
1294.128	219.52
1297.386	219.07
1300.644	217.05
1303.902	217.46
1307.159	216.89
1310.416	216.61
1313.673	215.34
1316.93	217.83
1320.186	217.44
1323.442	217.23
1326.697	220.75
1329.953	221.3
1333.208	222.34
1336.463	223.8
1339.717	224.56
1342.972	226.86
1346.226	228.91
1349.479	230.17
1352.733	230.72
1355.986	231.84
1359.238	231.91
1362.491	233.07
1365.743	235.27
1368.995	234.76
1372.247	235.71
1375.498	235
1378.749	236.27
1382	233.71
1385.251	233.84
1388.501	232.16
1391.751	232.25
1395	231.28
1398.25	229.31
1401.499	227.2
1404.748	227.03
1407.996	224.36
1411.244	223.41
1414.492	222.18
1417.74	219.33
1420.987	216.72
1424.234	215.91
1427.481	213.03
1430.728	212.9
1433.974	211.29
1437.22	209.36
1440.465	208.75
1443.711	206.69
1446.956	204.79
1450.201	202.1
1453.445	201.13
1456.689	199.62
1459.933	196.89
1463.177	195.58
1466.42	192.38
1469.663	189.54
1472.906	188.59
1476.148	184.11
1479.391	182.17
1482.633	181.47
1485.874	179.09
1489.115	177.35
1492.356	175.6
1495.597	175.19
1498.838	172.28
1502.078	171.61
1505.318	171.35
1508.557	171.17
1511.797	171.44
1515.036	170
1518.274	169.12
1521.513	168.73
1524.751	168.59
1527.989	168.04
1531.227	167.23
1534.464	168.3
1537.701	166.83
1540.938	166.64
1544.174	165.03
1547.41	164.54
1550.646	164.09
1553.882	164.43
1557.117	161.81
1560.352	160.98
1563.587	161.01
1566.821	160.21
1570.055	158.86
1573.289	157.8
1576.523	157.75
1579.756	156.03
1582.989	155.62
1586.222	155.43
1589.454	154.15
1592.686	155.47
1595.918	154.44
1599.15	153.84
1602.381	154.16
1605.612	153.98
1608.843	154.58
1612.073	154.08
1615.303	155.5
1618.533	155.32
1621.762	155.37
1624.992	156.05
1628.221	155.6
1631.449	155.86
1634.678	155.33
1637.906	155.98
1641.134	156.17
1644.361	156.07
1647.588	156.15
1650.815	155.66
1654.042	154.89
1657.269	156.03
1660.495	155.83
1663.72	155.6
1666.946	156.22
1670.171	156.91
1673.396	156.45
1676.621	156.45
1679.845	156.77
1683.069	156.9
1686.293	157.62
1689.517	158.6
1692.74	158.18
1695.963	158.6
1699.185	159.98
1702.408	159.57
1705.63	160.77
1708.852	161.46
1712.073	161.07
1715.294	161.48
1718.515	162.35
1721.736	162.38
1724.956	162.54
1728.176	162.52
1731.396	163.69
1734.616	163.08
1737.835	164.49
1741.054	162.09
1744.272	162.41
1747.491	163.96
1750.709	164.07
1753.927	163.98
1757.144	163.49
1760.361	164.13
1763.578	164.89
1766.795	164.13
1770.011	164.99
1773.227	165.03
1776.443	167.14
1779.658	167.48
1782.874	167.48
1786.089	168.2
1789.303	168.46
1792.518	170.9
1795.732	170.15
1798.945	171.57
1802.159	171.9
1805.372	172.7
1808.585	174.88
1811.797	175.69
1815.01	175.89
1818.222	177.23
1821.434	178.41
1824.645	179.25
1827.856	181.38
1831.067	183.35
1834.278	182.74
1837.488	184.25
1840.698	185.03
1843.908	183.65
1847.117	184.54
1850.326	185.51
1853.535	184.49
1856.744	186.96
1859.952	186.24
1863.16	184.6
1866.368	183.38
1869.575	184.32
1872.782	182.13
1875.989	180.79
1879.196	179.76
1882.402	178.43
1885.608	178.75
1888.814	178.68
1892.019	177.83
1895.224	177.44
1898.429	176.94
1901.634	177.44
1904.838	177.41
1908.042	179.11
1911.246	179.69
1914.449	181.04
1917.652	180.25
1920.855	180.21
1924.058	179.97
1927.26	178.86
1930.462	179.26
1933.664	181.21
1936.865	179.85
1940.066	179.54
1943.267	178.16
1946.467	177.48
1949.668	178.78
1952.868	181.39
1956.067	181.26
1959.267	182.95
1962.466	183.37
1965.665	182.41
1968.863	182.6
1972.061	185.07
1975.259	186.63
1978.457	188.19
1981.654	190.98
1984.852	191.09
1988.048	190.3
1991.245	192
1994.441	193.69
1997.637	194.78
2000.833	199.11
2004.028	201.97
2007.223	203.53
2010.418	205.2
2013.613	208.83
2016.807	210.83
2020.001	212.8
2023.194	216.6
2026.388	221.77
2029.581	225.71
2032.774	228.48
2035.966	232.34
2039.158	232.26
2042.35	236.72
2045.542	238.88
2048.733	241.46
2051.924	245.21
2055.115	249.18
2058.306	249.51
2061.496	251.57
2064.686	251.84
2067.875	255.66
2071.065	257.6
2074.254	256.61
2077.442	259.54
2080.631	260.38
2083.819	263.88
2087.007	263.89
2090.195	266.67
2093.382	269.23
2096.569	267.61
2099.756	272.54
2102.942	274.14
2106.128	276.41
2109.314	281.98
2112.5	281.27
2115.685	287.58
2118.87	287.87
2122.055	293.98
2125.239	296.54
2128.424	300.55
2131.608	302.33
2134.791	306.87
2137.974	307.85
2141.157	308.31
2144.34	310.04
2147.523	314.27
2150.705	312.75
2153.887	316.58
2157.068	316.63
2160.25	312.95
2163.431	314.06
2166.611	318.94
2169.792	322.55
2172.972	326.66
2176.152	328.08
2179.331	332.18
2182.511	337.7
2185.69	340.11
2188.868	346.38
2192.047	348.63
2195.225	360.16
2198.403	367.71
2201.58	373.87
2204.758	380.7
2207.935	387.36
2211.111	396.04
2214.288	401.9
2217.464	402.74
2220.64	410.51
2223.815	414.31
2226.991	429.79
2230.166	428.64
2233.34	436.89
2236.515	444.72
2239.689	446.64
2242.863	448.84
2246.036	461.14
2249.209	456.78
2252.382	465.15
2255.555	478.32
2258.727	480.43
2261.9	484.92
2265.071	491.31
2268.243	497.43
2271.414	502.78
2274.585	512.57
2277.756	518.84
2280.926	523.71
2284.096	536.02
2287.266	544.7
2290.436	550.58
2293.605	563.4
2296.774	576.31
2299.942	592.09
2303.111	599.3
2306.279	610.95
2309.447	619.79
2312.614	635.87
2315.781	650.8
2318.948	679.93
2322.115	671.93
2325.281	709.35
2328.447	694.05
2331.613	718.1
2334.779	713.26
2337.944	745.01
2341.109	752.19
2344.274	772.43
2347.438	796.52
2350.602	796.06
2353.766	822.27
2356.929	837.63
2360.092	823.98
2363.255	884.37
2366.418	888.29
2369.58	906.12
2372.742	951.41
2375.904	977.49
2379.066	973.89
2382.227	957.96
2385.388	1039.89
2388.548	1040.91
2391.709	1049.12
2394.869	1177.86
2398.029	1128.17
2401.188	1157.08
2404.347	1148.73
2407.506	1137.2
2410.665	1163.59
2413.823	1236.85
2416.981	1309.26
2420.139	1266.81
2423.296	1251.33
2426.453	1306.5
2429.61	1254.78
2432.767	1313.13
2435.923	1301.95
2439.079	1422.38
2442.235	1440.95
2445.391	1429.24
2448.546	1410.42
2451.701	1374.4
2454.855	1373.48
2458.009	1452.1
2461.163	1516.39
2464.317	1570.77
2467.471	1607.57
2470.624	1604.87
2473.777	1558.71
2476.929	1525.5
2480.082	1483.06
2483.234	1470.61
2486.385	1541.86
2489.537	1550.64
2492.688	1605.94
2495.839	1560.75
2498.989	1524.17
2502.14	1534.91
2505.29	1552.46
2508.439	1583.92
2511.589	1574.99
2514.738	1719.76
2517.887	1676.43
2521.035	1767.31
2524.183	1783.42
2527.331	1800.44
2530.479	1790.6
2533.627	1806.14
