Data from C_1_DIV_OH_2N_Splice17_12-51-49-477.txt Node
Date: Sat Mar 07 12:51:49 EST 2020
User: sa697716
Spectrometer: NQ5500242
Trigger mode: 0
Integration Time (sec): 1.450000E-1
Scans to average: 20
Nonlinearity correction enabled: false
Boxcar width: 5
Storing dark spectrum: false
XAxis mode: Wavelengths
Number of Pixels in Spectrum: 512
>>>>>Begin Spectral Data<<<<<
187.83	37.45
188.298	57.15
188.766	38.87
189.233	44.29
189.701	31.42
190.169	34.94
190.636	19.81
191.104	-56.94
191.571	-390.72
192.039	-353.51
192.506	-711.24
192.974	246.29
193.441	449.28
193.908	175
194.375	122.59
194.842	14.67
195.31	-92.86
195.777	-300.46
196.244	-0.71
196.711	22.8
197.177	29.42
197.644	29.68
198.111	28.91
198.578	29.57
199.045	29.94
199.511	30.14
199.978	30.66
200.445	31.31
200.911	31.37
201.378	31.52
201.844	31.05
202.31	30.55
202.777	30.82
203.243	30.93
203.709	30.76
204.176	31.01
204.642	31.08
205.108	30.77
205.574	30.73
206.04	30.32
206.506	29.93
206.972	30.25
207.438	29.86
207.903	29.24
208.369	28.78
208.835	28.31
209.301	27.53
209.766	26.69
210.232	26.36
210.697	25.72
211.163	25.21
211.628	24.88
212.094	24.02
212.559	23.57
213.024	23.24
213.49	22.9
213.955	22.26
214.42	21.69
214.885	21.03
215.35	20.22
215.815	19.26
216.28	18.02
216.745	16.67
217.21	15.38
217.675	14.35
218.14	13.36
218.604	12.57
219.069	11.88
219.534	11.32
219.998	10.89
220.463	10.49
220.927	10.06
221.392	9.8
221.856	9.55
222.32	9.38
222.785	9.2
223.249	9.01
223.713	8.82
224.177	8.69
224.642	8.55
225.106	8.38
225.57	8.23
226.034	8.13
226.497	8
226.961	7.89
227.425	7.77
227.889	7.64
228.353	7.53
228.816	7.41
229.28	7.29
229.744	7.21
230.207	7.13
230.671	7.03
231.134	6.94
231.597	6.88
232.061	6.8
232.524	6.74
232.987	6.66
233.45	6.61
233.914	6.54
234.377	6.47
234.84	6.4
235.303	6.35
235.766	6.31
236.229	6.23
236.691	6.18
237.154	6.11
237.617	6.05
238.08	5.99
238.542	5.93
239.005	5.9
239.468	5.83
239.93	5.78
240.393	5.72
240.855	5.66
241.317	5.61
241.78	5.55
242.242	5.49
242.704	5.45
243.166	5.4
243.629	5.37
244.091	5.31
244.553	5.26
245.015	5.22
245.477	5.17
245.939	5.13
246.4	5.1
246.862	5.06
247.324	5.03
247.786	4.99
248.247	4.96
248.709	4.91
249.17	4.87
249.632	4.85
250.093	4.82
250.555	4.79
251.016	4.77
251.477	4.73
251.939	4.7
252.4	4.67
252.861	4.64
253.322	4.62
253.783	4.59
254.244	4.57
254.705	4.53
255.166	4.5
255.627	4.48
256.088	4.47
256.549	4.45
257.009	4.43
257.47	4.4
257.931	4.37
258.391	4.34
258.852	4.32
259.312	4.3
259.773	4.28
260.233	4.25
260.694	4.23
261.154	4.2
261.614	4.18
262.074	4.15
262.534	4.13
262.994	4.11
263.455	4.09
263.915	4.07
264.374	4.05
264.834	4.04
265.294	4.03
265.754	4.01
266.214	4
266.673	3.98
267.133	3.97
267.593	3.96
268.052	3.95
268.512	3.94
268.971	3.93
269.431	3.92
269.89	3.9
270.349	3.89
270.809	3.87
271.268	3.86
271.727	3.85
272.186	3.84
272.645	3.83
273.104	3.82
273.563	3.81
274.022	3.79
274.481	3.79
274.94	3.78
275.399	3.77
275.857	3.76
276.316	3.75
276.775	3.74
277.233	3.73
277.692	3.73
278.15	3.72
278.609	3.71
279.067	3.7
279.525	3.69
279.984	3.68
280.442	3.66
280.9	3.66
281.358	3.64
281.816	3.64
282.274	3.63
282.732	3.61
283.19	3.6
283.648	3.59
284.106	3.57
284.564	3.56
285.021	3.56
285.479	3.56
285.937	3.55
286.394	3.55
286.852	3.53
287.309	3.52
287.767	3.5
288.224	3.49
288.682	3.48
289.139	3.47
289.596	3.45
290.053	3.44
290.511	3.42
290.968	3.41
291.425	3.39
291.882	3.38
292.339	3.37
292.796	3.36
293.252	3.35
293.709	3.34
294.166	3.34
294.623	3.33
295.079	3.32
295.536	3.32
295.992	3.31
296.449	3.31
296.905	3.3
297.362	3.29
297.818	3.28
298.274	3.28
298.731	3.27
299.187	3.26
299.643	3.25
300.099	3.24
300.555	3.23
301.011	3.21
301.467	3.2
301.923	3.19
302.379	3.18
302.835	3.17
303.291	3.17
303.746	3.16
304.202	3.16
304.658	3.15
305.113	3.15
305.569	3.14
306.024	3.14
306.479	3.13
306.935	3.12
307.39	3.12
307.845	3.12
308.301	3.12
308.756	3.11
309.211	3.11
309.666	3.11
310.121	3.1
310.576	3.1
311.031	3.1
311.486	3.1
311.94	3.11
312.395	3.11
312.85	3.11
313.305	3.11
313.759	3.11
314.214	3.11
314.668	3.1
315.123	3.1
315.577	3.1
316.032	3.1
316.486	3.09
316.94	3.08
317.394	3.08
317.849	3.06
318.303	3.06
318.757	3.05
319.211	3.05
319.665	3.04
320.119	3.03
320.572	3.01
321.026	3.01
321.48	3
321.934	2.99
322.387	2.99
322.841	2.99
323.295	2.99
323.748	2.99
324.202	2.98
324.655	2.98
325.108	2.98
325.562	2.98
326.015	2.98
326.468	2.97
326.921	2.97
327.374	2.97
327.827	2.97
328.28	2.95
328.733	2.95
329.186	2.96
329.639	2.95
330.092	2.95
330.545	2.95
330.997	2.94
331.45	2.95
331.903	2.95
332.355	2.96
332.808	2.95
333.26	2.96
333.713	2.95
334.165	2.93
334.617	2.93
335.069	2.93
335.522	2.93
335.974	2.93
336.426	2.92
336.878	2.92
337.33	2.91
337.782	2.91
338.234	2.91
338.686	2.91
339.137	2.93
339.589	2.93
340.041	2.93
340.493	2.92
340.944	2.91
341.396	2.9
341.847	2.91
342.299	2.89
342.75	2.89
343.201	2.88
343.653	2.87
344.104	2.85
344.555	2.85
345.006	2.84
345.457	2.83
345.908	2.83
346.359	2.83
346.81	2.82
347.261	2.82
347.712	2.82
348.163	2.81
348.613	2.81
349.064	2.82
349.515	2.82
349.965	2.82
350.416	2.82
350.866	2.82
351.317	2.81
351.767	2.82
352.217	2.82
352.668	2.82
353.118	2.83
353.568	2.82
354.018	2.82
354.468	2.83
354.918	2.83
355.368	2.83
355.818	2.83
356.268	2.83
356.718	2.83
357.168	2.82
357.617	2.83
358.067	2.82
358.517	2.83
358.966	2.83
359.416	2.84
359.865	2.84
360.315	2.86
360.764	2.86
361.213	2.86
361.663	2.86
362.112	2.88
362.561	2.89
363.01	2.9
363.459	2.89
363.908	2.89
364.357	2.9
364.806	2.89
365.255	2.9
365.703	2.91
366.152	2.92
366.601	2.93
367.05	2.94
367.498	2.94
367.947	2.94
368.395	2.96
368.844	2.97
369.292	2.98
369.74	2.99
370.189	3.01
370.637	3.01
371.085	3.02
371.533	3.03
371.981	3.05
372.429	3.07
372.877	3.09
373.325	3.11
373.773	3.12
374.221	3.14
374.669	3.16
375.116	3.17
375.564	3.19
376.012	3.21
376.459	3.22
376.907	3.25
377.354	3.27
377.801	3.29
378.249	3.32
378.696	3.35
379.143	3.37
379.591	3.39
380.038	3.43
380.485	3.46
380.932	3.49
381.379	3.52
381.826	3.55
382.273	3.58
382.72	3.6
383.166	3.64
383.613	3.66
384.06	3.7
384.506	3.73
384.953	3.77
385.4	3.8
385.846	3.84
386.292	3.86
386.739	3.89
387.185	3.92
387.631	3.96
388.078	3.98
388.524	4.02
388.97	4.06
389.416	4.09
389.862	4.13
390.308	4.17
390.754	4.21
391.2	4.26
391.645	4.29
392.091	4.34
392.537	4.38
392.983	4.42
393.428	4.45
393.874	4.49
394.319	4.52
394.765	4.55
395.21	4.57
395.655	4.59
396.101	4.63
396.546	4.65
396.991	4.68
397.436	4.7
397.881	4.74
398.326	4.78
398.771	4.8
399.216	4.82
399.661	4.85
400.106	4.87
400.551	4.88
400.995	4.9
401.44	4.92
401.885	4.93
402.329	4.94
402.774	4.94
403.218	4.96
403.663	4.96
404.107	4.97
404.551	4.98
404.995	4.98
405.44	4.98
405.884	4.98
406.328	4.99
406.772	4.99
407.216	4.99
407.66	4.99
408.104	4.99
408.547	5
408.991	5
409.435	4.99
409.879	5
410.322	5.01
410.766	5.01
411.209	5.02
411.653	5.04
412.096	5.05
412.54	5.06
412.983	5.06
413.426	5.07
413.869	5.09
414.312	5.11
414.756	5.13
415.199	5.12
415.642	5.14
416.085	5.14
416.527	5.14
416.97	5.12
417.413	5.12
417.856	5.13
418.298	5.12
418.741	5.12
419.184	5.12
419.626	5.12
420.069	5.14
420.511	5.15
420.953	5.15
421.396	5.15
421.838	5.16
422.28	5.17
422.722	5.18
423.164	5.18
423.606	5.18
424.048	5.18
424.49	5.18
424.932	5.17
425.374	5.15
425.816	5.12
426.258	5.11
426.699	5.1
427.141	5.08
427.582	5.08
428.024	5.08
428.465	5.08
428.907	5.07
429.348	5.05
429.789	5.05
430.231	5.06
430.672	5.09
431.113	5.12
431.554	5.13
431.995	5.15
432.436	5.15
432.877	5.16
433.318	5.17
433.759	5.19
434.2	5.22
434.64	5.24
435.081	5.26
435.522	5.28
435.962	5.28
436.403	5.3
436.843	5.33
437.284	5.35
437.724	5.37
438.164	5.38
438.604	5.4
439.045	5.42
439.485	5.43
439.925	5.43
440.365	5.44
440.805	5.46
441.245	5.49
441.685	5.5
442.125	5.53
442.564	5.55
443.004	5.58
443.444	5.61
443.883	5.64
444.323	5.66
444.762	5.7
445.202	5.74
445.641	5.78
446.081	5.82
446.52	5.86
446.959	5.91
447.398	5.96
447.837	6
448.276	6.04
448.716	6.09
449.154	6.15
449.593	6.18
450.032	6.21
450.471	6.24
450.91	6.25
451.349	6.28
451.787	6.28
452.226	6.29
452.664	6.3
453.103	6.3
453.541	6.3
453.98	6.31
454.418	6.3
454.856	6.31
455.295	6.3
455.733	6.3
456.171	6.3
456.609	6.3
457.047	6.3
457.485	6.28
457.923	6.29
458.361	6.29
458.798	6.29
459.236	6.29
459.674	6.28
460.111	6.29
460.549	6.3
460.987	6.3
461.424	6.31
461.862	6.32
462.299	6.34
462.736	6.33
463.173	6.33
463.611	6.33
464.048	6.35
464.485	6.36
464.922	6.37
465.359	6.36
465.796	6.37
466.233	6.37
466.67	6.37
467.106	6.37
467.543	6.38
467.98	6.38
468.416	6.38
468.853	6.39
469.29	6.39
469.726	6.39
470.162	6.4
470.599	6.41
471.035	6.41
471.471	6.42
471.907	6.42
472.344	6.43
472.78	6.45
473.216	6.45
473.652	6.44
474.088	6.43
474.523	6.44
474.959	6.44
475.395	6.43
475.831	6.43
476.266	6.44
476.702	6.44
477.138	6.44
477.573	6.45
478.008	6.45
478.444	6.46
478.879	6.48
479.314	6.49
479.75	6.49
480.185	6.5
480.62	6.5
481.055	6.5
481.49	6.5
481.925	6.49
482.36	6.49
482.795	6.49
483.229	6.5
483.664	6.51
484.099	6.52
484.534	6.53
484.968	6.55
485.403	6.56
485.837	6.58
486.271	6.61
486.706	6.64
487.14	6.67
487.574	6.7
488.009	6.74
488.443	6.76
488.877	6.8
489.311	6.85
489.745	6.89
490.179	6.95
490.613	7.01
491.046	7.06
491.48	7.12
491.914	7.18
492.348	7.24
492.781	7.31
493.215	7.38
493.648	7.46
494.082	7.53
494.515	7.6
494.948	7.68
495.382	7.75
495.815	7.84
496.248	7.93
496.681	8.03
497.114	8.12
497.547	8.22
497.98	8.33
498.413	8.43
498.846	8.54
499.279	8.66
499.711	8.77
500.144	8.9
500.577	9.03
501.009	9.15
501.442	9.28
501.874	9.43
502.306	9.58
502.739	9.73
503.171	9.89
503.603	10.06
504.036	10.23
504.468	10.39
504.9	10.55
505.332	10.72
505.764	10.9
506.196	11.08
506.627	11.28
507.059	11.47
507.491	11.66
507.923	11.86
508.354	12.07
508.786	12.28
509.217	12.5
509.649	12.73
510.08	12.95
510.512	13.18
510.943	13.41
511.374	13.63
511.805	13.85
512.237	14.08
512.668	14.31
513.099	14.54
513.53	14.76
513.961	14.99
514.391	15.22
514.822	15.46
515.253	15.68
515.684	15.92
516.114	16.17
516.545	16.41
516.975	16.64
517.406	16.87
517.836	17.1
518.267	17.35
518.697	17.58
519.127	17.79
519.558	18.01
519.988	18.23
520.418	18.44
520.848	18.63
521.278	18.82
521.708	19.16
522.138	19.35
522.567	19.54
522.997	19.7
523.427	19.87
523.857	20.06
524.286	20.22
524.716	20.39
525.145	20.54
525.575	20.71
526.004	20.88
526.433	20.89
526.863	21.03
527.292	21.17
527.721	21.3
528.15	21.42
528.579	21.53
529.008	21.65
529.437	21.74
529.866	21.83
530.295	21.91
530.724	22
531.152	22.1
531.581	22.18
532.01	22.27
532.438	22.35
532.867	22.43
533.295	22.5
533.723	22.56
534.152	22.62
534.58	22.7
535.008	22.75
535.436	22.8
535.865	22.82
536.293	22.86
536.721	22.88
537.149	22.93
537.576	22.97
538.004	23.01
538.432	23.05
538.86	23.08
539.287	23.11
539.715	23.14
540.143	23.18
540.57	23.22
540.998	23.24
541.425	23.27
541.852	23.28
542.28	23.3
542.707	23.33
543.134	23.35
543.561	23.37
543.988	23.38
544.415	23.39
544.842	23.41
545.269	23.43
545.696	23.45
546.123	23.46
546.549	23.47
546.976	23.49
547.403	23.51
547.829	23.52
548.256	23.52
548.682	23.54
549.108	23.56
549.535	23.58
549.961	23.58
550.387	23.59
550.813	23.59
551.24	23.58
551.666	23.56
552.092	23.56
552.518	23.55
552.943	23.55
553.369	23.54
553.795	23.52
554.221	23.5
554.646	23.47
555.072	23.44
555.498	23.41
555.923	23.38
556.349	23.35
556.774	23.3
557.199	23.26
557.625	23.21
558.05	23.17
558.475	23.12
558.9	23.06
559.325	23.03
559.75	22.98
560.175	22.95
560.6	22.88
561.025	22.82
561.449	22.77
561.874	22.7
562.299	22.63
562.723	22.56
563.148	22.48
563.572	22.42
563.997	22.33
564.421	22.24
564.846	22.14
565.27	22.07
565.694	22
566.118	21.9
566.542	21.82
566.966	21.72
567.39	21.64
567.814	21.55
568.238	21.45
568.662	21.35
569.086	21.27
569.509	21.17
569.933	21.09
570.357	20.98
570.78	20.89
571.204	20.79
571.627	20.72
572.05	20.61
572.474	20.53
572.897	20.44
573.32	20.34
573.743	20.25
574.166	20.16
574.589	20.07
575.012	19.99
575.435	19.91
575.858	19.83
576.281	19.73
576.704	19.67
577.126	19.61
577.549	19.54
577.972	19.47
578.394	19.4
578.817	19.34
579.239	19.27
579.661	19.21
580.084	19.15
580.506	19.09
580.928	19.02
581.35	18.95
581.772	18.87
582.194	18.81
582.616	18.76
583.038	18.71
583.46	18.65
583.882	18.59
584.303	18.52
584.725	18.47
585.147	18.42
585.568	18.38
585.99	18.33
586.411	18.27
586.833	18.22
587.254	18.17
587.675	18.11
588.096	18.06
588.518	18.02
588.939	17.99
589.36	17.94
589.781	17.9
590.202	17.86
590.623	17.84
591.043	17.81
591.464	17.77
591.885	17.74
592.305	17.73
592.726	17.72
593.147	17.7
593.567	17.65
593.987	17.62
594.408	17.6
594.828	17.58
595.248	17.55
595.669	17.54
596.089	17.52
596.509	17.5
596.929	17.47
597.349	17.43
597.769	17.4
598.189	17.38
598.608	17.37
599.028	17.34
599.448	17.3
599.867	17.27
600.287	17.23
600.706	17.2
601.126	17.17
601.545	17.13
601.965	17.1
602.384	17.07
602.803	17.03
603.222	16.99
603.641	16.94
604.061	16.9
604.48	16.85
604.898	16.8
605.317	16.76
605.736	16.71
606.155	16.66
606.574	16.6
606.992	16.55
607.411	16.49
607.829	16.41
608.248	16.33
608.666	16.26
609.085	16.2
609.503	16.14
609.921	16.07
610.339	16
610.758	15.93
611.176	15.86
611.594	15.79
612.012	15.72
612.43	15.68
612.847	15.62
613.265	15.56
613.683	15.5
614.101	15.43
614.518	15.35
614.936	15.29
615.353	15.22
615.771	15.17
616.188	15.11
616.606	15.07
617.023	15.01
617.44	14.99
617.857	14.95
618.274	14.9
618.691	14.84
619.108	14.82
619.525	14.78
619.942	14.74
620.359	14.72
620.776	14.69
621.192	14.66
621.609	14.63
622.026	14.6
622.442	14.57
622.859	14.55
623.275	14.54
623.691	14.51
624.108	14.49
624.524	14.47
624.94	14.46
625.356	14.44
625.772	14.42
626.188	14.43
626.604	14.4
627.02	14.38
627.436	14.36
627.852	14.36
628.268	14.36
628.683	14.35
629.099	14.33
629.514	14.31
629.93	14.3
630.345	14.29
630.761	14.25
631.176	14.23
631.591	14.21
632.007	14.17
632.422	14.13
632.837	14.09
633.252	14.05
633.667	14
634.082	13.94
634.497	13.87
634.911	13.8
635.326	13.74
635.741	13.67
636.155	13.58
636.57	13.51
636.984	13.43
637.399	13.33
637.813	13.24
638.228	13.13
638.642	13.03
639.056	12.92
639.47	12.82
639.884	12.72
640.298	12.61
640.712	12.5
641.126	12.38
641.54	12.26
641.954	12.17
642.368	12.04
642.781	11.94
643.195	11.83
643.609	11.72
644.022	11.61
644.436	11.5
644.849	11.39
645.262	11.29
645.676	11.18
646.089	11.08
646.502	10.99
646.915	10.93
647.328	10.85
647.741	10.77
648.154	10.7
648.567	10.64
648.98	10.59
649.393	10.54
649.805	10.48
650.218	10.44
650.631	10.39
651.043	10.33
651.456	10.27
651.868	10.22
652.28	10.17
652.693	10.11
653.105	10.05
653.517	9.98
653.929	9.92
654.341	9.85
654.753	9.78
655.165	9.7
655.577	9.63
655.989	9.55
656.401	9.46
656.813	9.38
657.224	9.27
657.636	9.17
658.047	9.07
658.459	8.96
658.87	8.85
659.282	8.73
659.693	8.63
660.104	8.5
660.515	8.38
660.926	8.27
661.338	8.16
661.749	8.06
662.159	7.94
662.57	7.84
662.981	7.73
663.392	7.63
663.803	7.53
664.213	7.43
664.624	7.34
665.035	7.25
665.445	7.17
665.855	7.08
666.266	7
666.676	6.95
667.086	6.87
667.497	6.81
667.907	6.75
668.317	6.69
668.727	6.64
669.137	6.59
669.547	6.55
669.956	6.51
670.366	6.47
670.776	6.44
671.186	6.41
671.595	6.39
672.005	6.35
672.414	6.35
672.824	6.33
673.233	6.33
673.642	6.33
674.052	6.33
674.461	6.31
674.87	6.32
675.279	6.33
675.688	6.34
676.097	6.36
676.506	6.38
676.915	6.4
677.323	6.43
677.732	6.44
678.141	6.49
678.549	6.53
678.958	6.59
679.366	6.66
679.775	6.72
680.183	6.8
680.592	6.9
681	7.02
681.408	7.15
681.816	7.29
682.224	7.46
682.632	7.61
683.04	7.8
683.448	8
683.856	8.22
684.264	8.46
684.671	8.71
685.079	8.97
685.487	9.27
685.894	9.58
686.302	9.91
686.709	10.27
687.116	10.64
687.524	11.02
687.931	11.43
688.338	11.84
688.745	12.26
689.152	12.68
689.559	13.13
689.966	13.56
690.373	14.01
690.78	14.47
691.187	14.9
691.593	15.35
692	15.81
692.407	16.24
692.813	16.69
693.22	17.13
693.626	17.58
694.032	18.02
694.439	18.46
694.845	18.88
695.251	19.29
695.657	19.69
696.063	20.09
696.469	20.48
696.875	20.88
697.281	21.26
697.687	21.63
698.093	21.98
698.498	22.3
698.904	22.63
699.31	22.95
699.715	23.27
700.12	23.6
700.526	23.92
700.931	24.21
701.337	24.5
701.742	24.76
702.147	25.02
702.552	25.3
702.957	25.57
703.362	25.83
703.767	26.08
704.172	26.33
704.577	26.56
704.981	26.77
705.386	27
705.791	27.22
706.195	27.45
706.6	27.66
707.004	27.85
707.408	28.05
707.813	28.23
708.217	28.41
708.621	28.57
709.025	28.74
709.43	28.92
709.834	29.08
710.237	29.23
710.641	29.39
711.045	29.54
711.449	29.72
711.853	29.89
712.256	30.04
712.66	30.17
713.064	30.32
713.467	30.44
713.87	30.58
714.274	30.68
714.677	30.82
715.08	30.93
715.484	31.05
715.887	31.17
716.29	31.26
716.693	31.36
717.096	31.47
717.499	31.6
717.901	31.71
718.304	31.81
718.707	31.92
719.109	32.02
719.512	32.12
719.915	32.23
720.317	32.29
720.719	32.36
721.122	32.45
721.524	32.54
721.926	32.61
722.328	32.7
722.731	32.78
723.133	32.88
723.535	32.95
723.937	33
724.338	33.04
724.74	33.11
725.142	33.27
725.544	33.32
725.945	33.4
726.347	33.45
726.748	33.49
727.15	33.52
727.551	33.56
727.952	33.59
728.354	33.66
728.755	33.7
729.156	33.74
729.557	33.71
729.958	33.73
730.359	33.75
730.76	33.76
731.161	33.81
731.562	33.87
731.962	33.88
732.363	33.91
732.763	33.93
733.164	33.97
733.564	34
733.965	34.02
734.365	34.05
734.766	34.07
735.166	34.12
735.566	34.14
735.966	34.15
736.366	34.16
736.766	34.2
737.166	34.22
737.566	34.23
737.966	34.26
738.365	34.28
738.765	34.33
739.165	34.35
739.564	34.35
739.964	34.35
740.363	34.34
740.763	34.37
741.162	34.36
741.561	34.36
741.96	34.38
742.36	34.39
742.759	34.38
743.158	34.38
743.557	34.38
743.955	34.38
744.354	34.4
744.753	34.44
745.152	34.45
745.55	34.47
745.949	34.48
746.348	34.48
746.746	34.48
747.144	34.5
747.543	34.49
747.941	34.5
748.339	34.5
748.737	34.48
749.136	34.5
749.534	34.49
749.932	34.49
750.33	34.5
750.727	34.51
751.125	34.52
751.523	34.52
751.921	34.54
752.318	34.53
752.716	34.54
753.113	34.55
753.511	34.54
753.908	34.56
754.305	34.56
754.703	34.56
755.1	34.56
755.497	34.52
755.894	34.5
756.291	34.49
756.688	34.44
757.085	34.43
757.482	34.41
757.878	34.4
758.275	34.36
758.672	34.35
759.068	34.34
759.465	34.31
759.861	34.32
760.258	34.32
760.654	34.33
761.05	34.36
761.447	34.36
761.843	34.36
762.239	34.36
762.635	34.36
763.031	34.37
763.427	34.36
763.822	34.38
764.218	34.41
764.614	34.39
765.01	34.39
765.405	34.39
765.801	34.39
766.196	34.42
766.592	34.42
766.987	34.42
767.382	34.42
767.778	34.43
768.173	34.4
768.568	34.38
768.963	34.37
769.358	34.36
769.753	34.36
770.148	34.37
770.542	34.36
770.937	34.37
771.332	34.35
771.726	34.34
772.121	34.32
772.515	34.32
772.91	34.3
773.304	34.3
773.699	34.31
774.093	34.29
774.487	34.28
774.881	34.26
775.275	34.23
775.669	34.22
776.063	34.21
776.457	34.24
776.851	34.22
777.245	34.22
777.638	34.22
778.032	34.22
778.425	34.24
778.819	34.22
779.212	34.22
779.606	34.23
779.999	34.23
780.392	34.26
780.786	34.24
781.179	34.25
781.572	34.27
781.965	34.27
782.358	34.27
782.751	34.24
783.143	34.23
783.536	34.23
783.929	34.23
784.322	34.25
784.714	34.24
785.107	34.25
785.499	34.24
785.891	34.22
786.284	34.22
786.676	34.23
787.068	34.23
787.46	34.24
787.852	34.22
788.245	34.21
788.636	34.18
789.028	34.16
789.42	34.16
789.812	34.15
790.204	34.15
790.595	34.15
790.987	34.13
791.378	34.14
791.77	34.12
792.161	34.11
792.553	34.13
792.944	34.13
793.335	34.15
793.726	34.13
794.117	34.12
794.508	34.1
794.899	34.09
795.29	34.09
795.681	34.06
796.072	34.08
796.463	34.09
796.853	34.09
797.244	34.08
797.634	34.06
798.025	34.08
798.415	34.07
798.806	34.07
799.196	34.06
799.586	34.07
799.976	34.09
800.366	34.06
800.756	34.05
801.146	34.04
801.536	34.04
801.926	34.02
802.316	34
802.706	34
803.095	34
803.485	33.99
803.874	33.97
804.264	33.96
804.653	33.98
805.043	33.97
805.432	33.95
805.821	33.94
806.21	33.94
806.599	33.93
806.988	33.91
807.377	33.91
807.766	33.9
808.155	33.88
808.544	33.85
808.933	33.84
809.321	33.83
809.71	33.81
810.098	33.8
810.487	33.78
810.875	33.76
811.264	33.77
811.652	33.78
812.04	33.78
812.428	33.81
812.816	33.79
813.204	33.79
813.592	33.77
813.98	33.8
814.368	33.79
814.756	33.79
815.144	33.79
815.531	33.77
815.919	33.75
816.306	33.75
816.694	33.71
817.081	33.72
817.469	33.73
817.856	33.74
818.243	33.71
818.63	33.72
819.017	33.7
819.404	33.69
819.791	33.71
820.178	33.69
820.565	33.68
820.952	33.69
821.339	33.68
821.725	33.66
822.112	33.66
822.498	33.65
822.885	33.66
823.271	33.67
823.657	33.67
824.044	33.64
824.43	33.65
824.816	33.64
825.202	33.63
825.588	33.63
825.974	33.63
826.36	33.62
826.746	33.63
827.132	33.6
827.517	33.59
827.903	33.59
828.289	33.61
828.674	33.59
829.06	33.58
829.445	33.56
829.83	33.57
830.216	33.56
830.601	33.55
830.986	33.54
831.371	33.54
831.756	33.54
832.141	33.53
832.526	33.52
832.911	33.51
833.295	33.52
833.68	33.53
834.065	33.5
834.449	33.5
834.834	33.49
835.218	33.5
835.603	33.49
835.987	33.46
836.371	33.44
836.755	33.41
837.139	33.41
837.524	33.4
837.908	33.41
838.291	33.43
838.675	33.42
839.059	33.42
839.443	33.39
839.827	33.39
840.21	33.41
840.594	33.42
840.977	33.43
841.361	33.44
841.744	33.42
842.127	33.39
842.511	33.36
842.894	33.36
843.277	33.36
843.66	33.33
844.043	33.34
844.426	33.33
844.809	33.34
845.191	33.32
845.574	33.3
845.957	33.31
846.339	33.31
846.722	33.33
847.104	33.33
847.487	33.33
847.869	33.34
848.252	33.34
848.634	33.35
849.016	33.36
849.398	33.39
849.78	33.39
850.162	33.38
850.544	33.38
850.926	33.37
851.307	33.36
851.689	33.35
852.071	33.37
852.452	33.35
852.834	33.33
853.215	33.32
853.597	33.32
853.978	33.32
854.359	33.31
854.741	33.3
855.122	33.29
855.503	33.29
855.884	33.29
856.265	33.28
856.646	33.26
857.026	33.26
857.407	33.25
857.788	33.22
858.169	33.21
858.549	33.23
858.93	33.23
859.31	33.22
859.69	33.23
860.071	33.23
860.451	33.21
860.831	33.22
861.211	33.2
861.591	33.19
861.971	33.18
862.351	33.2
862.731	33.18
863.111	33.16
863.491	33.16
863.87	33.14
864.25	33.12
864.629	33.13
865.009	33.13
865.388	33.11
865.768	33.12
866.147	33.13
866.526	33.1
866.905	33.11
867.284	33.11
867.663	33.1
868.042	33.11
868.421	33.13
868.8	33.13
869.179	33.12
869.558	33.14
869.936	33.12
870.315	33.1
870.693	33.11
871.072	33.12
871.45	33.12
871.828	33.13
872.207	33.13
872.585	33.09
872.963	33.1
873.341	33.1
873.719	33.11
874.097	33.12
874.475	33.14
874.853	33.14
875.23	33.13
875.608	33.13
875.986	33.14
876.363	33.15
876.741	33.16
877.118	33.18
877.495	33.17
877.873	33.18
878.25	33.2
878.627	33.21
879.004	33.21
879.381	33.21
879.758	33.2
880.135	33.19
880.512	33.18
880.889	33.18
881.265	33.16
881.642	33.16
882.019	33.17
882.395	33.13
882.772	33.11
883.148	33.09
883.524	33.09
883.901	33.09
884.277	33.08
884.653	33.08
885.029	33.07
885.405	33.09
885.781	33.09
886.157	33.06
886.532	33.09
886.908	33.09
887.284	33.09
887.659	33.08
888.035	33.06
888.411	33.05
888.786	33.05
889.161	33.06
889.537	33.05
889.912	33.04
890.287	33.04
890.662	33.02
891.037	33.02
891.412	33.01
891.787	32.99
892.162	32.99
892.536	32.97
892.911	32.96
893.286	32.96
893.66	32.95
894.035	32.95
894.409	32.94
894.784	32.94
895.158	32.92
895.532	32.92
895.906	32.93
896.281	32.93
896.655	32.94
897.029	32.94
897.402	32.94
897.776	32.95
898.15	32.95
898.524	32.96
898.898	32.95
899.271	32.96
899.645	32.98
900.018	33
900.392	33.01
900.765	33.01
901.138	33
901.511	32.98
901.884	32.99
902.258	33
902.631	33.01
903.003	33
903.376	33
903.749	32.98
904.122	32.97
904.495	32.98
904.867	32.99
905.24	33.01
905.612	33.03
905.985	33.01
906.357	33.01
906.729	33
907.102	33.01
907.474	33.03
907.846	33.05
908.218	33.06
908.59	33.04
908.962	33.04
909.334	33.03
909.705	33.01
910.077	33
910.449	33
910.82	32.99
911.192	32.98
911.563	32.96
911.935	32.93
912.306	32.94
912.677	32.97
913.048	32.95
913.419	32.95
913.79	32.96
914.161	32.96
914.532	32.95
914.903	32.95
915.274	32.98
915.645	32.99
916.015	33
916.386	32.97
916.756	32.97
917.127	33
917.497	33.01
917.868	33
918.238	33.03
918.608	33.07
918.978	33.08
919.348	33.09
919.718	33.1
920.088	33.11
920.458	33.11
920.828	33.08
921.198	33.05
921.567	33.06
921.937	33.08
922.306	33.05
922.676	33.03
923.045	33.02
923.415	32.99
923.784	32.98
924.153	33.01
924.522	33.01
924.891	33.04
925.26	33.06
925.629	33.07
925.998	33.06
926.367	33.06
926.736	33.09
927.104	33.1
927.473	33.11
927.842	33.09
928.21	33.1
928.578	33.11
928.947	33.11
929.315	33.09
929.683	33.09
930.051	33.07
930.42	33.08
930.788	33.05
931.156	33.03
931.523	33.04
931.891	33.09
932.259	33.06
932.627	33.09
932.994	33.08
933.362	33.1
933.729	33.1
934.097	33.1
934.464	33.11
934.831	33.1
935.199	33.13
935.566	33.12
935.933	33.06
936.3	33.07
936.667	33.03
937.034	33.05
937.401	33.04
937.767	33.05
938.134	33.05
938.501	33.07
938.867	33.07
939.234	33.05
939.6	33.06
939.967	33.11
940.333	33.08
940.699	33.14
941.065	33.11
941.431	33.11
941.798	33.09
942.163	33.11
942.529	33.08
942.895	33.05
943.261	33.06
943.627	33.04
943.992	33.03
944.358	33.06
944.723	32.99
945.089	32.96
945.454	32.97
945.82	32.93
946.185	32.89
946.55	32.85
946.915	32.86
947.28	32.82
947.645	32.83
948.01	32.79
948.375	32.72
948.74	32.74
949.104	32.74
949.469	32.73
949.834	32.7
950.198	32.72
950.562	32.7
950.927	32.67
951.291	32.64
951.655	32.57
952.02	32.58
952.384	32.57
952.748	32.52
953.112	32.53
953.476	32.5
953.839	32.47
954.203	32.43
954.567	32.42
954.931	32.42
955.294	32.41
955.658	32.42
956.021	32.43
956.385	32.43
956.748	32.41
957.111	32.38
957.474	32.36
957.837	32.36
958.2	32.36
958.563	32.4
958.926	32.37
959.289	32.38
959.652	32.4
960.015	32.39
960.377	32.39
960.74	32.43
961.102	32.46
961.465	32.52
961.827	32.57
962.189	32.6
962.552	32.55
962.914	32.56
963.276	32.61
963.638	32.61
964	32.61
964.362	32.62
964.724	32.62
965.085	32.64
965.447	32.64
965.809	32.58
966.17	32.56
966.532	32.6
966.893	32.68
967.255	32.66
967.616	32.68
967.977	32.69
968.338	32.7
968.699	32.68
969.061	32.7
969.421	32.66
969.782	32.77
970.143	32.8
970.504	32.81
970.865	32.81
971.225	32.83
971.586	32.83
971.946	32.83
972.307	32.85
972.667	32.86
973.027	32.83
973.388	32.86
973.748	32.84
974.108	32.94
974.468	32.89
974.828	32.88
975.188	32.88
975.548	32.84
975.907	32.83
976.267	32.85
976.627	32.87
976.986	32.84
977.346	32.81
977.705	32.8
978.064	32.77
978.424	32.88
978.783	32.85
979.142	32.85
979.501	32.87
979.86	32.93
980.219	32.93
980.578	32.97
980.937	33.04
981.296	33.07
981.654	33.05
982.013	33.04
982.371	33.01
982.73	33.05
983.088	33.04
983.447	33.09
983.805	33.07
984.163	33.07
984.521	33.06
984.879	33
985.237	33.02
985.595	33.07
985.953	33.04
986.311	33.02
986.669	32.98
987.026	32.98
987.384	32.99
987.741	32.98
988.099	33.05
988.456	33
988.814	33.06
989.171	33.09
989.528	33.08
989.885	33.05
990.242	33.1
990.599	33.2
990.956	33.18
991.313	33.19
991.67	33.18
992.027	33.22
992.383	33.28
992.74	33.37
993.096	33.31
993.453	33.37
993.809	33.46
994.165	33.41
994.522	33.39
994.878	33.51
995.234	33.52
995.59	33.57
995.946	33.57
996.302	33.56
996.658	33.56
997.013	33.55
997.369	33.57
997.725	33.6
998.08	33.72
998.436	33.72
998.791	33.67
999.147	33.62
999.502	33.69
999.857	33.59
1000.212	33.53
1000.567	33.45
1000.922	33.56
1001.277	33.48
1001.632	33.32
1001.987	33.19
1002.342	33.09
1002.696	33.17
1003.051	33.31
1003.406	33.33
1003.76	33.35
1004.114	33.44
1004.469	33.49
1004.823	33.65
1005.177	33.7
1005.531	33.91
1005.885	33.94
1006.239	34.03
1006.593	34.1
1006.947	34.04
1007.301	33.96
1007.655	34.02
1008.008	34.09
1008.362	34.18
1008.715	33.96
1009.069	34.1
1009.422	34.07
1009.776	34.11
1010.129	34.19
1010.482	34.18
1010.835	34.13
1011.188	34.09
1011.541	34.19
1011.894	34.29
1012.247	34.17
1012.6	34.22
1012.952	34.16
1013.305	34.17
1013.657	34.15
1014.01	34.18
1014.362	34.16
1014.715	34.34
1015.067	34.58
1015.419	34.64
1015.771	34.57
1016.123	34.56
1016.475	34.73
1016.827	34.69
1017.179	34.78
1017.531	35.07
1017.883	35.06
1018.234	35.13
1018.586	35.06
1018.938	34.97
1019.289	34.84
1019.64	34.93
1019.992	34.89
1020.343	34.83
1020.694	34.98
1021.045	35
1021.396	34.77
1021.747	34.94
1022.098	34.91
1022.449	34.83
1022.8	35.04
1023.151	35.2
1023.501	35.04
1023.852	35.35
1024.202	35.33
1024.553	35.15
1024.903	35.11
1025.253	35.26
1025.604	34.96
1025.954	34.69
1026.304	34.84
1026.654	34.53
1027.004	34.22
1027.354	34.35
1027.703	34
1028.053	34.12
1028.403	34.45
1028.753	34.16
1029.102	34.2
1029.452	34.38
1029.801	34.62
1030.15	34.54
1030.499	34.62
897.758	1021.9
901.051	1032.87
904.343	1025.36
907.636	1043.65
910.928	1016.67
914.22	1017.75
917.511	1001.76
920.803	961.47
924.094	955.34
927.384	930.56
930.675	893.99
933.965	890.84
937.255	836.57
940.544	805.68
943.834	767.48
947.123	760.61
950.411	717.03
953.7	703.34
956.988	668.11
960.276	642.14
963.563	632.71
966.851	612.82
970.138	608.54
973.424	589.67
976.711	592.29
979.997	563.68
983.283	560.46
986.568	548.18
989.853	532.47
993.138	520.75
996.423	501.62
999.708	487.86
1002.992	480.82
1006.275	457.51
1009.559	454.69
1012.842	440.06
1016.125	428.03
1019.408	420.13
1022.69	414.9
1025.972	405.25
1029.254	397.24
1032.536	390.61
1035.817	382.46
1039.098	379.17
1042.379	372.94
1045.659	367.9
1048.939	357.26
1052.219	351.56
1055.498	347.61
1058.778	339.59
1062.057	333.27
1065.335	329.24
1068.614	325.23
1071.892	321.85
1075.17	311.77
1078.447	305.56
1081.724	303.12
1085.001	302.24
1088.278	295.4
1091.554	288.49
1094.83	288.7
1098.106	285.86
1101.382	283.98
1104.657	282.62
1107.932	277.62
1111.206	279.13
1114.481	272.46
1117.755	269.84
1121.029	266.59
1124.302	266.56
1127.575	261.6
1130.848	258.58
1134.121	256.43
1137.393	254.65
1140.665	248.68
1143.937	247.39
1147.208	245.38
1150.48	244.85
1153.75	242.78
1157.021	239.49
1160.291	240.04
1163.561	237.47
1166.831	237.27
1170.101	235.11
1173.37	235.61
1176.639	236.49
1179.907	234.4
1183.176	231.68
1186.444	231.85
1189.711	230.82
1192.979	230.51
1196.246	228.12
1199.513	229.99
1202.78	228.89
1206.046	228.58
1209.312	226.22
1212.578	226.15
1215.843	227.97
1219.108	226.9
1222.373	230.56
1225.638	232.28
1228.902	235.12
1232.166	237.22
1235.43	238.04
1238.693	240.23
1241.956	241.79
1245.219	244.78
1248.482	245
1251.744	244.62
1255.006	244.46
1258.268	239.37
1261.529	237.72
1264.79	236.29
1268.051	233.25
1271.312	230.58
1274.572	228.63
1277.832	227.07
1281.092	223.24
1284.351	222.05
1287.61	222.32
1290.869	219.77
1294.128	218.55
1297.386	218.09
1300.644	216.24
1303.902	216.41
1307.159	216
1310.416	215.51
1313.673	214.73
1316.93	217.1
1320.186	216.72
1323.442	217.06
1326.697	220.59
1329.953	221.27
1333.208	222.05
1336.463	223.53
1339.717	224.42
1342.972	226.96
1346.226	228.91
1349.479	229.88
1352.733	230.72
1355.986	231.66
1359.238	231.36
1362.491	232.06
1365.743	234.22
1368.995	233.66
1372.247	234.62
1375.498	234.2
1378.749	235.15
1382	232.92
1385.251	233.01
1388.501	231.21
1391.751	231.55
1395	230.52
1398.25	228.77
1401.499	226.69
1404.748	226.6
1407.996	223.8
1411.244	222.81
1414.492	221.28
1417.74	218.6
1420.987	215.95
1424.234	215.39
1427.481	212.1
1430.728	212.04
1433.974	210.63
1437.22	208.03
1440.465	207.07
1443.711	205.06
1446.956	203.33
1450.201	200.97
1453.445	199.61
1456.689	198.03
1459.933	195.22
1463.177	194.3
1466.42	190.84
1469.663	188.37
1472.906	187.58
1476.148	183.53
1479.391	181.32
1482.633	180.67
1485.874	178.38
1489.115	176.65
1492.356	175.15
1495.597	174.72
1498.838	171.74
1502.078	171.16
1505.318	170.45
1508.557	170.32
1511.797	170.61
1515.036	169.23
1518.274	168.19
1521.513	167.5
1524.751	167.37
1527.989	166.83
1531.227	165.88
1534.464	166.82
1537.701	165.58
1540.938	165.43
1544.174	163.74
1547.41	163.25
1550.646	162.78
1553.882	163.34
1557.117	160.91
1560.352	160.44
1563.587	160.11
1566.821	159.47
1570.055	157.85
1573.289	156.99
1576.523	156.9
1579.756	155.26
1582.989	154.75
1586.222	154.79
1589.454	153.34
1592.686	154.65
1595.918	153.57
1599.15	153.02
1602.381	153.36
1605.612	153.56
1608.843	153.81
1612.073	153.22
1615.303	154.82
1618.533	154.68
1621.762	154.66
1624.992	155.33
1628.221	154.72
1631.449	154.95
1634.678	154.64
1637.906	155.2
1641.134	155.35
1644.361	155.28
1647.588	155.44
1650.815	154.71
1654.042	154.23
1657.269	155.09
1660.495	155.02
1663.72	154.63
1666.946	155.42
1670.171	156.01
1673.396	155.64
1676.621	155.81
1679.845	156.2
1683.069	156.08
1686.293	157
1689.517	158.16
1692.74	157.9
1695.963	158.01
1699.185	159.71
1702.408	159.28
1705.63	160.16
1708.852	160.85
1712.073	160.23
1715.294	160.45
1718.515	161.92
1721.736	161.63
1724.956	161.66
1728.176	161.72
1731.396	163.15
1734.616	162.46
1737.835	163.49
1741.054	161.8
1744.272	162.06
1747.491	163.54
1750.709	164.02
1753.927	163.74
1757.144	163.19
1760.361	163.63
1763.578	164.36
1766.795	163.68
1770.011	164.43
1773.227	164.38
1776.443	166.54
1779.658	166.82
1782.874	166.47
1786.089	167
1789.303	167.35
1792.518	170.15
1795.732	169.47
1798.945	170.87
1802.159	171.12
1805.372	172.21
1808.585	174.31
1811.797	174.52
1815.01	175.15
1818.222	177.09
1821.434	177.85
1824.645	178.67
1827.856	180.56
1831.067	182.58
1834.278	181.68
1837.488	183.42
1840.698	184.1
1843.908	182.89
1847.117	184.28
1850.326	184.9
1853.535	183.34
1856.744	186.15
1859.952	185.6
1863.16	184.12
1866.368	182.36
1869.575	184.01
1872.782	181.27
1875.989	180.23
1879.196	179.35
1882.402	177.48
1885.608	177.93
1888.814	178.41
1892.019	177.41
1895.224	176.89
1898.429	176.65
1901.634	177.19
1904.838	177.03
1908.042	178.77
1911.246	179.44
1914.449	180.71
1917.652	180.35
1920.855	180.17
1924.058	179.89
1927.26	178.87
1930.462	179.44
1933.664	181.1
1936.865	180.33
1940.066	179.75
1943.267	178.19
1946.467	177.75
1949.668	178.74
1952.868	180.98
1956.067	181.03
1959.267	182.76
1962.466	183.11
1965.665	182.37
1968.863	182.37
1972.061	184.95
1975.259	186.72
1978.457	188.44
1981.654	190.51
1984.852	190.97
1988.048	190.77
1991.245	191.98
1994.441	193.61
1997.637	195.03
2000.833	199.61
2004.028	201.6
2007.223	203.16
2010.418	204.81
2013.613	208.82
2016.807	211.22
2020.001	212.93
2023.194	216.43
2026.388	221.63
2029.581	225.56
2032.774	227.83
2035.966	231.09
2039.158	232.14
2042.35	236.28
2045.542	238.27
2048.733	240.44
2051.924	244.19
2055.115	249.26
2058.306	249.3
2061.496	251.58
2064.686	252.22
2067.875	256.8
2071.065	258.79
2074.254	258
2077.442	260.53
2080.631	261.57
2083.819	265.04
2087.007	264.7
2090.195	267.43
2093.382	269.61
2096.569	268.36
2099.756	272.71
2102.942	273.92
2106.128	274.92
2109.314	280.71
2112.5	280.2
2115.685	287.12
2118.87	287.69
2122.055	294.49
2125.239	295.85
2128.424	300.48
2131.608	302.19
2134.791	306.59
2137.974	307.28
2141.157	308.36
2144.34	310.35
2147.523	314.37
2150.705	312.23
2153.887	315.16
2157.068	314.62
2160.25	312.04
2163.431	313.41
2166.611	317.38
2169.792	321.91
2172.972	325.82
2176.152	328.32
2179.331	331.44
2182.511	337.01
2185.69	339.68
2188.868	345.69
2192.047	347.88
2195.225	358.28
2198.403	365.75
2201.58	372.87
2204.758	379.88
2207.935	387.77
2211.111	394.15
2214.288	400.27
2217.464	401.03
2220.64	408.52
2223.815	413.78
2226.991	428.69
2230.166	428.05
2233.34	435.37
2236.515	443.04
2239.689	443.42
2242.863	445.05
2246.036	458
2249.209	455.98
2252.382	463.2
2255.555	476.07
2258.727	477.75
2261.9	482.46
2265.071	488.35
2268.243	496.76
2271.414	500.72
2274.585	511.37
2277.756	517.13
2280.926	522.13
2284.096	533.38
2287.266	543.64
2290.436	548.83
2293.605	561.93
2296.774	574.68
2299.942	590.71
2303.111	596.09
2306.279	609.24
2309.447	617.64
2312.614	633.55
2315.781	650.34
2318.948	677.68
2322.115	669.58
2325.281	707.97
2328.447	692.84
2331.613	718.11
2334.779	713.2
2337.944	743.6
2341.109	749.79
2344.274	770.9
2347.438	794.73
2350.602	791.87
2353.766	820.99
2356.929	836.16
2360.092	822.17
2363.255	882.01
2366.418	885.22
2369.58	901.89
2372.742	952.79
2375.904	980.56
2379.066	975.94
2382.227	959
2385.388	1043.31
2388.548	1040.08
2391.709	1049.67
2394.869	1179.24
2398.029	1132.18
2401.188	1160.48
2404.347	1152.63
2407.506	1134.61
2410.665	1162.12
2413.823	1234.89
2416.981	1309.13
2420.139	1264.32
2423.296	1249.91
2426.453	1305.36
2429.61	1254.29
2432.767	1308.97
2435.923	1299.34
2439.079	1416.53
2442.235	1436.69
2445.391	1425.5
2448.546	1406.31
2451.701	1372.15
2454.855	1372.33
2458.009	1452.85
2461.163	1517.19
2464.317	1568.99
2467.471	1609.61
2470.624	1606.57
2473.777	1564.19
2476.929	1533.17
2480.082	1491.39
2483.234	1479.61
2486.385	1548.75
2489.537	1556.26
2492.688	1611.87
2495.839	1561.77
2498.989	1531.41
2502.14	1536.39
2505.29	1554.36
2508.439	1581.7
2511.589	1570.62
2514.738	1708.99
2517.887	1669.43
2521.035	1761.8
2524.183	1781.33
2527.331	1794.42
2530.479	1788.46
2533.627	1796.97
