Data from C_1_DEC_ON_6N_Splice17_12-45-50-291.txt Node
Date: Sat Mar 07 12:45:50 EST 2020
User: sa697716
Spectrometer: NQ5500242
Trigger mode: 0
Integration Time (sec): 1.450000E-1
Scans to average: 20
Nonlinearity correction enabled: false
Boxcar width: 5
Storing dark spectrum: false
XAxis mode: Wavelengths
Number of Pixels in Spectrum: 512
>>>>>Begin Spectral Data<<<<<
187.83	155.95
188.298	169.33
188.766	134.2
189.233	119.07
189.701	112.7
190.169	130.96
190.636	111.66
191.104	62.41
191.571	-96.26
192.039	-333.65
192.506	-780.28
192.974	250.94
193.441	314.64
193.908	56.47
194.375	63.98
194.842	-20.93
195.31	-23.52
195.777	-241.81
196.244	10.2
196.711	30.72
197.177	32.67
197.644	33.36
198.111	33.25
198.578	33.66
199.045	34.61
199.511	34.58
199.978	35.3
200.445	35.73
200.911	35.62
201.378	35.69
201.844	35.76
202.31	35.72
202.777	35.8
203.243	36.13
203.709	36.24
204.176	36
204.642	35.91
205.108	35.74
205.574	35.38
206.04	34.91
206.506	34.67
206.972	34.3
207.438	33.92
207.903	33.48
208.369	32.5
208.835	31.88
209.301	31.1
209.766	30.19
210.232	29.47
210.697	28.77
211.163	28.39
211.628	27.72
212.094	27.07
212.559	26.62
213.024	26.09
213.49	25.58
213.955	24.92
214.42	24.43
214.885	23.96
215.35	22.9
215.815	21.58
216.28	20.08
216.745	18.39
217.21	16.8
217.675	15.4
218.14	14.04
218.604	13
219.069	12.13
219.534	11.36
219.998	10.68
220.463	10.17
220.927	9.74
221.392	9.41
221.856	9.12
222.32	8.91
222.785	8.7
223.249	8.51
223.713	8.34
224.177	8.19
224.642	8.05
225.106	7.89
225.57	7.74
226.034	7.61
226.497	7.51
226.961	7.41
227.425	7.28
227.889	7.18
228.353	7.1
228.816	7
229.28	6.89
229.744	6.81
230.207	6.73
230.671	6.65
231.134	6.58
231.597	6.51
232.061	6.44
232.524	6.37
232.987	6.29
233.45	6.22
233.914	6.16
234.377	6.1
234.84	6.04
235.303	6
235.766	5.96
236.229	5.91
236.691	5.86
237.154	5.82
237.617	5.78
238.08	5.75
238.542	5.7
239.005	5.68
239.468	5.65
239.93	5.6
240.393	5.56
240.855	5.51
241.317	5.47
241.78	5.42
242.242	5.37
242.704	5.34
243.166	5.29
243.629	5.26
244.091	5.21
244.553	5.16
245.015	5.12
245.477	5.07
245.939	5.04
246.4	5.01
246.862	4.97
247.324	4.94
247.786	4.9
248.247	4.85
248.709	4.8
249.17	4.76
249.632	4.73
250.093	4.7
250.555	4.67
251.016	4.64
251.477	4.6
251.939	4.57
252.4	4.54
252.861	4.52
253.322	4.49
253.783	4.47
254.244	4.45
254.705	4.42
255.166	4.39
255.627	4.37
256.088	4.35
256.549	4.32
257.009	4.29
257.47	4.26
257.931	4.23
258.391	4.2
258.852	4.16
259.312	4.14
259.773	4.11
260.233	4.09
260.694	4.06
261.154	4.03
261.614	4
262.074	3.97
262.534	3.94
262.994	3.92
263.455	3.9
263.915	3.88
264.374	3.86
264.834	3.84
265.294	3.81
265.754	3.8
266.214	3.78
266.673	3.76
267.133	3.75
267.593	3.74
268.052	3.72
268.512	3.71
268.971	3.7
269.431	3.69
269.89	3.67
270.349	3.66
270.809	3.65
271.268	3.64
271.727	3.63
272.186	3.62
272.645	3.6
273.104	3.59
273.563	3.58
274.022	3.57
274.481	3.56
274.94	3.55
275.399	3.54
275.857	3.53
276.316	3.52
276.775	3.51
277.233	3.5
277.692	3.5
278.15	3.49
278.609	3.48
279.067	3.48
279.525	3.47
279.984	3.46
280.442	3.45
280.9	3.44
281.358	3.44
281.816	3.44
282.274	3.43
282.732	3.42
283.19	3.41
283.648	3.41
284.106	3.4
284.564	3.4
285.021	3.4
285.479	3.39
285.937	3.38
286.394	3.38
286.852	3.37
287.309	3.36
287.767	3.35
288.224	3.34
288.682	3.33
289.139	3.32
289.596	3.31
290.053	3.29
290.511	3.28
290.968	3.27
291.425	3.26
291.882	3.25
292.339	3.24
292.796	3.23
293.252	3.22
293.709	3.22
294.166	3.22
294.623	3.21
295.079	3.21
295.536	3.21
295.992	3.21
296.449	3.2
296.905	3.2
297.362	3.19
297.818	3.18
298.274	3.18
298.731	3.18
299.187	3.17
299.643	3.16
300.099	3.16
300.555	3.15
301.011	3.14
301.467	3.13
301.923	3.12
302.379	3.12
302.835	3.13
303.291	3.12
303.746	3.12
304.202	3.13
304.658	3.13
305.113	3.13
305.569	3.13
306.024	3.13
306.479	3.14
306.935	3.13
307.39	3.13
307.845	3.13
308.301	3.14
308.756	3.14
309.211	3.13
309.666	3.14
310.121	3.14
310.576	3.14
311.031	3.14
311.486	3.15
311.94	3.16
312.395	3.16
312.85	3.16
313.305	3.15
313.759	3.15
314.214	3.15
314.668	3.14
315.123	3.13
315.577	3.13
316.032	3.13
316.486	3.13
316.94	3.12
317.394	3.11
317.849	3.1
318.303	3.09
318.757	3.08
319.211	3.07
319.665	3.06
320.119	3.05
320.572	3.04
321.026	3.03
321.48	3.02
321.934	3.01
322.387	3.01
322.841	3.01
323.295	3.01
323.748	3.01
324.202	3.01
324.655	3.01
325.108	3.01
325.562	3.02
326.015	3.02
326.468	3.02
326.921	3.01
327.374	3.01
327.827	3.02
328.28	3.01
328.733	3.01
329.186	3.01
329.639	3.01
330.092	3
330.545	3
330.997	2.99
331.45	2.99
331.903	3
332.355	3
332.808	2.99
333.26	3
333.713	2.99
334.165	2.99
334.617	2.99
335.069	2.98
335.522	2.98
335.974	2.99
336.426	2.98
336.878	2.97
337.33	2.98
337.782	2.97
338.234	2.97
338.686	2.96
339.137	2.97
339.589	2.96
340.041	2.96
340.493	2.96
340.944	2.95
341.396	2.94
341.847	2.93
342.299	2.92
342.75	2.9
343.201	2.88
343.653	2.88
344.104	2.86
344.555	2.85
345.006	2.83
345.457	2.83
345.908	2.82
346.359	2.82
346.81	2.83
347.261	2.83
347.712	2.83
348.163	2.83
348.613	2.83
349.064	2.83
349.515	2.84
349.965	2.85
350.416	2.84
350.866	2.83
351.317	2.82
351.767	2.82
352.217	2.82
352.668	2.83
353.118	2.83
353.568	2.83
354.018	2.83
354.468	2.82
354.918	2.82
355.368	2.83
355.818	2.82
356.268	2.83
356.718	2.82
357.168	2.82
357.617	2.81
358.067	2.8
358.517	2.81
358.966	2.82
359.416	2.81
359.865	2.81
360.315	2.81
360.764	2.82
361.213	2.81
361.663	2.8
362.112	2.81
362.561	2.82
363.01	2.83
363.459	2.82
363.908	2.81
364.357	2.81
364.806	2.81
365.255	2.8
365.703	2.81
366.152	2.81
366.601	2.82
367.05	2.82
367.498	2.81
367.947	2.82
368.395	2.83
368.844	2.84
369.292	2.84
369.74	2.85
370.189	2.85
370.637	2.84
371.085	2.85
371.533	2.85
371.981	2.85
372.429	2.86
372.877	2.86
373.325	2.86
373.773	2.86
374.221	2.86
374.669	2.86
375.116	2.87
375.564	2.87
376.012	2.88
376.459	2.88
376.907	2.9
377.354	2.91
377.801	2.91
378.249	2.93
378.696	2.95
379.143	2.96
379.591	2.99
380.038	2.99
380.485	3.01
380.932	3.03
381.379	3.04
381.826	3.05
382.273	3.06
382.72	3.06
383.166	3.06
383.613	3.07
384.06	3.08
384.506	3.08
384.953	3.1
385.4	3.11
385.846	3.12
386.292	3.13
386.739	3.15
387.185	3.16
387.631	3.19
388.078	3.21
388.524	3.22
388.97	3.24
389.416	3.26
389.862	3.27
390.308	3.3
390.754	3.32
391.2	3.34
391.645	3.35
392.091	3.38
392.537	3.39
392.983	3.41
393.428	3.44
393.874	3.45
394.319	3.46
394.765	3.48
395.21	3.48
395.655	3.5
396.101	3.52
396.546	3.53
396.991	3.55
397.436	3.56
397.881	3.58
398.326	3.58
398.771	3.59
399.216	3.6
399.661	3.6
400.106	3.61
400.551	3.6
400.995	3.61
401.44	3.61
401.885	3.62
402.329	3.63
402.774	3.63
403.218	3.65
403.663	3.65
404.107	3.65
404.551	3.67
404.995	3.66
405.44	3.66
405.884	3.66
406.328	3.66
406.772	3.65
407.216	3.65
407.66	3.65
408.104	3.63
408.547	3.64
408.991	3.64
409.435	3.65
409.879	3.65
410.322	3.67
410.766	3.68
411.209	3.69
411.653	3.69
412.096	3.7
412.54	3.71
412.983	3.72
413.426	3.74
413.869	3.74
414.312	3.74
414.756	3.74
415.199	3.74
415.642	3.74
416.085	3.74
416.527	3.74
416.97	3.72
417.413	3.72
417.856	3.71
418.298	3.69
418.741	3.69
419.184	3.69
419.626	3.68
420.069	3.69
420.511	3.68
420.953	3.68
421.396	3.67
421.838	3.68
422.28	3.69
422.722	3.7
423.164	3.7
423.606	3.7
424.048	3.7
424.49	3.7
424.932	3.7
425.374	3.69
425.816	3.68
426.258	3.68
426.699	3.67
427.141	3.67
427.582	3.66
428.024	3.68
428.465	3.69
428.907	3.68
429.348	3.68
429.789	3.68
430.231	3.7
430.672	3.72
431.113	3.73
431.554	3.75
431.995	3.76
432.436	3.75
432.877	3.75
433.318	3.75
433.759	3.78
434.2	3.8
434.64	3.81
435.081	3.8
435.522	3.8
435.962	3.83
436.403	3.85
436.843	3.86
437.284	3.87
437.724	3.88
438.164	3.87
438.604	3.87
439.045	3.86
439.485	3.88
439.925	3.87
440.365	3.87
440.805	3.87
441.245	3.87
441.685	3.88
442.125	3.92
442.564	3.93
443.004	3.94
443.444	3.94
443.883	3.96
444.323	3.94
444.762	3.96
445.202	3.97
445.641	3.97
446.081	3.97
446.52	3.98
446.959	3.99
447.398	4
447.837	4.01
448.276	4.02
448.716	4.03
449.154	4.05
449.593	4.06
450.032	4.07
450.471	4.06
450.91	4.06
451.349	4.06
451.787	4.04
452.226	4.03
452.664	4.04
453.103	4.03
453.541	4.02
453.98	4.02
454.418	4.01
454.856	4.01
455.295	4.02
455.733	4
456.171	4
456.609	4
457.047	3.98
457.485	3.98
457.923	3.98
458.361	3.97
458.798	3.96
459.236	3.96
459.674	3.95
460.111	3.94
460.549	3.95
460.987	3.96
461.424	3.96
461.862	3.98
462.299	3.98
462.736	3.99
463.173	3.99
463.611	3.99
464.048	4.01
464.485	4.02
464.922	4.03
465.359	4.03
465.796	4.04
466.233	4.03
466.67	4.03
467.106	4.05
467.543	4.04
467.98	4.04
468.416	4.04
468.853	4.02
469.29	4.03
469.726	4.02
470.162	4.02
470.599	4.02
471.035	4
471.471	3.99
471.907	3.98
472.344	3.99
472.78	4
473.216	3.99
473.652	4.01
474.088	3.99
474.523	3.99
474.959	3.99
475.395	3.98
475.831	3.98
476.266	3.98
476.702	3.97
477.138	3.95
477.573	3.94
478.008	3.94
478.444	3.92
478.879	3.92
479.314	3.9
479.75	3.9
480.185	3.89
480.62	3.88
481.055	3.86
481.49	3.86
481.925	3.86
482.36	3.85
482.795	3.84
483.229	3.83
483.664	3.84
484.099	3.84
484.534	3.83
484.968	3.83
485.403	3.84
485.837	3.85
486.271	3.85
486.706	3.86
487.14	3.87
487.574	3.88
488.009	3.89
488.443	3.9
488.877	3.91
489.311	3.93
489.745	3.94
490.179	3.96
490.613	3.98
491.046	4
491.48	4.03
491.914	4.05
492.348	4.08
492.781	4.12
493.215	4.16
493.648	4.18
494.082	4.22
494.515	4.26
494.948	4.3
495.382	4.34
495.815	4.39
496.248	4.44
496.681	4.49
497.114	4.54
497.547	4.58
497.98	4.64
498.413	4.7
498.846	4.76
499.279	4.83
499.711	4.9
500.144	4.98
500.577	5.06
501.009	5.14
501.442	5.23
501.874	5.32
502.306	5.42
502.739	5.53
503.171	5.64
503.603	5.75
504.036	5.87
504.468	5.99
504.9	6.11
505.332	6.24
505.764	6.39
506.196	6.53
506.627	6.68
507.059	6.85
507.491	7
507.923	7.18
508.354	7.37
508.786	7.56
509.217	7.76
509.649	7.97
510.08	8.17
510.512	8.38
510.943	8.6
511.374	8.81
511.805	9.04
512.237	9.27
512.668	9.5
513.099	9.74
513.53	9.98
513.961	10.23
514.391	10.5
514.822	10.77
515.253	11.03
515.684	11.3
516.114	11.59
516.545	11.86
516.975	12.15
517.406	12.45
517.836	12.74
518.267	13.04
518.697	13.33
519.127	13.6
519.558	13.89
519.988	14.17
520.418	14.46
520.848	14.72
521.278	15
521.708	15.39
522.138	15.65
522.567	15.91
522.997	16.15
523.427	16.41
523.857	16.66
524.286	16.9
524.716	17.14
525.145	17.36
525.575	17.6
526.004	17.83
526.433	17.92
526.863	18.12
527.292	18.32
527.721	18.52
528.15	18.7
528.579	18.87
529.008	19.04
529.437	19.2
529.866	19.35
530.295	19.5
530.724	19.63
531.152	19.76
531.581	19.89
532.01	20
532.438	20.12
532.867	20.23
533.295	20.34
533.723	20.43
534.152	20.53
534.58	20.62
535.008	20.7
535.436	20.79
535.865	20.87
536.293	20.93
536.721	21.01
537.149	21.07
537.576	21.12
538.004	21.18
538.432	21.25
538.86	21.28
539.287	21.32
539.715	21.38
540.143	21.43
540.57	21.47
540.998	21.5
541.425	21.54
541.852	21.58
542.28	21.64
542.707	21.67
543.134	21.7
543.561	21.75
543.988	21.78
544.415	21.79
544.842	21.8
545.269	21.83
545.696	21.87
546.123	21.87
546.549	21.9
546.976	21.91
547.403	21.94
547.829	21.94
548.256	21.96
548.682	21.97
549.108	21.99
549.535	22.01
549.961	22.01
550.387	22.01
550.813	22.02
551.24	22.01
551.666	22
552.092	21.99
552.518	21.97
552.943	21.96
553.369	21.95
553.795	21.92
554.221	21.89
554.646	21.84
555.072	21.79
555.498	21.74
555.923	21.69
556.349	21.62
556.774	21.56
557.199	21.5
557.625	21.4
558.05	21.32
558.475	21.24
558.9	21.14
559.325	21.06
559.75	20.96
560.175	20.86
560.6	20.75
561.025	20.66
561.449	20.53
561.874	20.41
562.299	20.31
562.723	20.19
563.148	20.06
563.572	19.92
563.997	19.78
564.421	19.63
564.846	19.49
565.27	19.34
565.694	19.2
566.118	19.05
566.542	18.88
566.966	18.71
567.39	18.55
567.814	18.4
568.238	18.25
568.662	18.11
569.086	17.95
569.509	17.81
569.933	17.66
570.357	17.51
570.78	17.36
571.204	17.22
571.627	17.1
572.05	16.95
572.474	16.83
572.897	16.7
573.32	16.56
573.743	16.43
574.166	16.31
574.589	16.19
575.012	16.06
575.435	15.94
575.858	15.84
576.281	15.71
576.704	15.62
577.126	15.5
577.549	15.39
577.972	15.3
578.394	15.18
578.817	15.08
579.239	14.99
579.661	14.91
580.084	14.83
580.506	14.74
580.928	14.65
581.35	14.56
581.772	14.48
582.194	14.4
582.616	14.32
583.038	14.27
583.46	14.19
583.882	14.11
584.303	14.02
584.725	13.94
585.147	13.87
585.568	13.82
585.99	13.75
586.411	13.69
586.833	13.63
587.254	13.56
587.675	13.49
588.096	13.44
588.518	13.37
588.939	13.33
589.36	13.28
589.781	13.23
590.202	13.17
590.623	13.12
591.043	13.07
591.464	13.02
591.885	12.97
592.305	12.93
592.726	12.9
593.147	12.86
593.567	12.81
593.987	12.77
594.408	12.73
594.828	12.68
595.248	12.65
595.669	12.62
596.089	12.59
596.509	12.57
596.929	12.54
597.349	12.5
597.769	12.47
598.189	12.43
598.608	12.4
599.028	12.36
599.448	12.32
599.867	12.28
600.287	12.24
600.706	12.19
601.126	12.14
601.545	12.1
601.965	12.05
602.384	12.01
602.803	11.97
603.222	11.91
603.641	11.87
604.061	11.83
604.48	11.78
604.898	11.72
605.317	11.66
605.736	11.61
606.155	11.55
606.574	11.49
606.992	11.43
607.411	11.36
607.829	11.28
608.248	11.21
608.666	11.14
609.085	11.06
609.503	11
609.921	10.93
610.339	10.86
610.758	10.79
611.176	10.72
611.594	10.64
612.012	10.58
612.43	10.53
612.847	10.47
613.265	10.41
613.683	10.35
614.101	10.29
614.518	10.22
614.936	10.16
615.353	10.09
615.771	10.03
616.188	9.98
616.606	9.92
617.023	9.88
617.44	9.83
617.857	9.77
618.274	9.72
618.691	9.66
619.108	9.62
619.525	9.58
619.942	9.54
620.359	9.51
620.776	9.48
621.192	9.44
621.609	9.41
622.026	9.38
622.442	9.36
622.859	9.33
623.275	9.31
623.691	9.29
624.108	9.28
624.524	9.26
624.94	9.25
625.356	9.24
625.772	9.24
626.188	9.22
626.604	9.21
627.02	9.2
627.436	9.19
627.852	9.18
628.268	9.17
628.683	9.16
629.099	9.15
629.514	9.14
629.93	9.12
630.345	9.1
630.761	9.06
631.176	9.04
631.591	9
632.007	8.97
632.422	8.93
632.837	8.89
633.252	8.82
633.667	8.75
634.082	8.68
634.497	8.61
634.911	8.54
635.326	8.47
635.741	8.39
636.155	8.29
636.57	8.2
636.984	8.1
637.399	8
637.813	7.89
638.228	7.79
638.642	7.68
639.056	7.58
639.47	7.47
639.884	7.36
640.298	7.26
640.712	7.15
641.126	7.04
641.54	6.94
641.954	6.83
642.368	6.73
642.781	6.63
643.195	6.54
643.609	6.46
644.022	6.36
644.436	6.28
644.849	6.19
645.262	6.1
645.676	6.03
646.089	5.98
646.502	5.92
646.915	5.87
647.328	5.81
647.741	5.76
648.154	5.71
648.567	5.67
648.98	5.63
649.393	5.6
649.805	5.59
650.218	5.55
650.631	5.53
651.043	5.5
651.456	5.47
651.868	5.44
652.28	5.42
652.693	5.4
653.105	5.38
653.517	5.36
653.929	5.33
654.341	5.29
654.753	5.26
655.165	5.22
655.577	5.18
655.989	5.15
656.401	5.1
656.813	5.06
657.224	4.99
657.636	4.94
658.047	4.88
658.459	4.82
658.87	4.76
659.282	4.7
659.693	4.64
660.104	4.58
660.515	4.52
660.926	4.47
661.338	4.41
661.749	4.37
662.159	4.33
662.57	4.29
662.981	4.26
663.392	4.23
663.803	4.2
664.213	4.17
664.624	4.14
665.035	4.12
665.445	4.11
665.855	4.09
666.266	4.07
666.676	4.06
667.086	4.04
667.497	4.03
667.907	4.02
668.317	4.01
668.727	4.01
669.137	4.02
669.547	4.02
669.956	4.02
670.366	4.02
670.776	4.03
671.186	4.04
671.595	4.04
672.005	4.05
672.414	4.07
672.824	4.08
673.233	4.11
673.642	4.13
674.052	4.15
674.461	4.17
674.87	4.19
675.279	4.22
675.688	4.25
676.097	4.29
676.506	4.33
676.915	4.36
677.323	4.39
677.732	4.41
678.141	4.44
678.549	4.49
678.958	4.53
679.366	4.58
679.775	4.61
680.183	4.66
680.592	4.72
681	4.78
681.408	4.84
681.816	4.93
682.224	5.01
682.632	5.09
683.04	5.17
683.448	5.27
683.856	5.37
684.264	5.51
684.671	5.64
685.079	5.78
685.487	5.95
685.894	6.15
686.302	6.35
686.709	6.58
687.116	6.83
687.524	7.11
687.931	7.43
688.338	7.76
688.745	8.1
689.152	8.48
689.559	8.89
689.966	9.32
690.373	9.77
690.78	10.23
691.187	10.73
691.593	11.24
692	11.76
692.407	12.29
692.813	12.85
693.22	13.42
693.626	13.99
694.032	14.57
694.439	15.17
694.845	15.77
695.251	16.38
695.657	16.99
696.063	17.59
696.469	18.21
696.875	18.83
697.281	19.43
697.687	20.06
698.093	20.67
698.498	21.26
698.904	21.86
699.31	22.46
699.715	23.05
700.12	23.63
700.526	24.25
700.931	24.83
701.337	25.4
701.742	25.95
702.147	26.49
702.552	27.04
702.957	27.58
703.362	28.11
703.767	28.63
704.172	29.13
704.577	29.64
704.981	30.11
705.386	30.61
705.791	31.09
706.195	31.58
706.6	32.06
707.004	32.52
707.408	32.99
707.813	33.43
708.217	33.88
708.621	34.32
709.025	34.74
709.43	35.16
709.834	35.57
710.237	35.97
710.641	36.38
711.045	36.77
711.449	37.17
711.853	37.57
712.256	37.95
712.66	38.32
713.064	38.68
713.467	39.07
713.87	39.43
714.274	39.77
714.677	40.13
715.08	40.46
715.484	40.8
715.887	41.13
716.29	41.42
716.693	41.75
717.096	42.09
717.499	42.41
717.901	42.71
718.304	43.02
718.707	43.3
719.109	43.6
719.512	43.88
719.915	44.16
720.317	44.39
720.719	44.63
721.122	44.88
721.524	45.11
721.926	45.36
722.328	45.6
722.731	45.82
723.133	46.06
723.535	46.26
723.937	46.47
724.338	46.68
724.74	46.92
725.142	47.2
725.544	47.37
725.945	47.58
726.347	47.74
726.748	47.91
727.15	48.07
727.551	48.24
727.952	48.4
728.354	48.55
728.755	48.68
729.156	48.8
729.557	48.86
729.958	48.98
730.359	49.09
730.76	49.22
731.161	49.31
731.562	49.45
731.962	49.53
732.363	49.67
732.763	49.79
733.164	49.87
733.564	49.99
733.965	50.1
734.365	50.21
734.766	50.32
735.166	50.39
735.566	50.51
735.966	50.58
736.366	50.66
736.766	50.68
737.166	50.75
737.566	50.83
737.966	50.88
738.365	50.93
738.765	50.98
739.165	51.01
739.564	51.08
739.964	51.13
740.363	51.17
740.763	51.24
741.162	51.31
741.561	51.35
741.96	51.39
742.36	51.45
742.759	51.47
743.158	51.51
743.557	51.54
743.955	51.59
744.354	51.63
744.753	51.64
745.152	51.69
745.55	51.71
745.949	51.71
746.348	51.76
746.746	51.77
747.144	51.82
747.543	51.84
747.941	51.87
748.339	51.86
748.737	51.87
749.136	51.9
749.534	51.88
749.932	51.9
750.33	51.92
750.727	51.93
751.125	51.98
751.523	51.98
751.921	52.01
752.318	52.03
752.716	52.06
753.113	52.06
753.511	52.06
753.908	52.11
754.305	52.13
754.703	52.17
755.1	52.15
755.497	52.14
755.894	52.15
756.291	52.14
756.688	52.13
757.085	52.16
757.482	52.17
757.878	52.19
758.275	52.2
758.672	52.2
759.068	52.2
759.465	52.21
759.861	52.24
760.258	52.25
760.654	52.25
761.05	52.27
761.447	52.25
761.843	52.24
762.239	52.24
762.635	52.2
763.031	52.18
763.427	52.19
763.822	52.18
764.218	52.16
764.614	52.16
765.01	52.16
765.405	52.16
765.801	52.14
766.196	52.15
766.592	52.12
766.987	52.14
767.382	52.15
767.778	52.13
768.173	52.12
768.568	52.11
768.963	52.06
769.358	52.05
769.753	52.05
770.148	52.05
770.542	52.03
770.937	52.05
771.332	52.04
771.726	52.05
772.121	52.05
772.515	52.04
772.91	52.05
773.304	52.1
773.699	52.1
774.093	52.08
774.487	52.1
774.881	52.14
775.275	52.13
775.669	52.12
776.063	52.1
776.457	52.07
776.851	52.07
777.245	52.06
777.638	52.03
778.032	52.02
778.425	52.03
778.819	52.02
779.212	52
779.606	52.01
779.999	52
780.392	52.01
780.786	52.03
781.179	52.06
781.572	52.07
781.965	52.1
782.358	52.13
782.751	52.12
783.143	52.1
783.536	52.1
783.929	52.08
784.322	52.1
784.714	52.11
785.107	52.13
785.499	52.1
785.891	52.1
786.284	52.12
786.676	52.12
787.068	52.09
787.46	52.12
787.852	52.14
788.245	52.14
788.636	52.13
789.028	52.12
789.42	52.1
789.812	52.12
790.204	52.13
790.595	52.11
790.987	52.11
791.378	52.12
791.77	52.1
792.161	52.07
792.553	52.09
792.944	52.08
793.335	52.1
793.726	52.11
794.117	52.1
794.508	52.07
794.899	52.07
795.29	52.07
795.681	52.05
796.072	52.05
796.463	52.08
796.853	52.06
797.244	52.05
797.634	52.04
798.025	52.05
798.415	52.03
798.806	52.03
799.196	52.02
799.586	52.01
799.976	52.03
800.366	52.01
800.756	52.03
801.146	52.03
801.536	52.05
801.926	52.03
802.316	52.02
802.706	52.03
803.095	52.04
803.485	52.04
803.874	52.04
804.264	52.04
804.653	52.06
805.043	52.06
805.432	52.06
805.821	52.06
806.21	52.06
806.599	52.07
806.988	52.07
807.377	52.06
807.766	52.07
808.155	52.04
808.544	52.04
808.933	52.03
809.321	52
809.71	52
810.098	51.99
810.487	51.98
810.875	51.96
811.264	51.94
811.652	51.97
812.04	51.96
812.428	51.99
812.816	51.99
813.204	52.01
813.592	51.99
813.98	52
814.368	52.02
814.756	52.02
815.144	51.99
815.531	51.98
815.919	51.96
816.306	51.95
816.694	51.94
817.081	51.94
817.469	51.92
817.856	51.94
818.243	51.9
818.63	51.84
819.017	51.85
819.404	51.85
819.791	51.86
820.178	51.87
820.565	51.87
820.952	51.85
821.339	51.83
821.725	51.86
822.112	51.85
822.498	51.85
822.885	51.9
823.271	51.91
823.657	51.92
824.044	51.9
824.43	51.92
824.816	51.92
825.202	51.93
825.588	51.93
825.974	51.9
826.36	51.92
826.746	51.93
827.132	51.93
827.517	51.92
827.903	51.92
828.289	51.95
828.674	51.94
829.06	51.93
829.445	51.93
829.83	51.93
830.216	51.92
830.601	51.92
830.986	51.93
831.371	51.88
831.756	51.89
832.141	51.88
832.526	51.88
832.911	51.87
833.295	51.89
833.68	51.89
834.065	51.9
834.449	51.93
834.834	51.9
835.218	51.9
835.603	51.91
835.987	51.89
836.371	51.91
836.755	51.88
837.139	51.88
837.524	51.88
837.908	51.91
838.291	51.91
838.675	51.91
839.059	51.93
839.443	51.9
839.827	51.9
840.21	51.91
840.594	51.9
840.977	51.9
841.361	51.9
841.744	51.88
842.127	51.82
842.511	51.81
842.894	51.77
843.277	51.77
843.66	51.78
844.043	51.78
844.426	51.78
844.809	51.79
845.191	51.81
845.574	51.82
845.957	51.84
846.339	51.86
846.722	51.87
847.104	51.91
847.487	51.91
847.869	51.91
848.252	51.91
848.634	51.9
849.016	51.93
849.398	51.93
849.78	51.92
850.162	51.89
850.544	51.9
850.926	51.91
851.307	51.87
851.689	51.88
852.071	51.89
852.452	51.9
852.834	51.93
853.215	51.88
853.597	51.89
853.978	51.89
854.359	51.92
854.741	51.91
855.122	51.9
855.503	51.9
855.884	51.9
856.265	51.9
856.646	51.9
857.026	51.89
857.407	51.91
857.788	51.88
858.169	51.9
858.549	51.89
858.93	51.87
859.31	51.89
859.69	51.9
860.071	51.92
860.451	51.91
860.831	51.91
861.211	51.89
861.591	51.89
861.971	51.9
862.351	51.89
862.731	51.92
863.111	51.92
863.491	51.91
863.87	51.9
864.25	51.86
864.629	51.88
865.009	51.86
865.388	51.86
865.768	51.87
866.147	51.87
866.526	51.86
866.905	51.84
867.284	51.88
867.663	51.86
868.042	51.85
868.421	51.87
868.8	51.86
869.179	51.86
869.558	51.89
869.936	51.87
870.315	51.88
870.693	51.86
871.072	51.87
871.45	51.88
871.828	51.9
872.207	51.91
872.585	51.9
872.963	51.91
873.341	51.9
873.719	51.9
874.097	51.91
874.475	51.92
874.853	51.93
875.23	51.96
875.608	51.95
875.986	51.97
876.363	51.99
876.741	52.03
877.118	52.03
877.495	52.04
877.873	52.05
878.25	52.08
878.627	52.09
879.004	52.09
879.381	52.08
879.758	52.07
880.135	52.06
880.512	52.04
880.889	52.01
881.265	51.99
881.642	51.98
882.019	52
882.395	51.95
882.772	51.92
883.148	51.91
883.524	51.9
883.901	51.9
884.277	51.87
884.653	51.84
885.029	51.85
885.405	51.85
885.781	51.86
886.157	51.84
886.532	51.86
886.908	51.85
887.284	51.85
887.659	51.82
888.035	51.79
888.411	51.79
888.786	51.81
889.161	51.81
889.537	51.81
889.912	51.8
890.287	51.78
890.662	51.75
891.037	51.77
891.412	51.76
891.787	51.78
892.162	51.78
892.536	51.8
892.911	51.79
893.286	51.78
893.66	51.77
894.035	51.77
894.409	51.78
894.784	51.8
895.158	51.79
895.532	51.79
895.906	51.78
896.281	51.79
896.655	51.77
897.029	51.8
897.402	51.78
897.776	51.79
898.15	51.81
898.524	51.82
898.898	51.81
899.271	51.83
899.645	51.85
900.018	51.86
900.392	51.87
900.765	51.92
901.138	51.91
901.511	51.92
901.884	51.93
902.258	51.94
902.631	51.93
903.003	51.94
903.376	51.94
903.749	51.92
904.122	51.95
904.495	51.96
904.867	51.95
905.24	51.96
905.612	51.98
905.985	51.97
906.357	51.92
906.729	51.93
907.102	51.91
907.474	51.91
907.846	51.91
908.218	51.87
908.59	51.88
908.962	51.87
909.334	51.86
909.705	51.87
910.077	51.88
910.449	51.89
910.82	51.88
911.192	51.89
911.563	51.86
911.935	51.84
912.306	51.84
912.677	51.84
913.048	51.85
913.419	51.83
913.79	51.82
914.161	51.8
914.532	51.83
914.903	51.84
915.274	51.83
915.645	51.86
916.015	51.89
916.386	51.9
916.756	51.89
917.127	51.89
917.497	51.9
917.868	51.91
918.238	51.92
918.608	51.94
918.978	51.94
919.348	51.96
919.718	51.96
920.088	51.97
920.458	51.96
920.828	51.94
921.198	51.89
921.567	51.87
921.937	51.89
922.306	51.87
922.676	51.84
923.045	51.81
923.415	51.79
923.784	51.77
924.153	51.77
924.522	51.78
924.891	51.79
925.26	51.82
925.629	51.83
925.998	51.8
926.367	51.8
926.736	51.8
927.104	51.77
927.473	51.75
927.842	51.7
928.21	51.71
928.578	51.66
928.947	51.64
929.315	51.63
929.683	51.59
930.051	51.57
930.42	51.57
930.788	51.53
931.156	51.53
931.523	51.52
931.891	51.55
932.259	51.54
932.627	51.54
932.994	51.53
933.362	51.48
933.729	51.48
934.097	51.47
934.464	51.49
934.831	51.49
935.199	51.49
935.566	51.5
935.933	51.5
936.3	51.43
936.667	51.42
937.034	51.42
937.401	51.45
937.767	51.44
938.134	51.42
938.501	51.4
938.867	51.41
939.234	51.35
939.6	51.3
939.967	51.27
940.333	51.26
940.699	51.3
941.065	51.24
941.431	51.27
941.798	51.25
942.163	51.23
942.529	51.18
942.895	51.17
943.261	51.14
943.627	51.19
943.992	51.16
944.358	51.19
944.723	51.15
945.089	51.11
945.454	51.08
945.82	51.11
946.185	51.11
946.55	51.06
946.915	51.01
947.28	51.07
947.645	51.03
948.01	51.09
948.375	51.08
948.74	51.06
949.104	51.12
949.469	51.16
949.834	51.14
950.198	51.15
950.562	51.16
950.927	51.17
951.291	51.08
951.655	51.02
952.02	50.99
952.384	50.95
952.748	50.94
953.112	50.91
953.476	50.85
953.839	50.78
954.203	50.75
954.567	50.77
954.931	50.76
955.294	50.77
955.658	50.8
956.021	50.77
956.385	50.75
956.748	50.73
957.111	50.68
957.474	50.71
957.837	50.74
958.2	50.72
958.563	50.67
958.926	50.66
959.289	50.7
959.652	50.67
960.015	50.66
960.377	50.69
960.74	50.74
961.102	50.77
961.465	50.76
961.827	50.82
962.189	50.81
962.552	50.8
962.914	50.8
963.276	50.84
963.638	50.86
964	50.87
964.362	50.84
964.724	50.8
965.085	50.81
965.447	50.8
965.809	50.75
966.17	50.79
966.532	50.79
966.893	50.82
967.255	50.8
967.616	50.78
967.977	50.79
968.338	50.83
968.699	50.89
969.061	50.87
969.421	50.85
969.782	50.88
970.143	50.88
970.504	50.91
970.865	50.97
971.225	50.92
971.586	50.96
971.946	50.94
972.307	50.9
972.667	50.83
973.027	50.83
973.388	50.85
973.748	50.8
974.108	50.82
974.468	50.79
974.828	50.74
975.188	50.75
975.548	50.71
975.907	50.71
976.267	50.75
976.627	50.78
976.986	50.81
977.346	50.78
977.705	50.75
978.064	50.67
978.424	50.66
978.783	50.64
979.142	50.63
979.501	50.64
979.86	50.68
980.219	50.62
980.578	50.57
980.937	50.56
981.296	50.58
981.654	50.66
982.013	50.68
982.371	50.63
982.73	50.63
983.088	50.61
983.447	50.55
983.805	50.5
984.163	50.51
984.521	50.45
984.879	50.38
985.237	50.33
985.595	50.26
985.953	50.26
986.311	50.28
986.669	50.25
987.026	50.2
987.384	50.23
987.741	50.21
988.099	50.26
988.456	50.35
988.814	50.4
989.171	50.38
989.528	50.38
989.885	50.39
990.242	50.45
990.599	50.43
990.956	50.52
991.313	50.56
991.67	50.57
992.027	50.63
992.383	50.58
992.74	50.66
993.096	50.7
993.453	50.69
993.809	50.62
994.165	50.66
994.522	50.72
994.878	50.8
995.234	50.83
995.59	50.81
995.946	50.77
996.302	50.77
996.658	50.74
997.013	50.7
997.369	50.78
997.725	50.96
998.08	50.95
998.436	50.93
998.791	50.86
999.147	50.79
999.502	50.91
999.857	50.8
1000.212	50.71
1000.567	50.71
1000.922	50.68
1001.277	50.51
1001.632	50.32
1001.987	50.27
1002.342	50.28
1002.696	50.31
1003.051	50.36
1003.406	50.33
1003.76	50.35
1004.114	50.36
1004.469	50.3
1004.823	50.63
1005.177	50.73
1005.531	50.77
1005.885	50.76
1006.239	50.7
1006.593	50.66
1006.947	50.62
1007.301	50.46
1007.655	50.46
1008.008	50.64
1008.362	50.67
1008.715	50.33
1009.069	50.37
1009.422	50.36
1009.776	50.26
1010.129	50.3
1010.482	50.25
1010.835	50.23
1011.188	50.36
1011.541	50.44
1011.894	50.39
1012.247	50.31
1012.6	50.52
1012.952	50.41
1013.305	50.39
1013.657	50.5
1014.01	50.49
1014.362	50.43
1014.715	50.51
1015.067	50.52
1015.419	50.58
1015.771	50.52
1016.123	50.54
1016.475	50.4
1016.827	50.52
1017.179	50.53
1017.531	50.63
1017.883	50.61
1018.234	50.7
1018.586	50.65
1018.938	50.68
1019.289	50.54
1019.64	50.62
1019.992	50.59
1020.343	50.69
1020.694	50.52
1021.045	50.68
1021.396	50.54
1021.747	50.67
1022.098	50.62
1022.449	50.51
1022.8	50.34
1023.151	50.36
1023.501	50.29
1023.852	50.46
1024.202	50.26
1024.553	50.4
1024.903	50.45
1025.253	50.63
1025.604	50.46
1025.954	50.34
1026.304	50.55
1026.654	50.65
1027.004	50.66
1027.354	50.53
1027.703	50.27
1028.053	50.33
1028.403	50.27
1028.753	49.67
1029.102	49.54
1029.452	49.55
1029.801	49.8
1030.15	49.62
1030.499	49.56
897.758	954.56
901.051	960.89
904.343	960.04
907.636	976.71
910.928	951.13
914.22	952.02
917.511	940.73
920.803	895.17
924.094	894.93
927.384	871
930.675	837.21
933.965	836.88
937.255	788.99
940.544	756.88
943.834	721.29
947.123	716.13
950.411	674.57
953.7	660.76
956.988	630.5
960.276	606.33
963.563	595.31
966.851	574.35
970.138	568.33
973.424	551.5
976.711	553.9
979.997	527.34
983.283	523.25
986.568	513.35
989.853	499.91
993.138	489.47
996.423	469.3
999.708	458.13
1002.992	452.58
1006.275	434.32
1009.559	429.81
1012.842	415.56
1016.125	405.71
1019.408	398.95
1022.69	392.91
1025.972	383.76
1029.254	376.72
1032.536	371.26
1035.817	363.46
1039.098	359.9
1042.379	353.04
1045.659	349.42
1048.939	340.83
1052.219	334.27
1055.498	329.78
1058.778	322.59
1062.057	316.98
1065.335	313.2
1068.614	309.82
1071.892	306.83
1075.17	298.2
1078.447	291.69
1081.724	289.39
1085.001	287.51
1088.278	281.92
1091.554	276.16
1094.83	276.35
1098.106	273.74
1101.382	271.84
1104.657	270.2
1107.932	265.72
1111.206	266.67
1114.481	261.03
1117.755	259.04
1121.029	257.14
1124.302	256.99
1127.575	252.31
1130.848	250.2
1134.121	248.07
1137.393	246.15
1140.665	240.16
1143.937	239.21
1147.208	238.6
1150.48	237.57
1153.75	234.89
1157.021	232.03
1160.291	231.69
1163.561	229.63
1166.831	229.46
1170.101	227.42
1173.37	227.95
1176.639	229.36
1179.907	226.94
1183.176	223.25
1186.444	224.05
1189.711	223.64
1192.979	222.75
1196.246	221.33
1199.513	222.8
1202.78	221.11
1206.046	220.74
1209.312	218.61
1212.578	218.75
1215.843	220.53
1219.108	219.53
1222.373	223.21
1225.638	224.38
1228.902	227.36
1232.166	227.5
1235.43	228.03
1238.693	232.31
1241.956	232.67
1245.219	235.73
1248.482	235.41
1251.744	235.36
1255.006	236.31
1258.268	230.56
1261.529	228.92
1264.79	227.91
1268.051	226.8
1271.312	224.66
1274.572	220.85
1277.832	219.77
1281.092	215.47
1284.351	214.65
1287.61	214.87
1290.869	211.68
1294.128	211.12
1297.386	210.87
1300.644	208.65
1303.902	209.67
1307.159	208.56
1310.416	208.39
1313.673	207.99
1316.93	210.5
1320.186	210.15
1323.442	210.57
1326.697	213.25
1329.953	213.7
1333.208	214.42
1336.463	217.16
1339.717	217.1
1342.972	219.08
1346.226	221.25
1349.479	222.26
1352.733	223.22
1355.986	224.15
1359.238	223.65
1362.491	225.02
1365.743	226.59
1368.995	226.46
1372.247	225.72
1375.498	224.96
1378.749	227.49
1382	224.23
1385.251	224.21
1388.501	222.48
1391.751	222.62
1395	221.84
1398.25	220.35
1401.499	218.86
1404.748	218.26
1407.996	215.78
1411.244	215.33
1414.492	212.74
1417.74	210.25
1420.987	208.13
1424.234	207.47
1427.481	204.37
1430.728	204.55
1433.974	202.34
1437.22	199.9
1440.465	199.03
1443.711	196.64
1446.956	195.34
1450.201	193.58
1453.445	192.65
1456.689	191.5
1459.933	188.62
1463.177	187.47
1466.42	183.81
1469.663	181.77
1472.906	181.45
1476.148	177.49
1479.391	176.11
1482.633	174.67
1485.874	172.25
1489.115	170.61
1492.356	168.36
1495.597	167.96
1498.838	165.67
1502.078	165.13
1505.318	164.91
1508.557	164.42
1511.797	164.4
1515.036	163.28
1518.274	162.28
1521.513	161.71
1524.751	161.51
1527.989	161.33
1531.227	161
1534.464	161.3
1537.701	160.14
1540.938	159.75
1544.174	158.09
1547.41	158.38
1550.646	157.12
1553.882	157.89
1557.117	156.41
1560.352	155.07
1563.587	155.28
1566.821	154.37
1570.055	153.1
1573.289	152.4
1576.523	151.56
1579.756	151.14
1582.989	149.97
1586.222	150.33
1589.454	149.51
1592.686	150.3
1595.918	150.37
1599.15	149.45
1602.381	149.88
1605.612	150.01
1608.843	150.2
1612.073	150.64
1615.303	151.13
1618.533	151.39
1621.762	151.24
1624.992	151.56
1628.221	150.94
1631.449	151.12
1634.678	151.03
1637.906	151.63
1641.134	151.79
1644.361	151.66
1647.588	151.93
1650.815	151.4
1654.042	151.32
1657.269	152.09
1660.495	151.94
1663.72	152.04
1666.946	152.58
1670.171	153.16
1673.396	152.57
1676.621	152.73
1679.845	152.95
1683.069	152.87
1686.293	154.13
1689.517	154.25
1692.74	154.16
1695.963	154.4
1699.185	155.19
1702.408	155.18
1705.63	155.76
1708.852	156.04
1712.073	155.82
1715.294	156.39
1718.515	157.47
1721.736	156.66
1724.956	157.26
1728.176	157.46
1731.396	158.25
1734.616	158.09
1737.835	158.55
1741.054	157.35
1744.272	158.05
1747.491	159.57
1750.709	159.84
1753.927	159.53
1757.144	159.28
1760.361	159.56
1763.578	160.14
1766.795	159.9
1770.011	161.02
1773.227	160.89
1776.443	162.48
1779.658	163.03
1782.874	162.36
1786.089	162.48
1789.303	163.09
1792.518	165.01
1795.732	165.16
1798.945	165.87
1802.159	166.48
1805.372	166.32
1808.585	168.32
1811.797	169.37
1815.01	169.53
1818.222	170.96
1821.434	172.28
1824.645	172.45
1827.856	175.14
1831.067	176.42
1834.278	176.14
1837.488	177.22
1840.698	178.4
1843.908	177.58
1847.117	177.55
1850.326	178.56
1853.535	177.43
1856.744	179.63
1859.952	179.04
1863.16	176.93
1866.368	175.85
1869.575	177.07
1872.782	174.49
1875.989	173.11
1879.196	171.75
1882.402	170.42
1885.608	170.39
1888.814	170.24
1892.019	168.41
1895.224	168
1898.429	167.41
1901.634	167.45
1904.838	166.5
1908.042	167.69
1911.246	167.95
1914.449	168.92
1917.652	168.71
1920.855	168
1924.058	168.46
1927.26	168.22
1930.462	167.87
1933.664	169.47
1936.865	167.79
1940.066	167.96
1943.267	165.76
1946.467	165.66
1949.668	166.69
1952.868	168.7
1956.067	168.9
1959.267	169.14
1962.466	169.44
1965.665	169.14
1968.863	169.29
1972.061	172.48
1975.259	173.61
1978.457	176.63
1981.654	178.28
1984.852	179.01
1988.048	178.57
1991.245	179.63
1994.441	181.46
1997.637	183.41
2000.833	187.47
2004.028	190.18
2007.223	190.45
2010.418	192.79
2013.613	195.31
2016.807	197.58
2020.001	199.17
2023.194	202.68
2026.388	207.3
2029.581	212.06
2032.774	213.72
2035.966	217.24
2039.158	217.51
2042.35	222.05
2045.542	224.2
2048.733	226.79
2051.924	230.55
2055.115	233.89
2058.306	233.89
2061.496	236.44
2064.686	235.96
2067.875	240.13
2071.065	241.76
2074.254	240.12
2077.442	243.71
2080.631	243.97
2083.819	247.68
2087.007	246.78
2090.195	249.69
2093.382	252.45
2096.569	251.52
2099.756	255.79
2102.942	256.24
2106.128	258.22
2109.314	264.53
2112.5	263.17
2115.685	269.42
2118.87	269.74
2122.055	276.23
2125.239	277.71
2128.424	281.1
2131.608	283.15
2134.791	286.48
2137.974	288.05
2141.157	289.16
2144.34	290.12
2147.523	294.25
2150.705	292.2
2153.887	295.29
2157.068	295.02
2160.25	292.4
2163.431	294.42
2166.611	297.21
2169.792	303.12
2172.972	305.77
2176.152	307.43
2179.331	311.2
2182.511	316.17
2185.69	319.52
2188.868	325.7
2192.047	327.08
2195.225	337.87
2198.403	342.79
2201.58	351.34
2204.758	358.1
2207.935	365.69
2211.111	372.4
2214.288	376.46
2217.464	377.15
2220.64	384.72
2223.815	388.25
2226.991	403.76
2230.166	403.79
2233.34	411.98
2236.515	416.85
2239.689	416.33
2242.863	418.39
2246.036	430.91
2249.209	427.78
2252.382	434.76
2255.555	445.53
2258.727	447.65
2261.9	450.15
2265.071	454.77
2268.243	462.85
2271.414	466.79
2274.585	476.65
2277.756	481.24
2280.926	484.63
2284.096	496.96
2287.266	506.38
2290.436	509.36
2293.605	522.59
2296.774	537.23
2299.942	553.99
2303.111	559.24
2306.279	571.32
2309.447	577.3
2312.614	592.71
2315.781	609.06
2318.948	634.07
2322.115	627.73
2325.281	664.53
2328.447	647.67
2331.613	671.23
2334.779	664.49
2337.944	691.49
2341.109	699.22
2344.274	720.66
2347.438	744.11
2350.602	740.84
2353.766	769.4
2356.929	780.5
2360.092	770.61
2363.255	827.97
2366.418	829.99
2369.58	844.25
2372.742	890.62
2375.904	914.88
2379.066	908.39
2382.227	894.07
2385.388	972.01
2388.548	965.3
2391.709	976.28
2394.869	1088.78
2398.029	1048.28
2401.188	1072.98
2404.347	1069.12
2407.506	1053.99
2410.665	1081.61
2413.823	1148.74
2416.981	1214.22
2420.139	1175.1
2423.296	1166.66
2426.453	1218.56
2429.61	1175.53
2432.767	1222.96
2435.923	1212.12
2439.079	1323.05
2442.235	1343.9
2445.391	1336.2
2448.546	1320.92
2451.701	1287.14
2454.855	1286.56
2458.009	1357.38
2461.163	1413.8
2464.317	1462.42
2467.471	1498.92
2470.624	1501.81
2473.777	1460.42
2476.929	1424.73
2480.082	1378.69
2483.234	1365.83
2486.385	1434.87
2489.537	1439.24
2492.688	1500.43
2495.839	1460.52
2498.989	1425.16
2502.14	1432.56
2505.29	1443.19
2508.439	1468.92
2511.589	1462.15
2514.738	1598.04
2517.887	1564.93
2521.035	1643.2
2524.183	1659.05
2527.331	1667.43
2530.479	1655.38
2533.627	1669.63
