Data from C_1_HIR_WI_4N_Splice17_13-00-25-262.txt Node
Date: Sat Mar 07 13:00:25 EST 2020
User: sa697716
Spectrometer: NQ5500242
Trigger mode: 0
Integration Time (sec): 1.450000E-1
Scans to average: 20
Nonlinearity correction enabled: false
Boxcar width: 5
Storing dark spectrum: false
XAxis mode: Wavelengths
Number of Pixels in Spectrum: 512
>>>>>Begin Spectral Data<<<<<
187.83	197.03
188.298	221.06
188.766	189.96
189.233	153.79
189.701	152.69
190.169	180.84
190.636	185.15
191.104	267.32
191.571	184.38
192.039	-45.32
192.506	-120.59
192.974	28.48
193.441	86.7
193.908	48.25
194.375	73.92
194.842	-1.32
195.31	64.78
195.777	197.37
196.244	53.26
196.711	41.42
197.177	40.86
197.644	39.78
198.111	39.91
198.578	39.84
199.045	40.07
199.511	39.79
199.978	40.11
200.445	40.16
200.911	40.14
201.378	40.32
201.844	40.62
202.31	40.41
202.777	40.53
203.243	40.79
203.709	40.6
204.176	40.09
204.642	39.86
205.108	39.66
205.574	39.38
206.04	38.9
206.506	38.51
206.972	38.2
207.438	37.96
207.903	37.56
208.369	36.74
208.835	36.25
209.301	35.6
209.766	34.27
210.232	33.19
210.697	32.25
211.163	31.41
211.628	30.63
212.094	29.68
212.559	29.24
213.024	28.47
213.49	27.67
213.955	26.99
214.42	26.36
214.885	25.86
215.35	25.01
215.815	23.64
216.28	21.89
216.745	19.98
217.21	18.18
217.675	16.41
218.14	14.94
218.604	13.69
219.069	12.55
219.534	11.66
219.998	10.87
220.463	10.26
220.927	9.71
221.392	9.29
221.856	8.96
222.32	8.68
222.785	8.42
223.249	8.17
223.713	7.95
224.177	7.78
224.642	7.6
225.106	7.45
225.57	7.26
226.034	7.13
226.497	7.01
226.961	6.88
227.425	6.73
227.889	6.61
228.353	6.5
228.816	6.4
229.28	6.29
229.744	6.19
230.207	6.09
230.671	6.02
231.134	5.92
231.597	5.85
232.061	5.76
232.524	5.69
232.987	5.62
233.45	5.56
233.914	5.51
234.377	5.44
234.84	5.38
235.303	5.33
235.766	5.27
236.229	5.21
236.691	5.14
237.154	5.1
237.617	5.06
238.08	5
238.542	4.94
239.005	4.9
239.468	4.85
239.93	4.8
240.393	4.74
240.855	4.69
241.317	4.65
241.78	4.61
242.242	4.56
242.704	4.53
243.166	4.49
243.629	4.46
244.091	4.41
244.553	4.37
245.015	4.33
245.477	4.29
245.939	4.26
246.4	4.23
246.862	4.2
247.324	4.16
247.786	4.12
248.247	4.08
248.709	4.03
249.17	3.99
249.632	3.97
250.093	3.94
250.555	3.91
251.016	3.88
251.477	3.84
251.939	3.81
252.4	3.79
252.861	3.76
253.322	3.74
253.783	3.72
254.244	3.7
254.705	3.67
255.166	3.64
255.627	3.62
256.088	3.6
256.549	3.58
257.009	3.56
257.47	3.53
257.931	3.49
258.391	3.46
258.852	3.43
259.312	3.4
259.773	3.38
260.233	3.37
260.694	3.34
261.154	3.31
261.614	3.3
262.074	3.27
262.534	3.25
262.994	3.23
263.455	3.21
263.915	3.19
264.374	3.18
264.834	3.16
265.294	3.14
265.754	3.13
266.214	3.11
266.673	3.09
267.133	3.09
267.593	3.07
268.052	3.06
268.512	3.05
268.971	3.05
269.431	3.04
269.89	3.02
270.349	3.01
270.809	3
271.268	3
271.727	2.99
272.186	2.98
272.645	2.97
273.104	2.96
273.563	2.95
274.022	2.94
274.481	2.94
274.94	2.93
275.399	2.92
275.857	2.92
276.316	2.91
276.775	2.91
277.233	2.91
277.692	2.9
278.15	2.9
278.609	2.9
279.067	2.89
279.525	2.89
279.984	2.88
280.442	2.89
280.9	2.88
281.358	2.88
281.816	2.88
282.274	2.87
282.732	2.86
283.19	2.86
283.648	2.86
284.106	2.85
284.564	2.84
285.021	2.84
285.479	2.83
285.937	2.82
286.394	2.82
286.852	2.8
287.309	2.79
287.767	2.77
288.224	2.76
288.682	2.75
289.139	2.74
289.596	2.73
290.053	2.71
290.511	2.69
290.968	2.68
291.425	2.66
291.882	2.66
292.339	2.65
292.796	2.64
293.252	2.64
293.709	2.63
294.166	2.62
294.623	2.62
295.079	2.61
295.536	2.61
295.992	2.6
296.449	2.6
296.905	2.59
297.362	2.58
297.818	2.58
298.274	2.57
298.731	2.56
299.187	2.55
299.643	2.54
300.099	2.54
300.555	2.54
301.011	2.53
301.467	2.53
301.923	2.52
302.379	2.52
302.835	2.52
303.291	2.51
303.746	2.51
304.202	2.52
304.658	2.52
305.113	2.51
305.569	2.52
306.024	2.52
306.479	2.52
306.935	2.52
307.39	2.52
307.845	2.52
308.301	2.53
308.756	2.54
309.211	2.53
309.666	2.54
310.121	2.55
310.576	2.54
311.031	2.54
311.486	2.54
311.94	2.54
312.395	2.54
312.85	2.53
313.305	2.52
313.759	2.53
314.214	2.52
314.668	2.51
315.123	2.51
315.577	2.5
316.032	2.51
316.486	2.5
316.94	2.5
317.394	2.5
317.849	2.49
318.303	2.48
318.757	2.46
319.211	2.46
319.665	2.45
320.119	2.44
320.572	2.43
321.026	2.42
321.48	2.41
321.934	2.39
322.387	2.38
322.841	2.39
323.295	2.39
323.748	2.39
324.202	2.39
324.655	2.39
325.108	2.4
325.562	2.41
326.015	2.41
326.468	2.41
326.921	2.42
327.374	2.43
327.827	2.42
328.28	2.42
328.733	2.42
329.186	2.42
329.639	2.41
330.092	2.41
330.545	2.41
330.997	2.41
331.45	2.41
331.903	2.42
332.355	2.42
332.808	2.42
333.26	2.42
333.713	2.41
334.165	2.41
334.617	2.42
335.069	2.4
335.522	2.4
335.974	2.39
336.426	2.39
336.878	2.38
337.33	2.38
337.782	2.37
338.234	2.38
338.686	2.38
339.137	2.38
339.589	2.38
340.041	2.38
340.493	2.38
340.944	2.36
341.396	2.36
341.847	2.35
342.299	2.34
342.75	2.34
343.201	2.32
343.653	2.32
344.104	2.3
344.555	2.29
345.006	2.28
345.457	2.28
345.908	2.27
346.359	2.28
346.81	2.27
347.261	2.27
347.712	2.27
348.163	2.26
348.613	2.26
349.064	2.26
349.515	2.26
349.965	2.26
350.416	2.26
350.866	2.26
351.317	2.26
351.767	2.26
352.217	2.25
352.668	2.25
353.118	2.26
353.568	2.25
354.018	2.25
354.468	2.26
354.918	2.26
355.368	2.27
355.818	2.27
356.268	2.27
356.718	2.27
357.168	2.26
357.617	2.25
358.067	2.25
358.517	2.25
358.966	2.26
359.416	2.25
359.865	2.25
360.315	2.25
360.764	2.24
361.213	2.24
361.663	2.24
362.112	2.25
362.561	2.26
363.01	2.27
363.459	2.26
363.908	2.25
364.357	2.25
364.806	2.24
365.255	2.24
365.703	2.25
366.152	2.26
366.601	2.26
367.05	2.27
367.498	2.26
367.947	2.25
368.395	2.26
368.844	2.26
369.292	2.25
369.74	2.26
370.189	2.25
370.637	2.24
371.085	2.22
371.533	2.22
371.981	2.21
372.429	2.21
372.877	2.2
373.325	2.2
373.773	2.2
374.221	2.19
374.669	2.18
375.116	2.18
375.564	2.17
376.012	2.17
376.459	2.17
376.907	2.16
377.354	2.16
377.801	2.17
378.249	2.16
378.696	2.15
379.143	2.16
379.591	2.16
380.038	2.16
380.485	2.17
380.932	2.17
381.379	2.18
381.826	2.18
382.273	2.17
382.72	2.17
383.166	2.17
383.613	2.17
384.06	2.17
384.506	2.18
384.953	2.18
385.4	2.18
385.846	2.19
386.292	2.19
386.739	2.19
387.185	2.18
387.631	2.19
388.078	2.19
388.524	2.19
388.97	2.19
389.416	2.19
389.862	2.19
390.308	2.2
390.754	2.2
391.2	2.2
391.645	2.2
392.091	2.22
392.537	2.23
392.983	2.24
393.428	2.25
393.874	2.26
394.319	2.27
394.765	2.28
395.21	2.28
395.655	2.29
396.101	2.3
396.546	2.31
396.991	2.32
397.436	2.33
397.881	2.35
398.326	2.35
398.771	2.35
399.216	2.35
399.661	2.37
400.106	2.38
400.551	2.38
400.995	2.38
401.44	2.39
401.885	2.39
402.329	2.4
402.774	2.41
403.218	2.44
403.663	2.45
404.107	2.47
404.551	2.47
404.995	2.48
405.44	2.49
405.884	2.5
406.328	2.51
406.772	2.51
407.216	2.53
407.66	2.53
408.104	2.51
408.547	2.52
408.991	2.52
409.435	2.52
409.879	2.54
410.322	2.55
410.766	2.57
411.209	2.59
411.653	2.62
412.096	2.63
412.54	2.64
412.983	2.66
413.426	2.69
413.869	2.7
414.312	2.74
414.756	2.76
415.199	2.76
415.642	2.76
416.085	2.77
416.527	2.76
416.97	2.74
417.413	2.75
417.856	2.75
418.298	2.74
418.741	2.74
419.184	2.73
419.626	2.72
420.069	2.73
420.511	2.73
420.953	2.74
421.396	2.75
421.838	2.76
422.28	2.77
422.722	2.8
423.164	2.81
423.606	2.81
424.048	2.82
424.49	2.82
424.932	2.81
425.374	2.8
425.816	2.78
426.258	2.78
426.699	2.78
427.141	2.78
427.582	2.77
428.024	2.79
428.465	2.8
428.907	2.8
429.348	2.8
429.789	2.81
430.231	2.84
430.672	2.86
431.113	2.88
431.554	2.89
431.995	2.89
432.436	2.88
432.877	2.89
433.318	2.91
433.759	2.94
434.2	2.97
434.64	2.98
435.081	2.98
435.522	3
435.962	3.01
436.403	3.04
436.843	3.06
437.284	3.07
437.724	3.06
438.164	3.05
438.604	3.06
439.045	3.06
439.485	3.07
439.925	3.07
440.365	3.08
440.805	3.07
441.245	3.07
441.685	3.08
442.125	3.09
442.564	3.1
443.004	3.11
443.444	3.1
443.883	3.12
444.323	3.11
444.762	3.12
445.202	3.12
445.641	3.14
446.081	3.15
446.52	3.13
446.959	3.15
447.398	3.15
447.837	3.15
448.276	3.14
448.716	3.14
449.154	3.17
449.593	3.18
450.032	3.18
450.471	3.17
450.91	3.16
451.349	3.17
451.787	3.15
452.226	3.14
452.664	3.14
453.103	3.13
453.541	3.14
453.98	3.12
454.418	3.09
454.856	3.08
455.295	3.07
455.733	3.06
456.171	3.05
456.609	3.06
457.047	3.05
457.485	3.04
457.923	3.06
458.361	3.04
458.798	3.05
459.236	3.05
459.674	3.05
460.111	3.06
460.549	3.07
460.987	3.08
461.424	3.09
461.862	3.1
462.299	3.12
462.736	3.11
463.173	3.11
463.611	3.11
464.048	3.13
464.485	3.13
464.922	3.13
465.359	3.14
465.796	3.15
466.233	3.15
466.67	3.15
467.106	3.15
467.543	3.16
467.98	3.16
468.416	3.14
468.853	3.14
469.29	3.13
469.726	3.14
470.162	3.14
470.599	3.13
471.035	3.12
471.471	3.11
471.907	3.1
472.344	3.09
472.78	3.1
473.216	3.09
473.652	3.08
474.088	3.07
474.523	3.06
474.959	3.04
475.395	3.03
475.831	3.02
476.266	3.02
476.702	3
477.138	3
477.573	3
478.008	3
478.444	2.99
478.879	2.99
479.314	2.98
479.75	2.98
480.185	2.97
480.62	2.97
481.055	2.96
481.49	2.96
481.925	2.95
482.36	2.95
482.795	2.94
483.229	2.94
483.664	2.93
484.099	2.92
484.534	2.91
484.968	2.92
485.403	2.91
485.837	2.91
486.271	2.92
486.706	2.92
487.14	2.91
487.574	2.92
488.009	2.92
488.443	2.93
488.877	2.95
489.311	2.97
489.745	2.98
490.179	3
490.613	3.02
491.046	3.04
491.48	3.06
491.914	3.08
492.348	3.1
492.781	3.12
493.215	3.15
493.648	3.18
494.082	3.2
494.515	3.23
494.948	3.26
495.382	3.28
495.815	3.32
496.248	3.35
496.681	3.39
497.114	3.44
497.547	3.48
497.98	3.53
498.413	3.57
498.846	3.63
499.279	3.68
499.711	3.73
500.144	3.8
500.577	3.87
501.009	3.94
501.442	4.01
501.874	4.09
502.306	4.17
502.739	4.27
503.171	4.35
503.603	4.45
504.036	4.54
504.468	4.64
504.9	4.74
505.332	4.85
505.764	4.97
506.196	5.1
506.627	5.22
507.059	5.35
507.491	5.47
507.923	5.62
508.354	5.77
508.786	5.93
509.217	6.1
509.649	6.27
510.08	6.44
510.512	6.63
510.943	6.81
511.374	7
511.805	7.21
512.237	7.41
512.668	7.62
513.099	7.83
513.53	8.04
513.961	8.27
514.391	8.51
514.822	8.75
515.253	8.98
515.684	9.23
516.114	9.49
516.545	9.73
516.975	9.99
517.406	10.25
517.836	10.5
518.267	10.77
518.697	11.01
519.127	11.26
519.558	11.51
519.988	11.76
520.418	12
520.848	12.25
521.278	12.48
521.708	12.93
522.138	13.18
522.567	13.42
522.997	13.65
523.427	13.87
523.857	14.1
524.286	14.31
524.716	14.54
525.145	14.76
525.575	14.96
526.004	15.17
526.433	15.14
526.863	15.32
527.292	15.51
527.721	15.69
528.15	15.87
528.579	16.03
529.008	16.19
529.437	16.33
529.866	16.46
530.295	16.61
530.724	16.74
531.152	16.88
531.581	17.01
532.01	17.12
532.438	17.23
532.867	17.33
533.295	17.43
533.723	17.53
534.152	17.61
534.58	17.71
535.008	17.78
535.436	17.85
535.865	17.92
536.293	17.99
536.721	18.04
537.149	18.1
537.576	18.15
538.004	18.21
538.432	18.27
538.86	18.33
539.287	18.36
539.715	18.42
540.143	18.48
540.57	18.51
540.998	18.54
541.425	18.58
541.852	18.63
542.28	18.68
542.707	18.71
543.134	18.73
543.561	18.77
543.988	18.81
544.415	18.82
544.842	18.84
545.269	18.87
545.696	18.9
546.123	18.93
546.549	18.95
546.976	18.97
547.403	18.99
547.829	19
548.256	19.02
548.682	19.05
549.108	19.08
549.535	19.09
549.961	19.09
550.387	19.1
550.813	19.1
551.24	19.09
551.666	19.08
552.092	19.07
552.518	19.08
552.943	19.05
553.369	19.02
553.795	18.98
554.221	18.95
554.646	18.92
555.072	18.87
555.498	18.83
555.923	18.78
556.349	18.73
556.774	18.66
557.199	18.58
557.625	18.52
558.05	18.44
558.475	18.37
558.9	18.29
559.325	18.22
559.75	18.14
560.175	18.05
560.6	17.96
561.025	17.86
561.449	17.77
561.874	17.68
562.299	17.57
562.723	17.45
563.148	17.33
563.572	17.2
563.997	17.06
564.421	16.93
564.846	16.8
565.27	16.65
565.694	16.53
566.118	16.38
566.542	16.24
566.966	16.1
567.39	15.96
567.814	15.83
568.238	15.69
568.662	15.57
569.086	15.44
569.509	15.32
569.933	15.19
570.357	15.06
570.78	14.92
571.204	14.81
571.627	14.67
572.05	14.56
572.474	14.44
572.897	14.33
573.32	14.2
573.743	14.07
574.166	13.95
574.589	13.84
575.012	13.73
575.435	13.64
575.858	13.52
576.281	13.42
576.704	13.31
577.126	13.2
577.549	13.1
577.972	13
578.394	12.92
578.817	12.83
579.239	12.75
579.661	12.66
580.084	12.57
580.506	12.5
580.928	12.42
581.35	12.34
581.772	12.27
582.194	12.21
582.616	12.14
583.038	12.07
583.46	12
583.882	11.93
584.303	11.86
584.725	11.79
585.147	11.74
585.568	11.68
585.99	11.63
586.411	11.57
586.833	11.5
587.254	11.44
587.675	11.39
588.096	11.35
588.518	11.29
588.939	11.25
589.36	11.2
589.781	11.15
590.202	11.12
590.623	11.08
591.043	11.03
591.464	11.01
591.885	10.97
592.305	10.94
592.726	10.92
593.147	10.9
593.567	10.87
593.987	10.84
594.408	10.8
594.828	10.77
595.248	10.75
595.669	10.74
596.089	10.71
596.509	10.69
596.929	10.66
597.349	10.63
597.769	10.6
598.189	10.57
598.608	10.54
599.028	10.52
599.448	10.49
599.867	10.44
600.287	10.41
600.706	10.37
601.126	10.33
601.545	10.29
601.965	10.26
602.384	10.21
602.803	10.16
603.222	10.11
603.641	10.05
604.061	10
604.48	9.95
604.898	9.89
605.317	9.83
605.736	9.78
606.155	9.72
606.574	9.66
606.992	9.59
607.411	9.54
607.829	9.44
608.248	9.37
608.666	9.3
609.085	9.24
609.503	9.17
609.921	9.1
610.339	9.03
610.758	8.96
611.176	8.88
611.594	8.82
612.012	8.75
612.43	8.7
612.847	8.64
613.265	8.58
613.683	8.52
614.101	8.45
614.518	8.38
614.936	8.33
615.353	8.26
615.771	8.2
616.188	8.14
616.606	8.1
617.023	8.06
617.44	8.01
617.857	7.95
618.274	7.9
618.691	7.86
619.108	7.82
619.525	7.78
619.942	7.75
620.359	7.72
620.776	7.67
621.192	7.64
621.609	7.61
622.026	7.58
622.442	7.57
622.859	7.55
623.275	7.53
623.691	7.5
624.108	7.49
624.524	7.47
624.94	7.46
625.356	7.46
625.772	7.45
626.188	7.44
626.604	7.44
627.02	7.43
627.436	7.42
627.852	7.41
628.268	7.41
628.683	7.4
629.099	7.39
629.514	7.37
629.93	7.36
630.345	7.35
630.761	7.32
631.176	7.3
631.591	7.27
632.007	7.24
632.422	7.21
632.837	7.19
633.252	7.15
633.667	7.11
634.082	7.07
634.497	7.03
634.911	6.97
635.326	6.92
635.741	6.87
636.155	6.81
636.57	6.76
636.984	6.7
637.399	6.64
637.813	6.58
638.228	6.51
638.642	6.43
639.056	6.34
639.47	6.28
639.884	6.21
640.298	6.13
640.712	6.06
641.126	5.98
641.54	5.88
641.954	5.8
642.368	5.72
642.781	5.65
643.195	5.58
643.609	5.5
644.022	5.42
644.436	5.35
644.849	5.27
645.262	5.2
645.676	5.13
646.089	5.08
646.502	5.03
646.915	4.99
647.328	4.94
647.741	4.89
648.154	4.85
648.567	4.81
648.98	4.78
649.393	4.75
649.805	4.72
650.218	4.69
650.631	4.67
651.043	4.63
651.456	4.59
651.868	4.56
652.28	4.53
652.693	4.49
653.105	4.47
653.517	4.43
653.929	4.4
654.341	4.36
654.753	4.32
655.165	4.27
655.577	4.24
655.989	4.19
656.401	4.15
656.813	4.1
657.224	4.05
657.636	3.99
658.047	3.95
658.459	3.88
658.87	3.83
659.282	3.78
659.693	3.73
660.104	3.67
660.515	3.63
660.926	3.58
661.338	3.53
661.749	3.49
662.159	3.44
662.57	3.4
662.981	3.36
663.392	3.33
663.803	3.3
664.213	3.27
664.624	3.23
665.035	3.2
665.445	3.18
665.855	3.16
666.266	3.15
666.676	3.14
667.086	3.11
667.497	3.1
667.907	3.09
668.317	3.08
668.727	3.07
669.137	3.06
669.547	3.06
669.956	3.05
670.366	3.05
670.776	3.05
671.186	3.05
671.595	3.06
672.005	3.06
672.414	3.06
672.824	3.07
673.233	3.08
673.642	3.09
674.052	3.1
674.461	3.12
674.87	3.13
675.279	3.15
675.688	3.17
676.097	3.18
676.506	3.2
676.915	3.22
677.323	3.24
677.732	3.26
678.141	3.29
678.549	3.31
678.958	3.33
679.366	3.37
679.775	3.39
680.183	3.42
680.592	3.47
681	3.51
681.408	3.54
681.816	3.6
682.224	3.65
682.632	3.71
683.04	3.77
683.448	3.84
683.856	3.92
684.264	4.01
684.671	4.11
685.079	4.21
685.487	4.35
685.894	4.5
686.302	4.65
686.709	4.83
687.116	5.03
687.524	5.25
687.931	5.49
688.338	5.74
688.745	6.02
689.152	6.31
689.559	6.63
689.966	6.96
690.373	7.31
690.78	7.68
691.187	8.07
691.593	8.48
692	8.89
692.407	9.32
692.813	9.78
693.22	10.24
693.626	10.71
694.032	11.18
694.439	11.68
694.845	12.19
695.251	12.7
695.657	13.2
696.063	13.72
696.469	14.24
696.875	14.78
697.281	15.3
697.687	15.82
698.093	16.35
698.498	16.86
698.904	17.38
699.31	17.89
699.715	18.4
700.12	18.9
700.526	19.4
700.931	19.92
701.337	20.42
701.742	20.91
702.147	21.39
702.552	21.87
702.957	22.33
703.362	22.78
703.767	23.23
704.172	23.69
704.577	24.14
704.981	24.59
705.386	25.02
705.791	25.44
706.195	25.87
706.6	26.29
707.004	26.71
707.408	27.14
707.813	27.56
708.217	27.96
708.621	28.37
709.025	28.76
709.43	29.14
709.834	29.53
710.237	29.91
710.641	30.28
711.045	30.63
711.449	31.01
711.853	31.38
712.256	31.71
712.66	32.06
713.064	32.39
713.467	32.74
713.87	33.08
714.274	33.39
714.677	33.72
715.08	34.02
715.484	34.34
715.887	34.64
716.29	34.93
716.693	35.24
717.096	35.54
717.499	35.84
717.901	36.11
718.304	36.37
718.707	36.65
719.109	36.92
719.512	37.18
719.915	37.43
720.317	37.66
720.719	37.88
721.122	38.11
721.524	38.34
721.926	38.57
722.328	38.78
722.731	38.99
723.133	39.21
723.535	39.38
723.937	39.59
724.338	39.78
724.74	39.99
725.142	40.3
725.544	40.47
725.945	40.66
726.347	40.78
726.748	40.93
727.15	41.07
727.551	41.24
727.952	41.38
728.354	41.54
728.755	41.69
729.156	41.81
729.557	41.82
729.958	41.93
730.359	42.05
730.76	42.2
731.161	42.32
731.562	42.45
731.962	42.51
732.363	42.65
732.763	42.73
733.164	42.82
733.564	42.93
733.965	43.02
734.365	43.13
734.766	43.21
735.166	43.3
735.566	43.35
735.966	43.45
736.366	43.54
736.766	43.57
737.166	43.64
737.566	43.7
737.966	43.75
738.365	43.81
738.765	43.88
739.165	43.92
739.564	43.97
739.964	44.01
740.363	44.03
740.763	44.06
741.162	44.11
741.561	44.15
741.96	44.17
742.36	44.21
742.759	44.23
743.158	44.25
743.557	44.27
743.955	44.3
744.354	44.37
744.753	44.42
745.152	44.48
745.55	44.52
745.949	44.55
746.348	44.59
746.746	44.58
747.144	44.62
747.543	44.63
747.941	44.66
748.339	44.64
748.737	44.63
749.136	44.63
749.534	44.59
749.932	44.6
750.33	44.58
750.727	44.62
751.125	44.64
751.523	44.65
751.921	44.66
752.318	44.68
752.716	44.72
753.113	44.74
753.511	44.77
753.908	44.82
754.305	44.87
754.703	44.89
755.1	44.89
755.497	44.9
755.894	44.91
756.291	44.94
756.688	44.94
757.085	44.96
757.482	44.96
757.878	44.97
758.275	44.97
758.672	44.96
759.068	44.99
759.465	44.97
759.861	44.99
760.258	45.02
760.654	45
761.05	45.02
761.447	45.01
761.843	44.99
762.239	45
762.635	45
763.031	45.01
763.427	45.01
763.822	45.02
764.218	45
764.614	45
765.01	44.99
765.405	44.98
765.801	44.99
766.196	45.04
766.592	45.03
766.987	45.02
767.382	44.99
767.778	44.99
768.173	45.01
768.568	45.01
768.963	45
769.358	45
769.753	45.03
770.148	45.02
770.542	45.01
770.937	45.01
771.332	45.01
771.726	45.04
772.121	45.01
772.515	45.01
772.91	45.03
773.304	45.04
773.699	45.07
774.093	45.04
774.487	45.03
774.881	45.04
775.275	45.03
775.669	45.02
776.063	45.01
776.457	45.04
776.851	45
777.245	44.95
777.638	44.95
778.032	44.95
778.425	44.98
778.819	44.99
779.212	44.97
779.606	45
779.999	44.97
780.392	44.99
780.786	44.99
781.179	45.02
781.572	45.06
781.965	45.08
782.358	45.05
782.751	45
783.143	45
783.536	45.01
783.929	44.97
784.322	45.01
784.714	45
785.107	45.03
785.499	45.02
785.891	45.02
786.284	45.02
786.676	45.05
787.068	45.08
787.46	45.08
787.852	45.06
788.245	45.09
788.636	45.07
789.028	45.09
789.42	45.08
789.812	45.08
790.204	45.09
790.595	45.1
790.987	45.1
791.378	45.12
791.77	45.13
792.161	45.13
792.553	45.12
792.944	45.14
793.335	45.11
793.726	45.11
794.117	45.1
794.508	45.06
794.899	45.05
795.29	45.04
795.681	45
796.072	45.01
796.463	45.05
796.853	45.03
797.244	45.03
797.634	45.05
798.025	45.05
798.415	45.06
798.806	45.09
799.196	45.12
799.586	45.12
799.976	45.14
800.366	45.12
800.756	45.11
801.146	45.11
801.536	45.12
801.926	45.09
802.316	45.06
802.706	45.08
803.095	45.07
803.485	45.06
803.874	45.04
804.264	45.02
804.653	45.02
805.043	45.02
805.432	45.04
805.821	45.05
806.21	45.07
806.599	45.07
806.988	45.05
807.377	45.05
807.766	45.03
808.155	45.03
808.544	45.02
808.933	45
809.321	44.99
809.71	44.98
810.098	44.96
810.487	44.95
810.875	44.96
811.264	44.96
811.652	44.97
812.04	44.97
812.428	44.99
812.816	44.99
813.204	44.98
813.592	44.96
813.98	44.94
814.368	44.94
814.756	44.95
815.144	44.93
815.531	44.92
815.919	44.88
816.306	44.88
816.694	44.85
817.081	44.85
817.469	44.87
817.856	44.88
818.243	44.87
818.63	44.84
819.017	44.83
819.404	44.82
819.791	44.8
820.178	44.81
820.565	44.81
820.952	44.83
821.339	44.84
821.725	44.84
822.112	44.85
822.498	44.85
822.885	44.88
823.271	44.88
823.657	44.88
824.044	44.93
824.43	44.94
824.816	44.95
825.202	44.92
825.588	44.9
825.974	44.89
826.36	44.88
826.746	44.88
827.132	44.88
827.517	44.88
827.903	44.91
828.289	44.91
828.674	44.9
829.06	44.88
829.445	44.9
829.83	44.91
830.216	44.91
830.601	44.9
830.986	44.92
831.371	44.92
831.756	44.94
832.141	44.94
832.526	44.93
832.911	44.93
833.295	44.96
833.68	44.96
834.065	44.96
834.449	44.98
834.834	44.99
835.218	44.99
835.603	44.99
835.987	44.97
836.371	44.96
836.755	44.95
837.139	44.96
837.524	44.95
837.908	44.97
838.291	44.98
838.675	44.98
839.059	44.97
839.443	44.96
839.827	44.96
840.21	44.98
840.594	45.01
840.977	45
841.361	45
841.744	44.97
842.127	44.94
842.511	44.93
842.894	44.91
843.277	44.91
843.66	44.92
844.043	44.92
844.426	44.91
844.809	44.88
845.191	44.89
845.574	44.89
845.957	44.92
846.339	44.93
846.722	44.94
847.104	44.96
847.487	44.97
847.869	44.96
848.252	44.97
848.634	44.98
849.016	45
849.398	45.01
849.78	45
850.162	44.99
850.544	45
850.926	45.01
851.307	44.99
851.689	44.99
852.071	45.01
852.452	45.02
852.834	45.01
853.215	45
853.597	45
853.978	45
854.359	45
854.741	45
855.122	45
855.503	45.01
855.884	45.02
856.265	45.01
856.646	44.98
857.026	45
857.407	45.02
857.788	45
858.169	45.02
858.549	45.01
858.93	45.01
859.31	45.01
859.69	45.02
860.071	45.02
860.451	45.02
860.831	45.01
861.211	44.98
861.591	44.95
861.971	44.97
862.351	44.97
862.731	44.98
863.111	44.97
863.491	44.95
863.87	44.92
864.25	44.9
864.629	44.91
865.009	44.92
865.388	44.93
865.768	44.96
866.147	44.97
866.526	44.98
866.905	44.95
867.284	44.97
867.663	44.98
868.042	45
868.421	45.03
868.8	45.04
869.179	45.07
869.558	45.06
869.936	45.03
870.315	45.03
870.693	45.02
871.072	45.04
871.45	45.03
871.828	45.04
872.207	45.06
872.585	45.03
872.963	45.02
873.341	45
873.719	45.03
874.097	45.04
874.475	45.05
874.853	45.05
875.23	45.06
875.608	45.08
875.986	45.1
876.363	45.08
876.741	45.11
877.118	45.12
877.495	45.13
877.873	45.13
878.25	45.16
878.627	45.17
879.004	45.18
879.381	45.19
879.758	45.18
880.135	45.16
880.512	45.18
880.889	45.15
881.265	45.15
881.642	45.14
882.019	45.13
882.395	45.13
882.772	45.12
883.148	45.08
883.524	45.06
883.901	45.06
884.277	45.06
884.653	45.04
885.029	45.04
885.405	45.04
885.781	45.04
886.157	45.03
886.532	45.01
886.908	44.99
887.284	45
887.659	44.97
888.035	44.95
888.411	44.95
888.786	44.95
889.161	44.97
889.537	44.95
889.912	44.95
890.287	44.95
890.662	44.94
891.037	44.97
891.412	44.95
891.787	44.96
892.162	44.97
892.536	44.97
892.911	44.98
893.286	44.98
893.66	44.99
894.035	44.98
894.409	44.97
894.784	44.99
895.158	44.95
895.532	44.98
895.906	45.01
896.281	45.02
896.655	45.01
897.029	45.03
897.402	45.01
897.776	45.02
898.15	45.03
898.524	45.06
898.898	45.06
899.271	45.11
899.645	45.11
900.018	45.1
900.392	45.11
900.765	45.12
901.138	45.1
901.511	45.13
901.884	45.11
902.258	45.11
902.631	45.12
903.003	45.13
903.376	45.12
903.749	45.11
904.122	45.12
904.495	45.14
904.867	45.16
905.24	45.19
905.612	45.16
905.985	45.16
906.357	45.16
906.729	45.15
907.102	45.17
907.474	45.17
907.846	45.17
908.218	45.17
908.59	45.16
908.962	45.14
909.334	45.14
909.705	45.17
910.077	45.19
910.449	45.19
910.82	45.22
911.192	45.19
911.563	45.18
911.935	45.17
912.306	45.19
912.677	45.2
913.048	45.24
913.419	45.22
913.79	45.2
914.161	45.2
914.532	45.19
914.903	45.18
915.274	45.21
915.645	45.23
916.015	45.22
916.386	45.19
916.756	45.18
917.127	45.14
917.497	45.15
917.868	45.17
918.238	45.16
918.608	45.19
918.978	45.18
919.348	45.17
919.718	45.15
920.088	45.18
920.458	45.19
920.828	45.18
921.198	45.15
921.567	45.16
921.937	45.17
922.306	45.15
922.676	45.12
923.045	45.13
923.415	45.1
923.784	45.12
924.153	45.11
924.522	45.14
924.891	45.12
925.26	45.15
925.629	45.12
925.998	45.1
926.367	45.12
926.736	45.16
927.104	45.14
927.473	45.13
927.842	45.1
928.21	45.11
928.578	45.05
928.947	45.07
929.315	45.06
929.683	45.08
930.051	45.07
930.42	45.06
930.788	45.01
931.156	45.02
931.523	45.06
931.891	45.1
932.259	45.1
932.627	45.13
932.994	45.14
933.362	45.14
933.729	45.17
934.097	45.22
934.464	45.27
934.831	45.32
935.199	45.35
935.566	45.37
935.933	45.33
936.3	45.35
936.667	45.35
937.034	45.4
937.401	45.43
937.767	45.44
938.134	45.41
938.501	45.39
938.867	45.4
939.234	45.36
939.6	45.31
939.967	45.29
940.333	45.23
940.699	45.24
941.065	45.17
941.431	45.12
941.798	45.08
942.163	45.05
942.529	45.03
942.895	45
943.261	44.99
943.627	44.92
943.992	44.95
944.358	44.94
944.723	44.89
945.089	44.82
945.454	44.83
945.82	44.8
946.185	44.8
946.55	44.71
946.915	44.66
947.28	44.6
947.645	44.62
948.01	44.64
948.375	44.63
948.74	44.64
949.104	44.69
949.469	44.67
949.834	44.63
950.198	44.62
950.562	44.63
950.927	44.62
951.291	44.61
951.655	44.58
952.02	44.54
952.384	44.51
952.748	44.52
953.112	44.51
953.476	44.45
953.839	44.41
954.203	44.38
954.567	44.35
954.931	44.29
955.294	44.28
955.658	44.32
956.021	44.31
956.385	44.32
956.748	44.28
957.111	44.27
957.474	44.35
957.837	44.34
958.2	44.33
958.563	44.36
958.926	44.38
959.289	44.42
959.652	44.4
960.015	44.38
960.377	44.36
960.74	44.38
961.102	44.36
961.465	44.36
961.827	44.48
962.189	44.51
962.552	44.53
962.914	44.58
963.276	44.58
963.638	44.52
964	44.51
964.362	44.54
964.724	44.48
965.085	44.51
965.447	44.47
965.809	44.4
966.17	44.4
966.532	44.36
966.893	44.32
967.255	44.29
967.616	44.35
967.977	44.42
968.338	44.39
968.699	44.43
969.061	44.4
969.421	44.41
969.782	44.42
970.143	44.44
970.504	44.45
970.865	44.49
971.225	44.48
971.586	44.46
971.946	44.39
972.307	44.39
972.667	44.38
973.027	44.42
973.388	44.43
973.748	44.45
974.108	44.5
974.468	44.45
974.828	44.48
975.188	44.47
975.548	44.45
975.907	44.49
976.267	44.5
976.627	44.53
976.986	44.45
977.346	44.42
977.705	44.35
978.064	44.3
978.424	44.34
978.783	44.27
979.142	44.29
979.501	44.36
979.86	44.42
980.219	44.44
980.578	44.44
980.937	44.51
981.296	44.49
981.654	44.53
982.013	44.51
982.371	44.55
982.73	44.61
983.088	44.6
983.447	44.63
983.805	44.62
984.163	44.6
984.521	44.6
984.879	44.56
985.237	44.63
985.595	44.67
985.953	44.65
986.311	44.65
986.669	44.64
987.026	44.68
987.384	44.69
987.741	44.62
988.099	44.66
988.456	44.63
988.814	44.65
989.171	44.64
989.528	44.64
989.885	44.61
990.242	44.63
990.599	44.67
990.956	44.57
991.313	44.53
991.67	44.57
992.027	44.72
992.383	44.76
992.74	44.86
993.096	44.88
993.453	44.83
993.809	44.94
994.165	44.91
994.522	44.94
994.878	44.99
995.234	45.02
995.59	45.01
995.946	44.86
996.302	44.94
996.658	44.93
997.013	44.96
997.369	45.03
997.725	45.07
998.08	45.16
998.436	45.13
998.791	45.22
999.147	45.24
999.502	45.36
999.857	45.4
1000.212	45.26
1000.567	45.19
1000.922	45.06
1001.277	45.05
1001.632	44.88
1001.987	44.87
1002.342	44.76
1002.696	44.72
1003.051	44.77
1003.406	44.83
1003.76	44.88
1004.114	44.9
1004.469	44.99
1004.823	45.29
1005.177	45.27
1005.531	45.48
1005.885	45.5
1006.239	45.64
1006.593	45.71
1006.947	45.68
1007.301	45.57
1007.655	45.52
1008.008	45.72
1008.362	45.78
1008.715	45.79
1009.069	45.9
1009.422	45.85
1009.776	45.89
1010.129	45.97
1010.482	46.02
1010.835	46.07
1011.188	46.03
1011.541	46.09
1011.894	46.09
1012.247	46.06
1012.6	45.8
1012.952	45.82
1013.305	45.9
1013.657	45.94
1014.01	45.91
1014.362	45.81
1014.715	45.86
1015.067	45.99
1015.419	46.15
1015.771	46.07
1016.123	46.17
1016.475	46.31
1016.827	46.23
1017.179	46.3
1017.531	46.25
1017.883	46.2
1018.234	46.5
1018.586	46.64
1018.938	46.73
1019.289	46.48
1019.64	46.52
1019.992	46.4
1020.343	46.45
1020.694	46.64
1021.045	46.71
1021.396	46.77
1021.747	46.93
1022.098	46.96
1022.449	46.88
1022.8	46.96
1023.151	47.1
1023.501	47.19
1023.852	47.38
1024.202	47.38
1024.553	47.36
1024.903	47.31
1025.253	47.39
1025.604	47.47
1025.954	47.14
1026.304	47.15
1026.654	47.14
1027.004	47.02
1027.354	46.92
1027.703	46.61
1028.053	46.48
1028.403	46.52
1028.753	46.25
1029.102	46.28
1029.452	46.19
1029.801	46.37
1030.15	46.26
1030.499	45.95
897.758	1241.41
901.051	1252.44
904.343	1248.24
907.636	1270.3
910.928	1237.79
914.22	1235.21
917.511	1216.23
920.803	1164.01
924.094	1158.24
927.384	1134.32
930.675	1087.85
933.965	1081.16
937.255	1018.58
940.544	977.69
943.834	930.76
947.123	922.5
950.411	870.38
953.7	853.27
956.988	809.02
960.276	777.58
963.563	764.97
966.851	739.13
970.138	734.21
973.424	710.07
976.711	713.95
979.997	678.57
983.283	674.61
986.568	660.52
989.853	640.03
993.138	629.08
996.423	603.98
999.708	584.97
1002.992	579.56
1006.275	551.71
1009.559	547.16
1012.842	528.16
1016.125	514.82
1019.408	506.16
1022.69	497.41
1025.972	489.14
1029.254	476.49
1032.536	469.03
1035.817	460.06
1039.098	453.62
1042.379	446.29
1045.659	440.71
1048.939	428.94
1052.219	420.19
1055.498	413.11
1058.778	404.94
1062.057	394.17
1065.335	390.81
1068.614	387.53
1071.892	383.74
1075.17	370.72
1078.447	362.75
1081.724	360.1
1085.001	359.01
1088.278	351.71
1091.554	344.86
1094.83	344.67
1098.106	342.83
1101.382	340.46
1104.657	337.24
1107.932	331.7
1111.206	334.12
1114.481	325.85
1117.755	323.21
1121.029	320.19
1124.302	320.13
1127.575	313.59
1130.848	310.35
1134.121	306.33
1137.393	304.11
1140.665	297.29
1143.937	295.23
1147.208	293.95
1150.48	293.37
1153.75	290.01
1157.021	284.8
1160.291	284.74
1163.561	282.7
1166.831	282.96
1170.101	281.41
1173.37	279.86
1176.639	281.2
1179.907	278.79
1183.176	275.43
1186.444	275.22
1189.711	274.38
1192.979	274.88
1196.246	272.54
1199.513	273.37
1202.78	271.1
1206.046	271.05
1209.312	270
1212.578	269.58
1215.843	271.78
1219.108	270.3
1222.373	275.52
1225.638	277.48
1228.902	280.88
1232.166	282.01
1235.43	284.13
1238.693	287.73
1241.956	288.72
1245.219	292.92
1248.482	292.89
1251.744	292.87
1255.006	293.41
1258.268	286.68
1261.529	283.78
1264.79	282.06
1268.051	280.17
1271.312	276.58
1274.572	273.94
1277.832	271.03
1281.092	266.6
1284.351	264.79
1287.61	264.51
1290.869	260.68
1294.128	259.36
1297.386	258.81
1300.644	255.47
1303.902	256.51
1307.159	255.65
1310.416	255.31
1313.673	255.65
1316.93	258.28
1320.186	257.98
1323.442	259.3
1326.697	263.61
1329.953	264.22
1333.208	266.09
1336.463	268.85
1339.717	269.05
1342.972	271.96
1346.226	273.97
1349.479	274.66
1352.733	275.52
1355.986	277.67
1359.238	276.21
1362.491	278.37
1365.743	280.92
1368.995	280.74
1372.247	279.98
1375.498	279.8
1378.749	282.68
1382	279.61
1385.251	280.24
1388.501	278.3
1391.751	278.53
1395	277.65
1398.25	275.07
1401.499	272.92
1404.748	272.36
1407.996	270.87
1411.244	269.62
1414.492	267.23
1417.74	264.95
1420.987	260.59
1424.234	259.92
1427.481	257.16
1430.728	256.29
1433.974	254.37
1437.22	252.15
1440.465	251.54
1443.711	249.3
1446.956	246.82
1450.201	243.88
1453.445	241.47
1456.689	240.85
1459.933	237.15
1463.177	234.36
1466.42	231.17
1469.663	227.81
1472.906	226.91
1476.148	220.77
1479.391	218.05
1482.633	216.77
1485.874	213.22
1489.115	211.85
1492.356	209.56
1495.597	208.91
1498.838	206.58
1502.078	205.67
1505.318	204.68
1508.557	204.24
1511.797	204.28
1515.036	203.03
1518.274	202.41
1521.513	201.36
1524.751	200.64
1527.989	200.47
1531.227	199.59
1534.464	199.49
1537.701	197.59
1540.938	197.31
1544.174	195.48
1547.41	195.14
1550.646	193.8
1553.882	194.18
1557.117	191.42
1560.352	191.08
1563.587	189.96
1566.821	188.83
1570.055	187.5
1573.289	186.66
1576.523	186.28
1579.756	184.46
1582.989	183.21
1586.222	183.62
1589.454	181.82
1592.686	183.55
1595.918	182.3
1599.15	182.05
1602.381	182.54
1605.612	182.06
1608.843	182.5
1612.073	182.23
1615.303	183.63
1618.533	183.92
1621.762	183.77
1624.992	184.59
1628.221	183.84
1631.449	183.91
1634.678	183.51
1637.906	184.43
1641.134	184.59
1644.361	184.51
1647.588	185.06
1650.815	184.23
1654.042	183.54
1657.269	184.52
1660.495	184.51
1663.72	183.96
1666.946	184.62
1670.171	185.16
1673.396	184.49
1676.621	184.67
1679.845	184.53
1683.069	184.59
1686.293	185.74
1689.517	187.12
1692.74	186.71
1695.963	186.97
1699.185	189.26
1702.408	189.21
1705.63	190.07
1708.852	190.65
1712.073	190.79
1715.294	191.77
1718.515	192.59
1721.736	191.97
1724.956	192.24
1728.176	192.57
1731.396	194.03
1734.616	192.61
1737.835	193.64
1741.054	192.01
1744.272	192.66
1747.491	194.68
1750.709	194.87
1753.927	194.7
1757.144	194.9
1760.361	195.29
1763.578	195.42
1766.795	195.04
1770.011	197.02
1773.227	196.07
1776.443	198.87
1779.658	199.47
1782.874	198.37
1786.089	199.46
1789.303	200.27
1792.518	202.56
1795.732	202.37
1798.945	204.28
1802.159	204.8
1805.372	205
1808.585	209.24
1811.797	209.99
1815.01	210.26
1818.222	212.39
1821.434	213.41
1824.645	213.6
1827.856	216.86
1831.067	218.78
1834.278	218.24
1837.488	219.49
1840.698	221.44
1843.908	219.44
1847.117	219.82
1850.326	220.87
1853.535	220.77
1856.744	224.32
1859.952	224.05
1863.16	222.22
1866.368	221.08
1869.575	223.05
1872.782	219.55
1875.989	218.15
1879.196	216.97
1882.402	215.67
1885.608	216.37
1888.814	216.16
1892.019	214.25
1895.224	214.03
1898.429	213.23
1901.634	214.45
1904.838	214.48
1908.042	216.62
1911.246	216.88
1914.449	218.49
1917.652	219.35
1920.855	218.51
1924.058	218.52
1927.26	217.87
1930.462	218.71
1933.664	221.21
1936.865	218.72
1940.066	218.67
1943.267	217.85
1946.467	217.71
1949.668	218.6
1952.868	220.79
1956.067	221.32
1959.267	221.2
1962.466	222.02
1965.665	221.07
1968.863	220.69
1972.061	224.65
1975.259	226.29
1978.457	227.52
1981.654	230.47
1984.852	231.41
1988.048	230.27
1991.245	232.17
1994.441	235.05
1997.637	236.22
2000.833	240.66
2004.028	244.73
2007.223	246.19
2010.418	248.57
2013.613	252.76
2016.807	254.86
2020.001	257.48
2023.194	262.04
2026.388	267.9
2029.581	273.9
2032.774	276.63
2035.966	281.95
2039.158	282
2042.35	287.01
2045.542	288.5
2048.733	294.51
2051.924	297.95
2055.115	302.63
2058.306	302.74
2061.496	305.95
2064.686	306.19
2067.875	312.1
2071.065	313.46
2074.254	311.49
2077.442	314.77
2080.631	316.98
2083.819	318.93
2087.007	319.71
2090.195	323.05
2093.382	326.44
2096.569	324.35
2099.756	329.43
2102.942	330.16
2106.128	333.03
2109.314	340.83
2112.5	340.31
2115.685	347.61
2118.87	348.01
2122.055	355.02
2125.239	358.09
2128.424	362.28
2131.608	365.68
2134.791	370.38
2137.974	371.89
2141.157	372.26
2144.34	374.28
2147.523	378.99
2150.705	376.32
2153.887	380.26
2157.068	380.79
2160.25	377.62
2163.431	379.32
2166.611	382.91
2169.792	389.86
2172.972	394.21
2176.152	397.44
2179.331	401.45
2182.511	408.66
2185.69	413.2
2188.868	421.83
2192.047	423.4
2195.225	435.66
2198.403	445.76
2201.58	455.27
2204.758	460.55
2207.935	471.55
2211.111	480.01
2214.288	486.4
2217.464	488.32
2220.64	496.02
2223.815	501.88
2226.991	519.85
2230.166	520.67
2233.34	530.31
2236.515	537
2239.689	540.77
2242.863	541.28
2246.036	557.55
2249.209	555.51
2252.382	562.99
2255.555	580.73
2258.727	582.85
2261.9	586.95
2265.071	592.99
2268.243	600.95
2271.414	608.51
2274.585	621.14
2277.756	629.01
2280.926	630.34
2284.096	642.77
2287.266	657.8
2290.436	661.84
2293.605	677.81
2296.774	698.33
2299.942	718.81
2303.111	724.54
2306.279	739.95
2309.447	750.34
2312.614	769.11
2315.781	794.23
2318.948	829.61
2322.115	817.87
2325.281	861.68
2328.447	845.12
2331.613	880.61
2334.779	871.18
2337.944	908.42
2341.109	917.04
2344.274	945.31
2347.438	976.84
2350.602	974.27
2353.766	1007.41
2356.929	1023.73
2360.092	1014.02
2363.255	1086.91
2366.418	1083.01
2369.58	1107.28
2372.742	1171.27
2375.904	1203.08
2379.066	1193.47
2382.227	1172.09
2385.388	1275.22
2388.548	1269.65
2391.709	1284.42
2394.869	1431.34
2398.029	1371.73
2401.188	1409.56
2404.347	1399.85
2407.506	1380.38
2410.665	1416.39
2413.823	1501.63
2416.981	1590.93
2420.139	1532.95
2423.296	1523.27
2426.453	1588.49
2429.61	1532.62
2432.767	1599.36
2435.923	1582.65
2439.079	1729.54
2442.235	1752.37
2445.391	1739.67
2448.546	1723.22
2451.701	1674.54
2454.855	1677.4
2458.009	1769.38
2461.163	1846.22
2464.317	1907.03
2467.471	1957.33
2470.624	1960.33
2473.777	1906.76
2476.929	1859.58
2480.082	1807.17
2483.234	1791.18
2486.385	1880.67
2489.537	1886.92
2492.688	1962.57
2495.839	1904.02
2498.989	1867.18
2502.14	1877.3
2505.29	1893.94
2508.439	1930.61
2511.589	1924.73
2514.738	2095.87
2517.887	2047.09
2521.035	2163.92
2524.183	2180.29
2527.331	2196.71
2530.479	2188.04
2533.627	2201.78
