Data from C_1_DEC_CT_2N_Splice17_12-56-23-562.txt Node
Date: Sat Mar 07 12:56:23 EST 2020
User: sa697716
Spectrometer: NQ5500242
Trigger mode: 0
Integration Time (sec): 1.450000E-1
Scans to average: 20
Nonlinearity correction enabled: false
Boxcar width: 5
Storing dark spectrum: false
XAxis mode: Wavelengths
Number of Pixels in Spectrum: 512
>>>>>Begin Spectral Data<<<<<
187.83	112.12
188.298	136.78
188.766	125.72
189.233	110.86
189.701	112.55
190.169	128.58
190.636	144.06
191.104	205.07
191.571	190.71
192.039	-22.22
192.506	0.37
192.974	121.87
193.441	268.44
193.908	157.03
194.375	117.82
194.842	78.03
195.31	121.39
195.777	158.46
196.244	45.43
196.711	43.62
197.177	43.42
197.644	43.71
198.111	43.86
198.578	43.96
199.045	44.65
199.511	44.62
199.978	44.8
200.445	44.95
200.911	45.16
201.378	45.33
201.844	45.49
202.31	45.1
202.777	44.83
203.243	44.88
203.709	44.82
204.176	44.39
204.642	44.26
205.108	44.13
205.574	43.76
206.04	43.15
206.506	42.75
206.972	42.73
207.438	42.55
207.903	42.54
208.369	41.73
208.835	41.12
209.301	40.44
209.766	39.34
210.232	38
210.697	37.06
211.163	36.42
211.628	35.71
212.094	34.51
212.559	33.99
213.024	33.17
213.49	32.49
213.955	31.57
214.42	31
214.885	30.11
215.35	29.4
215.815	28.07
216.28	26.34
216.745	24.3
217.21	22.47
217.675	20.65
218.14	19.11
218.604	17.68
219.069	16.62
219.534	15.67
219.998	14.97
220.463	14.3
220.927	13.72
221.392	13.23
221.856	12.85
222.32	12.5
222.785	12.24
223.249	11.95
223.713	11.75
224.177	11.52
224.642	11.31
225.106	11.07
225.57	10.85
226.034	10.66
226.497	10.51
226.961	10.34
227.425	10.19
227.889	10.03
228.353	9.88
228.816	9.72
229.28	9.56
229.744	9.42
230.207	9.29
230.671	9.16
231.134	9.03
231.597	8.93
232.061	8.82
232.524	8.72
232.987	8.6
233.45	8.51
233.914	8.41
234.377	8.32
234.84	8.22
235.303	8.13
235.766	8.05
236.229	7.97
236.691	7.87
237.154	7.79
237.617	7.71
238.08	7.63
238.542	7.55
239.005	7.48
239.468	7.4
239.93	7.34
240.393	7.28
240.855	7.2
241.317	7.13
241.78	7.06
242.242	6.98
242.704	6.92
243.166	6.85
243.629	6.79
244.091	6.72
244.553	6.65
245.015	6.59
245.477	6.52
245.939	6.46
246.4	6.4
246.862	6.35
247.324	6.3
247.786	6.24
248.247	6.18
248.709	6.12
249.17	6.05
249.632	6.01
250.093	5.97
250.555	5.91
251.016	5.86
251.477	5.81
251.939	5.76
252.4	5.73
252.861	5.69
253.322	5.65
253.783	5.61
254.244	5.58
254.705	5.54
255.166	5.5
255.627	5.47
256.088	5.43
256.549	5.4
257.009	5.36
257.47	5.31
257.931	5.27
258.391	5.23
258.852	5.18
259.312	5.14
259.773	5.1
260.233	5.07
260.694	5.03
261.154	4.99
261.614	4.96
262.074	4.93
262.534	4.89
262.994	4.87
263.455	4.83
263.915	4.81
264.374	4.79
264.834	4.77
265.294	4.74
265.754	4.72
266.214	4.7
266.673	4.69
267.133	4.68
267.593	4.66
268.052	4.64
268.512	4.63
268.971	4.62
269.431	4.6
269.89	4.59
270.349	4.57
270.809	4.56
271.268	4.55
271.727	4.53
272.186	4.52
272.645	4.51
273.104	4.5
273.563	4.48
274.022	4.46
274.481	4.45
274.94	4.44
275.399	4.42
275.857	4.41
276.316	4.4
276.775	4.38
277.233	4.36
277.692	4.34
278.15	4.33
278.609	4.32
279.067	4.31
279.525	4.3
279.984	4.28
280.442	4.28
280.9	4.27
281.358	4.26
281.816	4.26
282.274	4.26
282.732	4.25
283.19	4.24
283.648	4.23
284.106	4.21
284.564	4.21
285.021	4.21
285.479	4.2
285.937	4.19
286.394	4.18
286.852	4.16
287.309	4.14
287.767	4.12
288.224	4.11
288.682	4.09
289.139	4.07
289.596	4.05
290.053	4.02
290.511	4
290.968	3.98
291.425	3.96
291.882	3.94
292.339	3.93
292.796	3.92
293.252	3.91
293.709	3.9
294.166	3.89
294.623	3.88
295.079	3.88
295.536	3.87
295.992	3.86
296.449	3.85
296.905	3.85
297.362	3.84
297.818	3.83
298.274	3.83
298.731	3.82
299.187	3.8
299.643	3.79
300.099	3.79
300.555	3.78
301.011	3.77
301.467	3.77
301.923	3.76
302.379	3.75
302.835	3.75
303.291	3.74
303.746	3.74
304.202	3.73
304.658	3.74
305.113	3.73
305.569	3.73
306.024	3.73
306.479	3.72
306.935	3.71
307.39	3.71
307.845	3.71
308.301	3.71
308.756	3.71
309.211	3.7
309.666	3.7
310.121	3.7
310.576	3.7
311.031	3.69
311.486	3.69
311.94	3.7
312.395	3.7
312.85	3.7
313.305	3.7
313.759	3.69
314.214	3.69
314.668	3.68
315.123	3.68
315.577	3.67
316.032	3.67
316.486	3.67
316.94	3.65
317.394	3.64
317.849	3.62
318.303	3.61
318.757	3.6
319.211	3.59
319.665	3.58
320.119	3.57
320.572	3.56
321.026	3.54
321.48	3.53
321.934	3.52
322.387	3.51
322.841	3.51
323.295	3.51
323.748	3.5
324.202	3.5
324.655	3.5
325.108	3.5
325.562	3.5
326.015	3.5
326.468	3.49
326.921	3.5
327.374	3.49
327.827	3.49
328.28	3.49
328.733	3.49
329.186	3.48
329.639	3.49
330.092	3.47
330.545	3.47
330.997	3.47
331.45	3.47
331.903	3.47
332.355	3.47
332.808	3.47
333.26	3.47
333.713	3.46
334.165	3.46
334.617	3.45
335.069	3.46
335.522	3.47
335.974	3.46
336.426	3.46
336.878	3.46
337.33	3.45
337.782	3.45
338.234	3.46
338.686	3.47
339.137	3.47
339.589	3.46
340.041	3.46
340.493	3.45
340.944	3.43
341.396	3.43
341.847	3.41
342.299	3.39
342.75	3.37
343.201	3.35
343.653	3.33
344.104	3.32
344.555	3.31
345.006	3.29
345.457	3.29
345.908	3.28
346.359	3.28
346.81	3.28
347.261	3.28
347.712	3.27
348.163	3.27
348.613	3.27
349.064	3.27
349.515	3.27
349.965	3.28
350.416	3.27
350.866	3.27
351.317	3.26
351.767	3.27
352.217	3.27
352.668	3.28
353.118	3.28
353.568	3.28
354.018	3.28
354.468	3.28
354.918	3.28
355.368	3.28
355.818	3.28
356.268	3.28
356.718	3.28
357.168	3.27
357.617	3.26
358.067	3.27
358.517	3.28
358.966	3.28
359.416	3.28
359.865	3.28
360.315	3.28
360.764	3.29
361.213	3.29
361.663	3.29
362.112	3.3
362.561	3.3
363.01	3.3
363.459	3.27
363.908	3.27
364.357	3.27
364.806	3.27
365.255	3.26
365.703	3.26
366.152	3.26
366.601	3.26
367.05	3.26
367.498	3.26
367.947	3.26
368.395	3.26
368.844	3.26
369.292	3.26
369.74	3.25
370.189	3.26
370.637	3.24
371.085	3.24
371.533	3.24
371.981	3.23
372.429	3.23
372.877	3.22
373.325	3.22
373.773	3.22
374.221	3.21
374.669	3.2
375.116	3.2
375.564	3.19
376.012	3.19
376.459	3.19
376.907	3.19
377.354	3.19
377.801	3.19
378.249	3.19
378.696	3.19
379.143	3.19
379.591	3.19
380.038	3.19
380.485	3.19
380.932	3.19
381.379	3.19
381.826	3.19
382.273	3.19
382.72	3.18
383.166	3.17
383.613	3.17
384.06	3.16
384.506	3.16
384.953	3.16
385.4	3.16
385.846	3.16
386.292	3.16
386.739	3.15
387.185	3.14
387.631	3.15
388.078	3.15
388.524	3.15
388.97	3.15
389.416	3.15
389.862	3.15
390.308	3.15
390.754	3.16
391.2	3.16
391.645	3.17
392.091	3.19
392.537	3.2
392.983	3.2
393.428	3.2
393.874	3.22
394.319	3.23
394.765	3.22
395.21	3.22
395.655	3.24
396.101	3.25
396.546	3.24
396.991	3.25
397.436	3.25
397.881	3.28
398.326	3.29
398.771	3.3
399.216	3.31
399.661	3.34
400.106	3.36
400.551	3.36
400.995	3.37
401.44	3.39
401.885	3.4
402.329	3.41
402.774	3.41
403.218	3.44
403.663	3.46
404.107	3.47
404.551	3.47
404.995	3.48
405.44	3.48
405.884	3.5
406.328	3.52
406.772	3.52
407.216	3.54
407.66	3.55
408.104	3.54
408.547	3.55
408.991	3.55
409.435	3.55
409.879	3.57
410.322	3.59
410.766	3.6
411.209	3.61
411.653	3.64
412.096	3.66
412.54	3.67
412.983	3.68
413.426	3.72
413.869	3.75
414.312	3.78
414.756	3.78
415.199	3.79
415.642	3.79
416.085	3.79
416.527	3.79
416.97	3.78
417.413	3.78
417.856	3.79
418.298	3.78
418.741	3.78
419.184	3.78
419.626	3.79
420.069	3.79
420.511	3.8
420.953	3.81
421.396	3.81
421.838	3.82
422.28	3.84
422.722	3.85
423.164	3.85
423.606	3.85
424.048	3.86
424.49	3.85
424.932	3.86
425.374	3.84
425.816	3.82
426.258	3.81
426.699	3.81
427.141	3.82
427.582	3.82
428.024	3.83
428.465	3.84
428.907	3.83
429.348	3.82
429.789	3.82
430.231	3.84
430.672	3.87
431.113	3.89
431.554	3.9
431.995	3.91
432.436	3.9
432.877	3.91
433.318	3.92
433.759	3.95
434.2	3.99
434.64	4
435.081	4.01
435.522	4.02
435.962	4.03
436.403	4.06
436.843	4.08
437.284	4.08
437.724	4.1
438.164	4.08
438.604	4.09
439.045	4.09
439.485	4.1
439.925	4.09
440.365	4.11
440.805	4.1
441.245	4.1
441.685	4.1
442.125	4.11
442.564	4.12
443.004	4.13
443.444	4.13
443.883	4.13
444.323	4.12
444.762	4.14
445.202	4.12
445.641	4.15
446.081	4.14
446.52	4.15
446.959	4.16
447.398	4.18
447.837	4.2
448.276	4.21
448.716	4.22
449.154	4.24
449.593	4.25
450.032	4.26
450.471	4.25
450.91	4.24
451.349	4.25
451.787	4.24
452.226	4.22
452.664	4.2
453.103	4.19
453.541	4.19
453.98	4.19
454.418	4.17
454.856	4.16
455.295	4.15
455.733	4.13
456.171	4.12
456.609	4.1
457.047	4.09
457.485	4.09
457.923	4.08
458.361	4.08
458.798	4.07
459.236	4.07
459.674	4.07
460.111	4.07
460.549	4.09
460.987	4.09
461.424	4.1
461.862	4.11
462.299	4.12
462.736	4.11
463.173	4.1
463.611	4.11
464.048	4.11
464.485	4.11
464.922	4.12
465.359	4.12
465.796	4.13
466.233	4.15
466.67	4.15
467.106	4.15
467.543	4.16
467.98	4.17
468.416	4.16
468.853	4.17
469.29	4.18
469.726	4.18
470.162	4.17
470.599	4.16
471.035	4.14
471.471	4.13
471.907	4.13
472.344	4.13
472.78	4.12
473.216	4.1
473.652	4.09
474.088	4.06
474.523	4.05
474.959	4.04
475.395	4.02
475.831	4.01
476.266	4.01
476.702	3.99
477.138	3.98
477.573	3.98
478.008	4
478.444	3.98
478.879	3.99
479.314	3.98
479.75	3.98
480.185	3.97
480.62	3.97
481.055	3.96
481.49	3.95
481.925	3.93
482.36	3.92
482.795	3.9
483.229	3.89
483.664	3.89
484.099	3.89
484.534	3.89
484.968	3.9
485.403	3.9
485.837	3.9
486.271	3.91
486.706	3.92
487.14	3.92
487.574	3.93
488.009	3.95
488.443	3.94
488.877	3.96
489.311	3.97
489.745	3.97
490.179	4
490.613	4.02
491.046	4.04
491.48	4.08
491.914	4.1
492.348	4.13
492.781	4.17
493.215	4.21
493.648	4.24
494.082	4.28
494.515	4.32
494.948	4.35
495.382	4.38
495.815	4.43
496.248	4.47
496.681	4.52
497.114	4.57
497.547	4.62
497.98	4.68
498.413	4.74
498.846	4.8
499.279	4.87
499.711	4.95
500.144	5.04
500.577	5.12
501.009	5.2
501.442	5.29
501.874	5.4
502.306	5.49
502.739	5.61
503.171	5.73
503.603	5.85
504.036	5.97
504.468	6.1
504.9	6.21
505.332	6.35
505.764	6.5
506.196	6.65
506.627	6.8
507.059	6.98
507.491	7.14
507.923	7.32
508.354	7.51
508.786	7.71
509.217	7.92
509.649	8.13
510.08	8.35
510.512	8.57
510.943	8.81
511.374	9.04
511.805	9.28
512.237	9.53
512.668	9.78
513.099	10.03
513.53	10.3
513.961	10.57
514.391	10.85
514.822	11.14
515.253	11.42
515.684	11.71
516.114	12.01
516.545	12.31
516.975	12.61
517.406	12.91
517.836	13.22
518.267	13.53
518.697	13.84
519.127	14.13
519.558	14.43
519.988	14.74
520.418	15.04
520.848	15.33
521.278	15.62
521.708	16.07
522.138	16.37
522.567	16.64
522.997	16.92
523.427	17.19
523.857	17.45
524.286	17.69
524.716	17.93
525.145	18.18
525.575	18.42
526.004	18.65
526.433	18.72
526.863	18.93
527.292	19.16
527.721	19.35
528.15	19.54
528.579	19.73
529.008	19.93
529.437	20.11
529.866	20.26
530.295	20.43
530.724	20.56
531.152	20.71
531.581	20.86
532.01	20.97
532.438	21.11
532.867	21.23
533.295	21.34
533.723	21.43
534.152	21.54
534.58	21.65
535.008	21.73
535.436	21.82
535.865	21.91
536.293	21.98
536.721	22.04
537.149	22.11
537.576	22.17
538.004	22.24
538.432	22.3
538.86	22.35
539.287	22.4
539.715	22.46
540.143	22.49
540.57	22.52
540.998	22.57
541.425	22.61
541.852	22.64
542.28	22.69
542.707	22.72
543.134	22.77
543.561	22.82
543.988	22.85
544.415	22.89
544.842	22.92
545.269	22.97
545.696	23
546.123	23.03
546.549	23.06
546.976	23.07
547.403	23.09
547.829	23.09
548.256	23.11
548.682	23.13
549.108	23.15
549.535	23.18
549.961	23.18
550.387	23.18
550.813	23.17
551.24	23.17
551.666	23.17
552.092	23.16
552.518	23.14
552.943	23.11
553.369	23.08
553.795	23.04
554.221	23.01
554.646	22.96
555.072	22.91
555.498	22.85
555.923	22.8
556.349	22.73
556.774	22.67
557.199	22.61
557.625	22.54
558.05	22.46
558.475	22.37
558.9	22.28
559.325	22.19
559.75	22.09
560.175	21.99
560.6	21.87
561.025	21.77
561.449	21.65
561.874	21.52
562.299	21.38
562.723	21.26
563.148	21.11
563.572	20.97
563.997	20.83
564.421	20.68
564.846	20.53
565.27	20.39
565.694	20.22
566.118	20.06
566.542	19.91
566.966	19.74
567.39	19.57
567.814	19.42
568.238	19.26
568.662	19.11
569.086	18.95
569.509	18.78
569.933	18.63
570.357	18.47
570.78	18.32
571.204	18.16
571.627	18.01
572.05	17.86
572.474	17.72
572.897	17.58
573.32	17.44
573.743	17.3
574.166	17.18
574.589	17.04
575.012	16.93
575.435	16.81
575.858	16.69
576.281	16.57
576.704	16.45
577.126	16.33
577.549	16.21
577.972	16.1
578.394	15.99
578.817	15.88
579.239	15.79
579.661	15.67
580.084	15.58
580.506	15.48
580.928	15.38
581.35	15.3
581.772	15.22
582.194	15.14
582.616	15.07
583.038	14.98
583.46	14.9
583.882	14.81
584.303	14.73
584.725	14.66
585.147	14.6
585.568	14.55
585.99	14.47
586.411	14.39
586.833	14.33
587.254	14.26
587.675	14.21
588.096	14.15
588.518	14.1
588.939	14.07
589.36	14.02
589.781	13.96
590.202	13.92
590.623	13.87
591.043	13.82
591.464	13.78
591.885	13.74
592.305	13.69
592.726	13.65
593.147	13.62
593.567	13.57
593.987	13.53
594.408	13.5
594.828	13.45
595.248	13.41
595.669	13.39
596.089	13.36
596.509	13.33
596.929	13.29
597.349	13.25
597.769	13.22
598.189	13.18
598.608	13.14
599.028	13.1
599.448	13.06
599.867	13.02
600.287	12.98
600.706	12.92
601.126	12.87
601.545	12.84
601.965	12.8
602.384	12.74
602.803	12.69
603.222	12.62
603.641	12.57
604.061	12.52
604.48	12.46
604.898	12.38
605.317	12.33
605.736	12.25
606.155	12.18
606.574	12.1
606.992	12.03
607.411	11.96
607.829	11.87
608.248	11.78
608.666	11.69
609.085	11.62
609.503	11.55
609.921	11.47
610.339	11.39
610.758	11.32
611.176	11.24
611.594	11.16
612.012	11.08
612.43	11.02
612.847	10.95
613.265	10.87
613.683	10.8
614.101	10.73
614.518	10.65
614.936	10.58
615.353	10.49
615.771	10.43
616.188	10.36
616.606	10.3
617.023	10.24
617.44	10.19
617.857	10.13
618.274	10.07
618.691	10.02
619.108	9.96
619.525	9.92
619.942	9.87
620.359	9.84
620.776	9.81
621.192	9.77
621.609	9.74
622.026	9.7
622.442	9.68
622.859	9.65
623.275	9.62
623.691	9.61
624.108	9.6
624.524	9.59
624.94	9.57
625.356	9.56
625.772	9.55
626.188	9.54
626.604	9.53
627.02	9.51
627.436	9.51
627.852	9.49
628.268	9.48
628.683	9.46
629.099	9.45
629.514	9.42
629.93	9.41
630.345	9.38
630.761	9.34
631.176	9.32
631.591	9.29
632.007	9.26
632.422	9.22
632.837	9.18
633.252	9.13
633.667	9.07
634.082	9.01
634.497	8.94
634.911	8.87
635.326	8.8
635.741	8.72
636.155	8.63
636.57	8.55
636.984	8.46
637.399	8.36
637.813	8.26
638.228	8.16
638.642	8.06
639.056	7.96
639.47	7.86
639.884	7.76
640.298	7.65
640.712	7.54
641.126	7.44
641.54	7.34
641.954	7.24
642.368	7.14
642.781	7.05
643.195	6.96
643.609	6.86
644.022	6.76
644.436	6.67
644.849	6.58
645.262	6.49
645.676	6.41
646.089	6.34
646.502	6.27
646.915	6.2
647.328	6.13
647.741	6.07
648.154	6.01
648.567	5.97
648.98	5.92
649.393	5.88
649.805	5.85
650.218	5.8
650.631	5.75
651.043	5.72
651.456	5.69
651.868	5.65
652.28	5.62
652.693	5.59
653.105	5.55
653.517	5.51
653.929	5.47
654.341	5.42
654.753	5.37
655.165	5.33
655.577	5.28
655.989	5.22
656.401	5.17
656.813	5.12
657.224	5.05
657.636	4.97
658.047	4.93
658.459	4.86
658.87	4.8
659.282	4.73
659.693	4.66
660.104	4.59
660.515	4.53
660.926	4.47
661.338	4.39
661.749	4.33
662.159	4.27
662.57	4.21
662.981	4.15
663.392	4.11
663.803	4.07
664.213	4.03
664.624	4
665.035	3.95
665.445	3.92
665.855	3.88
666.266	3.86
666.676	3.85
667.086	3.81
667.497	3.79
667.907	3.76
668.317	3.75
668.727	3.73
669.137	3.72
669.547	3.72
669.956	3.71
670.366	3.72
670.776	3.71
671.186	3.71
671.595	3.71
672.005	3.72
672.414	3.73
672.824	3.73
673.233	3.74
673.642	3.75
674.052	3.76
674.461	3.77
674.87	3.77
675.279	3.8
675.688	3.81
676.097	3.84
676.506	3.86
676.915	3.88
677.323	3.91
677.732	3.92
678.141	3.94
678.549	3.97
678.958	4
679.366	4.05
679.775	4.07
680.183	4.12
680.592	4.18
681	4.23
681.408	4.29
681.816	4.36
682.224	4.44
682.632	4.53
683.04	4.62
683.448	4.72
683.856	4.83
684.264	4.96
684.671	5.09
685.079	5.24
685.487	5.43
685.894	5.63
686.302	5.84
686.709	6.09
687.116	6.35
687.524	6.64
687.931	6.96
688.338	7.31
688.745	7.68
689.152	8.08
689.559	8.5
689.966	8.93
690.373	9.39
690.78	9.87
691.187	10.37
691.593	10.89
692	11.44
692.407	11.97
692.813	12.55
693.22	13.12
693.626	13.7
694.032	14.29
694.439	14.89
694.845	15.51
695.251	16.12
695.657	16.74
696.063	17.35
696.469	17.95
696.875	18.59
697.281	19.2
697.687	19.82
698.093	20.43
698.498	21.03
698.904	21.63
699.31	22.22
699.715	22.81
700.12	23.41
700.526	24.01
700.931	24.61
701.337	25.17
701.742	25.73
702.147	26.27
702.552	26.84
702.957	27.36
703.362	27.89
703.767	28.41
704.172	28.92
704.577	29.4
704.981	29.88
705.386	30.35
705.791	30.82
706.195	31.3
706.6	31.77
707.004	32.21
707.408	32.68
707.813	33.14
708.217	33.58
708.621	34
709.025	34.41
709.43	34.82
709.834	35.24
710.237	35.62
710.641	36
711.045	36.39
711.449	36.78
711.853	37.17
712.256	37.53
712.66	37.88
713.064	38.22
713.467	38.58
713.87	38.94
714.274	39.26
714.677	39.6
715.08	39.93
715.484	40.26
715.887	40.58
716.29	40.84
716.693	41.16
717.096	41.46
717.499	41.78
717.901	42.08
718.304	42.37
718.707	42.65
719.109	42.93
719.512	43.2
719.915	43.46
720.317	43.69
720.719	43.93
721.122	44.17
721.524	44.42
721.926	44.66
722.328	44.87
722.731	45.08
723.133	45.3
723.535	45.49
723.937	45.68
724.338	45.88
724.74	46.09
725.142	46.37
725.544	46.53
725.945	46.73
726.347	46.85
726.748	47
727.15	47.14
727.551	47.32
727.952	47.45
728.354	47.62
728.755	47.74
729.156	47.85
729.557	47.88
729.958	48.01
730.359	48.1
730.76	48.23
731.161	48.37
731.562	48.49
731.962	48.56
732.363	48.68
732.763	48.77
733.164	48.87
733.564	48.96
733.965	49.06
734.365	49.14
734.766	49.21
735.166	49.31
735.566	49.37
735.966	49.43
736.366	49.5
736.766	49.55
737.166	49.62
737.566	49.67
737.966	49.72
738.365	49.79
738.765	49.85
739.165	49.93
739.564	49.98
739.964	50.03
740.363	50.08
740.763	50.16
741.162	50.22
741.561	50.24
741.96	50.26
742.36	50.3
742.759	50.36
743.158	50.38
743.557	50.35
743.955	50.37
744.354	50.41
744.753	50.45
745.152	50.49
745.55	50.51
745.949	50.56
746.348	50.61
746.746	50.62
747.144	50.65
747.543	50.67
747.941	50.74
748.339	50.74
748.737	50.72
749.136	50.72
749.534	50.68
749.932	50.7
750.33	50.71
750.727	50.71
751.125	50.74
751.523	50.75
751.921	50.78
752.318	50.8
752.716	50.83
753.113	50.87
753.511	50.91
753.908	50.98
754.305	51
754.703	51
755.1	51.02
755.497	51.03
755.894	51.03
756.291	51.02
756.688	51.01
757.085	51.08
757.482	51.08
757.878	51.06
758.275	51.03
758.672	51.03
759.068	51.05
759.465	51.05
759.861	51.09
760.258	51.12
760.654	51.13
761.05	51.13
761.447	51.1
761.843	51.11
762.239	51.09
762.635	51.08
763.031	51.09
763.427	51.07
763.822	51.06
764.218	51.06
764.614	51.05
765.01	51.03
765.405	51.02
765.801	50.98
766.196	50.99
766.592	50.99
766.987	51.01
767.382	51
767.778	51.01
768.173	51.01
768.568	50.98
768.963	50.98
769.358	50.99
769.753	50.99
770.148	51.02
770.542	50.99
770.937	51.01
771.332	50.99
771.726	50.98
772.121	50.97
772.515	50.97
772.91	50.96
773.304	50.98
773.699	50.99
774.093	50.99
774.487	50.98
774.881	51
775.275	50.99
775.669	50.99
776.063	50.98
776.457	50.99
776.851	50.98
777.245	50.96
777.638	50.93
778.032	50.92
778.425	50.95
778.819	50.96
779.212	50.97
779.606	50.99
779.999	50.98
780.392	51
780.786	51.01
781.179	51.04
781.572	51.09
781.965	51.11
782.358	51.13
782.751	51.11
783.143	51.11
783.536	51.11
783.929	51.1
784.322	51.13
784.714	51.15
785.107	51.15
785.499	51.14
785.891	51.11
786.284	51.1
786.676	51.12
787.068	51.12
787.46	51.1
787.852	51.11
788.245	51.11
788.636	51.08
789.028	51.08
789.42	51.05
789.812	51.07
790.204	51.07
790.595	51.07
790.987	51.06
791.378	51.07
791.77	51.08
792.161	51.05
792.553	51.07
792.944	51.08
793.335	51.06
793.726	51.1
794.117	51.06
794.508	51.04
794.899	51.04
795.29	51.04
795.681	51
796.072	50.99
796.463	51.02
796.853	50.99
797.244	50.98
797.634	51
798.025	51
798.415	51.03
798.806	51.06
799.196	51.07
799.586	51.08
799.976	51.1
800.366	51.1
800.756	51.14
801.146	51.15
801.536	51.17
801.926	51.15
802.316	51.13
802.706	51.12
803.095	51.12
803.485	51.09
803.874	51.08
804.264	51.07
804.653	51.09
805.043	51.05
805.432	51.07
805.821	51.08
806.21	51.08
806.599	51.09
806.988	51.09
807.377	51.1
807.766	51.12
808.155	51.1
808.544	51.13
808.933	51.1
809.321	51.08
809.71	51.03
810.098	51.05
810.487	51.05
810.875	51.02
811.264	51.03
811.652	51.02
812.04	51.02
812.428	51.07
812.816	51.05
813.204	51.04
813.592	51.01
813.98	51.04
814.368	51.02
814.756	51.02
815.144	51.02
815.531	51.02
815.919	50.99
816.306	50.98
816.694	50.94
817.081	50.93
817.469	50.93
817.856	50.95
818.243	50.91
818.63	50.89
819.017	50.86
819.404	50.87
819.791	50.85
820.178	50.88
820.565	50.87
820.952	50.88
821.339	50.88
821.725	50.88
822.112	50.9
822.498	50.94
822.885	50.96
823.271	50.99
823.657	50.96
824.044	50.99
824.43	50.95
824.816	50.95
825.202	50.93
825.588	50.94
825.974	50.94
826.36	50.94
826.746	50.94
827.132	50.93
827.517	50.94
827.903	50.97
828.289	50.98
828.674	51
829.06	51.02
829.445	51.05
829.83	51.06
830.216	51.05
830.601	51.02
830.986	51.02
831.371	51
831.756	51
832.141	51
832.526	50.98
832.911	50.98
833.295	50.98
833.68	50.98
834.065	50.98
834.449	50.99
834.834	51.01
835.218	51.02
835.603	51.04
835.987	51.04
836.371	51.03
836.755	51.04
837.139	51.03
837.524	51.01
837.908	51.02
838.291	51.01
838.675	50.99
839.059	50.98
839.443	50.95
839.827	50.92
840.21	50.9
840.594	50.92
840.977	50.91
841.361	50.93
841.744	50.91
842.127	50.9
842.511	50.9
842.894	50.89
843.277	50.91
843.66	50.9
844.043	50.94
844.426	50.95
844.809	50.95
845.191	50.97
845.574	50.96
845.957	50.97
846.339	50.99
846.722	50.99
847.104	51.01
847.487	51
847.869	51.02
848.252	51.02
848.634	51.01
849.016	51.01
849.398	51.01
849.78	51.02
850.162	51.03
850.544	51.01
850.926	51.02
851.307	51.02
851.689	51.02
852.071	51.02
852.452	51
852.834	51.02
853.215	51.02
853.597	51.04
853.978	51.05
854.359	51.05
854.741	51.05
855.122	51.05
855.503	51.03
855.884	51.01
856.265	51.01
856.646	51.03
857.026	51.03
857.407	51.03
857.788	51.02
858.169	51.02
858.549	51.01
858.93	51.02
859.31	51
859.69	51.01
860.071	51.05
860.451	51.04
860.831	51.04
861.211	51.01
861.591	51
861.971	50.99
862.351	51.01
862.731	51.04
863.111	51.01
863.491	51.02
863.87	51.01
864.25	50.97
864.629	51
865.009	51
865.388	51.02
865.768	51.02
866.147	51.01
866.526	50.98
866.905	50.95
867.284	50.97
867.663	50.99
868.042	51.01
868.421	51.03
868.8	51.03
869.179	51.02
869.558	51
869.936	51
870.315	51
870.693	51.02
871.072	51.04
871.45	51.04
871.828	51.02
872.207	51.04
872.585	51.01
872.963	51.01
873.341	51.03
873.719	51.04
874.097	51.03
874.475	51.07
874.853	51.08
875.23	51.09
875.608	51.1
875.986	51.14
876.363	51.13
876.741	51.18
877.118	51.19
877.495	51.2
877.873	51.22
878.25	51.24
878.627	51.23
879.004	51.24
879.381	51.22
879.758	51.2
880.135	51.18
880.512	51.19
880.889	51.18
881.265	51.15
881.642	51.16
882.019	51.16
882.395	51.14
882.772	51.15
883.148	51.12
883.524	51.11
883.901	51.11
884.277	51.11
884.653	51.09
885.029	51.07
885.405	51.08
885.781	51.06
886.157	51.05
886.532	51.06
886.908	51.03
887.284	51.05
887.659	51.03
888.035	51.02
888.411	50.98
888.786	50.99
889.161	51
889.537	51
889.912	51
890.287	51.01
890.662	50.99
891.037	51
891.412	50.98
891.787	50.97
892.162	50.98
892.536	51
892.911	51
893.286	50.98
893.66	50.99
894.035	50.99
894.409	50.98
894.784	50.99
895.158	50.99
895.532	51.02
895.906	51.04
896.281	51.04
896.655	51.03
897.029	51.05
897.402	51.05
897.776	51.06
898.15	51.03
898.524	51.04
898.898	51.04
899.271	51.05
899.645	51.05
900.018	51.08
900.392	51.08
900.765	51.09
901.138	51.07
901.511	51.09
901.884	51.09
902.258	51.11
902.631	51.14
903.003	51.14
903.376	51.13
903.749	51.1
904.122	51.08
904.495	51.1
904.867	51.14
905.24	51.19
905.612	51.19
905.985	51.2
906.357	51.2
906.729	51.16
907.102	51.16
907.474	51.2
907.846	51.23
908.218	51.23
908.59	51.24
908.962	51.21
909.334	51.17
909.705	51.15
910.077	51.15
910.449	51.16
910.82	51.19
911.192	51.17
911.563	51.13
911.935	51.11
912.306	51.13
912.677	51.14
913.048	51.16
913.419	51.18
913.79	51.18
914.161	51.2
914.532	51.2
914.903	51.2
915.274	51.21
915.645	51.25
916.015	51.26
916.386	51.24
916.756	51.24
917.127	51.24
917.497	51.24
917.868	51.25
918.238	51.23
918.608	51.27
918.978	51.27
919.348	51.3
919.718	51.29
920.088	51.28
920.458	51.27
920.828	51.25
921.198	51.24
921.567	51.24
921.937	51.27
922.306	51.25
922.676	51.21
923.045	51.16
923.415	51.13
923.784	51.13
924.153	51.16
924.522	51.17
924.891	51.17
925.26	51.16
925.629	51.13
925.998	51.09
926.367	51.12
926.736	51.1
927.104	51.1
927.473	51.08
927.842	51.01
928.21	51.03
928.578	51.01
928.947	51.02
929.315	50.99
929.683	50.98
930.051	50.94
930.42	50.89
930.788	50.86
931.156	50.89
931.523	50.91
931.891	50.99
932.259	50.98
932.627	50.99
932.994	51
933.362	50.99
933.729	50.99
934.097	51.04
934.464	51.06
934.831	51.12
935.199	51.13
935.566	51.14
935.933	51.06
936.3	51.02
936.667	50.97
937.034	50.97
937.401	51
937.767	51.05
938.134	51.02
938.501	51.08
938.867	51.02
939.234	50.98
939.6	50.93
939.967	50.94
940.333	50.91
940.699	50.99
941.065	50.94
941.431	50.94
941.798	50.88
942.163	50.85
942.529	50.78
942.895	50.8
943.261	50.76
943.627	50.77
943.992	50.79
944.358	50.81
944.723	50.76
945.089	50.73
945.454	50.75
945.82	50.73
946.185	50.73
946.55	50.69
946.915	50.67
947.28	50.7
947.645	50.69
948.01	50.69
948.375	50.67
948.74	50.63
949.104	50.68
949.469	50.6
949.834	50.55
950.198	50.53
950.562	50.55
950.927	50.58
951.291	50.48
951.655	50.45
952.02	50.41
952.384	50.37
952.748	50.36
953.112	50.37
953.476	50.35
953.839	50.34
954.203	50.3
954.567	50.28
954.931	50.19
955.294	50.23
955.658	50.28
956.021	50.26
956.385	50.25
956.748	50.25
957.111	50.21
957.474	50.26
957.837	50.23
958.2	50.23
958.563	50.24
958.926	50.3
959.289	50.31
959.652	50.28
960.015	50.24
960.377	50.21
960.74	50.21
961.102	50.21
961.465	50.24
961.827	50.3
962.189	50.35
962.552	50.33
962.914	50.3
963.276	50.32
963.638	50.31
964	50.34
964.362	50.37
964.724	50.38
965.085	50.37
965.447	50.31
965.809	50.27
966.17	50.23
966.532	50.18
966.893	50.23
967.255	50.2
967.616	50.18
967.977	50.21
968.338	50.24
968.699	50.22
969.061	50.22
969.421	50.22
969.782	50.24
970.143	50.29
970.504	50.34
970.865	50.35
971.225	50.31
971.586	50.34
971.946	50.34
972.307	50.29
972.667	50.28
973.027	50.3
973.388	50.35
973.748	50.36
974.108	50.37
974.468	50.36
974.828	50.33
975.188	50.35
975.548	50.31
975.907	50.34
976.267	50.3
976.627	50.3
976.986	50.26
977.346	50.15
977.705	50.12
978.064	50.11
978.424	50.12
978.783	50.05
979.142	50.1
979.501	50.16
979.86	50.13
980.219	50.18
980.578	50.23
980.937	50.32
981.296	50.38
981.654	50.43
982.013	50.43
982.371	50.46
982.73	50.48
983.088	50.42
983.447	50.36
983.805	50.36
984.163	50.37
984.521	50.35
984.879	50.3
985.237	50.28
985.595	50.31
985.953	50.27
986.311	50.18
986.669	50.24
987.026	50.33
987.384	50.37
987.741	50.36
988.099	50.38
988.456	50.36
988.814	50.39
989.171	50.3
989.528	50.24
989.885	50.25
990.242	50.36
990.599	50.37
990.956	50.39
991.313	50.39
991.67	50.35
992.027	50.39
992.383	50.46
992.74	50.5
993.096	50.57
993.453	50.54
993.809	50.55
994.165	50.61
994.522	50.64
994.878	50.62
995.234	50.63
995.59	50.72
995.946	50.71
996.302	50.73
996.658	50.7
997.013	50.72
997.369	50.82
997.725	50.84
998.08	50.82
998.436	50.78
998.791	50.84
999.147	50.84
999.502	50.87
999.857	50.8
1000.212	50.72
1000.567	50.72
1000.922	50.82
1001.277	50.86
1001.632	50.79
1001.987	50.68
1002.342	50.66
1002.696	50.6
1003.051	50.71
1003.406	50.81
1003.76	50.88
1004.114	50.83
1004.469	50.88
1004.823	51.11
1005.177	51.01
1005.531	51.04
1005.885	51.17
1006.239	51.19
1006.593	51.21
1006.947	51.13
1007.301	51.1
1007.655	51.14
1008.008	51.3
1008.362	51.38
1008.715	51.08
1009.069	51.25
1009.422	51.27
1009.776	51.17
1010.129	51.38
1010.482	51.39
1010.835	51.49
1011.188	51.38
1011.541	51.36
1011.894	51.41
1012.247	51.34
1012.6	51.37
1012.952	51.32
1013.305	51.48
1013.657	51.55
1014.01	51.46
1014.362	51.38
1014.715	51.44
1015.067	51.54
1015.419	51.57
1015.771	51.3
1016.123	51.26
1016.475	51.35
1016.827	51.33
1017.179	51.36
1017.531	51.44
1017.883	51.29
1018.234	51.39
1018.586	51.23
1018.938	51.42
1019.289	51.31
1019.64	51.59
1019.992	51.54
1020.343	51.6
1020.694	51.7
1021.045	51.75
1021.396	51.69
1021.747	51.71
1022.098	51.85
1022.449	51.95
1022.8	51.71
1023.151	51.73
1023.501	51.79
1023.852	52.01
1024.202	51.96
1024.553	51.83
1024.903	51.71
1025.253	51.92
1025.604	52.11
1025.954	51.88
1026.304	52.01
1026.654	52.03
1027.004	52.14
1027.354	52.05
1027.703	51.79
1028.053	51.79
1028.403	51.97
1028.753	51.78
1029.102	51.8
1029.452	51.91
1029.801	52.28
1030.15	52.15
1030.499	52.2
897.758	1118.61
901.051	1127.12
904.343	1121.36
907.636	1142.34
910.928	1111.54
914.22	1114.9
917.511	1102.32
920.803	1050.94
924.094	1049.36
927.384	1026.44
930.675	981.07
933.965	975.73
937.255	918.86
940.544	884.15
943.834	842.18
947.123	837.14
950.411	787.74
953.7	771.32
956.988	736.89
960.276	706.73
963.563	693.71
966.851	672.62
970.138	666.95
973.424	645.9
976.711	649
979.997	617.1
983.283	612.39
986.568	599.24
989.853	581.76
993.138	568.91
996.423	547.04
999.708	532.55
1002.992	526.27
1006.275	502.14
1009.559	498.49
1012.842	479.9
1016.125	469.01
1019.408	460.86
1022.69	454.2
1025.972	444.57
1029.254	435.77
1032.536	428.47
1035.817	419.78
1039.098	416.09
1042.379	407.98
1045.659	403.25
1048.939	393.96
1052.219	386.19
1055.498	379.95
1058.778	371.51
1062.057	364.41
1065.335	360.16
1068.614	355.87
1071.892	352.52
1075.17	340.24
1078.447	334.96
1081.724	332.27
1085.001	331.65
1088.278	324.46
1091.554	318.23
1094.83	318.81
1098.106	315.99
1101.382	314.06
1104.657	312.33
1107.932	306.25
1111.206	309.02
1114.481	300.86
1117.755	298.06
1121.029	294.13
1124.302	294.09
1127.575	288.98
1130.848	285.58
1134.121	282.48
1137.393	280.25
1140.665	273.78
1143.937	273.32
1147.208	271.14
1150.48	270.47
1153.75	267.05
1157.021	264.27
1160.291	263.29
1163.561	260.95
1166.831	260.71
1170.101	258.52
1173.37	258.31
1176.639	259.77
1179.907	256.82
1183.176	253.23
1186.444	253.64
1189.711	253.62
1192.979	252.43
1196.246	251.51
1199.513	251.96
1202.78	250.71
1206.046	250.92
1209.312	248.37
1212.578	248.14
1215.843	250.51
1219.108	249.9
1222.373	253.63
1225.638	255.65
1228.902	258.42
1232.166	259.21
1235.43	261.17
1238.693	264.38
1241.956	265.53
1245.219	269.82
1248.482	270
1251.744	269.87
1255.006	270.12
1258.268	264.66
1261.529	262.06
1264.79	260.99
1268.051	258.7
1271.312	255.84
1274.572	253.11
1277.832	250.75
1281.092	246.21
1284.351	244.39
1287.61	243.72
1290.869	240.68
1294.128	239.2
1297.386	238.67
1300.644	235.87
1303.902	237.39
1307.159	236.45
1310.416	236.08
1313.673	235.37
1316.93	238.52
1320.186	238.07
1323.442	239.39
1326.697	242.69
1329.953	243.13
1333.208	244.32
1336.463	247.27
1339.717	247.04
1342.972	250.13
1346.226	251.56
1349.479	252.87
1352.733	253.85
1355.986	255.48
1359.238	254.73
1362.491	256.26
1365.743	258.68
1368.995	259.32
1372.247	259.18
1375.498	258.69
1378.749	260.31
1382	258.51
1385.251	259.25
1388.501	257.16
1391.751	257.7
1395	257
1398.25	254.99
1401.499	252.83
1404.748	251.91
1407.996	249.92
1411.244	248.85
1414.492	247.13
1417.74	244.2
1420.987	240.43
1424.234	239.93
1427.481	236.93
1430.728	236.32
1433.974	234.02
1437.22	232.23
1440.465	231.36
1443.711	228.37
1446.956	226.97
1450.201	224.36
1453.445	222.6
1456.689	221.95
1459.933	218.3
1463.177	216.74
1466.42	213.05
1469.663	211.08
1472.906	209.8
1476.148	205.36
1479.391	203.12
1482.633	201.68
1485.874	198.91
1489.115	197.46
1492.356	195.31
1495.597	194.96
1498.838	192.34
1502.078	192.06
1505.318	191.13
1508.557	191.03
1511.797	190.41
1515.036	189.82
1518.274	188.96
1521.513	187.63
1524.751	187.7
1527.989	186.72
1531.227	186.49
1534.464	186.52
1537.701	185.15
1540.938	184.81
1544.174	182.77
1547.41	182.82
1550.646	181.85
1553.882	181.92
1557.117	180.11
1560.352	179.1
1563.587	178.88
1566.821	177.33
1570.055	176.1
1573.289	174.96
1576.523	174.54
1579.756	173.78
1582.989	172.85
1586.222	171.85
1589.454	171.05
1592.686	172.13
1595.918	171.1
1599.15	170.37
1602.381	170.83
1605.612	170.61
1608.843	170.71
1612.073	170.97
1615.303	171.54
1618.533	171.18
1621.762	171.82
1624.992	172.45
1628.221	171.8
1631.449	171.92
1634.678	172
1637.906	172.61
1641.134	172.93
1644.361	172.91
1647.588	172.69
1650.815	172.1
1654.042	171.53
1657.269	172.88
1660.495	172.57
1663.72	172.29
1666.946	172.81
1670.171	173.14
1673.396	172.86
1676.621	172.83
1679.845	172.78
1683.069	173.24
1686.293	174.24
1689.517	175.6
1692.74	174.94
1695.963	175.45
1699.185	176.68
1702.408	177.1
1705.63	177.68
1708.852	178.03
1712.073	178.32
1715.294	179.21
1718.515	179.94
1721.736	179.49
1724.956	179.94
1728.176	179.98
1731.396	181.07
1734.616	180.33
1737.835	180.74
1741.054	179.24
1744.272	180.04
1747.491	181.14
1750.709	181.49
1753.927	181.01
1757.144	181.31
1760.361	181.3
1763.578	182.06
1766.795	181.62
1770.011	183.04
1773.227	182.88
1776.443	185.57
1779.658	185.55
1782.874	185.28
1786.089	186
1789.303	186.25
1792.518	188.09
1795.732	188.28
1798.945	189.38
1802.159	189.56
1805.372	190.27
1808.585	193.12
1811.797	193.59
1815.01	194.15
1818.222	195.6
1821.434	196.86
1824.645	197.88
1827.856	200.99
1831.067	202.45
1834.278	201.45
1837.488	203.34
1840.698	204.54
1843.908	202.9
1847.117	203.18
1850.326	204.43
1853.535	203.5
1856.744	206.03
1859.952	205.89
1863.16	203.58
1866.368	202.64
1869.575	204.58
1872.782	201.39
1875.989	200.15
1879.196	198.54
1882.402	197.37
1885.608	197.5
1888.814	197.82
1892.019	196.42
1895.224	195.32
1898.429	194.32
1901.634	194.36
1904.838	194.75
1908.042	196.07
1911.246	196.19
1914.449	197.87
1917.652	197.55
1920.855	197.65
1924.058	197.35
1927.26	196.51
1930.462	196.9
1933.664	199.67
1936.865	197.75
1940.066	197.19
1943.267	196.33
1946.467	195.94
1949.668	197.41
1952.868	200.16
1956.067	199.82
1959.267	199.81
1962.466	200.45
1965.665	199.91
1968.863	200.1
1972.061	203.91
1975.259	205.03
1978.457	207.07
1981.654	209.98
1984.852	210.18
1988.048	209.15
1991.245	210.94
1994.441	214.13
1997.637	216.01
2000.833	220.05
2004.028	222.72
2007.223	223.15
2010.418	225.94
2013.613	229.22
2016.807	231.3
2020.001	233.16
2023.194	237.32
2026.388	243.06
2029.581	247.99
2032.774	249.77
2035.966	255.07
2039.158	255.82
2042.35	261.53
2045.542	263.14
2048.733	267.77
2051.924	270.3
2055.115	275.77
2058.306	276.1
2061.496	278.32
2064.686	278.6
2067.875	283
2071.065	284.35
2074.254	283
2077.442	286.21
2080.631	288.39
2083.819	290.49
2087.007	291.43
2090.195	295.24
2093.382	296.98
2096.569	295.53
2099.756	299.44
2102.942	300.97
2106.128	303.58
2109.314	309.78
2112.5	308.62
2115.685	314.5
2118.87	314.99
2122.055	322.54
2125.239	323.36
2128.424	328.41
2131.608	331.3
2134.791	335.34
2137.974	337.05
2141.157	337.07
2144.34	338.43
2147.523	343.32
2150.705	341.36
2153.887	345.06
2157.068	344.6
2160.25	341.29
2163.431	343
2166.611	346.54
2169.792	353.75
2172.972	357.15
2176.152	359.77
2179.331	364.14
2182.511	370.15
2185.69	373.61
2188.868	380.13
2192.047	381.72
2195.225	393.23
2198.403	401.33
2201.58	407.5
2204.758	416.26
2207.935	424.31
2211.111	432.2
2214.288	437.52
2217.464	438.46
2220.64	446.3
2223.815	451.37
2226.991	469.14
2230.166	468.96
2233.34	478.06
2236.515	487.82
2239.689	487.61
2242.863	488.46
2246.036	502.28
2249.209	499.73
2252.382	508.14
2255.555	523.38
2258.727	525.87
2261.9	529.63
2265.071	535.39
2268.243	543.08
2271.414	547.92
2274.585	558.79
2277.756	567.32
2280.926	569.62
2284.096	583.74
2287.266	595.46
2290.436	598.39
2293.605	613.03
2296.774	627.31
2299.942	650.5
2303.111	655.7
2306.279	670.62
2309.447	679.18
2312.614	695.96
2315.781	718.35
2318.948	747.48
2322.115	738.32
2325.281	777.77
2328.447	761.47
2331.613	792.2
2334.779	780.9
2337.944	813.29
2341.109	820.34
2344.274	843.5
2347.438	872.6
2350.602	869.52
2353.766	897.73
2356.929	911.58
2360.092	904.24
2363.255	969.62
2366.418	969.29
2369.58	988.54
2372.742	1044.15
2375.904	1072.37
2379.066	1066.4
2382.227	1046.38
2385.388	1139.99
2388.548	1135.87
2391.709	1147.82
2394.869	1281.59
2398.029	1225.12
2401.188	1259.64
2404.347	1251.87
2407.506	1240.14
2410.665	1272.11
2413.823	1347.88
2416.981	1428.9
2420.139	1379.73
2423.296	1371
2426.453	1432.37
2429.61	1374.19
2432.767	1440.7
2435.923	1427.47
2439.079	1559.1
2442.235	1573.19
2445.391	1558.55
2448.546	1544.34
2451.701	1497.47
2454.855	1495.24
2458.009	1583.74
2461.163	1642.97
2464.317	1709.99
2467.471	1753.52
2470.624	1752.97
2473.777	1708.56
2476.929	1671.5
2480.082	1627.15
2483.234	1609.94
2486.385	1691.91
2489.537	1699.13
2492.688	1758.42
2495.839	1713.2
2498.989	1670.34
2502.14	1679.78
2505.29	1694.6
2508.439	1721.52
2511.589	1714.62
2514.738	1868.71
2517.887	1825.78
2521.035	1932.19
2524.183	1950.71
2527.331	1969.62
2530.479	1964.01
2533.627	1981.35
