Data from C_1_DIV_OH_2N_Splice17_12-52-02-780.txt Node
Date: Sat Mar 07 12:52:02 EST 2020
User: sa697716
Spectrometer: NQ5500242
Trigger mode: 0
Integration Time (sec): 1.450000E-1
Scans to average: 20
Nonlinearity correction enabled: false
Boxcar width: 5
Storing dark spectrum: false
XAxis mode: Wavelengths
Number of Pixels in Spectrum: 512
>>>>>Begin Spectral Data<<<<<
187.83	127.19
188.298	140.9
188.766	108.79
189.233	85.37
189.701	79.92
190.169	82.33
190.636	44.42
191.104	-146.48
191.571	-551.67
192.039	-552.63
192.506	-1063.63
192.974	268.34
193.441	464.2
193.908	161.6
194.375	44.31
194.842	-59.51
195.31	-94.52
195.777	-339.7
196.244	4.66
196.711	28
197.177	32.9
197.644	33.53
198.111	33.66
198.578	34.15
199.045	34.13
199.511	34.54
199.978	35.02
200.445	35
200.911	34.71
201.378	34.59
201.844	34.53
202.31	33.97
202.777	33.98
203.243	33.94
203.709	33.41
204.176	33.17
204.642	32.85
205.108	32.91
205.574	32.69
206.04	32.23
206.506	31.87
206.972	31.81
207.438	31.69
207.903	31.33
208.369	30.85
208.835	30.34
209.301	30.17
209.766	29.38
210.232	28.36
210.697	27.77
211.163	27.42
211.628	26.9
212.094	26.03
212.559	25.81
213.024	25.11
213.49	24.67
213.955	24.16
214.42	23.42
214.885	22.94
215.35	22.16
215.815	21.12
216.28	19.76
216.745	18.22
217.21	16.89
217.675	15.39
218.14	14.35
218.604	13.35
219.069	12.55
219.534	11.89
219.998	11.31
220.463	10.86
220.927	10.39
221.392	10.04
221.856	9.77
222.32	9.54
222.785	9.35
223.249	9.16
223.713	8.98
224.177	8.83
224.642	8.68
225.106	8.51
225.57	8.35
226.034	8.23
226.497	8.11
226.961	7.97
227.425	7.83
227.889	7.73
228.353	7.61
228.816	7.5
229.28	7.38
229.744	7.29
230.207	7.19
230.671	7.08
231.134	6.99
231.597	6.91
232.061	6.83
232.524	6.76
232.987	6.66
233.45	6.59
233.914	6.51
234.377	6.43
234.84	6.36
235.303	6.3
235.766	6.25
236.229	6.18
236.691	6.13
237.154	6.08
237.617	6.02
238.08	5.98
238.542	5.91
239.005	5.87
239.468	5.82
239.93	5.76
240.393	5.7
240.855	5.64
241.317	5.59
241.78	5.54
242.242	5.47
242.704	5.42
243.166	5.37
243.629	5.33
244.091	5.27
244.553	5.22
245.015	5.18
245.477	5.13
245.939	5.09
246.4	5.05
246.862	5.01
247.324	4.97
247.786	4.93
248.247	4.89
248.709	4.84
249.17	4.79
249.632	4.76
250.093	4.72
250.555	4.69
251.016	4.66
251.477	4.62
251.939	4.59
252.4	4.56
252.861	4.54
253.322	4.5
253.783	4.48
254.244	4.47
254.705	4.45
255.166	4.42
255.627	4.39
256.088	4.37
256.549	4.35
257.009	4.32
257.47	4.29
257.931	4.26
258.391	4.22
258.852	4.19
259.312	4.16
259.773	4.13
260.233	4.1
260.694	4.08
261.154	4.04
261.614	4.02
262.074	3.99
262.534	3.96
262.994	3.94
263.455	3.93
263.915	3.92
264.374	3.89
264.834	3.88
265.294	3.86
265.754	3.84
266.214	3.83
266.673	3.81
267.133	3.8
267.593	3.79
268.052	3.78
268.512	3.77
268.971	3.75
269.431	3.74
269.89	3.73
270.349	3.72
270.809	3.7
271.268	3.7
271.727	3.69
272.186	3.68
272.645	3.67
273.104	3.67
273.563	3.66
274.022	3.65
274.481	3.64
274.94	3.63
275.399	3.62
275.857	3.61
276.316	3.6
276.775	3.59
277.233	3.58
277.692	3.57
278.15	3.56
278.609	3.55
279.067	3.54
279.525	3.53
279.984	3.51
280.442	3.5
280.9	3.5
281.358	3.49
281.816	3.49
282.274	3.49
282.732	3.47
283.19	3.46
283.648	3.45
284.106	3.43
284.564	3.43
285.021	3.43
285.479	3.42
285.937	3.41
286.394	3.4
286.852	3.39
287.309	3.37
287.767	3.36
288.224	3.35
288.682	3.34
289.139	3.33
289.596	3.31
290.053	3.29
290.511	3.28
290.968	3.26
291.425	3.25
291.882	3.23
292.339	3.23
292.796	3.22
293.252	3.21
293.709	3.2
294.166	3.2
294.623	3.19
295.079	3.18
295.536	3.18
295.992	3.17
296.449	3.16
296.905	3.15
297.362	3.14
297.818	3.13
298.274	3.12
298.731	3.11
299.187	3.11
299.643	3.1
300.099	3.09
300.555	3.08
301.011	3.07
301.467	3.07
301.923	3.07
302.379	3.06
302.835	3.06
303.291	3.05
303.746	3.04
304.202	3.04
304.658	3.03
305.113	3.03
305.569	3.03
306.024	3.02
306.479	3.01
306.935	3.01
307.39	3
307.845	3
308.301	3
308.756	3
309.211	2.99
309.666	3
310.121	3
310.576	2.99
311.031	2.99
311.486	2.99
311.94	2.99
312.395	2.99
312.85	2.99
313.305	2.99
313.759	2.99
314.214	2.99
314.668	2.99
315.123	2.99
315.577	2.99
316.032	2.98
316.486	2.97
316.94	2.96
317.394	2.95
317.849	2.94
318.303	2.93
318.757	2.92
319.211	2.91
319.665	2.9
320.119	2.88
320.572	2.87
321.026	2.87
321.48	2.86
321.934	2.85
322.387	2.84
322.841	2.83
323.295	2.83
323.748	2.83
324.202	2.82
324.655	2.82
325.108	2.83
325.562	2.83
326.015	2.83
326.468	2.83
326.921	2.83
327.374	2.83
327.827	2.83
328.28	2.83
328.733	2.82
329.186	2.82
329.639	2.81
330.092	2.8
330.545	2.8
330.997	2.8
331.45	2.8
331.903	2.8
332.355	2.81
332.808	2.81
333.26	2.82
333.713	2.82
334.165	2.82
334.617	2.82
335.069	2.82
335.522	2.82
335.974	2.82
336.426	2.82
336.878	2.81
337.33	2.81
337.782	2.8
338.234	2.8
338.686	2.8
339.137	2.8
339.589	2.79
340.041	2.8
340.493	2.79
340.944	2.78
341.396	2.78
341.847	2.77
342.299	2.75
342.75	2.75
343.201	2.73
343.653	2.73
344.104	2.71
344.555	2.71
345.006	2.69
345.457	2.68
345.908	2.68
346.359	2.68
346.81	2.68
347.261	2.67
347.712	2.67
348.163	2.67
348.613	2.66
349.064	2.67
349.515	2.66
349.965	2.66
350.416	2.66
350.866	2.66
351.317	2.65
351.767	2.65
352.217	2.65
352.668	2.65
353.118	2.65
353.568	2.65
354.018	2.65
354.468	2.65
354.918	2.65
355.368	2.65
355.818	2.66
356.268	2.66
356.718	2.66
357.168	2.66
357.617	2.66
358.067	2.66
358.517	2.68
358.966	2.69
359.416	2.7
359.865	2.7
360.315	2.71
360.764	2.71
361.213	2.71
361.663	2.71
362.112	2.72
362.561	2.73
363.01	2.73
363.459	2.71
363.908	2.72
364.357	2.71
364.806	2.71
365.255	2.71
365.703	2.72
366.152	2.74
366.601	2.74
367.05	2.75
367.498	2.76
367.947	2.77
368.395	2.79
368.844	2.8
369.292	2.81
369.74	2.82
370.189	2.84
370.637	2.84
371.085	2.85
371.533	2.87
371.981	2.87
372.429	2.89
372.877	2.9
373.325	2.91
373.773	2.92
374.221	2.94
374.669	2.95
375.116	2.95
375.564	2.96
376.012	2.98
376.459	2.99
376.907	3.01
377.354	3.03
377.801	3.04
378.249	3.07
378.696	3.08
379.143	3.11
379.591	3.14
380.038	3.17
380.485	3.19
380.932	3.21
381.379	3.24
381.826	3.26
382.273	3.28
382.72	3.3
383.166	3.33
383.613	3.35
384.06	3.37
384.506	3.39
384.953	3.42
385.4	3.45
385.846	3.48
386.292	3.5
386.739	3.52
387.185	3.55
387.631	3.59
388.078	3.61
388.524	3.64
388.97	3.66
389.416	3.7
389.862	3.72
390.308	3.75
390.754	3.79
391.2	3.82
391.645	3.86
392.091	3.9
392.537	3.94
392.983	3.97
393.428	4.01
393.874	4.04
394.319	4.07
394.765	4.1
395.21	4.12
395.655	4.14
396.101	4.17
396.546	4.18
396.991	4.2
397.436	4.22
397.881	4.25
398.326	4.27
398.771	4.29
399.216	4.32
399.661	4.34
400.106	4.36
400.551	4.38
400.995	4.39
401.44	4.4
401.885	4.4
402.329	4.41
402.774	4.43
403.218	4.44
403.663	4.46
404.107	4.46
404.551	4.47
404.995	4.47
405.44	4.47
405.884	4.46
406.328	4.47
406.772	4.48
407.216	4.48
407.66	4.47
408.104	4.46
408.547	4.46
408.991	4.46
409.435	4.46
409.879	4.47
410.322	4.48
410.766	4.51
411.209	4.52
411.653	4.54
412.096	4.55
412.54	4.56
412.983	4.57
413.426	4.6
413.869	4.61
414.312	4.62
414.756	4.63
415.199	4.63
415.642	4.63
416.085	4.63
416.527	4.63
416.97	4.62
417.413	4.63
417.856	4.63
418.298	4.62
418.741	4.62
419.184	4.62
419.626	4.62
420.069	4.64
420.511	4.63
420.953	4.64
421.396	4.65
421.838	4.66
422.28	4.66
422.722	4.67
423.164	4.67
423.606	4.68
424.048	4.69
424.49	4.69
424.932	4.68
425.374	4.67
425.816	4.65
426.258	4.64
426.699	4.64
427.141	4.64
427.582	4.64
428.024	4.66
428.465	4.66
428.907	4.65
429.348	4.63
429.789	4.63
430.231	4.66
430.672	4.67
431.113	4.69
431.554	4.7
431.995	4.71
432.436	4.71
432.877	4.72
433.318	4.74
433.759	4.76
434.2	4.81
434.64	4.83
435.081	4.85
435.522	4.87
435.962	4.88
436.403	4.92
436.843	4.95
437.284	4.95
437.724	4.97
438.164	4.97
438.604	5
439.045	5
439.485	5.02
439.925	5.03
440.365	5.06
440.805	5.09
441.245	5.1
441.685	5.14
442.125	5.2
442.564	5.22
443.004	5.25
443.444	5.28
443.883	5.31
444.323	5.34
444.762	5.37
445.202	5.39
445.641	5.43
446.081	5.46
446.52	5.47
446.959	5.52
447.398	5.55
447.837	5.58
448.276	5.6
448.716	5.65
449.154	5.69
449.593	5.72
450.032	5.74
450.471	5.74
450.91	5.76
451.349	5.79
451.787	5.78
452.226	5.78
452.664	5.8
453.103	5.82
453.541	5.84
453.98	5.85
454.418	5.84
454.856	5.85
455.295	5.86
455.733	5.84
456.171	5.84
456.609	5.85
457.047	5.86
457.485	5.85
457.923	5.84
458.361	5.84
458.798	5.85
459.236	5.85
459.674	5.86
460.111	5.87
460.549	5.89
460.987	5.9
461.424	5.9
461.862	5.92
462.299	5.92
462.736	5.93
463.173	5.94
463.611	5.93
464.048	5.94
464.485	5.94
464.922	5.95
465.359	5.96
465.796	5.97
466.233	5.97
466.67	5.97
467.106	5.99
467.543	5.99
467.98	5.98
468.416	5.97
468.853	5.98
469.29	5.99
469.726	5.99
470.162	5.99
470.599	5.99
471.035	5.98
471.471	5.98
471.907	5.97
472.344	5.97
472.78	5.98
473.216	5.99
473.652	6
474.088	5.98
474.523	5.99
474.959	5.98
475.395	5.98
475.831	5.99
476.266	6
476.702	6
477.138	6.01
477.573	6.01
478.008	6.01
478.444	6.01
478.879	6.02
479.314	6.02
479.75	6.03
480.185	6.02
480.62	6.02
481.055	6.02
481.49	6.02
481.925	6.03
482.36	6.03
482.795	6.03
483.229	6.03
483.664	6.05
484.099	6.05
484.534	6.06
484.968	6.09
485.403	6.11
485.837	6.13
486.271	6.16
486.706	6.18
487.14	6.2
487.574	6.23
488.009	6.26
488.443	6.29
488.877	6.33
489.311	6.37
489.745	6.41
490.179	6.46
490.613	6.5
491.046	6.55
491.48	6.6
491.914	6.67
492.348	6.73
492.781	6.8
493.215	6.87
493.648	6.93
494.082	7.01
494.515	7.08
494.948	7.16
495.382	7.25
495.815	7.35
496.248	7.44
496.681	7.53
497.114	7.62
497.547	7.72
497.98	7.82
498.413	7.93
498.846	8.04
499.279	8.15
499.711	8.27
500.144	8.39
500.577	8.51
501.009	8.64
501.442	8.78
501.874	8.93
502.306	9.07
502.739	9.23
503.171	9.39
503.603	9.55
504.036	9.73
504.468	9.91
504.9	10.09
505.332	10.28
505.764	10.46
506.196	10.64
506.627	10.84
507.059	11.05
507.491	11.25
507.923	11.46
508.354	11.69
508.786	11.9
509.217	12.13
509.649	12.36
510.08	12.6
510.512	12.85
510.943	13.1
511.374	13.33
511.805	13.58
512.237	13.83
512.668	14.08
513.099	14.32
513.53	14.59
513.961	14.85
514.391	15.1
514.822	15.35
515.253	15.6
515.684	15.87
516.114	16.13
516.545	16.39
516.975	16.66
517.406	16.91
517.836	17.17
518.267	17.41
518.697	17.64
519.127	17.89
519.558	18.14
519.988	18.39
520.418	18.6
520.848	18.83
521.278	19.05
521.708	19.39
522.138	19.61
522.567	19.83
522.997	20.03
523.427	20.24
523.857	20.44
524.286	20.61
524.716	20.8
525.145	20.99
525.575	21.16
526.004	21.32
526.433	21.35
526.863	21.49
527.292	21.65
527.721	21.78
528.15	21.93
528.579	22.03
529.008	22.17
529.437	22.27
529.866	22.39
530.295	22.49
530.724	22.59
531.152	22.69
531.581	22.79
532.01	22.87
532.438	22.97
532.867	23.04
533.295	23.12
533.723	23.19
534.152	23.27
534.58	23.31
535.008	23.37
535.436	23.45
535.865	23.48
536.293	23.53
536.721	23.56
537.149	23.59
537.576	23.63
538.004	23.68
538.432	23.71
538.86	23.75
539.287	23.78
539.715	23.82
540.143	23.84
540.57	23.88
540.998	23.91
541.425	23.95
541.852	23.98
542.28	24
542.707	24.04
543.134	24.08
543.561	24.1
543.988	24.13
544.415	24.14
544.842	24.16
545.269	24.17
545.696	24.19
546.123	24.2
546.549	24.24
546.976	24.26
547.403	24.26
547.829	24.26
548.256	24.26
548.682	24.27
549.108	24.3
549.535	24.3
549.961	24.3
550.387	24.3
550.813	24.32
551.24	24.31
551.666	24.3
552.092	24.29
552.518	24.29
552.943	24.27
553.369	24.25
553.795	24.22
554.221	24.2
554.646	24.17
555.072	24.13
555.498	24.09
555.923	24.05
556.349	24
556.774	23.96
557.199	23.92
557.625	23.88
558.05	23.83
558.475	23.77
558.9	23.72
559.325	23.67
559.75	23.61
560.175	23.54
560.6	23.47
561.025	23.4
561.449	23.33
561.874	23.24
562.299	23.15
562.723	23.07
563.148	22.98
563.572	22.89
563.997	22.81
564.421	22.71
564.846	22.61
565.27	22.51
565.694	22.41
566.118	22.29
566.542	22.19
566.966	22.09
567.39	21.99
567.814	21.88
568.238	21.78
568.662	21.65
569.086	21.55
569.509	21.45
569.933	21.34
570.357	21.23
570.78	21.14
571.204	21.04
571.627	20.94
572.05	20.82
572.474	20.72
572.897	20.62
573.32	20.53
573.743	20.42
574.166	20.31
574.589	20.2
575.012	20.1
575.435	20.01
575.858	19.9
576.281	19.8
576.704	19.72
577.126	19.64
577.549	19.54
577.972	19.46
578.394	19.38
578.817	19.3
579.239	19.23
579.661	19.17
580.084	19.1
580.506	19.02
580.928	18.95
581.35	18.88
581.772	18.81
582.194	18.74
582.616	18.68
583.038	18.62
583.46	18.56
583.882	18.51
584.303	18.44
584.725	18.37
585.147	18.32
585.568	18.27
585.99	18.23
586.411	18.16
586.833	18.11
587.254	18.05
587.675	17.99
588.096	17.94
588.518	17.88
588.939	17.84
589.36	17.81
589.781	17.77
590.202	17.73
590.623	17.69
591.043	17.66
591.464	17.64
591.885	17.61
592.305	17.58
592.726	17.57
593.147	17.53
593.567	17.5
593.987	17.46
594.408	17.44
594.828	17.41
595.248	17.38
595.669	17.36
596.089	17.34
596.509	17.31
596.929	17.28
597.349	17.24
597.769	17.21
598.189	17.18
598.608	17.16
599.028	17.13
599.448	17.09
599.867	17.05
600.287	17.03
600.706	16.97
601.126	16.93
601.545	16.9
601.965	16.87
602.384	16.83
602.803	16.77
603.222	16.72
603.641	16.68
604.061	16.63
604.48	16.59
604.898	16.52
605.317	16.48
605.736	16.43
606.155	16.36
606.574	16.29
606.992	16.22
607.411	16.17
607.829	16.07
608.248	15.99
608.666	15.93
609.085	15.86
609.503	15.79
609.921	15.72
610.339	15.65
610.758	15.58
611.176	15.51
611.594	15.44
612.012	15.36
612.43	15.31
612.847	15.25
613.265	15.17
613.683	15.09
614.101	15.04
614.518	14.96
614.936	14.87
615.353	14.8
615.771	14.73
616.188	14.67
616.606	14.61
617.023	14.55
617.44	14.5
617.857	14.45
618.274	14.41
618.691	14.34
619.108	14.3
619.525	14.27
619.942	14.23
620.359	14.19
620.776	14.17
621.192	14.14
621.609	14.12
622.026	14.09
622.442	14.07
622.859	14.04
623.275	14.02
623.691	14
624.108	13.98
624.524	13.96
624.94	13.95
625.356	13.94
625.772	13.91
626.188	13.9
626.604	13.89
627.02	13.87
627.436	13.86
627.852	13.86
628.268	13.86
628.683	13.86
629.099	13.85
629.514	13.83
629.93	13.81
630.345	13.79
630.761	13.76
631.176	13.73
631.591	13.7
632.007	13.66
632.422	13.61
632.837	13.55
633.252	13.49
633.667	13.42
634.082	13.38
634.497	13.32
634.911	13.24
635.326	13.16
635.741	13.09
636.155	13.01
636.57	12.94
636.984	12.84
637.399	12.75
637.813	12.65
638.228	12.54
638.642	12.42
639.056	12.3
639.47	12.2
639.884	12.08
640.298	11.95
640.712	11.84
641.126	11.71
641.54	11.59
641.954	11.47
642.368	11.36
642.781	11.24
643.195	11.13
643.609	11.02
644.022	10.89
644.436	10.79
644.849	10.68
645.262	10.57
645.676	10.47
646.089	10.38
646.502	10.29
646.915	10.21
647.328	10.13
647.741	10.05
648.154	9.98
648.567	9.92
648.98	9.86
649.393	9.81
649.805	9.76
650.218	9.7
650.631	9.66
651.043	9.61
651.456	9.55
651.868	9.5
652.28	9.45
652.693	9.39
653.105	9.33
653.517	9.26
653.929	9.21
654.341	9.14
654.753	9.07
655.165	9
655.577	8.93
655.989	8.85
656.401	8.75
656.813	8.67
657.224	8.57
657.636	8.47
658.047	8.38
658.459	8.26
658.87	8.15
659.282	8.04
659.693	7.92
660.104	7.81
660.515	7.7
660.926	7.6
661.338	7.48
661.749	7.37
662.159	7.26
662.57	7.16
662.981	7.06
663.392	6.97
663.803	6.88
664.213	6.79
664.624	6.7
665.035	6.62
665.445	6.54
665.855	6.47
666.266	6.4
666.676	6.35
667.086	6.27
667.497	6.21
667.907	6.16
668.317	6.11
668.727	6.07
669.137	6.03
669.547	5.99
669.956	5.97
670.366	5.94
670.776	5.92
671.186	5.9
671.595	5.88
672.005	5.87
672.414	5.86
672.824	5.85
673.233	5.85
673.642	5.84
674.052	5.84
674.461	5.83
674.87	5.83
675.279	5.84
675.688	5.85
676.097	5.88
676.506	5.9
676.915	5.93
677.323	5.95
677.732	5.98
678.141	6.03
678.549	6.08
678.958	6.14
679.366	6.2
679.775	6.27
680.183	6.35
680.592	6.44
681	6.55
681.408	6.68
681.816	6.8
682.224	6.95
682.632	7.1
683.04	7.28
683.448	7.47
683.856	7.68
684.264	7.9
684.671	8.14
685.079	8.41
685.487	8.69
685.894	8.99
686.302	9.33
686.709	9.68
687.116	10.04
687.524	10.43
687.931	10.84
688.338	11.27
688.745	11.72
689.152	12.17
689.559	12.64
689.966	13.11
690.373	13.6
690.78	14.08
691.187	14.57
691.593	15.06
692	15.54
692.407	16.03
692.813	16.53
693.22	17.01
693.626	17.51
694.032	17.99
694.439	18.47
694.845	18.94
695.251	19.42
695.657	19.88
696.063	20.34
696.469	20.79
696.875	21.24
697.281	21.68
697.687	22.11
698.093	22.52
698.498	22.93
698.904	23.31
699.31	23.71
699.715	24.09
700.12	24.46
700.526	24.84
700.931	25.21
701.337	25.54
701.742	25.85
702.147	26.18
702.552	26.51
702.957	26.81
703.362	27.1
703.767	27.39
704.172	27.67
704.577	27.94
704.981	28.2
705.386	28.46
705.791	28.71
706.195	28.99
706.6	29.25
707.004	29.49
707.408	29.74
707.813	30.01
708.217	30.24
708.621	30.48
709.025	30.69
709.43	30.9
709.834	31.11
710.237	31.31
710.641	31.49
711.045	31.67
711.449	31.86
711.853	32.04
712.256	32.19
712.66	32.34
713.064	32.49
713.467	32.67
713.87	32.83
714.274	32.98
714.677	33.15
715.08	33.3
715.484	33.45
715.887	33.61
716.29	33.74
716.693	33.9
717.096	34.07
717.499	34.21
717.901	34.35
718.304	34.48
718.707	34.59
719.109	34.73
719.512	34.85
719.915	34.97
720.317	35.06
720.719	35.15
721.122	35.26
721.524	35.35
721.926	35.46
722.328	35.55
722.731	35.65
723.133	35.75
723.535	35.83
723.937	35.93
724.338	36.03
724.74	36.13
725.142	36.28
725.544	36.35
725.945	36.44
726.347	36.51
726.748	36.58
727.15	36.64
727.551	36.72
727.952	36.79
728.354	36.84
728.755	36.88
729.156	36.92
729.557	36.91
729.958	36.95
730.359	37
730.76	37.06
731.161	37.1
731.562	37.17
731.962	37.18
732.363	37.23
732.763	37.29
733.164	37.32
733.564	37.39
733.965	37.41
734.365	37.45
734.766	37.48
735.166	37.49
735.566	37.53
735.966	37.55
736.366	37.59
736.766	37.6
737.166	37.62
737.566	37.65
737.966	37.63
738.365	37.67
738.765	37.72
739.165	37.73
739.564	37.78
739.964	37.79
740.363	37.81
740.763	37.82
741.162	37.85
741.561	37.86
741.96	37.85
742.36	37.88
742.759	37.9
743.158	37.89
743.557	37.9
743.955	37.9
744.354	37.92
744.753	37.93
745.152	37.96
745.55	37.97
745.949	37.97
746.348	38
746.746	38.01
747.144	38.04
747.543	38.04
747.941	38.07
748.339	38.05
748.737	38.04
749.136	38.05
749.534	38.05
749.932	38.04
750.33	38.04
750.727	38.06
751.125	38.07
751.523	38.04
751.921	38.05
752.318	38.04
752.716	38.07
753.113	38.07
753.511	38.07
753.908	38.11
754.305	38.12
754.703	38.11
755.1	38.07
755.497	38.08
755.894	38.09
756.291	38.09
756.688	38.07
757.085	38.05
757.482	38.05
757.878	38.06
758.275	38.01
758.672	38.01
759.068	38.03
759.465	38.05
759.861	38.05
760.258	38.06
760.654	38.05
761.05	38.07
761.447	38.08
761.843	38.08
762.239	38.1
762.635	38.12
763.031	38.13
763.427	38.11
763.822	38.13
764.218	38.14
764.614	38.14
765.01	38.14
765.405	38.15
765.801	38.12
766.196	38.12
766.592	38.1
766.987	38.11
767.382	38.09
767.778	38.11
768.173	38.1
768.568	38.09
768.963	38.1
769.358	38.1
769.753	38.1
770.148	38.11
770.542	38.12
770.937	38.13
771.332	38.12
771.726	38.13
772.121	38.11
772.515	38.1
772.91	38.08
773.304	38.07
773.699	38.05
774.093	38.03
774.487	38.03
774.881	38.03
775.275	38.01
775.669	38
776.063	37.97
776.457	37.98
776.851	37.98
777.245	37.98
777.638	37.98
778.032	38
778.425	38.03
778.819	38.01
779.212	38.02
779.606	38.02
779.999	38.05
780.392	38.07
780.786	38.06
781.179	38.07
781.572	38.08
781.965	38.08
782.358	38.07
782.751	38.06
783.143	38.07
783.536	38.05
783.929	38.04
784.322	38.02
784.714	38.01
785.107	38.03
785.499	38.02
785.891	38.01
786.284	38.01
786.676	38
787.068	37.99
787.46	38
787.852	38.01
788.245	38.02
788.636	38
789.028	38.01
789.42	37.98
789.812	37.98
790.204	37.96
790.595	37.97
790.987	37.96
791.378	38
791.77	38.01
792.161	38
792.553	38
792.944	38
793.335	38.02
793.726	38.02
794.117	38
794.508	38
794.899	37.98
795.29	37.98
795.681	37.95
796.072	37.9
796.463	37.9
796.853	37.88
797.244	37.88
797.634	37.83
798.025	37.83
798.415	37.85
798.806	37.85
799.196	37.85
799.586	37.85
799.976	37.88
800.366	37.88
800.756	37.89
801.146	37.92
801.536	37.93
801.926	37.94
802.316	37.94
802.706	37.94
803.095	37.94
803.485	37.95
803.874	37.95
804.264	37.94
804.653	37.95
805.043	37.93
805.432	37.93
805.821	37.92
806.21	37.92
806.599	37.89
806.988	37.91
807.377	37.91
807.766	37.91
808.155	37.91
808.544	37.93
808.933	37.94
809.321	37.95
809.71	37.96
810.098	37.95
810.487	37.96
810.875	38
811.264	37.99
811.652	38.02
812.04	37.99
812.428	38
812.816	37.96
813.204	37.95
813.592	37.91
813.98	37.91
814.368	37.9
814.756	37.89
815.144	37.86
815.531	37.86
815.919	37.84
816.306	37.88
816.694	37.87
817.081	37.88
817.469	37.88
817.856	37.89
818.243	37.87
818.63	37.87
819.017	37.87
819.404	37.88
819.791	37.87
820.178	37.87
820.565	37.84
820.952	37.82
821.339	37.82
821.725	37.82
822.112	37.86
822.498	37.89
822.885	37.93
823.271	37.92
823.657	37.9
824.044	37.88
824.43	37.89
824.816	37.91
825.202	37.9
825.588	37.9
825.974	37.88
826.36	37.85
826.746	37.82
827.132	37.79
827.517	37.82
827.903	37.82
828.289	37.85
828.674	37.84
829.06	37.83
829.445	37.84
829.83	37.84
830.216	37.85
830.601	37.85
830.986	37.84
831.371	37.84
831.756	37.85
832.141	37.85
832.526	37.84
832.911	37.84
833.295	37.84
833.68	37.84
834.065	37.85
834.449	37.84
834.834	37.83
835.218	37.84
835.603	37.82
835.987	37.8
836.371	37.78
836.755	37.76
837.139	37.76
837.524	37.75
837.908	37.76
838.291	37.76
838.675	37.76
839.059	37.77
839.443	37.78
839.827	37.78
840.21	37.77
840.594	37.8
840.977	37.8
841.361	37.79
841.744	37.78
842.127	37.76
842.511	37.74
842.894	37.76
843.277	37.72
843.66	37.7
844.043	37.72
844.426	37.72
844.809	37.72
845.191	37.72
845.574	37.74
845.957	37.78
846.339	37.79
846.722	37.79
847.104	37.77
847.487	37.79
847.869	37.8
848.252	37.79
848.634	37.81
849.016	37.81
849.398	37.84
849.78	37.84
850.162	37.79
850.544	37.79
850.926	37.81
851.307	37.82
851.689	37.82
852.071	37.86
852.452	37.86
852.834	37.86
853.215	37.85
853.597	37.86
853.978	37.86
854.359	37.89
854.741	37.9
855.122	37.88
855.503	37.87
855.884	37.87
856.265	37.84
856.646	37.81
857.026	37.81
857.407	37.8
857.788	37.77
858.169	37.77
858.549	37.75
858.93	37.74
859.31	37.76
859.69	37.77
860.071	37.79
860.451	37.79
860.831	37.82
861.211	37.8
861.591	37.8
861.971	37.81
862.351	37.82
862.731	37.82
863.111	37.82
863.491	37.82
863.87	37.81
864.25	37.79
864.629	37.79
865.009	37.8
865.388	37.8
865.768	37.82
866.147	37.82
866.526	37.8
866.905	37.8
867.284	37.81
867.663	37.8
868.042	37.8
868.421	37.81
868.8	37.8
869.179	37.79
869.558	37.8
869.936	37.76
870.315	37.75
870.693	37.75
871.072	37.76
871.45	37.75
871.828	37.75
872.207	37.75
872.585	37.74
872.963	37.74
873.341	37.73
873.719	37.74
874.097	37.75
874.475	37.77
874.853	37.77
875.23	37.78
875.608	37.78
875.986	37.82
876.363	37.83
876.741	37.86
877.118	37.87
877.495	37.89
877.873	37.9
878.25	37.94
878.627	37.95
879.004	37.96
879.381	37.96
879.758	37.95
880.135	37.93
880.512	37.91
880.889	37.9
881.265	37.89
881.642	37.89
882.019	37.89
882.395	37.87
882.772	37.85
883.148	37.83
883.524	37.82
883.901	37.82
884.277	37.81
884.653	37.81
885.029	37.81
885.405	37.8
885.781	37.79
886.157	37.78
886.532	37.79
886.908	37.8
887.284	37.81
887.659	37.79
888.035	37.78
888.411	37.78
888.786	37.79
889.161	37.79
889.537	37.8
889.912	37.79
890.287	37.78
890.662	37.75
891.037	37.74
891.412	37.74
891.787	37.74
892.162	37.74
892.536	37.75
892.911	37.73
893.286	37.74
893.66	37.71
894.035	37.72
894.409	37.71
894.784	37.71
895.158	37.7
895.532	37.69
895.906	37.68
896.281	37.67
896.655	37.66
897.029	37.67
897.402	37.65
897.776	37.68
898.15	37.67
898.524	37.69
898.898	37.7
899.271	37.72
899.645	37.72
900.018	37.73
900.392	37.75
900.765	37.73
901.138	37.74
901.511	37.75
901.884	37.75
902.258	37.76
902.631	37.76
903.003	37.78
903.376	37.76
903.749	37.76
904.122	37.8
904.495	37.83
904.867	37.86
905.24	37.86
905.612	37.87
905.985	37.85
906.357	37.85
906.729	37.85
907.102	37.84
907.474	37.88
907.846	37.9
908.218	37.88
908.59	37.86
908.962	37.85
909.334	37.84
909.705	37.83
910.077	37.85
910.449	37.85
910.82	37.84
911.192	37.83
911.563	37.79
911.935	37.73
912.306	37.73
912.677	37.74
913.048	37.74
913.419	37.73
913.79	37.72
914.161	37.71
914.532	37.72
914.903	37.73
915.274	37.7
915.645	37.71
916.015	37.74
916.386	37.74
916.756	37.71
917.127	37.71
917.497	37.71
917.868	37.72
918.238	37.72
918.608	37.73
918.978	37.72
919.348	37.74
919.718	37.76
920.088	37.76
920.458	37.76
920.828	37.75
921.198	37.71
921.567	37.73
921.937	37.73
922.306	37.73
922.676	37.72
923.045	37.69
923.415	37.68
923.784	37.62
924.153	37.61
924.522	37.63
924.891	37.64
925.26	37.66
925.629	37.65
925.998	37.63
926.367	37.63
926.736	37.62
927.104	37.64
927.473	37.62
927.842	37.64
928.21	37.67
928.578	37.64
928.947	37.63
929.315	37.64
929.683	37.64
930.051	37.62
930.42	37.6
930.788	37.57
931.156	37.55
931.523	37.57
931.891	37.6
932.259	37.59
932.627	37.58
932.994	37.58
933.362	37.57
933.729	37.57
934.097	37.58
934.464	37.63
934.831	37.62
935.199	37.65
935.566	37.65
935.933	37.57
936.3	37.56
936.667	37.56
937.034	37.59
937.401	37.61
937.767	37.62
938.134	37.62
938.501	37.59
938.867	37.63
939.234	37.62
939.6	37.61
939.967	37.68
940.333	37.64
940.699	37.68
941.065	37.63
941.431	37.6
941.798	37.55
942.163	37.54
942.529	37.49
942.895	37.49
943.261	37.45
943.627	37.44
943.992	37.44
944.358	37.44
944.723	37.39
945.089	37.35
945.454	37.37
945.82	37.39
946.185	37.38
946.55	37.34
946.915	37.29
947.28	37.27
947.645	37.26
948.01	37.21
948.375	37.2
948.74	37.19
949.104	37.25
949.469	37.19
949.834	37.15
950.198	37.13
950.562	37.15
950.927	37.14
951.291	37.1
951.655	37.08
952.02	37.11
952.384	37.08
952.748	37.06
953.112	36.98
953.476	36.97
953.839	36.95
954.203	36.9
954.567	36.85
954.931	36.83
955.294	36.8
955.658	36.85
956.021	36.78
956.385	36.78
956.748	36.76
957.111	36.78
957.474	36.83
957.837	36.82
958.2	36.83
958.563	36.87
958.926	36.88
959.289	36.93
959.652	36.91
960.015	36.92
960.377	36.9
960.74	36.9
961.102	36.93
961.465	36.92
961.827	36.95
962.189	36.99
962.552	36.96
962.914	36.98
963.276	37
963.638	36.94
964	36.93
964.362	36.97
964.724	36.94
965.085	36.88
965.447	36.87
965.809	36.85
966.17	36.82
966.532	36.83
966.893	36.85
967.255	36.83
967.616	36.85
967.977	36.88
968.338	36.81
968.699	36.85
969.061	36.87
969.421	36.85
969.782	36.84
970.143	36.84
970.504	36.84
970.865	36.85
971.225	36.8
971.586	36.83
971.946	36.81
972.307	36.88
972.667	36.84
973.027	36.88
973.388	36.86
973.748	36.87
974.108	36.91
974.468	36.86
974.828	36.83
975.188	36.85
975.548	36.83
975.907	36.83
976.267	36.75
976.627	36.77
976.986	36.73
977.346	36.71
977.705	36.67
978.064	36.64
978.424	36.71
978.783	36.71
979.142	36.66
979.501	36.66
979.86	36.71
980.219	36.72
980.578	36.76
980.937	36.81
981.296	36.81
981.654	36.85
982.013	36.85
982.371	36.85
982.73	36.83
983.088	36.93
983.447	36.9
983.805	36.92
984.163	36.95
984.521	36.93
984.879	36.83
985.237	36.9
985.595	37.02
985.953	37.06
986.311	36.99
986.669	37.03
987.026	36.95
987.384	37.04
987.741	36.98
988.099	36.97
988.456	36.92
988.814	36.95
989.171	36.97
989.528	36.86
989.885	36.77
990.242	36.86
990.599	36.83
990.956	36.9
991.313	36.91
991.67	36.99
992.027	37.05
992.383	37.08
992.74	37.19
993.096	37.12
993.453	37.16
993.809	37.23
994.165	37.2
994.522	37.19
994.878	37.21
995.234	37.22
995.59	37.13
995.946	37.11
996.302	37.15
996.658	37.02
997.013	37.11
997.369	37.14
997.725	37.25
998.08	37.24
998.436	37.33
998.791	37.29
999.147	37.23
999.502	37.27
999.857	37.33
1000.212	37.34
1000.567	37.46
1000.922	37.4
1001.277	37.34
1001.632	37.2
1001.987	37.29
1002.342	37.29
1002.696	37.28
1003.051	37.37
1003.406	37.48
1003.76	37.47
1004.114	37.43
1004.469	37.46
1004.823	37.71
1005.177	37.73
1005.531	37.81
1005.885	37.74
1006.239	37.67
1006.593	37.72
1006.947	37.79
1007.301	37.74
1007.655	37.69
1008.008	37.76
1008.362	37.8
1008.715	37.6
1009.069	37.8
1009.422	37.77
1009.776	37.84
1010.129	37.94
1010.482	38
1010.835	37.86
1011.188	37.99
1011.541	38.05
1011.894	38.17
1012.247	38.19
1012.6	38.1
1012.952	37.92
1013.305	38
1013.657	38.14
1014.01	38.12
1014.362	38.06
1014.715	38.18
1015.067	38.1
1015.419	38.25
1015.771	38.11
1016.123	38.09
1016.475	38.31
1016.827	38.43
1017.179	38.37
1017.531	38.32
1017.883	38.33
1018.234	38.4
1018.586	38.39
1018.938	38.71
1019.289	38.6
1019.64	38.64
1019.992	38.47
1020.343	38.33
1020.694	38.27
1021.045	38.49
1021.396	38.55
1021.747	38.74
1022.098	38.76
1022.449	38.69
1022.8	38.47
1023.151	38.36
1023.501	38.55
1023.852	38.86
1024.202	38.94
1024.553	38.92
1024.903	38.82
1025.253	38.85
1025.604	38.67
1025.954	38.66
1026.304	38.92
1026.654	38.93
1027.004	39.04
1027.354	38.99
1027.703	38.67
1028.053	38.81
1028.403	39.17
1028.753	38.96
1029.102	38.94
1029.452	39.06
1029.801	39.27
1030.15	39.09
1030.499	39.01
897.758	1023.99
901.051	1034.99
904.343	1031.04
907.636	1048.47
910.928	1019.16
914.22	1021.81
917.511	1007.51
920.803	962.16
924.094	957.98
927.384	937.51
930.675	899.92
933.965	897.44
937.255	842.23
940.544	809.86
943.834	770.31
947.123	764.97
950.411	719.42
953.7	704.08
956.988	671.44
960.276	646.3
963.563	634.98
966.851	613.13
970.138	608.73
973.424	590.54
976.711	592.99
979.997	563.98
983.283	561.01
986.568	549.57
989.853	533.17
993.138	521.52
996.423	500.16
999.708	487.59
1002.992	480.71
1006.275	457.56
1009.559	454.55
1012.842	439.1
1016.125	428.75
1019.408	420.83
1022.69	414.51
1025.972	405.51
1029.254	397.4
1032.536	390.99
1035.817	383.23
1039.098	380.27
1042.379	372.53
1045.659	367.88
1048.939	357.73
1052.219	351.78
1055.498	347.37
1058.778	339.96
1062.057	333.68
1065.335	329.23
1068.614	325.49
1071.892	321.85
1075.17	311.44
1078.447	306.42
1081.724	304.14
1085.001	302.75
1088.278	295.45
1091.554	288.94
1094.83	289.59
1098.106	286.75
1101.382	284.76
1104.657	283.39
1107.932	278.45
1111.206	280.49
1114.481	273.23
1117.755	270.49
1121.029	267.96
1124.302	268.31
1127.575	263.37
1130.848	259.95
1134.121	257.55
1137.393	255.76
1140.665	249.27
1143.937	247.97
1147.208	246.2
1150.48	245.53
1153.75	243.32
1157.021	240.43
1160.291	240.57
1163.561	238.08
1166.831	238.1
1170.101	236.09
1173.37	236.42
1176.639	237.86
1179.907	235.68
1183.176	232.63
1186.444	233.2
1189.711	232.36
1192.979	230.39
1196.246	228.64
1199.513	230.51
1202.78	229.26
1206.046	229.23
1209.312	226.71
1212.578	226.68
1215.843	228.16
1219.108	227.16
1222.373	231.14
1225.638	232.6
1228.902	236.81
1232.166	238.13
1235.43	238.58
1238.693	241.57
1241.956	242.7
1245.219	246.1
1248.482	246.16
1251.744	246.09
1255.006	246.01
1258.268	240.64
1261.529	238.77
1264.79	237.21
1268.051	234.72
1271.312	232.26
1274.572	229.65
1277.832	227.96
1281.092	224.26
1284.351	223.15
1287.61	223.4
1290.869	220.97
1294.128	219.48
1297.386	218.88
1300.644	217.11
1303.902	217.76
1307.159	216.44
1310.416	216.25
1313.673	215.45
1316.93	218.05
1320.186	217.35
1323.442	217.74
1326.697	221.08
1329.953	221.41
1333.208	222.7
1336.463	224.36
1339.717	224.8
1342.972	227.73
1346.226	229.89
1349.479	231.21
1352.733	231.73
1355.986	233.2
1359.238	232.8
1362.491	233.55
1365.743	236.27
1368.995	235.8
1372.247	236.21
1375.498	235.7
1378.749	237.41
1382	234.61
1385.251	234.55
1388.501	233.13
1391.751	233.31
1395	232.29
1398.25	230.84
1401.499	228.34
1404.748	228.02
1407.996	225.37
1411.244	224.19
1414.492	222.83
1417.74	219.9
1420.987	217.53
1424.234	216.37
1427.481	213.58
1430.728	213.46
1433.974	211.76
1437.22	209.81
1440.465	209.08
1443.711	207.2
1446.956	205.91
1450.201	202.63
1453.445	201.56
1456.689	200.16
1459.933	197.46
1463.177	196.18
1466.42	192.57
1469.663	189.82
1472.906	188.92
1476.148	184.43
1479.391	182.28
1482.633	181.03
1485.874	179
1489.115	177.24
1492.356	175.38
1495.597	174.95
1498.838	172.07
1502.078	171.7
1505.318	171.23
1508.557	171.14
1511.797	171.55
1515.036	170.33
1518.274	169.43
1521.513	168.75
1524.751	168.54
1527.989	168.18
1531.227	167.4
1534.464	168.28
1537.701	166.99
1540.938	166.61
1544.174	165.01
1547.41	164.55
1550.646	164.13
1553.882	164.54
1557.117	162.64
1560.352	161.63
1563.587	161.38
1566.821	160.39
1570.055	159.05
1573.289	157.82
1576.523	158
1579.756	156.35
1582.989	155.87
1586.222	155.89
1589.454	154.45
1592.686	155.21
1595.918	154.56
1599.15	153.97
1602.381	154.52
1605.612	154.29
1608.843	155.04
1612.073	154.37
1615.303	155.75
1618.533	155.36
1621.762	155.27
1624.992	155.94
1628.221	155.59
1631.449	155.37
1634.678	155.64
1637.906	156.1
1641.134	156.22
1644.361	155.85
1647.588	155.85
1650.815	155.39
1654.042	154.68
1657.269	155.95
1660.495	155.76
1663.72	155.93
1666.946	156.75
1670.171	156.8
1673.396	156.38
1676.621	156.6
1679.845	156.89
1683.069	157.21
1686.293	157.93
1689.517	159.02
1692.74	158.33
1695.963	158.68
1699.185	159.78
1702.408	159.42
1705.63	160.48
1708.852	161.15
1712.073	160.84
1715.294	161.38
1718.515	162.14
1721.736	162
1724.956	162.11
1728.176	162.18
1731.396	163.46
1734.616	162.98
1737.835	164.21
1741.054	162.14
1744.272	162.33
1747.491	163.88
1750.709	164.15
1753.927	164.07
1757.144	163.85
1760.361	164.45
1763.578	165.21
1766.795	164.42
1770.011	165.11
1773.227	165.26
1776.443	167.53
1779.658	168.04
1782.874	167.54
1786.089	168.28
1789.303	168.65
1792.518	170.82
1795.732	170.55
1798.945	171.7
1802.159	172.27
1805.372	173.07
1808.585	175.19
1811.797	175.6
1815.01	175.97
1818.222	177.56
1821.434	178.37
1824.645	179.11
1827.856	181.25
1831.067	182.89
1834.278	182.46
1837.488	184.26
1840.698	184.97
1843.908	183.5
1847.117	184.68
1850.326	185.73
1853.535	184.85
1856.744	187.59
1859.952	187.1
1863.16	185.64
1866.368	184.11
1869.575	185.38
1872.782	182.44
1875.989	181.45
1879.196	180.48
1882.402	178.92
1885.608	179.16
1888.814	179.01
1892.019	177.78
1895.224	177.41
1898.429	176.86
1901.634	177.41
1904.838	177.19
1908.042	178.52
1911.246	179.19
1914.449	180.54
1917.652	180.38
1920.855	180.15
1924.058	180.04
1927.26	179.28
1930.462	179.75
1933.664	181.64
1936.865	180.61
1940.066	180.64
1943.267	179.23
1946.467	178.89
1949.668	180.28
1952.868	182.05
1956.067	182.04
1959.267	183.28
1962.466	183.64
1965.665	182.95
1968.863	182.57
1972.061	185.45
1975.259	186.47
1978.457	188.89
1981.654	190.94
1984.852	190.96
1988.048	190.46
1991.245	192.51
1994.441	194.25
1997.637	195.58
2000.833	199.07
2004.028	201.88
2007.223	202.91
2010.418	205.14
2013.613	208.2
2016.807	210.15
2020.001	212.2
2023.194	215.94
2026.388	220.38
2029.581	224.72
2032.774	227.41
2035.966	231.77
2039.158	232.21
2042.35	236.7
2045.542	238.33
2048.733	241.73
2051.924	245.51
2055.115	249.64
2058.306	250.14
2061.496	252.42
2064.686	253.17
2067.875	256.38
2071.065	258.25
2074.254	257.4
2077.442	260.02
2080.631	261.47
2083.819	264.21
2087.007	264.44
2090.195	266.94
2093.382	269.05
2096.569	267.72
2099.756	272.84
2102.942	274.68
2106.128	276
2109.314	282.31
2112.5	281.78
2115.685	287.61
2118.87	288.49
2122.055	294.17
2125.239	296.36
2128.424	301.31
2131.608	302.5
2134.791	305.51
2137.974	306.72
2141.157	307.9
2144.34	308.92
2147.523	313.99
2150.705	312.39
2153.887	315.6
2157.068	315.69
2160.25	312.77
2163.431	314.55
2166.611	319.16
2169.792	323.78
2172.972	327.45
2176.152	329.22
2179.331	333.67
2182.511	338.25
2185.69	340.78
2188.868	346.95
2192.047	348.11
2195.225	359.09
2198.403	366.19
2201.58	372.11
2204.758	378.57
2207.935	386.49
2211.111	394.7
2214.288	399.49
2217.464	400.5
2220.64	409.59
2223.815	413.34
2226.991	430.01
2230.166	429.91
2233.34	436.37
2236.515	445.56
2239.689	446.5
2242.863	446.96
2246.036	459.4
2249.209	455.75
2252.382	463.57
2255.555	475.54
2258.727	477.87
2261.9	482.13
2265.071	487.34
2268.243	494.8
2271.414	499.05
2274.585	509.99
2277.756	517.37
2280.926	522.3
2284.096	534.72
2287.266	545.31
2290.436	548.86
2293.605	561.96
2296.774	576.13
2299.942	591.46
2303.111	597.25
2306.279	610.18
2309.447	618.65
2312.614	634.94
2315.781	650.17
2318.948	678.19
2322.115	669.89
2325.281	709.39
2328.447	695.4
2331.613	719.39
2334.779	714.87
2337.944	747.74
2341.109	754.09
2344.274	775.59
2347.438	798.26
2350.602	797.86
2353.766	825.49
2356.929	838.93
2360.092	824.67
2363.255	883.77
2366.418	886.59
2369.58	904.96
2372.742	952.69
2375.904	979.08
2379.066	974.83
2382.227	961.57
2385.388	1041.44
2388.548	1041.13
2391.709	1051.5
2394.869	1179.22
2398.029	1128.64
2401.188	1159.23
2404.347	1151.86
2407.506	1137.51
2410.665	1167
2413.823	1236.26
2416.981	1308.17
2420.139	1267.06
2423.296	1253.12
2426.453	1307.62
2429.61	1256.32
2432.767	1315.35
2435.923	1303.4
2439.079	1420.05
2442.235	1439.85
2445.391	1428
2448.546	1416.19
2451.701	1375.14
2454.855	1374.68
2458.009	1451.43
2461.163	1517.44
2464.317	1573.04
2467.471	1612.28
2470.624	1606.85
2473.777	1566.42
2476.929	1532.27
2480.082	1486.78
2483.234	1470.48
2486.385	1545.3
2489.537	1552.06
2492.688	1609.43
2495.839	1563.08
2498.989	1528.06
2502.14	1536.14
2505.29	1554.09
2508.439	1581.05
2511.589	1572.47
2514.738	1713.23
2517.887	1673.36
2521.035	1760.75
2524.183	1780.15
2527.331	1796.63
2530.479	1784.21
2533.627	1798.73
