Data from C_1_DIV_IL_4n_Splice17_12-39-39-283.txt Node
Date: Sat Mar 07 12:39:39 EST 2020
User: sa697716
Spectrometer: NQ5500242
Trigger mode: 0
Integration Time (sec): 1.450000E-1
Scans to average: 20
Nonlinearity correction enabled: false
Boxcar width: 5
Storing dark spectrum: false
XAxis mode: Wavelengths
Number of Pixels in Spectrum: 512
>>>>>Begin Spectral Data<<<<<
187.83	80.02
188.298	102.17
188.766	79.57
189.233	66.7
189.701	65.93
190.169	65.96
190.636	52.95
191.104	12.49
191.571	-248.94
192.039	-70.7
192.506	-683.08
192.974	222.76
193.441	481.61
193.908	152.28
194.375	58.89
194.842	16.42
195.31	-22.14
195.777	-146.07
196.244	26.12
196.711	34.18
197.177	37.62
197.644	37.67
198.111	37.59
198.578	37.9
199.045	38.89
199.511	39.06
199.978	39.24
200.445	39.39
200.911	39.55
201.378	39.72
201.844	39.95
202.31	39.9
202.777	39.83
203.243	39.88
203.709	39.59
204.176	39.28
204.642	39.38
205.108	39.67
205.574	39.59
206.04	39.55
206.506	39.11
206.972	38.78
207.438	38.41
207.903	38.07
208.369	37.63
208.835	37.19
209.301	36.49
209.766	35.65
210.232	34.45
210.697	33.83
211.163	33.09
211.628	32.54
212.094	31.84
212.559	31.53
213.024	31.02
213.49	30.4
213.955	29.75
214.42	29.17
214.885	28.56
215.35	27.88
215.815	26.71
216.28	25.28
216.745	23.84
217.21	22.56
217.675	21.18
218.14	20.09
218.604	19.16
219.069	18.41
219.534	17.83
219.998	17.29
220.463	16.82
220.927	16.36
221.392	16.04
221.856	15.75
222.32	15.47
222.785	15.24
223.249	15.01
223.713	14.8
224.177	14.6
224.642	14.37
225.106	14.16
225.57	13.97
226.034	13.83
226.497	13.67
226.961	13.51
227.425	13.36
227.889	13.2
228.353	13.07
228.816	12.91
229.28	12.76
229.744	12.64
230.207	12.49
230.671	12.36
231.134	12.22
231.597	12.09
232.061	11.97
232.524	11.84
232.987	11.72
233.45	11.61
233.914	11.49
234.377	11.39
234.84	11.28
235.303	11.19
235.766	11.08
236.229	10.97
236.691	10.86
237.154	10.75
237.617	10.67
238.08	10.56
238.542	10.45
239.005	10.37
239.468	10.25
239.93	10.17
240.393	10.08
240.855	9.99
241.317	9.92
241.78	9.83
242.242	9.75
242.704	9.66
243.166	9.59
243.629	9.52
244.091	9.43
244.553	9.36
245.015	9.27
245.477	9.19
245.939	9.13
246.4	9.06
246.862	9
247.324	8.93
247.786	8.87
248.247	8.8
248.709	8.74
249.17	8.67
249.632	8.62
250.093	8.57
250.555	8.51
251.016	8.46
251.477	8.41
251.939	8.36
252.4	8.32
252.861	8.27
253.322	8.24
253.783	8.2
254.244	8.18
254.705	8.15
255.166	8.11
255.627	8.07
256.088	8.03
256.549	7.98
257.009	7.93
257.47	7.89
257.931	7.85
258.391	7.81
258.852	7.77
259.312	7.73
259.773	7.69
260.233	7.67
260.694	7.63
261.154	7.59
261.614	7.58
262.074	7.55
262.534	7.51
262.994	7.49
263.455	7.45
263.915	7.43
264.374	7.41
264.834	7.39
265.294	7.36
265.754	7.36
266.214	7.34
266.673	7.32
267.133	7.32
267.593	7.31
268.052	7.31
268.512	7.31
268.971	7.3
269.431	7.28
269.89	7.27
270.349	7.26
270.809	7.24
271.268	7.23
271.727	7.22
272.186	7.21
272.645	7.2
273.104	7.18
273.563	7.16
274.022	7.14
274.481	7.14
274.94	7.13
275.399	7.1
275.857	7.09
276.316	7.07
276.775	7.06
277.233	7.04
277.692	7.02
278.15	7.01
278.609	7
279.067	6.98
279.525	6.96
279.984	6.93
280.442	6.92
280.9	6.9
281.358	6.89
281.816	6.87
282.274	6.85
282.732	6.83
283.19	6.8
283.648	6.78
284.106	6.75
284.564	6.73
285.021	6.71
285.479	6.69
285.937	6.67
286.394	6.64
286.852	6.62
287.309	6.6
287.767	6.58
288.224	6.55
288.682	6.53
289.139	6.51
289.596	6.48
290.053	6.46
290.511	6.43
290.968	6.42
291.425	6.39
291.882	6.38
292.339	6.35
292.796	6.34
293.252	6.32
293.709	6.3
294.166	6.29
294.623	6.28
295.079	6.26
295.536	6.24
295.992	6.22
296.449	6.2
296.905	6.19
297.362	6.17
297.818	6.15
298.274	6.13
298.731	6.12
299.187	6.1
299.643	6.07
300.099	6.06
300.555	6.05
301.011	6.04
301.467	6.03
301.923	6.01
302.379	6
302.835	5.99
303.291	5.97
303.746	5.95
304.202	5.94
304.658	5.93
305.113	5.91
305.569	5.89
306.024	5.88
306.479	5.86
306.935	5.83
307.39	5.82
307.845	5.81
308.301	5.81
308.756	5.8
309.211	5.78
309.666	5.77
310.121	5.77
310.576	5.76
311.031	5.75
311.486	5.73
311.94	5.73
312.395	5.72
312.85	5.72
313.305	5.71
313.759	5.71
314.214	5.7
314.668	5.69
315.123	5.68
315.577	5.66
316.032	5.65
316.486	5.64
316.94	5.63
317.394	5.61
317.849	5.58
318.303	5.57
318.757	5.54
319.211	5.53
319.665	5.51
320.119	5.49
320.572	5.48
321.026	5.47
321.48	5.45
321.934	5.44
322.387	5.43
322.841	5.41
323.295	5.4
323.748	5.39
324.202	5.37
324.655	5.36
325.108	5.35
325.562	5.34
326.015	5.33
326.468	5.33
326.921	5.32
327.374	5.32
327.827	5.31
328.28	5.3
328.733	5.3
329.186	5.3
329.639	5.3
330.092	5.29
330.545	5.28
330.997	5.27
331.45	5.27
331.903	5.26
332.355	5.26
332.808	5.26
333.26	5.25
333.713	5.24
334.165	5.22
334.617	5.23
335.069	5.22
335.522	5.22
335.974	5.22
336.426	5.19
336.878	5.18
337.33	5.17
337.782	5.17
338.234	5.17
338.686	5.16
339.137	5.17
339.589	5.15
340.041	5.14
340.493	5.13
340.944	5.11
341.396	5.11
341.847	5.1
342.299	5.08
342.75	5.06
343.201	5.05
343.653	5.04
344.104	5.03
344.555	5.01
345.006	5
345.457	4.99
345.908	4.98
346.359	4.98
346.81	4.98
347.261	4.97
347.712	4.96
348.163	4.95
348.613	4.95
349.064	4.94
349.515	4.94
349.965	4.93
350.416	4.92
350.866	4.92
351.317	4.9
351.767	4.9
352.217	4.89
352.668	4.89
353.118	4.89
353.568	4.88
354.018	4.88
354.468	4.88
354.918	4.87
355.368	4.87
355.818	4.87
356.268	4.86
356.718	4.86
357.168	4.85
357.617	4.85
358.067	4.84
358.517	4.85
358.966	4.85
359.416	4.85
359.865	4.85
360.315	4.86
360.764	4.86
361.213	4.86
361.663	4.85
362.112	4.86
362.561	4.86
363.01	4.87
363.459	4.85
363.908	4.84
364.357	4.84
364.806	4.84
365.255	4.84
365.703	4.85
366.152	4.84
366.601	4.85
367.05	4.85
367.498	4.85
367.947	4.86
368.395	4.88
368.844	4.89
369.292	4.89
369.74	4.9
370.189	4.9
370.637	4.91
371.085	4.9
371.533	4.9
371.981	4.91
372.429	4.92
372.877	4.93
373.325	4.94
373.773	4.95
374.221	4.96
374.669	4.98
375.116	4.99
375.564	4.99
376.012	5.02
376.459	5.05
376.907	5.07
377.354	5.1
377.801	5.13
378.249	5.16
378.696	5.18
379.143	5.21
379.591	5.25
380.038	5.28
380.485	5.33
380.932	5.37
381.379	5.41
381.826	5.45
382.273	5.48
382.72	5.51
383.166	5.55
383.613	5.59
384.06	5.62
384.506	5.66
384.953	5.71
385.4	5.75
385.846	5.79
386.292	5.82
386.739	5.84
387.185	5.89
387.631	5.94
388.078	5.98
388.524	6.02
388.97	6.06
389.416	6.11
389.862	6.14
390.308	6.18
390.754	6.23
391.2	6.27
391.645	6.31
392.091	6.35
392.537	6.39
392.983	6.43
393.428	6.49
393.874	6.52
394.319	6.56
394.765	6.59
395.21	6.62
395.655	6.64
396.101	6.67
396.546	6.71
396.991	6.73
397.436	6.75
397.881	6.78
398.326	6.8
398.771	6.82
399.216	6.83
399.661	6.86
400.106	6.87
400.551	6.88
400.995	6.88
401.44	6.88
401.885	6.89
402.329	6.9
402.774	6.89
403.218	6.9
403.663	6.9
404.107	6.91
404.551	6.9
404.995	6.9
405.44	6.89
405.884	6.88
406.328	6.89
406.772	6.87
407.216	6.87
407.66	6.87
408.104	6.85
408.547	6.85
408.991	6.85
409.435	6.84
409.879	6.84
410.322	6.85
410.766	6.85
411.209	6.86
411.653	6.87
412.096	6.87
412.54	6.87
412.983	6.87
413.426	6.89
413.869	6.89
414.312	6.9
414.756	6.92
415.199	6.92
415.642	6.92
416.085	6.92
416.527	6.9
416.97	6.89
417.413	6.89
417.856	6.89
418.298	6.87
418.741	6.87
419.184	6.85
419.626	6.84
420.069	6.83
420.511	6.82
420.953	6.81
421.396	6.83
421.838	6.83
422.28	6.83
422.722	6.84
423.164	6.83
423.606	6.83
424.048	6.83
424.49	6.83
424.932	6.82
425.374	6.8
425.816	6.77
426.258	6.74
426.699	6.74
427.141	6.71
427.582	6.7
428.024	6.7
428.465	6.7
428.907	6.68
429.348	6.66
429.789	6.66
430.231	6.68
430.672	6.7
431.113	6.71
431.554	6.71
431.995	6.73
432.436	6.72
432.877	6.71
433.318	6.71
433.759	6.74
434.2	6.76
434.64	6.78
435.081	6.78
435.522	6.78
435.962	6.79
436.403	6.82
436.843	6.83
437.284	6.84
437.724	6.85
438.164	6.86
438.604	6.86
439.045	6.87
439.485	6.88
439.925	6.9
440.365	6.92
440.805	6.93
441.245	6.94
441.685	6.96
442.125	6.99
442.564	7.01
443.004	7.03
443.444	7.04
443.883	7.06
444.323	7.07
444.762	7.09
445.202	7.1
445.641	7.13
446.081	7.16
446.52	7.18
446.959	7.21
447.398	7.24
447.837	7.28
448.276	7.3
448.716	7.33
449.154	7.37
449.593	7.4
450.032	7.42
450.471	7.43
450.91	7.43
451.349	7.46
451.787	7.46
452.226	7.46
452.664	7.47
453.103	7.47
453.541	7.47
453.98	7.47
454.418	7.46
454.856	7.47
455.295	7.47
455.733	7.46
456.171	7.46
456.609	7.46
457.047	7.44
457.485	7.44
457.923	7.44
458.361	7.43
458.798	7.44
459.236	7.44
459.674	7.44
460.111	7.43
460.549	7.44
460.987	7.44
461.424	7.44
461.862	7.45
462.299	7.46
462.736	7.46
463.173	7.47
463.611	7.47
464.048	7.47
464.485	7.48
464.922	7.48
465.359	7.49
465.796	7.49
466.233	7.49
466.67	7.5
467.106	7.5
467.543	7.5
467.98	7.5
468.416	7.49
468.853	7.49
469.29	7.49
469.726	7.5
470.162	7.49
470.599	7.5
471.035	7.5
471.471	7.49
471.907	7.49
472.344	7.49
472.78	7.49
473.216	7.49
473.652	7.49
474.088	7.47
474.523	7.47
474.959	7.47
475.395	7.46
475.831	7.46
476.266	7.46
476.702	7.46
477.138	7.46
477.573	7.46
478.008	7.47
478.444	7.47
478.879	7.48
479.314	7.48
479.75	7.47
480.185	7.46
480.62	7.45
481.055	7.45
481.49	7.45
481.925	7.45
482.36	7.46
482.795	7.46
483.229	7.46
483.664	7.48
484.099	7.49
484.534	7.51
484.968	7.54
485.403	7.56
485.837	7.59
486.271	7.62
486.706	7.66
487.14	7.68
487.574	7.72
488.009	7.75
488.443	7.79
488.877	7.83
489.311	7.87
489.745	7.92
490.179	7.97
490.613	8.03
491.046	8.08
491.48	8.14
491.914	8.2
492.348	8.27
492.781	8.35
493.215	8.42
493.648	8.51
494.082	8.6
494.515	8.68
494.948	8.77
495.382	8.86
495.815	8.97
496.248	9.08
496.681	9.19
497.114	9.3
497.547	9.42
497.98	9.54
498.413	9.66
498.846	9.79
499.279	9.93
499.711	10.07
500.144	10.22
500.577	10.37
501.009	10.53
501.442	10.69
501.874	10.87
502.306	11.04
502.739	11.23
503.171	11.43
503.603	11.64
504.036	11.86
504.468	12.08
504.9	12.29
505.332	12.52
505.764	12.77
506.196	13.02
506.627	13.29
507.059	13.55
507.491	13.82
507.923	14.1
508.354	14.38
508.786	14.66
509.217	14.96
509.649	15.26
510.08	15.58
510.512	15.88
510.943	16.19
511.374	16.5
511.805	16.82
512.237	17.13
512.668	17.46
513.099	17.8
513.53	18.14
513.961	18.47
514.391	18.81
514.822	19.16
515.253	19.5
515.684	19.83
516.114	20.18
516.545	20.53
516.975	20.9
517.406	21.24
517.836	21.57
518.267	21.92
518.697	22.25
519.127	22.57
519.558	22.9
519.988	23.22
520.418	23.53
520.848	23.85
521.278	24.15
521.708	24.54
522.138	24.85
522.567	25.14
522.997	25.41
523.427	25.68
523.857	25.96
524.286	26.19
524.716	26.43
525.145	26.68
525.575	26.91
526.004	27.13
526.433	27.24
526.863	27.44
527.292	27.64
527.721	27.82
528.15	28.01
528.579	28.2
529.008	28.37
529.437	28.53
529.866	28.68
530.295	28.83
530.724	28.97
531.152	29.1
531.581	29.24
532.01	29.34
532.438	29.47
532.867	29.58
533.295	29.67
533.723	29.77
534.152	29.86
534.58	29.96
535.008	30.01
535.436	30.09
535.865	30.15
536.293	30.22
536.721	30.28
537.149	30.34
537.576	30.38
538.004	30.44
538.432	30.48
538.86	30.52
539.287	30.56
539.715	30.62
540.143	30.67
540.57	30.7
540.998	30.73
541.425	30.76
541.852	30.8
542.28	30.84
542.707	30.89
543.134	30.91
543.561	30.97
543.988	31
544.415	31.01
544.842	31.03
545.269	31.07
545.696	31.09
546.123	31.11
546.549	31.13
546.976	31.14
547.403	31.16
547.829	31.17
548.256	31.16
548.682	31.17
549.108	31.18
549.535	31.18
549.961	31.19
550.387	31.18
550.813	31.19
551.24	31.19
551.666	31.18
552.092	31.17
552.518	31.17
552.943	31.15
553.369	31.11
553.795	31.08
554.221	31.06
554.646	31
555.072	30.96
555.498	30.9
555.923	30.83
556.349	30.76
556.774	30.69
557.199	30.6
557.625	30.52
558.05	30.45
558.475	30.39
558.9	30.3
559.325	30.22
559.75	30.12
560.175	30.02
560.6	29.92
561.025	29.84
561.449	29.72
561.874	29.6
562.299	29.49
562.723	29.36
563.148	29.19
563.572	29.04
563.997	28.91
564.421	28.76
564.846	28.61
565.27	28.46
565.694	28.28
566.118	28.13
566.542	27.98
566.966	27.81
567.39	27.65
567.814	27.5
568.238	27.34
568.662	27.18
569.086	27.02
569.509	26.89
569.933	26.73
570.357	26.57
570.78	26.39
571.204	26.22
571.627	26.06
572.05	25.89
572.474	25.75
572.897	25.61
573.32	25.46
573.743	25.31
574.166	25.17
574.589	25.02
575.012	24.89
575.435	24.77
575.858	24.65
576.281	24.53
576.704	24.41
577.126	24.29
577.549	24.18
577.972	24.05
578.394	23.93
578.817	23.81
579.239	23.7
579.661	23.59
580.084	23.49
580.506	23.39
580.928	23.29
581.35	23.21
581.772	23.09
582.194	22.99
582.616	22.89
583.038	22.79
583.46	22.69
583.882	22.6
584.303	22.51
584.725	22.4
585.147	22.32
585.568	22.23
585.99	22.13
586.411	22.06
586.833	21.99
587.254	21.91
587.675	21.86
588.096	21.79
588.518	21.73
588.939	21.68
589.36	21.63
589.781	21.57
590.202	21.53
590.623	21.49
591.043	21.43
591.464	21.38
591.885	21.34
592.305	21.3
592.726	21.26
593.147	21.22
593.567	21.17
593.987	21.12
594.408	21.08
594.828	21.05
595.248	21.01
595.669	20.98
596.089	20.95
596.509	20.92
596.929	20.88
597.349	20.84
597.769	20.82
598.189	20.77
598.608	20.73
599.028	20.69
599.448	20.64
599.867	20.59
600.287	20.54
600.706	20.48
601.126	20.44
601.545	20.39
601.965	20.33
602.384	20.27
602.803	20.22
603.222	20.17
603.641	20.12
604.061	20.04
604.48	19.98
604.898	19.9
605.317	19.83
605.736	19.75
606.155	19.67
606.574	19.58
606.992	19.49
607.411	19.4
607.829	19.29
608.248	19.17
608.666	19.08
609.085	18.99
609.503	18.9
609.921	18.79
610.339	18.7
610.758	18.61
611.176	18.52
611.594	18.44
612.012	18.33
612.43	18.25
612.847	18.16
613.265	18.07
613.683	17.98
614.101	17.89
614.518	17.8
614.936	17.71
615.353	17.62
615.771	17.53
616.188	17.44
616.606	17.37
617.023	17.29
617.44	17.24
617.857	17.17
618.274	17.1
618.691	17.04
619.108	16.98
619.525	16.91
619.942	16.86
620.359	16.81
620.776	16.75
621.192	16.72
621.609	16.68
622.026	16.64
622.442	16.6
622.859	16.57
623.275	16.54
623.691	16.52
624.108	16.49
624.524	16.48
624.94	16.47
625.356	16.46
625.772	16.44
626.188	16.43
626.604	16.42
627.02	16.42
627.436	16.42
627.852	16.42
628.268	16.41
628.683	16.4
629.099	16.39
629.514	16.38
629.93	16.36
630.345	16.33
630.761	16.28
631.176	16.23
631.591	16.18
632.007	16.12
632.422	16.05
632.837	15.99
633.252	15.92
633.667	15.84
634.082	15.74
634.497	15.65
634.911	15.56
635.326	15.47
635.741	15.37
636.155	15.26
636.57	15.15
636.984	15.04
637.399	14.91
637.813	14.77
638.228	14.63
638.642	14.48
639.056	14.32
639.47	14.19
639.884	14.04
640.298	13.89
640.712	13.73
641.126	13.59
641.54	13.42
641.954	13.28
642.368	13.15
642.781	13
643.195	12.86
643.609	12.73
644.022	12.58
644.436	12.45
644.849	12.31
645.262	12.19
645.676	12.06
646.089	11.96
646.502	11.85
646.915	11.75
647.328	11.67
647.741	11.58
648.154	11.51
648.567	11.44
648.98	11.37
649.393	11.3
649.805	11.25
650.218	11.18
650.631	11.12
651.043	11.06
651.456	11.01
651.868	10.95
652.28	10.89
652.693	10.83
653.105	10.77
653.517	10.72
653.929	10.64
654.341	10.58
654.753	10.5
655.165	10.43
655.577	10.34
655.989	10.25
656.401	10.16
656.813	10.07
657.224	9.97
657.636	9.85
658.047	9.74
658.459	9.63
658.87	9.51
659.282	9.39
659.693	9.28
660.104	9.16
660.515	9.05
660.926	8.94
661.338	8.82
661.749	8.71
662.159	8.61
662.57	8.51
662.981	8.41
663.392	8.32
663.803	8.24
664.213	8.16
664.624	8.07
665.035	7.98
665.445	7.91
665.855	7.85
666.266	7.79
666.676	7.74
667.086	7.68
667.497	7.63
667.907	7.59
668.317	7.57
668.727	7.53
669.137	7.51
669.547	7.49
669.956	7.48
670.366	7.46
670.776	7.44
671.186	7.43
671.595	7.43
672.005	7.43
672.414	7.42
672.824	7.41
673.233	7.42
673.642	7.43
674.052	7.44
674.461	7.46
674.87	7.48
675.279	7.5
675.688	7.53
676.097	7.56
676.506	7.59
676.915	7.63
677.323	7.67
677.732	7.71
678.141	7.76
678.549	7.82
678.958	7.88
679.366	7.95
679.775	8.01
680.183	8.09
680.592	8.2
681	8.32
681.408	8.44
681.816	8.57
682.224	8.73
682.632	8.89
683.04	9.07
683.448	9.28
683.856	9.49
684.264	9.74
684.671	10.01
685.079	10.27
685.487	10.58
685.894	10.93
686.302	11.29
686.709	11.69
687.116	12.12
687.524	12.56
687.931	13.03
688.338	13.53
688.745	14.07
689.152	14.61
689.559	15.2
689.966	15.77
690.373	16.37
690.78	17
691.187	17.63
691.593	18.29
692	18.95
692.407	19.6
692.813	20.27
693.22	20.93
693.626	21.61
694.032	22.3
694.439	22.98
694.845	23.66
695.251	24.32
695.657	24.97
696.063	25.64
696.469	26.29
696.875	26.95
697.281	27.59
697.687	28.24
698.093	28.86
698.498	29.45
698.904	30.06
699.31	30.62
699.715	31.19
700.12	31.75
700.526	32.29
700.931	32.82
701.337	33.34
701.742	33.84
702.147	34.34
702.552	34.83
702.957	35.29
703.362	35.74
703.767	36.21
704.172	36.66
704.577	37.08
704.981	37.5
705.386	37.92
705.791	38.33
706.195	38.74
706.6	39.13
707.004	39.52
707.408	39.91
707.813	40.29
708.217	40.66
708.621	41.03
709.025	41.38
709.43	41.7
709.834	42.04
710.237	42.37
710.641	42.69
711.045	43
711.449	43.3
711.853	43.62
712.256	43.9
712.66	44.18
713.064	44.46
713.467	44.76
713.87	45.04
714.274	45.3
714.677	45.57
715.08	45.82
715.484	46.1
715.887	46.36
716.29	46.58
716.693	46.84
717.096	47.07
717.499	47.31
717.901	47.51
718.304	47.76
718.707	47.98
719.109	48.2
719.512	48.43
719.915	48.61
720.317	48.8
720.719	48.98
721.122	49.14
721.524	49.34
721.926	49.52
722.328	49.73
722.731	49.89
723.133	50.08
723.535	50.23
723.937	50.38
724.338	50.51
724.74	50.68
725.142	50.89
725.544	51.05
725.945	51.2
726.347	51.3
726.748	51.4
727.15	51.49
727.551	51.61
727.952	51.72
728.354	51.84
728.755	51.94
729.156	52
729.557	52.05
729.958	52.13
730.359	52.21
730.76	52.32
731.161	52.4
731.562	52.5
731.962	52.54
732.363	52.61
732.763	52.64
733.164	52.73
733.564	52.78
733.965	52.84
734.365	52.9
734.766	52.96
735.166	53.01
735.566	53.06
735.966	53.11
736.366	53.15
736.766	53.18
737.166	53.25
737.566	53.29
737.966	53.35
738.365	53.4
738.765	53.44
739.165	53.47
739.564	53.52
739.964	53.54
740.363	53.58
740.763	53.63
741.162	53.67
741.561	53.67
741.96	53.68
742.36	53.71
742.759	53.69
743.158	53.71
743.557	53.69
743.955	53.71
744.354	53.73
744.753	53.74
745.152	53.8
745.55	53.81
745.949	53.84
746.348	53.87
746.746	53.87
747.144	53.89
747.543	53.9
747.941	53.96
748.339	53.95
748.737	53.97
749.136	53.95
749.534	53.93
749.932	53.97
750.33	54
750.727	54.03
751.125	54.07
751.523	54.09
751.921	54.1
752.318	54.11
752.716	54.11
753.113	54.13
753.511	54.16
753.908	54.19
754.305	54.18
754.703	54.16
755.1	54.16
755.497	54.16
755.894	54.15
756.291	54.15
756.688	54.12
757.085	54.13
757.482	54.12
757.878	54.11
758.275	54.09
758.672	54.09
759.068	54.11
759.465	54.1
759.861	54.1
760.258	54.11
760.654	54.12
761.05	54.14
761.447	54.17
761.843	54.16
762.239	54.16
762.635	54.13
763.031	54.1
763.427	54.07
763.822	54.09
764.218	54.07
764.614	54.05
765.01	54.02
765.405	54
765.801	53.95
766.196	53.94
766.592	53.9
766.987	53.9
767.382	53.92
767.778	53.9
768.173	53.88
768.568	53.88
768.963	53.89
769.358	53.91
769.753	53.9
770.148	53.92
770.542	53.97
770.937	53.99
771.332	54
771.726	54
772.121	54.01
772.515	54
772.91	54
773.304	53.98
773.699	53.96
774.093	53.93
774.487	53.89
774.881	53.9
775.275	53.87
775.669	53.87
776.063	53.85
776.457	53.84
776.851	53.81
777.245	53.79
777.638	53.79
778.032	53.8
778.425	53.87
778.819	53.88
779.212	53.85
779.606	53.86
779.999	53.86
780.392	53.87
780.786	53.9
781.179	53.93
781.572	53.97
781.965	53.97
782.358	53.96
782.751	53.93
783.143	53.94
783.536	53.93
783.929	53.93
784.322	53.95
784.714	53.94
785.107	53.94
785.499	53.9
785.891	53.88
786.284	53.9
786.676	53.91
787.068	53.92
787.46	53.91
787.852	53.9
788.245	53.91
788.636	53.87
789.028	53.87
789.42	53.84
789.812	53.87
790.204	53.9
790.595	53.88
790.987	53.86
791.378	53.88
791.77	53.9
792.161	53.9
792.553	53.91
792.944	53.93
793.335	53.97
793.726	54
794.117	54.01
794.508	53.98
794.899	53.97
795.29	53.98
795.681	53.91
796.072	53.92
796.463	53.89
796.853	53.87
797.244	53.83
797.634	53.8
798.025	53.8
798.415	53.78
798.806	53.76
799.196	53.78
799.586	53.76
799.976	53.78
800.366	53.78
800.756	53.8
801.146	53.83
801.536	53.84
801.926	53.82
802.316	53.81
802.706	53.84
803.095	53.85
803.485	53.81
803.874	53.83
804.264	53.84
804.653	53.84
805.043	53.85
805.432	53.8
805.821	53.85
806.21	53.86
806.599	53.84
806.988	53.84
807.377	53.82
807.766	53.83
808.155	53.79
808.544	53.82
808.933	53.81
809.321	53.78
809.71	53.81
810.098	53.76
810.487	53.74
810.875	53.71
811.264	53.69
811.652	53.69
812.04	53.69
812.428	53.69
812.816	53.66
813.204	53.66
813.592	53.65
813.98	53.61
814.368	53.63
814.756	53.64
815.144	53.64
815.531	53.61
815.919	53.61
816.306	53.58
816.694	53.57
817.081	53.57
817.469	53.56
817.856	53.53
818.243	53.51
818.63	53.46
819.017	53.45
819.404	53.42
819.791	53.45
820.178	53.45
820.565	53.44
820.952	53.45
821.339	53.46
821.725	53.45
822.112	53.49
822.498	53.53
822.885	53.56
823.271	53.56
823.657	53.56
824.044	53.55
824.43	53.57
824.816	53.59
825.202	53.57
825.588	53.56
825.974	53.57
826.36	53.56
826.746	53.51
827.132	53.53
827.517	53.54
827.903	53.58
828.289	53.58
828.674	53.55
829.06	53.55
829.445	53.55
829.83	53.56
830.216	53.54
830.601	53.55
830.986	53.58
831.371	53.53
831.756	53.53
832.141	53.5
832.526	53.5
832.911	53.51
833.295	53.53
833.68	53.55
834.065	53.55
834.449	53.55
834.834	53.53
835.218	53.55
835.603	53.58
835.987	53.59
836.371	53.58
836.755	53.58
837.139	53.56
837.524	53.54
837.908	53.55
838.291	53.57
838.675	53.58
839.059	53.58
839.443	53.55
839.827	53.53
840.21	53.5
840.594	53.51
840.977	53.5
841.361	53.52
841.744	53.51
842.127	53.49
842.511	53.44
842.894	53.44
843.277	53.44
843.66	53.43
844.043	53.44
844.426	53.44
844.809	53.44
845.191	53.44
845.574	53.43
845.957	53.44
846.339	53.45
846.722	53.46
847.104	53.46
847.487	53.44
847.869	53.45
848.252	53.43
848.634	53.45
849.016	53.47
849.398	53.5
849.78	53.51
850.162	53.48
850.544	53.46
850.926	53.48
851.307	53.48
851.689	53.52
852.071	53.52
852.452	53.55
852.834	53.53
853.215	53.5
853.597	53.47
853.978	53.47
854.359	53.48
854.741	53.48
855.122	53.48
855.503	53.46
855.884	53.42
856.265	53.4
856.646	53.38
857.026	53.42
857.407	53.44
857.788	53.45
858.169	53.46
858.549	53.47
858.93	53.45
859.31	53.42
859.69	53.44
860.071	53.48
860.451	53.48
860.831	53.49
861.211	53.43
861.591	53.4
861.971	53.38
862.351	53.37
862.731	53.36
863.111	53.37
863.491	53.37
863.87	53.35
864.25	53.3
864.629	53.31
865.009	53.29
865.388	53.31
865.768	53.32
866.147	53.31
866.526	53.32
866.905	53.32
867.284	53.31
867.663	53.33
868.042	53.33
868.421	53.37
868.8	53.38
869.179	53.39
869.558	53.38
869.936	53.38
870.315	53.38
870.693	53.37
871.072	53.36
871.45	53.38
871.828	53.39
872.207	53.42
872.585	53.38
872.963	53.37
873.341	53.35
873.719	53.38
874.097	53.37
874.475	53.37
874.853	53.39
875.23	53.39
875.608	53.38
875.986	53.41
876.363	53.38
876.741	53.39
877.118	53.39
877.495	53.4
877.873	53.42
878.25	53.48
878.627	53.49
879.004	53.49
879.381	53.49
879.758	53.48
880.135	53.46
880.512	53.45
880.889	53.47
881.265	53.48
881.642	53.48
882.019	53.46
882.395	53.43
882.772	53.4
883.148	53.38
883.524	53.39
883.901	53.4
884.277	53.37
884.653	53.35
885.029	53.32
885.405	53.31
885.781	53.3
886.157	53.29
886.532	53.28
886.908	53.28
887.284	53.27
887.659	53.24
888.035	53.24
888.411	53.24
888.786	53.26
889.161	53.29
889.537	53.29
889.912	53.31
890.287	53.32
890.662	53.31
891.037	53.32
891.412	53.32
891.787	53.29
892.162	53.29
892.536	53.3
892.911	53.27
893.286	53.27
893.66	53.25
894.035	53.23
894.409	53.21
894.784	53.23
895.158	53.22
895.532	53.23
895.906	53.26
896.281	53.23
896.655	53.23
897.029	53.25
897.402	53.23
897.776	53.25
898.15	53.24
898.524	53.26
898.898	53.24
899.271	53.25
899.645	53.26
900.018	53.28
900.392	53.31
900.765	53.35
901.138	53.33
901.511	53.34
901.884	53.34
902.258	53.36
902.631	53.36
903.003	53.4
903.376	53.4
903.749	53.39
904.122	53.41
904.495	53.41
904.867	53.39
905.24	53.41
905.612	53.43
905.985	53.4
906.357	53.39
906.729	53.4
907.102	53.36
907.474	53.38
907.846	53.38
908.218	53.32
908.59	53.32
908.962	53.34
909.334	53.36
909.705	53.34
910.077	53.36
910.449	53.39
910.82	53.37
911.192	53.38
911.563	53.35
911.935	53.33
912.306	53.36
912.677	53.38
913.048	53.39
913.419	53.37
913.79	53.36
914.161	53.38
914.532	53.32
914.903	53.32
915.274	53.32
915.645	53.34
916.015	53.36
916.386	53.35
916.756	53.33
917.127	53.32
917.497	53.31
917.868	53.3
918.238	53.27
918.608	53.34
918.978	53.35
919.348	53.37
919.718	53.36
920.088	53.39
920.458	53.39
920.828	53.36
921.198	53.32
921.567	53.33
921.937	53.36
922.306	53.35
922.676	53.27
923.045	53.24
923.415	53.23
923.784	53.24
924.153	53.23
924.522	53.24
924.891	53.22
925.26	53.24
925.629	53.23
925.998	53.2
926.367	53.24
926.736	53.25
927.104	53.27
927.473	53.22
927.842	53.15
928.21	53.13
928.578	53.09
928.947	53.13
929.315	53.1
929.683	53.1
930.051	53.06
930.42	53.01
930.788	52.99
931.156	52.95
931.523	52.94
931.891	52.97
932.259	52.92
932.627	52.91
932.994	52.86
933.362	52.84
933.729	52.82
934.097	52.83
934.464	52.86
934.831	52.85
935.199	52.88
935.566	52.91
935.933	52.83
936.3	52.86
936.667	52.86
937.034	52.92
937.401	52.96
937.767	52.95
938.134	52.95
938.501	52.94
938.867	53
939.234	52.96
939.6	52.97
939.967	53.05
940.333	53.05
940.699	53.11
941.065	53.05
941.431	52.99
941.798	52.97
942.163	52.96
942.529	52.97
942.895	52.98
943.261	53
943.627	52.95
943.992	52.98
944.358	53.03
944.723	52.97
945.089	52.94
945.454	52.98
945.82	52.99
946.185	53
946.55	52.88
946.915	52.82
947.28	52.76
947.645	52.81
948.01	52.79
948.375	52.72
948.74	52.7
949.104	52.74
949.469	52.67
949.834	52.6
950.198	52.55
950.562	52.54
950.927	52.47
951.291	52.4
951.655	52.31
952.02	52.31
952.384	52.29
952.748	52.27
953.112	52.22
953.476	52.23
953.839	52.18
954.203	52.16
954.567	52.17
954.931	52.18
955.294	52.22
955.658	52.31
956.021	52.25
956.385	52.21
956.748	52.18
957.111	52.15
957.474	52.15
957.837	52.18
958.2	52.16
958.563	52.13
958.926	52.16
959.289	52.15
959.652	52.08
960.015	52.09
960.377	52.1
960.74	52.13
961.102	52.16
961.465	52.22
961.827	52.24
962.189	52.28
962.552	52.3
962.914	52.29
963.276	52.32
963.638	52.33
964	52.28
964.362	52.31
964.724	52.26
965.085	52.26
965.447	52.18
965.809	52.13
966.17	52.11
966.532	52.08
966.893	52.07
967.255	52.02
967.616	52.01
967.977	52.08
968.338	52.09
968.699	52.11
969.061	52.09
969.421	52.14
969.782	52.13
970.143	52.14
970.504	52.17
970.865	52.17
971.225	52.14
971.586	52.14
971.946	52.11
972.307	52.03
972.667	52.05
973.027	52.06
973.388	52.04
973.748	52.08
974.108	52.11
974.468	52.11
974.828	52.12
975.188	52.13
975.548	52.15
975.907	52.11
976.267	52.14
976.627	52.15
976.986	52.14
977.346	52.1
977.705	52.08
978.064	52.04
978.424	52.04
978.783	52
979.142	52.04
979.501	52.02
979.86	52.1
980.219	52.13
980.578	52.12
980.937	52.18
981.296	52.13
981.654	52.18
982.013	52.18
982.371	52.14
982.73	52.17
983.088	52.14
983.447	52.13
983.805	52.04
984.163	51.92
984.521	51.92
984.879	51.8
985.237	51.82
985.595	51.78
985.953	51.77
986.311	51.74
986.669	51.78
987.026	51.74
987.384	51.76
987.741	51.75
988.099	51.83
988.456	51.74
988.814	51.85
989.171	51.91
989.528	51.97
989.885	51.98
990.242	52.04
990.599	52.02
990.956	52.06
991.313	52.06
991.67	52.1
992.027	52.13
992.383	52.25
992.74	52.23
993.096	52.16
993.453	52.1
993.809	52.12
994.165	52.15
994.522	52.13
994.878	52.09
995.234	52.08
995.59	52.01
995.946	51.95
996.302	51.91
996.658	51.94
997.013	51.85
997.369	51.88
997.725	51.93
998.08	51.92
998.436	52
998.791	52.13
999.147	52.18
999.502	52.26
999.857	52.35
1000.212	52.24
1000.567	52.15
1000.922	52.21
1001.277	52.2
1001.632	52.06
1001.987	52
1002.342	51.82
1002.696	51.71
1003.051	51.78
1003.406	51.84
1003.76	51.81
1004.114	51.82
1004.469	51.95
1004.823	52.21
1005.177	52.26
1005.531	52.41
1005.885	52.52
1006.239	52.58
1006.593	52.62
1006.947	52.56
1007.301	52.51
1007.655	52.48
1008.008	52.65
1008.362	52.66
1008.715	52.45
1009.069	52.46
1009.422	52.22
1009.776	52.21
1010.129	52.3
1010.482	52.32
1010.835	52.37
1011.188	52.23
1011.541	52.24
1011.894	52.36
1012.247	52.28
1012.6	52.33
1012.952	52.27
1013.305	52.48
1013.657	52.49
1014.01	52.56
1014.362	52.57
1014.715	52.5
1015.067	52.73
1015.419	52.78
1015.771	52.51
1016.123	52.58
1016.475	52.54
1016.827	52.69
1017.179	52.56
1017.531	52.42
1017.883	52.4
1018.234	52.28
1018.586	52.28
1018.938	52.31
1019.289	52.3
1019.64	52.34
1019.992	52.29
1020.343	52.29
1020.694	52.06
1021.045	52.01
1021.396	52.31
1021.747	52.46
1022.098	52.73
1022.449	52.76
1022.8	52.66
1023.151	52.58
1023.501	52.66
1023.852	52.77
1024.202	52.84
1024.553	52.94
1024.903	53.18
1025.253	53.11
1025.604	52.78
1025.954	52.41
1026.304	52.2
1026.654	51.95
1027.004	51.77
1027.354	51.82
1027.703	51.8
1028.053	51.97
1028.403	52.02
1028.753	51.69
1029.102	51.72
1029.452	51.88
1029.801	52.2
1030.15	52.35
1030.499	52.67
897.758	812.26
901.051	824.16
904.343	819.55
907.636	835.91
910.928	811.15
914.22	817.97
917.511	809.73
920.803	772.62
924.094	774.97
927.384	754.62
930.675	723.62
933.965	722.96
937.255	678.51
940.544	654.73
943.834	623.9
947.123	621.26
950.411	581.97
953.7	569.87
956.988	545.22
960.276	523.22
963.563	514.09
966.851	498.19
970.138	493.27
973.424	479.75
976.711	482.32
979.997	458.93
983.283	454.29
986.568	445.87
989.853	434.31
993.138	425
996.423	408.04
999.708	398.35
1002.992	392.89
1006.275	376.44
1009.559	373.07
1012.842	361.03
1016.125	353.31
1019.408	348.41
1022.69	343.97
1025.972	336.06
1029.254	329.4
1032.536	325.47
1035.817	318.56
1039.098	316.03
1042.379	310.81
1045.659	307.22
1048.939	299.58
1052.219	293.04
1055.498	290.01
1058.778	282.93
1062.057	277.34
1065.335	274.24
1068.614	270.57
1071.892	268.99
1075.17	261.03
1078.447	256.19
1081.724	253.93
1085.001	251.82
1088.278	248.26
1091.554	243.94
1094.83	243.91
1098.106	242.44
1101.382	240.83
1104.657	239.73
1107.932	235.17
1111.206	236.31
1114.481	231.32
1117.755	230.09
1121.029	228.4
1124.302	227.47
1127.575	222.69
1130.848	221.04
1134.121	219.02
1137.393	217.43
1140.665	212.49
1143.937	211.42
1147.208	211.16
1150.48	209.65
1153.75	207.93
1157.021	205.23
1160.291	205.03
1163.561	203.2
1166.831	203.04
1170.101	201.59
1173.37	201.56
1176.639	203.03
1179.907	200.65
1183.176	197.85
1186.444	198.11
1189.711	196.99
1192.979	196.26
1196.246	195.93
1199.513	196.46
1202.78	195.11
1206.046	195.23
1209.312	193.71
1212.578	193.45
1215.843	195.44
1219.108	194.29
1222.373	197.79
1225.638	199.22
1228.902	201.55
1232.166	201.87
1235.43	202.85
1238.693	206.04
1241.956	206.73
1245.219	209.05
1248.482	209.67
1251.744	209.12
1255.006	210.04
1258.268	205.06
1261.529	203.62
1264.79	202.83
1268.051	201.19
1271.312	198.95
1274.572	196.98
1277.832	196.01
1281.092	192.53
1284.351	190.77
1287.61	191.29
1290.869	188.53
1294.128	188.1
1297.386	187.97
1300.644	185.84
1303.902	186.71
1307.159	186.26
1310.416	185.12
1313.673	184.47
1316.93	186.46
1320.186	185.92
1323.442	186.49
1326.697	189
1329.953	189.39
1333.208	189.27
1336.463	192.08
1339.717	191.47
1342.972	193.17
1346.226	195.11
1349.479	195.51
1352.733	196.14
1355.986	198.01
1359.238	197.4
1362.491	197.59
1365.743	198.92
1368.995	198.85
1372.247	197.3
1375.498	196.77
1378.749	197.98
1382	194.84
1385.251	194.51
1388.501	193.19
1391.751	192.19
1395	190.68
1398.25	189.2
1401.499	187.26
1404.748	186.35
1407.996	184.93
1411.244	184.28
1414.492	182.28
1417.74	180.06
1420.987	177.86
1424.234	176.96
1427.481	174.33
1430.728	174.43
1433.974	173.52
1437.22	171.27
1440.465	171.32
1443.711	168.9
1446.956	166.6
1450.201	166.28
1453.445	165.11
1456.689	164.7
1459.933	161.94
1463.177	160.96
1466.42	158.3
1469.663	156.09
1472.906	155.76
1476.148	151.31
1479.391	150.48
1482.633	150.1
1485.874	147.49
1489.115	146.55
1492.356	145.17
1495.597	145.01
1498.838	143.6
1502.078	143.09
1505.318	142.8
1508.557	142.58
1511.797	142.9
1515.036	142.34
1518.274	141.58
1521.513	140.95
1524.751	140.58
1527.989	140.5
1531.227	140.29
1534.464	140.25
1537.701	140.03
1540.938	139.57
1544.174	138.9
1547.41	139.22
1550.646	138.44
1553.882	139.27
1557.117	137.89
1560.352	137.63
1563.587	137.48
1566.821	136.88
1570.055	135.95
1573.289	135.21
1576.523	135.48
1579.756	134.27
1582.989	133.86
1586.222	133.51
1589.454	132.74
1592.686	134.07
1595.918	133.45
1599.15	133.12
1602.381	133.18
1605.612	133.3
1608.843	133.46
1612.073	132.89
1615.303	133.94
1618.533	133.96
1621.762	134.53
1624.992	135.19
1628.221	134.48
1631.449	134.52
1634.678	134.5
1637.906	135.16
1641.134	134.99
1644.361	134.98
1647.588	135.53
1650.815	135.28
1654.042	135.01
1657.269	135.48
1660.495	135.37
1663.72	135.12
1666.946	135.63
1670.171	135.81
1673.396	136.01
1676.621	136.45
1679.845	136.42
1683.069	136.49
1686.293	137.31
1689.517	137.36
1692.74	137.39
1695.963	137.35
1699.185	138.43
1702.408	138.65
1705.63	139.04
1708.852	139.69
1712.073	139.51
1715.294	140.07
1718.515	140.95
1721.736	140.44
1724.956	140.9
1728.176	140.75
1731.396	141.47
1734.616	141.11
1737.835	141.84
1741.054	140.31
1744.272	140.33
1747.491	141.37
1750.709	141.85
1753.927	141.18
1757.144	140.87
1760.361	141.5
1763.578	141.47
1766.795	141.46
1770.011	142.39
1773.227	141.94
1776.443	143.56
1779.658	143.14
1782.874	143.52
1786.089	142.9
1789.303	143.4
1792.518	144.67
1795.732	144.53
1798.945	146
1802.159	146.24
1805.372	146.09
1808.585	148.21
1811.797	148.91
1815.01	149.76
1818.222	150.34
1821.434	152.05
1824.645	152.18
1827.856	154.9
1831.067	155.36
1834.278	155.4
1837.488	156.62
1840.698	157.4
1843.908	156.14
1847.117	156.44
1850.326	156.7
1853.535	155.77
1856.744	157.53
1859.952	157.13
1863.16	155.33
1866.368	154.6
1869.575	154.16
1872.782	150.81
1875.989	149.28
1879.196	148.61
1882.402	147.16
1885.608	147.12
1888.814	146.33
1892.019	145.01
1895.224	144.21
1898.429	143.39
1901.634	142.98
1904.838	142.83
1908.042	144.42
1911.246	144.46
1914.449	145
1917.652	143.97
1920.855	144
1924.058	143.37
1927.26	142.09
1930.462	142.56
1933.664	143.97
1936.865	143.33
1940.066	142.9
1943.267	141.8
1946.467	141.86
1949.668	142.73
1952.868	145.7
1956.067	145.4
1959.267	146.4
1962.466	147.21
1965.665	146.54
1968.863	146.91
1972.061	148.52
1975.259	149.98
1978.457	151.67
1981.654	153.76
1984.852	153.58
1988.048	152.9
1991.245	154.6
1994.441	156.65
1997.637	157.45
2000.833	160.93
2004.028	162.72
2007.223	164.48
2010.418	165.96
2013.613	168.53
2016.807	170.22
2020.001	172.26
2023.194	174.42
2026.388	177.89
2029.581	182.89
2032.774	184.31
2035.966	187.73
2039.158	188.27
2042.35	192.2
2045.542	193.96
2048.733	196.99
2051.924	199.01
2055.115	202.94
2058.306	204
2061.496	205.95
2064.686	204.26
2067.875	208.24
2071.065	209.62
2074.254	208.62
2077.442	211.09
2080.631	212.79
2083.819	215.13
2087.007	215.77
2090.195	218.21
2093.382	220.3
2096.569	219.45
2099.756	223.85
2102.942	224.92
2106.128	226.31
2109.314	230.9
2112.5	230.45
2115.685	234.52
2118.87	234.63
2122.055	239.62
2125.239	240.36
2128.424	243.86
2131.608	244.41
2134.791	247.33
2137.974	249.31
2141.157	250.04
2144.34	251
2147.523	253.88
2150.705	252.58
2153.887	255.56
2157.068	255.87
2160.25	254.13
2163.431	255.57
2166.611	259.03
2169.792	263.66
2172.972	266.19
2176.152	267.46
2179.331	270.76
2182.511	275.79
2185.69	277.21
2188.868	283.02
2192.047	283.87
2195.225	291.84
2198.403	297.27
2201.58	302.8
2204.758	307.16
2207.935	312.9
2211.111	319.56
2214.288	324.05
2217.464	324.35
2220.64	333.12
2223.815	335.45
2226.991	347.51
2230.166	347.57
2233.34	352.42
2236.515	358.94
2239.689	359.55
2242.863	360.95
2246.036	370.8
2249.209	369.21
2252.382	374.44
2255.555	383.11
2258.727	385.54
2261.9	389.76
2265.071	393.53
2268.243	401.38
2271.414	404.77
2274.585	414.39
2277.756	418.12
2280.926	421.48
2284.096	430.28
2287.266	438.59
2290.436	441.36
2293.605	451.24
2296.774	461.31
2299.942	474.6
2303.111	477.28
2306.279	489.45
2309.447	493.66
2312.614	506.47
2315.781	520.79
2318.948	539.67
2322.115	535.54
2325.281	567.18
2328.447	553.02
2331.613	574.17
2334.779	570.98
2337.944	593.57
2341.109	597.9
2344.274	616.11
2347.438	634.24
2350.602	630.76
2353.766	658.21
2356.929	667.01
2360.092	658.26
2363.255	707.18
2366.418	707.24
2369.58	718.14
2372.742	762.77
2375.904	783.38
2379.066	779.25
2382.227	768.83
2385.388	832.44
2388.548	825.99
2391.709	837.92
2394.869	933.68
2398.029	896.63
2401.188	923.24
2404.347	917.44
2407.506	904.08
2410.665	926.38
2413.823	983.72
2416.981	1040.79
2420.139	1011.87
2423.296	1001.53
2426.453	1041.34
2429.61	1001.02
2432.767	1045.06
2435.923	1034.87
2439.079	1134.15
2442.235	1148.9
2445.391	1141.71
2448.546	1127.68
2451.701	1101.49
2454.855	1096.3
2458.009	1164.48
2461.163	1212.51
2464.317	1255.13
2467.471	1287.75
2470.624	1289.92
2473.777	1259.44
2476.929	1226.19
2480.082	1186.23
2483.234	1178.32
2486.385	1229.38
2489.537	1237.02
2492.688	1280.47
2495.839	1247.1
2498.989	1220.17
2502.14	1228.49
2505.29	1237.22
2508.439	1247.33
2511.589	1245.36
2514.738	1363.51
2517.887	1330.66
2521.035	1405.79
2524.183	1422.11
2527.331	1431.93
2530.479	1424.86
2533.627	1436.34
