Data from C_1_DEC_NC_4N_Splice17_12-57-51-606.txt Node
Date: Sat Mar 07 12:57:51 EST 2020
User: sa697716
Spectrometer: NQ5500242
Trigger mode: 0
Integration Time (sec): 1.450000E-1
Scans to average: 20
Nonlinearity correction enabled: false
Boxcar width: 5
Storing dark spectrum: false
XAxis mode: Wavelengths
Number of Pixels in Spectrum: 512
>>>>>Begin Spectral Data<<<<<
187.83	234.68
188.298	258.64
188.766	209.2
189.233	173.46
189.701	178.13
190.169	211.96
190.636	229.03
191.104	325.6
191.571	143.17
192.039	215.81
192.506	347.95
192.974	88.7
193.441	338.95
193.908	77.7
194.375	66.55
194.842	3.03
195.31	49.82
195.777	158.16
196.244	65.67
196.711	47.81
197.177	49.58
197.644	48.19
198.111	46.86
198.578	46.15
199.045	46.73
199.511	46.78
199.978	46.73
200.445	46.92
200.911	46.7
201.378	46.36
201.844	46.5
202.31	46.37
202.777	46.45
203.243	46.4
203.709	46.5
204.176	45.89
204.642	45.37
205.108	45.58
205.574	45.18
206.04	44.46
206.506	44.26
206.972	44.29
207.438	43.86
207.903	43.24
208.369	42.67
208.835	41.8
209.301	41.19
209.766	40.4
210.232	39.43
210.697	38.8
211.163	38.33
211.628	37.64
212.094	36.62
212.559	36.16
213.024	35.43
213.49	34.78
213.955	34.09
214.42	33.44
214.885	32.69
215.35	31.68
215.815	30.2
216.28	28.43
216.745	26.55
217.21	24.74
217.675	22.97
218.14	21.51
218.604	20.33
219.069	19.35
219.534	18.47
219.998	17.78
220.463	17.14
220.927	16.58
221.392	16.22
221.856	15.86
222.32	15.55
222.785	15.3
223.249	15.03
223.713	14.76
224.177	14.55
224.642	14.33
225.106	14.07
225.57	13.85
226.034	13.7
226.497	13.48
226.961	13.28
227.425	13.12
227.889	12.93
228.353	12.77
228.816	12.6
229.28	12.4
229.744	12.24
230.207	12.09
230.671	11.94
231.134	11.77
231.597	11.65
232.061	11.5
232.524	11.34
232.987	11.21
233.45	11.07
233.914	10.94
234.377	10.82
234.84	10.7
235.303	10.6
235.766	10.49
236.229	10.36
236.691	10.25
237.154	10.15
237.617	10.05
238.08	9.95
238.542	9.85
239.005	9.77
239.468	9.67
239.93	9.57
240.393	9.47
240.855	9.37
241.317	9.27
241.78	9.17
242.242	9.07
242.704	8.99
243.166	8.89
243.629	8.8
244.091	8.7
244.553	8.62
245.015	8.54
245.477	8.45
245.939	8.38
246.4	8.31
246.862	8.24
247.324	8.18
247.786	8.1
248.247	8.04
248.709	7.98
249.17	7.91
249.632	7.86
250.093	7.8
250.555	7.75
251.016	7.69
251.477	7.63
251.939	7.58
252.4	7.54
252.861	7.49
253.322	7.45
253.783	7.41
254.244	7.36
254.705	7.31
255.166	7.27
255.627	7.23
256.088	7.19
256.549	7.15
257.009	7.11
257.47	7.06
257.931	7
258.391	6.94
258.852	6.88
259.312	6.84
259.773	6.8
260.233	6.76
260.694	6.72
261.154	6.68
261.614	6.64
262.074	6.6
262.534	6.57
262.994	6.55
263.455	6.53
263.915	6.5
264.374	6.48
264.834	6.46
265.294	6.43
265.754	6.41
266.214	6.39
266.673	6.38
267.133	6.37
267.593	6.35
268.052	6.34
268.512	6.31
268.971	6.3
269.431	6.29
269.89	6.27
270.349	6.26
270.809	6.24
271.268	6.23
271.727	6.21
272.186	6.2
272.645	6.18
273.104	6.16
273.563	6.16
274.022	6.14
274.481	6.12
274.94	6.11
275.399	6.09
275.857	6.07
276.316	6.05
276.775	6.04
277.233	6.02
277.692	6
278.15	5.99
278.609	5.96
279.067	5.94
279.525	5.93
279.984	5.9
280.442	5.89
280.9	5.88
281.358	5.86
281.816	5.85
282.274	5.83
282.732	5.82
283.19	5.8
283.648	5.79
284.106	5.78
284.564	5.76
285.021	5.76
285.479	5.74
285.937	5.73
286.394	5.71
286.852	5.68
287.309	5.66
287.767	5.64
288.224	5.61
288.682	5.58
289.139	5.55
289.596	5.53
290.053	5.49
290.511	5.46
290.968	5.44
291.425	5.42
291.882	5.41
292.339	5.39
292.796	5.37
293.252	5.35
293.709	5.33
294.166	5.33
294.623	5.32
295.079	5.31
295.536	5.31
295.992	5.3
296.449	5.28
296.905	5.26
297.362	5.25
297.818	5.24
298.274	5.23
298.731	5.22
299.187	5.2
299.643	5.18
300.099	5.17
300.555	5.15
301.011	5.13
301.467	5.12
301.923	5.1
302.379	5.09
302.835	5.09
303.291	5.07
303.746	5.06
304.202	5.05
304.658	5.05
305.113	5.04
305.569	5.03
306.024	5.02
306.479	5.02
306.935	5.01
307.39	5
307.845	4.99
308.301	4.99
308.756	4.98
309.211	4.97
309.666	4.97
310.121	4.97
310.576	4.96
311.031	4.96
311.486	4.95
311.94	4.95
312.395	4.94
312.85	4.93
313.305	4.92
313.759	4.92
314.214	4.9
314.668	4.89
315.123	4.88
315.577	4.87
316.032	4.86
316.486	4.85
316.94	4.84
317.394	4.82
317.849	4.8
318.303	4.79
318.757	4.76
319.211	4.75
319.665	4.73
320.119	4.71
320.572	4.69
321.026	4.68
321.48	4.67
321.934	4.65
322.387	4.64
322.841	4.64
323.295	4.63
323.748	4.63
324.202	4.63
324.655	4.63
325.108	4.63
325.562	4.62
326.015	4.62
326.468	4.61
326.921	4.59
327.374	4.59
327.827	4.58
328.28	4.58
328.733	4.57
329.186	4.57
329.639	4.56
330.092	4.55
330.545	4.54
330.997	4.54
331.45	4.55
331.903	4.56
332.355	4.56
332.808	4.56
333.26	4.55
333.713	4.54
334.165	4.54
334.617	4.54
335.069	4.52
335.522	4.53
335.974	4.52
336.426	4.51
336.878	4.51
337.33	4.5
337.782	4.49
338.234	4.5
338.686	4.5
339.137	4.5
339.589	4.49
340.041	4.49
340.493	4.48
340.944	4.46
341.396	4.44
341.847	4.43
342.299	4.42
342.75	4.41
343.201	4.38
343.653	4.38
344.104	4.36
344.555	4.34
345.006	4.33
345.457	4.31
345.908	4.31
346.359	4.3
346.81	4.3
347.261	4.29
347.712	4.29
348.163	4.28
348.613	4.28
349.064	4.28
349.515	4.27
349.965	4.28
350.416	4.27
350.866	4.26
351.317	4.26
351.767	4.26
352.217	4.26
352.668	4.25
353.118	4.25
353.568	4.24
354.018	4.25
354.468	4.26
354.918	4.26
355.368	4.27
355.818	4.28
356.268	4.28
356.718	4.27
357.168	4.27
357.617	4.27
358.067	4.26
358.517	4.28
358.966	4.27
359.416	4.26
359.865	4.26
360.315	4.25
360.764	4.25
361.213	4.25
361.663	4.24
362.112	4.24
362.561	4.24
363.01	4.24
363.459	4.22
363.908	4.22
364.357	4.23
364.806	4.22
365.255	4.23
365.703	4.23
366.152	4.23
366.601	4.23
367.05	4.24
367.498	4.24
367.947	4.24
368.395	4.25
368.844	4.26
369.292	4.25
369.74	4.26
370.189	4.25
370.637	4.24
371.085	4.23
371.533	4.24
371.981	4.24
372.429	4.24
372.877	4.24
373.325	4.24
373.773	4.24
374.221	4.23
374.669	4.23
375.116	4.23
375.564	4.23
376.012	4.24
376.459	4.24
376.907	4.25
377.354	4.26
377.801	4.27
378.249	4.28
378.696	4.29
379.143	4.3
379.591	4.31
380.038	4.33
380.485	4.34
380.932	4.35
381.379	4.36
381.826	4.37
382.273	4.37
382.72	4.37
383.166	4.38
383.613	4.4
384.06	4.41
384.506	4.41
384.953	4.43
385.4	4.46
385.846	4.49
386.292	4.51
386.739	4.53
387.185	4.55
387.631	4.59
388.078	4.61
388.524	4.63
388.97	4.66
389.416	4.71
389.862	4.74
390.308	4.77
390.754	4.8
391.2	4.85
391.645	4.88
392.091	4.93
392.537	4.97
392.983	5
393.428	5.05
393.874	5.09
394.319	5.12
394.765	5.15
395.21	5.18
395.655	5.21
396.101	5.24
396.546	5.28
396.991	5.31
397.436	5.34
397.881	5.39
398.326	5.43
398.771	5.47
399.216	5.51
399.661	5.54
400.106	5.57
400.551	5.59
400.995	5.61
401.44	5.64
401.885	5.66
402.329	5.68
402.774	5.71
403.218	5.74
403.663	5.75
404.107	5.77
404.551	5.79
404.995	5.8
405.44	5.83
405.884	5.84
406.328	5.86
406.772	5.87
407.216	5.88
407.66	5.88
408.104	5.87
408.547	5.87
408.991	5.89
409.435	5.9
409.879	5.92
410.322	5.92
410.766	5.94
411.209	5.96
411.653	5.98
412.096	6
412.54	6.02
412.983	6.03
413.426	6.06
413.869	6.08
414.312	6.11
414.756	6.12
415.199	6.12
415.642	6.13
416.085	6.12
416.527	6.11
416.97	6.1
417.413	6.1
417.856	6.1
418.298	6.09
418.741	6.08
419.184	6.07
419.626	6.07
420.069	6.08
420.511	6.07
420.953	6.08
421.396	6.09
421.838	6.1
422.28	6.1
422.722	6.12
423.164	6.12
423.606	6.12
424.048	6.11
424.49	6.11
424.932	6.1
425.374	6.06
425.816	6.03
426.258	6.01
426.699	5.98
427.141	5.98
427.582	5.96
428.024	5.97
428.465	5.96
428.907	5.93
429.348	5.92
429.789	5.91
430.231	5.95
430.672	5.97
431.113	5.99
431.554	6.01
431.995	6
432.436	6
432.877	6.01
433.318	6.03
433.759	6.06
434.2	6.08
434.64	6.1
435.081	6.1
435.522	6.13
435.962	6.13
436.403	6.15
436.843	6.15
437.284	6.14
437.724	6.14
438.164	6.13
438.604	6.15
439.045	6.17
439.485	6.19
439.925	6.21
440.365	6.21
440.805	6.23
441.245	6.27
441.685	6.31
442.125	6.37
442.564	6.41
443.004	6.45
443.444	6.48
443.883	6.51
444.323	6.54
444.762	6.57
445.202	6.61
445.641	6.64
446.081	6.66
446.52	6.69
446.959	6.72
447.398	6.75
447.837	6.78
448.276	6.8
448.716	6.84
449.154	6.88
449.593	6.91
450.032	6.94
450.471	6.95
450.91	6.97
451.349	6.98
451.787	6.99
452.226	7
452.664	7.03
453.103	7.04
453.541	7.04
453.98	7.05
454.418	7.05
454.856	7.04
455.295	7.05
455.733	7.03
456.171	7.04
456.609	7.03
457.047	7.02
457.485	7.01
457.923	7.01
458.361	7.01
458.798	7
459.236	7.01
459.674	7.01
460.111	7.01
460.549	7.04
460.987	7.05
461.424	7.06
461.862	7.08
462.299	7.08
462.736	7.08
463.173	7.09
463.611	7.09
464.048	7.11
464.485	7.12
464.922	7.13
465.359	7.14
465.796	7.15
466.233	7.14
466.67	7.15
467.106	7.17
467.543	7.18
467.98	7.18
468.416	7.18
468.853	7.18
469.29	7.18
469.726	7.17
470.162	7.17
470.599	7.17
471.035	7.17
471.471	7.17
471.907	7.16
472.344	7.17
472.78	7.18
473.216	7.18
473.652	7.19
474.088	7.2
474.523	7.22
474.959	7.23
475.395	7.21
475.831	7.22
476.266	7.22
476.702	7.21
477.138	7.21
477.573	7.22
478.008	7.23
478.444	7.23
478.879	7.25
479.314	7.25
479.75	7.24
480.185	7.25
480.62	7.25
481.055	7.25
481.49	7.25
481.925	7.27
482.36	7.28
482.795	7.29
483.229	7.29
483.664	7.3
484.099	7.31
484.534	7.33
484.968	7.36
485.403	7.38
485.837	7.41
486.271	7.45
486.706	7.47
487.14	7.5
487.574	7.54
488.009	7.58
488.443	7.61
488.877	7.66
489.311	7.71
489.745	7.76
490.179	7.83
490.613	7.89
491.046	7.96
491.48	8.03
491.914	8.1
492.348	8.17
492.781	8.25
493.215	8.34
493.648	8.44
494.082	8.52
494.515	8.61
494.948	8.71
495.382	8.8
495.815	8.89
496.248	9.01
496.681	9.12
497.114	9.24
497.547	9.36
497.98	9.48
498.413	9.61
498.846	9.75
499.279	9.89
499.711	10.03
500.144	10.18
500.577	10.34
501.009	10.49
501.442	10.67
501.874	10.85
502.306	11.03
502.739	11.23
503.171	11.42
503.603	11.63
504.036	11.84
504.468	12.06
504.9	12.28
505.332	12.52
505.764	12.76
506.196	12.99
506.627	13.24
507.059	13.5
507.491	13.75
507.923	14.02
508.354	14.3
508.786	14.58
509.217	14.87
509.649	15.16
510.08	15.47
510.512	15.77
510.943	16.09
511.374	16.41
511.805	16.73
512.237	17.04
512.668	17.37
513.099	17.69
513.53	18.04
513.961	18.38
514.391	18.73
514.822	19.07
515.253	19.41
515.684	19.75
516.114	20.09
516.545	20.45
516.975	20.82
517.406	21.16
517.836	21.5
518.267	21.85
518.697	22.19
519.127	22.5
519.558	22.83
519.988	23.15
520.418	23.49
520.848	23.8
521.278	24.09
521.708	24.44
522.138	24.73
522.567	25.02
522.997	25.28
523.427	25.56
523.857	25.83
524.286	26.07
524.716	26.32
525.145	26.55
525.575	26.8
526.004	27.04
526.433	27.2
526.863	27.42
527.292	27.62
527.721	27.82
528.15	28
528.579	28.17
529.008	28.35
529.437	28.51
529.866	28.66
530.295	28.8
530.724	28.95
531.152	29.09
531.581	29.22
532.01	29.36
532.438	29.49
532.867	29.62
533.295	29.75
533.723	29.85
534.152	29.96
534.58	30.1
535.008	30.16
535.436	30.25
535.865	30.32
536.293	30.39
536.721	30.47
537.149	30.54
537.576	30.6
538.004	30.65
538.432	30.72
538.86	30.77
539.287	30.8
539.715	30.89
540.143	30.93
540.57	30.97
540.998	31.02
541.425	31.05
541.852	31.09
542.28	31.16
542.707	31.18
543.134	31.22
543.561	31.27
543.988	31.31
544.415	31.31
544.842	31.34
545.269	31.38
545.696	31.42
546.123	31.45
546.549	31.5
546.976	31.51
547.403	31.54
547.829	31.56
548.256	31.57
548.682	31.59
549.108	31.63
549.535	31.67
549.961	31.67
550.387	31.66
550.813	31.68
551.24	31.67
551.666	31.66
552.092	31.67
552.518	31.67
552.943	31.67
553.369	31.67
553.795	31.64
554.221	31.61
554.646	31.58
555.072	31.56
555.498	31.52
555.923	31.47
556.349	31.42
556.774	31.37
557.199	31.31
557.625	31.25
558.05	31.18
558.475	31.12
558.9	31.07
559.325	31.01
559.75	30.94
560.175	30.88
560.6	30.78
561.025	30.71
561.449	30.6
561.874	30.51
562.299	30.41
562.723	30.31
563.148	30.19
563.572	30.06
563.997	29.94
564.421	29.8
564.846	29.69
565.27	29.58
565.694	29.45
566.118	29.34
566.542	29.2
566.966	29.06
567.39	28.93
567.814	28.8
568.238	28.67
568.662	28.54
569.086	28.43
569.509	28.28
569.933	28.15
570.357	28.03
570.78	27.91
571.204	27.78
571.627	27.67
572.05	27.54
572.474	27.43
572.897	27.31
573.32	27.18
573.743	27.05
574.166	26.94
574.589	26.81
575.012	26.68
575.435	26.57
575.858	26.46
576.281	26.33
576.704	26.23
577.126	26.11
577.549	25.99
577.972	25.89
578.394	25.77
578.817	25.68
579.239	25.58
579.661	25.5
580.084	25.4
580.506	25.31
580.928	25.22
581.35	25.11
581.772	25.03
582.194	24.95
582.616	24.89
583.038	24.81
583.46	24.71
583.882	24.64
584.303	24.53
584.725	24.47
585.147	24.4
585.568	24.35
585.99	24.3
586.411	24.21
586.833	24.14
587.254	24.05
587.675	23.99
588.096	23.93
588.518	23.86
588.939	23.81
589.36	23.74
589.781	23.66
590.202	23.6
590.623	23.55
591.043	23.5
591.464	23.46
591.885	23.42
592.305	23.37
592.726	23.33
593.147	23.29
593.567	23.25
593.987	23.22
594.408	23.17
594.828	23.14
595.248	23.11
595.669	23.09
596.089	23.06
596.509	23.03
596.929	23.01
597.349	22.98
597.769	22.94
598.189	22.9
598.608	22.86
599.028	22.84
599.448	22.79
599.867	22.74
600.287	22.69
600.706	22.64
601.126	22.59
601.545	22.53
601.965	22.49
602.384	22.43
602.803	22.38
603.222	22.32
603.641	22.26
604.061	22.2
604.48	22.12
604.898	22.04
605.317	21.99
605.736	21.93
606.155	21.86
606.574	21.78
606.992	21.71
607.411	21.64
607.829	21.54
608.248	21.43
608.666	21.33
609.085	21.26
609.503	21.18
609.921	21.08
610.339	21
610.758	20.9
611.176	20.8
611.594	20.71
612.012	20.62
612.43	20.54
612.847	20.46
613.265	20.38
613.683	20.3
614.101	20.2
614.518	20.1
614.936	20.02
615.353	19.93
615.771	19.84
616.188	19.75
616.606	19.67
617.023	19.6
617.44	19.54
617.857	19.48
618.274	19.41
618.691	19.36
619.108	19.3
619.525	19.23
619.942	19.2
620.359	19.17
620.776	19.14
621.192	19.09
621.609	19.06
622.026	19.02
622.442	18.98
622.859	18.96
623.275	18.92
623.691	18.91
624.108	18.89
624.524	18.86
624.94	18.83
625.356	18.81
625.772	18.8
626.188	18.8
626.604	18.79
627.02	18.77
627.436	18.76
627.852	18.77
628.268	18.75
628.683	18.75
629.099	18.74
629.514	18.72
629.93	18.7
630.345	18.68
630.761	18.62
631.176	18.59
631.591	18.55
632.007	18.49
632.422	18.43
632.837	18.37
633.252	18.28
633.667	18.2
634.082	18.11
634.497	18.03
634.911	17.93
635.326	17.82
635.741	17.7
636.155	17.56
636.57	17.43
636.984	17.28
637.399	17.13
637.813	16.99
638.228	16.84
638.642	16.68
639.056	16.5
639.47	16.34
639.884	16.18
640.298	16
640.712	15.83
641.126	15.67
641.54	15.48
641.954	15.3
642.368	15.12
642.781	14.94
643.195	14.77
643.609	14.6
644.022	14.43
644.436	14.27
644.849	14.11
645.262	13.96
645.676	13.8
646.089	13.67
646.502	13.55
646.915	13.43
647.328	13.33
647.741	13.22
648.154	13.13
648.567	13.05
648.98	12.96
649.393	12.89
649.805	12.83
650.218	12.76
650.631	12.69
651.043	12.62
651.456	12.56
651.868	12.49
652.28	12.43
652.693	12.36
653.105	12.27
653.517	12.2
653.929	12.12
654.341	12.03
654.753	11.95
655.165	11.84
655.577	11.74
655.989	11.62
656.401	11.51
656.813	11.39
657.224	11.25
657.636	11.12
658.047	10.99
658.459	10.84
658.87	10.7
659.282	10.54
659.693	10.4
660.104	10.25
660.515	10.1
660.926	9.94
661.338	9.79
661.749	9.64
662.159	9.48
662.57	9.35
662.981	9.2
663.392	9.07
663.803	8.95
664.213	8.82
664.624	8.69
665.035	8.58
665.445	8.47
665.855	8.36
666.266	8.28
666.676	8.2
667.086	8.11
667.497	8.03
667.907	7.95
668.317	7.88
668.727	7.83
669.137	7.78
669.547	7.74
669.956	7.69
670.366	7.65
670.776	7.61
671.186	7.58
671.595	7.55
672.005	7.53
672.414	7.51
672.824	7.49
673.233	7.48
673.642	7.47
674.052	7.47
674.461	7.48
674.87	7.49
675.279	7.51
675.688	7.54
676.097	7.57
676.506	7.59
676.915	7.63
677.323	7.68
677.732	7.73
678.141	7.8
678.549	7.86
678.958	7.94
679.366	8.05
679.775	8.15
680.183	8.27
680.592	8.41
681	8.58
681.408	8.77
681.816	8.98
682.224	9.2
682.632	9.46
683.04	9.75
683.448	10.06
683.856	10.38
684.264	10.74
684.671	11.12
685.079	11.55
685.487	11.99
685.894	12.46
686.302	12.97
686.709	13.49
687.116	14.05
687.524	14.63
687.931	15.23
688.338	15.87
688.745	16.51
689.152	17.17
689.559	17.85
689.966	18.55
690.373	19.23
690.78	19.92
691.187	20.62
691.593	21.33
692	22.03
692.407	22.72
692.813	23.41
693.22	24.1
693.626	24.78
694.032	25.45
694.439	26.1
694.845	26.76
695.251	27.4
695.657	28.01
696.063	28.62
696.469	29.23
696.875	29.82
697.281	30.4
697.687	30.95
698.093	31.5
698.498	32.02
698.904	32.53
699.31	33.02
699.715	33.51
700.12	33.98
700.526	34.44
700.931	34.88
701.337	35.31
701.742	35.71
702.147	36.12
702.552	36.51
702.957	36.89
703.362	37.26
703.767	37.59
704.172	37.93
704.577	38.27
704.981	38.6
705.386	38.9
705.791	39.21
706.195	39.5
706.6	39.79
707.004	40.07
707.408	40.35
707.813	40.64
708.217	40.93
708.621	41.22
709.025	41.46
709.43	41.69
709.834	41.94
710.237	42.17
710.641	42.4
711.045	42.61
711.449	42.82
711.853	43.05
712.256	43.24
712.66	43.43
713.064	43.6
713.467	43.8
713.87	44.01
714.274	44.2
714.677	44.4
715.08	44.59
715.484	44.79
715.887	44.99
716.29	45.14
716.693	45.3
717.096	45.49
717.499	45.66
717.901	45.82
718.304	45.98
718.707	46.11
719.109	46.25
719.512	46.37
719.915	46.49
720.317	46.59
720.719	46.7
721.122	46.85
721.524	46.93
721.926	47.06
722.328	47.19
722.731	47.28
723.133	47.39
723.535	47.52
723.937	47.64
724.338	47.73
724.74	47.82
725.142	48.01
725.544	48.09
725.945	48.21
726.347	48.26
726.748	48.31
727.15	48.39
727.551	48.48
727.952	48.51
728.354	48.57
728.755	48.63
729.156	48.69
729.557	48.64
729.958	48.68
730.359	48.7
730.76	48.77
731.161	48.82
731.562	48.87
731.962	48.89
732.363	48.95
732.763	48.97
733.164	49.03
733.564	49.08
733.965	49.14
734.365	49.19
734.766	49.22
735.166	49.26
735.566	49.3
735.966	49.33
736.366	49.39
736.766	49.4
737.166	49.45
737.566	49.46
737.966	49.48
738.365	49.54
738.765	49.56
739.165	49.58
739.564	49.6
739.964	49.63
740.363	49.64
740.763	49.66
741.162	49.68
741.561	49.68
741.96	49.69
742.36	49.68
742.759	49.68
743.158	49.69
743.557	49.71
743.955	49.72
744.354	49.73
744.753	49.73
745.152	49.77
745.55	49.81
745.949	49.85
746.348	49.89
746.746	49.91
747.144	49.92
747.543	49.94
747.941	49.96
748.339	49.95
748.737	49.94
749.136	49.95
749.534	49.89
749.932	49.86
750.33	49.83
750.727	49.81
751.125	49.83
751.523	49.83
751.921	49.82
752.318	49.82
752.716	49.85
753.113	49.87
753.511	49.87
753.908	49.92
754.305	49.95
754.703	49.96
755.1	49.96
755.497	49.96
755.894	49.96
756.291	49.96
756.688	49.95
757.085	49.96
757.482	49.96
757.878	50.01
758.275	50
758.672	50
759.068	50.03
759.465	50.05
759.861	50.05
760.258	50.06
760.654	50.08
761.05	50.09
761.447	50.09
761.843	50.11
762.239	50.09
762.635	50.08
763.031	50.07
763.427	50.05
763.822	50.05
764.218	50.04
764.614	50.03
765.01	50.03
765.405	50
765.801	49.98
766.196	49.95
766.592	49.93
766.987	49.94
767.382	49.92
767.778	49.94
768.173	49.94
768.568	49.94
768.963	49.94
769.358	49.95
769.753	49.96
770.148	49.97
770.542	49.99
770.937	50
771.332	50
771.726	50.03
772.121	50.01
772.515	50
772.91	49.96
773.304	49.98
773.699	49.97
774.093	49.97
774.487	49.96
774.881	49.98
775.275	49.96
775.669	49.97
776.063	49.96
776.457	49.99
776.851	49.99
777.245	50.01
777.638	50
778.032	50.02
778.425	50.04
778.819	50.04
779.212	50.02
779.606	50.03
779.999	50.02
780.392	50.05
780.786	50.05
781.179	50.06
781.572	50.06
781.965	50.06
782.358	50.05
782.751	50.04
783.143	50.04
783.536	50.04
783.929	50.04
784.322	50.07
784.714	50.05
785.107	50.06
785.499	50.05
785.891	50.06
786.284	50.07
786.676	50.09
787.068	50.09
787.46	50.11
787.852	50.13
788.245	50.13
788.636	50.12
789.028	50.13
789.42	50.12
789.812	50.15
790.204	50.15
790.595	50.17
790.987	50.15
791.378	50.16
791.77	50.15
792.161	50.15
792.553	50.15
792.944	50.13
793.335	50.16
793.726	50.15
794.117	50.1
794.508	50.1
794.899	50.07
795.29	50.05
795.681	50.05
796.072	50.03
796.463	50.08
796.853	50.08
797.244	50.09
797.634	50.06
798.025	50.08
798.415	50.12
798.806	50.14
799.196	50.15
799.586	50.14
799.976	50.15
800.366	50.16
800.756	50.12
801.146	50.14
801.536	50.15
801.926	50.15
802.316	50.14
802.706	50.16
803.095	50.16
803.485	50.13
803.874	50.18
804.264	50.2
804.653	50.22
805.043	50.21
805.432	50.19
805.821	50.2
806.21	50.19
806.599	50.2
806.988	50.18
807.377	50.16
807.766	50.19
808.155	50.14
808.544	50.13
808.933	50.13
809.321	50.09
809.71	50.08
810.098	50.07
810.487	50.06
810.875	50.03
811.264	50.02
811.652	50.04
812.04	50.03
812.428	50.08
812.816	50.08
813.204	50.09
813.592	50.08
813.98	50.09
814.368	50.1
814.756	50.12
815.144	50.13
815.531	50.12
815.919	50.11
816.306	50.1
816.694	50.07
817.081	50.07
817.469	50.05
817.856	50.08
818.243	50.07
818.63	50.05
819.017	50.02
819.404	50.05
819.791	50.06
820.178	50.07
820.565	50.06
820.952	50.07
821.339	50.04
821.725	50.04
822.112	50.05
822.498	50.05
822.885	50.08
823.271	50.1
823.657	50.05
824.044	50.03
824.43	50.05
824.816	50.05
825.202	50.05
825.588	50.05
825.974	50.07
826.36	50.07
826.746	50.08
827.132	50.06
827.517	50.08
827.903	50.12
828.289	50.15
828.674	50.15
829.06	50.15
829.445	50.16
829.83	50.17
830.216	50.16
830.601	50.16
830.986	50.15
831.371	50.16
831.756	50.18
832.141	50.17
832.526	50.18
832.911	50.18
833.295	50.19
833.68	50.2
834.065	50.21
834.449	50.21
834.834	50.2
835.218	50.2
835.603	50.2
835.987	50.18
836.371	50.18
836.755	50.17
837.139	50.17
837.524	50.16
837.908	50.17
838.291	50.18
838.675	50.18
839.059	50.19
839.443	50.19
839.827	50.19
840.21	50.2
840.594	50.22
840.977	50.2
841.361	50.2
841.744	50.19
842.127	50.18
842.511	50.17
842.894	50.19
843.277	50.21
843.66	50.19
844.043	50.19
844.426	50.2
844.809	50.19
845.191	50.21
845.574	50.21
845.957	50.25
846.339	50.25
846.722	50.25
847.104	50.24
847.487	50.24
847.869	50.27
848.252	50.28
848.634	50.27
849.016	50.28
849.398	50.27
849.78	50.29
850.162	50.25
850.544	50.26
850.926	50.25
851.307	50.23
851.689	50.24
852.071	50.23
852.452	50.24
852.834	50.25
853.215	50.25
853.597	50.27
853.978	50.26
854.359	50.29
854.741	50.3
855.122	50.31
855.503	50.33
855.884	50.31
856.265	50.32
856.646	50.3
857.026	50.3
857.407	50.3
857.788	50.3
858.169	50.3
858.549	50.29
858.93	50.3
859.31	50.29
859.69	50.32
860.071	50.35
860.451	50.33
860.831	50.33
861.211	50.31
861.591	50.32
861.971	50.31
862.351	50.33
862.731	50.35
863.111	50.31
863.491	50.32
863.87	50.28
864.25	50.26
864.629	50.29
865.009	50.3
865.388	50.33
865.768	50.33
866.147	50.32
866.526	50.3
866.905	50.31
867.284	50.32
867.663	50.32
868.042	50.35
868.421	50.37
868.8	50.35
869.179	50.35
869.558	50.33
869.936	50.33
870.315	50.34
870.693	50.36
871.072	50.34
871.45	50.37
871.828	50.37
872.207	50.38
872.585	50.34
872.963	50.35
873.341	50.35
873.719	50.36
874.097	50.36
874.475	50.37
874.853	50.37
875.23	50.38
875.608	50.38
875.986	50.42
876.363	50.42
876.741	50.46
877.118	50.49
877.495	50.48
877.873	50.49
878.25	50.48
878.627	50.48
879.004	50.47
879.381	50.48
879.758	50.47
880.135	50.44
880.512	50.42
880.889	50.4
881.265	50.34
881.642	50.34
882.019	50.33
882.395	50.34
882.772	50.33
883.148	50.32
883.524	50.29
883.901	50.27
884.277	50.26
884.653	50.27
885.029	50.26
885.405	50.27
885.781	50.27
886.157	50.28
886.532	50.28
886.908	50.25
887.284	50.26
887.659	50.26
888.035	50.24
888.411	50.23
888.786	50.22
889.161	50.24
889.537	50.23
889.912	50.23
890.287	50.21
890.662	50.21
891.037	50.22
891.412	50.21
891.787	50.21
892.162	50.24
892.536	50.25
892.911	50.26
893.286	50.26
893.66	50.27
894.035	50.29
894.409	50.3
894.784	50.33
895.158	50.33
895.532	50.35
895.906	50.35
896.281	50.35
896.655	50.35
897.029	50.37
897.402	50.36
897.776	50.37
898.15	50.39
898.524	50.43
898.898	50.42
899.271	50.45
899.645	50.47
900.018	50.48
900.392	50.48
900.765	50.5
901.138	50.49
901.511	50.52
901.884	50.53
902.258	50.52
902.631	50.5
903.003	50.5
903.376	50.47
903.749	50.43
904.122	50.43
904.495	50.45
904.867	50.47
905.24	50.5
905.612	50.5
905.985	50.49
906.357	50.46
906.729	50.45
907.102	50.45
907.474	50.49
907.846	50.52
908.218	50.53
908.59	50.54
908.962	50.54
909.334	50.51
909.705	50.5
910.077	50.53
910.449	50.52
910.82	50.53
911.192	50.53
911.563	50.52
911.935	50.51
912.306	50.51
912.677	50.5
913.048	50.5
913.419	50.49
913.79	50.48
914.161	50.49
914.532	50.5
914.903	50.5
915.274	50.51
915.645	50.5
916.015	50.52
916.386	50.5
916.756	50.48
917.127	50.49
917.497	50.5
917.868	50.49
918.238	50.46
918.608	50.51
918.978	50.5
919.348	50.51
919.718	50.52
920.088	50.51
920.458	50.52
920.828	50.51
921.198	50.5
921.567	50.52
921.937	50.54
922.306	50.54
922.676	50.5
923.045	50.5
923.415	50.49
923.784	50.49
924.153	50.52
924.522	50.55
924.891	50.55
925.26	50.53
925.629	50.54
925.998	50.51
926.367	50.5
926.736	50.47
927.104	50.49
927.473	50.46
927.842	50.42
928.21	50.4
928.578	50.35
928.947	50.35
929.315	50.36
929.683	50.31
930.051	50.3
930.42	50.31
930.788	50.27
931.156	50.21
931.523	50.23
931.891	50.29
932.259	50.27
932.627	50.26
932.994	50.24
933.362	50.2
933.729	50.25
934.097	50.25
934.464	50.23
934.831	50.27
935.199	50.33
935.566	50.32
935.933	50.25
936.3	50.26
936.667	50.29
937.034	50.33
937.401	50.42
937.767	50.39
938.134	50.41
938.501	50.47
938.867	50.55
939.234	50.5
939.6	50.5
939.967	50.56
940.333	50.53
940.699	50.54
941.065	50.47
941.431	50.42
941.798	50.38
942.163	50.37
942.529	50.32
942.895	50.25
943.261	50.28
943.627	50.28
943.992	50.26
944.358	50.28
944.723	50.25
945.089	50.2
945.454	50.15
945.82	50.14
946.185	50.11
946.55	50.03
946.915	50.06
947.28	50.01
947.645	50.01
948.01	50.01
948.375	49.96
948.74	49.92
949.104	50.01
949.469	50.03
949.834	50.01
950.198	50.02
950.562	50.03
950.927	49.97
951.291	49.88
951.655	49.78
952.02	49.76
952.384	49.71
952.748	49.68
953.112	49.6
953.476	49.58
953.839	49.51
954.203	49.53
954.567	49.52
954.931	49.48
955.294	49.5
955.658	49.64
956.021	49.61
956.385	49.63
956.748	49.62
957.111	49.54
957.474	49.54
957.837	49.54
958.2	49.45
958.563	49.44
958.926	49.48
959.289	49.5
959.652	49.43
960.015	49.43
960.377	49.44
960.74	49.48
961.102	49.59
961.465	49.62
961.827	49.73
962.189	49.77
962.552	49.77
962.914	49.74
963.276	49.74
963.638	49.73
964	49.74
964.362	49.76
964.724	49.69
965.085	49.67
965.447	49.62
965.809	49.57
966.17	49.55
966.532	49.55
966.893	49.56
967.255	49.57
967.616	49.59
967.977	49.57
968.338	49.53
968.699	49.57
969.061	49.51
969.421	49.53
969.782	49.53
970.143	49.53
970.504	49.58
970.865	49.61
971.225	49.56
971.586	49.58
971.946	49.55
972.307	49.54
972.667	49.5
973.027	49.57
973.388	49.54
973.748	49.55
974.108	49.61
974.468	49.54
974.828	49.59
975.188	49.62
975.548	49.56
975.907	49.57
976.267	49.58
976.627	49.64
976.986	49.58
977.346	49.56
977.705	49.52
978.064	49.43
978.424	49.46
978.783	49.37
979.142	49.36
979.501	49.37
979.86	49.4
980.219	49.38
980.578	49.39
980.937	49.43
981.296	49.48
981.654	49.53
982.013	49.57
982.371	49.55
982.73	49.57
983.088	49.51
983.447	49.43
983.805	49.46
984.163	49.44
984.521	49.38
984.879	49.32
985.237	49.3
985.595	49.29
985.953	49.26
986.311	49.26
986.669	49.28
987.026	49.33
987.384	49.46
987.741	49.4
988.099	49.51
988.456	49.54
988.814	49.51
989.171	49.51
989.528	49.52
989.885	49.53
990.242	49.54
990.599	49.57
990.956	49.64
991.313	49.56
991.67	49.61
992.027	49.62
992.383	49.65
992.74	49.83
993.096	49.88
993.453	49.91
993.809	49.9
994.165	49.99
994.522	50.05
994.878	50.07
995.234	50.12
995.59	50.12
995.946	50.06
996.302	50.11
996.658	50.09
997.013	50.05
997.369	50.02
997.725	50.1
998.08	50.05
998.436	50.02
998.791	49.96
999.147	49.94
999.502	50.02
999.857	50.02
1000.212	49.96
1000.567	49.93
1000.922	49.92
1001.277	49.97
1001.632	49.88
1001.987	49.9
1002.342	49.74
1002.696	49.75
1003.051	49.94
1003.406	49.94
1003.76	49.98
1004.114	49.97
1004.469	49.97
1004.823	50.28
1005.177	50.27
1005.531	50.46
1005.885	50.49
1006.239	50.64
1006.593	50.67
1006.947	50.52
1007.301	50.43
1007.655	50.42
1008.008	50.57
1008.362	50.62
1008.715	50.4
1009.069	50.46
1009.422	50.44
1009.776	50.43
1010.129	50.5
1010.482	50.57
1010.835	50.63
1011.188	50.66
1011.541	50.7
1011.894	50.73
1012.247	50.67
1012.6	50.75
1012.952	50.61
1013.305	50.59
1013.657	50.65
1014.01	50.54
1014.362	50.36
1014.715	50.37
1015.067	50.45
1015.419	50.73
1015.771	50.55
1016.123	50.64
1016.475	50.59
1016.827	50.64
1017.179	50.76
1017.531	50.73
1017.883	50.89
1018.234	51.12
1018.586	51.27
1018.938	51.47
1019.289	51.1
1019.64	51.26
1019.992	51.21
1020.343	51.26
1020.694	51.5
1021.045	51.46
1021.396	51.49
1021.747	51.54
1022.098	51.66
1022.449	51.47
1022.8	51.5
1023.151	51.72
1023.501	51.76
1023.852	51.97
1024.202	51.8
1024.553	51.77
1024.903	51.85
1025.253	52.22
1025.604	52.19
1025.954	52
1026.304	52.39
1026.654	52.26
1027.004	52.22
1027.354	52.07
1027.703	51.99
1028.053	52.13
1028.403	52.23
1028.753	51.79
1029.102	51.52
1029.452	51.48
1029.801	51.6
1030.15	51.31
1030.499	51.19
897.758	1188.38
901.051	1200.6
904.343	1194.4
907.636	1217.83
910.928	1186.59
914.22	1185.75
917.511	1170.2
920.803	1119.74
924.094	1111.49
927.384	1086.93
930.675	1041.02
933.965	1036.62
937.255	971.99
940.544	935.15
943.834	892.14
947.123	884.39
950.411	832.6
953.7	817.58
956.988	778.33
960.276	748.06
963.563	736.58
966.851	714.81
970.138	707.83
973.424	688.44
976.711	690.84
979.997	655.47
983.283	650.13
986.568	638.12
989.853	618.12
993.138	603.3
996.423	583.99
999.708	566.16
1002.992	556.93
1006.275	533.67
1009.559	528.17
1012.842	509.96
1016.125	497.26
1019.408	488.91
1022.69	481.11
1025.972	472.02
1029.254	462.35
1032.536	452.86
1035.817	444.86
1039.098	440.24
1042.379	430.44
1045.659	426.34
1048.939	416.11
1052.219	407.11
1055.498	401.77
1058.778	393.02
1062.057	384.16
1065.335	380.13
1068.614	376.1
1071.892	371.65
1075.17	360.84
1078.447	354.55
1081.724	350.63
1085.001	348.55
1088.278	341.55
1091.554	334.78
1094.83	335.26
1098.106	333.09
1101.382	330.38
1104.657	328.16
1107.932	322.53
1111.206	323.8
1114.481	315.71
1117.755	313.51
1121.029	310.54
1124.302	311.09
1127.575	304.46
1130.848	300.91
1134.121	297.45
1137.393	295.49
1140.665	289.05
1143.937	288.1
1147.208	286.53
1150.48	285.84
1153.75	282.63
1157.021	278.5
1160.291	278.35
1163.561	276.41
1166.831	275.76
1170.101	273.22
1173.37	273.11
1176.639	274.2
1179.907	270.62
1183.176	267.07
1186.444	267.51
1189.711	266.75
1192.979	266.45
1196.246	263.72
1199.513	265.07
1202.78	264.1
1206.046	264.11
1209.312	261.64
1212.578	261.77
1215.843	265
1219.108	263.1
1222.373	267.7
1225.638	269.48
1228.902	273.38
1232.166	274.52
1235.43	275.82
1238.693	279.29
1241.956	281.02
1245.219	285.04
1248.482	284.92
1251.744	284.55
1255.006	285.01
1258.268	278.67
1261.529	276.5
1264.79	274.24
1268.051	272.55
1271.312	269.52
1274.572	267.03
1277.832	264.06
1281.092	259.68
1284.351	257.77
1287.61	257.61
1290.869	255.01
1294.128	253.37
1297.386	252.66
1300.644	249.73
1303.902	250.83
1307.159	249.66
1310.416	249.14
1313.673	248.82
1316.93	251.88
1320.186	251.33
1323.442	252
1326.697	255.57
1329.953	256.36
1333.208	257.72
1336.463	260.97
1339.717	260.79
1342.972	264.24
1346.226	266.15
1349.479	267.32
1352.733	268.37
1355.986	269.95
1359.238	269.27
1362.491	270.79
1365.743	273.04
1368.995	273.01
1372.247	271.46
1375.498	271.67
1378.749	273.31
1382	269.96
1385.251	270.87
1388.501	268.31
1391.751	268.8
1395	268.15
1398.25	266.11
1401.499	264.01
1404.748	263.19
1407.996	262.28
1411.244	260.91
1414.492	259.21
1417.74	256.58
1420.987	252.07
1424.234	252.28
1427.481	249.13
1430.728	248.63
1433.974	246.66
1437.22	244.37
1440.465	243.41
1443.711	240.6
1446.956	238.77
1450.201	236.03
1453.445	233.84
1456.689	233.74
1459.933	229.47
1463.177	227.35
1466.42	223.48
1469.663	220.11
1472.906	219.01
1476.148	214.47
1479.391	212.14
1482.633	210.47
1485.874	207.34
1489.115	205.92
1492.356	203.63
1495.597	203.35
1498.838	200.69
1502.078	200.25
1505.318	199.79
1508.557	199.47
1511.797	199.09
1515.036	198.15
1518.274	197.05
1521.513	195.91
1524.751	195.57
1527.989	195.1
1531.227	194.27
1534.464	194.86
1537.701	193.1
1540.938	192.85
1544.174	190.31
1547.41	190.6
1550.646	189.16
1553.882	189.78
1557.117	186.99
1560.352	186.74
1563.587	186.05
1566.821	184.82
1570.055	183.56
1573.289	182.69
1576.523	182.22
1579.756	181.43
1582.989	180.05
1586.222	179.72
1589.454	179.26
1592.686	180.62
1595.918	179.28
1599.15	178.84
1602.381	179.44
1605.612	178.97
1608.843	179.51
1612.073	179.38
1615.303	180.57
1618.533	180.46
1621.762	180.59
1624.992	180.58
1628.221	180.1
1631.449	180.33
1634.678	180.19
1637.906	180.65
1641.134	181.05
1644.361	180.77
1647.588	181.17
1650.815	180.14
1654.042	179.72
1657.269	181.14
1660.495	180.82
1663.72	180.53
1666.946	181.33
1670.171	181.59
1673.396	181.02
1676.621	180.74
1679.845	181.33
1683.069	181.25
1686.293	182.61
1689.517	183.82
1692.74	183.45
1695.963	183.87
1699.185	185.79
1702.408	185.85
1705.63	186.66
1708.852	187.24
1712.073	187.73
1715.294	188.09
1718.515	189.19
1721.736	188.79
1724.956	189.08
1728.176	188.91
1731.396	190.42
1734.616	189.23
1737.835	189.79
1741.054	188.28
1744.272	188.96
1747.491	190.36
1750.709	190.11
1753.927	189.89
1757.144	189.84
1760.361	190
1763.578	190.88
1766.795	190.31
1770.011	191.6
1773.227	191.37
1776.443	194.04
1779.658	194.71
1782.874	193.77
1786.089	195.28
1789.303	195.55
1792.518	197.62
1795.732	197.69
1798.945	198.59
1802.159	199.13
1805.372	199.86
1808.585	203.31
1811.797	203.61
1815.01	203.83
1818.222	205.89
1821.434	206.52
1824.645	207.38
1827.856	210.74
1831.067	212.34
1834.278	212.01
1837.488	213.66
1840.698	215.19
1843.908	213.01
1847.117	213.66
1850.326	214.85
1853.535	213.61
1856.744	217.27
1859.952	216.46
1863.16	214.43
1866.368	213.22
1869.575	215.49
1872.782	211.51
1875.989	210.63
1879.196	208.82
1882.402	207.63
1885.608	207.82
1888.814	208.7
1892.019	206.76
1895.224	206.63
1898.429	205.27
1901.634	205.45
1904.838	205.81
1908.042	207.89
1911.246	207.76
1914.449	210.02
1917.652	209.6
1920.855	209.57
1924.058	209.49
1927.26	208.71
1930.462	208.97
1933.664	211.87
1936.865	210.17
1940.066	209.19
1943.267	208.29
1946.467	208
1949.668	209.33
1952.868	212.15
1956.067	212.19
1959.267	211.72
1962.466	212.51
1965.665	211.71
1968.863	211.79
1972.061	215.34
1975.259	217.22
1978.457	218.84
1981.654	221.41
1984.852	221.92
1988.048	220.9
1991.245	222.77
1994.441	225.56
1997.637	227.35
2000.833	232.34
2004.028	235.07
2007.223	236.44
2010.418	238.36
2013.613	242.33
2016.807	244.89
2020.001	246.88
2023.194	251.35
2026.388	256.73
2029.581	262.52
2032.774	264.32
2035.966	269.04
2039.158	269.79
2042.35	275.82
2045.542	277.17
2048.733	281.34
2051.924	284.27
2055.115	289.96
2058.306	289.97
2061.496	292.75
2064.686	292.44
2067.875	298.31
2071.065	299.29
2074.254	297.62
2077.442	299.79
2080.631	302.56
2083.819	305.63
2087.007	306.91
2090.195	309.24
2093.382	312.43
2096.569	310.84
2099.756	315.49
2102.942	316.22
2106.128	319.27
2109.314	326.62
2112.5	325.73
2115.685	332.94
2118.87	332.85
2122.055	340.4
2125.239	342.6
2128.424	346.7
2131.608	350.4
2134.791	355.77
2137.974	357.12
2141.157	357.64
2144.34	359.27
2147.523	365.37
2150.705	362.81
2153.887	366.02
2157.068	365.41
2160.25	363.14
2163.431	364.02
2166.611	367.76
2169.792	374.62
2172.972	378.71
2176.152	381.78
2179.331	386.36
2182.511	392.11
2185.69	395.28
2188.868	404.3
2192.047	405.54
2195.225	417.48
2198.403	425.82
2201.58	432.41
2204.758	440.51
2207.935	449.63
2211.111	456.88
2214.288	462.9
2217.464	464.42
2220.64	473.24
2223.815	478.54
2226.991	495.98
2230.166	495.5
2233.34	506.96
2236.515	515.71
2239.689	515.3
2242.863	517.31
2246.036	532.61
2249.209	529.18
2252.382	536.8
2255.555	553.27
2258.727	554.89
2261.9	558.53
2265.071	564.09
2268.243	573.32
2271.414	578.76
2274.585	590.97
2277.756	597.66
2280.926	600.77
2284.096	614.8
2287.266	627.9
2290.436	629.05
2293.605	645.77
2296.774	665.42
2299.942	686.81
2303.111	690.17
2306.279	707.65
2309.447	715.89
2312.614	735.07
2315.781	757.03
2318.948	788.83
2322.115	778.98
2325.281	823.17
2328.447	808.1
2331.613	838.55
2334.779	830.21
2337.944	864.97
2341.109	870.76
2344.274	898.48
2347.438	927.01
2350.602	925.06
2353.766	955.84
2356.929	969.95
2360.092	963.17
2363.255	1027.6
2366.418	1028.74
2369.58	1047.16
2372.742	1111.64
2375.904	1143.34
2379.066	1135.64
2382.227	1116.82
2385.388	1209.54
2388.548	1209.81
2391.709	1226.45
2394.869	1364.85
2398.029	1306.2
2401.188	1340.9
2404.347	1334.28
2407.506	1313.56
2410.665	1347.27
2413.823	1425.19
2416.981	1508.12
2420.139	1460.89
2423.296	1448.05
2426.453	1508.59
2429.61	1452.08
2432.767	1519.21
2435.923	1503.74
2439.079	1646.87
2442.235	1662.33
2445.391	1650.57
2448.546	1640.33
2451.701	1589.29
2454.855	1589.8
2458.009	1679.58
2461.163	1748.28
2464.317	1813.75
2467.471	1859.93
2470.624	1862.56
2473.777	1808.43
2476.929	1773.81
2480.082	1721.3
2483.234	1702.48
2486.385	1788.67
2489.537	1797.99
2492.688	1862.47
2495.839	1812.11
2498.989	1771.85
2502.14	1780.65
2505.29	1793.86
2508.439	1830.95
2511.589	1820.73
2514.738	1982.83
2517.887	1937.34
2521.035	2046.15
2524.183	2068.45
2527.331	2087.27
2530.479	2078.59
2533.627	2090.96
