Data from C_1_HIR_IL_4N_Splice17_12-47-54-950.txt Node
Date: Sat Mar 07 12:47:54 EST 2020
User: sa697716
Spectrometer: NQ5500242
Trigger mode: 0
Integration Time (sec): 1.450000E-1
Scans to average: 20
Nonlinearity correction enabled: false
Boxcar width: 5
Storing dark spectrum: false
XAxis mode: Wavelengths
Number of Pixels in Spectrum: 512
>>>>>Begin Spectral Data<<<<<
187.83	61.17
188.298	80.12
188.766	73.7
189.233	55.11
189.701	44.9
190.169	60.93
190.636	46.03
191.104	-15.65
191.571	-73.85
192.039	-248.73
192.506	-161.81
192.974	66.22
193.441	109.98
193.908	48.92
194.375	52.76
194.842	-16.54
195.31	15.06
195.777	-5.44
196.244	32.66
196.711	31.87
197.177	32.4
197.644	33.28
198.111	32.8
198.578	33.32
199.045	33.61
199.511	33.05
199.978	33.02
200.445	33.27
200.911	33.29
201.378	33.27
201.844	33.55
202.31	33.37
202.777	33.38
203.243	33.56
203.709	33.2
204.176	32.84
204.642	32.87
205.108	32.85
205.574	32.67
206.04	32.2
206.506	31.87
206.972	31.83
207.438	31.64
207.903	31.09
208.369	30.52
208.835	30.48
209.301	30.21
209.766	29.54
210.232	29.08
210.697	28.44
211.163	28.14
211.628	27.76
212.094	27.1
212.559	26.92
213.024	26.62
213.49	26.21
213.955	25.54
214.42	25.2
214.885	24.72
215.35	24.08
215.815	23.21
216.28	22.11
216.745	20.84
217.21	19.74
217.675	18.58
218.14	17.79
218.604	17.09
219.069	16.57
219.534	16.01
219.998	15.61
220.463	15.31
220.927	14.98
221.392	14.73
221.856	14.53
222.32	14.38
222.785	14.24
223.249	14.06
223.713	13.92
224.177	13.74
224.642	13.61
225.106	13.45
225.57	13.29
226.034	13.17
226.497	13.04
226.961	12.92
227.425	12.76
227.889	12.63
228.353	12.49
228.816	12.35
229.28	12.22
229.744	12.1
230.207	11.98
230.671	11.87
231.134	11.76
231.597	11.66
232.061	11.55
232.524	11.46
232.987	11.35
233.45	11.28
233.914	11.19
234.377	11.1
234.84	11.01
235.303	10.92
235.766	10.84
236.229	10.74
236.691	10.66
237.154	10.58
237.617	10.5
238.08	10.41
238.542	10.31
239.005	10.23
239.468	10.15
239.93	10.08
240.393	10.01
240.855	9.92
241.317	9.86
241.78	9.78
242.242	9.71
242.704	9.64
243.166	9.59
243.629	9.54
244.091	9.48
244.553	9.43
245.015	9.36
245.477	9.3
245.939	9.26
246.4	9.21
246.862	9.16
247.324	9.11
247.786	9.06
248.247	9.01
248.709	8.96
249.17	8.89
249.632	8.85
250.093	8.81
250.555	8.77
251.016	8.73
251.477	8.69
251.939	8.66
252.4	8.62
252.861	8.59
253.322	8.56
253.783	8.53
254.244	8.51
254.705	8.47
255.166	8.43
255.627	8.4
256.088	8.36
256.549	8.32
257.009	8.28
257.47	8.24
257.931	8.2
258.391	8.15
258.852	8.1
259.312	8.07
259.773	8.04
260.233	8.01
260.694	7.97
261.154	7.94
261.614	7.92
262.074	7.89
262.534	7.87
262.994	7.85
263.455	7.83
263.915	7.82
264.374	7.8
264.834	7.78
265.294	7.76
265.754	7.75
266.214	7.74
266.673	7.73
267.133	7.72
267.593	7.71
268.052	7.7
268.512	7.69
268.971	7.67
269.431	7.66
269.89	7.65
270.349	7.64
270.809	7.62
271.268	7.61
271.727	7.6
272.186	7.58
272.645	7.57
273.104	7.54
273.563	7.52
274.022	7.51
274.481	7.5
274.94	7.48
275.399	7.46
275.857	7.45
276.316	7.43
276.775	7.41
277.233	7.39
277.692	7.38
278.15	7.37
278.609	7.36
279.067	7.34
279.525	7.32
279.984	7.29
280.442	7.27
280.9	7.25
281.358	7.23
281.816	7.21
282.274	7.19
282.732	7.16
283.19	7.13
283.648	7.11
284.106	7.08
284.564	7.05
285.021	7.03
285.479	7.01
285.937	6.98
286.394	6.95
286.852	6.93
287.309	6.89
287.767	6.87
288.224	6.85
288.682	6.82
289.139	6.8
289.596	6.78
290.053	6.75
290.511	6.73
290.968	6.72
291.425	6.71
291.882	6.69
292.339	6.68
292.796	6.66
293.252	6.65
293.709	6.64
294.166	6.62
294.623	6.61
295.079	6.6
295.536	6.58
295.992	6.57
296.449	6.56
296.905	6.55
297.362	6.53
297.818	6.52
298.274	6.5
298.731	6.49
299.187	6.48
299.643	6.46
300.099	6.45
300.555	6.43
301.011	6.41
301.467	6.4
301.923	6.38
302.379	6.36
302.835	6.35
303.291	6.34
303.746	6.33
304.202	6.32
304.658	6.31
305.113	6.29
305.569	6.27
306.024	6.26
306.479	6.24
306.935	6.23
307.39	6.22
307.845	6.2
308.301	6.18
308.756	6.17
309.211	6.15
309.666	6.15
310.121	6.14
310.576	6.13
311.031	6.11
311.486	6.1
311.94	6.1
312.395	6.08
312.85	6.08
313.305	6.07
313.759	6.08
314.214	6.06
314.668	6.03
315.123	6.02
315.577	6.01
316.032	6
316.486	5.98
316.94	5.97
317.394	5.95
317.849	5.93
318.303	5.91
318.757	5.88
319.211	5.88
319.665	5.87
320.119	5.86
320.572	5.85
321.026	5.84
321.48	5.83
321.934	5.81
322.387	5.8
322.841	5.8
323.295	5.79
323.748	5.79
324.202	5.78
324.655	5.77
325.108	5.76
325.562	5.75
326.015	5.74
326.468	5.73
326.921	5.73
327.374	5.73
327.827	5.72
328.28	5.7
328.733	5.7
329.186	5.69
329.639	5.68
330.092	5.67
330.545	5.66
330.997	5.64
331.45	5.64
331.903	5.63
332.355	5.63
332.808	5.63
333.26	5.62
333.713	5.61
334.165	5.6
334.617	5.6
335.069	5.59
335.522	5.59
335.974	5.59
336.426	5.58
336.878	5.57
337.33	5.56
337.782	5.55
338.234	5.55
338.686	5.55
339.137	5.55
339.589	5.54
340.041	5.54
340.493	5.52
340.944	5.5
341.396	5.49
341.847	5.48
342.299	5.46
342.75	5.45
343.201	5.43
343.653	5.41
344.104	5.39
344.555	5.37
345.006	5.36
345.457	5.35
345.908	5.35
346.359	5.35
346.81	5.33
347.261	5.32
347.712	5.32
348.163	5.31
348.613	5.31
349.064	5.31
349.515	5.31
349.965	5.3
350.416	5.3
350.866	5.3
351.317	5.29
351.767	5.29
352.217	5.29
352.668	5.28
353.118	5.28
353.568	5.28
354.018	5.28
354.468	5.28
354.918	5.28
355.368	5.27
355.818	5.27
356.268	5.27
356.718	5.26
357.168	5.25
357.617	5.25
358.067	5.24
358.517	5.25
358.966	5.24
359.416	5.23
359.865	5.23
360.315	5.23
360.764	5.23
361.213	5.22
361.663	5.22
362.112	5.23
362.561	5.23
363.01	5.23
363.459	5.21
363.908	5.2
364.357	5.21
364.806	5.2
365.255	5.19
365.703	5.19
366.152	5.19
366.601	5.19
367.05	5.18
367.498	5.17
367.947	5.17
368.395	5.17
368.844	5.16
369.292	5.15
369.74	5.16
370.189	5.16
370.637	5.14
371.085	5.14
371.533	5.15
371.981	5.15
372.429	5.15
372.877	5.15
373.325	5.16
373.773	5.16
374.221	5.15
374.669	5.15
375.116	5.14
375.564	5.15
376.012	5.14
376.459	5.14
376.907	5.15
377.354	5.15
377.801	5.17
378.249	5.17
378.696	5.18
379.143	5.19
379.591	5.19
380.038	5.2
380.485	5.2
380.932	5.21
381.379	5.21
381.826	5.21
382.273	5.21
382.72	5.21
383.166	5.21
383.613	5.22
384.06	5.22
384.506	5.23
384.953	5.24
385.4	5.24
385.846	5.26
386.292	5.27
386.739	5.28
387.185	5.28
387.631	5.3
388.078	5.31
388.524	5.32
388.97	5.32
389.416	5.34
389.862	5.35
390.308	5.37
390.754	5.38
391.2	5.39
391.645	5.4
392.091	5.43
392.537	5.44
392.983	5.46
393.428	5.47
393.874	5.48
394.319	5.49
394.765	5.49
395.21	5.5
395.655	5.51
396.101	5.53
396.546	5.54
396.991	5.54
397.436	5.56
397.881	5.58
398.326	5.6
398.771	5.61
399.216	5.63
399.661	5.65
400.106	5.67
400.551	5.67
400.995	5.67
401.44	5.69
401.885	5.69
402.329	5.7
402.774	5.69
403.218	5.71
403.663	5.72
404.107	5.72
404.551	5.73
404.995	5.72
405.44	5.73
405.884	5.74
406.328	5.74
406.772	5.75
407.216	5.76
407.66	5.76
408.104	5.74
408.547	5.73
408.991	5.73
409.435	5.73
409.879	5.73
410.322	5.73
410.766	5.74
411.209	5.75
411.653	5.75
412.096	5.76
412.54	5.76
412.983	5.76
413.426	5.78
413.869	5.78
414.312	5.8
414.756	5.82
415.199	5.82
415.642	5.81
416.085	5.83
416.527	5.82
416.97	5.8
417.413	5.8
417.856	5.79
418.298	5.78
418.741	5.78
419.184	5.77
419.626	5.76
420.069	5.75
420.511	5.77
420.953	5.77
421.396	5.77
421.838	5.78
422.28	5.78
422.722	5.8
423.164	5.8
423.606	5.8
424.048	5.8
424.49	5.79
424.932	5.79
425.374	5.76
425.816	5.73
426.258	5.72
426.699	5.7
427.141	5.68
427.582	5.67
428.024	5.67
428.465	5.67
428.907	5.65
429.348	5.66
429.789	5.65
430.231	5.65
430.672	5.67
431.113	5.68
431.554	5.69
431.995	5.69
432.436	5.69
432.877	5.68
433.318	5.68
433.759	5.69
434.2	5.7
434.64	5.71
435.081	5.72
435.522	5.72
435.962	5.71
436.403	5.73
436.843	5.74
437.284	5.74
437.724	5.74
438.164	5.73
438.604	5.73
439.045	5.72
439.485	5.72
439.925	5.71
440.365	5.72
440.805	5.73
441.245	5.73
441.685	5.72
442.125	5.73
442.564	5.73
443.004	5.73
443.444	5.72
443.883	5.73
444.323	5.73
444.762	5.73
445.202	5.72
445.641	5.72
446.081	5.74
446.52	5.74
446.959	5.75
447.398	5.76
447.837	5.76
448.276	5.75
448.716	5.76
449.154	5.78
449.593	5.79
450.032	5.78
450.471	5.76
450.91	5.75
451.349	5.74
451.787	5.74
452.226	5.74
452.664	5.74
453.103	5.73
453.541	5.73
453.98	5.73
454.418	5.7
454.856	5.7
455.295	5.71
455.733	5.68
456.171	5.67
456.609	5.67
457.047	5.65
457.485	5.64
457.923	5.65
458.361	5.63
458.798	5.61
459.236	5.62
459.674	5.61
460.111	5.59
460.549	5.6
460.987	5.61
461.424	5.61
461.862	5.62
462.299	5.63
462.736	5.62
463.173	5.62
463.611	5.63
464.048	5.63
464.485	5.65
464.922	5.66
465.359	5.67
465.796	5.68
466.233	5.67
466.67	5.67
467.106	5.68
467.543	5.68
467.98	5.68
468.416	5.67
468.853	5.68
469.29	5.67
469.726	5.67
470.162	5.66
470.599	5.66
471.035	5.66
471.471	5.66
471.907	5.65
472.344	5.64
472.78	5.64
473.216	5.65
473.652	5.65
474.088	5.63
474.523	5.63
474.959	5.62
475.395	5.59
475.831	5.59
476.266	5.6
476.702	5.58
477.138	5.58
477.573	5.58
478.008	5.57
478.444	5.55
478.879	5.56
479.314	5.55
479.75	5.55
480.185	5.54
480.62	5.53
481.055	5.52
481.49	5.51
481.925	5.51
482.36	5.5
482.795	5.49
483.229	5.48
483.664	5.48
484.099	5.47
484.534	5.47
484.968	5.48
485.403	5.48
485.837	5.49
486.271	5.51
486.706	5.51
487.14	5.52
487.574	5.54
488.009	5.55
488.443	5.56
488.877	5.58
489.311	5.6
489.745	5.62
490.179	5.64
490.613	5.66
491.046	5.68
491.48	5.71
491.914	5.73
492.348	5.76
492.781	5.8
493.215	5.83
493.648	5.87
494.082	5.9
494.515	5.93
494.948	5.97
495.382	6.01
495.815	6.06
496.248	6.11
496.681	6.16
497.114	6.2
497.547	6.25
497.98	6.3
498.413	6.35
498.846	6.41
499.279	6.48
499.711	6.55
500.144	6.64
500.577	6.71
501.009	6.8
501.442	6.89
501.874	6.99
502.306	7.1
502.739	7.21
503.171	7.33
503.603	7.45
504.036	7.57
504.468	7.69
504.9	7.81
505.332	7.94
505.764	8.08
506.196	8.23
506.627	8.39
507.059	8.54
507.491	8.7
507.923	8.86
508.354	9.03
508.786	9.22
509.217	9.41
509.649	9.61
510.08	9.81
510.512	10.02
510.943	10.23
511.374	10.43
511.805	10.64
512.237	10.85
512.668	11.06
513.099	11.28
513.53	11.49
513.961	11.72
514.391	11.96
514.822	12.2
515.253	12.44
515.684	12.68
516.114	12.94
516.545	13.2
516.975	13.47
517.406	13.74
517.836	14.03
518.267	14.3
518.697	14.56
519.127	14.81
519.558	15.07
519.988	15.34
520.418	15.59
520.848	15.85
521.278	16.1
521.708	16.47
522.138	16.7
522.567	16.92
522.997	17.15
523.427	17.4
523.857	17.61
524.286	17.82
524.716	18.03
525.145	18.25
525.575	18.45
526.004	18.65
526.433	18.71
526.863	18.91
527.292	19.1
527.721	19.27
528.15	19.42
528.579	19.58
529.008	19.72
529.437	19.86
529.866	19.98
530.295	20.11
530.724	20.23
531.152	20.35
531.581	20.46
532.01	20.58
532.438	20.68
532.867	20.79
533.295	20.89
533.723	20.98
534.152	21.06
534.58	21.14
535.008	21.2
535.436	21.27
535.865	21.32
536.293	21.37
536.721	21.4
537.149	21.46
537.576	21.49
538.004	21.54
538.432	21.59
538.86	21.64
539.287	21.67
539.715	21.73
540.143	21.76
540.57	21.8
540.998	21.83
541.425	21.85
541.852	21.87
542.28	21.9
542.707	21.93
543.134	21.94
543.561	21.97
543.988	22.01
544.415	22.02
544.842	22.04
545.269	22.07
545.696	22.1
546.123	22.13
546.549	22.15
546.976	22.2
547.403	22.22
547.829	22.25
548.256	22.25
548.682	22.26
549.108	22.28
549.535	22.3
549.961	22.31
550.387	22.3
550.813	22.31
551.24	22.32
551.666	22.3
552.092	22.27
552.518	22.26
552.943	22.24
553.369	22.21
553.795	22.18
554.221	22.13
554.646	22.08
555.072	22.04
555.498	21.98
555.923	21.91
556.349	21.85
556.774	21.79
557.199	21.72
557.625	21.64
558.05	21.57
558.475	21.48
558.9	21.42
559.325	21.35
559.75	21.27
560.175	21.17
560.6	21.07
561.025	20.99
561.449	20.88
561.874	20.76
562.299	20.66
562.723	20.55
563.148	20.43
563.572	20.29
563.997	20.16
564.421	20.02
564.846	19.9
565.27	19.76
565.694	19.62
566.118	19.48
566.542	19.35
566.966	19.2
567.39	19.06
567.814	18.92
568.238	18.79
568.662	18.67
569.086	18.53
569.509	18.39
569.933	18.26
570.357	18.14
570.78	18
571.204	17.87
571.627	17.75
572.05	17.62
572.474	17.5
572.897	17.37
573.32	17.24
573.743	17.12
574.166	17.01
574.589	16.9
575.012	16.78
575.435	16.69
575.858	16.58
576.281	16.48
576.704	16.38
577.126	16.28
577.549	16.18
577.972	16.11
578.394	16.02
578.817	15.93
579.239	15.85
579.661	15.76
580.084	15.67
580.506	15.6
580.928	15.52
581.35	15.45
581.772	15.37
582.194	15.29
582.616	15.21
583.038	15.13
583.46	15.06
583.882	14.99
584.303	14.91
584.725	14.84
585.147	14.76
585.568	14.7
585.99	14.64
586.411	14.58
586.833	14.52
587.254	14.46
587.675	14.41
588.096	14.35
588.518	14.31
588.939	14.27
589.36	14.22
589.781	14.19
590.202	14.15
590.623	14.1
591.043	14.06
591.464	14.02
591.885	13.98
592.305	13.96
592.726	13.93
593.147	13.89
593.567	13.86
593.987	13.83
594.408	13.81
594.828	13.77
595.248	13.75
595.669	13.72
596.089	13.69
596.509	13.66
596.929	13.63
597.349	13.61
597.769	13.58
598.189	13.54
598.608	13.52
599.028	13.48
599.448	13.45
599.867	13.41
600.287	13.38
600.706	13.34
601.126	13.31
601.545	13.28
601.965	13.24
602.384	13.2
602.803	13.16
603.222	13.1
603.641	13.06
604.061	13.01
604.48	12.96
604.898	12.89
605.317	12.83
605.736	12.76
606.155	12.7
606.574	12.63
606.992	12.55
607.411	12.48
607.829	12.38
608.248	12.3
608.666	12.23
609.085	12.15
609.503	12.09
609.921	12.02
610.339	11.95
610.758	11.88
611.176	11.81
611.594	11.74
612.012	11.66
612.43	11.62
612.847	11.55
613.265	11.48
613.683	11.42
614.101	11.35
614.518	11.28
614.936	11.22
615.353	11.13
615.771	11.08
616.188	11.02
616.606	10.97
617.023	10.92
617.44	10.89
617.857	10.85
618.274	10.8
618.691	10.75
619.108	10.7
619.525	10.65
619.942	10.63
620.359	10.6
620.776	10.56
621.192	10.52
621.609	10.49
622.026	10.45
622.442	10.43
622.859	10.4
623.275	10.38
623.691	10.36
624.108	10.35
624.524	10.34
624.94	10.32
625.356	10.32
625.772	10.31
626.188	10.3
626.604	10.29
627.02	10.28
627.436	10.28
627.852	10.26
628.268	10.26
628.683	10.25
629.099	10.23
629.514	10.22
629.93	10.2
630.345	10.18
630.761	10.15
631.176	10.11
631.591	10.09
632.007	10.05
632.422	10.01
632.837	9.97
633.252	9.92
633.667	9.88
634.082	9.82
634.497	9.76
634.911	9.71
635.326	9.66
635.741	9.6
636.155	9.52
636.57	9.46
636.984	9.4
637.399	9.33
637.813	9.24
638.228	9.16
638.642	9.07
639.056	8.99
639.47	8.9
639.884	8.81
640.298	8.71
640.712	8.63
641.126	8.54
641.54	8.44
641.954	8.35
642.368	8.27
642.781	8.19
643.195	8.1
643.609	8.01
644.022	7.93
644.436	7.85
644.849	7.79
645.262	7.71
645.676	7.63
646.089	7.56
646.502	7.5
646.915	7.44
647.328	7.38
647.741	7.32
648.154	7.28
648.567	7.24
648.98	7.19
649.393	7.14
649.805	7.11
650.218	7.09
650.631	7.06
651.043	7.02
651.456	6.99
651.868	6.96
652.28	6.94
652.693	6.9
653.105	6.87
653.517	6.83
653.929	6.79
654.341	6.75
654.753	6.69
655.165	6.64
655.577	6.59
655.989	6.55
656.401	6.49
656.813	6.44
657.224	6.38
657.636	6.32
658.047	6.27
658.459	6.21
658.87	6.15
659.282	6.09
659.693	6.03
660.104	5.96
660.515	5.9
660.926	5.85
661.338	5.78
661.749	5.73
662.159	5.68
662.57	5.64
662.981	5.6
663.392	5.55
663.803	5.52
664.213	5.47
664.624	5.45
665.035	5.41
665.445	5.38
665.855	5.36
666.266	5.33
666.676	5.32
667.086	5.29
667.497	5.27
667.907	5.26
668.317	5.25
668.727	5.24
669.137	5.24
669.547	5.24
669.956	5.23
670.366	5.23
670.776	5.22
671.186	5.22
671.595	5.22
672.005	5.21
672.414	5.22
672.824	5.22
673.233	5.23
673.642	5.23
674.052	5.24
674.461	5.25
674.87	5.27
675.279	5.3
675.688	5.32
676.097	5.34
676.506	5.37
676.915	5.38
677.323	5.41
677.732	5.44
678.141	5.46
678.549	5.49
678.958	5.52
679.366	5.56
679.775	5.58
680.183	5.62
680.592	5.67
681	5.72
681.408	5.77
681.816	5.83
682.224	5.9
682.632	5.98
683.04	6.06
683.448	6.16
683.856	6.25
684.264	6.36
684.671	6.49
685.079	6.62
685.487	6.77
685.894	6.95
686.302	7.14
686.709	7.34
687.116	7.56
687.524	7.8
687.931	8.08
688.338	8.37
688.745	8.69
689.152	9
689.559	9.36
689.966	9.72
690.373	10.11
690.78	10.5
691.187	10.93
691.593	11.36
692	11.81
692.407	12.26
692.813	12.73
693.22	13.21
693.626	13.71
694.032	14.2
694.439	14.7
694.845	15.2
695.251	15.71
695.657	16.19
696.063	16.7
696.469	17.21
696.875	17.72
697.281	18.21
697.687	18.71
698.093	19.21
698.498	19.69
698.904	20.18
699.31	20.66
699.715	21.12
700.12	21.6
700.526	22.08
700.931	22.54
701.337	23
701.742	23.44
702.147	23.89
702.552	24.33
702.957	24.75
703.362	25.16
703.767	25.57
704.172	25.98
704.577	26.39
704.981	26.78
705.386	27.15
705.791	27.53
706.195	27.91
706.6	28.28
707.004	28.62
707.408	28.98
707.813	29.35
708.217	29.7
708.621	30.07
709.025	30.39
709.43	30.71
709.834	31.05
710.237	31.37
710.641	31.67
711.045	31.97
711.449	32.3
711.853	32.6
712.256	32.89
712.66	33.17
713.064	33.44
713.467	33.73
713.87	33.99
714.274	34.23
714.677	34.49
715.08	34.73
715.484	34.99
715.887	35.23
716.29	35.46
716.693	35.69
717.096	35.91
717.499	36.15
717.901	36.38
718.304	36.61
718.707	36.86
719.109	37.09
719.512	37.33
719.915	37.55
720.317	37.72
720.719	37.91
721.122	38.11
721.524	38.3
721.926	38.46
722.328	38.62
722.731	38.79
723.133	38.98
723.535	39.15
723.937	39.3
724.338	39.43
724.74	39.6
725.142	39.8
725.544	39.95
725.945	40.08
726.347	40.2
726.748	40.34
727.15	40.44
727.551	40.54
727.952	40.65
728.354	40.76
728.755	40.87
729.156	40.96
729.557	41.02
729.958	41.12
730.359	41.23
730.76	41.35
731.161	41.42
731.562	41.55
731.962	41.62
732.363	41.69
732.763	41.78
733.164	41.85
733.564	41.94
733.965	41.99
734.365	42.05
734.766	42.11
735.166	42.15
735.566	42.24
735.966	42.31
736.366	42.36
736.766	42.41
737.166	42.44
737.566	42.49
737.966	42.53
738.365	42.6
738.765	42.66
739.165	42.7
739.564	42.75
739.964	42.75
740.363	42.77
740.763	42.79
741.162	42.84
741.561	42.87
741.96	42.89
742.36	42.92
742.759	42.93
743.158	42.94
743.557	42.96
743.955	42.99
744.354	43.04
744.753	43.08
745.152	43.12
745.55	43.14
745.949	43.17
746.348	43.22
746.746	43.22
747.144	43.26
747.543	43.27
747.941	43.32
748.339	43.31
748.737	43.31
749.136	43.29
749.534	43.3
749.932	43.29
750.33	43.28
750.727	43.29
751.125	43.33
751.523	43.34
751.921	43.35
752.318	43.32
752.716	43.34
753.113	43.34
753.511	43.35
753.908	43.37
754.305	43.4
754.703	43.38
755.1	43.35
755.497	43.31
755.894	43.25
756.291	43.18
756.688	43.13
757.085	43.08
757.482	43.04
757.878	43
758.275	42.95
758.672	42.88
759.068	42.86
759.465	42.84
759.861	42.83
760.258	42.85
760.654	42.86
761.05	42.9
761.447	42.93
761.843	42.95
762.239	42.98
762.635	43
763.031	43.03
763.427	43.04
763.822	43.08
764.218	43.1
764.614	43.12
765.01	43.16
765.405	43.17
765.801	43.19
766.196	43.2
766.592	43.2
766.987	43.19
767.382	43.2
767.778	43.22
768.173	43.25
768.568	43.24
768.963	43.23
769.358	43.25
769.753	43.24
770.148	43.23
770.542	43.24
770.937	43.26
771.332	43.27
771.726	43.28
772.121	43.31
772.515	43.29
772.91	43.28
773.304	43.3
773.699	43.29
774.093	43.3
774.487	43.29
774.881	43.29
775.275	43.29
775.669	43.29
776.063	43.26
776.457	43.25
776.851	43.24
777.245	43.22
777.638	43.2
778.032	43.22
778.425	43.22
778.819	43.23
779.212	43.23
779.606	43.23
779.999	43.23
780.392	43.25
780.786	43.25
781.179	43.25
781.572	43.29
781.965	43.31
782.358	43.29
782.751	43.28
783.143	43.27
783.536	43.27
783.929	43.25
784.322	43.24
784.714	43.23
785.107	43.24
785.499	43.25
785.891	43.22
786.284	43.21
786.676	43.2
787.068	43.21
787.46	43.22
787.852	43.21
788.245	43.21
788.636	43.23
789.028	43.22
789.42	43.2
789.812	43.2
790.204	43.2
790.595	43.22
790.987	43.23
791.378	43.22
791.77	43.22
792.161	43.2
792.553	43.21
792.944	43.17
793.335	43.19
793.726	43.21
794.117	43.19
794.508	43.16
794.899	43.15
795.29	43.15
795.681	43.14
796.072	43.13
796.463	43.13
796.853	43.13
797.244	43.12
797.634	43.12
798.025	43.11
798.415	43.11
798.806	43.13
799.196	43.13
799.586	43.13
799.976	43.13
800.366	43.13
800.756	43.12
801.146	43.12
801.536	43.14
801.926	43.12
802.316	43.12
802.706	43.12
803.095	43.13
803.485	43.12
803.874	43.09
804.264	43.1
804.653	43.09
805.043	43.11
805.432	43.11
805.821	43.12
806.21	43.13
806.599	43.12
806.988	43.12
807.377	43.12
807.766	43.1
808.155	43.09
808.544	43.07
808.933	43.07
809.321	43.03
809.71	43.01
810.098	42.98
810.487	42.96
810.875	42.95
811.264	42.94
811.652	42.92
812.04	42.92
812.428	42.95
812.816	42.93
813.204	42.89
813.592	42.88
813.98	42.89
814.368	42.9
814.756	42.9
815.144	42.88
815.531	42.88
815.919	42.89
816.306	42.88
816.694	42.86
817.081	42.89
817.469	42.91
817.856	42.91
818.243	42.86
818.63	42.84
819.017	42.83
819.404	42.84
819.791	42.82
820.178	42.81
820.565	42.8
820.952	42.77
821.339	42.73
821.725	42.74
822.112	42.74
822.498	42.76
822.885	42.78
823.271	42.79
823.657	42.77
824.044	42.76
824.43	42.75
824.816	42.78
825.202	42.81
825.588	42.83
825.974	42.84
826.36	42.85
826.746	42.85
827.132	42.84
827.517	42.83
827.903	42.86
828.289	42.9
828.674	42.89
829.06	42.86
829.445	42.84
829.83	42.83
830.216	42.81
830.601	42.81
830.986	42.82
831.371	42.82
831.756	42.84
832.141	42.82
832.526	42.8
832.911	42.82
833.295	42.83
833.68	42.85
834.065	42.85
834.449	42.86
834.834	42.86
835.218	42.86
835.603	42.84
835.987	42.83
836.371	42.83
836.755	42.83
837.139	42.8
837.524	42.8
837.908	42.82
838.291	42.84
838.675	42.83
839.059	42.83
839.443	42.84
839.827	42.86
840.21	42.87
840.594	42.91
840.977	42.91
841.361	42.93
841.744	42.93
842.127	42.91
842.511	42.9
842.894	42.9
843.277	42.9
843.66	42.87
844.043	42.87
844.426	42.86
844.809	42.85
845.191	42.86
845.574	42.85
845.957	42.86
846.339	42.86
846.722	42.86
847.104	42.87
847.487	42.86
847.869	42.87
848.252	42.86
848.634	42.86
849.016	42.86
849.398	42.85
849.78	42.86
850.162	42.85
850.544	42.87
850.926	42.87
851.307	42.88
851.689	42.89
852.071	42.91
852.452	42.92
852.834	42.92
853.215	42.91
853.597	42.92
853.978	42.92
854.359	42.92
854.741	42.9
855.122	42.9
855.503	42.89
855.884	42.87
856.265	42.87
856.646	42.85
857.026	42.85
857.407	42.86
857.788	42.86
858.169	42.86
858.549	42.86
858.93	42.85
859.31	42.84
859.69	42.87
860.071	42.9
860.451	42.89
860.831	42.9
861.211	42.88
861.591	42.87
861.971	42.86
862.351	42.88
862.731	42.89
863.111	42.9
863.491	42.91
863.87	42.88
864.25	42.85
864.629	42.87
865.009	42.9
865.388	42.89
865.768	42.91
866.147	42.91
866.526	42.89
866.905	42.89
867.284	42.91
867.663	42.9
868.042	42.9
868.421	42.91
868.8	42.9
869.179	42.89
869.558	42.91
869.936	42.9
870.315	42.9
870.693	42.91
871.072	42.91
871.45	42.89
871.828	42.9
872.207	42.92
872.585	42.92
872.963	42.92
873.341	42.91
873.719	42.9
874.097	42.91
874.475	42.92
874.853	42.91
875.23	42.94
875.608	42.95
875.986	42.97
876.363	42.97
876.741	42.96
877.118	42.97
877.495	42.97
877.873	42.97
878.25	42.99
878.627	42.99
879.004	42.98
879.381	42.97
879.758	42.94
880.135	42.93
880.512	42.91
880.889	42.93
881.265	42.91
881.642	42.88
882.019	42.9
882.395	42.86
882.772	42.89
883.148	42.88
883.524	42.86
883.901	42.89
884.277	42.87
884.653	42.89
885.029	42.89
885.405	42.9
885.781	42.93
886.157	42.93
886.532	42.95
886.908	42.91
887.284	42.91
887.659	42.9
888.035	42.88
888.411	42.89
888.786	42.88
889.161	42.9
889.537	42.89
889.912	42.88
890.287	42.87
890.662	42.86
891.037	42.87
891.412	42.87
891.787	42.87
892.162	42.87
892.536	42.87
892.911	42.87
893.286	42.85
893.66	42.86
894.035	42.87
894.409	42.88
894.784	42.89
895.158	42.89
895.532	42.93
895.906	42.92
896.281	42.91
896.655	42.9
897.029	42.92
897.402	42.91
897.776	42.91
898.15	42.9
898.524	42.92
898.898	42.93
899.271	42.92
899.645	42.9
900.018	42.96
900.392	42.98
900.765	43.01
901.138	43.01
901.511	43.01
901.884	43.04
902.258	43.05
902.631	43.03
903.003	43.05
903.376	43.05
903.749	43.06
904.122	43.03
904.495	43.04
904.867	43.04
905.24	43.06
905.612	43.06
905.985	43.02
906.357	42.99
906.729	43.02
907.102	43
907.474	42.98
907.846	42.99
908.218	42.98
908.59	42.98
908.962	42.98
909.334	42.96
909.705	42.97
910.077	42.97
910.449	42.99
910.82	43.01
911.192	43.02
911.563	43.03
911.935	43
912.306	43.02
912.677	42.99
913.048	42.99
913.419	42.98
913.79	42.97
914.161	43
914.532	43
914.903	42.96
915.274	42.95
915.645	42.94
916.015	42.96
916.386	42.93
916.756	42.91
917.127	42.93
917.497	42.92
917.868	42.92
918.238	42.88
918.608	42.87
918.978	42.83
919.348	42.83
919.718	42.82
920.088	42.81
920.458	42.83
920.828	42.82
921.198	42.78
921.567	42.77
921.937	42.77
922.306	42.78
922.676	42.76
923.045	42.76
923.415	42.75
923.784	42.76
924.153	42.76
924.522	42.73
924.891	42.74
925.26	42.74
925.629	42.74
925.998	42.73
926.367	42.72
926.736	42.73
927.104	42.74
927.473	42.7
927.842	42.68
928.21	42.68
928.578	42.68
928.947	42.7
929.315	42.69
929.683	42.68
930.051	42.66
930.42	42.68
930.788	42.65
931.156	42.64
931.523	42.67
931.891	42.7
932.259	42.72
932.627	42.71
932.994	42.67
933.362	42.66
933.729	42.69
934.097	42.69
934.464	42.69
934.831	42.69
935.199	42.72
935.566	42.72
935.933	42.69
936.3	42.67
936.667	42.66
937.034	42.7
937.401	42.76
937.767	42.74
938.134	42.74
938.501	42.77
938.867	42.81
939.234	42.8
939.6	42.8
939.967	42.78
940.333	42.79
940.699	42.83
941.065	42.77
941.431	42.69
941.798	42.7
942.163	42.77
942.529	42.78
942.895	42.75
943.261	42.75
943.627	42.71
943.992	42.7
944.358	42.69
944.723	42.64
945.089	42.63
945.454	42.69
945.82	42.69
946.185	42.68
946.55	42.58
946.915	42.57
947.28	42.54
947.645	42.58
948.01	42.59
948.375	42.57
948.74	42.6
949.104	42.65
949.469	42.57
949.834	42.5
950.198	42.43
950.562	42.41
950.927	42.41
951.291	42.36
951.655	42.31
952.02	42.33
952.384	42.33
952.748	42.28
953.112	42.24
953.476	42.2
953.839	42.18
954.203	42.13
954.567	42.08
954.931	42.03
955.294	42.03
955.658	42.08
956.021	42.05
956.385	42.02
956.748	42.03
957.111	41.99
957.474	42.04
957.837	42.05
958.2	42.07
958.563	42.1
958.926	42.12
959.289	42.12
959.652	42.07
960.015	42.06
960.377	42.05
960.74	42.02
961.102	42.06
961.465	42.05
961.827	42.06
962.189	42.08
962.552	42.03
962.914	42.04
963.276	42.03
963.638	42
964	41.97
964.362	41.98
964.724	41.97
965.085	41.96
965.447	41.94
965.809	41.9
966.17	41.87
966.532	41.87
966.893	41.89
967.255	41.87
967.616	41.86
967.977	41.87
968.338	41.82
968.699	41.82
969.061	41.8
969.421	41.81
969.782	41.82
970.143	41.79
970.504	41.81
970.865	41.77
971.225	41.77
971.586	41.78
971.946	41.71
972.307	41.76
972.667	41.77
973.027	41.78
973.388	41.75
973.748	41.76
974.108	41.83
974.468	41.8
974.828	41.79
975.188	41.74
975.548	41.71
975.907	41.75
976.267	41.7
976.627	41.68
976.986	41.57
977.346	41.54
977.705	41.48
978.064	41.47
978.424	41.54
978.783	41.55
979.142	41.63
979.501	41.6
979.86	41.66
980.219	41.66
980.578	41.68
980.937	41.83
981.296	41.84
981.654	41.9
982.013	41.84
982.371	41.83
982.73	41.84
983.088	41.84
983.447	41.88
983.805	41.81
984.163	41.78
984.521	41.69
984.879	41.57
985.237	41.57
985.595	41.65
985.953	41.7
986.311	41.65
986.669	41.62
987.026	41.55
987.384	41.59
987.741	41.58
988.099	41.61
988.456	41.69
988.814	41.69
989.171	41.72
989.528	41.57
989.885	41.53
990.242	41.58
990.599	41.64
990.956	41.68
991.313	41.62
991.67	41.64
992.027	41.75
992.383	41.74
992.74	41.81
993.096	41.78
993.453	41.86
993.809	41.82
994.165	41.83
994.522	41.77
994.878	41.83
995.234	41.83
995.59	41.79
995.946	41.74
996.302	41.74
996.658	41.83
997.013	41.79
997.369	41.75
997.725	41.84
998.08	41.79
998.436	41.7
998.791	41.66
999.147	41.69
999.502	41.75
999.857	41.71
1000.212	41.57
1000.567	41.35
1000.922	41.43
1001.277	41.41
1001.632	41.37
1001.987	41.37
1002.342	41.48
1002.696	41.43
1003.051	41.54
1003.406	41.62
1003.76	41.57
1004.114	41.66
1004.469	41.86
1004.823	42.01
1005.177	42.05
1005.531	42.16
1005.885	42.17
1006.239	42.15
1006.593	42.29
1006.947	42.08
1007.301	42.02
1007.655	42.06
1008.008	42.17
1008.362	42.16
1008.715	41.89
1009.069	41.87
1009.422	41.6
1009.776	41.6
1010.129	41.54
1010.482	41.42
1010.835	41.6
1011.188	41.66
1011.541	41.7
1011.894	41.65
1012.247	41.58
1012.6	41.63
1012.952	41.56
1013.305	41.8
1013.657	41.88
1014.01	41.9
1014.362	41.95
1014.715	41.88
1015.067	41.77
1015.419	41.95
1015.771	41.69
1016.123	41.58
1016.475	41.72
1016.827	41.74
1017.179	41.68
1017.531	41.74
1017.883	41.76
1018.234	41.68
1018.586	41.69
1018.938	41.69
1019.289	41.47
1019.64	41.75
1019.992	41.86
1020.343	41.7
1020.694	41.63
1021.045	41.56
1021.396	41.59
1021.747	41.96
1022.098	42.02
1022.449	41.99
1022.8	42.14
1023.151	42.2
1023.501	42.1
1023.852	42.02
1024.202	42
1024.553	42.16
1024.903	42.41
1025.253	42.48
1025.604	42.11
1025.954	41.83
1026.304	41.76
1026.654	41.69
1027.004	41.61
1027.354	41.76
1027.703	41.61
1028.053	41.81
1028.403	41.8
1028.753	41.29
1029.102	41.12
1029.452	41.19
1029.801	41.56
1030.15	41.64
1030.499	41.52
897.758	989.48
901.051	999.59
904.343	998.04
907.636	1015.46
910.928	986.87
914.22	988.72
917.511	974.22
920.803	930.45
924.094	923.97
927.384	903.65
930.675	867.19
933.965	866.78
937.255	814.14
940.544	781.35
943.834	742.69
947.123	737.35
950.411	693.4
953.7	679.91
956.988	645.13
960.276	622.89
963.563	610.4
966.851	588.5
970.138	583.52
973.424	566.4
976.711	569.26
979.997	541.39
983.283	538.49
986.568	527.44
989.853	513.07
993.138	503.3
996.423	482.45
999.708	469.72
1002.992	463.68
1006.275	441.63
1009.559	437.94
1012.842	422.48
1016.125	412.81
1019.408	404.56
1022.69	399.22
1025.972	389.42
1029.254	382.21
1032.536	376.51
1035.817	368.45
1039.098	365.12
1042.379	359.82
1045.659	354.41
1048.939	345.56
1052.219	339.05
1055.498	333.9
1058.778	325.75
1062.057	319.52
1065.335	315.36
1068.614	311.62
1071.892	309.55
1075.17	299.66
1078.447	293.17
1081.724	291.33
1085.001	289.3
1088.278	282.66
1091.554	278.09
1094.83	278.59
1098.106	276
1101.382	274.28
1104.657	273.01
1107.932	268.1
1111.206	269.71
1114.481	264.07
1117.755	261.18
1121.029	259.1
1124.302	259.27
1127.575	254.54
1130.848	251.9
1134.121	249.71
1137.393	247.53
1140.665	241.58
1143.937	240.43
1147.208	238.7
1150.48	237.2
1153.75	235.97
1157.021	233.03
1160.291	232.8
1163.561	230.05
1166.831	229.89
1170.101	227.82
1173.37	228.42
1176.639	229.37
1179.907	226.55
1183.176	224.47
1186.444	224.37
1189.711	223.68
1192.979	222.68
1196.246	221.62
1199.513	223.14
1202.78	221.92
1206.046	221.58
1209.312	218.65
1212.578	218.61
1215.843	220.97
1219.108	219.58
1222.373	223.81
1225.638	224.48
1228.902	227.7
1232.166	228.16
1235.43	228.69
1238.693	231.9
1241.956	232.84
1245.219	237.07
1248.482	237.05
1251.744	236.79
1255.006	237.43
1258.268	231.48
1261.529	230.08
1264.79	228.43
1268.051	226.8
1271.312	224.87
1274.572	222.14
1277.832	220.38
1281.092	216.39
1284.351	215.17
1287.61	215.39
1290.869	211.97
1294.128	211.28
1297.386	210.46
1300.644	208.73
1303.902	209.28
1307.159	208.23
1310.416	208.27
1313.673	207.36
1316.93	210.14
1320.186	210.14
1323.442	210.57
1326.697	213.78
1329.953	214.52
1333.208	215.97
1336.463	218.02
1339.717	218.49
1342.972	220.99
1346.226	222.42
1349.479	224.07
1352.733	224.48
1355.986	225.38
1359.238	225.08
1362.491	226.09
1365.743	228.04
1368.995	227.87
1372.247	229
1375.498	228.75
1378.749	230.5
1382	228.05
1385.251	228.53
1388.501	226.7
1391.751	227.2
1395	226.32
1398.25	224.89
1401.499	222.96
1404.748	222.31
1407.996	218.85
1411.244	217.7
1414.492	215.62
1417.74	213.46
1420.987	210.79
1424.234	210.09
1427.481	206.89
1430.728	206.52
1433.974	205.05
1437.22	202.76
1440.465	202.61
1443.711	200.71
1446.956	198.72
1450.201	197.29
1453.445	195.17
1456.689	194.14
1459.933	190.85
1463.177	190.61
1466.42	187.08
1469.663	184.68
1472.906	184.17
1476.148	180.39
1479.391	177.85
1482.633	177.03
1485.874	174.27
1489.115	173.22
1492.356	171.88
1495.597	171.49
1498.838	168.66
1502.078	168.3
1505.318	167.84
1508.557	167.57
1511.797	166.51
1515.036	166.26
1518.274	164.58
1521.513	163.81
1524.751	163.57
1527.989	162.57
1531.227	162.49
1534.464	162.31
1537.701	161.51
1540.938	161.02
1544.174	159.33
1547.41	159.84
1550.646	158.72
1553.882	160.08
1557.117	158.03
1560.352	157.37
1563.587	156.93
1566.821	155.95
1570.055	154.6
1573.289	153.58
1576.523	153.35
1579.756	152.7
1582.989	151.5
1586.222	151.25
1589.454	150.1
1592.686	151.34
1595.918	150.58
1599.15	150.15
1602.381	150.73
1605.612	150.91
1608.843	151.11
1612.073	151.3
1615.303	151.91
1618.533	151.75
1621.762	152.21
1624.992	152.58
1628.221	151.98
1631.449	151.61
1634.678	151.46
1637.906	152.04
1641.134	152.34
1644.361	152.17
1647.588	151.57
1650.815	151.09
1654.042	151.01
1657.269	151.32
1660.495	151.2
1663.72	150.95
1666.946	152.01
1670.171	152.41
1673.396	151.6
1676.621	151.7
1679.845	152.45
1683.069	152.85
1686.293	153.75
1689.517	154.79
1692.74	154.9
1695.963	154.84
1699.185	156.37
1702.408	156.41
1705.63	156.99
1708.852	157.71
1712.073	157.67
1715.294	157.86
1718.515	158.79
1721.736	158.41
1724.956	158.47
1728.176	158.61
1731.396	160.13
1734.616	159.54
1737.835	160.11
1741.054	158.66
1744.272	159.49
1747.491	160.78
1750.709	161.15
1753.927	161.19
1757.144	160.67
1760.361	161.41
1763.578	161.88
1766.795	161.34
1770.011	162.32
1773.227	162.3
1776.443	164.35
1779.658	164.36
1782.874	163.8
1786.089	164.2
1789.303	164.72
1792.518	166.96
1795.732	166.96
1798.945	167.77
1802.159	168.63
1805.372	169.05
1808.585	171.06
1811.797	171.95
1815.01	172.1
1818.222	173.57
1821.434	175.17
1824.645	175.51
1827.856	178.17
1831.067	179.43
1834.278	178.28
1837.488	179.79
1840.698	180.99
1843.908	180.16
1847.117	180.44
1850.326	181.48
1853.535	180.51
1856.744	182.01
1859.952	182.17
1863.16	180.74
1866.368	179.49
1869.575	181.85
1872.782	178.64
1875.989	177.41
1879.196	176.19
1882.402	175.25
1885.608	175.77
1888.814	176.11
1892.019	174.89
1895.224	174.18
1898.429	173.4
1901.634	173.61
1904.838	173.11
1908.042	175.1
1911.246	175.03
1914.449	176.52
1917.652	176.05
1920.855	175.52
1924.058	175.52
1927.26	175.04
1930.462	175.54
1933.664	176.81
1936.865	175.8
1940.066	176.45
1943.267	173.93
1946.467	175.12
1949.668	175.44
1952.868	177.91
1956.067	178
1959.267	178.4
1962.466	178.68
1965.665	178.3
1968.863	178.42
1972.061	181.39
1975.259	182.33
1978.457	184.79
1981.654	186.03
1984.852	186.75
1988.048	185.86
1991.245	187.89
1994.441	190.32
1997.637	191.54
2000.833	195.24
2004.028	198.32
2007.223	198.51
2010.418	200.84
2013.613	203.85
2016.807	206.1
2020.001	207.93
2023.194	211.71
2026.388	215.97
2029.581	220.29
2032.774	223.38
2035.966	226.38
2039.158	227.12
2042.35	232.17
2045.542	233.29
2048.733	237.26
2051.924	239.55
2055.115	244.83
2058.306	244.86
2061.496	246.9
2064.686	247.57
2067.875	251.14
2071.065	252.96
2074.254	251.87
2077.442	254.24
2080.631	255.76
2083.819	258.83
2087.007	259.24
2090.195	261.63
2093.382	263.81
2096.569	262.84
2099.756	267.23
2102.942	268.35
2106.128	270.04
2109.314	276.37
2112.5	275.88
2115.685	282.37
2118.87	282.59
2122.055	289.77
2125.239	290.3
2128.424	294.55
2131.608	295.66
2134.791	298.91
2137.974	299.69
2141.157	300.82
2144.34	301.17
2147.523	305.49
2150.705	302.99
2153.887	305.95
2157.068	305.38
2160.25	303.34
2163.431	304.59
2166.611	309.38
2169.792	314.64
2172.972	317.59
2176.152	320.96
2179.331	324.64
2182.511	329.47
2185.69	332.01
2188.868	339.51
2192.047	340.26
2195.225	350.26
2198.403	358.35
2201.58	364.15
2204.758	370.86
2207.935	378.7
2211.111	384.94
2214.288	389.8
2217.464	391.04
2220.64	399.67
2223.815	403.44
2226.991	419.58
2230.166	420.64
2233.34	427.46
2236.515	432.59
2239.689	433.18
2242.863	435.61
2246.036	446.9
2249.209	444.04
2252.382	451.98
2255.555	463.14
2258.727	464.66
2261.9	466.16
2265.071	471.52
2268.243	479.17
2271.414	486.25
2274.585	495.57
2277.756	501.21
2280.926	506.25
2284.096	517.8
2287.266	526.92
2290.436	531.51
2293.605	543.59
2296.774	559.33
2299.942	574.28
2303.111	580.72
2306.279	594.03
2309.447	601.98
2312.614	615.87
2315.781	632.02
2318.948	659.55
2322.115	653.6
2325.281	689.26
2328.447	672.37
2331.613	700.18
2334.779	695.08
2337.944	723.94
2341.109	730.53
2344.274	755.38
2347.438	779.92
2350.602	777.49
2353.766	803.42
2356.929	815.29
2360.092	806.57
2363.255	867.21
2366.418	866.7
2369.58	883.41
2372.742	926.58
2375.904	952.32
2379.066	942.81
2382.227	929
2385.388	1011.79
2388.548	1007.71
2391.709	1021.46
2394.869	1140.86
2398.029	1090.77
2401.188	1119.06
2404.347	1112.81
2407.506	1101.71
2410.665	1131.84
2413.823	1195.31
2416.981	1268.14
2420.139	1221.6
2423.296	1212.6
2426.453	1263.85
2429.61	1212.43
2432.767	1270.62
2435.923	1255.53
2439.079	1372.08
2442.235	1395.46
2445.391	1380.63
2448.546	1373.89
2451.701	1331.02
2454.855	1333
2458.009	1408.87
2461.163	1468.35
2464.317	1527.34
2467.471	1561.61
2470.624	1564.78
2473.777	1522.63
2476.929	1480.54
2480.082	1438.27
2483.234	1422.86
2486.385	1493.48
2489.537	1498.28
2492.688	1552.98
2495.839	1513.84
2498.989	1478.41
2502.14	1489.06
2505.29	1504.38
2508.439	1527.08
2511.589	1524.19
2514.738	1659.21
2517.887	1619.58
2521.035	1709.73
2524.183	1727.52
2527.331	1742.33
2530.479	1725.6
2533.627	1736.31
