Data from C_1_HIR_IL_4N_Splice17_12-50-02-629.txt Node
Date: Sat Mar 07 12:50:02 EST 2020
User: sa697716
Spectrometer: NQ5500242
Trigger mode: 0
Integration Time (sec): 1.450000E-1
Scans to average: 20
Nonlinearity correction enabled: false
Boxcar width: 5
Storing dark spectrum: false
XAxis mode: Wavelengths
Number of Pixels in Spectrum: 512
>>>>>Begin Spectral Data<<<<<
187.83	119.66
188.298	120.63
188.766	101.61
189.233	86.04
189.701	86.78
190.169	99.37
190.636	99.69
191.104	119.97
191.571	-11.28
192.039	-109.03
192.506	-626.44
192.974	219.53
193.441	295.03
193.908	98.63
194.375	60.8
194.842	27.13
195.31	45.38
195.777	-98.52
196.244	15.71
196.711	22.28
197.177	24.4
197.644	24.42
198.111	24.19
198.578	24.23
199.045	24.59
199.511	24.67
199.978	24.81
200.445	25
200.911	25.29
201.378	25.45
201.844	25.27
202.31	25.25
202.777	25.34
203.243	25.68
203.709	25.68
204.176	25.6
204.642	25.71
205.108	25.72
205.574	25.76
206.04	25.53
206.506	25.13
206.972	25.13
207.438	25.08
207.903	24.88
208.369	24.65
208.835	24.39
209.301	24.03
209.766	23.5
210.232	23.13
210.697	22.59
211.163	22.25
211.628	21.95
212.094	21.49
212.559	21.24
213.024	20.79
213.49	20.45
213.955	20.12
214.42	19.93
214.885	19.67
215.35	19.28
215.815	18.81
216.28	18.16
216.745	17.41
217.21	16.88
217.675	16.21
218.14	15.69
218.604	15.28
219.069	14.93
219.534	14.67
219.998	14.41
220.463	14.19
220.927	13.91
221.392	13.75
221.856	13.62
222.32	13.46
222.785	13.32
223.249	13.19
223.713	13.05
224.177	12.93
224.642	12.75
225.106	12.59
225.57	12.42
226.034	12.3
226.497	12.19
226.961	12.06
227.425	11.93
227.889	11.83
228.353	11.71
228.816	11.59
229.28	11.48
229.744	11.37
230.207	11.25
230.671	11.15
231.134	11.06
231.597	10.95
232.061	10.86
232.524	10.76
232.987	10.66
233.45	10.58
233.914	10.48
234.377	10.37
234.84	10.29
235.303	10.23
235.766	10.16
236.229	10.07
236.691	9.99
237.154	9.9
237.617	9.83
238.08	9.74
238.542	9.65
239.005	9.58
239.468	9.51
239.93	9.43
240.393	9.35
240.855	9.26
241.317	9.17
241.78	9.09
242.242	9.01
242.704	8.94
243.166	8.87
243.629	8.82
244.091	8.74
244.553	8.67
245.015	8.6
245.477	8.52
245.939	8.47
246.4	8.41
246.862	8.35
247.324	8.31
247.786	8.25
248.247	8.18
248.709	8.12
249.17	8.05
249.632	8
250.093	7.96
250.555	7.92
251.016	7.87
251.477	7.82
251.939	7.78
252.4	7.74
252.861	7.69
253.322	7.65
253.783	7.61
254.244	7.58
254.705	7.54
255.166	7.49
255.627	7.44
256.088	7.41
256.549	7.37
257.009	7.33
257.47	7.28
257.931	7.23
258.391	7.18
258.852	7.15
259.312	7.11
259.773	7.07
260.233	7.04
260.694	7.02
261.154	6.98
261.614	6.96
262.074	6.93
262.534	6.91
262.994	6.9
263.455	6.88
263.915	6.86
264.374	6.84
264.834	6.83
265.294	6.81
265.754	6.8
266.214	6.78
266.673	6.77
267.133	6.76
267.593	6.75
268.052	6.73
268.512	6.73
268.971	6.71
269.431	6.69
269.89	6.68
270.349	6.67
270.809	6.65
271.268	6.64
271.727	6.63
272.186	6.61
272.645	6.6
273.104	6.58
273.563	6.56
274.022	6.55
274.481	6.55
274.94	6.53
275.399	6.51
275.857	6.5
276.316	6.49
276.775	6.48
277.233	6.46
277.692	6.44
278.15	6.43
278.609	6.41
279.067	6.39
279.525	6.37
279.984	6.34
280.442	6.32
280.9	6.3
281.358	6.28
281.816	6.25
282.274	6.23
282.732	6.21
283.19	6.18
283.648	6.15
284.106	6.12
284.564	6.1
285.021	6.09
285.479	6.07
285.937	6.05
286.394	6.04
286.852	6.02
287.309	6
287.767	5.97
288.224	5.96
288.682	5.95
289.139	5.94
289.596	5.93
290.053	5.91
290.511	5.89
290.968	5.87
291.425	5.85
291.882	5.84
292.339	5.82
292.796	5.81
293.252	5.8
293.709	5.79
294.166	5.77
294.623	5.75
295.079	5.74
295.536	5.71
295.992	5.7
296.449	5.68
296.905	5.66
297.362	5.65
297.818	5.63
298.274	5.61
298.731	5.6
299.187	5.58
299.643	5.57
300.099	5.55
300.555	5.55
301.011	5.53
301.467	5.51
301.923	5.49
302.379	5.47
302.835	5.46
303.291	5.44
303.746	5.42
304.202	5.4
304.658	5.39
305.113	5.36
305.569	5.34
306.024	5.32
306.479	5.31
306.935	5.29
307.39	5.28
307.845	5.27
308.301	5.27
308.756	5.26
309.211	5.25
309.666	5.23
310.121	5.23
310.576	5.22
311.031	5.21
311.486	5.2
311.94	5.2
312.395	5.19
312.85	5.17
313.305	5.16
313.759	5.15
314.214	5.15
314.668	5.13
315.123	5.12
315.577	5.12
316.032	5.11
316.486	5.09
316.94	5.08
317.394	5.06
317.849	5.06
318.303	5.04
318.757	5.01
319.211	5
319.665	4.99
320.119	4.98
320.572	4.97
321.026	4.95
321.48	4.94
321.934	4.93
322.387	4.92
322.841	4.9
323.295	4.9
323.748	4.9
324.202	4.89
324.655	4.87
325.108	4.87
325.562	4.85
326.015	4.85
326.468	4.84
326.921	4.84
327.374	4.82
327.827	4.82
328.28	4.8
328.733	4.8
329.186	4.79
329.639	4.78
330.092	4.78
330.545	4.77
330.997	4.75
331.45	4.74
331.903	4.74
332.355	4.75
332.808	4.74
333.26	4.74
333.713	4.74
334.165	4.72
334.617	4.72
335.069	4.71
335.522	4.72
335.974	4.71
336.426	4.71
336.878	4.7
337.33	4.69
337.782	4.69
338.234	4.68
338.686	4.67
339.137	4.67
339.589	4.66
340.041	4.66
340.493	4.64
340.944	4.62
341.396	4.61
341.847	4.61
342.299	4.59
342.75	4.59
343.201	4.57
343.653	4.57
344.104	4.55
344.555	4.54
345.006	4.53
345.457	4.53
345.908	4.53
346.359	4.53
346.81	4.52
347.261	4.51
347.712	4.5
348.163	4.49
348.613	4.49
349.064	4.48
349.515	4.47
349.965	4.46
350.416	4.45
350.866	4.44
351.317	4.42
351.767	4.42
352.217	4.42
352.668	4.41
353.118	4.41
353.568	4.41
354.018	4.41
354.468	4.41
354.918	4.42
355.368	4.42
355.818	4.42
356.268	4.41
356.718	4.41
357.168	4.4
357.617	4.39
358.067	4.38
358.517	4.37
358.966	4.37
359.416	4.36
359.865	4.36
360.315	4.36
360.764	4.35
361.213	4.34
361.663	4.34
362.112	4.35
362.561	4.35
363.01	4.35
363.459	4.35
363.908	4.34
364.357	4.34
364.806	4.34
365.255	4.34
365.703	4.35
366.152	4.37
366.601	4.37
367.05	4.37
367.498	4.36
367.947	4.36
368.395	4.38
368.844	4.38
369.292	4.37
369.74	4.37
370.189	4.37
370.637	4.37
371.085	4.36
371.533	4.36
371.981	4.36
372.429	4.37
372.877	4.38
373.325	4.37
373.773	4.37
374.221	4.37
374.669	4.37
375.116	4.37
375.564	4.37
376.012	4.37
376.459	4.38
376.907	4.38
377.354	4.38
377.801	4.38
378.249	4.39
378.696	4.41
379.143	4.42
379.591	4.43
380.038	4.44
380.485	4.45
380.932	4.46
381.379	4.47
381.826	4.48
382.273	4.49
382.72	4.49
383.166	4.49
383.613	4.49
384.06	4.49
384.506	4.49
384.953	4.5
385.4	4.51
385.846	4.52
386.292	4.51
386.739	4.52
387.185	4.53
387.631	4.54
388.078	4.55
388.524	4.56
388.97	4.57
389.416	4.59
389.862	4.62
390.308	4.64
390.754	4.66
391.2	4.67
391.645	4.69
392.091	4.7
392.537	4.72
392.983	4.72
393.428	4.73
393.874	4.74
394.319	4.75
394.765	4.76
395.21	4.76
395.655	4.77
396.101	4.79
396.546	4.8
396.991	4.82
397.436	4.83
397.881	4.86
398.326	4.89
398.771	4.9
399.216	4.92
399.661	4.93
400.106	4.96
400.551	4.97
400.995	4.98
401.44	4.99
401.885	5.01
402.329	5.02
402.774	5.03
403.218	5.06
403.663	5.08
404.107	5.09
404.551	5.09
404.995	5.11
405.44	5.11
405.884	5.11
406.328	5.13
406.772	5.13
407.216	5.15
407.66	5.14
408.104	5.14
408.547	5.13
408.991	5.14
409.435	5.16
409.879	5.16
410.322	5.18
410.766	5.19
411.209	5.2
411.653	5.21
412.096	5.21
412.54	5.23
412.983	5.25
413.426	5.29
413.869	5.3
414.312	5.32
414.756	5.34
415.199	5.35
415.642	5.36
416.085	5.38
416.527	5.38
416.97	5.39
417.413	5.39
417.856	5.39
418.298	5.38
418.741	5.39
419.184	5.4
419.626	5.4
420.069	5.42
420.511	5.43
420.953	5.43
421.396	5.44
421.838	5.44
422.28	5.46
422.722	5.48
423.164	5.49
423.606	5.49
424.048	5.5
424.49	5.5
424.932	5.5
425.374	5.49
425.816	5.47
426.258	5.48
426.699	5.48
427.141	5.47
427.582	5.46
428.024	5.45
428.465	5.45
428.907	5.44
429.348	5.44
429.789	5.44
430.231	5.44
430.672	5.46
431.113	5.46
431.554	5.47
431.995	5.48
432.436	5.49
432.877	5.51
433.318	5.5
433.759	5.52
434.2	5.54
434.64	5.55
435.081	5.56
435.522	5.58
435.962	5.59
436.403	5.61
436.843	5.63
437.284	5.62
437.724	5.63
438.164	5.64
438.604	5.64
439.045	5.63
439.485	5.63
439.925	5.63
440.365	5.62
440.805	5.61
441.245	5.61
441.685	5.61
442.125	5.62
442.564	5.63
443.004	5.63
443.444	5.64
443.883	5.66
444.323	5.66
444.762	5.68
445.202	5.69
445.641	5.71
446.081	5.72
446.52	5.73
446.959	5.76
447.398	5.78
447.837	5.78
448.276	5.8
448.716	5.81
449.154	5.83
449.593	5.84
450.032	5.84
450.471	5.85
450.91	5.85
451.349	5.86
451.787	5.85
452.226	5.84
452.664	5.86
453.103	5.86
453.541	5.85
453.98	5.86
454.418	5.85
454.856	5.86
455.295	5.85
455.733	5.85
456.171	5.85
456.609	5.85
457.047	5.84
457.485	5.83
457.923	5.83
458.361	5.82
458.798	5.82
459.236	5.82
459.674	5.81
460.111	5.81
460.549	5.81
460.987	5.81
461.424	5.82
461.862	5.82
462.299	5.83
462.736	5.83
463.173	5.83
463.611	5.82
464.048	5.83
464.485	5.85
464.922	5.84
465.359	5.86
465.796	5.87
466.233	5.86
466.67	5.88
467.106	5.89
467.543	5.91
467.98	5.91
468.416	5.91
468.853	5.92
469.29	5.91
469.726	5.91
470.162	5.91
470.599	5.91
471.035	5.9
471.471	5.89
471.907	5.88
472.344	5.88
472.78	5.89
473.216	5.89
473.652	5.88
474.088	5.88
474.523	5.89
474.959	5.89
475.395	5.88
475.831	5.88
476.266	5.88
476.702	5.88
477.138	5.87
477.573	5.87
478.008	5.87
478.444	5.86
478.879	5.87
479.314	5.86
479.75	5.85
480.185	5.84
480.62	5.82
481.055	5.82
481.49	5.8
481.925	5.8
482.36	5.79
482.795	5.78
483.229	5.78
483.664	5.78
484.099	5.78
484.534	5.79
484.968	5.8
485.403	5.81
485.837	5.81
486.271	5.83
486.706	5.84
487.14	5.85
487.574	5.87
488.009	5.88
488.443	5.89
488.877	5.9
489.311	5.92
489.745	5.94
490.179	5.97
490.613	6
491.046	6.02
491.48	6.05
491.914	6.08
492.348	6.11
492.781	6.14
493.215	6.17
493.648	6.21
494.082	6.24
494.515	6.27
494.948	6.3
495.382	6.32
495.815	6.36
496.248	6.4
496.681	6.44
497.114	6.49
497.547	6.53
497.98	6.58
498.413	6.63
498.846	6.67
499.279	6.72
499.711	6.78
500.144	6.86
500.577	6.92
501.009	6.98
501.442	7.05
501.874	7.12
502.306	7.19
502.739	7.27
503.171	7.35
503.603	7.44
504.036	7.54
504.468	7.62
504.9	7.7
505.332	7.8
505.764	7.91
506.196	8.01
506.627	8.12
507.059	8.23
507.491	8.34
507.923	8.46
508.354	8.59
508.786	8.72
509.217	8.86
509.649	8.99
510.08	9.13
510.512	9.27
510.943	9.41
511.374	9.55
511.805	9.71
512.237	9.86
512.668	10.01
513.099	10.16
513.53	10.32
513.961	10.48
514.391	10.64
514.822	10.81
515.253	10.98
515.684	11.15
516.114	11.33
516.545	11.49
516.975	11.67
517.406	11.84
517.836	12.02
518.267	12.21
518.697	12.38
519.127	12.54
519.558	12.72
519.988	12.89
520.418	13.06
520.848	13.21
521.278	13.38
521.708	13.66
522.138	13.82
522.567	13.96
522.997	14.09
523.427	14.24
523.857	14.39
524.286	14.51
524.716	14.65
525.145	14.78
525.575	14.92
526.004	15.04
526.433	15.03
526.863	15.16
527.292	15.29
527.721	15.39
528.15	15.49
528.579	15.59
529.008	15.69
529.437	15.77
529.866	15.86
530.295	15.95
530.724	16.04
531.152	16.11
531.581	16.18
532.01	16.24
532.438	16.31
532.867	16.38
533.295	16.44
533.723	16.49
534.152	16.55
534.58	16.61
535.008	16.64
535.436	16.69
535.865	16.73
536.293	16.77
536.721	16.81
537.149	16.84
537.576	16.87
538.004	16.91
538.432	16.93
538.86	16.96
539.287	16.96
539.715	17
540.143	17.03
540.57	17.06
540.998	17.08
541.425	17.1
541.852	17.14
542.28	17.16
542.707	17.18
543.134	17.2
543.561	17.22
543.988	17.25
544.415	17.25
544.842	17.26
545.269	17.27
545.696	17.29
546.123	17.3
546.549	17.31
546.976	17.33
547.403	17.35
547.829	17.36
548.256	17.36
548.682	17.37
549.108	17.39
549.535	17.39
549.961	17.4
550.387	17.38
550.813	17.39
551.24	17.39
551.666	17.38
552.092	17.37
552.518	17.39
552.943	17.37
553.369	17.36
553.795	17.34
554.221	17.32
554.646	17.31
555.072	17.29
555.498	17.26
555.923	17.23
556.349	17.19
556.774	17.15
557.199	17.09
557.625	17.05
558.05	17.01
558.475	16.96
558.9	16.9
559.325	16.85
559.75	16.8
560.175	16.75
560.6	16.68
561.025	16.63
561.449	16.57
561.874	16.5
562.299	16.44
562.723	16.37
563.148	16.3
563.572	16.22
563.997	16.13
564.421	16.05
564.846	15.96
565.27	15.88
565.694	15.8
566.118	15.7
566.542	15.62
566.966	15.52
567.39	15.44
567.814	15.36
568.238	15.27
568.662	15.19
569.086	15.11
569.509	15.02
569.933	14.93
570.357	14.84
570.78	14.76
571.204	14.67
571.627	14.59
572.05	14.5
572.474	14.42
572.897	14.35
573.32	14.27
573.743	14.18
574.166	14.11
574.589	14.03
575.012	13.97
575.435	13.9
575.858	13.84
576.281	13.76
576.704	13.71
577.126	13.63
577.549	13.56
577.972	13.49
578.394	13.43
578.817	13.38
579.239	13.33
579.661	13.27
580.084	13.22
580.506	13.17
580.928	13.12
581.35	13.06
581.772	13.01
582.194	12.97
582.616	12.92
583.038	12.87
583.46	12.82
583.882	12.77
584.303	12.72
584.725	12.66
585.147	12.62
585.568	12.58
585.99	12.55
586.411	12.5
586.833	12.46
587.254	12.43
587.675	12.4
588.096	12.36
588.518	12.32
588.939	12.3
589.36	12.26
589.781	12.23
590.202	12.21
590.623	12.18
591.043	12.16
591.464	12.14
591.885	12.11
592.305	12.09
592.726	12.08
593.147	12.05
593.567	12.03
593.987	12.01
594.408	11.97
594.828	11.95
595.248	11.94
595.669	11.93
596.089	11.91
596.509	11.9
596.929	11.88
597.349	11.86
597.769	11.84
598.189	11.82
598.608	11.81
599.028	11.8
599.448	11.77
599.867	11.74
600.287	11.71
600.706	11.69
601.126	11.66
601.545	11.64
601.965	11.61
602.384	11.58
602.803	11.55
603.222	11.52
603.641	11.49
604.061	11.46
604.48	11.42
604.898	11.38
605.317	11.34
605.736	11.3
606.155	11.25
606.574	11.2
606.992	11.17
607.411	11.13
607.829	11.05
608.248	10.98
608.666	10.94
609.085	10.88
609.503	10.85
609.921	10.8
610.339	10.76
610.758	10.71
611.176	10.66
611.594	10.61
612.012	10.55
612.43	10.53
612.847	10.49
613.265	10.44
613.683	10.39
614.101	10.34
614.518	10.29
614.936	10.24
615.353	10.19
615.771	10.15
616.188	10.11
616.606	10.07
617.023	10.04
617.44	10.01
617.857	9.98
618.274	9.95
618.691	9.91
619.108	9.89
619.525	9.87
619.942	9.85
620.359	9.82
620.776	9.8
621.192	9.78
621.609	9.76
622.026	9.75
622.442	9.74
622.859	9.72
623.275	9.71
623.691	9.68
624.108	9.66
624.524	9.66
624.94	9.65
625.356	9.66
625.772	9.65
626.188	9.65
626.604	9.63
627.02	9.62
627.436	9.61
627.852	9.6
628.268	9.6
628.683	9.6
629.099	9.59
629.514	9.57
629.93	9.55
630.345	9.54
630.761	9.52
631.176	9.51
631.591	9.48
632.007	9.46
632.422	9.43
632.837	9.41
633.252	9.37
633.667	9.32
634.082	9.29
634.497	9.26
634.911	9.21
635.326	9.17
635.741	9.12
636.155	9.07
636.57	9.03
636.984	8.98
637.399	8.92
637.813	8.87
638.228	8.82
638.642	8.74
639.056	8.67
639.47	8.61
639.884	8.54
640.298	8.46
640.712	8.4
641.126	8.33
641.54	8.25
641.954	8.19
642.368	8.12
642.781	8.07
643.195	8.02
643.609	7.96
644.022	7.9
644.436	7.85
644.849	7.8
645.262	7.74
645.676	7.69
646.089	7.64
646.502	7.6
646.915	7.55
647.328	7.5
647.741	7.45
648.154	7.42
648.567	7.38
648.98	7.34
649.393	7.31
649.805	7.29
650.218	7.26
650.631	7.24
651.043	7.21
651.456	7.18
651.868	7.15
652.28	7.13
652.693	7.1
653.105	7.07
653.517	7.04
653.929	7.01
654.341	6.98
654.753	6.94
655.165	6.9
655.577	6.87
655.989	6.83
656.401	6.78
656.813	6.75
657.224	6.71
657.636	6.66
658.047	6.62
658.459	6.57
658.87	6.52
659.282	6.46
659.693	6.41
660.104	6.35
660.515	6.31
660.926	6.26
661.338	6.2
661.749	6.16
662.159	6.11
662.57	6.07
662.981	6.03
663.392	6.01
663.803	5.98
664.213	5.94
664.624	5.91
665.035	5.89
665.445	5.86
665.855	5.84
666.266	5.81
666.676	5.79
667.086	5.76
667.497	5.75
667.907	5.72
668.317	5.71
668.727	5.7
669.137	5.69
669.547	5.68
669.956	5.67
670.366	5.67
670.776	5.66
671.186	5.66
671.595	5.66
672.005	5.65
672.414	5.65
672.824	5.65
673.233	5.65
673.642	5.65
674.052	5.66
674.461	5.66
674.87	5.67
675.279	5.69
675.688	5.69
676.097	5.71
676.506	5.72
676.915	5.74
677.323	5.77
677.732	5.78
678.141	5.79
678.549	5.81
678.958	5.83
679.366	5.87
679.775	5.89
680.183	5.93
680.592	5.97
681	6.02
681.408	6.07
681.816	6.12
682.224	6.19
682.632	6.25
683.04	6.32
683.448	6.39
683.856	6.47
684.264	6.56
684.671	6.65
685.079	6.76
685.487	6.89
685.894	7.01
686.302	7.15
686.709	7.31
687.116	7.49
687.524	7.68
687.931	7.9
688.338	8.12
688.745	8.36
689.152	8.6
689.559	8.87
689.966	9.14
690.373	9.42
690.78	9.72
691.187	10.02
691.593	10.33
692	10.64
692.407	10.96
692.813	11.27
693.22	11.59
693.626	11.92
694.032	12.24
694.439	12.58
694.845	12.93
695.251	13.28
695.657	13.61
696.063	13.95
696.469	14.29
696.875	14.63
697.281	14.98
697.687	15.32
698.093	15.65
698.498	15.99
698.904	16.32
699.31	16.65
699.715	16.94
700.12	17.26
700.526	17.57
700.931	17.88
701.337	18.19
701.742	18.47
702.147	18.75
702.552	19.04
702.957	19.3
703.362	19.56
703.767	19.8
704.172	20.08
704.577	20.32
704.981	20.56
705.386	20.8
705.791	21.04
706.195	21.29
706.6	21.53
707.004	21.76
707.408	21.99
707.813	22.24
708.217	22.45
708.621	22.67
709.025	22.89
709.43	23.09
709.834	23.32
710.237	23.53
710.641	23.73
711.045	23.92
711.449	24.12
711.853	24.34
712.256	24.51
712.66	24.71
713.064	24.88
713.467	25.05
713.87	25.22
714.274	25.37
714.677	25.52
715.08	25.67
715.484	25.84
715.887	25.99
716.29	26.13
716.693	26.28
717.096	26.43
717.499	26.58
717.901	26.73
718.304	26.88
718.707	27.02
719.109	27.18
719.512	27.33
719.915	27.46
720.317	27.58
720.719	27.66
721.122	27.78
721.524	27.9
721.926	28.01
722.328	28.12
722.731	28.21
723.133	28.32
723.535	28.42
723.937	28.5
724.338	28.6
724.74	28.7
725.142	28.86
725.544	28.94
725.945	29.04
726.347	29.11
726.748	29.17
727.15	29.24
727.551	29.31
727.952	29.37
728.354	29.45
728.755	29.51
729.156	29.58
729.557	29.57
729.958	29.65
730.359	29.68
730.76	29.74
731.161	29.81
731.562	29.89
731.962	29.92
732.363	29.96
732.763	30.01
733.164	30.05
733.564	30.1
733.965	30.15
734.365	30.2
734.766	30.25
735.166	30.3
735.566	30.33
735.966	30.36
736.366	30.4
736.766	30.42
737.166	30.43
737.566	30.49
737.966	30.51
738.365	30.53
738.765	30.56
739.165	30.58
739.564	30.61
739.964	30.65
740.363	30.67
740.763	30.7
741.162	30.72
741.561	30.76
741.96	30.76
742.36	30.76
742.759	30.78
743.158	30.78
743.557	30.81
743.955	30.83
744.354	30.83
744.753	30.86
745.152	30.87
745.55	30.9
745.949	30.92
746.348	30.94
746.746	30.95
747.144	30.98
747.543	30.99
747.941	30.99
748.339	30.98
748.737	30.97
749.136	30.95
749.534	30.96
749.932	30.95
750.33	30.95
750.727	30.97
751.125	31
751.523	30.99
751.921	31
752.318	31.01
752.716	31.02
753.113	31.04
753.511	31.04
753.908	31.07
754.305	31.09
754.703	31.07
755.1	31.05
755.497	31.03
755.894	30.99
756.291	30.97
756.688	30.93
757.085	30.92
757.482	30.89
757.878	30.89
758.275	30.84
758.672	30.79
759.068	30.79
759.465	30.76
759.861	30.75
760.258	30.77
760.654	30.78
761.05	30.82
761.447	30.81
761.843	30.82
762.239	30.82
762.635	30.84
763.031	30.87
763.427	30.87
763.822	30.9
764.218	30.93
764.614	30.94
765.01	30.95
765.405	30.94
765.801	30.96
766.196	30.97
766.592	30.97
766.987	30.99
767.382	30.98
767.778	30.98
768.173	30.97
768.568	30.95
768.963	30.94
769.358	30.95
769.753	30.95
770.148	30.94
770.542	30.94
770.937	30.96
771.332	30.95
771.726	30.95
772.121	30.95
772.515	30.94
772.91	30.95
773.304	30.98
773.699	30.95
774.093	30.94
774.487	30.93
774.881	30.94
775.275	30.93
775.669	30.9
776.063	30.89
776.457	30.9
776.851	30.9
777.245	30.88
777.638	30.86
778.032	30.87
778.425	30.88
778.819	30.88
779.212	30.86
779.606	30.86
779.999	30.85
780.392	30.88
780.786	30.88
781.179	30.88
781.572	30.9
781.965	30.9
782.358	30.9
782.751	30.91
783.143	30.91
783.536	30.89
783.929	30.91
784.322	30.93
784.714	30.93
785.107	30.92
785.499	30.93
785.891	30.89
786.284	30.89
786.676	30.89
787.068	30.87
787.46	30.89
787.852	30.9
788.245	30.86
788.636	30.84
789.028	30.82
789.42	30.81
789.812	30.8
790.204	30.83
790.595	30.81
790.987	30.8
791.378	30.81
791.77	30.79
792.161	30.78
792.553	30.8
792.944	30.82
793.335	30.81
793.726	30.8
794.117	30.77
794.508	30.73
794.899	30.72
795.29	30.7
795.681	30.67
796.072	30.66
796.463	30.67
796.853	30.66
797.244	30.64
797.634	30.63
798.025	30.66
798.415	30.69
798.806	30.69
799.196	30.69
799.586	30.69
799.976	30.72
800.366	30.73
800.756	30.7
801.146	30.72
801.536	30.72
801.926	30.71
802.316	30.68
802.706	30.67
803.095	30.7
803.485	30.68
803.874	30.69
804.264	30.65
804.653	30.65
805.043	30.66
805.432	30.64
805.821	30.65
806.21	30.65
806.599	30.64
806.988	30.63
807.377	30.61
807.766	30.62
808.155	30.59
808.544	30.57
808.933	30.55
809.321	30.54
809.71	30.51
810.098	30.48
810.487	30.44
810.875	30.43
811.264	30.44
811.652	30.43
812.04	30.41
812.428	30.41
812.816	30.4
813.204	30.41
813.592	30.39
813.98	30.39
814.368	30.39
814.756	30.4
815.144	30.39
815.531	30.37
815.919	30.35
816.306	30.34
816.694	30.33
817.081	30.34
817.469	30.31
817.856	30.29
818.243	30.27
818.63	30.25
819.017	30.24
819.404	30.25
819.791	30.23
820.178	30.21
820.565	30.2
820.952	30.2
821.339	30.19
821.725	30.2
822.112	30.21
822.498	30.22
822.885	30.24
823.271	30.23
823.657	30.2
824.044	30.22
824.43	30.23
824.816	30.24
825.202	30.22
825.588	30.24
825.974	30.22
826.36	30.22
826.746	30.22
827.132	30.21
827.517	30.23
827.903	30.26
828.289	30.25
828.674	30.25
829.06	30.25
829.445	30.24
829.83	30.22
830.216	30.21
830.601	30.2
830.986	30.19
831.371	30.19
831.756	30.19
832.141	30.17
832.526	30.16
832.911	30.15
833.295	30.13
833.68	30.14
834.065	30.13
834.449	30.13
834.834	30.12
835.218	30.12
835.603	30.12
835.987	30.1
836.371	30.1
836.755	30.11
837.139	30.11
837.524	30.12
837.908	30.13
838.291	30.13
838.675	30.13
839.059	30.13
839.443	30.13
839.827	30.11
840.21	30.1
840.594	30.1
840.977	30.08
841.361	30.07
841.744	30.04
842.127	30.02
842.511	30.02
842.894	30.03
843.277	30.01
843.66	30
844.043	30
844.426	30
844.809	30.01
845.191	30.03
845.574	30.04
845.957	30.05
846.339	30.05
846.722	30.05
847.104	30.06
847.487	30.07
847.869	30.07
848.252	30.06
848.634	30.05
849.016	30.03
849.398	30.03
849.78	30.02
850.162	30.01
850.544	29.99
850.926	29.98
851.307	29.99
851.689	29.98
852.071	29.99
852.452	30.02
852.834	30.02
853.215	30.02
853.597	30
853.978	29.99
854.359	29.98
854.741	29.99
855.122	30
855.503	29.98
855.884	29.98
856.265	29.98
856.646	29.96
857.026	29.97
857.407	29.97
857.788	29.97
858.169	29.99
858.549	30.01
858.93	30.01
859.31	30
859.69	30.01
860.071	30.02
860.451	30.01
860.831	30.02
861.211	29.98
861.591	29.96
861.971	29.95
862.351	29.93
862.731	29.92
863.111	29.91
863.491	29.9
863.87	29.87
864.25	29.84
864.629	29.85
865.009	29.85
865.388	29.86
865.768	29.86
866.147	29.87
866.526	29.87
866.905	29.88
867.284	29.87
867.663	29.88
868.042	29.89
868.421	29.92
868.8	29.92
869.179	29.92
869.558	29.91
869.936	29.91
870.315	29.9
870.693	29.91
871.072	29.92
871.45	29.92
871.828	29.92
872.207	29.94
872.585	29.91
872.963	29.91
873.341	29.91
873.719	29.92
874.097	29.92
874.475	29.92
874.853	29.92
875.23	29.92
875.608	29.91
875.986	29.92
876.363	29.9
876.741	29.91
877.118	29.91
877.495	29.89
877.873	29.88
878.25	29.9
878.627	29.9
879.004	29.89
879.381	29.89
879.758	29.88
880.135	29.87
880.512	29.87
880.889	29.89
881.265	29.88
881.642	29.91
882.019	29.93
882.395	29.93
882.772	29.92
883.148	29.92
883.524	29.92
883.901	29.94
884.277	29.93
884.653	29.91
885.029	29.89
885.405	29.89
885.781	29.87
886.157	29.85
886.532	29.84
886.908	29.84
887.284	29.84
887.659	29.81
888.035	29.8
888.411	29.8
888.786	29.81
889.161	29.81
889.537	29.81
889.912	29.81
890.287	29.8
890.662	29.79
891.037	29.8
891.412	29.79
891.787	29.79
892.162	29.79
892.536	29.79
892.911	29.79
893.286	29.79
893.66	29.78
894.035	29.79
894.409	29.79
894.784	29.79
895.158	29.78
895.532	29.79
895.906	29.8
896.281	29.8
896.655	29.8
897.029	29.8
897.402	29.8
897.776	29.79
898.15	29.8
898.524	29.81
898.898	29.82
899.271	29.81
899.645	29.8
900.018	29.79
900.392	29.79
900.765	29.77
901.138	29.76
901.511	29.76
901.884	29.78
902.258	29.77
902.631	29.77
903.003	29.78
903.376	29.78
903.749	29.77
904.122	29.8
904.495	29.81
904.867	29.84
905.24	29.86
905.612	29.85
905.985	29.84
906.357	29.81
906.729	29.82
907.102	29.8
907.474	29.82
907.846	29.83
908.218	29.82
908.59	29.83
908.962	29.8
909.334	29.79
909.705	29.79
910.077	29.79
910.449	29.8
910.82	29.8
911.192	29.82
911.563	29.79
911.935	29.78
912.306	29.78
912.677	29.77
913.048	29.79
913.419	29.79
913.79	29.8
914.161	29.81
914.532	29.8
914.903	29.79
915.274	29.77
915.645	29.79
916.015	29.8
916.386	29.79
916.756	29.78
917.127	29.77
917.497	29.77
917.868	29.77
918.238	29.78
918.608	29.81
918.978	29.8
919.348	29.83
919.718	29.8
920.088	29.82
920.458	29.86
920.828	29.86
921.198	29.85
921.567	29.84
921.937	29.85
922.306	29.84
922.676	29.83
923.045	29.85
923.415	29.82
923.784	29.85
924.153	29.86
924.522	29.86
924.891	29.89
925.26	29.89
925.629	29.9
925.998	29.88
926.367	29.88
926.736	29.87
927.104	29.85
927.473	29.86
927.842	29.83
928.21	29.83
928.578	29.8
928.947	29.79
929.315	29.79
929.683	29.78
930.051	29.78
930.42	29.79
930.788	29.77
931.156	29.8
931.523	29.81
931.891	29.85
932.259	29.84
932.627	29.83
932.994	29.84
933.362	29.83
933.729	29.86
934.097	29.88
934.464	29.91
934.831	29.92
935.199	29.91
935.566	29.91
935.933	29.89
936.3	29.9
936.667	29.94
937.034	29.96
937.401	29.96
937.767	29.96
938.134	29.96
938.501	29.92
938.867	29.96
939.234	29.93
939.6	29.91
939.967	29.86
940.333	29.85
940.699	29.87
941.065	29.81
941.431	29.77
941.798	29.71
942.163	29.67
942.529	29.72
942.895	29.66
943.261	29.66
943.627	29.65
943.992	29.67
944.358	29.7
944.723	29.61
945.089	29.63
945.454	29.65
945.82	29.67
946.185	29.67
946.55	29.63
946.915	29.65
947.28	29.62
947.645	29.65
948.01	29.63
948.375	29.57
948.74	29.58
949.104	29.56
949.469	29.55
949.834	29.54
950.198	29.51
950.562	29.45
950.927	29.47
951.291	29.46
951.655	29.39
952.02	29.37
952.384	29.35
952.748	29.35
953.112	29.33
953.476	29.3
953.839	29.24
954.203	29.24
954.567	29.25
954.931	29.18
955.294	29.16
955.658	29.22
956.021	29.21
956.385	29.2
956.748	29.2
957.111	29.18
957.474	29.25
957.837	29.27
958.2	29.29
958.563	29.26
958.926	29.29
959.289	29.33
959.652	29.26
960.015	29.3
960.377	29.3
960.74	29.29
961.102	29.31
961.465	29.3
961.827	29.31
962.189	29.3
962.552	29.32
962.914	29.32
963.276	29.36
963.638	29.39
964	29.35
964.362	29.37
964.724	29.39
965.085	29.37
965.447	29.36
965.809	29.39
966.17	29.39
966.532	29.38
966.893	29.38
967.255	29.33
967.616	29.34
967.977	29.4
968.338	29.38
968.699	29.36
969.061	29.42
969.421	29.39
969.782	29.37
970.143	29.38
970.504	29.4
970.865	29.45
971.225	29.46
971.586	29.45
971.946	29.43
972.307	29.42
972.667	29.38
973.027	29.36
973.388	29.38
973.748	29.39
974.108	29.45
974.468	29.43
974.828	29.41
975.188	29.44
975.548	29.43
975.907	29.44
976.267	29.49
976.627	29.57
976.986	29.59
977.346	29.58
977.705	29.6
978.064	29.53
978.424	29.56
978.783	29.49
979.142	29.43
979.501	29.49
979.86	29.53
980.219	29.53
980.578	29.56
980.937	29.55
981.296	29.53
981.654	29.48
982.013	29.51
982.371	29.52
982.73	29.56
983.088	29.54
983.447	29.51
983.805	29.47
984.163	29.43
984.521	29.4
984.879	29.32
985.237	29.39
985.595	29.43
985.953	29.4
986.311	29.36
986.669	29.41
987.026	29.5
987.384	29.53
987.741	29.53
988.099	29.54
988.456	29.45
988.814	29.56
989.171	29.53
989.528	29.51
989.885	29.53
990.242	29.57
990.599	29.59
990.956	29.61
991.313	29.6
991.67	29.62
992.027	29.7
992.383	29.72
992.74	29.7
993.096	29.68
993.453	29.59
993.809	29.64
994.165	29.67
994.522	29.65
994.878	29.65
995.234	29.66
995.59	29.66
995.946	29.66
996.302	29.68
996.658	29.76
997.013	29.86
997.369	29.97
997.725	29.97
998.08	30.01
998.436	29.98
998.791	29.95
999.147	29.85
999.502	29.88
999.857	29.83
1000.212	29.8
1000.567	29.71
1000.922	29.63
1001.277	29.59
1001.632	29.5
1001.987	29.42
1002.342	29.33
1002.696	29.3
1003.051	29.43
1003.406	29.5
1003.76	29.52
1004.114	29.57
1004.469	29.58
1004.823	29.87
1005.177	29.97
1005.531	30.09
1005.885	30.16
1006.239	30.34
1006.593	30.46
1006.947	30.45
1007.301	30.23
1007.655	30.2
1008.008	30.31
1008.362	30.41
1008.715	30.18
1009.069	30.17
1009.422	30.18
1009.776	30.1
1010.129	30.06
1010.482	29.98
1010.835	30.01
1011.188	30.19
1011.541	30.22
1011.894	30.18
1012.247	30.2
1012.6	30.16
1012.952	30.17
1013.305	30.12
1013.657	30.19
1014.01	30.29
1014.362	30.36
1014.715	30.39
1015.067	30.46
1015.419	30.67
1015.771	30.67
1016.123	30.58
1016.475	30.68
1016.827	30.63
1017.179	30.76
1017.531	30.9
1017.883	30.75
1018.234	30.83
1018.586	30.84
1018.938	30.89
1019.289	30.65
1019.64	30.55
1019.992	30.58
1020.343	30.61
1020.694	30.6
1021.045	30.42
1021.396	30.18
1021.747	30.37
1022.098	30.36
1022.449	30.37
1022.8	30.2
1023.151	30.35
1023.501	30.58
1023.852	30.75
1024.202	30.57
1024.553	30.52
1024.903	30.59
1025.253	30.78
1025.604	30.72
1025.954	30.43
1026.304	30.37
1026.654	30.62
1027.004	30.43
1027.354	30.34
1027.703	29.85
1028.053	30.05
1028.403	30.11
1028.753	30.11
1029.102	30.21
1029.452	30.23
1029.801	30.55
1030.15	30.52
1030.499	30.24
897.758	1005.99
901.051	1014.46
904.343	1011.34
907.636	1026.45
910.928	999.62
914.22	1002.77
917.511	987.95
920.803	947.18
924.094	938.36
927.384	917.1
930.675	880.35
933.965	877.56
937.255	825.72
940.544	793.22
943.834	756.78
947.123	750.57
950.411	703.29
953.7	689.12
956.988	654.3
960.276	627.44
963.563	618.45
966.851	597.46
970.138	591.07
973.424	571.82
976.711	574.8
979.997	544.71
983.283	541.71
986.568	531.47
989.853	515.26
993.138	502.79
996.423	485.1
999.708	470.38
1002.992	463.55
1006.275	442.85
1009.559	439.26
1012.842	422.32
1016.125	412.13
1019.408	403.48
1022.69	397.75
1025.972	389.4
1029.254	381.01
1032.536	374.42
1035.817	367
1039.098	362.14
1042.379	355.14
1045.659	350.61
1048.939	341.25
1052.219	335.29
1055.498	330.03
1058.778	322.58
1062.057	315.13
1065.335	311.55
1068.614	307.45
1071.892	303.4
1075.17	295.18
1078.447	288.66
1081.724	285.91
1085.001	285.78
1088.278	278.7
1091.554	272.59
1094.83	273.01
1098.106	270.89
1101.382	269.34
1104.657	267.35
1107.932	263.23
1111.206	263.9
1114.481	258.31
1117.755	255.91
1121.029	252.81
1124.302	252.96
1127.575	248.79
1130.848	245.18
1134.121	242.75
1137.393	240.63
1140.665	235.8
1143.937	233.93
1147.208	232.09
1150.48	231.05
1153.75	229.09
1157.021	225.93
1160.291	225.17
1163.561	223.63
1166.831	223.48
1170.101	221.46
1173.37	221.56
1176.639	221.97
1179.907	220.19
1183.176	217.86
1186.444	218.2
1189.711	216.98
1192.979	216.64
1196.246	215.36
1199.513	216.13
1202.78	214.37
1206.046	214.07
1209.312	212.04
1212.578	212.18
1215.843	213.67
1219.108	212.35
1222.373	215.87
1225.638	217.3
1228.902	219.27
1232.166	221.05
1235.43	221.87
1238.693	225.73
1241.956	226.87
1245.219	230.36
1248.482	230.08
1251.744	230.07
1255.006	231.06
1258.268	225.5
1261.529	224.17
1264.79	222.99
1268.051	219.86
1271.312	217.9
1274.572	214.86
1277.832	213.08
1281.092	209.14
1284.351	208.18
1287.61	208.21
1290.869	205.04
1294.128	203.98
1297.386	203.93
1300.644	201.85
1303.902	202.55
1307.159	201.45
1310.416	201.43
1313.673	200.94
1316.93	203.24
1320.186	203.31
1323.442	203.55
1326.697	206.31
1329.953	206.99
1333.208	207.36
1336.463	210.57
1339.717	211.41
1342.972	213.45
1346.226	215.37
1349.479	216.49
1352.733	216.85
1355.986	219.06
1359.238	219.18
1362.491	220.62
1365.743	222.72
1368.995	222.49
1372.247	221.6
1375.498	221.46
1378.749	224
1382	221.76
1385.251	222.04
1388.501	221.06
1391.751	220.3
1395	220.16
1398.25	218.74
1401.499	217.75
1404.748	217.7
1407.996	216.36
1411.244	215.5
1414.492	213.66
1417.74	211.61
1420.987	209.27
1424.234	208.66
1427.481	205.69
1430.728	205.16
1433.974	204.32
1437.22	201.9
1440.465	201.71
1443.711	199.32
1446.956	197.57
1450.201	195.1
1453.445	194.04
1456.689	192.8
1459.933	189.5
1463.177	188.69
1466.42	185.14
1469.663	182.15
1472.906	181.19
1476.148	176.73
1479.391	174.72
1482.633	173.66
1485.874	170.74
1489.115	168.82
1492.356	167.54
1495.597	166.79
1498.838	164.24
1502.078	163.49
1505.318	162.91
1508.557	162.59
1511.797	162.02
1515.036	161.09
1518.274	159.51
1521.513	158.86
1524.751	158.51
1527.989	157.24
1531.227	157.04
1534.464	156.51
1537.701	155.57
1540.938	155.11
1544.174	153.66
1547.41	153.18
1550.646	152.17
1553.882	152.66
1557.117	150.46
1560.352	149.66
1563.587	149.21
1566.821	148.13
1570.055	147.27
1573.289	146.2
1576.523	145.64
1579.756	144.19
1582.989	143.49
1586.222	143.15
1589.454	142.19
1592.686	143.29
1595.918	142.66
1599.15	142.14
1602.381	142.74
1605.612	142.34
1608.843	142.68
1612.073	142.75
1615.303	143.54
1618.533	143.42
1621.762	144
1624.992	144.36
1628.221	143.69
1631.449	143.33
1634.678	143.31
1637.906	143.97
1641.134	144.01
1644.361	143.65
1647.588	143.36
1650.815	142.86
1654.042	142.77
1657.269	142.84
1660.495	142.98
1663.72	142.77
1666.946	143.84
1670.171	144.08
1673.396	143.81
1676.621	143.77
1679.845	143.99
1683.069	144.4
1686.293	145.38
1689.517	146.11
1692.74	146.27
1695.963	146.46
1699.185	147.92
1702.408	147.6
1705.63	148.32
1708.852	148.41
1712.073	148.66
1715.294	149.14
1718.515	149.91
1721.736	149.67
1724.956	150.11
1728.176	150.29
1731.396	151.17
1734.616	150.93
1737.835	151.74
1741.054	149.46
1744.272	150.5
1747.491	152.1
1750.709	152.41
1753.927	152.52
1757.144	152.61
1760.361	153.33
1763.578	153.72
1766.795	153.75
1770.011	154.56
1773.227	154.43
1776.443	157.48
1779.658	157.3
1782.874	157.17
1786.089	157.45
1789.303	158.05
1792.518	159.83
1795.732	159.65
1798.945	160.48
1802.159	160.85
1805.372	161.65
1808.585	163.85
1811.797	164.48
1815.01	165.04
1818.222	166.05
1821.434	167.87
1824.645	168.34
1827.856	171.01
1831.067	172.02
1834.278	172.05
1837.488	173.55
1840.698	174.52
1843.908	173.52
1847.117	174.19
1850.326	175.24
1853.535	174.59
1856.744	177.48
1859.952	177.3
1863.16	175.59
1866.368	174.81
1869.575	176.59
1872.782	174.94
1875.989	174.07
1879.196	173.9
1882.402	173.41
1885.608	173.92
1888.814	174.8
1892.019	174.23
1895.224	174.62
1898.429	174.48
1901.634	175.82
1904.838	176.27
1908.042	178.31
1911.246	178.57
1914.449	179.94
1917.652	179.92
1920.855	179.64
1924.058	179.43
1927.26	178.78
1930.462	179.23
1933.664	181.15
1936.865	180.15
1940.066	179.82
1943.267	178.25
1946.467	178.67
1949.668	179.59
1952.868	181.36
1956.067	181.86
1959.267	182.8
1962.466	183.16
1965.665	181.89
1968.863	182.32
1972.061	185.07
1975.259	186.39
1978.457	187.82
1981.654	189.21
1984.852	189.27
1988.048	189.19
1991.245	190.78
1994.441	192.29
1997.637	193.34
2000.833	197.51
2004.028	199.52
2007.223	199.94
2010.418	201.86
2013.613	205.51
2016.807	208.22
2020.001	209.91
2023.194	213.52
2026.388	217.32
2029.581	221.6
2032.774	224.4
2035.966	227.67
2039.158	228.53
2042.35	232.95
2045.542	235.34
2048.733	237.12
2051.924	241.05
2055.115	245.14
2058.306	245
2061.496	247.85
2064.686	248
2067.875	251.46
2071.065	253.91
2074.254	252.49
2077.442	255.09
2080.631	255.4
2083.819	258.93
2087.007	259.07
2090.195	262.4
2093.382	264.54
2096.569	263.3
2099.756	268.16
2102.942	269.29
2106.128	270.62
2109.314	276.12
2112.5	275.28
2115.685	282.34
2118.87	283.01
2122.055	287.67
2125.239	288.85
2128.424	293.56
2131.608	294.12
2134.791	297.49
2137.974	299.12
2141.157	300.26
2144.34	301.81
2147.523	305.69
2150.705	303.09
2153.887	306.16
2157.068	306.79
2160.25	304.59
2163.431	304.74
2166.611	310.41
2169.792	314.39
2172.972	318.39
2176.152	320.27
2179.331	324
2182.511	329.62
2185.69	332.41
2188.868	339.15
2192.047	340.42
2195.225	350.31
2198.403	359.45
2201.58	365.31
2204.758	373.71
2207.935	380.23
2211.111	386.7
2214.288	392.18
2217.464	393.95
2220.64	400.97
2223.815	405.12
2226.991	420.8
2230.166	420.38
2233.34	427.55
2236.515	434.81
2239.689	434.89
2242.863	436.61
2246.036	448.79
2249.209	447.06
2252.382	452.65
2255.555	466.05
2258.727	468.71
2261.9	472.74
2265.071	478.98
2268.243	485.84
2271.414	492.05
2274.585	502.85
2277.756	509.86
2280.926	513.57
2284.096	525.54
2287.266	537.05
2290.436	540.56
2293.605	552.25
2296.774	568.77
2299.942	584.86
2303.111	590.57
2306.279	602.28
2309.447	610.31
2312.614	626.32
2315.781	645.83
2318.948	672.77
2322.115	665.83
2325.281	703.14
2328.447	688.76
2331.613	712.42
2334.779	707.09
2337.944	737.29
2341.109	744.31
2344.274	765.96
2347.438	790.47
2350.602	787.41
2353.766	812.83
2356.929	827.76
2360.092	815.75
2363.255	874.81
2366.418	876.96
2369.58	892.82
2372.742	946.59
2375.904	973.25
2379.066	966.95
2382.227	949.47
2385.388	1030.95
2388.548	1031.67
2391.709	1040.43
2394.869	1166.93
2398.029	1120.3
2401.188	1148.39
2404.347	1141.96
2407.506	1122.49
2410.665	1151.84
2413.823	1221.99
2416.981	1293.87
2420.139	1255.56
2423.296	1242.71
2426.453	1295.09
2429.61	1248.04
2432.767	1301.95
2435.923	1290.4
2439.079	1408.61
2442.235	1428.79
2445.391	1415.45
2448.546	1407.13
2451.701	1366.81
2454.855	1363.46
2458.009	1440.64
2461.163	1505.36
2464.317	1560.48
2467.471	1599.85
2470.624	1600.1
2473.777	1561.24
2476.929	1522.21
2480.082	1477.85
2483.234	1457.39
2486.385	1535.67
2489.537	1539.59
2492.688	1596.32
2495.839	1546.26
2498.989	1511.3
2502.14	1517.62
2505.29	1531.38
2508.439	1558.35
2511.589	1553.4
2514.738	1700.99
2517.887	1662.27
2521.035	1748.81
2524.183	1768.26
2527.331	1782.1
2530.479	1778.49
2533.627	1787.31
