Data from C_1_DEC_CT_2N_Splice17_12-56-36-283.txt Node
Date: Sat Mar 07 12:56:36 EST 2020
User: sa697716
Spectrometer: NQ5500242
Trigger mode: 0
Integration Time (sec): 1.450000E-1
Scans to average: 20
Nonlinearity correction enabled: false
Boxcar width: 5
Storing dark spectrum: false
XAxis mode: Wavelengths
Number of Pixels in Spectrum: 512
>>>>>Begin Spectral Data<<<<<
187.83	162.32
188.298	144.39
188.766	112.54
189.233	107.74
189.701	106.78
190.169	124.11
190.636	105.37
191.104	111.45
191.571	113.06
192.039	79.57
192.506	28.56
192.974	74.76
193.441	49.1
193.908	-23.09
194.375	-8.23
194.842	-42.49
195.31	-19.5
195.777	-229.05
196.244	23.73
196.711	38.72
197.177	40.69
197.644	40.18
198.111	39.41
198.578	39.01
199.045	39.2
199.511	38.99
199.978	38.58
200.445	38.61
200.911	38.63
201.378	38.82
201.844	38.53
202.31	38.22
202.777	38.22
203.243	38.34
203.709	38.09
204.176	37.85
204.642	37.69
205.108	37.86
205.574	37.9
206.04	37.8
206.506	37.35
206.972	37.21
207.438	36.9
207.903	36.46
208.369	35.63
208.835	35.08
209.301	34.31
209.766	33.49
210.232	32.56
210.697	31.43
211.163	30.54
211.628	29.9
212.094	29.17
212.559	28.56
213.024	27.74
213.49	27.3
213.955	26.61
214.42	26.13
214.885	25.45
215.35	24.66
215.815	23.51
216.28	21.88
216.745	20.08
217.21	18.43
217.675	16.75
218.14	15.46
218.604	14.28
219.069	13.33
219.534	12.49
219.998	11.87
220.463	11.3
220.927	10.8
221.392	10.4
221.856	10.11
222.32	9.82
222.785	9.63
223.249	9.4
223.713	9.21
224.177	9.04
224.642	8.88
225.106	8.66
225.57	8.48
226.034	8.35
226.497	8.21
226.961	8.07
227.425	7.94
227.889	7.81
228.353	7.69
228.816	7.56
229.28	7.43
229.744	7.31
230.207	7.22
230.671	7.1
231.134	7
231.597	6.93
232.061	6.83
232.524	6.73
232.987	6.64
233.45	6.58
233.914	6.5
234.377	6.42
234.84	6.35
235.303	6.29
235.766	6.25
236.229	6.18
236.691	6.11
237.154	6.04
237.617	6
238.08	5.93
238.542	5.86
239.005	5.81
239.468	5.76
239.93	5.7
240.393	5.64
240.855	5.56
241.317	5.51
241.78	5.45
242.242	5.4
242.704	5.37
243.166	5.31
243.629	5.27
244.091	5.21
244.553	5.16
245.015	5.12
245.477	5.07
245.939	5.04
246.4	4.99
246.862	4.95
247.324	4.9
247.786	4.85
248.247	4.81
248.709	4.76
249.17	4.71
249.632	4.69
250.093	4.65
250.555	4.61
251.016	4.58
251.477	4.55
251.939	4.52
252.4	4.49
252.861	4.46
253.322	4.43
253.783	4.41
254.244	4.39
254.705	4.35
255.166	4.32
255.627	4.3
256.088	4.29
256.549	4.27
257.009	4.24
257.47	4.21
257.931	4.17
258.391	4.15
258.852	4.12
259.312	4.09
259.773	4.06
260.233	4.04
260.694	4.01
261.154	3.98
261.614	3.95
262.074	3.92
262.534	3.9
262.994	3.88
263.455	3.85
263.915	3.84
264.374	3.82
264.834	3.81
265.294	3.79
265.754	3.78
266.214	3.76
266.673	3.75
267.133	3.74
267.593	3.73
268.052	3.72
268.512	3.7
268.971	3.69
269.431	3.68
269.89	3.66
270.349	3.66
270.809	3.64
271.268	3.63
271.727	3.62
272.186	3.6
272.645	3.6
273.104	3.58
273.563	3.57
274.022	3.56
274.481	3.55
274.94	3.55
275.399	3.53
275.857	3.52
276.316	3.52
276.775	3.51
277.233	3.51
277.692	3.49
278.15	3.49
278.609	3.49
279.067	3.48
279.525	3.47
279.984	3.47
280.442	3.46
280.9	3.46
281.358	3.45
281.816	3.45
282.274	3.44
282.732	3.43
283.19	3.42
283.648	3.41
284.106	3.41
284.564	3.4
285.021	3.38
285.479	3.37
285.937	3.36
286.394	3.35
286.852	3.34
287.309	3.34
287.767	3.32
288.224	3.31
288.682	3.3
289.139	3.28
289.596	3.27
290.053	3.25
290.511	3.24
290.968	3.23
291.425	3.21
291.882	3.21
292.339	3.19
292.796	3.19
293.252	3.18
293.709	3.17
294.166	3.16
294.623	3.16
295.079	3.15
295.536	3.15
295.992	3.14
296.449	3.13
296.905	3.12
297.362	3.12
297.818	3.11
298.274	3.11
298.731	3.1
299.187	3.09
299.643	3.08
300.099	3.09
300.555	3.08
301.011	3.08
301.467	3.08
301.923	3.08
302.379	3.08
302.835	3.07
303.291	3.07
303.746	3.06
304.202	3.06
304.658	3.06
305.113	3.05
305.569	3.05
306.024	3.04
306.479	3.04
306.935	3.03
307.39	3.03
307.845	3.03
308.301	3.03
308.756	3.03
309.211	3.02
309.666	3.03
310.121	3.03
310.576	3.03
311.031	3.04
311.486	3.04
311.94	3.04
312.395	3.04
312.85	3.04
313.305	3.04
313.759	3.04
314.214	3.04
314.668	3.03
315.123	3.03
315.577	3.02
316.032	3.01
316.486	3.01
316.94	3.01
317.394	3
317.849	2.99
318.303	2.98
318.757	2.96
319.211	2.95
319.665	2.94
320.119	2.94
320.572	2.93
321.026	2.93
321.48	2.92
321.934	2.9
322.387	2.89
322.841	2.88
323.295	2.89
323.748	2.89
324.202	2.88
324.655	2.88
325.108	2.88
325.562	2.88
326.015	2.87
326.468	2.87
326.921	2.87
327.374	2.87
327.827	2.87
328.28	2.87
328.733	2.87
329.186	2.87
329.639	2.87
330.092	2.87
330.545	2.86
330.997	2.86
331.45	2.87
331.903	2.88
332.355	2.88
332.808	2.88
333.26	2.88
333.713	2.88
334.165	2.88
334.617	2.88
335.069	2.87
335.522	2.88
335.974	2.88
336.426	2.87
336.878	2.86
337.33	2.86
337.782	2.85
338.234	2.86
338.686	2.86
339.137	2.86
339.589	2.86
340.041	2.86
340.493	2.86
340.944	2.84
341.396	2.83
341.847	2.83
342.299	2.82
342.75	2.82
343.201	2.81
343.653	2.79
344.104	2.78
344.555	2.77
345.006	2.76
345.457	2.75
345.908	2.74
346.359	2.75
346.81	2.74
347.261	2.75
347.712	2.73
348.163	2.72
348.613	2.73
349.064	2.73
349.515	2.74
349.965	2.75
350.416	2.74
350.866	2.74
351.317	2.74
351.767	2.74
352.217	2.73
352.668	2.73
353.118	2.74
353.568	2.73
354.018	2.72
354.468	2.72
354.918	2.73
355.368	2.73
355.818	2.73
356.268	2.73
356.718	2.73
357.168	2.72
357.617	2.72
358.067	2.72
358.517	2.73
358.966	2.73
359.416	2.74
359.865	2.73
360.315	2.73
360.764	2.74
361.213	2.73
361.663	2.73
362.112	2.74
362.561	2.76
363.01	2.76
363.459	2.74
363.908	2.74
364.357	2.75
364.806	2.74
365.255	2.74
365.703	2.74
366.152	2.74
366.601	2.75
367.05	2.75
367.498	2.74
367.947	2.75
368.395	2.76
368.844	2.76
369.292	2.76
369.74	2.77
370.189	2.77
370.637	2.76
371.085	2.76
371.533	2.75
371.981	2.75
372.429	2.75
372.877	2.74
373.325	2.73
373.773	2.73
374.221	2.72
374.669	2.72
375.116	2.71
375.564	2.71
376.012	2.71
376.459	2.7
376.907	2.7
377.354	2.69
377.801	2.69
378.249	2.69
378.696	2.69
379.143	2.69
379.591	2.7
380.038	2.7
380.485	2.7
380.932	2.7
381.379	2.71
381.826	2.71
382.273	2.72
382.72	2.7
383.166	2.7
383.613	2.7
384.06	2.69
384.506	2.68
384.953	2.69
385.4	2.69
385.846	2.7
386.292	2.69
386.739	2.69
387.185	2.69
387.631	2.7
388.078	2.69
388.524	2.7
388.97	2.7
389.416	2.7
389.862	2.7
390.308	2.71
390.754	2.71
391.2	2.72
391.645	2.73
392.091	2.74
392.537	2.75
392.983	2.76
393.428	2.76
393.874	2.77
394.319	2.78
394.765	2.78
395.21	2.78
395.655	2.8
396.101	2.81
396.546	2.81
396.991	2.82
397.436	2.83
397.881	2.86
398.326	2.87
398.771	2.9
399.216	2.92
399.661	2.93
400.106	2.95
400.551	2.94
400.995	2.94
401.44	2.96
401.885	2.97
402.329	2.98
402.774	2.98
403.218	3.01
403.663	3.02
404.107	3.03
404.551	3.04
404.995	3.05
405.44	3.06
405.884	3.07
406.328	3.08
406.772	3.08
407.216	3.09
407.66	3.1
408.104	3.1
408.547	3.1
408.991	3.12
409.435	3.13
409.879	3.15
410.322	3.17
410.766	3.19
411.209	3.21
411.653	3.23
412.096	3.24
412.54	3.25
412.983	3.26
413.426	3.3
413.869	3.31
414.312	3.32
414.756	3.33
415.199	3.32
415.642	3.33
416.085	3.34
416.527	3.34
416.97	3.33
417.413	3.33
417.856	3.34
418.298	3.32
418.741	3.33
419.184	3.33
419.626	3.33
420.069	3.35
420.511	3.36
420.953	3.37
421.396	3.38
421.838	3.4
422.28	3.4
422.722	3.42
423.164	3.43
423.606	3.43
424.048	3.44
424.49	3.43
424.932	3.42
425.374	3.4
425.816	3.37
426.258	3.36
426.699	3.35
427.141	3.35
427.582	3.34
428.024	3.36
428.465	3.36
428.907	3.35
429.348	3.35
429.789	3.36
430.231	3.38
430.672	3.4
431.113	3.42
431.554	3.43
431.995	3.44
432.436	3.45
432.877	3.45
433.318	3.47
433.759	3.49
434.2	3.5
434.64	3.51
435.081	3.52
435.522	3.53
435.962	3.55
436.403	3.58
436.843	3.59
437.284	3.59
437.724	3.59
438.164	3.58
438.604	3.6
439.045	3.61
439.485	3.6
439.925	3.6
440.365	3.62
440.805	3.61
441.245	3.62
441.685	3.63
442.125	3.65
442.564	3.65
443.004	3.66
443.444	3.66
443.883	3.66
444.323	3.66
444.762	3.65
445.202	3.64
445.641	3.65
446.081	3.65
446.52	3.64
446.959	3.65
447.398	3.67
447.837	3.67
448.276	3.66
448.716	3.67
449.154	3.7
449.593	3.73
450.032	3.73
450.471	3.71
450.91	3.71
451.349	3.71
451.787	3.69
452.226	3.68
452.664	3.68
453.103	3.67
453.541	3.67
453.98	3.67
454.418	3.64
454.856	3.64
455.295	3.63
455.733	3.61
456.171	3.6
456.609	3.59
457.047	3.59
457.485	3.59
457.923	3.59
458.361	3.59
458.798	3.58
459.236	3.58
459.674	3.58
460.111	3.57
460.549	3.58
460.987	3.6
461.424	3.61
461.862	3.62
462.299	3.62
462.736	3.61
463.173	3.61
463.611	3.62
464.048	3.63
464.485	3.65
464.922	3.65
465.359	3.65
465.796	3.66
466.233	3.66
466.67	3.66
467.106	3.67
467.543	3.68
467.98	3.67
468.416	3.67
468.853	3.66
469.29	3.66
469.726	3.66
470.162	3.65
470.599	3.64
471.035	3.63
471.471	3.62
471.907	3.61
472.344	3.61
472.78	3.61
473.216	3.6
473.652	3.6
474.088	3.58
474.523	3.58
474.959	3.58
475.395	3.56
475.831	3.55
476.266	3.55
476.702	3.54
477.138	3.52
477.573	3.52
478.008	3.52
478.444	3.5
478.879	3.5
479.314	3.49
479.75	3.48
480.185	3.46
480.62	3.46
481.055	3.44
481.49	3.44
481.925	3.44
482.36	3.43
482.795	3.42
483.229	3.43
483.664	3.43
484.099	3.43
484.534	3.43
484.968	3.45
485.403	3.45
485.837	3.46
486.271	3.47
486.706	3.47
487.14	3.48
487.574	3.49
488.009	3.5
488.443	3.51
488.877	3.52
489.311	3.53
489.745	3.55
490.179	3.56
490.613	3.58
491.046	3.6
491.48	3.63
491.914	3.65
492.348	3.67
492.781	3.7
493.215	3.72
493.648	3.75
494.082	3.77
494.515	3.79
494.948	3.82
495.382	3.86
495.815	3.9
496.248	3.94
496.681	3.99
497.114	4.04
497.547	4.08
497.98	4.13
498.413	4.18
498.846	4.25
499.279	4.31
499.711	4.37
500.144	4.43
500.577	4.5
501.009	4.56
501.442	4.63
501.874	4.71
502.306	4.79
502.739	4.89
503.171	4.98
503.603	5.08
504.036	5.18
504.468	5.28
504.9	5.38
505.332	5.5
505.764	5.62
506.196	5.74
506.627	5.88
507.059	6.02
507.491	6.14
507.923	6.29
508.354	6.45
508.786	6.61
509.217	6.78
509.649	6.95
510.08	7.13
510.512	7.32
510.943	7.49
511.374	7.68
511.805	7.87
512.237	8.07
512.668	8.28
513.099	8.49
513.53	8.7
513.961	8.92
514.391	9.15
514.822	9.37
515.253	9.59
515.684	9.83
516.114	10.07
516.545	10.31
516.975	10.56
517.406	10.8
517.836	11.04
518.267	11.28
518.697	11.51
519.127	11.74
519.558	11.99
519.988	12.24
520.418	12.47
520.848	12.7
521.278	12.92
521.708	13.22
522.138	13.43
522.567	13.65
522.997	13.87
523.427	14.09
523.857	14.29
524.286	14.48
524.716	14.67
525.145	14.87
525.575	15.06
526.004	15.26
526.433	15.38
526.863	15.56
527.292	15.74
527.721	15.89
528.15	16.04
528.579	16.2
529.008	16.33
529.437	16.47
529.866	16.58
530.295	16.7
530.724	16.81
531.152	16.91
531.581	17.03
532.01	17.12
532.438	17.23
532.867	17.32
533.295	17.41
533.723	17.5
534.152	17.59
534.58	17.68
535.008	17.75
535.436	17.82
535.865	17.87
536.293	17.91
536.721	17.96
537.149	18.01
537.576	18.04
538.004	18.08
538.432	18.12
538.86	18.14
539.287	18.15
539.715	18.2
540.143	18.24
540.57	18.29
540.998	18.32
541.425	18.35
541.852	18.37
542.28	18.41
542.707	18.44
543.134	18.46
543.561	18.5
543.988	18.53
544.415	18.54
544.842	18.54
545.269	18.57
545.696	18.6
546.123	18.61
546.549	18.65
546.976	18.67
547.403	18.68
547.829	18.7
548.256	18.71
548.682	18.72
549.108	18.74
549.535	18.76
549.961	18.76
550.387	18.76
550.813	18.77
551.24	18.75
551.666	18.75
552.092	18.75
552.518	18.75
552.943	18.73
553.369	18.73
553.795	18.7
554.221	18.67
554.646	18.64
555.072	18.6
555.498	18.57
555.923	18.53
556.349	18.46
556.774	18.4
557.199	18.33
557.625	18.28
558.05	18.2
558.475	18.14
558.9	18.07
559.325	18
559.75	17.92
560.175	17.83
560.6	17.74
561.025	17.66
561.449	17.58
561.874	17.48
562.299	17.39
562.723	17.28
563.148	17.16
563.572	17.04
563.997	16.93
564.421	16.81
564.846	16.69
565.27	16.57
565.694	16.44
566.118	16.31
566.542	16.19
566.966	16.05
567.39	15.93
567.814	15.8
568.238	15.67
568.662	15.54
569.086	15.42
569.509	15.3
569.933	15.18
570.357	15.06
570.78	14.94
571.204	14.82
571.627	14.71
572.05	14.6
572.474	14.49
572.897	14.4
573.32	14.29
573.743	14.18
574.166	14.07
574.589	13.98
575.012	13.86
575.435	13.77
575.858	13.67
576.281	13.57
576.704	13.46
577.126	13.38
577.549	13.28
577.972	13.19
578.394	13.11
578.817	13.03
579.239	12.93
579.661	12.86
580.084	12.77
580.506	12.71
580.928	12.64
581.35	12.58
581.772	12.51
582.194	12.44
582.616	12.39
583.038	12.33
583.46	12.26
583.882	12.2
584.303	12.13
584.725	12.08
585.147	12.02
585.568	11.97
585.99	11.91
586.411	11.84
586.833	11.8
587.254	11.73
587.675	11.67
588.096	11.63
588.518	11.59
588.939	11.56
589.36	11.52
589.781	11.48
590.202	11.44
590.623	11.4
591.043	11.36
591.464	11.33
591.885	11.29
592.305	11.26
592.726	11.23
593.147	11.19
593.567	11.15
593.987	11.11
594.408	11.07
594.828	11.04
595.248	11.02
595.669	11
596.089	10.98
596.509	10.95
596.929	10.92
597.349	10.89
597.769	10.87
598.189	10.83
598.608	10.82
599.028	10.79
599.448	10.76
599.867	10.72
600.287	10.68
600.706	10.65
601.126	10.62
601.545	10.6
601.965	10.58
602.384	10.54
602.803	10.49
603.222	10.44
603.641	10.4
604.061	10.36
604.48	10.31
604.898	10.25
605.317	10.19
605.736	10.14
606.155	10.07
606.574	10
606.992	9.94
607.411	9.89
607.829	9.81
608.248	9.74
608.666	9.68
609.085	9.62
609.503	9.57
609.921	9.51
610.339	9.45
610.758	9.39
611.176	9.33
611.594	9.27
612.012	9.21
612.43	9.17
612.847	9.1
613.265	9.04
613.683	8.98
614.101	8.92
614.518	8.86
614.936	8.79
615.353	8.73
615.771	8.68
616.188	8.61
616.606	8.57
617.023	8.52
617.44	8.48
617.857	8.44
618.274	8.39
618.691	8.36
619.108	8.31
619.525	8.28
619.942	8.25
620.359	8.22
620.776	8.19
621.192	8.16
621.609	8.14
622.026	8.12
622.442	8.11
622.859	8.09
623.275	8.06
623.691	8.04
624.108	8.04
624.524	8.02
624.94	7.99
625.356	7.99
625.772	7.97
626.188	7.96
626.604	7.94
627.02	7.92
627.436	7.91
627.852	7.91
628.268	7.9
628.683	7.89
629.099	7.88
629.514	7.87
629.93	7.86
630.345	7.85
630.761	7.83
631.176	7.81
631.591	7.79
632.007	7.76
632.422	7.73
632.837	7.69
633.252	7.65
633.667	7.6
634.082	7.56
634.497	7.51
634.911	7.45
635.326	7.39
635.741	7.34
636.155	7.26
636.57	7.2
636.984	7.13
637.399	7.06
637.813	6.98
638.228	6.91
638.642	6.81
639.056	6.72
639.47	6.64
639.884	6.56
640.298	6.47
640.712	6.39
641.126	6.3
641.54	6.22
641.954	6.13
642.368	6.05
642.781	5.98
643.195	5.9
643.609	5.82
644.022	5.75
644.436	5.67
644.849	5.6
645.262	5.53
645.676	5.47
646.089	5.41
646.502	5.36
646.915	5.31
647.328	5.26
647.741	5.21
648.154	5.17
648.567	5.13
648.98	5.1
649.393	5.07
649.805	5.05
650.218	5.02
650.631	4.99
651.043	4.96
651.456	4.94
651.868	4.9
652.28	4.88
652.693	4.84
653.105	4.82
653.517	4.78
653.929	4.75
654.341	4.71
654.753	4.67
655.165	4.63
655.577	4.59
655.989	4.54
656.401	4.5
656.813	4.47
657.224	4.42
657.636	4.37
658.047	4.32
658.459	4.26
658.87	4.21
659.282	4.15
659.693	4.1
660.104	4.04
660.515	3.99
660.926	3.93
661.338	3.88
661.749	3.83
662.159	3.78
662.57	3.74
662.981	3.7
663.392	3.66
663.803	3.63
664.213	3.59
664.624	3.56
665.035	3.52
665.445	3.5
665.855	3.46
666.266	3.44
666.676	3.44
667.086	3.41
667.497	3.39
667.907	3.38
668.317	3.38
668.727	3.36
669.137	3.36
669.547	3.36
669.956	3.35
670.366	3.35
670.776	3.34
671.186	3.34
671.595	3.35
672.005	3.34
672.414	3.36
672.824	3.35
673.233	3.36
673.642	3.36
674.052	3.37
674.461	3.39
674.87	3.4
675.279	3.42
675.688	3.44
676.097	3.46
676.506	3.48
676.915	3.49
677.323	3.52
677.732	3.53
678.141	3.56
678.549	3.58
678.958	3.61
679.366	3.65
679.775	3.67
680.183	3.7
680.592	3.74
681	3.79
681.408	3.84
681.816	3.89
682.224	3.96
682.632	4.03
683.04	4.11
683.448	4.19
683.856	4.26
684.264	4.37
684.671	4.48
685.079	4.61
685.487	4.74
685.894	4.9
686.302	5.08
686.709	5.27
687.116	5.47
687.524	5.71
687.931	5.97
688.338	6.25
688.745	6.53
689.152	6.83
689.559	7.18
689.966	7.52
690.373	7.88
690.78	8.26
691.187	8.65
691.593	9.06
692	9.49
692.407	9.92
692.813	10.36
693.22	10.82
693.626	11.3
694.032	11.76
694.439	12.24
694.845	12.73
695.251	13.22
695.657	13.7
696.063	14.21
696.469	14.68
696.875	15.19
697.281	15.69
697.687	16.18
698.093	16.66
698.498	17.13
698.904	17.61
699.31	18.07
699.715	18.54
700.12	19.02
700.526	19.46
700.931	19.92
701.337	20.36
701.742	20.78
702.147	21.21
702.552	21.65
702.957	22.06
703.362	22.47
703.767	22.87
704.172	23.28
704.577	23.66
704.981	24.05
705.386	24.43
705.791	24.8
706.195	25.18
706.6	25.56
707.004	25.9
707.408	26.28
707.813	26.63
708.217	26.99
708.621	27.33
709.025	27.67
709.43	28
709.834	28.35
710.237	28.68
710.641	28.99
711.045	29.29
711.449	29.63
711.853	29.95
712.256	30.25
712.66	30.54
713.064	30.82
713.467	31.11
713.87	31.39
714.274	31.64
714.677	31.91
715.08	32.18
715.484	32.45
715.887	32.7
716.29	32.94
716.693	33.2
717.096	33.43
717.499	33.67
717.901	33.9
718.304	34.13
718.707	34.36
719.109	34.57
719.512	34.79
719.915	34.99
720.317	35.16
720.719	35.34
721.122	35.52
721.524	35.72
721.926	35.91
722.328	36.12
722.731	36.3
723.133	36.46
723.535	36.64
723.937	36.79
724.338	36.95
724.74	37.12
725.142	37.36
725.544	37.5
725.945	37.66
726.347	37.76
726.748	37.86
727.15	37.98
727.551	38.13
727.952	38.24
728.354	38.35
728.755	38.44
729.156	38.53
729.557	38.54
729.958	38.63
730.359	38.7
730.76	38.83
731.161	38.9
731.562	38.99
731.962	39.03
732.363	39.13
732.763	39.21
733.164	39.28
733.564	39.36
733.965	39.45
734.365	39.53
734.766	39.59
735.166	39.63
735.566	39.69
735.966	39.75
736.366	39.81
736.766	39.85
737.166	39.91
737.566	39.95
737.966	40
738.365	40.02
738.765	40.07
739.165	40.12
739.564	40.17
739.964	40.2
740.363	40.22
740.763	40.25
741.162	40.29
741.561	40.31
741.96	40.34
742.36	40.38
742.759	40.42
743.158	40.45
743.557	40.45
743.955	40.47
744.354	40.5
744.753	40.54
745.152	40.59
745.55	40.62
745.949	40.66
746.348	40.71
746.746	40.72
747.144	40.74
747.543	40.77
747.941	40.8
748.339	40.8
748.737	40.83
749.136	40.84
749.534	40.83
749.932	40.83
750.33	40.84
750.727	40.84
751.125	40.85
751.523	40.84
751.921	40.84
752.318	40.84
752.716	40.87
753.113	40.87
753.511	40.87
753.908	40.91
754.305	40.93
754.703	40.93
755.1	40.95
755.497	40.95
755.894	40.98
756.291	41
756.688	41
757.085	41
757.482	41.02
757.878	41.06
758.275	41.04
758.672	41.03
759.068	41.05
759.465	41.06
759.861	41.07
760.258	41.05
760.654	41.06
761.05	41.09
761.447	41.09
761.843	41.07
762.239	41.04
762.635	41.04
763.031	41.05
763.427	41.03
763.822	41.04
764.218	41.05
764.614	41.06
765.01	41.02
765.405	41.01
765.801	41.01
766.196	41.01
766.592	40.99
766.987	40.98
767.382	40.99
767.778	41
768.173	40.98
768.568	40.97
768.963	40.98
769.358	41
769.753	40.98
770.148	40.99
770.542	40.99
770.937	41.03
771.332	41.04
771.726	41.02
772.121	41.02
772.515	41.02
772.91	41.01
773.304	41
773.699	40.99
774.093	41
774.487	41
774.881	41
775.275	40.98
775.669	40.97
776.063	40.95
776.457	40.94
776.851	40.93
777.245	40.88
777.638	40.87
778.032	40.89
778.425	40.88
778.819	40.89
779.212	40.91
779.606	40.93
779.999	40.94
780.392	40.97
780.786	40.97
781.179	40.99
781.572	41.04
781.965	41.08
782.358	41.08
782.751	41.07
783.143	41.08
783.536	41.04
783.929	41.05
784.322	41.05
784.714	41.04
785.107	41.07
785.499	41.09
785.891	41.09
786.284	41.09
786.676	41.07
787.068	41.08
787.46	41.06
787.852	41.07
788.245	41.05
788.636	41.03
789.028	41.02
789.42	40.96
789.812	40.96
790.204	40.96
790.595	40.94
790.987	40.96
791.378	40.97
791.77	40.97
792.161	40.96
792.553	40.98
792.944	41
793.335	41.02
793.726	41.06
794.117	41.02
794.508	40.97
794.899	40.97
795.29	40.96
795.681	40.93
796.072	40.93
796.463	40.95
796.853	40.94
797.244	40.92
797.634	40.88
798.025	40.89
798.415	40.91
798.806	40.92
799.196	40.93
799.586	40.94
799.976	40.96
800.366	40.95
800.756	40.93
801.146	40.93
801.536	40.93
801.926	40.95
802.316	40.95
802.706	40.94
803.095	40.97
803.485	40.96
803.874	40.95
804.264	40.94
804.653	40.93
805.043	40.92
805.432	40.93
805.821	40.93
806.21	40.93
806.599	40.93
806.988	40.95
807.377	40.92
807.766	40.9
808.155	40.88
808.544	40.89
808.933	40.91
809.321	40.91
809.71	40.92
810.098	40.93
810.487	40.93
810.875	40.89
811.264	40.87
811.652	40.89
812.04	40.89
812.428	40.92
812.816	40.92
813.204	40.93
813.592	40.91
813.98	40.91
814.368	40.89
814.756	40.9
815.144	40.93
815.531	40.9
815.919	40.9
816.306	40.92
816.694	40.9
817.081	40.9
817.469	40.89
817.856	40.91
818.243	40.87
818.63	40.86
819.017	40.85
819.404	40.82
819.791	40.84
820.178	40.83
820.565	40.81
820.952	40.8
821.339	40.79
821.725	40.81
822.112	40.8
822.498	40.81
822.885	40.85
823.271	40.83
823.657	40.81
824.044	40.82
824.43	40.83
824.816	40.83
825.202	40.84
825.588	40.83
825.974	40.81
826.36	40.81
826.746	40.8
827.132	40.77
827.517	40.81
827.903	40.85
828.289	40.86
828.674	40.84
829.06	40.85
829.445	40.83
829.83	40.82
830.216	40.82
830.601	40.82
830.986	40.85
831.371	40.85
831.756	40.86
832.141	40.85
832.526	40.86
832.911	40.85
833.295	40.85
833.68	40.88
834.065	40.9
834.449	40.89
834.834	40.89
835.218	40.89
835.603	40.89
835.987	40.86
836.371	40.84
836.755	40.84
837.139	40.83
837.524	40.83
837.908	40.84
838.291	40.85
838.675	40.86
839.059	40.86
839.443	40.83
839.827	40.85
840.21	40.84
840.594	40.87
840.977	40.86
841.361	40.87
841.744	40.85
842.127	40.83
842.511	40.8
842.894	40.8
843.277	40.8
843.66	40.79
844.043	40.8
844.426	40.8
844.809	40.81
845.191	40.83
845.574	40.85
845.957	40.85
846.339	40.87
846.722	40.87
847.104	40.88
847.487	40.88
847.869	40.9
848.252	40.89
848.634	40.89
849.016	40.88
849.398	40.89
849.78	40.88
850.162	40.89
850.544	40.89
850.926	40.89
851.307	40.89
851.689	40.9
852.071	40.92
852.452	40.91
852.834	40.93
853.215	40.92
853.597	40.91
853.978	40.91
854.359	40.93
854.741	40.94
855.122	40.95
855.503	40.94
855.884	40.9
856.265	40.88
856.646	40.86
857.026	40.85
857.407	40.86
857.788	40.83
858.169	40.83
858.549	40.82
858.93	40.8
859.31	40.8
859.69	40.81
860.071	40.86
860.451	40.88
860.831	40.88
861.211	40.86
861.591	40.86
861.971	40.86
862.351	40.88
862.731	40.88
863.111	40.87
863.491	40.87
863.87	40.85
864.25	40.83
864.629	40.84
865.009	40.85
865.388	40.84
865.768	40.84
866.147	40.84
866.526	40.83
866.905	40.82
867.284	40.84
867.663	40.84
868.042	40.84
868.421	40.84
868.8	40.85
869.179	40.83
869.558	40.82
869.936	40.8
870.315	40.81
870.693	40.81
871.072	40.81
871.45	40.79
871.828	40.79
872.207	40.82
872.585	40.78
872.963	40.79
873.341	40.8
873.719	40.79
874.097	40.8
874.475	40.83
874.853	40.83
875.23	40.85
875.608	40.85
875.986	40.85
876.363	40.85
876.741	40.88
877.118	40.89
877.495	40.91
877.873	40.92
878.25	40.95
878.627	40.95
879.004	40.95
879.381	40.95
879.758	40.96
880.135	40.97
880.512	40.95
880.889	40.94
881.265	40.93
881.642	40.92
882.019	40.92
882.395	40.91
882.772	40.9
883.148	40.88
883.524	40.89
883.901	40.88
884.277	40.88
884.653	40.84
885.029	40.85
885.405	40.85
885.781	40.86
886.157	40.86
886.532	40.85
886.908	40.84
887.284	40.83
887.659	40.8
888.035	40.79
888.411	40.79
888.786	40.82
889.161	40.82
889.537	40.81
889.912	40.81
890.287	40.8
890.662	40.79
891.037	40.8
891.412	40.82
891.787	40.83
892.162	40.83
892.536	40.82
892.911	40.81
893.286	40.81
893.66	40.83
894.035	40.83
894.409	40.84
894.784	40.84
895.158	40.83
895.532	40.83
895.906	40.83
896.281	40.83
896.655	40.83
897.029	40.84
897.402	40.84
897.776	40.83
898.15	40.82
898.524	40.82
898.898	40.84
899.271	40.82
899.645	40.8
900.018	40.81
900.392	40.8
900.765	40.82
901.138	40.8
901.511	40.78
901.884	40.79
902.258	40.82
902.631	40.81
903.003	40.81
903.376	40.82
903.749	40.83
904.122	40.86
904.495	40.85
904.867	40.88
905.24	40.91
905.612	40.92
905.985	40.88
906.357	40.86
906.729	40.87
907.102	40.85
907.474	40.89
907.846	40.9
908.218	40.86
908.59	40.87
908.962	40.85
909.334	40.85
909.705	40.84
910.077	40.88
910.449	40.89
910.82	40.87
911.192	40.88
911.563	40.83
911.935	40.81
912.306	40.82
912.677	40.82
913.048	40.81
913.419	40.78
913.79	40.77
914.161	40.76
914.532	40.77
914.903	40.8
915.274	40.79
915.645	40.78
916.015	40.8
916.386	40.81
916.756	40.81
917.127	40.84
917.497	40.85
917.868	40.86
918.238	40.85
918.608	40.85
918.978	40.84
919.348	40.86
919.718	40.87
920.088	40.87
920.458	40.87
920.828	40.84
921.198	40.82
921.567	40.84
921.937	40.86
922.306	40.86
922.676	40.84
923.045	40.84
923.415	40.81
923.784	40.8
924.153	40.83
924.522	40.84
924.891	40.86
925.26	40.88
925.629	40.9
925.998	40.88
926.367	40.88
926.736	40.91
927.104	40.92
927.473	40.92
927.842	40.94
928.21	40.95
928.578	40.93
928.947	40.94
929.315	40.92
929.683	40.89
930.051	40.86
930.42	40.87
930.788	40.83
931.156	40.79
931.523	40.81
931.891	40.86
932.259	40.84
932.627	40.85
932.994	40.82
933.362	40.82
933.729	40.85
934.097	40.88
934.464	40.9
934.831	40.9
935.199	40.97
935.566	40.97
935.933	40.88
936.3	40.85
936.667	40.87
937.034	40.93
937.401	40.94
937.767	40.9
938.134	40.88
938.501	40.86
938.867	40.88
939.234	40.83
939.6	40.8
939.967	40.89
940.333	40.93
940.699	40.87
941.065	40.81
941.431	40.76
941.798	40.75
942.163	40.74
942.529	40.72
942.895	40.74
943.261	40.7
943.627	40.69
943.992	40.61
944.358	40.58
944.723	40.61
945.089	40.57
945.454	40.62
945.82	40.63
946.185	40.62
946.55	40.56
946.915	40.53
947.28	40.5
947.645	40.5
948.01	40.53
948.375	40.52
948.74	40.49
949.104	40.53
949.469	40.52
949.834	40.47
950.198	40.49
950.562	40.48
950.927	40.44
951.291	40.45
951.655	40.36
952.02	40.34
952.384	40.29
952.748	40.3
953.112	40.26
953.476	40.2
953.839	40.21
954.203	40.21
954.567	40.19
954.931	40.2
955.294	40.17
955.658	40.28
956.021	40.25
956.385	40.25
956.748	40.22
957.111	40.16
957.474	40.15
957.837	40.06
958.2	40.01
958.563	40.01
958.926	40
959.289	40.06
959.652	39.97
960.015	39.98
960.377	39.96
960.74	39.99
961.102	40.08
961.465	40.14
961.827	40.24
962.189	40.28
962.552	40.28
962.914	40.28
963.276	40.25
963.638	40.32
964	40.3
964.362	40.34
964.724	40.28
965.085	40.23
965.447	40.18
965.809	40.16
966.17	40.13
966.532	40.16
966.893	40.21
967.255	40.2
967.616	40.17
967.977	40.24
968.338	40.23
968.699	40.29
969.061	40.29
969.421	40.33
969.782	40.36
970.143	40.38
970.504	40.41
970.865	40.39
971.225	40.38
971.586	40.37
971.946	40.29
972.307	40.26
972.667	40.25
973.027	40.33
973.388	40.3
973.748	40.27
974.108	40.28
974.468	40.25
974.828	40.28
975.188	40.31
975.548	40.32
975.907	40.33
976.267	40.37
976.627	40.39
976.986	40.35
977.346	40.29
977.705	40.32
978.064	40.3
978.424	40.27
978.783	40.19
979.142	40.14
979.501	40.13
979.86	40.18
980.219	40.17
980.578	40.17
980.937	40.17
981.296	40.15
981.654	40.13
982.013	40.19
982.371	40.24
982.73	40.3
983.088	40.33
983.447	40.34
983.805	40.31
984.163	40.34
984.521	40.34
984.879	40.3
985.237	40.37
985.595	40.44
985.953	40.38
986.311	40.35
986.669	40.32
987.026	40.31
987.384	40.35
987.741	40.31
988.099	40.28
988.456	40.21
988.814	40.26
989.171	40.31
989.528	40.26
989.885	40.3
990.242	40.29
990.599	40.31
990.956	40.36
991.313	40.36
991.67	40.4
992.027	40.58
992.383	40.71
992.74	40.71
993.096	40.7
993.453	40.71
993.809	40.69
994.165	40.74
994.522	40.82
994.878	40.85
995.234	40.92
995.59	40.91
995.946	40.74
996.302	40.73
996.658	40.76
997.013	40.7
997.369	40.73
997.725	40.76
998.08	40.75
998.436	40.75
998.791	40.75
999.147	40.7
999.502	40.81
999.857	40.83
1000.212	40.76
1000.567	40.79
1000.922	40.83
1001.277	40.79
1001.632	40.77
1001.987	40.85
1002.342	40.79
1002.696	40.8
1003.051	40.85
1003.406	40.84
1003.76	40.87
1004.114	40.95
1004.469	41.04
1004.823	41.27
1005.177	41.26
1005.531	41.31
1005.885	41.33
1006.239	41.33
1006.593	41.32
1006.947	41.28
1007.301	41.23
1007.655	41.11
1008.008	41.13
1008.362	41.1
1008.715	40.94
1009.069	41.01
1009.422	41.1
1009.776	41.1
1010.129	41.14
1010.482	41.1
1010.835	41.15
1011.188	41.18
1011.541	41.44
1011.894	41.48
1012.247	41.48
1012.6	41.38
1012.952	41.33
1013.305	41.36
1013.657	41.42
1014.01	41.57
1014.362	41.58
1014.715	41.73
1015.067	41.68
1015.419	41.69
1015.771	41.67
1016.123	41.73
1016.475	41.8
1016.827	41.87
1017.179	41.89
1017.531	42.03
1017.883	41.79
1018.234	42.02
1018.586	42.05
1018.938	42.37
1019.289	42.3
1019.64	42.3
1019.992	42.16
1020.343	42.26
1020.694	42.43
1021.045	42.27
1021.396	42.2
1021.747	42.57
1022.098	42.54
1022.449	42.45
1022.8	42.54
1023.151	42.54
1023.501	42.47
1023.852	42.81
1024.202	42.81
1024.553	42.83
1024.903	42.93
1025.253	43.29
1025.604	43.23
1025.954	42.96
1026.304	43.04
1026.654	42.8
1027.004	42.78
1027.354	42.96
1027.703	42.56
1028.053	42.52
1028.403	42.54
1028.753	42.42
1029.102	41.96
1029.452	41.74
1029.801	41.93
1030.15	41.76
1030.499	41.62
897.758	1124.68
901.051	1135.03
904.343	1129.84
907.636	1151.81
910.928	1121.82
914.22	1124.03
917.511	1109.52
920.803	1054.69
924.094	1052.09
927.384	1028.52
930.675	984.09
933.965	978.68
937.255	919.6
940.544	884.18
943.834	842.1
947.123	835.49
950.411	784.53
953.7	769.35
956.988	734.89
960.276	704.46
963.563	693.82
966.851	670.8
970.138	664.54
973.424	644.08
976.711	647.11
979.997	614.05
983.283	609.23
986.568	597.4
989.853	578.78
993.138	565.42
996.423	545.45
999.708	527.57
1002.992	521.35
1006.275	499.83
1009.559	495.42
1012.842	476.52
1016.125	465.38
1019.408	457.16
1022.69	449.19
1025.972	440.31
1029.254	431.67
1032.536	423.12
1035.817	415.97
1039.098	410.91
1042.379	401.19
1045.659	396.66
1048.939	387.86
1052.219	379.58
1055.498	373.36
1058.778	365.74
1062.057	358.16
1065.335	354.18
1068.614	349.77
1071.892	345.72
1075.17	335.08
1078.447	329.31
1081.724	326.88
1085.001	325.03
1088.278	318.1
1091.554	311.58
1094.83	312.04
1098.106	308.65
1101.382	306.52
1104.657	304.38
1107.932	298.79
1111.206	301.62
1114.481	293.28
1117.755	290.28
1121.029	287.3
1124.302	287.12
1127.575	282.07
1130.848	278.53
1134.121	275.71
1137.393	273.37
1140.665	267.33
1143.937	266.44
1147.208	263.49
1150.48	263.22
1153.75	260.29
1157.021	257.17
1160.291	256.7
1163.561	254.09
1166.831	253.94
1170.101	251.95
1173.37	252.09
1176.639	253.55
1179.907	250.74
1183.176	247.2
1186.444	247.78
1189.711	247.03
1192.979	245.65
1196.246	244.17
1199.513	245.45
1202.78	243.7
1206.046	243.71
1209.312	241.06
1212.578	240.8
1215.843	243.17
1219.108	242.53
1222.373	246.23
1225.638	248.14
1228.902	251.39
1232.166	252.91
1235.43	254.77
1238.693	257.99
1241.956	259.62
1245.219	263.95
1248.482	263.85
1251.744	263.46
1255.006	263.78
1258.268	258.1
1261.529	255.53
1264.79	254.14
1268.051	251.38
1271.312	247.86
1274.572	245.53
1277.832	242.84
1281.092	238.52
1284.351	236.74
1287.61	236.38
1290.869	233.08
1294.128	231.64
1297.386	231.54
1300.644	228.63
1303.902	229.9
1307.159	229.32
1310.416	228.89
1313.673	228.75
1316.93	231.33
1320.186	231.08
1323.442	231.96
1326.697	236.04
1329.953	236.78
1333.208	237.59
1336.463	240.87
1339.717	240.9
1342.972	244.48
1346.226	245.7
1349.479	246.67
1352.733	247.76
1355.986	248.98
1359.238	248.57
1362.491	250.24
1365.743	252.12
1368.995	252.45
1372.247	252.49
1375.498	252.09
1378.749	253.2
1382	251.56
1385.251	252.08
1388.501	250.47
1391.751	251.19
1395	250.71
1398.25	248.14
1401.499	247
1404.748	246.64
1407.996	245.14
1411.244	244.06
1414.492	242.65
1417.74	240.16
1420.987	236.42
1424.234	236.21
1427.481	233.77
1430.728	233.09
1433.974	231.86
1437.22	229.17
1440.465	228.86
1443.711	225.88
1446.956	224.12
1450.201	221.59
1453.445	220.02
1456.689	218.87
1459.933	215.25
1463.177	213.22
1466.42	209.69
1469.663	206.56
1472.906	205.54
1476.148	200.81
1479.391	198.43
1482.633	197.16
1485.874	194.04
1489.115	192.41
1492.356	190.78
1495.597	190.32
1498.838	187.54
1502.078	187.15
1505.318	186.66
1508.557	186.34
1511.797	185.43
1515.036	184.27
1518.274	184.06
1521.513	182.5
1524.751	182.39
1527.989	181.13
1531.227	180.73
1534.464	180.81
1537.701	179.21
1540.938	178.57
1544.174	176.75
1547.41	176.9
1550.646	175.99
1553.882	175.37
1557.117	173.5
1560.352	172.64
1563.587	172.48
1566.821	170.84
1570.055	169.51
1573.289	168.61
1576.523	168.65
1579.756	167.56
1582.989	166.31
1586.222	165.59
1589.454	164.41
1592.686	165.79
1595.918	164.48
1599.15	163.71
1602.381	164.42
1605.612	164.34
1608.843	164.18
1612.073	163.84
1615.303	164.51
1618.533	164.21
1621.762	164.81
1624.992	165.61
1628.221	164.62
1631.449	164.87
1634.678	164.7
1637.906	164.93
1641.134	165.36
1644.361	165.39
1647.588	165.65
1650.815	164.98
1654.042	164.92
1657.269	165.81
1660.495	165.57
1663.72	165.43
1666.946	166.19
1670.171	166.88
1673.396	166.62
1676.621	166.19
1679.845	166.1
1683.069	166.43
1686.293	167.68
1689.517	168.37
1692.74	168
1695.963	168.74
1699.185	169.84
1702.408	169.88
1705.63	170.58
1708.852	170.9
1712.073	171.41
1715.294	172.32
1718.515	172.69
1721.736	172.02
1724.956	172.69
1728.176	172.83
1731.396	173.77
1734.616	173
1737.835	173.57
1741.054	172.25
1744.272	172.88
1747.491	174.14
1750.709	174.36
1753.927	174.34
1757.144	174.45
1760.361	174.73
1763.578	175.79
1766.795	175.3
1770.011	176.91
1773.227	176.72
1776.443	179.38
1779.658	180.02
1782.874	179.26
1786.089	180.24
1789.303	180.51
1792.518	182.34
1795.732	182.63
1798.945	183.35
1802.159	183.89
1805.372	184.81
1808.585	187.69
1811.797	187.98
1815.01	187.91
1818.222	189.89
1821.434	191.06
1824.645	191.99
1827.856	195.33
1831.067	196.45
1834.278	195.22
1837.488	197.08
1840.698	198.41
1843.908	196.9
1847.117	197.19
1850.326	198.73
1853.535	197.96
1856.744	200.98
1859.952	200.72
1863.16	198.89
1866.368	198.14
1869.575	200.85
1872.782	197.52
1875.989	196.63
1879.196	195.23
1882.402	194.75
1885.608	195.05
1888.814	195.71
1892.019	194.24
1895.224	193.72
1898.429	193.07
1901.634	193.24
1904.838	193.78
1908.042	195.46
1911.246	195.73
1914.449	197.53
1917.652	196.93
1920.855	197.65
1924.058	197.63
1927.26	197.06
1930.462	197.61
1933.664	199.59
1936.865	198.48
1940.066	197.97
1943.267	197.38
1946.467	196.93
1949.668	198.17
1952.868	200.85
1956.067	200.23
1959.267	199.97
1962.466	200.79
1965.665	200.49
1968.863	200.56
1972.061	203.85
1975.259	205.6
1978.457	207.04
1981.654	209.49
1984.852	210
1988.048	209.32
1991.245	211.02
1994.441	214.29
1997.637	215.56
2000.833	219.59
2004.028	222.58
2007.223	223.36
2010.418	225.25
2013.613	228.91
2016.807	231.33
2020.001	233.02
2023.194	236.42
2026.388	242.06
2029.581	246.93
2032.774	249.29
2035.966	253.42
2039.158	254.38
2042.35	259.58
2045.542	261.48
2048.733	265.75
2051.924	268.05
2055.115	273.55
2058.306	274.44
2061.496	276.79
2064.686	276.23
2067.875	281.19
2071.065	282.96
2074.254	281.52
2077.442	284.09
2080.631	286.05
2083.819	288.25
2087.007	290.47
2090.195	293.28
2093.382	295.86
2096.569	293.75
2099.756	298.68
2102.942	299.48
2106.128	301.32
2109.314	308.38
2112.5	308.14
2115.685	314.14
2118.87	314.77
2122.055	321.01
2125.239	322.86
2128.424	327.09
2131.608	330.27
2134.791	334.23
2137.974	335.43
2141.157	335.95
2144.34	336.73
2147.523	341.6
2150.705	339.15
2153.887	343.45
2157.068	342.93
2160.25	339.66
2163.431	341.35
2166.611	345.13
2169.792	351.72
2172.972	355.87
2176.152	358.89
2179.331	362.57
2182.511	367.92
2185.69	372.14
2188.868	378.6
2192.047	379.47
2195.225	391.32
2198.403	399.56
2201.58	405.17
2204.758	414.03
2207.935	422.14
2211.111	428.61
2214.288	434.89
2217.464	436.71
2220.64	444.55
2223.815	448.88
2226.991	467.19
2230.166	467.2
2233.34	476.22
2236.515	485.4
2239.689	485.75
2242.863	486.94
2246.036	501.34
2249.209	498.41
2252.382	507.56
2255.555	522.81
2258.727	525.08
2261.9	529.44
2265.071	535.11
2268.243	542.27
2271.414	548.82
2274.585	559.37
2277.756	568.27
2280.926	571.69
2284.096	584.93
2287.266	595.59
2290.436	599.26
2293.605	613.31
2296.774	629.32
2299.942	650.44
2303.111	655.73
2306.279	669.54
2309.447	677.58
2312.614	693.42
2315.781	715.85
2318.948	746.75
2322.115	737.84
2325.281	777.44
2328.447	761.73
2331.613	792.59
2334.779	782.83
2337.944	816.92
2341.109	823.97
2344.274	850.33
2347.438	877.49
2350.602	876.25
2353.766	902.71
2356.929	917.69
2360.092	909.06
2363.255	975.16
2366.418	974.24
2369.58	992.68
2372.742	1051.17
2375.904	1080.24
2379.066	1071.32
2382.227	1053.64
2385.388	1144.32
2388.548	1145.93
2391.709	1155.28
2394.869	1290.5
2398.029	1234.42
2401.188	1268.35
2404.347	1261.87
2407.506	1246.09
2410.665	1280.56
2413.823	1355.49
2416.981	1438.17
2420.139	1387.95
2423.296	1378.33
2426.453	1438.85
2429.61	1381.8
2432.767	1448.74
2435.923	1434.84
2439.079	1564.01
2442.235	1582.26
2445.391	1564.2
2448.546	1550.99
2451.701	1505.39
2454.855	1505.44
2458.009	1591.49
2461.163	1660.65
2464.317	1725.23
2467.471	1768.13
2470.624	1767.06
2473.777	1726.26
2476.929	1684.79
2480.082	1640.25
2483.234	1626.09
2486.385	1702.02
2489.537	1710.1
2492.688	1772.67
2495.839	1720.72
2498.989	1679.61
2502.14	1689.98
2505.29	1710.41
2508.439	1736.59
2511.589	1729.8
2514.738	1886.57
2517.887	1841.92
2521.035	1949.42
2524.183	1966.5
2527.331	1982.42
2530.479	1976.02
2533.627	1992.05
