Data from C_1_HIR_IL_4N_Splice17_12-47-48-359.txt Node
Date: Sat Mar 07 12:47:48 EST 2020
User: sa697716
Spectrometer: NQ5500242
Trigger mode: 0
Integration Time (sec): 1.450000E-1
Scans to average: 20
Nonlinearity correction enabled: false
Boxcar width: 5
Storing dark spectrum: false
XAxis mode: Wavelengths
Number of Pixels in Spectrum: 512
>>>>>Begin Spectral Data<<<<<
187.83	64.29
188.298	68.6
188.766	44.11
189.233	51.12
189.701	36.8
190.169	48.37
190.636	17.42
191.104	-56.79
191.571	-199.32
192.039	-278.3
192.506	-456.03
192.974	130.42
193.441	119.06
193.908	-49.82
194.375	-6.26
194.842	-48.46
195.31	-38.89
195.777	-224.72
196.244	15.87
196.711	29.09
197.177	30.38
197.644	31.59
198.111	30.86
198.578	31.28
199.045	31.72
199.511	31.66
199.978	31.52
200.445	31.76
200.911	31.56
201.378	31.59
201.844	31.62
202.31	31.58
202.777	31.46
203.243	31.64
203.709	31.53
204.176	31.45
204.642	31.45
205.108	31.55
205.574	31.34
206.04	31.2
206.506	31.25
206.972	31.02
207.438	30.63
207.903	30.09
208.369	29.68
208.835	29.12
209.301	28.41
209.766	27.68
210.232	27.06
210.697	26.6
211.163	26.07
211.628	25.2
212.094	24.57
212.559	24.34
213.024	23.97
213.49	23.45
213.955	22.97
214.42	22.63
214.885	22.03
215.35	21.27
215.815	20.32
216.28	19.37
216.745	18.32
217.21	17.27
217.675	16.21
218.14	15.39
218.604	14.73
219.069	14.11
219.534	13.65
219.998	13.23
220.463	12.89
220.927	12.54
221.392	12.25
221.856	12.01
222.32	11.8
222.785	11.63
223.249	11.42
223.713	11.24
224.177	11.1
224.642	10.94
225.106	10.77
225.57	10.61
226.034	10.48
226.497	10.37
226.961	10.23
227.425	10.12
227.889	10
228.353	9.89
228.816	9.76
229.28	9.64
229.744	9.52
230.207	9.43
230.671	9.31
231.134	9.21
231.597	9.12
232.061	9.03
232.524	8.94
232.987	8.85
233.45	8.78
233.914	8.68
234.377	8.6
234.84	8.51
235.303	8.43
235.766	8.37
236.229	8.29
236.691	8.22
237.154	8.15
237.617	8.07
238.08	7.98
238.542	7.9
239.005	7.85
239.468	7.78
239.93	7.7
240.393	7.65
240.855	7.58
241.317	7.51
241.78	7.45
242.242	7.38
242.704	7.32
243.166	7.28
243.629	7.23
244.091	7.17
244.553	7.11
245.015	7.06
245.477	7
245.939	6.95
246.4	6.9
246.862	6.85
247.324	6.8
247.786	6.75
248.247	6.7
248.709	6.65
249.17	6.59
249.632	6.56
250.093	6.53
250.555	6.49
251.016	6.46
251.477	6.42
251.939	6.39
252.4	6.36
252.861	6.34
253.322	6.31
253.783	6.29
254.244	6.26
254.705	6.22
255.166	6.19
255.627	6.16
256.088	6.12
256.549	6.1
257.009	6.07
257.47	6.03
257.931	5.99
258.391	5.94
258.852	5.91
259.312	5.88
259.773	5.86
260.233	5.84
260.694	5.82
261.154	5.79
261.614	5.76
262.074	5.73
262.534	5.72
262.994	5.7
263.455	5.68
263.915	5.67
264.374	5.64
264.834	5.63
265.294	5.61
265.754	5.6
266.214	5.6
266.673	5.59
267.133	5.58
267.593	5.57
268.052	5.57
268.512	5.57
268.971	5.57
269.431	5.56
269.89	5.55
270.349	5.53
270.809	5.52
271.268	5.5
271.727	5.49
272.186	5.48
272.645	5.47
273.104	5.45
273.563	5.43
274.022	5.42
274.481	5.41
274.94	5.4
275.399	5.39
275.857	5.38
276.316	5.37
276.775	5.35
277.233	5.34
277.692	5.33
278.15	5.32
278.609	5.3
279.067	5.29
279.525	5.28
279.984	5.26
280.442	5.25
280.9	5.23
281.358	5.22
281.816	5.21
282.274	5.19
282.732	5.17
283.19	5.14
283.648	5.12
284.106	5.1
284.564	5.08
285.021	5.07
285.479	5.05
285.937	5.02
286.394	5
286.852	4.98
287.309	4.96
287.767	4.94
288.224	4.92
288.682	4.91
289.139	4.89
289.596	4.88
290.053	4.86
290.511	4.84
290.968	4.83
291.425	4.81
291.882	4.8
292.339	4.78
292.796	4.76
293.252	4.74
293.709	4.73
294.166	4.72
294.623	4.7
295.079	4.68
295.536	4.68
295.992	4.66
296.449	4.65
296.905	4.64
297.362	4.64
297.818	4.63
298.274	4.63
298.731	4.61
299.187	4.6
299.643	4.59
300.099	4.58
300.555	4.56
301.011	4.55
301.467	4.54
301.923	4.52
302.379	4.5
302.835	4.49
303.291	4.48
303.746	4.47
304.202	4.46
304.658	4.45
305.113	4.45
305.569	4.44
306.024	4.42
306.479	4.41
306.935	4.41
307.39	4.4
307.845	4.39
308.301	4.38
308.756	4.37
309.211	4.35
309.666	4.35
310.121	4.34
310.576	4.33
311.031	4.32
311.486	4.31
311.94	4.3
312.395	4.3
312.85	4.3
313.305	4.28
313.759	4.28
314.214	4.27
314.668	4.25
315.123	4.24
315.577	4.24
316.032	4.23
316.486	4.21
316.94	4.21
317.394	4.19
317.849	4.17
318.303	4.16
318.757	4.15
319.211	4.14
319.665	4.13
320.119	4.13
320.572	4.11
321.026	4.11
321.48	4.1
321.934	4.08
322.387	4.07
322.841	4.07
323.295	4.06
323.748	4.04
324.202	4.04
324.655	4.03
325.108	4.03
325.562	4.02
326.015	4.01
326.468	4
326.921	4
327.374	3.99
327.827	3.99
328.28	3.97
328.733	3.98
329.186	3.97
329.639	3.97
330.092	3.96
330.545	3.95
330.997	3.94
331.45	3.94
331.903	3.95
332.355	3.95
332.808	3.95
333.26	3.94
333.713	3.93
334.165	3.93
334.617	3.93
335.069	3.92
335.522	3.92
335.974	3.92
336.426	3.91
336.878	3.89
337.33	3.88
337.782	3.88
338.234	3.88
338.686	3.87
339.137	3.87
339.589	3.86
340.041	3.86
340.493	3.85
340.944	3.83
341.396	3.83
341.847	3.82
342.299	3.81
342.75	3.8
343.201	3.79
343.653	3.78
344.104	3.76
344.555	3.76
345.006	3.74
345.457	3.74
345.908	3.73
346.359	3.73
346.81	3.73
347.261	3.71
347.712	3.7
348.163	3.7
348.613	3.69
349.064	3.69
349.515	3.69
349.965	3.68
350.416	3.67
350.866	3.67
351.317	3.66
351.767	3.66
352.217	3.67
352.668	3.66
353.118	3.66
353.568	3.65
354.018	3.65
354.468	3.64
354.918	3.64
355.368	3.64
355.818	3.64
356.268	3.63
356.718	3.63
357.168	3.62
357.617	3.62
358.067	3.61
358.517	3.62
358.966	3.61
359.416	3.62
359.865	3.61
360.315	3.61
360.764	3.62
361.213	3.62
361.663	3.6
362.112	3.6
362.561	3.61
363.01	3.61
363.459	3.59
363.908	3.59
364.357	3.59
364.806	3.58
365.255	3.59
365.703	3.59
366.152	3.58
366.601	3.59
367.05	3.59
367.498	3.58
367.947	3.59
368.395	3.59
368.844	3.6
369.292	3.59
369.74	3.59
370.189	3.58
370.637	3.58
371.085	3.57
371.533	3.58
371.981	3.58
372.429	3.58
372.877	3.58
373.325	3.58
373.773	3.58
374.221	3.59
374.669	3.59
375.116	3.59
375.564	3.59
376.012	3.59
376.459	3.6
376.907	3.6
377.354	3.62
377.801	3.62
378.249	3.62
378.696	3.63
379.143	3.63
379.591	3.64
380.038	3.64
380.485	3.65
380.932	3.66
381.379	3.66
381.826	3.67
382.273	3.67
382.72	3.67
383.166	3.68
383.613	3.69
384.06	3.7
384.506	3.7
384.953	3.71
385.4	3.72
385.846	3.74
386.292	3.75
386.739	3.75
387.185	3.76
387.631	3.77
388.078	3.79
388.524	3.81
388.97	3.82
389.416	3.84
389.862	3.85
390.308	3.87
390.754	3.89
391.2	3.9
391.645	3.92
392.091	3.95
392.537	3.97
392.983	3.97
393.428	3.98
393.874	4
394.319	4.01
394.765	4.03
395.21	4.03
395.655	4.04
396.101	4.06
396.546	4.07
396.991	4.08
397.436	4.09
397.881	4.11
398.326	4.14
398.771	4.15
399.216	4.16
399.661	4.18
400.106	4.21
400.551	4.21
400.995	4.22
401.44	4.23
401.885	4.24
402.329	4.26
402.774	4.26
403.218	4.28
403.663	4.28
404.107	4.29
404.551	4.29
404.995	4.28
405.44	4.28
405.884	4.28
406.328	4.3
406.772	4.3
407.216	4.29
407.66	4.29
408.104	4.27
408.547	4.27
408.991	4.28
409.435	4.28
409.879	4.29
410.322	4.31
410.766	4.32
411.209	4.31
411.653	4.33
412.096	4.34
412.54	4.34
412.983	4.34
413.426	4.37
413.869	4.37
414.312	4.38
414.756	4.38
415.199	4.38
415.642	4.38
416.085	4.38
416.527	4.37
416.97	4.36
417.413	4.36
417.856	4.36
418.298	4.35
418.741	4.36
419.184	4.35
419.626	4.36
420.069	4.35
420.511	4.35
420.953	4.34
421.396	4.36
421.838	4.37
422.28	4.38
422.722	4.38
423.164	4.36
423.606	4.37
424.048	4.37
424.49	4.37
424.932	4.36
425.374	4.35
425.816	4.34
426.258	4.31
426.699	4.29
427.141	4.28
427.582	4.29
428.024	4.29
428.465	4.3
428.907	4.28
429.348	4.26
429.789	4.25
430.231	4.27
430.672	4.28
431.113	4.29
431.554	4.3
431.995	4.3
432.436	4.3
432.877	4.3
433.318	4.3
433.759	4.32
434.2	4.34
434.64	4.35
435.081	4.33
435.522	4.34
435.962	4.35
436.403	4.37
436.843	4.38
437.284	4.37
437.724	4.38
438.164	4.37
438.604	4.38
439.045	4.38
439.485	4.39
439.925	4.4
440.365	4.4
440.805	4.39
441.245	4.39
441.685	4.4
442.125	4.42
442.564	4.42
443.004	4.41
443.444	4.41
443.883	4.42
444.323	4.4
444.762	4.41
445.202	4.41
445.641	4.43
446.081	4.43
446.52	4.42
446.959	4.43
447.398	4.43
447.837	4.45
448.276	4.45
448.716	4.45
449.154	4.47
449.593	4.48
450.032	4.47
450.471	4.44
450.91	4.44
451.349	4.45
451.787	4.44
452.226	4.43
452.664	4.43
453.103	4.41
453.541	4.39
453.98	4.4
454.418	4.38
454.856	4.37
455.295	4.37
455.733	4.35
456.171	4.34
456.609	4.33
457.047	4.32
457.485	4.32
457.923	4.32
458.361	4.32
458.798	4.31
459.236	4.32
459.674	4.31
460.111	4.31
460.549	4.32
460.987	4.32
461.424	4.33
461.862	4.33
462.299	4.33
462.736	4.32
463.173	4.32
463.611	4.32
464.048	4.33
464.485	4.35
464.922	4.35
465.359	4.35
465.796	4.35
466.233	4.35
466.67	4.36
467.106	4.37
467.543	4.38
467.98	4.38
468.416	4.38
468.853	4.37
469.29	4.37
469.726	4.38
470.162	4.38
470.599	4.38
471.035	4.38
471.471	4.37
471.907	4.35
472.344	4.35
472.78	4.35
473.216	4.34
473.652	4.34
474.088	4.33
474.523	4.33
474.959	4.33
475.395	4.32
475.831	4.31
476.266	4.31
476.702	4.3
477.138	4.29
477.573	4.29
478.008	4.3
478.444	4.29
478.879	4.29
479.314	4.28
479.75	4.27
480.185	4.26
480.62	4.25
481.055	4.24
481.49	4.23
481.925	4.23
482.36	4.22
482.795	4.21
483.229	4.2
483.664	4.2
484.099	4.2
484.534	4.19
484.968	4.2
485.403	4.2
485.837	4.22
486.271	4.23
486.706	4.23
487.14	4.23
487.574	4.24
488.009	4.25
488.443	4.25
488.877	4.27
489.311	4.29
489.745	4.31
490.179	4.33
490.613	4.34
491.046	4.35
491.48	4.38
491.914	4.42
492.348	4.45
492.781	4.48
493.215	4.51
493.648	4.55
494.082	4.58
494.515	4.61
494.948	4.65
495.382	4.69
495.815	4.74
496.248	4.77
496.681	4.82
497.114	4.87
497.547	4.92
497.98	4.97
498.413	5.02
498.846	5.08
499.279	5.14
499.711	5.21
500.144	5.29
500.577	5.36
501.009	5.44
501.442	5.52
501.874	5.61
502.306	5.69
502.739	5.81
503.171	5.91
503.603	6.02
504.036	6.13
504.468	6.24
504.9	6.35
505.332	6.49
505.764	6.63
506.196	6.77
506.627	6.91
507.059	7.07
507.491	7.21
507.923	7.38
508.354	7.55
508.786	7.73
509.217	7.92
509.649	8.11
510.08	8.3
510.512	8.49
510.943	8.69
511.374	8.89
511.805	9.1
512.237	9.31
512.668	9.52
513.099	9.73
513.53	9.96
513.961	10.18
514.391	10.41
514.822	10.65
515.253	10.89
515.684	11.14
516.114	11.39
516.545	11.64
516.975	11.89
517.406	12.16
517.836	12.42
518.267	12.68
518.697	12.94
519.127	13.2
519.558	13.45
519.988	13.72
520.418	13.97
520.848	14.22
521.278	14.47
521.708	14.82
522.138	15.06
522.567	15.28
522.997	15.49
523.427	15.73
523.857	15.94
524.286	16.14
524.716	16.34
525.145	16.54
525.575	16.74
526.004	16.94
526.433	17
526.863	17.17
527.292	17.37
527.721	17.53
528.15	17.68
528.579	17.83
529.008	17.98
529.437	18.12
529.866	18.24
530.295	18.37
530.724	18.48
531.152	18.61
531.581	18.74
532.01	18.85
532.438	18.95
532.867	19.05
533.295	19.14
533.723	19.23
534.152	19.3
534.58	19.38
535.008	19.43
535.436	19.51
535.865	19.56
536.293	19.6
536.721	19.64
537.149	19.68
537.576	19.74
538.004	19.79
538.432	19.84
538.86	19.88
539.287	19.93
539.715	19.97
540.143	19.99
540.57	20.03
540.998	20.06
541.425	20.1
541.852	20.14
542.28	20.17
542.707	20.19
543.134	20.22
543.561	20.25
543.988	20.27
544.415	20.3
544.842	20.31
545.269	20.34
545.696	20.37
546.123	20.39
546.549	20.41
546.976	20.43
547.403	20.44
547.829	20.45
548.256	20.47
548.682	20.48
549.108	20.5
549.535	20.52
549.961	20.53
550.387	20.53
550.813	20.53
551.24	20.53
551.666	20.53
552.092	20.52
552.518	20.51
552.943	20.49
553.369	20.48
553.795	20.45
554.221	20.41
554.646	20.37
555.072	20.33
555.498	20.28
555.923	20.23
556.349	20.15
556.774	20.09
557.199	20.04
557.625	19.97
558.05	19.9
558.475	19.84
558.9	19.76
559.325	19.7
559.75	19.62
560.175	19.54
560.6	19.44
561.025	19.36
561.449	19.26
561.874	19.14
562.299	19.03
562.723	18.92
563.148	18.8
563.572	18.67
563.997	18.55
564.421	18.4
564.846	18.27
565.27	18.14
565.694	18.01
566.118	17.88
566.542	17.74
566.966	17.6
567.39	17.47
567.814	17.33
568.238	17.19
568.662	17.06
569.086	16.94
569.509	16.81
569.933	16.67
570.357	16.54
570.78	16.41
571.204	16.29
571.627	16.16
572.05	16.04
572.474	15.93
572.897	15.81
573.32	15.69
573.743	15.58
574.166	15.47
574.589	15.36
575.012	15.25
575.435	15.15
575.858	15.04
576.281	14.94
576.704	14.83
577.126	14.74
577.549	14.62
577.972	14.53
578.394	14.43
578.817	14.34
579.239	14.27
579.661	14.19
580.084	14.1
580.506	14.02
580.928	13.94
581.35	13.87
581.772	13.79
582.194	13.73
582.616	13.67
583.038	13.6
583.46	13.53
583.882	13.47
584.303	13.39
584.725	13.32
585.147	13.26
585.568	13.2
585.99	13.14
586.411	13.07
586.833	13.01
587.254	12.94
587.675	12.89
588.096	12.84
588.518	12.79
588.939	12.75
589.36	12.71
589.781	12.67
590.202	12.63
590.623	12.59
591.043	12.55
591.464	12.54
591.885	12.49
592.305	12.45
592.726	12.43
593.147	12.39
593.567	12.36
593.987	12.33
594.408	12.3
594.828	12.27
595.248	12.25
595.669	12.22
596.089	12.18
596.509	12.17
596.929	12.14
597.349	12.11
597.769	12.07
598.189	12.03
598.608	12
599.028	11.97
599.448	11.93
599.867	11.89
600.287	11.86
600.706	11.82
601.126	11.78
601.545	11.74
601.965	11.7
602.384	11.66
602.803	11.61
603.222	11.57
603.641	11.51
604.061	11.46
604.48	11.39
604.898	11.33
605.317	11.27
605.736	11.21
606.155	11.15
606.574	11.08
606.992	11.02
607.411	10.96
607.829	10.87
608.248	10.79
608.666	10.72
609.085	10.67
609.503	10.6
609.921	10.52
610.339	10.46
610.758	10.4
611.176	10.33
611.594	10.26
612.012	10.19
612.43	10.14
612.847	10.08
613.265	10.01
613.683	9.95
614.101	9.89
614.518	9.83
614.936	9.76
615.353	9.69
615.771	9.63
616.188	9.58
616.606	9.53
617.023	9.49
617.44	9.45
617.857	9.4
618.274	9.35
618.691	9.29
619.108	9.26
619.525	9.22
619.942	9.19
620.359	9.15
620.776	9.12
621.192	9.08
621.609	9.05
622.026	9.03
622.442	9.02
622.859	8.99
623.275	8.98
623.691	8.95
624.108	8.93
624.524	8.91
624.94	8.9
625.356	8.89
625.772	8.88
626.188	8.86
626.604	8.84
627.02	8.83
627.436	8.82
627.852	8.81
628.268	8.8
628.683	8.78
629.099	8.78
629.514	8.76
629.93	8.74
630.345	8.72
630.761	8.7
631.176	8.68
631.591	8.64
632.007	8.61
632.422	8.58
632.837	8.54
633.252	8.49
633.667	8.44
634.082	8.39
634.497	8.35
634.911	8.29
635.326	8.23
635.741	8.17
636.155	8.1
636.57	8.03
636.984	7.96
637.399	7.88
637.813	7.8
638.228	7.72
638.642	7.63
639.056	7.53
639.47	7.45
639.884	7.36
640.298	7.27
640.712	7.19
641.126	7.1
641.54	7.01
641.954	6.93
642.368	6.85
642.781	6.76
643.195	6.68
643.609	6.6
644.022	6.51
644.436	6.44
644.849	6.36
645.262	6.3
645.676	6.22
646.089	6.15
646.502	6.09
646.915	6.04
647.328	5.99
647.741	5.95
648.154	5.9
648.567	5.87
648.98	5.83
649.393	5.8
649.805	5.76
650.218	5.73
650.631	5.7
651.043	5.66
651.456	5.63
651.868	5.59
652.28	5.56
652.693	5.53
653.105	5.49
653.517	5.46
653.929	5.42
654.341	5.38
654.753	5.33
655.165	5.29
655.577	5.24
655.989	5.19
656.401	5.14
656.813	5.1
657.224	5.03
657.636	4.96
658.047	4.91
658.459	4.85
658.87	4.79
659.282	4.73
659.693	4.67
660.104	4.6
660.515	4.55
660.926	4.5
661.338	4.43
661.749	4.38
662.159	4.34
662.57	4.29
662.981	4.25
663.392	4.21
663.803	4.18
664.213	4.14
664.624	4.11
665.035	4.08
665.445	4.05
665.855	4.03
666.266	4.02
666.676	4.01
667.086	3.98
667.497	3.96
667.907	3.95
668.317	3.94
668.727	3.93
669.137	3.92
669.547	3.92
669.956	3.92
670.366	3.93
670.776	3.92
671.186	3.91
671.595	3.92
672.005	3.92
672.414	3.92
672.824	3.93
673.233	3.95
673.642	3.96
674.052	3.96
674.461	3.97
674.87	3.99
675.279	4.01
675.688	4.04
676.097	4.06
676.506	4.09
676.915	4.11
677.323	4.13
677.732	4.14
678.141	4.17
678.549	4.2
678.958	4.23
679.366	4.25
679.775	4.28
680.183	4.32
680.592	4.36
681	4.41
681.408	4.46
681.816	4.53
682.224	4.6
682.632	4.67
683.04	4.75
683.448	4.84
683.856	4.94
684.264	5.04
684.671	5.16
685.079	5.3
685.487	5.45
685.894	5.61
686.302	5.79
686.709	5.99
687.116	6.21
687.524	6.45
687.931	6.71
688.338	6.99
688.745	7.29
689.152	7.61
689.559	7.95
689.966	8.31
690.373	8.7
690.78	9.09
691.187	9.5
691.593	9.93
692	10.37
692.407	10.81
692.813	11.27
693.22	11.73
693.626	12.19
694.032	12.68
694.439	13.17
694.845	13.65
695.251	14.14
695.657	14.63
696.063	15.13
696.469	15.63
696.875	16.13
697.281	16.64
697.687	17.14
698.093	17.63
698.498	18.11
698.904	18.58
699.31	19.07
699.715	19.55
700.12	20.02
700.526	20.47
700.931	20.93
701.337	21.38
701.742	21.81
702.147	22.24
702.552	22.7
702.957	23.11
703.362	23.55
703.767	23.93
704.172	24.34
704.577	24.73
704.981	25.14
705.386	25.52
705.791	25.91
706.195	26.3
706.6	26.7
707.004	27.03
707.408	27.39
707.813	27.75
708.217	28.1
708.621	28.45
709.025	28.78
709.43	29.1
709.834	29.44
710.237	29.75
710.641	30.06
711.045	30.35
711.449	30.68
711.853	30.99
712.256	31.28
712.66	31.57
713.064	31.86
713.467	32.14
713.87	32.41
714.274	32.66
714.677	32.93
715.08	33.18
715.484	33.45
715.887	33.69
716.29	33.93
716.693	34.18
717.096	34.41
717.499	34.67
717.901	34.91
718.304	35.14
718.707	35.36
719.109	35.59
719.512	35.82
719.915	36.03
720.317	36.23
720.719	36.41
721.122	36.61
721.524	36.81
721.926	36.99
722.328	37.18
722.731	37.37
723.133	37.56
723.535	37.72
723.937	37.88
724.338	38.03
724.74	38.2
725.142	38.43
725.544	38.59
725.945	38.74
726.347	38.86
726.748	38.98
727.15	39.08
727.551	39.19
727.952	39.31
728.354	39.41
728.755	39.54
729.156	39.64
729.557	39.67
729.958	39.77
730.359	39.86
730.76	39.96
731.161	40.05
731.562	40.17
731.962	40.24
732.363	40.33
732.763	40.42
733.164	40.51
733.564	40.62
733.965	40.68
734.365	40.75
734.766	40.8
735.166	40.87
735.566	40.92
735.966	40.97
736.366	41.04
736.766	41.07
737.166	41.14
737.566	41.16
737.966	41.18
738.365	41.23
738.765	41.3
739.165	41.34
739.564	41.38
739.964	41.41
740.363	41.43
740.763	41.48
741.162	41.53
741.561	41.53
741.96	41.56
742.36	41.61
742.759	41.65
743.158	41.65
743.557	41.7
743.955	41.74
744.354	41.79
744.753	41.8
745.152	41.85
745.55	41.88
745.949	41.91
746.348	41.96
746.746	41.97
747.144	41.98
747.543	42.01
747.941	42.05
748.339	42.03
748.737	42.05
749.136	42.07
749.534	42.04
749.932	42.05
750.33	42.07
750.727	42.09
751.125	42.11
751.523	42.12
751.921	42.12
752.318	42.1
752.716	42.12
753.113	42.15
753.511	42.16
753.908	42.2
754.305	42.2
754.703	42.17
755.1	42.12
755.497	42.07
755.894	42
756.291	41.94
756.688	41.87
757.085	41.83
757.482	41.76
757.878	41.7
758.275	41.64
758.672	41.58
759.068	41.58
759.465	41.54
759.861	41.54
760.258	41.55
760.654	41.59
761.05	41.63
761.447	41.65
761.843	41.66
762.239	41.69
762.635	41.7
763.031	41.76
763.427	41.77
763.822	41.82
764.218	41.83
764.614	41.89
765.01	41.91
765.405	41.91
765.801	41.93
766.196	41.96
766.592	41.98
766.987	42
767.382	41.99
767.778	41.99
768.173	41.99
768.568	42.01
768.963	41.99
769.358	42.01
769.753	42.03
770.148	42.03
770.542	42.02
770.937	42.03
771.332	42.04
771.726	42.04
772.121	42.05
772.515	42.06
772.91	42.07
773.304	42.06
773.699	42.04
774.093	42.01
774.487	41.99
774.881	42
775.275	42
775.669	41.97
776.063	41.96
776.457	41.96
776.851	41.94
777.245	41.9
777.638	41.88
778.032	41.89
778.425	41.94
778.819	41.94
779.212	41.94
779.606	41.94
779.999	41.96
780.392	41.99
780.786	41.98
781.179	41.97
781.572	42.03
781.965	42.05
782.358	42.04
782.751	42.02
783.143	42.02
783.536	42.01
783.929	42.02
784.322	42.02
784.714	42.01
785.107	42
785.499	42.02
785.891	42.01
786.284	41.99
786.676	41.99
787.068	41.97
787.46	41.98
787.852	41.97
788.245	41.97
788.636	41.93
789.028	41.92
789.42	41.91
789.812	41.91
790.204	41.9
790.595	41.91
790.987	41.91
791.378	41.95
791.77	41.93
792.161	41.91
792.553	41.91
792.944	41.91
793.335	41.91
793.726	41.92
794.117	41.87
794.508	41.84
794.899	41.8
795.29	41.82
795.681	41.76
796.072	41.75
796.463	41.76
796.853	41.73
797.244	41.71
797.634	41.69
798.025	41.7
798.415	41.71
798.806	41.72
799.196	41.74
799.586	41.72
799.976	41.74
800.366	41.72
800.756	41.72
801.146	41.72
801.536	41.74
801.926	41.72
802.316	41.73
802.706	41.74
803.095	41.75
803.485	41.74
803.874	41.72
804.264	41.72
804.653	41.75
805.043	41.73
805.432	41.71
805.821	41.7
806.21	41.71
806.599	41.69
806.988	41.68
807.377	41.67
807.766	41.68
808.155	41.67
808.544	41.66
808.933	41.64
809.321	41.64
809.71	41.66
810.098	41.65
810.487	41.61
810.875	41.59
811.264	41.57
811.652	41.56
812.04	41.54
812.428	41.56
812.816	41.53
813.204	41.49
813.592	41.49
813.98	41.5
814.368	41.49
814.756	41.5
815.144	41.51
815.531	41.5
815.919	41.51
816.306	41.5
816.694	41.48
817.081	41.49
817.469	41.5
817.856	41.48
818.243	41.46
818.63	41.45
819.017	41.45
819.404	41.44
819.791	41.43
820.178	41.39
820.565	41.38
820.952	41.37
821.339	41.36
821.725	41.37
822.112	41.37
822.498	41.36
822.885	41.37
823.271	41.35
823.657	41.32
824.044	41.32
824.43	41.34
824.816	41.34
825.202	41.33
825.588	41.34
825.974	41.32
826.36	41.33
826.746	41.33
827.132	41.32
827.517	41.33
827.903	41.36
828.289	41.37
828.674	41.37
829.06	41.36
829.445	41.38
829.83	41.39
830.216	41.38
830.601	41.36
830.986	41.37
831.371	41.36
831.756	41.39
832.141	41.37
832.526	41.39
832.911	41.38
833.295	41.42
833.68	41.41
834.065	41.41
834.449	41.41
834.834	41.43
835.218	41.43
835.603	41.43
835.987	41.41
836.371	41.41
836.755	41.39
837.139	41.38
837.524	41.36
837.908	41.39
838.291	41.39
838.675	41.4
839.059	41.39
839.443	41.38
839.827	41.38
840.21	41.39
840.594	41.4
840.977	41.41
841.361	41.43
841.744	41.41
842.127	41.38
842.511	41.36
842.894	41.34
843.277	41.34
843.66	41.34
844.043	41.35
844.426	41.34
844.809	41.34
845.191	41.35
845.574	41.33
845.957	41.35
846.339	41.35
846.722	41.37
847.104	41.37
847.487	41.37
847.869	41.36
848.252	41.36
848.634	41.35
849.016	41.36
849.398	41.36
849.78	41.37
850.162	41.36
850.544	41.35
850.926	41.33
851.307	41.33
851.689	41.34
852.071	41.35
852.452	41.35
852.834	41.37
853.215	41.36
853.597	41.35
853.978	41.35
854.359	41.35
854.741	41.36
855.122	41.38
855.503	41.38
855.884	41.36
856.265	41.35
856.646	41.34
857.026	41.36
857.407	41.34
857.788	41.34
858.169	41.35
858.549	41.34
858.93	41.33
859.31	41.32
859.69	41.35
860.071	41.38
860.451	41.36
860.831	41.36
861.211	41.35
861.591	41.35
861.971	41.33
862.351	41.33
862.731	41.34
863.111	41.31
863.491	41.32
863.87	41.29
864.25	41.28
864.629	41.31
865.009	41.3
865.388	41.27
865.768	41.29
866.147	41.3
866.526	41.28
866.905	41.29
867.284	41.31
867.663	41.28
868.042	41.28
868.421	41.29
868.8	41.28
869.179	41.29
869.558	41.31
869.936	41.29
870.315	41.28
870.693	41.31
871.072	41.32
871.45	41.32
871.828	41.35
872.207	41.36
872.585	41.34
872.963	41.36
873.341	41.35
873.719	41.33
874.097	41.33
874.475	41.33
874.853	41.31
875.23	41.31
875.608	41.33
875.986	41.33
876.363	41.33
876.741	41.33
877.118	41.3
877.495	41.31
877.873	41.34
878.25	41.38
878.627	41.41
879.004	41.43
879.381	41.45
879.758	41.42
880.135	41.41
880.512	41.41
880.889	41.43
881.265	41.42
881.642	41.43
882.019	41.43
882.395	41.38
882.772	41.36
883.148	41.33
883.524	41.3
883.901	41.33
884.277	41.33
884.653	41.31
885.029	41.3
885.405	41.34
885.781	41.32
886.157	41.32
886.532	41.33
886.908	41.33
887.284	41.32
887.659	41.31
888.035	41.28
888.411	41.26
888.786	41.27
889.161	41.25
889.537	41.24
889.912	41.23
890.287	41.24
890.662	41.25
891.037	41.25
891.412	41.25
891.787	41.25
892.162	41.27
892.536	41.27
892.911	41.25
893.286	41.27
893.66	41.26
894.035	41.26
894.409	41.23
894.784	41.22
895.158	41.21
895.532	41.22
895.906	41.23
896.281	41.23
896.655	41.24
897.029	41.26
897.402	41.26
897.776	41.26
898.15	41.27
898.524	41.3
898.898	41.3
899.271	41.29
899.645	41.28
900.018	41.29
900.392	41.29
900.765	41.28
901.138	41.28
901.511	41.26
901.884	41.27
902.258	41.27
902.631	41.27
903.003	41.29
903.376	41.28
903.749	41.28
904.122	41.26
904.495	41.26
904.867	41.27
905.24	41.27
905.612	41.3
905.985	41.28
906.357	41.25
906.729	41.24
907.102	41.24
907.474	41.27
907.846	41.27
908.218	41.28
908.59	41.29
908.962	41.29
909.334	41.27
909.705	41.28
910.077	41.29
910.449	41.32
910.82	41.32
911.192	41.3
911.563	41.29
911.935	41.23
912.306	41.24
912.677	41.23
913.048	41.25
913.419	41.26
913.79	41.24
914.161	41.24
914.532	41.21
914.903	41.22
915.274	41.21
915.645	41.21
916.015	41.25
916.386	41.23
916.756	41.23
917.127	41.21
917.497	41.21
917.868	41.22
918.238	41.24
918.608	41.26
918.978	41.23
919.348	41.25
919.718	41.25
920.088	41.26
920.458	41.26
920.828	41.25
921.198	41.22
921.567	41.21
921.937	41.2
922.306	41.16
922.676	41.12
923.045	41.1
923.415	41.09
923.784	41.07
924.153	41.1
924.522	41.12
924.891	41.13
925.26	41.11
925.629	41.12
925.998	41.1
926.367	41.13
926.736	41.11
927.104	41.15
927.473	41.12
927.842	41.12
928.21	41.09
928.578	41.05
928.947	41.06
929.315	41.07
929.683	41.05
930.051	41.04
930.42	41
930.788	40.99
931.156	40.96
931.523	40.99
931.891	41.01
932.259	41
932.627	41
932.994	40.98
933.362	40.97
933.729	40.97
934.097	40.99
934.464	41
934.831	41.02
935.199	41.01
935.566	41.01
935.933	41
936.3	41
936.667	41.01
937.034	41.02
937.401	41.02
937.767	41.04
938.134	41.04
938.501	41.06
938.867	41.06
939.234	41.05
939.6	41.06
939.967	41.03
940.333	41.02
940.699	41.05
941.065	41
941.431	41
941.798	40.97
942.163	40.94
942.529	40.94
942.895	40.94
943.261	40.97
943.627	40.9
943.992	40.91
944.358	40.88
944.723	40.86
945.089	40.85
945.454	40.87
945.82	40.85
946.185	40.85
946.55	40.83
946.915	40.87
947.28	40.86
947.645	40.9
948.01	40.89
948.375	40.86
948.74	40.85
949.104	40.91
949.469	40.9
949.834	40.88
950.198	40.87
950.562	40.8
950.927	40.73
951.291	40.68
951.655	40.61
952.02	40.64
952.384	40.65
952.748	40.64
953.112	40.58
953.476	40.5
953.839	40.47
954.203	40.44
954.567	40.4
954.931	40.36
955.294	40.36
955.658	40.41
956.021	40.34
956.385	40.26
956.748	40.22
957.111	40.22
957.474	40.26
957.837	40.23
958.2	40.22
958.563	40.27
958.926	40.31
959.289	40.3
959.652	40.27
960.015	40.27
960.377	40.37
960.74	40.41
961.102	40.4
961.465	40.41
961.827	40.47
962.189	40.51
962.552	40.49
962.914	40.45
963.276	40.49
963.638	40.51
964	40.54
964.362	40.51
964.724	40.5
965.085	40.47
965.447	40.42
965.809	40.4
966.17	40.37
966.532	40.39
966.893	40.42
967.255	40.44
967.616	40.4
967.977	40.39
968.338	40.35
968.699	40.33
969.061	40.35
969.421	40.33
969.782	40.38
970.143	40.34
970.504	40.3
970.865	40.31
971.225	40.27
971.586	40.24
971.946	40.18
972.307	40.15
972.667	40.12
973.027	40.1
973.388	40.14
973.748	40.1
974.108	40.2
974.468	40.19
974.828	40.17
975.188	40.16
975.548	40.18
975.907	40.2
976.267	40.22
976.627	40.23
976.986	40.22
977.346	40.18
977.705	40.17
978.064	40.09
978.424	40.11
978.783	40.05
979.142	39.97
979.501	39.98
979.86	40
980.219	40
980.578	40.02
980.937	40.05
981.296	40.05
981.654	40.07
982.013	40.09
982.371	40.1
982.73	40.15
983.088	40.25
983.447	40.22
983.805	40.23
984.163	40.19
984.521	40.19
984.879	40.16
985.237	40.19
985.595	40.21
985.953	40.18
986.311	40.16
986.669	40.15
987.026	40.12
987.384	40.17
987.741	40.12
988.099	40.2
988.456	40.19
988.814	40.22
989.171	40.24
989.528	40.24
989.885	40.2
990.242	40.24
990.599	40.32
990.956	40.37
991.313	40.36
991.67	40.42
992.027	40.44
992.383	40.47
992.74	40.55
993.096	40.46
993.453	40.42
993.809	40.52
994.165	40.52
994.522	40.42
994.878	40.32
995.234	40.29
995.59	40.23
995.946	40.13
996.302	40.09
996.658	40.05
997.013	40.07
997.369	40.08
997.725	40.09
998.08	40.13
998.436	40.11
998.791	40.22
999.147	40.26
999.502	40.35
999.857	40.42
1000.212	40.37
1000.567	40.38
1000.922	40.34
1001.277	40.31
1001.632	40.21
1001.987	40.2
1002.342	40.13
1002.696	40.07
1003.051	40.15
1003.406	40.13
1003.76	40.06
1004.114	40.03
1004.469	40.05
1004.823	40.29
1005.177	40.23
1005.531	40.38
1005.885	40.39
1006.239	40.46
1006.593	40.55
1006.947	40.43
1007.301	40.31
1007.655	40.4
1008.008	40.51
1008.362	40.48
1008.715	40.29
1009.069	40.38
1009.422	40.22
1009.776	40.17
1010.129	40.32
1010.482	40.23
1010.835	40.25
1011.188	40.31
1011.541	40.34
1011.894	40.37
1012.247	40.29
1012.6	40.37
1012.952	40.41
1013.305	40.57
1013.657	40.64
1014.01	40.59
1014.362	40.49
1014.715	40.64
1015.067	40.67
1015.419	40.58
1015.771	40.55
1016.123	40.59
1016.475	40.52
1016.827	40.48
1017.179	40.28
1017.531	40.2
1017.883	40.19
1018.234	40.3
1018.586	40.2
1018.938	40.18
1019.289	40.12
1019.64	40.13
1019.992	40.1
1020.343	40.09
1020.694	40.09
1021.045	40.23
1021.396	40.18
1021.747	40.35
1022.098	40.38
1022.449	40.1
1022.8	40.17
1023.151	40.13
1023.501	40.03
1023.852	40.23
1024.202	40.18
1024.553	40.07
1024.903	40.17
1025.253	40.25
1025.604	40.24
1025.954	40.16
1026.304	40.26
1026.654	40.34
1027.004	40.28
1027.354	40.44
1027.703	40.11
1028.053	40.13
1028.403	40.24
1028.753	39.72
1029.102	39.89
1029.452	39.76
1029.801	40.01
1030.15	40.13
1030.499	39.95
897.758	994.06
901.051	1004.64
904.343	1001.34
907.636	1020.83
910.928	989.74
914.22	994.36
917.511	977.61
920.803	936.48
924.094	930.62
927.384	907.41
930.675	873.21
933.965	873.48
937.255	819.87
940.544	787.87
943.834	748.07
947.123	743.72
950.411	697.76
953.7	685.65
956.988	649.84
960.276	626.97
963.563	615.12
966.851	591.23
970.138	586.35
973.424	568.78
976.711	573.03
979.997	543.87
983.283	540.09
986.568	529.03
989.853	515.82
993.138	504.4
996.423	484.43
999.708	472.16
1002.992	466.35
1006.275	445.3
1009.559	441.89
1012.842	426.75
1016.125	416.78
1019.408	409.16
1022.69	404.11
1025.972	393.56
1029.254	386.67
1032.536	380.37
1035.817	371.7
1039.098	368.19
1042.379	361.71
1045.659	356.43
1048.939	346.85
1052.219	340.91
1055.498	336.21
1058.778	327.97
1062.057	321.89
1065.335	317.63
1068.614	313.6
1071.892	311.44
1075.17	302.63
1078.447	295.69
1081.724	293.57
1085.001	291.6
1088.278	285.01
1091.554	280.42
1094.83	280.33
1098.106	277.89
1101.382	275.59
1104.657	274.25
1107.932	269.98
1111.206	270.71
1114.481	265.44
1117.755	262.9
1121.029	260.57
1124.302	260.23
1127.575	256.16
1130.848	253.53
1134.121	250.66
1137.393	248.95
1140.665	243.32
1143.937	241.3
1147.208	240.41
1150.48	239.09
1153.75	237.39
1157.021	234.6
1160.291	234.88
1163.561	231.29
1166.831	231.06
1170.101	229.22
1173.37	229.72
1176.639	230.46
1179.907	228.08
1183.176	224.94
1186.444	225.19
1189.711	223.99
1192.979	222.47
1196.246	221.95
1199.513	223.3
1202.78	222.08
1206.046	221.94
1209.312	219.46
1212.578	219.47
1215.843	221.7
1219.108	220.71
1222.373	224.53
1225.638	225.86
1228.902	228.94
1232.166	229.46
1235.43	230.29
1238.693	233.61
1241.956	234.52
1245.219	238.53
1248.482	238.46
1251.744	238.12
1255.006	238.51
1258.268	233.19
1261.529	231.59
1264.79	230.74
1268.051	228.92
1271.312	226.1
1274.572	223.24
1277.832	221.62
1281.092	217.16
1284.351	216.13
1287.61	216.1
1290.869	213.3
1294.128	211.92
1297.386	211.86
1300.644	209.13
1303.902	209.62
1307.159	209.32
1310.416	209.26
1313.673	208.71
1316.93	211.41
1320.186	210.85
1323.442	211.57
1326.697	214.41
1329.953	215.46
1333.208	216.07
1336.463	219.32
1339.717	219.39
1342.972	221.49
1346.226	223.17
1349.479	224.36
1352.733	225.21
1355.986	226.29
1359.238	225.76
1362.491	226.5
1365.743	228.46
1368.995	228.49
1372.247	228.39
1375.498	227.87
1378.749	229.67
1382	227.36
1385.251	227.76
1388.501	225.84
1391.751	226.51
1395	225.58
1398.25	224.08
1401.499	222.07
1404.748	221.46
1407.996	217.92
1411.244	216.92
1414.492	214.94
1417.74	212.78
1420.987	210.12
1424.234	209.49
1427.481	206.34
1430.728	206.14
1433.974	204.63
1437.22	202.62
1440.465	202.14
1443.711	200.46
1446.956	198.99
1450.201	197.28
1453.445	195.24
1456.689	194.18
1459.933	191.04
1463.177	190.96
1466.42	187.06
1469.663	184.18
1472.906	183.13
1476.148	179.05
1479.391	177.91
1482.633	176.54
1485.874	173.63
1489.115	172.36
1492.356	170.71
1495.597	170.49
1498.838	167.3
1502.078	167.13
1505.318	167.01
1508.557	166.6
1511.797	166.35
1515.036	164.61
1518.274	163.53
1521.513	163.33
1524.751	162.72
1527.989	162.08
1531.227	161.67
1534.464	161.81
1537.701	160.75
1540.938	160.44
1544.174	158.99
1547.41	159.06
1550.646	158.35
1553.882	159.37
1557.117	157.01
1560.352	156.59
1563.587	156.43
1566.821	155.4
1570.055	154.14
1573.289	153.28
1576.523	152.99
1579.756	152.23
1582.989	151.23
1586.222	150.91
1589.454	149.97
1592.686	151.27
1595.918	150.46
1599.15	149.63
1602.381	150.2
1605.612	150.12
1608.843	150.58
1612.073	150.28
1615.303	150.66
1618.533	150.84
1621.762	151.19
1624.992	151.5
1628.221	150.64
1631.449	150.57
1634.678	150.64
1637.906	151.34
1641.134	151.54
1644.361	151.22
1647.588	151.17
1650.815	150.8
1654.042	150.57
1657.269	150.88
1660.495	150.58
1663.72	150.91
1666.946	151.95
1670.171	152.31
1673.396	151.38
1676.621	151.8
1679.845	152.5
1683.069	152.68
1686.293	153.86
1689.517	154.61
1692.74	154.85
1695.963	154.65
1699.185	155.56
1702.408	155.28
1705.63	156.05
1708.852	156.71
1712.073	156.71
1715.294	156.65
1718.515	158.18
1721.736	157.39
1724.956	157.95
1728.176	158.06
1731.396	159.37
1734.616	159.07
1737.835	159.9
1741.054	158.26
1744.272	159.08
1747.491	160.24
1750.709	160.92
1753.927	160.49
1757.144	160.24
1760.361	160.17
1763.578	160.56
1766.795	160.48
1770.011	161.32
1773.227	161.41
1776.443	163.43
1779.658	163.42
1782.874	163.21
1786.089	163.24
1789.303	163.77
1792.518	165.79
1795.732	165.92
1798.945	166.88
1802.159	167.51
1805.372	167.83
1808.585	169.84
1811.797	170.7
1815.01	171.03
1818.222	172.15
1821.434	173.79
1824.645	174.02
1827.856	176.51
1831.067	178.08
1834.278	177.47
1837.488	178.78
1840.698	179.74
1843.908	178.69
1847.117	178.84
1850.326	179.69
1853.535	178.54
1856.744	180.08
1859.952	180.2
1863.16	178.84
1866.368	177.62
1869.575	178.95
1872.782	176.25
1875.989	175.33
1879.196	174.44
1882.402	173.64
1885.608	173.82
1888.814	174.07
1892.019	172.95
1895.224	172.27
1898.429	171.8
1901.634	172.11
1904.838	172.16
1908.042	173.77
1911.246	173.78
1914.449	174.91
1917.652	174.12
1920.855	174.28
1924.058	174.34
1927.26	174.02
1930.462	174.23
1933.664	175.27
1936.865	173.86
1940.066	174.01
1943.267	172.23
1946.467	173
1949.668	173.38
1952.868	175.9
1956.067	175.71
1959.267	176.32
1962.466	176.44
1965.665	176.45
1968.863	176.61
1972.061	180.41
1975.259	181.36
1978.457	183.57
1981.654	185.52
1984.852	186.21
1988.048	185.54
1991.245	187.49
1994.441	189.8
1997.637	191.02
2000.833	195.17
2004.028	198.01
2007.223	198.11
2010.418	200.09
2013.613	202.79
2016.807	204.66
2020.001	207.09
2023.194	211.16
2026.388	214.92
2029.581	219.59
2032.774	222.63
2035.966	225.08
2039.158	226.05
2042.35	230.56
2045.542	232.55
2048.733	236.73
2051.924	239.94
2055.115	244.02
2058.306	243.71
2061.496	246.62
2064.686	245.97
2067.875	250.4
2071.065	252.51
2074.254	251.24
2077.442	254.11
2080.631	255.23
2083.819	258.06
2087.007	258.48
2090.195	260.87
2093.382	263.25
2096.569	261.83
2099.756	266.77
2102.942	267.09
2106.128	268.93
2109.314	275.15
2112.5	274.08
2115.685	280.57
2118.87	280.9
2122.055	286.73
2125.239	288.43
2128.424	292.53
2131.608	293.58
2134.791	297.67
2137.974	298.69
2141.157	299.4
2144.34	300.43
2147.523	304.07
2150.705	301.76
2153.887	306.02
2157.068	306.03
2160.25	303.25
2163.431	304.45
2166.611	309.08
2169.792	314.42
2172.972	317.38
2176.152	320.93
2179.331	324.05
2182.511	328.97
2185.69	331.95
2188.868	338.07
2192.047	339.19
2195.225	349.46
2198.403	357.84
2201.58	364.98
2204.758	371.23
2207.935	378.6
2211.111	383.94
2214.288	389.52
2217.464	390.98
2220.64	399.4
2223.815	402.81
2226.991	418.88
2230.166	419.28
2233.34	425.8
2236.515	430.62
2239.689	431.84
2242.863	434.28
2246.036	446.71
2249.209	444.3
2252.382	451.82
2255.555	462.75
2258.727	464.31
2261.9	468.11
2265.071	472.89
2268.243	481.22
2271.414	487.42
2274.585	496.67
2277.756	501.58
2280.926	506.26
2284.096	517.5
2287.266	529.08
2290.436	532.84
2293.605	545.07
2296.774	558.34
2299.942	576.22
2303.111	580.95
2306.279	594.47
2309.447	602.43
2312.614	616.6
2315.781	631.71
2318.948	658.46
2322.115	651.01
2325.281	690.47
2328.447	673.41
2331.613	699.83
2334.779	692.45
2337.944	720.66
2341.109	726.94
2344.274	749.46
2347.438	776.69
2350.602	776.49
2353.766	801.92
2356.929	814.68
2360.092	803.31
2363.255	865.24
2366.418	865.21
2369.58	881.2
2372.742	932.85
2375.904	959.6
2379.066	950.13
2382.227	936
2385.388	1020.25
2388.548	1019.67
2391.709	1029.62
2394.869	1151.14
2398.029	1103.94
2401.188	1131.24
2404.347	1125.17
2407.506	1109.29
2410.665	1135.81
2413.823	1206.53
2416.981	1276.14
2420.139	1231.06
2423.296	1222.04
2426.453	1277.24
2429.61	1223.72
2432.767	1276.49
2435.923	1263.73
2439.079	1382.29
2442.235	1402.79
2445.391	1393.69
2448.546	1376.64
2451.701	1338.53
2454.855	1336.29
2458.009	1411.8
2461.163	1468.43
2464.317	1527.88
2467.471	1564.79
2470.624	1567.14
2473.777	1522.15
2476.929	1483.75
2480.082	1437.9
2483.234	1426.78
2486.385	1502.46
2489.537	1506.61
2492.688	1561.57
2495.839	1522.91
2498.989	1486.49
2502.14	1497.1
2505.29	1509.9
2508.439	1541.93
2511.589	1535.65
2514.738	1672.78
2517.887	1634.44
2521.035	1714.65
2524.183	1740.1
2527.331	1752.93
2530.479	1738.71
2533.627	1751.81
