Data from C_1_DEC_ON_6N_Splice17_12-45-14-669.txt Node
Date: Sat Mar 07 12:45:14 EST 2020
User: sa697716
Spectrometer: NQ5500242
Trigger mode: 0
Integration Time (sec): 1.450000E-1
Scans to average: 20
Nonlinearity correction enabled: false
Boxcar width: 5
Storing dark spectrum: false
XAxis mode: Wavelengths
Number of Pixels in Spectrum: 512
>>>>>Begin Spectral Data<<<<<
187.83	120.34
188.298	119.76
188.766	98.6
189.233	78.11
189.701	63.01
190.169	91.66
190.636	57.07
191.104	-69.33
191.571	-179.14
192.039	-244.83
192.506	-1051.58
192.974	280.64
193.441	307.37
193.908	106.58
194.375	16.62
194.842	-71.34
195.31	-22.68
195.777	-183.76
196.244	10.43
196.711	30.67
197.177	33.04
197.644	31.72
198.111	31.5
198.578	31.93
199.045	31.49
199.511	31.45
199.978	31.51
200.445	31.49
200.911	30.87
201.378	30.7
201.844	30.3
202.31	29.35
202.777	29.29
203.243	28.99
203.709	28.23
204.176	28.11
204.642	27.92
205.108	27.7
205.574	27.4
206.04	27.04
206.506	26.57
206.972	26.48
207.438	26.32
207.903	25.66
208.369	24.96
208.835	24.44
209.301	23.78
209.766	22.84
210.232	21.78
210.697	20.99
211.163	20.67
211.628	20.02
212.094	19.07
212.559	18.56
213.024	18.13
213.49	17.63
213.955	17.11
214.42	16.56
214.885	16.09
215.35	15.39
215.815	14.25
216.28	13
216.745	11.62
217.21	10.34
217.675	9.04
218.14	7.96
218.604	7.04
219.069	6.29
219.534	5.66
219.998	5.11
220.463	4.68
220.927	4.28
221.392	3.96
221.856	3.73
222.32	3.51
222.785	3.34
223.249	3.16
223.713	3.01
224.177	2.89
224.642	2.76
225.106	2.62
225.57	2.5
226.034	2.42
226.497	2.33
226.961	2.24
227.425	2.17
227.889	2.1
228.353	2.04
228.816	1.97
229.28	1.91
229.744	1.86
230.207	1.82
230.671	1.77
231.134	1.74
231.597	1.71
232.061	1.67
232.524	1.63
232.987	1.6
233.45	1.59
233.914	1.56
234.377	1.54
234.84	1.5
235.303	1.5
235.766	1.49
236.229	1.46
236.691	1.43
237.154	1.42
237.617	1.41
238.08	1.39
238.542	1.36
239.005	1.35
239.468	1.33
239.93	1.33
240.393	1.31
240.855	1.29
241.317	1.28
241.78	1.27
242.242	1.25
242.704	1.24
243.166	1.23
243.629	1.22
244.091	1.2
244.553	1.19
245.015	1.17
245.477	1.16
245.939	1.15
246.4	1.14
246.862	1.13
247.324	1.12
247.786	1.11
248.247	1.09
248.709	1.08
249.17	1.06
249.632	1.06
250.093	1.06
250.555	1.06
251.016	1.06
251.477	1.05
251.939	1.04
252.4	1.04
252.861	1.03
253.322	1.02
253.783	1.02
254.244	1.02
254.705	1.01
255.166	1
255.627	0.99
256.088	0.99
256.549	0.98
257.009	0.97
257.47	0.96
257.931	0.95
258.391	0.94
258.852	0.92
259.312	0.92
259.773	0.9
260.233	0.9
260.694	0.9
261.154	0.89
261.614	0.87
262.074	0.86
262.534	0.85
262.994	0.85
263.455	0.85
263.915	0.84
264.374	0.83
264.834	0.82
265.294	0.81
265.754	0.81
266.214	0.8
266.673	0.8
267.133	0.8
267.593	0.79
268.052	0.79
268.512	0.79
268.971	0.79
269.431	0.78
269.89	0.78
270.349	0.78
270.809	0.78
271.268	0.78
271.727	0.78
272.186	0.78
272.645	0.78
273.104	0.77
273.563	0.77
274.022	0.76
274.481	0.77
274.94	0.77
275.399	0.77
275.857	0.76
276.316	0.76
276.775	0.77
277.233	0.77
277.692	0.77
278.15	0.77
278.609	0.78
279.067	0.78
279.525	0.78
279.984	0.79
280.442	0.79
280.9	0.79
281.358	0.79
281.816	0.79
282.274	0.79
282.732	0.79
283.19	0.79
283.648	0.79
284.106	0.78
284.564	0.79
285.021	0.79
285.479	0.79
285.937	0.79
286.394	0.8
286.852	0.79
287.309	0.79
287.767	0.78
288.224	0.79
288.682	0.78
289.139	0.78
289.596	0.77
290.053	0.76
290.511	0.76
290.968	0.75
291.425	0.74
291.882	0.74
292.339	0.74
292.796	0.74
293.252	0.74
293.709	0.74
294.166	0.74
294.623	0.74
295.079	0.74
295.536	0.75
295.992	0.74
296.449	0.74
296.905	0.75
297.362	0.74
297.818	0.73
298.274	0.73
298.731	0.73
299.187	0.73
299.643	0.72
300.099	0.72
300.555	0.72
301.011	0.72
301.467	0.71
301.923	0.71
302.379	0.71
302.835	0.72
303.291	0.72
303.746	0.72
304.202	0.72
304.658	0.72
305.113	0.72
305.569	0.72
306.024	0.73
306.479	0.73
306.935	0.73
307.39	0.74
307.845	0.74
308.301	0.75
308.756	0.75
309.211	0.75
309.666	0.75
310.121	0.76
310.576	0.76
311.031	0.77
311.486	0.77
311.94	0.78
312.395	0.77
312.85	0.77
313.305	0.77
313.759	0.77
314.214	0.77
314.668	0.77
315.123	0.77
315.577	0.77
316.032	0.77
316.486	0.76
316.94	0.77
317.394	0.77
317.849	0.77
318.303	0.76
318.757	0.76
319.211	0.76
319.665	0.75
320.119	0.75
320.572	0.75
321.026	0.75
321.48	0.75
321.934	0.74
322.387	0.74
322.841	0.74
323.295	0.74
323.748	0.74
324.202	0.75
324.655	0.75
325.108	0.75
325.562	0.75
326.015	0.75
326.468	0.75
326.921	0.75
327.374	0.75
327.827	0.76
328.28	0.76
328.733	0.76
329.186	0.76
329.639	0.76
330.092	0.77
330.545	0.77
330.997	0.76
331.45	0.77
331.903	0.78
332.355	0.79
332.808	0.78
333.26	0.78
333.713	0.78
334.165	0.78
334.617	0.78
335.069	0.77
335.522	0.78
335.974	0.78
336.426	0.78
336.878	0.77
337.33	0.77
337.782	0.77
338.234	0.78
338.686	0.79
339.137	0.8
339.589	0.8
340.041	0.8
340.493	0.8
340.944	0.79
341.396	0.79
341.847	0.8
342.299	0.79
342.75	0.78
343.201	0.78
343.653	0.77
344.104	0.76
344.555	0.76
345.006	0.76
345.457	0.75
345.908	0.75
346.359	0.75
346.81	0.75
347.261	0.75
347.712	0.75
348.163	0.75
348.613	0.75
349.064	0.76
349.515	0.77
349.965	0.76
350.416	0.76
350.866	0.76
351.317	0.75
351.767	0.76
352.217	0.76
352.668	0.76
353.118	0.76
353.568	0.76
354.018	0.76
354.468	0.76
354.918	0.76
355.368	0.78
355.818	0.79
356.268	0.78
356.718	0.78
357.168	0.78
357.617	0.78
358.067	0.78
358.517	0.8
358.966	0.81
359.416	0.81
359.865	0.81
360.315	0.81
360.764	0.82
361.213	0.82
361.663	0.82
362.112	0.83
362.561	0.83
363.01	0.83
363.459	0.81
363.908	0.81
364.357	0.81
364.806	0.8
365.255	0.8
365.703	0.8
366.152	0.81
366.601	0.82
367.05	0.81
367.498	0.81
367.947	0.82
368.395	0.83
368.844	0.83
369.292	0.83
369.74	0.84
370.189	0.85
370.637	0.84
371.085	0.84
371.533	0.84
371.981	0.84
372.429	0.84
372.877	0.84
373.325	0.84
373.773	0.84
374.221	0.84
374.669	0.84
375.116	0.83
375.564	0.83
376.012	0.83
376.459	0.83
376.907	0.84
377.354	0.84
377.801	0.85
378.249	0.86
378.696	0.86
379.143	0.87
379.591	0.88
380.038	0.9
380.485	0.92
380.932	0.93
381.379	0.96
381.826	0.98
382.273	1.01
382.72	1.03
383.166	1.06
383.613	1.1
384.06	1.14
384.506	1.19
384.953	1.26
385.4	1.35
385.846	1.46
386.292	1.57
386.739	1.7
387.185	1.84
387.631	1.98
388.078	2.11
388.524	2.21
388.97	2.31
389.416	2.44
389.862	2.63
390.308	2.86
390.754	3.11
391.2	3.37
391.645	3.58
392.091	3.78
392.537	4
392.983	4.31
393.428	4.78
393.874	5.35
394.319	5.97
394.765	6.59
395.21	7.22
395.655	7.88
396.101	8.59
396.546	9.39
396.991	10.29
397.436	11.26
397.881	12.21
398.326	13.1
398.771	13.94
399.216	14.7
399.661	15.39
400.106	16
400.551	16.53
400.995	17
401.44	17.43
401.885	17.85
402.329	18.26
402.774	18.71
403.218	19.23
403.663	19.78
404.107	20.39
404.551	21.02
404.995	21.61
405.44	22.18
405.884	22.8
406.328	23.49
406.772	24.27
407.216	25.09
407.66	25.83
408.104	26.49
408.547	27.06
408.991	27.61
409.435	28.19
409.879	28.88
410.322	29.67
410.766	30.48
411.209	31.25
411.653	31.92
412.096	32.5
412.54	33.06
412.983	33.62
413.426	34.27
413.869	34.92
414.312	35.52
414.756	36.06
415.199	36.51
415.642	36.89
416.085	37.2
416.527	37.41
416.97	37.52
417.413	37.54
417.856	37.52
418.298	37.49
418.741	37.48
419.184	37.56
419.626	37.74
420.069	37.95
420.511	38.18
420.953	38.44
421.396	38.83
421.838	39.33
422.28	39.88
422.722	40.47
423.164	41.02
423.606	41.48
424.048	41.84
424.49	41.91
424.932	41.66
425.374	41
425.816	40.12
426.258	39.2
426.699	38.63
427.141	38.63
427.582	39.05
428.024	39.71
428.465	40.4
428.907	40.97
429.348	41.56
429.789	42.47
430.231	43.96
430.672	45.93
431.113	48.07
431.554	50.04
431.995	51.55
432.436	52.63
432.877	53.45
433.318	54.15
433.759	54.97
434.2	55.99
434.64	57.16
435.081	58.24
435.522	59.15
435.962	59.9
436.403	60.48
436.843	60.97
437.284	61.55
437.724	62.26
438.164	63.12
438.604	64.1
439.045	65.1
439.485	65.97
439.925	66.72
440.365	67.33
440.805	67.78
441.245	68.22
441.685	68.61
442.125	69.04
442.564	69.54
443.004	70.15
443.444	70.8
443.883	71.48
444.323	72.2
444.762	72.87
445.202	73.66
445.641	74.61
446.081	75.77
446.52	76.97
446.959	78.04
447.398	78.8
447.837	79.17
448.276	79.29
448.716	79.33
449.154	79.35
449.593	79.42
450.032	79.3
450.471	79.03
450.91	78.62
451.349	78.21
451.787	77.87
452.226	77.69
452.664	77.61
453.103	77.61
453.541	77.57
453.98	77.39
454.418	77.1
454.856	76.8
455.295	76.55
455.733	76.29
456.171	76.11
456.609	75.99
457.047	75.88
457.485	75.91
457.923	76.05
458.361	76.29
458.798	76.62
459.236	76.96
459.674	77.32
460.111	77.69
460.549	78.11
460.987	78.53
461.424	78.94
461.862	79.35
462.299	79.7
462.736	80.06
463.173	80.51
463.611	81.09
464.048	81.83
464.485	82.72
464.922	83.61
465.359	84.49
465.796	85.25
466.233	86.03
466.67	86.89
467.106	88
467.543	89.18
467.98	90.35
468.416	91.32
468.853	92.22
469.29	93.05
469.726	93.94
470.162	94.87
470.599	95.8
471.035	96.6
471.471	97.21
471.907	97.53
472.344	97.76
472.78	97.94
473.216	98.22
473.652	98.46
474.088	98.59
474.523	98.7
474.959	98.66
475.395	98.64
475.831	98.59
476.266	98.56
476.702	98.56
477.138	98.45
477.573	98.24
478.008	97.89
478.444	97.44
478.879	96.91
479.314	96.23
479.75	95.5
480.185	94.63
480.62	93.55
481.055	92.05
481.49	90.16
481.925	88.13
482.36	86.26
482.795	84.72
483.229	83.49
483.664	82.47
484.099	81.54
484.534	80.77
484.968	80.22
485.403	79.96
485.837	80.16
486.271	80.67
486.706	81.24
487.14	81.63
487.574	81.75
488.009	81.7
488.443	81.64
488.877	81.61
489.311	81.56
489.745	81.54
490.179	81.53
490.613	81.5
491.046	81.51
491.48	81.59
491.914	81.81
492.348	82.14
492.781	82.48
493.215	82.74
493.648	82.88
494.082	82.97
494.515	83
494.948	83.02
495.382	83.01
495.815	82.95
496.248	82.9
496.681	82.73
497.114	82.51
497.547	82.28
497.98	82.23
498.413	82.34
498.846	82.52
499.279	82.67
499.711	82.74
500.144	82.91
500.577	83.22
501.009	83.67
501.442	84.32
501.874	84.97
502.306	85.62
502.739	86.1
503.171	86.48
503.603	86.8
504.036	87.19
504.468	87.68
504.9	88.15
505.332	88.55
505.764	88.85
506.196	89.09
506.627	89.38
507.059	89.75
507.491	90.19
507.923	90.59
508.354	91.02
508.786	91.35
509.217	91.57
509.649	91.73
510.08	91.92
510.512	92.14
510.943	92.42
511.374	92.59
511.805	92.5
512.237	92.14
512.668	91.73
513.099	91.34
513.53	91.07
513.961	90.89
514.391	90.85
514.822	90.95
515.253	91.1
515.684	91.29
516.114	91.63
516.545	92.14
516.975	93.01
517.406	93.99
517.836	94.95
518.267	95.76
518.697	96.49
519.127	97.17
519.558	97.82
519.988	98.39
520.418	98.87
520.848	99.25
521.278	99.53
521.708	99.59
522.138	99.44
522.567	99.24
522.997	99.11
523.427	99.13
523.857	99.21
524.286	99.27
524.716	99.39
525.145	99.45
525.575	99.53
526.004	99.75
526.433	100.14
526.863	100.78
527.292	101.39
527.721	101.81
528.15	101.97
528.579	101.91
529.008	101.79
529.437	101.57
529.866	101.38
530.295	101.24
530.724	101.15
531.152	101.07
531.581	100.95
532.01	100.8
532.438	100.7
532.867	100.71
533.295	100.79
533.723	100.88
534.152	100.92
534.58	100.91
535.008	100.71
535.436	100.38
535.865	99.92
536.293	99.43
536.721	99.12
537.149	98.98
537.576	98.92
538.004	98.9
538.432	98.8
538.86	98.76
539.287	98.8
539.715	99.08
540.143	99.39
540.57	99.84
540.998	100.34
541.425	100.78
541.852	101.21
542.28	101.6
542.707	101.91
543.134	102.23
543.561	102.51
543.988	102.8
544.415	103.03
544.842	103.33
545.269	103.64
545.696	103.93
546.123	104.23
546.549	104.48
546.976	104.72
547.403	105.01
547.829	105.33
548.256	105.67
548.682	105.91
549.108	106.2
549.535	106.47
549.961	106.66
550.387	106.88
550.813	107.11
551.24	107.33
551.666	107.45
552.092	107.5
552.518	107.47
552.943	107.41
553.369	107.36
553.795	107.21
554.221	106.92
554.646	106.55
555.072	106.11
555.498	105.66
555.923	105.28
556.349	105
556.774	104.75
557.199	104.5
557.625	104.26
558.05	104.05
558.475	103.85
558.9	103.72
559.325	103.63
559.75	103.49
560.175	103.31
560.6	103.03
561.025	102.59
561.449	102.05
561.874	101.53
562.299	101.04
562.723	100.54
563.148	100
563.572	99.41
563.997	98.8
564.421	98.13
564.846	97.52
565.27	96.91
565.694	96.32
566.118	95.7
566.542	95.1
566.966	94.46
567.39	93.87
567.814	93.36
568.238	92.97
568.662	92.66
569.086	92.45
569.509	92.24
569.933	92.03
570.357	91.87
570.78	91.76
571.204	91.69
571.627	91.65
572.05	91.58
572.474	91.51
572.897	91.44
573.32	91.27
573.743	91.09
574.166	90.91
574.589	90.8
575.012	90.75
575.435	90.82
575.858	90.91
576.281	91.05
576.704	91.22
577.126	91.37
577.549	91.55
577.972	91.85
578.394	92.21
578.817	92.6
579.239	93.02
579.661	93.41
580.084	93.75
580.506	94.07
580.928	94.29
581.35	94.46
581.772	94.6
582.194	94.76
582.616	94.93
583.038	95.08
583.46	95.19
583.882	95.15
584.303	94.92
584.725	94.53
585.147	94.09
585.568	93.81
585.99	93.69
586.411	93.69
586.833	93.7
587.254	93.69
587.675	93.73
588.096	93.79
588.518	93.99
588.939	94.41
589.36	94.97
589.781	95.58
590.202	96.06
590.623	96.39
591.043	96.57
591.464	96.73
591.885	96.85
592.305	96.95
592.726	97
593.147	96.96
593.567	96.87
593.987	96.73
594.408	96.57
594.828	96.45
595.248	96.31
595.669	96.09
596.089	95.79
596.509	95.48
596.929	95.09
597.349	94.68
597.769	94.27
598.189	93.89
598.608	93.63
599.028	93.38
599.448	93.14
599.867	92.91
600.287	92.79
600.706	92.62
601.126	92.44
601.545	92.33
601.965	92.26
602.384	92.22
602.803	92.17
603.222	92.04
603.641	91.91
604.061	91.79
604.48	91.62
604.898	91.44
605.317	91.31
605.736	91.18
606.155	91.04
606.574	90.88
606.992	90.77
607.411	90.64
607.829	90.54
608.248	90.44
608.666	90.31
609.085	90.2
609.503	90.04
609.921	89.94
610.339	89.84
610.758	89.75
611.176	89.63
611.594	89.47
612.012	89.28
612.43	89.04
612.847	88.88
613.265	88.75
613.683	88.69
614.101	88.69
614.518	88.65
614.936	88.62
615.353	88.55
615.771	88.59
616.188	88.65
616.606	88.74
617.023	88.86
617.44	88.92
617.857	88.9
618.274	88.83
618.691	88.7
619.108	88.56
619.525	88.36
619.942	88.18
620.359	87.9
620.776	87.58
621.192	87.27
621.609	86.97
622.026	86.68
622.442	86.49
622.859	86.28
623.275	86.05
623.691	85.82
624.108	85.61
624.524	85.43
624.94	85.29
625.356	85.14
625.772	85.01
626.188	84.91
626.604	84.77
627.02	84.61
627.436	84.46
627.852	84.4
628.268	84.37
628.683	84.39
629.099	84.41
629.514	84.43
629.93	84.48
630.345	84.57
630.761	84.63
631.176	84.7
631.591	84.72
632.007	84.78
632.422	84.84
632.837	84.9
633.252	84.95
633.667	84.99
634.082	85.05
634.497	85.13
634.911	85.13
635.326	85.09
635.741	85.07
636.155	85.04
636.57	84.96
636.984	84.87
637.399	84.73
637.813	84.59
638.228	84.42
638.642	84.26
639.056	84.09
639.47	84
639.884	83.87
640.298	83.75
640.712	83.68
641.126	83.56
641.54	83.43
641.954	83.29
642.368	83.12
642.781	82.96
643.195	82.79
643.609	82.58
644.022	82.37
644.436	82.15
644.849	81.89
645.262	81.56
645.676	81.3
646.089	81.14
646.502	81.04
646.915	80.97
647.328	80.85
647.741	80.75
648.154	80.68
648.567	80.58
648.98	80.53
649.393	80.55
649.805	80.61
650.218	80.61
650.631	80.42
651.043	80.07
651.456	79.39
651.868	78.47
652.28	77.5
652.693	76.69
653.105	76.05
653.517	75.58
653.929	75.21
654.341	74.92
654.753	74.71
655.165	74.62
655.577	74.71
655.989	75.13
656.401	75.83
656.813	76.59
657.224	77.2
657.636	77.64
658.047	77.94
658.459	78.08
658.87	78.11
659.282	78.1
659.693	78.04
660.104	77.91
660.515	77.78
660.926	77.67
661.338	77.52
661.749	77.32
662.159	77.12
662.57	76.91
662.981	76.72
663.392	76.53
663.803	76.36
664.213	76.18
664.624	76.05
665.035	75.89
665.445	75.68
665.855	75.47
666.266	75.29
666.676	75.08
667.086	74.79
667.497	74.54
667.907	74.31
668.317	74.06
668.727	73.83
669.137	73.55
669.547	73.33
669.956	73.08
670.366	72.86
670.776	72.64
671.186	72.45
671.595	72.31
672.005	72.15
672.414	72.03
672.824	71.87
673.233	71.74
673.642	71.64
674.052	71.51
674.461	71.38
674.87	71.27
675.279	71.18
675.688	71.1
676.097	71.02
676.506	70.94
676.915	70.86
677.323	70.82
677.732	70.8
678.141	70.74
678.549	70.7
678.958	70.69
679.366	70.64
679.775	70.54
680.183	70.45
680.592	70.41
681	70.37
681.408	70.3
681.816	70.09
682.224	69.57
682.632	68.68
683.04	67.52
683.448	66.39
683.856	65.38
684.264	64.48
684.671	63.62
685.079	62.76
685.487	61.97
685.894	61.32
686.302	60.87
686.709	60.8
687.116	61.19
687.524	61.94
687.931	62.76
688.338	63.52
688.745	64.25
689.152	64.94
689.559	65.63
689.966	66.26
690.373	66.81
690.78	67.3
691.187	67.72
691.593	68.14
692	68.49
692.407	68.81
692.813	69.16
693.22	69.43
693.626	69.7
694.032	69.93
694.439	70.12
694.845	70.33
695.251	70.53
695.657	70.7
696.063	70.8
696.469	70.85
696.875	70.83
697.281	70.75
697.687	70.69
698.093	70.63
698.498	70.63
698.904	70.67
699.31	70.72
699.715	70.8
700.12	70.93
700.526	71.12
700.931	71.31
701.337	71.51
701.742	71.7
702.147	71.94
702.552	72.17
702.957	72.36
703.362	72.57
703.767	72.7
704.172	72.82
704.577	72.88
704.981	72.92
705.386	72.97
705.791	73.06
706.195	73.18
706.6	73.25
707.004	73.3
707.408	73.33
707.813	73.33
708.217	73.35
708.621	73.38
709.025	73.4
709.43	73.4
709.834	73.44
710.237	73.37
710.641	73.28
711.045	73.22
711.449	73.14
711.853	73.01
712.256	72.78
712.66	72.41
713.064	71.89
713.467	71.27
713.87	70.55
714.274	69.64
714.677	68.75
715.08	67.81
715.484	66.88
715.887	66.03
716.29	65.3
716.693	64.79
717.096	64.63
717.499	64.69
717.901	64.95
718.304	65.32
718.707	65.81
719.109	66.26
719.512	66.62
719.915	66.98
720.317	67.24
720.719	67.39
721.122	67.46
721.524	67.33
721.926	67.17
722.328	66.93
722.731	66.67
723.133	66.45
723.535	66.29
723.937	66.24
724.338	66.15
724.74	66.12
725.142	66.16
725.544	66.15
725.945	66.18
726.347	66.13
726.748	66.07
727.15	66.02
727.551	66.1
727.952	66.21
728.354	66.38
728.755	66.65
729.156	66.96
729.557	67.23
729.958	67.54
730.359	67.84
730.76	68.14
731.161	68.38
731.562	68.65
731.962	68.77
732.363	68.88
732.763	68.95
733.164	68.97
733.564	68.92
733.965	68.82
734.365	68.67
734.766	68.46
735.166	68.24
735.566	68.11
735.966	67.97
736.366	67.86
736.766	67.67
737.166	67.47
737.566	67.26
737.966	67.07
738.365	66.93
738.765	66.87
739.165	66.84
739.564	66.83
739.964	66.78
740.363	66.67
740.763	66.6
741.162	66.57
741.561	66.55
741.96	66.53
742.36	66.52
742.759	66.47
743.158	66.4
743.557	66.28
743.955	66.18
744.354	66.07
744.753	66.02
745.152	65.92
745.55	65.79
745.949	65.65
746.348	65.51
746.746	65.32
747.144	65.13
747.543	64.92
747.941	64.73
748.339	64.51
748.737	64.32
749.136	64.13
749.534	63.95
749.932	63.82
750.33	63.69
750.727	63.56
751.125	63.43
751.523	63.3
751.921	63.16
752.318	63.01
752.716	62.88
753.113	62.73
753.511	62.56
753.908	62.41
754.305	62.13
754.703	61.52
755.1	60.33
755.497	58.37
755.894	55.59
756.291	52.3
756.688	48.79
757.085	45.48
757.482	42.44
757.878	39.6
758.275	36.77
758.672	33.95
759.068	31.46
759.465	29.57
759.861	28.67
760.258	28.79
760.654	29.69
761.05	31.02
761.447	32.37
761.843	33.64
762.239	34.94
762.635	36.47
763.031	38.27
763.427	40.27
763.822	42.39
764.218	44.48
764.614	46.43
765.01	48.2
765.405	49.8
765.801	51.25
766.196	52.56
766.592	53.61
766.987	54.44
767.382	55.09
767.778	55.57
768.173	55.91
768.568	56.12
768.963	56.29
769.358	56.43
769.753	56.52
770.148	56.52
770.542	56.46
770.937	56.41
771.332	56.37
771.726	56.31
772.121	56.26
772.515	56.17
772.91	56.09
773.304	55.95
773.699	55.8
774.093	55.65
774.487	55.52
774.881	55.42
775.275	55.3
775.669	55.14
776.063	54.96
776.457	54.78
776.851	54.6
777.245	54.43
777.638	54.29
778.032	54.16
778.425	54.05
778.819	53.88
779.212	53.69
779.606	53.51
779.999	53.35
780.392	53.21
780.786	53.05
781.179	52.88
781.572	52.74
781.965	52.56
782.358	52.36
782.751	52.14
783.143	51.96
783.536	51.73
783.929	51.53
784.322	51.32
784.714	51.1
785.107	50.85
785.499	50.59
785.891	50.3
786.284	50.02
786.676	49.74
787.068	49.44
787.46	49.14
787.852	48.88
788.245	48.59
788.636	48.29
789.028	47.94
789.42	47.62
789.812	47.32
790.204	47.02
790.595	46.72
790.987	46.48
791.378	46.28
791.77	46.04
792.161	45.82
792.553	45.6
792.944	45.39
793.335	45.27
793.726	45.16
794.117	44.99
794.508	44.82
794.899	44.68
795.29	44.47
795.681	44.2
796.072	43.96
796.463	43.74
796.853	43.5
797.244	43.28
797.634	42.99
798.025	42.71
798.415	42.43
798.806	42.15
799.196	41.85
799.586	41.58
799.976	41.36
800.366	41.1
800.756	40.82
801.146	40.6
801.536	40.31
801.926	40.06
802.316	39.79
802.706	39.56
803.095	39.32
803.485	39.07
803.874	38.82
804.264	38.53
804.653	38.27
805.043	38
805.432	37.67
805.821	37.37
806.21	37.03
806.599	36.72
806.988	36.38
807.377	36.05
807.766	35.72
808.155	35.38
808.544	35.01
808.933	34.63
809.321	34.23
809.71	33.82
810.098	33.37
810.487	32.89
810.875	32.38
811.264	31.86
811.652	31.32
812.04	30.73
812.428	30.17
812.816	29.63
813.204	29.13
813.592	28.65
813.98	28.2
814.368	27.79
814.756	27.43
815.144	27.08
815.531	26.78
815.919	26.54
816.306	26.41
816.694	26.29
817.081	26.2
817.469	26.09
817.856	25.93
818.243	25.71
818.63	25.42
819.017	25.13
819.404	24.88
819.791	24.67
820.178	24.49
820.565	24.26
820.952	24.05
821.339	23.82
821.725	23.61
822.112	23.47
822.498	23.42
822.885	23.41
823.271	23.39
823.657	23.29
824.044	23.15
824.43	22.97
824.816	22.76
825.202	22.54
825.588	22.32
825.974	22.11
826.36	21.89
826.746	21.66
827.132	21.44
827.517	21.26
827.903	21.1
828.289	20.95
828.674	20.79
829.06	20.63
829.445	20.48
829.83	20.32
830.216	20.19
830.601	20.07
830.986	19.97
831.371	19.86
831.756	19.77
832.141	19.67
832.526	19.59
832.911	19.52
833.295	19.45
833.68	19.38
834.065	19.33
834.449	19.25
834.834	19.16
835.218	19.07
835.603	18.98
835.987	18.88
836.371	18.78
836.755	18.67
837.139	18.56
837.524	18.46
837.908	18.37
838.291	18.28
838.675	18.18
839.059	18.09
839.443	17.98
839.827	17.87
840.21	17.76
840.594	17.68
840.977	17.57
841.361	17.48
841.744	17.38
842.127	17.27
842.511	17.17
842.894	17.07
843.277	16.99
843.66	16.9
844.043	16.83
844.426	16.76
844.809	16.67
845.191	16.57
845.574	16.44
845.957	16.31
846.339	16.2
846.722	16.08
847.104	15.98
847.487	15.85
847.869	15.75
848.252	15.64
848.634	15.54
849.016	15.43
849.398	15.3
849.78	15.18
850.162	15.01
850.544	14.86
850.926	14.72
851.307	14.6
851.689	14.51
852.071	14.41
852.452	14.33
852.834	14.26
853.215	14.2
853.597	14.2
853.978	14.21
854.359	14.26
854.741	14.3
855.122	14.31
855.503	14.3
855.884	14.28
856.265	14.26
856.646	14.2
857.026	14.14
857.407	14.09
857.788	14.03
858.169	13.97
858.549	13.91
858.93	13.85
859.31	13.81
859.69	13.75
860.071	13.7
860.451	13.64
860.831	13.57
861.211	13.48
861.591	13.36
861.971	13.23
862.351	13.11
862.731	12.98
863.111	12.86
863.491	12.74
863.87	12.63
864.25	12.51
864.629	12.43
865.009	12.36
865.388	12.29
865.768	12.26
866.147	12.26
866.526	12.26
866.905	12.26
867.284	12.26
867.663	12.24
868.042	12.21
868.421	12.2
868.8	12.18
869.179	12.15
869.558	12.14
869.936	12.1
870.315	12.06
870.693	12.02
871.072	11.98
871.45	11.94
871.828	11.92
872.207	11.9
872.585	11.86
872.963	11.81
873.341	11.78
873.719	11.74
874.097	11.72
874.475	11.7
874.853	11.68
875.23	11.63
875.608	11.59
875.986	11.55
876.363	11.49
876.741	11.45
877.118	11.42
877.495	11.38
877.873	11.35
878.25	11.29
878.627	11.25
879.004	11.21
879.381	11.19
879.758	11.14
880.135	11.1
880.512	11.07
880.889	11.05
881.265	11.01
881.642	10.96
882.019	10.92
882.395	10.88
882.772	10.85
883.148	10.77
883.524	10.73
883.901	10.7
884.277	10.66
884.653	10.62
885.029	10.58
885.405	10.56
885.781	10.53
886.157	10.5
886.532	10.47
886.908	10.44
887.284	10.43
887.659	10.4
888.035	10.36
888.411	10.33
888.786	10.29
889.161	10.24
889.537	10.2
889.912	10.15
890.287	10.12
890.662	10.07
891.037	10.02
891.412	9.95
891.787	9.88
892.162	9.81
892.536	9.73
892.911	9.66
893.286	9.58
893.66	9.5
894.035	9.43
894.409	9.33
894.784	9.24
895.158	9.14
895.532	9.05
895.906	8.98
896.281	8.91
896.655	8.84
897.029	8.77
897.402	8.7
897.776	8.64
898.15	8.58
898.524	8.55
898.898	8.54
899.271	8.54
899.645	8.54
900.018	8.55
900.392	8.57
900.765	8.6
901.138	8.63
901.511	8.68
901.884	8.72
902.258	8.76
902.631	8.78
903.003	8.79
903.376	8.78
903.749	8.77
904.122	8.76
904.495	8.73
904.867	8.69
905.24	8.64
905.612	8.58
905.985	8.52
906.357	8.46
906.729	8.41
907.102	8.37
907.474	8.35
907.846	8.31
908.218	8.28
908.59	8.26
908.962	8.24
909.334	8.21
909.705	8.21
910.077	8.2
910.449	8.19
910.82	8.17
911.192	8.16
911.563	8.16
911.935	8.14
912.306	8.12
912.677	8.09
913.048	8.08
913.419	8.07
913.79	8.05
914.161	8.05
914.532	8.03
914.903	8.03
915.274	8.02
915.645	8.01
916.015	8.03
916.386	8.02
916.756	8.03
917.127	8.05
917.497	8.05
917.868	8.06
918.238	8.07
918.608	8.08
918.978	8.08
919.348	8.09
919.718	8.08
920.088	8.09
920.458	8.07
920.828	8.06
921.198	8.04
921.567	8.02
921.937	8
922.306	7.97
922.676	7.96
923.045	7.95
923.415	7.92
923.784	7.92
924.153	7.91
924.522	7.91
924.891	7.89
925.26	7.85
925.629	7.82
925.998	7.77
926.367	7.73
926.736	7.67
927.104	7.6
927.473	7.52
927.842	7.42
928.21	7.3
928.578	7.2
928.947	7.1
929.315	6.97
929.683	6.86
930.051	6.75
930.42	6.64
930.788	6.52
931.156	6.41
931.523	6.31
931.891	6.24
932.259	6.18
932.627	6.1
932.994	6.01
933.362	5.97
933.729	5.95
934.097	5.94
934.464	5.91
934.831	5.92
935.199	5.94
935.566	5.98
935.933	6.02
936.3	6.07
936.667	6.11
937.034	6.22
937.401	6.29
937.767	6.35
938.134	6.43
938.501	6.51
938.867	6.62
939.234	6.67
939.6	6.72
939.967	6.72
940.333	6.7
940.699	6.75
941.065	6.72
941.431	6.71
941.798	6.69
942.163	6.68
942.529	6.66
942.895	6.61
943.261	6.58
943.627	6.56
943.992	6.54
944.358	6.59
944.723	6.59
945.089	6.58
945.454	6.57
945.82	6.59
946.185	6.56
946.55	6.55
946.915	6.54
947.28	6.57
947.645	6.6
948.01	6.62
948.375	6.61
948.74	6.58
949.104	6.6
949.469	6.65
949.834	6.62
950.198	6.66
950.562	6.64
950.927	6.63
951.291	6.61
951.655	6.56
952.02	6.55
952.384	6.52
952.748	6.52
953.112	6.51
953.476	6.45
953.839	6.45
954.203	6.4
954.567	6.43
954.931	6.46
955.294	6.44
955.658	6.48
956.021	6.45
956.385	6.45
956.748	6.42
957.111	6.4
957.474	6.43
957.837	6.41
958.2	6.42
958.563	6.39
958.926	6.36
959.289	6.39
959.652	6.34
960.015	6.35
960.377	6.37
960.74	6.41
961.102	6.43
961.465	6.47
961.827	6.54
962.189	6.59
962.552	6.6
962.914	6.66
963.276	6.66
963.638	6.67
964	6.69
964.362	6.72
964.724	6.74
965.085	6.75
965.447	6.69
965.809	6.67
966.17	6.67
966.532	6.73
966.893	6.76
967.255	6.78
967.616	6.86
967.977	6.91
968.338	6.9
968.699	6.9
969.061	6.95
969.421	7.04
969.782	7.12
970.143	7.11
970.504	7.12
970.865	7.11
971.225	7.13
971.586	7.09
971.946	7.11
972.307	7.15
972.667	7.14
973.027	7.18
973.388	7.13
973.748	7.09
974.108	7.13
974.468	7.07
974.828	7.09
975.188	7.07
975.548	7.06
975.907	7.02
976.267	7.01
976.627	7.01
976.986	6.97
977.346	6.96
977.705	6.96
978.064	6.98
978.424	7.09
978.783	7.08
979.142	7.07
979.501	7.1
979.86	7.15
980.219	7.15
980.578	7.24
980.937	7.26
981.296	7.36
981.654	7.38
982.013	7.4
982.371	7.38
982.73	7.43
983.088	7.5
983.447	7.53
983.805	7.53
984.163	7.55
984.521	7.58
984.879	7.57
985.237	7.59
985.595	7.67
985.953	7.65
986.311	7.63
986.669	7.64
987.026	7.66
987.384	7.72
987.741	7.72
988.099	7.75
988.456	7.68
988.814	7.76
989.171	7.77
989.528	7.73
989.885	7.76
990.242	7.77
990.599	7.76
990.956	7.75
991.313	7.76
991.67	7.8
992.027	7.86
992.383	7.95
992.74	8.03
993.096	7.98
993.453	7.98
993.809	8.06
994.165	8.08
994.522	8.13
994.878	8.23
995.234	8.28
995.59	8.34
995.946	8.35
996.302	8.32
996.658	8.33
997.013	8.39
997.369	8.42
997.725	8.41
998.08	8.44
998.436	8.55
998.791	8.54
999.147	8.55
999.502	8.64
999.857	8.72
1000.212	8.71
1000.567	8.7
1000.922	8.79
1001.277	8.76
1001.632	8.74
1001.987	8.78
1002.342	8.65
1002.696	8.64
1003.051	8.68
1003.406	8.73
1003.76	8.79
1004.114	8.85
1004.469	8.92
1004.823	9.12
1005.177	9.22
1005.531	9.39
1005.885	9.49
1006.239	9.58
1006.593	9.81
1006.947	9.86
1007.301	9.64
1007.655	9.49
1008.008	9.57
1008.362	9.6
1008.715	9.44
1009.069	9.55
1009.422	9.48
1009.776	9.41
1010.129	9.48
1010.482	9.43
1010.835	9.45
1011.188	9.67
1011.541	9.84
1011.894	10.01
1012.247	9.99
1012.6	10.07
1012.952	10.08
1013.305	10.18
1013.657	10.42
1014.01	10.51
1014.362	10.51
1014.715	10.65
1015.067	10.67
1015.419	10.92
1015.771	10.94
1016.123	11.16
1016.475	11.25
1016.827	11.33
1017.179	11.5
1017.531	11.43
1017.883	11.44
1018.234	11.58
1018.586	11.69
1018.938	11.87
1019.289	11.67
1019.64	11.65
1019.992	11.68
1020.343	11.58
1020.694	11.61
1021.045	11.58
1021.396	11.76
1021.747	12.04
1022.098	12.05
1022.449	11.99
1022.8	11.98
1023.151	12.18
1023.501	12.38
1023.852	12.28
1024.202	12.47
1024.553	12.58
1024.903	12.95
1025.253	13.02
1025.604	13.13
1025.954	13.08
1026.304	13.32
1026.654	13.56
1027.004	13.68
1027.354	13.95
1027.703	14.05
1028.053	14.41
1028.403	14.77
1028.753	14.42
1029.102	14.5
1029.452	14.37
1029.801	14.6
1030.15	14.49
1030.499	14.43
897.758	940.53
901.051	942.36
904.343	939.63
907.636	957.45
910.928	931.88
914.22	935.07
917.511	924.08
920.803	881.85
924.094	878.17
927.384	854.25
930.675	818.82
933.965	816.38
937.255	771.09
940.544	740.85
943.834	704.05
947.123	699.32
950.411	657.81
953.7	642.89
956.988	613.98
960.276	588.33
963.563	578.04
966.851	558.79
970.138	554.37
973.424	537.43
976.711	539.71
979.997	515.84
983.283	511.52
986.568	501.36
989.853	486.03
993.138	476.31
996.423	460.09
999.708	447.38
1002.992	442.36
1006.275	423.07
1009.559	419.23
1012.842	405.6
1016.125	395.29
1019.408	388.02
1022.69	382.39
1025.972	375.97
1029.254	367.53
1032.536	361.59
1035.817	353.82
1039.098	350.64
1042.379	344.35
1045.659	340.66
1048.939	331.44
1052.219	324.73
1055.498	321.03
1058.778	313.99
1062.057	307.19
1065.335	304.84
1068.614	300.74
1071.892	298.29
1075.17	289.37
1078.447	282.93
1081.724	281.04
1085.001	279.92
1088.278	274.21
1091.554	268.82
1094.83	269.22
1098.106	267.19
1101.382	265.16
1104.657	264.54
1107.932	260.35
1111.206	260.93
1114.481	255.3
1117.755	253.02
1121.029	251.32
1124.302	251.12
1127.575	246.76
1130.848	244.13
1134.121	241.96
1137.393	240.02
1140.665	234.22
1143.937	233.25
1147.208	233.09
1150.48	232.29
1153.75	229.48
1157.021	225.94
1160.291	225.95
1163.561	223.45
1166.831	223.36
1170.101	221.83
1173.37	221.64
1176.639	222.38
1179.907	220.52
1183.176	217.36
1186.444	217.75
1189.711	217.24
1192.979	217.26
1196.246	215.83
1199.513	217.11
1202.78	216.11
1206.046	215.6
1209.312	213.43
1212.578	213.59
1215.843	214.66
1219.108	213.92
1222.373	217.68
1225.638	219.09
1228.902	221.39
1232.166	221.78
1235.43	222.75
1238.693	225.75
1241.956	226.92
1245.219	230.1
1248.482	230.28
1251.744	230.57
1255.006	231.47
1258.268	225.62
1261.529	224.09
1264.79	222.75
1268.051	221.39
1271.312	219.53
1274.572	216.58
1277.832	214.58
1281.092	211.64
1284.351	210.38
1287.61	210.75
1290.869	207.01
1294.128	206.94
1297.386	206.31
1300.644	204.5
1303.902	204.7
1307.159	203.76
1310.416	203.69
1313.673	203.23
1316.93	205.34
1320.186	205
1323.442	205.49
1326.697	208.58
1329.953	208.97
1333.208	210.37
1336.463	212.62
1339.717	213.23
1342.972	214.97
1346.226	216.63
1349.479	217.79
1352.733	218.63
1355.986	219.37
1359.238	218.56
1362.491	219.36
1365.743	221.03
1368.995	220.78
1372.247	221.12
1375.498	220.75
1378.749	222.7
1382	219.74
1385.251	219.7
1388.501	217.44
1391.751	218.1
1395	217.05
1398.25	216
1401.499	214.12
1404.748	213.3
1407.996	209.77
1411.244	209.39
1414.492	207.15
1417.74	205.18
1420.987	202.99
1424.234	202.42
1427.481	198.83
1430.728	199.45
1433.974	197.05
1437.22	195
1440.465	194.85
1443.711	192.92
1446.956	191.5
1450.201	189.71
1453.445	188.04
1456.689	186.84
1459.933	184.16
1463.177	184
1466.42	180.09
1469.663	178.14
1472.906	177.31
1476.148	172.89
1479.391	171.4
1482.633	170.02
1485.874	167.63
1489.115	166.11
1492.356	164.55
1495.597	164.38
1498.838	161.56
1502.078	161.3
1505.318	161.17
1508.557	161.38
1511.797	160.85
1515.036	159.96
1518.274	159.33
1521.513	158.45
1524.751	158.17
1527.989	157.76
1531.227	157.15
1534.464	157.45
1537.701	156.18
1540.938	155.7
1544.174	153.65
1547.41	154.17
1550.646	153.06
1553.882	153.41
1557.117	151.95
1560.352	151.32
1563.587	151.3
1566.821	150.42
1570.055	149.4
1573.289	148.36
1576.523	147.97
1579.756	147.13
1582.989	146.4
1586.222	146.49
1589.454	145.38
1592.686	146.15
1595.918	145.75
1599.15	145.07
1602.381	145.5
1605.612	145.47
1608.843	146
1612.073	146.14
1615.303	147.02
1618.533	146.93
1621.762	147.24
1624.992	147.79
1628.221	147.56
1631.449	147.58
1634.678	147.74
1637.906	148.32
1641.134	148.71
1644.361	148.53
1647.588	148.64
1650.815	148.27
1654.042	147.66
1657.269	148.24
1660.495	148.32
1663.72	148.07
1666.946	148.48
1670.171	148.66
1673.396	148.25
1676.621	147.9
1679.845	148.39
1683.069	148.4
1686.293	149.35
1689.517	150.55
1692.74	150.49
1695.963	150.19
1699.185	151.43
1702.408	151.5
1705.63	151.86
1708.852	152.88
1712.073	152.56
1715.294	153.18
1718.515	154.15
1721.736	153.72
1724.956	153.37
1728.176	153.47
1731.396	154.86
1734.616	154.65
1737.835	155.33
1741.054	153.87
1744.272	154.14
1747.491	155.81
1750.709	155.79
1753.927	155.54
1757.144	155.19
1760.361	155.76
1763.578	156.57
1766.795	156.02
1770.011	156.87
1773.227	156.7
1776.443	158.82
1779.658	158.71
1782.874	158.67
1786.089	159.14
1789.303	159.54
1792.518	161.41
1795.732	161.64
1798.945	161.93
1802.159	162.67
1805.372	162.64
1808.585	165.41
1811.797	166.09
1815.01	166.43
1818.222	167.58
1821.434	169.1
1824.645	169.52
1827.856	172.39
1831.067	173.4
1834.278	172.67
1837.488	174.21
1840.698	175.41
1843.908	173.64
1847.117	174.36
1850.326	175.28
1853.535	174.32
1856.744	175.96
1859.952	175.65
1863.16	173.63
1866.368	172.83
1869.575	174.4
1872.782	171.19
1875.989	169.88
1879.196	168.94
1882.402	167.11
1885.608	167.34
1888.814	167.26
1892.019	165.69
1895.224	165.06
1898.429	164.14
1901.634	164.05
1904.838	163.83
1908.042	165.31
1911.246	164.85
1914.449	165.89
1917.652	165.37
1920.855	164.36
1924.058	164.26
1927.26	163.67
1930.462	164.08
1933.664	166.1
1936.865	164.47
1940.066	164.29
1943.267	162.67
1946.467	163.13
1949.668	164.23
1952.868	166.54
1956.067	167.17
1959.267	167.62
1962.466	168.14
1965.665	166.97
1968.863	167.51
1972.061	170.53
1975.259	171.22
1978.457	173.19
1981.654	175.38
1984.852	175.25
1988.048	174.82
1991.245	176.14
1994.441	178.08
1997.637	179.69
2000.833	184.06
2004.028	185.55
2007.223	186.61
2010.418	189.42
2013.613	192.28
2016.807	194.02
2020.001	195.88
2023.194	200.39
2026.388	204.36
2029.581	208.69
2032.774	210.56
2035.966	213.37
2039.158	214.26
2042.35	217.86
2045.542	219.75
2048.733	222.44
2051.924	226.51
2055.115	229.44
2058.306	228.33
2061.496	230.95
2064.686	231.47
2067.875	234.67
2071.065	236.68
2074.254	235.5
2077.442	239.13
2080.631	239.39
2083.819	242.95
2087.007	242.12
2090.195	245.34
2093.382	248.31
2096.569	247.52
2099.756	251.17
2102.942	252.81
2106.128	254.56
2109.314	260.36
2112.5	258.79
2115.685	265.32
2118.87	265.08
2122.055	271.59
2125.239	273.09
2128.424	276.03
2131.608	277.12
2134.791	281.43
2137.974	282.12
2141.157	283.58
2144.34	284.09
2147.523	289.13
2150.705	287.01
2153.887	290.58
2157.068	289.76
2160.25	288.02
2163.431	289.52
2166.611	293.41
2169.792	296.97
2172.972	300.72
2176.152	301.44
2179.331	305.98
2182.511	309.52
2185.69	312.86
2188.868	319.43
2192.047	320.6
2195.225	331.06
2198.403	336.37
2201.58	343.98
2204.758	350.15
2207.935	356.42
2211.111	364.72
2214.288	368.34
2217.464	369.45
2220.64	376.32
2223.815	378.81
2226.991	393.49
2230.166	392.59
2233.34	401.37
2236.515	406.33
2239.689	407.26
2242.863	411.41
2246.036	420.98
2249.209	418.81
2252.382	426.35
2255.555	437.71
2258.727	439.9
2261.9	442.91
2265.071	447.89
2268.243	454.88
2271.414	459.83
2274.585	470.4
2277.756	472.5
2280.926	477.61
2284.096	488.84
2287.266	497.67
2290.436	500.08
2293.605	513.3
2296.774	528.8
2299.942	542.2
2303.111	547.34
2306.279	558.43
2309.447	565.28
2312.614	580.99
2315.781	596.43
2318.948	619.55
2322.115	613.39
2325.281	649.56
2328.447	632.38
2331.613	653.4
2334.779	650.56
2337.944	678.64
2341.109	685.96
2344.274	706.61
2347.438	727.42
2350.602	727.15
2353.766	753.82
2356.929	765.15
2360.092	757.35
2363.255	814.36
2366.418	817.88
2369.58	832.28
2372.742	875.49
2375.904	900.41
2379.066	893.08
2382.227	881.93
2385.388	956.22
2388.548	955.22
2391.709	967.3
2394.869	1075.41
2398.029	1031.54
2401.188	1056.8
2404.347	1051.01
2407.506	1040.37
2410.665	1063.73
2413.823	1130.26
2416.981	1194.22
2420.139	1156.32
2423.296	1145.87
2426.453	1193.56
2429.61	1152.28
2432.767	1201.95
2435.923	1191.45
2439.079	1300.03
2442.235	1318.53
2445.391	1312.77
2448.546	1296.97
2451.701	1267.9
2454.855	1267.54
2458.009	1332.48
2461.163	1390.89
2464.317	1440.26
2467.471	1474.21
2470.624	1480.09
2473.777	1442.5
2476.929	1400.99
2480.082	1361.85
2483.234	1351.62
2486.385	1412.54
2489.537	1416.78
2492.688	1479.18
2495.839	1434.26
2498.989	1401.87
2502.14	1411.84
2505.29	1421.37
2508.439	1442.5
2511.589	1440.34
2514.738	1567.09
2517.887	1529.18
2521.035	1610.61
2524.183	1622.1
2527.331	1631.51
2530.479	1622.7
2533.627	1632.28
