Data from C_1_DEC_VA_2N_Splice17_12-41-55-816.txt Node
Date: Sat Mar 07 12:41:55 EST 2020
User: sa697716
Spectrometer: NQ5500242
Trigger mode: 0
Integration Time (sec): 1.450000E-1
Scans to average: 20
Nonlinearity correction enabled: false
Boxcar width: 5
Storing dark spectrum: false
XAxis mode: Wavelengths
Number of Pixels in Spectrum: 512
>>>>>Begin Spectral Data<<<<<
187.83	164.77
188.298	164.86
188.766	133.87
189.233	105.91
189.701	97.02
190.169	127.18
190.636	114.94
191.104	97.4
191.571	-35.09
192.039	-42.12
192.506	-416.63
192.974	171.22
193.441	113.26
193.908	-31.84
194.375	-18.28
194.842	-79.97
195.31	-14.43
195.777	-238.42
196.244	9.8
196.711	33.48
197.177	38.23
197.644	38.87
198.111	39.08
198.578	39.78
199.045	40.41
199.511	40.18
199.978	40.18
200.445	40.08
200.911	40.28
201.378	40.53
201.844	40.21
202.31	40.08
202.777	40.35
203.243	40.36
203.709	40.11
204.176	39.64
204.642	39.63
205.108	39.72
205.574	39.89
206.04	39.54
206.506	39.15
206.972	39.34
207.438	38.87
207.903	38.28
208.369	37.69
208.835	37.16
209.301	36.66
209.766	35.33
210.232	34.26
210.697	33.18
211.163	32.52
211.628	32.08
212.094	31.11
212.559	30.57
213.024	29.87
213.49	29.1
213.955	28.41
214.42	27.79
214.885	27.3
215.35	26.42
215.815	25.21
216.28	23.68
216.745	22.05
217.21	20.56
217.675	19.01
218.14	17.82
218.604	16.73
219.069	15.83
219.534	15.04
219.998	14.41
220.463	13.89
220.927	13.4
221.392	13
221.856	12.64
222.32	12.34
222.785	12.12
223.249	11.87
223.713	11.65
224.177	11.48
224.642	11.28
225.106	11.07
225.57	10.87
226.034	10.73
226.497	10.59
226.961	10.42
227.425	10.27
227.889	10.12
228.353	9.99
228.816	9.84
229.28	9.7
229.744	9.57
230.207	9.46
230.671	9.33
231.134	9.21
231.597	9.09
232.061	8.99
232.524	8.9
232.987	8.79
233.45	8.69
233.914	8.59
234.377	8.48
234.84	8.39
235.303	8.3
235.766	8.22
236.229	8.14
236.691	8.05
237.154	7.97
237.617	7.88
238.08	7.79
238.542	7.7
239.005	7.65
239.468	7.57
239.93	7.5
240.393	7.43
240.855	7.34
241.317	7.26
241.78	7.2
242.242	7.12
242.704	7.06
243.166	7.01
243.629	6.95
244.091	6.87
244.553	6.81
245.015	6.75
245.477	6.68
245.939	6.63
246.4	6.57
246.862	6.51
247.324	6.47
247.786	6.41
248.247	6.35
248.709	6.28
249.17	6.23
249.632	6.19
250.093	6.15
250.555	6.1
251.016	6.05
251.477	6
251.939	5.96
252.4	5.92
252.861	5.88
253.322	5.84
253.783	5.81
254.244	5.77
254.705	5.73
255.166	5.7
255.627	5.66
256.088	5.64
256.549	5.62
257.009	5.58
257.47	5.54
257.931	5.5
258.391	5.47
258.852	5.43
259.312	5.4
259.773	5.36
260.233	5.34
260.694	5.31
261.154	5.27
261.614	5.24
262.074	5.21
262.534	5.18
262.994	5.16
263.455	5.13
263.915	5.11
264.374	5.09
264.834	5.07
265.294	5.05
265.754	5.03
266.214	5.02
266.673	5
267.133	4.98
267.593	4.97
268.052	4.95
268.512	4.94
268.971	4.93
269.431	4.91
269.89	4.89
270.349	4.88
270.809	4.86
271.268	4.84
271.727	4.83
272.186	4.82
272.645	4.81
273.104	4.81
273.563	4.79
274.022	4.78
274.481	4.77
274.94	4.77
275.399	4.75
275.857	4.74
276.316	4.73
276.775	4.71
277.233	4.7
277.692	4.69
278.15	4.67
278.609	4.67
279.067	4.66
279.525	4.65
279.984	4.63
280.442	4.62
280.9	4.61
281.358	4.6
281.816	4.6
282.274	4.59
282.732	4.58
283.19	4.57
283.648	4.55
284.106	4.54
284.564	4.53
285.021	4.52
285.479	4.52
285.937	4.51
286.394	4.49
286.852	4.47
287.309	4.47
287.767	4.45
288.224	4.43
288.682	4.41
289.139	4.39
289.596	4.37
290.053	4.36
290.511	4.33
290.968	4.32
291.425	4.3
291.882	4.28
292.339	4.26
292.796	4.25
293.252	4.24
293.709	4.23
294.166	4.23
294.623	4.21
295.079	4.2
295.536	4.19
295.992	4.18
296.449	4.18
296.905	4.17
297.362	4.17
297.818	4.16
298.274	4.16
298.731	4.15
299.187	4.13
299.643	4.12
300.099	4.12
300.555	4.11
301.011	4.1
301.467	4.09
301.923	4.08
302.379	4.07
302.835	4.06
303.291	4.05
303.746	4.04
304.202	4.04
304.658	4.03
305.113	4.03
305.569	4.03
306.024	4.02
306.479	4.01
306.935	4
307.39	4
307.845	4
308.301	4
308.756	3.99
309.211	3.99
309.666	4
310.121	3.99
310.576	3.98
311.031	3.97
311.486	3.98
311.94	3.99
312.395	3.98
312.85	3.98
313.305	3.97
313.759	3.96
314.214	3.96
314.668	3.94
315.123	3.94
315.577	3.93
316.032	3.93
316.486	3.92
316.94	3.91
317.394	3.9
317.849	3.88
318.303	3.87
318.757	3.86
319.211	3.86
319.665	3.85
320.119	3.83
320.572	3.82
321.026	3.81
321.48	3.79
321.934	3.78
322.387	3.78
322.841	3.77
323.295	3.77
323.748	3.76
324.202	3.75
324.655	3.75
325.108	3.75
325.562	3.76
326.015	3.75
326.468	3.75
326.921	3.75
327.374	3.75
327.827	3.75
328.28	3.74
328.733	3.74
329.186	3.73
329.639	3.73
330.092	3.72
330.545	3.71
330.997	3.71
331.45	3.71
331.903	3.71
332.355	3.71
332.808	3.71
333.26	3.7
333.713	3.7
334.165	3.7
334.617	3.7
335.069	3.7
335.522	3.7
335.974	3.7
336.426	3.69
336.878	3.69
337.33	3.68
337.782	3.68
338.234	3.69
338.686	3.68
339.137	3.68
339.589	3.66
340.041	3.67
340.493	3.66
340.944	3.64
341.396	3.64
341.847	3.63
342.299	3.6
342.75	3.6
343.201	3.58
343.653	3.57
344.104	3.56
344.555	3.55
345.006	3.53
345.457	3.52
345.908	3.51
346.359	3.51
346.81	3.5
347.261	3.5
347.712	3.48
348.163	3.48
348.613	3.48
349.064	3.48
349.515	3.48
349.965	3.49
350.416	3.48
350.866	3.48
351.317	3.47
351.767	3.48
352.217	3.48
352.668	3.48
353.118	3.48
353.568	3.47
354.018	3.48
354.468	3.48
354.918	3.48
355.368	3.49
355.818	3.5
356.268	3.5
356.718	3.5
357.168	3.49
357.617	3.48
358.067	3.47
358.517	3.48
358.966	3.47
359.416	3.46
359.865	3.46
360.315	3.46
360.764	3.47
361.213	3.46
361.663	3.46
362.112	3.46
362.561	3.48
363.01	3.48
363.459	3.46
363.908	3.45
364.357	3.46
364.806	3.45
365.255	3.45
365.703	3.44
366.152	3.45
366.601	3.45
367.05	3.45
367.498	3.45
367.947	3.45
368.395	3.47
368.844	3.48
369.292	3.48
369.74	3.49
370.189	3.49
370.637	3.49
371.085	3.48
371.533	3.48
371.981	3.48
372.429	3.48
372.877	3.49
373.325	3.48
373.773	3.48
374.221	3.47
374.669	3.47
375.116	3.47
375.564	3.48
376.012	3.5
376.459	3.5
376.907	3.52
377.354	3.53
377.801	3.54
378.249	3.55
378.696	3.56
379.143	3.58
379.591	3.59
380.038	3.61
380.485	3.62
380.932	3.64
381.379	3.66
381.826	3.67
382.273	3.69
382.72	3.7
383.166	3.72
383.613	3.74
384.06	3.76
384.506	3.77
384.953	3.8
385.4	3.82
385.846	3.85
386.292	3.87
386.739	3.88
387.185	3.9
387.631	3.93
388.078	3.95
388.524	3.98
388.97	4.01
389.416	4.04
389.862	4.07
390.308	4.1
390.754	4.13
391.2	4.16
391.645	4.2
392.091	4.25
392.537	4.29
392.983	4.32
393.428	4.35
393.874	4.39
394.319	4.42
394.765	4.45
395.21	4.47
395.655	4.49
396.101	4.53
396.546	4.56
396.991	4.58
397.436	4.61
397.881	4.66
398.326	4.69
398.771	4.71
399.216	4.73
399.661	4.77
400.106	4.79
400.551	4.81
400.995	4.81
401.44	4.83
401.885	4.83
402.329	4.84
402.774	4.84
403.218	4.86
403.663	4.88
404.107	4.89
404.551	4.89
404.995	4.9
405.44	4.89
405.884	4.9
406.328	4.91
406.772	4.91
407.216	4.92
407.66	4.93
408.104	4.92
408.547	4.92
408.991	4.92
409.435	4.92
409.879	4.94
410.322	4.95
410.766	4.96
411.209	4.98
411.653	5
412.096	5.01
412.54	5.02
412.983	5.02
413.426	5.05
413.869	5.05
414.312	5.07
414.756	5.09
415.199	5.09
415.642	5.09
416.085	5.08
416.527	5.08
416.97	5.06
417.413	5.05
417.856	5.04
418.298	5.03
418.741	5.04
419.184	5.02
419.626	5.01
420.069	5.01
420.511	5.02
420.953	5.03
421.396	5.04
421.838	5.04
422.28	5.05
422.722	5.07
423.164	5.07
423.606	5.06
424.048	5.06
424.49	5.05
424.932	5.04
425.374	5.01
425.816	4.97
426.258	4.95
426.699	4.93
427.141	4.91
427.582	4.9
428.024	4.92
428.465	4.92
428.907	4.9
429.348	4.88
429.789	4.89
430.231	4.91
430.672	4.92
431.113	4.95
431.554	4.96
431.995	4.98
432.436	4.98
432.877	4.96
433.318	4.98
433.759	5.02
434.2	5.04
434.64	5.06
435.081	5.07
435.522	5.09
435.962	5.09
436.403	5.13
436.843	5.13
437.284	5.14
437.724	5.16
438.164	5.15
438.604	5.16
439.045	5.19
439.485	5.2
439.925	5.21
440.365	5.22
440.805	5.22
441.245	5.22
441.685	5.24
442.125	5.29
442.564	5.3
443.004	5.34
443.444	5.35
443.883	5.36
444.323	5.38
444.762	5.42
445.202	5.45
445.641	5.49
446.081	5.54
446.52	5.56
446.959	5.6
447.398	5.64
447.837	5.67
448.276	5.7
448.716	5.72
449.154	5.76
449.593	5.79
450.032	5.81
450.471	5.83
450.91	5.83
451.349	5.86
451.787	5.85
452.226	5.86
452.664	5.87
453.103	5.88
453.541	5.89
453.98	5.9
454.418	5.89
454.856	5.89
455.295	5.89
455.733	5.88
456.171	5.87
456.609	5.87
457.047	5.86
457.485	5.85
457.923	5.85
458.361	5.84
458.798	5.84
459.236	5.84
459.674	5.83
460.111	5.83
460.549	5.83
460.987	5.84
461.424	5.84
461.862	5.85
462.299	5.86
462.736	5.86
463.173	5.86
463.611	5.86
464.048	5.86
464.485	5.86
464.922	5.86
465.359	5.87
465.796	5.86
466.233	5.86
466.67	5.86
467.106	5.86
467.543	5.86
467.98	5.86
468.416	5.85
468.853	5.87
469.29	5.87
469.726	5.89
470.162	5.89
470.599	5.89
471.035	5.89
471.471	5.89
471.907	5.88
472.344	5.9
472.78	5.9
473.216	5.9
473.652	5.9
474.088	5.89
474.523	5.89
474.959	5.89
475.395	5.89
475.831	5.89
476.266	5.91
476.702	5.91
477.138	5.9
477.573	5.89
478.008	5.9
478.444	5.89
478.879	5.9
479.314	5.89
479.75	5.87
480.185	5.88
480.62	5.88
481.055	5.87
481.49	5.87
481.925	5.88
482.36	5.87
482.795	5.88
483.229	5.89
483.664	5.89
484.099	5.9
484.534	5.91
484.968	5.93
485.403	5.93
485.837	5.96
486.271	5.98
486.706	6.01
487.14	6.04
487.574	6.06
488.009	6.1
488.443	6.14
488.877	6.19
489.311	6.23
489.745	6.27
490.179	6.33
490.613	6.38
491.046	6.44
491.48	6.5
491.914	6.56
492.348	6.64
492.781	6.71
493.215	6.78
493.648	6.87
494.082	6.95
494.515	7.04
494.948	7.13
495.382	7.22
495.815	7.32
496.248	7.43
496.681	7.53
497.114	7.65
497.547	7.77
497.98	7.89
498.413	8.02
498.846	8.16
499.279	8.3
499.711	8.45
500.144	8.61
500.577	8.78
501.009	8.95
501.442	9.13
501.874	9.32
502.306	9.51
502.739	9.71
503.171	9.91
503.603	10.14
504.036	10.36
504.468	10.58
504.9	10.81
505.332	11.05
505.764	11.3
506.196	11.56
506.627	11.83
507.059	12.11
507.491	12.39
507.923	12.69
508.354	12.99
508.786	13.31
509.217	13.64
509.649	13.97
510.08	14.29
510.512	14.64
510.943	14.98
511.374	15.31
511.805	15.66
512.237	16.02
512.668	16.38
513.099	16.73
513.53	17.08
513.961	17.45
514.391	17.83
514.822	18.22
515.253	18.59
515.684	18.96
516.114	19.35
516.545	19.73
516.975	20.13
517.406	20.52
517.836	20.91
518.267	21.3
518.697	21.66
519.127	22.01
519.558	22.37
519.988	22.73
520.418	23.08
520.848	23.42
521.278	23.76
521.708	24.21
522.138	24.54
522.567	24.85
522.997	25.16
523.427	25.48
523.857	25.78
524.286	26.08
524.716	26.36
525.145	26.64
525.575	26.91
526.004	27.16
526.433	27.3
526.863	27.52
527.292	27.75
527.721	27.96
528.15	28.15
528.579	28.33
529.008	28.52
529.437	28.69
529.866	28.86
530.295	28.99
530.724	29.14
531.152	29.28
531.581	29.4
532.01	29.53
532.438	29.66
532.867	29.78
533.295	29.88
533.723	29.98
534.152	30.08
534.58	30.16
535.008	30.25
535.436	30.34
535.865	30.4
536.293	30.47
536.721	30.54
537.149	30.58
537.576	30.63
538.004	30.71
538.432	30.76
538.86	30.8
539.287	30.85
539.715	30.9
540.143	30.93
540.57	30.99
540.998	31.02
541.425	31.05
541.852	31.09
542.28	31.14
542.707	31.18
543.134	31.2
543.561	31.25
543.988	31.29
544.415	31.32
544.842	31.35
545.269	31.36
545.696	31.39
546.123	31.42
546.549	31.45
546.976	31.46
547.403	31.49
547.829	31.5
548.256	31.5
548.682	31.5
549.108	31.52
549.535	31.55
549.961	31.54
550.387	31.54
550.813	31.54
551.24	31.52
551.666	31.5
552.092	31.48
552.518	31.46
552.943	31.45
553.369	31.42
553.795	31.37
554.221	31.32
554.646	31.28
555.072	31.25
555.498	31.19
555.923	31.15
556.349	31.07
556.774	31.02
557.199	30.95
557.625	30.86
558.05	30.78
558.475	30.7
558.9	30.61
559.325	30.53
559.75	30.42
560.175	30.33
560.6	30.21
561.025	30.11
561.449	29.97
561.874	29.84
562.299	29.71
562.723	29.57
563.148	29.44
563.572	29.27
563.997	29.09
564.421	28.93
564.846	28.75
565.27	28.6
565.694	28.42
566.118	28.26
566.542	28.08
566.966	27.91
567.39	27.72
567.814	27.54
568.238	27.37
568.662	27.2
569.086	27.03
569.509	26.85
569.933	26.69
570.357	26.51
570.78	26.34
571.204	26.16
571.627	26.01
572.05	25.85
572.474	25.7
572.897	25.55
573.32	25.39
573.743	25.24
574.166	25.09
574.589	24.95
575.012	24.79
575.435	24.65
575.858	24.5
576.281	24.35
576.704	24.2
577.126	24.07
577.549	23.93
577.972	23.8
578.394	23.66
578.817	23.55
579.239	23.42
579.661	23.3
580.084	23.18
580.506	23.08
580.928	22.98
581.35	22.88
581.772	22.76
582.194	22.65
582.616	22.56
583.038	22.45
583.46	22.32
583.882	22.21
584.303	22.12
584.725	22.02
585.147	21.91
585.568	21.83
585.99	21.73
586.411	21.65
586.833	21.57
587.254	21.47
587.675	21.4
588.096	21.34
588.518	21.26
588.939	21.19
589.36	21.13
589.781	21.07
590.202	20.99
590.623	20.92
591.043	20.85
591.464	20.79
591.885	20.73
592.305	20.69
592.726	20.65
593.147	20.6
593.567	20.53
593.987	20.48
594.408	20.43
594.828	20.39
595.248	20.38
595.669	20.36
596.089	20.32
596.509	20.28
596.929	20.25
597.349	20.2
597.769	20.16
598.189	20.13
598.608	20.09
599.028	20.05
599.448	20
599.867	19.94
600.287	19.87
600.706	19.82
601.126	19.77
601.545	19.7
601.965	19.64
602.384	19.59
602.803	19.52
603.222	19.46
603.641	19.38
604.061	19.32
604.48	19.24
604.898	19.17
605.317	19.08
605.736	18.99
606.155	18.91
606.574	18.82
606.992	18.72
607.411	18.63
607.829	18.51
608.248	18.4
608.666	18.3
609.085	18.21
609.503	18.12
609.921	18.02
610.339	17.94
610.758	17.84
611.176	17.72
611.594	17.63
612.012	17.53
612.43	17.45
612.847	17.37
613.265	17.27
613.683	17.17
614.101	17.07
614.518	16.98
614.936	16.88
615.353	16.79
615.771	16.71
616.188	16.62
616.606	16.54
617.023	16.47
617.44	16.4
617.857	16.33
618.274	16.25
618.691	16.18
619.108	16.11
619.525	16.06
619.942	16.01
620.359	15.95
620.776	15.91
621.192	15.86
621.609	15.81
622.026	15.77
622.442	15.74
622.859	15.71
623.275	15.68
623.691	15.66
624.108	15.63
624.524	15.6
624.94	15.58
625.356	15.56
625.772	15.55
626.188	15.53
626.604	15.51
627.02	15.49
627.436	15.47
627.852	15.47
628.268	15.45
628.683	15.44
629.099	15.42
629.514	15.4
629.93	15.37
630.345	15.33
630.761	15.29
631.176	15.24
631.591	15.19
632.007	15.12
632.422	15.05
632.837	14.98
633.252	14.88
633.667	14.78
634.082	14.68
634.497	14.57
634.911	14.45
635.326	14.33
635.741	14.21
636.155	14.07
636.57	13.93
636.984	13.78
637.399	13.63
637.813	13.48
638.228	13.32
638.642	13.15
639.056	12.98
639.47	12.82
639.884	12.65
640.298	12.47
640.712	12.3
641.126	12.12
641.54	11.93
641.954	11.75
642.368	11.59
642.781	11.43
643.195	11.27
643.609	11.11
644.022	10.95
644.436	10.81
644.849	10.66
645.262	10.54
645.676	10.41
646.089	10.29
646.502	10.17
646.915	10.07
647.328	9.97
647.741	9.87
648.154	9.78
648.567	9.7
648.98	9.63
649.393	9.56
649.805	9.5
650.218	9.44
650.631	9.4
651.043	9.34
651.456	9.28
651.868	9.22
652.28	9.16
652.693	9.11
653.105	9.05
653.517	8.98
653.929	8.92
654.341	8.84
654.753	8.76
655.165	8.68
655.577	8.59
655.989	8.5
656.401	8.41
656.813	8.32
657.224	8.21
657.636	8.09
658.047	7.99
658.459	7.87
658.87	7.76
659.282	7.63
659.693	7.52
660.104	7.4
660.515	7.29
660.926	7.17
661.338	7.05
661.749	6.95
662.159	6.85
662.57	6.75
662.981	6.65
663.392	6.55
663.803	6.47
664.213	6.38
664.624	6.31
665.035	6.23
665.445	6.15
665.855	6.1
666.266	6.04
666.676	5.99
667.086	5.92
667.497	5.87
667.907	5.84
668.317	5.81
668.727	5.78
669.137	5.76
669.547	5.75
669.956	5.73
670.366	5.71
670.776	5.7
671.186	5.7
671.595	5.69
672.005	5.68
672.414	5.69
672.824	5.68
673.233	5.68
673.642	5.69
674.052	5.7
674.461	5.72
674.87	5.73
675.279	5.77
675.688	5.8
676.097	5.84
676.506	5.88
676.915	5.92
677.323	5.97
677.732	6.02
678.141	6.08
678.549	6.15
678.958	6.23
679.366	6.32
679.775	6.39
680.183	6.48
680.592	6.59
681	6.72
681.408	6.85
681.816	7
682.224	7.17
682.632	7.36
683.04	7.56
683.448	7.79
683.856	8.02
684.264	8.3
684.671	8.61
685.079	8.93
685.487	9.3
685.894	9.69
686.302	10.11
686.709	10.56
687.116	11.04
687.524	11.55
687.931	12.09
688.338	12.67
688.745	13.28
689.152	13.89
689.559	14.55
689.966	15.22
690.373	15.91
690.78	16.62
691.187	17.34
691.593	18.07
692	18.81
692.407	19.54
692.813	20.29
693.22	21.04
693.626	21.8
694.032	22.56
694.439	23.33
694.845	24.07
695.251	24.82
695.657	25.54
696.063	26.28
696.469	27.01
696.875	27.73
697.281	28.43
697.687	29.13
698.093	29.8
698.498	30.46
698.904	31.1
699.31	31.73
699.715	32.35
700.12	32.97
700.526	33.55
700.931	34.13
701.337	34.68
701.742	35.21
702.147	35.74
702.552	36.27
702.957	36.76
703.362	37.25
703.767	37.7
704.172	38.15
704.577	38.6
704.981	39.04
705.386	39.46
705.791	39.89
706.195	40.31
706.6	40.72
707.004	41.09
707.408	41.47
707.813	41.86
708.217	42.26
708.621	42.66
709.025	43.01
709.43	43.36
709.834	43.73
710.237	44.06
710.641	44.39
711.045	44.71
711.449	45.05
711.853	45.37
712.256	45.65
712.66	45.94
713.064	46.19
713.467	46.49
713.87	46.75
714.274	47
714.677	47.27
715.08	47.51
715.484	47.75
715.887	47.97
716.29	48.21
716.693	48.45
717.096	48.69
717.499	48.93
717.901	49.14
718.304	49.38
718.707	49.59
719.109	49.82
719.512	50.03
719.915	50.24
720.317	50.43
720.719	50.6
721.122	50.78
721.524	50.96
721.926	51.11
722.328	51.28
722.731	51.42
723.133	51.59
723.535	51.73
723.937	51.88
724.338	52.04
724.74	52.19
725.142	52.38
725.544	52.48
725.945	52.6
726.347	52.73
726.748	52.84
727.15	52.96
727.551	53.06
727.952	53.13
728.354	53.23
728.755	53.3
729.156	53.37
729.557	53.41
729.958	53.51
730.359	53.59
730.76	53.68
731.161	53.76
731.562	53.87
731.962	53.91
732.363	54.01
732.763	54.07
733.164	54.13
733.564	54.22
733.965	54.28
734.365	54.37
734.766	54.44
735.166	54.48
735.566	54.51
735.966	54.52
736.366	54.57
736.766	54.6
737.166	54.66
737.566	54.69
737.966	54.7
738.365	54.73
738.765	54.76
739.165	54.78
739.564	54.85
739.964	54.88
740.363	54.91
740.763	54.95
741.162	54.98
741.561	54.97
741.96	55.01
742.36	55.04
742.759	55.04
743.158	55.05
743.557	55.05
743.955	55.04
744.354	55.08
744.753	55.1
745.152	55.15
745.55	55.18
745.949	55.2
746.348	55.24
746.746	55.24
747.144	55.28
747.543	55.31
747.941	55.35
748.339	55.37
748.737	55.37
749.136	55.37
749.534	55.35
749.932	55.37
750.33	55.36
750.727	55.36
751.125	55.37
751.523	55.35
751.921	55.35
752.318	55.36
752.716	55.37
753.113	55.38
753.511	55.38
753.908	55.4
754.305	55.37
754.703	55.37
755.1	55.33
755.497	55.34
755.894	55.34
756.291	55.33
756.688	55.3
757.085	55.27
757.482	55.26
757.878	55.24
758.275	55.24
758.672	55.25
759.068	55.28
759.465	55.29
759.861	55.29
760.258	55.31
760.654	55.32
761.05	55.32
761.447	55.32
761.843	55.3
762.239	55.31
762.635	55.27
763.031	55.26
763.427	55.23
763.822	55.22
764.218	55.21
764.614	55.2
765.01	55.19
765.405	55.18
765.801	55.16
766.196	55.2
766.592	55.19
766.987	55.19
767.382	55.16
767.778	55.16
768.173	55.16
768.568	55.13
768.963	55.12
769.358	55.14
769.753	55.17
770.148	55.18
770.542	55.15
770.937	55.16
771.332	55.15
771.726	55.18
772.121	55.16
772.515	55.18
772.91	55.2
773.304	55.19
773.699	55.14
774.093	55.1
774.487	55.1
774.881	55.11
775.275	55.08
775.669	55.09
776.063	55.08
776.457	55.09
776.851	55.05
777.245	55.01
777.638	54.99
778.032	54.99
778.425	55.04
778.819	55.02
779.212	55.03
779.606	55.04
779.999	55.07
780.392	55.1
780.786	55.09
781.179	55.12
781.572	55.18
781.965	55.2
782.358	55.24
782.751	55.22
783.143	55.22
783.536	55.2
783.929	55.21
784.322	55.2
784.714	55.16
785.107	55.17
785.499	55.15
785.891	55.15
786.284	55.18
786.676	55.14
787.068	55.14
787.46	55.16
787.852	55.17
788.245	55.17
788.636	55.15
789.028	55.18
789.42	55.19
789.812	55.21
790.204	55.19
790.595	55.2
790.987	55.22
791.378	55.23
791.77	55.24
792.161	55.21
792.553	55.21
792.944	55.21
793.335	55.21
793.726	55.19
794.117	55.17
794.508	55.18
794.899	55.16
795.29	55.14
795.681	55.1
796.072	55.06
796.463	55.06
796.853	55.03
797.244	55.03
797.634	54.97
798.025	54.98
798.415	54.98
798.806	54.95
799.196	54.95
799.586	54.96
799.976	54.99
800.366	55.01
800.756	55.05
801.146	55.09
801.536	55.1
801.926	55.14
802.316	55.15
802.706	55.15
803.095	55.15
803.485	55.16
803.874	55.14
804.264	55.15
804.653	55.17
805.043	55.14
805.432	55.13
805.821	55.14
806.21	55.13
806.599	55.11
806.988	55.13
807.377	55.12
807.766	55.12
808.155	55.12
808.544	55.13
808.933	55.12
809.321	55.12
809.71	55.1
810.098	55.07
810.487	55.03
810.875	55.04
811.264	55.02
811.652	55.04
812.04	55.03
812.428	55.08
812.816	55.06
813.204	55.05
813.592	55.04
813.98	55.04
814.368	55.08
814.756	55.14
815.144	55.14
815.531	55.1
815.919	55.09
816.306	55.11
816.694	55.07
817.081	55.06
817.469	55.08
817.856	55.05
818.243	55.06
818.63	55.02
819.017	55
819.404	54.97
819.791	55
820.178	55
820.565	54.97
820.952	54.94
821.339	54.94
821.725	54.95
822.112	54.98
822.498	54.98
822.885	55.03
823.271	55.01
823.657	55.03
824.044	55.02
824.43	55.04
824.816	55.04
825.202	55.04
825.588	55.06
825.974	55.04
826.36	55.01
826.746	55
827.132	54.99
827.517	55.01
827.903	55.03
828.289	55.03
828.674	55.03
829.06	55.03
829.445	55.02
829.83	54.99
830.216	55
830.601	55.03
830.986	55.04
831.371	55.01
831.756	55.03
832.141	55.02
832.526	55.01
832.911	55
833.295	55.01
833.68	55.04
834.065	55.07
834.449	55.05
834.834	55.03
835.218	55.04
835.603	55.06
835.987	55.04
836.371	55.03
836.755	55.03
837.139	55.02
837.524	55.04
837.908	55.05
838.291	55.07
838.675	55.06
839.059	55.07
839.443	55.06
839.827	55.04
840.21	55.05
840.594	55.07
840.977	55.08
841.361	55.08
841.744	55.04
842.127	55.02
842.511	54.98
842.894	54.99
843.277	54.96
843.66	54.93
844.043	54.95
844.426	54.92
844.809	54.88
845.191	54.91
845.574	54.91
845.957	54.94
846.339	54.94
846.722	54.94
847.104	54.98
847.487	55.02
847.869	55.02
848.252	55.04
848.634	55.06
849.016	55.09
849.398	55.08
849.78	55.07
850.162	55.08
850.544	55.09
850.926	55.11
851.307	55.08
851.689	55.08
852.071	55.1
852.452	55.1
852.834	55.12
853.215	55.11
853.597	55.14
853.978	55.13
854.359	55.13
854.741	55.13
855.122	55.12
855.503	55.12
855.884	55.1
856.265	55.08
856.646	55.07
857.026	55.07
857.407	55.07
857.788	55.04
858.169	55.06
858.549	55.04
858.93	55.02
859.31	55.03
859.69	55.05
860.071	55.08
860.451	55.07
860.831	55.08
861.211	55.05
861.591	55.04
861.971	55.03
862.351	55.04
862.731	55.06
863.111	55.06
863.491	55.05
863.87	55.02
864.25	55
864.629	55
865.009	54.98
865.388	54.98
865.768	55
866.147	55.02
866.526	55.02
866.905	55.02
867.284	55.02
867.663	55.02
868.042	55.04
868.421	55.06
868.8	55.07
869.179	55.09
869.558	55.08
869.936	55.07
870.315	55.03
870.693	55.01
871.072	55.03
871.45	55.04
871.828	55.04
872.207	55.01
872.585	54.98
872.963	54.98
873.341	54.97
873.719	54.98
874.097	54.98
874.475	55.01
874.853	55.03
875.23	55.05
875.608	55.04
875.986	55.06
876.363	55.07
876.741	55.08
877.118	55.11
877.495	55.13
877.873	55.15
878.25	55.15
878.627	55.15
879.004	55.15
879.381	55.14
879.758	55.13
880.135	55.11
880.512	55.11
880.889	55.12
881.265	55.11
881.642	55.11
882.019	55.1
882.395	55.09
882.772	55.06
883.148	55.03
883.524	55.02
883.901	55.02
884.277	55
884.653	54.99
885.029	54.95
885.405	54.92
885.781	54.89
886.157	54.87
886.532	54.89
886.908	54.9
887.284	54.91
887.659	54.87
888.035	54.88
888.411	54.89
888.786	54.91
889.161	54.94
889.537	54.97
889.912	54.99
890.287	55.02
890.662	55
891.037	55.02
891.412	55
891.787	55.01
892.162	55.02
892.536	55.02
892.911	54.99
893.286	55
893.66	55
894.035	54.97
894.409	54.95
894.784	54.96
895.158	54.92
895.532	54.94
895.906	54.93
896.281	54.93
896.655	54.91
897.029	54.93
897.402	54.91
897.776	54.9
898.15	54.91
898.524	54.92
898.898	54.91
899.271	54.93
899.645	54.95
900.018	54.98
900.392	54.99
900.765	55.03
901.138	55
901.511	55.03
901.884	55.01
902.258	55.03
902.631	55.04
903.003	55.08
903.376	55.09
903.749	55.07
904.122	55.07
904.495	55.05
904.867	55.05
905.24	55.1
905.612	55.1
905.985	55.08
906.357	55.07
906.729	55.07
907.102	55.05
907.474	55.05
907.846	55.05
908.218	55.04
908.59	55.06
908.962	55.07
909.334	55.05
909.705	55.02
910.077	55.04
910.449	55.05
910.82	55.02
911.192	55
911.563	54.97
911.935	54.93
912.306	54.94
912.677	54.92
913.048	54.95
913.419	54.92
913.79	54.95
914.161	54.96
914.532	54.93
914.903	54.93
915.274	54.92
915.645	54.94
916.015	54.98
916.386	54.94
916.756	54.93
917.127	54.89
917.497	54.92
917.868	54.89
918.238	54.86
918.608	54.9
918.978	54.93
919.348	54.94
919.718	54.94
920.088	54.93
920.458	54.98
920.828	54.96
921.198	54.95
921.567	54.92
921.937	54.94
922.306	54.97
922.676	54.94
923.045	54.92
923.415	54.88
923.784	54.89
924.153	54.89
924.522	54.87
924.891	54.89
925.26	54.9
925.629	54.9
925.998	54.88
926.367	54.87
926.736	54.89
927.104	54.91
927.473	54.88
927.842	54.81
928.21	54.8
928.578	54.77
928.947	54.74
929.315	54.71
929.683	54.69
930.051	54.63
930.42	54.62
930.788	54.54
931.156	54.5
931.523	54.5
931.891	54.55
932.259	54.53
932.627	54.54
932.994	54.53
933.362	54.5
933.729	54.5
934.097	54.54
934.464	54.58
934.831	54.58
935.199	54.58
935.566	54.55
935.933	54.46
936.3	54.44
936.667	54.39
937.034	54.4
937.401	54.43
937.767	54.42
938.134	54.39
938.501	54.33
938.867	54.33
939.234	54.35
939.6	54.35
939.967	54.42
940.333	54.39
940.699	54.47
941.065	54.4
941.431	54.35
941.798	54.33
942.163	54.32
942.529	54.26
942.895	54.27
943.261	54.25
943.627	54.26
943.992	54.23
944.358	54.25
944.723	54.23
945.089	54.24
945.454	54.27
945.82	54.28
946.185	54.28
946.55	54.26
946.915	54.3
947.28	54.3
947.645	54.32
948.01	54.39
948.375	54.39
948.74	54.37
949.104	54.41
949.469	54.35
949.834	54.26
950.198	54.25
950.562	54.28
950.927	54.19
951.291	54.11
951.655	54.09
952.02	54.08
952.384	54.06
952.748	54
953.112	53.99
953.476	53.97
953.839	54.01
954.203	53.98
954.567	53.98
954.931	53.94
955.294	53.93
955.658	53.96
956.021	53.94
956.385	53.89
956.748	53.88
957.111	53.85
957.474	53.86
957.837	53.8
958.2	53.75
958.563	53.71
958.926	53.78
959.289	53.79
959.652	53.73
960.015	53.69
960.377	53.7
960.74	53.75
961.102	53.74
961.465	53.79
961.827	53.8
962.189	53.86
962.552	53.85
962.914	53.83
963.276	53.87
963.638	53.93
964	53.92
964.362	53.93
964.724	53.9
965.085	53.9
965.447	53.85
965.809	53.87
966.17	53.86
966.532	53.86
966.893	53.83
967.255	53.82
967.616	53.77
967.977	53.76
968.338	53.75
968.699	53.79
969.061	53.81
969.421	53.83
969.782	53.84
970.143	53.83
970.504	53.84
970.865	53.86
971.225	53.81
971.586	53.83
971.946	53.84
972.307	53.83
972.667	53.78
973.027	53.79
973.388	53.76
973.748	53.79
974.108	53.85
974.468	53.82
974.828	53.84
975.188	53.85
975.548	53.86
975.907	53.86
976.267	53.87
976.627	53.88
976.986	53.76
977.346	53.69
977.705	53.61
978.064	53.61
978.424	53.63
978.783	53.57
979.142	53.57
979.501	53.5
979.86	53.54
980.219	53.56
980.578	53.58
980.937	53.72
981.296	53.79
981.654	53.78
982.013	53.7
982.371	53.76
982.73	53.74
983.088	53.72
983.447	53.7
983.805	53.58
984.163	53.51
984.521	53.44
984.879	53.28
985.237	53.22
985.595	53.29
985.953	53.34
986.311	53.19
986.669	53.2
987.026	53.24
987.384	53.33
987.741	53.31
988.099	53.34
988.456	53.33
988.814	53.41
989.171	53.46
989.528	53.41
989.885	53.36
990.242	53.47
990.599	53.55
990.956	53.54
991.313	53.45
991.67	53.5
992.027	53.59
992.383	53.66
992.74	53.67
993.096	53.67
993.453	53.65
993.809	53.64
994.165	53.67
994.522	53.63
994.878	53.63
995.234	53.65
995.59	53.59
995.946	53.48
996.302	53.43
996.658	53.47
997.013	53.45
997.369	53.49
997.725	53.54
998.08	53.53
998.436	53.46
998.791	53.44
999.147	53.42
999.502	53.53
999.857	53.61
1000.212	53.63
1000.567	53.54
1000.922	53.57
1001.277	53.59
1001.632	53.47
1001.987	53.44
1002.342	53.4
1002.696	53.42
1003.051	53.54
1003.406	53.55
1003.76	53.44
1004.114	53.41
1004.469	53.43
1004.823	53.52
1005.177	53.48
1005.531	53.59
1005.885	53.6
1006.239	53.65
1006.593	53.62
1006.947	53.48
1007.301	53.46
1007.655	53.5
1008.008	53.57
1008.362	53.66
1008.715	53.48
1009.069	53.57
1009.422	53.58
1009.776	53.59
1010.129	53.61
1010.482	53.66
1010.835	53.78
1011.188	53.82
1011.541	53.92
1011.894	53.99
1012.247	53.98
1012.6	54.03
1012.952	53.87
1013.305	53.76
1013.657	53.72
1014.01	53.69
1014.362	53.57
1014.715	53.54
1015.067	53.3
1015.419	53.29
1015.771	53.06
1016.123	52.96
1016.475	53.08
1016.827	53.13
1017.179	53.18
1017.531	53.08
1017.883	53.16
1018.234	53.31
1018.586	53.23
1018.938	53.55
1019.289	53.42
1019.64	53.54
1019.992	53.6
1020.343	53.42
1020.694	53.46
1021.045	53.43
1021.396	53.6
1021.747	53.48
1022.098	53.6
1022.449	53.38
1022.8	53.19
1023.151	52.98
1023.501	53.05
1023.852	53.02
1024.202	52.81
1024.553	52.82
1024.903	52.89
1025.253	52.9
1025.604	52.95
1025.954	52.64
1026.304	52.92
1026.654	52.88
1027.004	53.08
1027.354	52.71
1027.703	52.46
1028.053	52.66
1028.403	53.08
1028.753	52.75
1029.102	52.78
1029.452	52.89
1029.801	53.1
1030.15	53.07
1030.499	53.12
897.758	856.24
901.051	860.44
904.343	858.02
907.636	875.56
910.928	851.59
914.22	855.1
917.511	845.57
920.803	804.44
924.094	804.61
927.384	785.55
930.675	752.83
933.965	750.46
937.255	708.63
940.544	681.25
943.834	651.8
947.123	647.25
950.411	607.54
953.7	596.45
956.988	570.55
960.276	547.52
963.563	539.39
966.851	524.66
970.138	518.71
973.424	503.3
976.711	506.71
979.997	479.68
983.283	475.87
986.568	467.99
989.853	454.23
993.138	442.72
996.423	426.69
999.708	415.56
1002.992	409.07
1006.275	393.63
1009.559	389.12
1012.842	375.37
1016.125	367.6
1019.408	362.44
1022.69	357.23
1025.972	349.74
1029.254	343.92
1032.536	338.4
1035.817	331.55
1039.098	327.38
1042.379	321.61
1045.659	319.05
1048.939	311.91
1052.219	306.18
1055.498	302.81
1058.778	296.29
1062.057	290.57
1065.335	287.81
1068.614	284.75
1071.892	281.26
1075.17	274.73
1078.447	268.92
1081.724	267.06
1085.001	265.53
1088.278	260.28
1091.554	255.05
1094.83	255.4
1098.106	253.19
1101.382	251.63
1104.657	250.08
1107.932	246.78
1111.206	247.6
1114.481	242.28
1117.755	240.33
1121.029	238.12
1124.302	237.76
1127.575	233.62
1130.848	231.25
1134.121	229.26
1137.393	227.78
1140.665	222.22
1143.937	221.05
1147.208	221.13
1150.48	220.09
1153.75	216.83
1157.021	214.69
1160.291	214.39
1163.561	212.13
1166.831	212.37
1170.101	211.09
1173.37	210.67
1176.639	211.99
1179.907	209.82
1183.176	206.05
1186.444	206.36
1189.711	206.57
1192.979	205.6
1196.246	204.71
1199.513	205.37
1202.78	203.6
1206.046	203.61
1209.312	201.74
1212.578	202
1215.843	203.51
1219.108	202.5
1222.373	206.06
1225.638	207.1
1228.902	209.5
1232.166	210.02
1235.43	211.3
1238.693	214.55
1241.956	214.64
1245.219	217.42
1248.482	218.5
1251.744	218.24
1255.006	219.45
1258.268	214.25
1261.529	212.83
1264.79	211.81
1268.051	210.2
1271.312	207.89
1274.572	205.55
1277.832	204.58
1281.092	201.39
1284.351	199.13
1287.61	199.72
1290.869	196.81
1294.128	196.03
1297.386	196.38
1300.644	194.4
1303.902	194.93
1307.159	194.18
1310.416	193.51
1313.673	193.22
1316.93	194.86
1320.186	194.81
1323.442	195.55
1326.697	197.67
1329.953	198.4
1333.208	198.25
1336.463	200.54
1339.717	200.67
1342.972	203.04
1346.226	205.16
1349.479	205.34
1352.733	206.72
1355.986	207.82
1359.238	207.25
1362.491	208.51
1365.743	209.78
1368.995	209.83
1372.247	209.56
1375.498	209.22
1378.749	210.51
1382	208.05
1385.251	208.29
1388.501	206.93
1391.751	206.97
1395	206.12
1398.25	204.46
1401.499	202.66
1404.748	202.48
1407.996	200.39
1411.244	199.57
1414.492	197.28
1417.74	195.64
1420.987	193.52
1424.234	192.38
1427.481	189.22
1430.728	188.32
1433.974	187.22
1437.22	185.74
1440.465	184.9
1443.711	182.42
1446.956	181.32
1450.201	180.47
1453.445	178.28
1456.689	177.35
1459.933	174.7
1463.177	174.29
1466.42	171.62
1469.663	169.31
1472.906	168.7
1476.148	165.49
1479.391	164.83
1482.633	163.69
1485.874	160.69
1489.115	159.7
1492.356	158.66
1495.597	158.32
1498.838	156.59
1502.078	156.1
1505.318	156.02
1508.557	155.92
1511.797	155.66
1515.036	154.35
1518.274	153.89
1521.513	153.48
1524.751	153.23
1527.989	152.59
1531.227	152.54
1534.464	152.25
1537.701	151.74
1540.938	151.66
1544.174	149.98
1547.41	150.03
1550.646	149.32
1553.882	149.67
1557.117	148.48
1560.352	148.01
1563.587	147.7
1566.821	146.94
1570.055	146.21
1573.289	145.69
1576.523	145.53
1579.756	144.44
1582.989	143.74
1586.222	143.53
1589.454	142.67
1592.686	143.85
1595.918	143.14
1599.15	142.79
1602.381	142.96
1605.612	142.78
1608.843	142.68
1612.073	142.12
1615.303	143.44
1618.533	143.48
1621.762	143.68
1624.992	144.37
1628.221	143.52
1631.449	143.69
1634.678	143.8
1637.906	144.52
1641.134	144.37
1644.361	144.38
1647.588	145.02
1650.815	144.41
1654.042	144.36
1657.269	144.92
1660.495	144.61
1663.72	144.2
1666.946	144.69
1670.171	144.76
1673.396	144.64
1676.621	145.11
1679.845	145.14
1683.069	145.18
1686.293	146.11
1689.517	146.16
1692.74	146.1
1695.963	146.19
1699.185	147.5
1702.408	147.52
1705.63	148.2
1708.852	148.55
1712.073	148.11
1715.294	148.65
1718.515	149.24
1721.736	148.58
1724.956	149.4
1728.176	149.36
1731.396	150.68
1734.616	150.09
1737.835	150.76
1741.054	149.42
1744.272	149.71
1747.491	150.86
1750.709	151.24
1753.927	150.99
1757.144	151.12
1760.361	151.51
1763.578	151.73
1766.795	151.06
1770.011	152.23
1773.227	151.91
1776.443	153.48
1779.658	153.29
1782.874	153.67
1786.089	153.4
1789.303	153.81
1792.518	155.24
1795.732	155.12
1798.945	156.21
1802.159	156.4
1805.372	156.37
1808.585	158.3
1811.797	159.38
1815.01	160.13
1818.222	160.78
1821.434	162.47
1824.645	162.67
1827.856	164.75
1831.067	165.29
1834.278	165.39
1837.488	166.8
1840.698	167.66
1843.908	166.84
1847.117	166.7
1850.326	167.29
1853.535	166.44
1856.744	168.71
1859.952	168.56
1863.16	166.84
1866.368	166.04
1869.575	166.04
1872.782	163.04
1875.989	161.67
1879.196	160.34
1882.402	159.14
1885.608	158.64
1888.814	158.05
1892.019	155.05
1895.224	154.17
1898.429	152.86
1901.634	152.5
1904.838	152.21
1908.042	153.53
1911.246	152.75
1914.449	153.17
1917.652	152.75
1920.855	152.21
1924.058	151.7
1927.26	151.45
1930.462	151.72
1933.664	153.05
1936.865	152.38
1940.066	151.71
1943.267	150.46
1946.467	151.05
1949.668	151.97
1952.868	153.53
1956.067	153.79
1959.267	155.81
1962.466	156.13
1965.665	155.25
1968.863	156.38
1972.061	158.63
1975.259	160.24
1978.457	161.57
1981.654	163.34
1984.852	163.7
1988.048	163.23
1991.245	165.32
1994.441	166.56
1997.637	167.9
2000.833	172.14
2004.028	173.43
2007.223	174.37
2010.418	176.77
2013.613	179.68
2016.807	181.96
2020.001	183.37
2023.194	187.4
2026.388	190.94
2029.581	194.6
2032.774	196.97
2035.966	198.93
2039.158	200.53
2042.35	204.86
2045.542	206.04
2048.733	209.1
2051.924	212.43
2055.115	216.75
2058.306	216.36
2061.496	218.49
2064.686	218.65
2067.875	222.52
2071.065	224.34
2074.254	223.34
2077.442	225.57
2080.631	227.34
2083.819	230.34
2087.007	229.68
2090.195	232.74
2093.382	235.12
2096.569	234.33
2099.756	237.97
2102.942	237.92
2106.128	240.07
2109.314	245.68
2112.5	244.93
2115.685	249.57
2118.87	249.63
2122.055	255.39
2125.239	256.24
2128.424	258.66
2131.608	259.72
2134.791	264.42
2137.974	265.54
2141.157	266.42
2144.34	266.95
2147.523	270.68
2150.705	268.95
2153.887	272.19
2157.068	271.65
2160.25	269.62
2163.431	271.13
2166.611	274.64
2169.792	278.85
2172.972	281.46
2176.152	283.2
2179.331	286.1
2182.511	290.33
2185.69	293.4
2188.868	298.46
2192.047	299.57
2195.225	307.96
2198.403	313.91
2201.58	320.65
2204.758	324.68
2207.935	331.72
2211.111	337.51
2214.288	341.65
2217.464	343.09
2220.64	350.75
2223.815	353.67
2226.991	368.14
2230.166	368.1
2233.34	375.03
2236.515	380.09
2239.689	381.89
2242.863	383.93
2246.036	393.8
2249.209	392.34
2252.382	397.86
2255.555	406.74
2258.727	409.64
2261.9	411.87
2265.071	416.86
2268.243	423.72
2271.414	427.7
2274.585	437.6
2277.756	441.5
2280.926	447.21
2284.096	456.77
2287.266	465.15
2290.436	468.04
2293.605	477.75
2296.774	490.65
2299.942	504
2303.111	506.76
2306.279	517.52
2309.447	523.62
2312.614	537.35
2315.781	549.25
2318.948	572.08
2322.115	566.26
2325.281	600.94
2328.447	585.66
2331.613	607.53
2334.779	601.97
2337.944	628.43
2341.109	634.4
2344.274	651.26
2347.438	671.07
2350.602	671.29
2353.766	696.15
2356.929	707.31
2360.092	692.96
2363.255	746.52
2366.418	748.12
2369.58	759.98
2372.742	804.66
2375.904	826.23
2379.066	821.56
2382.227	808.32
2385.388	876.54
2388.548	871.96
2391.709	882.8
2394.869	990.21
2398.029	950.88
2401.188	973.15
2404.347	966.5
2407.506	950.44
2410.665	978.85
2413.823	1035.69
2416.981	1098.36
2420.139	1060.36
2423.296	1052.83
2426.453	1096.04
2429.61	1049.13
2432.767	1092.86
2435.923	1082.71
2439.079	1190.3
2442.235	1209.74
2445.391	1197.56
2448.546	1184.34
2451.701	1152.7
2454.855	1153.48
2458.009	1219.72
2461.163	1266.73
2464.317	1319.52
2467.471	1353.03
2470.624	1351.05
2473.777	1313.88
2476.929	1277.99
2480.082	1235.68
2483.234	1225.01
2486.385	1294.2
2489.537	1300.75
2492.688	1344.34
2495.839	1316.34
2498.989	1285.18
2502.14	1289.8
2505.29	1308.31
2508.439	1328.38
2511.589	1325.32
2514.738	1446.17
2517.887	1415.97
2521.035	1485.74
2524.183	1497.08
2527.331	1509.28
2530.479	1497.7
2533.627	1507.67
