Data from C_1_DIV_PA_2n_Splice17_12-37-05-945.txt Node
Date: Sat Mar 07 12:37:05 EST 2020
User: sa697716
Spectrometer: NQ5500242
Trigger mode: 0
Integration Time (sec): 1.450000E-1
Scans to average: 20
Nonlinearity correction enabled: false
Boxcar width: 5
Storing dark spectrum: false
XAxis mode: Wavelengths
Number of Pixels in Spectrum: 512
>>>>>Begin Spectral Data<<<<<
187.83	98.57
188.298	126.67
188.766	107.33
189.233	94.03
189.701	91.21
190.169	106.22
190.636	118.48
191.104	172.68
191.571	138.62
192.039	23.73
192.506	-151.61
192.974	119.9
193.441	288.28
193.908	106.95
194.375	56.09
194.842	17.57
195.31	54.21
195.777	165.68
196.244	40.47
196.711	35.3
197.177	35.78
197.644	34.72
198.111	33.73
198.578	33.81
199.045	34.17
199.511	34.39
199.978	34.24
200.445	34.13
200.911	33.56
201.378	33.66
201.844	33.37
202.31	32.9
202.777	33.05
203.243	33.17
203.709	33.05
204.176	32.97
204.642	32.73
205.108	32.64
205.574	32.6
206.04	32.75
206.506	32.69
206.972	32.89
207.438	32.87
207.903	32.56
208.369	31.92
208.835	31.39
209.301	30.67
209.766	29.9
210.232	29.4
210.697	29.03
211.163	28.48
211.628	27.71
212.094	26.94
212.559	26.29
213.024	25.7
213.49	25.26
213.955	24.73
214.42	24.34
214.885	23.95
215.35	23.31
215.815	22.17
216.28	20.93
216.745	19.68
217.21	18.46
217.675	17.34
218.14	16.37
218.604	15.53
219.069	14.85
219.534	14.16
219.998	13.65
220.463	13.19
220.927	12.81
221.392	12.5
221.856	12.24
222.32	12.02
222.785	11.83
223.249	11.64
223.713	11.47
224.177	11.34
224.642	11.21
225.106	11.04
225.57	10.91
226.034	10.8
226.497	10.69
226.961	10.58
227.425	10.49
227.889	10.39
228.353	10.31
228.816	10.19
229.28	10.07
229.744	9.98
230.207	9.9
230.671	9.81
231.134	9.71
231.597	9.65
232.061	9.58
232.524	9.49
232.987	9.4
233.45	9.32
233.914	9.24
234.377	9.17
234.84	9.1
235.303	9.04
235.766	8.98
236.229	8.93
236.691	8.86
237.154	8.8
237.617	8.74
238.08	8.68
238.542	8.6
239.005	8.57
239.468	8.51
239.93	8.46
240.393	8.41
240.855	8.33
241.317	8.27
241.78	8.2
242.242	8.12
242.704	8.07
243.166	8.02
243.629	7.98
244.091	7.91
244.553	7.85
245.015	7.79
245.477	7.73
245.939	7.67
246.4	7.62
246.862	7.58
247.324	7.54
247.786	7.49
248.247	7.45
248.709	7.39
249.17	7.34
249.632	7.3
250.093	7.28
250.555	7.24
251.016	7.21
251.477	7.16
251.939	7.13
252.4	7.1
252.861	7.07
253.322	7.04
253.783	7.01
254.244	6.98
254.705	6.95
255.166	6.91
255.627	6.88
256.088	6.85
256.549	6.82
257.009	6.79
257.47	6.75
257.931	6.71
258.391	6.67
258.852	6.64
259.312	6.61
259.773	6.58
260.233	6.55
260.694	6.52
261.154	6.5
261.614	6.48
262.074	6.45
262.534	6.43
262.994	6.42
263.455	6.41
263.915	6.39
264.374	6.38
264.834	6.37
265.294	6.34
265.754	6.34
266.214	6.33
266.673	6.31
267.133	6.3
267.593	6.3
268.052	6.29
268.512	6.27
268.971	6.26
269.431	6.25
269.89	6.24
270.349	6.23
270.809	6.21
271.268	6.2
271.727	6.19
272.186	6.17
272.645	6.16
273.104	6.14
273.563	6.13
274.022	6.12
274.481	6.11
274.94	6.1
275.399	6.08
275.857	6.08
276.316	6.06
276.775	6.05
277.233	6.04
277.692	6.03
278.15	6.02
278.609	6.01
279.067	6
279.525	5.99
279.984	5.97
280.442	5.96
280.9	5.95
281.358	5.94
281.816	5.93
282.274	5.92
282.732	5.9
283.19	5.89
283.648	5.87
284.106	5.85
284.564	5.84
285.021	5.83
285.479	5.81
285.937	5.8
286.394	5.79
286.852	5.77
287.309	5.75
287.767	5.74
288.224	5.73
288.682	5.72
289.139	5.71
289.596	5.7
290.053	5.68
290.511	5.67
290.968	5.66
291.425	5.64
291.882	5.64
292.339	5.63
292.796	5.62
293.252	5.61
293.709	5.6
294.166	5.59
294.623	5.58
295.079	5.58
295.536	5.57
295.992	5.56
296.449	5.54
296.905	5.53
297.362	5.53
297.818	5.51
298.274	5.5
298.731	5.49
299.187	5.48
299.643	5.46
300.099	5.45
300.555	5.44
301.011	5.43
301.467	5.42
301.923	5.41
302.379	5.41
302.835	5.4
303.291	5.38
303.746	5.38
304.202	5.38
304.658	5.37
305.113	5.37
305.569	5.36
306.024	5.36
306.479	5.35
306.935	5.34
307.39	5.33
307.845	5.33
308.301	5.33
308.756	5.33
309.211	5.32
309.666	5.32
310.121	5.32
310.576	5.31
311.031	5.31
311.486	5.31
311.94	5.31
312.395	5.3
312.85	5.3
313.305	5.3
313.759	5.29
314.214	5.29
314.668	5.27
315.123	5.27
315.577	5.27
316.032	5.26
316.486	5.25
316.94	5.24
317.394	5.23
317.849	5.22
318.303	5.2
318.757	5.19
319.211	5.18
319.665	5.16
320.119	5.15
320.572	5.13
321.026	5.12
321.48	5.11
321.934	5.1
322.387	5.09
322.841	5.08
323.295	5.08
323.748	5.08
324.202	5.07
324.655	5.07
325.108	5.07
325.562	5.07
326.015	5.07
326.468	5.07
326.921	5.06
327.374	5.06
327.827	5.05
328.28	5.05
328.733	5.05
329.186	5.05
329.639	5.04
330.092	5.04
330.545	5.03
330.997	5.02
331.45	5.03
331.903	5.03
332.355	5.03
332.808	5.03
333.26	5.03
333.713	5.01
334.165	5.01
334.617	5.01
335.069	5.01
335.522	5.02
335.974	5.02
336.426	5.01
336.878	5
337.33	5
337.782	4.99
338.234	5
338.686	5
339.137	5
339.589	5
340.041	4.99
340.493	4.98
340.944	4.97
341.396	4.96
341.847	4.95
342.299	4.93
342.75	4.92
343.201	4.91
343.653	4.89
344.104	4.87
344.555	4.86
345.006	4.85
345.457	4.84
345.908	4.84
346.359	4.83
346.81	4.83
347.261	4.83
347.712	4.82
348.163	4.81
348.613	4.81
349.064	4.81
349.515	4.8
349.965	4.79
350.416	4.79
350.866	4.79
351.317	4.78
351.767	4.78
352.217	4.78
352.668	4.78
353.118	4.79
353.568	4.79
354.018	4.8
354.468	4.81
354.918	4.81
355.368	4.82
355.818	4.82
356.268	4.82
356.718	4.83
357.168	4.83
357.617	4.83
358.067	4.83
358.517	4.85
358.966	4.85
359.416	4.85
359.865	4.86
360.315	4.86
360.764	4.87
361.213	4.87
361.663	4.87
362.112	4.88
362.561	4.89
363.01	4.9
363.459	4.9
363.908	4.9
364.357	4.91
364.806	4.91
365.255	4.91
365.703	4.93
366.152	4.95
366.601	4.96
367.05	4.98
367.498	4.97
367.947	4.99
368.395	5.01
368.844	5.02
369.292	5.03
369.74	5.05
370.189	5.06
370.637	5.08
371.085	5.08
371.533	5.08
371.981	5.09
372.429	5.11
372.877	5.12
373.325	5.13
373.773	5.15
374.221	5.17
374.669	5.19
375.116	5.2
375.564	5.2
376.012	5.23
376.459	5.25
376.907	5.28
377.354	5.3
377.801	5.33
378.249	5.35
378.696	5.37
379.143	5.39
379.591	5.43
380.038	5.45
380.485	5.48
380.932	5.5
381.379	5.53
381.826	5.55
382.273	5.57
382.72	5.58
383.166	5.6
383.613	5.62
384.06	5.64
384.506	5.64
384.953	5.68
385.4	5.7
385.846	5.73
386.292	5.75
386.739	5.78
387.185	5.8
387.631	5.83
388.078	5.86
388.524	5.89
388.97	5.91
389.416	5.94
389.862	5.96
390.308	5.99
390.754	6
391.2	6.04
391.645	6.06
392.091	6.09
392.537	6.11
392.983	6.14
393.428	6.16
393.874	6.19
394.319	6.21
394.765	6.24
395.21	6.26
395.655	6.28
396.101	6.31
396.546	6.33
396.991	6.35
397.436	6.38
397.881	6.4
398.326	6.43
398.771	6.46
399.216	6.48
399.661	6.51
400.106	6.53
400.551	6.55
400.995	6.56
401.44	6.59
401.885	6.62
402.329	6.64
402.774	6.66
403.218	6.69
403.663	6.71
404.107	6.73
404.551	6.75
404.995	6.77
405.44	6.78
405.884	6.8
406.328	6.82
406.772	6.83
407.216	6.85
407.66	6.86
408.104	6.86
408.547	6.88
408.991	6.89
409.435	6.9
409.879	6.92
410.322	6.95
410.766	6.96
411.209	6.98
411.653	7
412.096	7.01
412.54	7.03
412.983	7.05
413.426	7.06
413.869	7.09
414.312	7.13
414.756	7.14
415.199	7.15
415.642	7.16
416.085	7.17
416.527	7.16
416.97	7.15
417.413	7.14
417.856	7.15
418.298	7.15
418.741	7.14
419.184	7.13
419.626	7.14
420.069	7.15
420.511	7.15
420.953	7.15
421.396	7.16
421.838	7.19
422.28	7.21
422.722	7.22
423.164	7.24
423.606	7.24
424.048	7.26
424.49	7.26
424.932	7.26
425.374	7.27
425.816	7.25
426.258	7.24
426.699	7.23
427.141	7.23
427.582	7.23
428.024	7.22
428.465	7.23
428.907	7.21
429.348	7.2
429.789	7.19
430.231	7.21
430.672	7.23
431.113	7.24
431.554	7.25
431.995	7.26
432.436	7.26
432.877	7.26
433.318	7.26
433.759	7.28
434.2	7.3
434.64	7.3
435.081	7.3
435.522	7.32
435.962	7.34
436.403	7.36
436.843	7.37
437.284	7.35
437.724	7.35
438.164	7.35
438.604	7.34
439.045	7.34
439.485	7.33
439.925	7.33
440.365	7.33
440.805	7.34
441.245	7.34
441.685	7.34
442.125	7.37
442.564	7.38
443.004	7.37
443.444	7.39
443.883	7.39
444.323	7.39
444.762	7.38
445.202	7.37
445.641	7.37
446.081	7.37
446.52	7.37
446.959	7.38
447.398	7.38
447.837	7.39
448.276	7.37
448.716	7.38
449.154	7.39
449.593	7.4
450.032	7.4
450.471	7.38
450.91	7.36
451.349	7.34
451.787	7.32
452.226	7.31
452.664	7.3
453.103	7.29
453.541	7.28
453.98	7.27
454.418	7.24
454.856	7.22
455.295	7.21
455.733	7.21
456.171	7.2
456.609	7.19
457.047	7.18
457.485	7.16
457.923	7.16
458.361	7.16
458.798	7.17
459.236	7.16
459.674	7.17
460.111	7.17
460.549	7.17
460.987	7.18
461.424	7.19
461.862	7.2
462.299	7.22
462.736	7.21
463.173	7.22
463.611	7.21
464.048	7.21
464.485	7.21
464.922	7.21
465.359	7.21
465.796	7.22
466.233	7.21
466.67	7.22
467.106	7.21
467.543	7.21
467.98	7.2
468.416	7.21
468.853	7.21
469.29	7.2
469.726	7.19
470.162	7.17
470.599	7.16
471.035	7.15
471.471	7.13
471.907	7.13
472.344	7.12
472.78	7.11
473.216	7.09
473.652	7.08
474.088	7.07
474.523	7.08
474.959	7.08
475.395	7.06
475.831	7.03
476.266	7.04
476.702	7.03
477.138	7.02
477.573	7.01
478.008	7
478.444	7
478.879	6.99
479.314	6.96
479.75	6.95
480.185	6.94
480.62	6.94
481.055	6.92
481.49	6.9
481.925	6.89
482.36	6.88
482.795	6.88
483.229	6.86
483.664	6.86
484.099	6.86
484.534	6.85
484.968	6.85
485.403	6.84
485.837	6.83
486.271	6.83
486.706	6.84
487.14	6.84
487.574	6.83
488.009	6.83
488.443	6.83
488.877	6.84
489.311	6.84
489.745	6.85
490.179	6.86
490.613	6.87
491.046	6.88
491.48	6.88
491.914	6.88
492.348	6.88
492.781	6.88
493.215	6.88
493.648	6.88
494.082	6.88
494.515	6.88
494.948	6.88
495.382	6.87
495.815	6.88
496.248	6.89
496.681	6.89
497.114	6.9
497.547	6.91
497.98	6.92
498.413	6.93
498.846	6.94
499.279	6.95
499.711	6.95
500.144	6.97
500.577	6.98
501.009	6.98
501.442	6.98
501.874	6.99
502.306	7
502.739	7.02
503.171	7.03
503.603	7.04
504.036	7.06
504.468	7.07
504.9	7.08
505.332	7.1
505.764	7.11
506.196	7.13
506.627	7.15
507.059	7.17
507.491	7.19
507.923	7.22
508.354	7.25
508.786	7.28
509.217	7.31
509.649	7.33
510.08	7.37
510.512	7.4
510.943	7.44
511.374	7.48
511.805	7.52
512.237	7.55
512.668	7.58
513.099	7.61
513.53	7.65
513.961	7.7
514.391	7.75
514.822	7.8
515.253	7.84
515.684	7.9
516.114	7.95
516.545	8
516.975	8.06
517.406	8.13
517.836	8.2
518.267	8.27
518.697	8.32
519.127	8.38
519.558	8.45
519.988	8.52
520.418	8.58
520.848	8.65
521.278	8.73
521.708	8.9
522.138	8.97
522.567	9.03
522.997	9.09
523.427	9.17
523.857	9.26
524.286	9.31
524.716	9.38
525.145	9.44
525.575	9.5
526.004	9.57
526.433	9.52
526.863	9.58
527.292	9.65
527.721	9.71
528.15	9.76
528.579	9.81
529.008	9.87
529.437	9.91
529.866	9.97
530.295	10.02
530.724	10.06
531.152	10.11
531.581	10.15
532.01	10.18
532.438	10.22
532.867	10.26
533.295	10.3
533.723	10.33
534.152	10.36
534.58	10.4
535.008	10.41
535.436	10.43
535.865	10.45
536.293	10.48
536.721	10.5
537.149	10.52
537.576	10.54
538.004	10.55
538.432	10.58
538.86	10.6
539.287	10.6
539.715	10.63
540.143	10.65
540.57	10.66
540.998	10.66
541.425	10.67
541.852	10.67
542.28	10.68
542.707	10.68
543.134	10.68
543.561	10.7
543.988	10.71
544.415	10.72
544.842	10.73
545.269	10.74
545.696	10.75
546.123	10.75
546.549	10.77
546.976	10.78
547.403	10.78
547.829	10.78
548.256	10.78
548.682	10.78
549.108	10.79
549.535	10.79
549.961	10.79
550.387	10.79
550.813	10.8
551.24	10.79
551.666	10.78
552.092	10.77
552.518	10.76
552.943	10.74
553.369	10.73
553.795	10.71
554.221	10.68
554.646	10.66
555.072	10.62
555.498	10.6
555.923	10.57
556.349	10.54
556.774	10.52
557.199	10.49
557.625	10.46
558.05	10.42
558.475	10.37
558.9	10.34
559.325	10.3
559.75	10.27
560.175	10.22
560.6	10.18
561.025	10.12
561.449	10.07
561.874	10.01
562.299	9.96
562.723	9.91
563.148	9.85
563.572	9.8
563.997	9.74
564.421	9.67
564.846	9.6
565.27	9.55
565.694	9.5
566.118	9.45
566.542	9.39
566.966	9.33
567.39	9.28
567.814	9.22
568.238	9.17
568.662	9.11
569.086	9.06
569.509	9.02
569.933	8.97
570.357	8.92
570.78	8.87
571.204	8.82
571.627	8.78
572.05	8.73
572.474	8.69
572.897	8.65
573.32	8.62
573.743	8.59
574.166	8.54
574.589	8.5
575.012	8.46
575.435	8.42
575.858	8.4
576.281	8.37
576.704	8.34
577.126	8.32
577.549	8.29
577.972	8.26
578.394	8.23
578.817	8.21
579.239	8.18
579.661	8.16
580.084	8.14
580.506	8.11
580.928	8.09
581.35	8.06
581.772	8.04
582.194	8.01
582.616	7.99
583.038	7.97
583.46	7.93
583.882	7.92
584.303	7.9
584.725	7.88
585.147	7.85
585.568	7.84
585.99	7.83
586.411	7.81
586.833	7.79
587.254	7.76
587.675	7.74
588.096	7.73
588.518	7.71
588.939	7.7
589.36	7.68
589.781	7.66
590.202	7.65
590.623	7.64
591.043	7.63
591.464	7.62
591.885	7.61
592.305	7.6
592.726	7.6
593.147	7.6
593.567	7.58
593.987	7.57
594.408	7.56
594.828	7.55
595.248	7.53
595.669	7.52
596.089	7.52
596.509	7.53
596.929	7.52
597.349	7.51
597.769	7.5
598.189	7.48
598.608	7.48
599.028	7.47
599.448	7.47
599.867	7.46
600.287	7.45
600.706	7.43
601.126	7.41
601.545	7.41
601.965	7.4
602.384	7.39
602.803	7.37
603.222	7.36
603.641	7.34
604.061	7.32
604.48	7.31
604.898	7.29
605.317	7.28
605.736	7.26
606.155	7.24
606.574	7.22
606.992	7.2
607.411	7.2
607.829	7.15
608.248	7.14
608.666	7.12
609.085	7.11
609.503	7.09
609.921	7.08
610.339	7.06
610.758	7.05
611.176	7.04
611.594	7.03
612.012	7.02
612.43	7.03
612.847	7.02
613.265	7.01
613.683	7
614.101	6.98
614.518	6.98
614.936	6.96
615.353	6.95
615.771	6.94
616.188	6.92
616.606	6.92
617.023	6.9
617.44	6.89
617.857	6.89
618.274	6.89
618.691	6.89
619.108	6.87
619.525	6.87
619.942	6.87
620.359	6.86
620.776	6.86
621.192	6.86
621.609	6.86
622.026	6.85
622.442	6.84
622.859	6.83
623.275	6.81
623.691	6.81
624.108	6.81
624.524	6.8
624.94	6.79
625.356	6.79
625.772	6.78
626.188	6.77
626.604	6.77
627.02	6.77
627.436	6.77
627.852	6.77
628.268	6.77
628.683	6.76
629.099	6.76
629.514	6.76
629.93	6.76
630.345	6.76
630.761	6.75
631.176	6.75
631.591	6.74
632.007	6.74
632.422	6.73
632.837	6.73
633.252	6.72
633.667	6.7
634.082	6.68
634.497	6.68
634.911	6.66
635.326	6.65
635.741	6.64
636.155	6.63
636.57	6.63
636.984	6.62
637.399	6.61
637.813	6.6
638.228	6.59
638.642	6.58
639.056	6.57
639.47	6.56
639.884	6.55
640.298	6.53
640.712	6.52
641.126	6.5
641.54	6.49
641.954	6.48
642.368	6.48
642.781	6.47
643.195	6.47
643.609	6.46
644.022	6.45
644.436	6.45
644.849	6.45
645.262	6.44
645.676	6.43
646.089	6.43
646.502	6.42
646.915	6.41
647.328	6.39
647.741	6.39
648.154	6.38
648.567	6.38
648.98	6.37
649.393	6.37
649.805	6.37
650.218	6.36
650.631	6.36
651.043	6.36
651.456	6.37
651.868	6.37
652.28	6.37
652.693	6.37
653.105	6.37
653.517	6.37
653.929	6.36
654.341	6.36
654.753	6.35
655.165	6.35
655.577	6.35
655.989	6.35
656.401	6.36
656.813	6.35
657.224	6.35
657.636	6.34
658.047	6.34
658.459	6.33
658.87	6.33
659.282	6.33
659.693	6.32
660.104	6.31
660.515	6.3
660.926	6.29
661.338	6.28
661.749	6.27
662.159	6.27
662.57	6.27
662.981	6.28
663.392	6.28
663.803	6.27
664.213	6.28
664.624	6.28
665.035	6.28
665.445	6.29
665.855	6.3
666.266	6.3
666.676	6.31
667.086	6.3
667.497	6.31
667.907	6.31
668.317	6.32
668.727	6.33
669.137	6.33
669.547	6.34
669.956	6.34
670.366	6.35
670.776	6.36
671.186	6.37
671.595	6.38
672.005	6.38
672.414	6.4
672.824	6.41
673.233	6.42
673.642	6.44
674.052	6.45
674.461	6.47
674.87	6.48
675.279	6.5
675.688	6.52
676.097	6.55
676.506	6.57
676.915	6.59
677.323	6.61
677.732	6.62
678.141	6.64
678.549	6.65
678.958	6.67
679.366	6.7
679.775	6.72
680.183	6.73
680.592	6.76
681	6.78
681.408	6.79
681.816	6.82
682.224	6.84
682.632	6.87
683.04	6.89
683.448	6.9
683.856	6.9
684.264	6.9
684.671	6.92
685.079	6.92
685.487	6.93
685.894	6.94
686.302	6.96
686.709	6.98
687.116	7
687.524	7.01
687.931	7.05
688.338	7.08
688.745	7.12
689.152	7.15
689.559	7.21
689.966	7.25
690.373	7.31
690.78	7.38
691.187	7.46
691.593	7.53
692	7.64
692.407	7.73
692.813	7.85
693.22	7.97
693.626	8.12
694.032	8.25
694.439	8.41
694.845	8.59
695.251	8.76
695.657	8.93
696.063	9.13
696.469	9.33
696.875	9.56
697.281	9.8
697.687	10.05
698.093	10.3
698.498	10.57
698.904	10.83
699.31	11.1
699.715	11.39
700.12	11.71
700.526	12.02
700.931	12.36
701.337	12.68
701.742	13.01
702.147	13.35
702.552	13.71
702.957	14.05
703.362	14.43
703.767	14.8
704.172	15.18
704.577	15.55
704.981	15.93
705.386	16.33
705.791	16.71
706.195	17.11
706.6	17.51
707.004	17.9
707.408	18.35
707.813	18.78
708.217	19.2
708.621	19.64
709.025	20.08
709.43	20.5
709.834	20.95
710.237	21.41
710.641	21.86
711.045	22.32
711.449	22.8
711.853	23.26
712.256	23.72
712.66	24.2
713.064	24.66
713.467	25.13
713.87	25.63
714.274	26.1
714.677	26.58
715.08	27.09
715.484	27.6
715.887	28.1
716.29	28.57
716.693	29.05
717.096	29.54
717.499	30.05
717.901	30.56
718.304	31.06
718.707	31.56
719.109	32.07
719.512	32.54
719.915	33.01
720.317	33.48
720.719	33.93
721.122	34.42
721.524	34.89
721.926	35.34
722.328	35.78
722.731	36.22
723.133	36.65
723.535	37.08
723.937	37.51
724.338	37.92
724.74	38.37
725.142	38.85
725.544	39.25
725.945	39.66
726.347	40.01
726.748	40.41
727.15	40.78
727.551	41.17
727.952	41.53
728.354	41.9
728.755	42.26
729.156	42.58
729.557	42.87
729.958	43.2
730.359	43.52
730.76	43.87
731.161	44.16
731.562	44.49
731.962	44.75
732.363	45.04
732.763	45.32
733.164	45.57
733.564	45.83
733.965	46.08
734.365	46.34
734.766	46.58
735.166	46.83
735.566	47.07
735.966	47.27
736.366	47.5
736.766	47.71
737.166	47.9
737.566	48.11
737.966	48.28
738.365	48.49
738.765	48.68
739.165	48.85
739.564	48.99
739.964	49.16
740.363	49.31
740.763	49.46
741.162	49.6
741.561	49.72
741.96	49.84
742.36	50
742.759	50.11
743.158	50.23
743.557	50.35
743.955	50.48
744.354	50.59
744.753	50.7
745.152	50.83
745.55	50.92
745.949	51.05
746.348	51.18
746.746	51.24
747.144	51.33
747.543	51.41
747.941	51.49
748.339	51.53
748.737	51.61
749.136	51.67
749.534	51.7
749.932	51.76
750.33	51.79
750.727	51.85
751.125	51.94
751.523	51.98
751.921	52.03
752.318	52.09
752.716	52.18
753.113	52.23
753.511	52.3
753.908	52.38
754.305	52.41
754.703	52.47
755.1	52.49
755.497	52.51
755.894	52.53
756.291	52.56
756.688	52.57
757.085	52.58
757.482	52.57
757.878	52.6
758.275	52.6
758.672	52.63
759.068	52.67
759.465	52.69
759.861	52.72
760.258	52.76
760.654	52.77
761.05	52.81
761.447	52.82
761.843	52.83
762.239	52.84
762.635	52.83
763.031	52.85
763.427	52.82
763.822	52.84
764.218	52.86
764.614	52.86
765.01	52.85
765.405	52.86
765.801	52.85
766.196	52.87
766.592	52.86
766.987	52.9
767.382	52.9
767.778	52.93
768.173	52.93
768.568	52.93
768.963	52.92
769.358	52.96
769.753	52.94
770.148	52.95
770.542	52.95
770.937	52.98
771.332	52.98
771.726	52.98
772.121	52.97
772.515	52.99
772.91	53.01
773.304	53.04
773.699	53.04
774.093	53.04
774.487	53.08
774.881	53.1
775.275	53.08
775.669	53.06
776.063	53.03
776.457	53.05
776.851	53.01
777.245	52.98
777.638	52.96
778.032	52.95
778.425	52.96
778.819	52.92
779.212	52.92
779.606	52.96
779.999	52.97
780.392	53.02
780.786	53.02
781.179	53.04
781.572	53.07
781.965	53.11
782.358	53.11
782.751	53.14
783.143	53.16
783.536	53.16
783.929	53.17
784.322	53.21
784.714	53.21
785.107	53.25
785.499	53.27
785.891	53.25
786.284	53.23
786.676	53.25
787.068	53.23
787.46	53.23
787.852	53.25
788.245	53.23
788.636	53.2
789.028	53.17
789.42	53.15
789.812	53.15
790.204	53.17
790.595	53.15
790.987	53.16
791.378	53.2
791.77	53.2
792.161	53.2
792.553	53.2
792.944	53.19
793.335	53.22
793.726	53.22
794.117	53.21
794.508	53.19
794.899	53.2
795.29	53.19
795.681	53.15
796.072	53.15
796.463	53.12
796.853	53.1
797.244	53.08
797.634	53.07
798.025	53.09
798.415	53.08
798.806	53.08
799.196	53.09
799.586	53.09
799.976	53.11
800.366	53.13
800.756	53.16
801.146	53.18
801.536	53.21
801.926	53.2
802.316	53.19
802.706	53.25
803.095	53.27
803.485	53.26
803.874	53.25
804.264	53.25
804.653	53.25
805.043	53.24
805.432	53.24
805.821	53.23
806.21	53.22
806.599	53.22
806.988	53.19
807.377	53.17
807.766	53.19
808.155	53.18
808.544	53.2
808.933	53.2
809.321	53.18
809.71	53.19
810.098	53.18
810.487	53.17
810.875	53.17
811.264	53.18
811.652	53.19
812.04	53.17
812.428	53.22
812.816	53.18
813.204	53.17
813.592	53.17
813.98	53.17
814.368	53.17
814.756	53.16
815.144	53.14
815.531	53.13
815.919	53.14
816.306	53.17
816.694	53.13
817.081	53.13
817.469	53.14
817.856	53.16
818.243	53.15
818.63	53.13
819.017	53.14
819.404	53.17
819.791	53.15
820.178	53.15
820.565	53.1
820.952	53.11
821.339	53.11
821.725	53.1
822.112	53.1
822.498	53.12
822.885	53.14
823.271	53.15
823.657	53.12
824.044	53.13
824.43	53.17
824.816	53.2
825.202	53.18
825.588	53.18
825.974	53.18
826.36	53.17
826.746	53.17
827.132	53.19
827.517	53.2
827.903	53.25
828.289	53.26
828.674	53.24
829.06	53.24
829.445	53.25
829.83	53.25
830.216	53.25
830.601	53.26
830.986	53.24
831.371	53.22
831.756	53.22
832.141	53.18
832.526	53.18
832.911	53.19
833.295	53.2
833.68	53.24
834.065	53.25
834.449	53.26
834.834	53.25
835.218	53.27
835.603	53.27
835.987	53.23
836.371	53.24
836.755	53.23
837.139	53.22
837.524	53.23
837.908	53.23
838.291	53.25
838.675	53.23
839.059	53.27
839.443	53.25
839.827	53.27
840.21	53.3
840.594	53.31
840.977	53.32
841.361	53.33
841.744	53.29
842.127	53.27
842.511	53.23
842.894	53.24
843.277	53.23
843.66	53.21
844.043	53.21
844.426	53.22
844.809	53.23
845.191	53.25
845.574	53.23
845.957	53.25
846.339	53.27
846.722	53.31
847.104	53.34
847.487	53.34
847.869	53.36
848.252	53.38
848.634	53.38
849.016	53.39
849.398	53.38
849.78	53.41
850.162	53.42
850.544	53.43
850.926	53.41
851.307	53.42
851.689	53.41
852.071	53.42
852.452	53.42
852.834	53.42
853.215	53.41
853.597	53.42
853.978	53.42
854.359	53.42
854.741	53.4
855.122	53.4
855.503	53.41
855.884	53.41
856.265	53.39
856.646	53.4
857.026	53.44
857.407	53.44
857.788	53.41
858.169	53.43
858.549	53.43
858.93	53.45
859.31	53.43
859.69	53.43
860.071	53.46
860.451	53.48
860.831	53.5
861.211	53.44
861.591	53.42
861.971	53.43
862.351	53.46
862.731	53.46
863.111	53.45
863.491	53.47
863.87	53.47
864.25	53.45
864.629	53.42
865.009	53.41
865.388	53.42
865.768	53.43
866.147	53.43
866.526	53.41
866.905	53.41
867.284	53.42
867.663	53.42
868.042	53.44
868.421	53.46
868.8	53.48
869.179	53.48
869.558	53.51
869.936	53.49
870.315	53.47
870.693	53.47
871.072	53.49
871.45	53.51
871.828	53.51
872.207	53.52
872.585	53.49
872.963	53.52
873.341	53.53
873.719	53.52
874.097	53.53
874.475	53.57
874.853	53.57
875.23	53.59
875.608	53.59
875.986	53.6
876.363	53.6
876.741	53.61
877.118	53.59
877.495	53.62
877.873	53.64
878.25	53.68
878.627	53.68
879.004	53.7
879.381	53.69
879.758	53.68
880.135	53.67
880.512	53.65
880.889	53.65
881.265	53.64
881.642	53.64
882.019	53.65
882.395	53.61
882.772	53.61
883.148	53.57
883.524	53.57
883.901	53.56
884.277	53.56
884.653	53.56
885.029	53.54
885.405	53.52
885.781	53.5
886.157	53.5
886.532	53.51
886.908	53.48
887.284	53.5
887.659	53.49
888.035	53.46
888.411	53.47
888.786	53.49
889.161	53.5
889.537	53.54
889.912	53.54
890.287	53.53
890.662	53.52
891.037	53.54
891.412	53.52
891.787	53.5
892.162	53.52
892.536	53.51
892.911	53.51
893.286	53.53
893.66	53.54
894.035	53.56
894.409	53.58
894.784	53.59
895.158	53.58
895.532	53.6
895.906	53.63
896.281	53.63
896.655	53.64
897.029	53.65
897.402	53.64
897.776	53.64
898.15	53.62
898.524	53.62
898.898	53.6
899.271	53.62
899.645	53.63
900.018	53.66
900.392	53.69
900.765	53.71
901.138	53.7
901.511	53.69
901.884	53.7
902.258	53.71
902.631	53.7
903.003	53.72
903.376	53.72
903.749	53.72
904.122	53.73
904.495	53.72
904.867	53.7
905.24	53.7
905.612	53.73
905.985	53.71
906.357	53.71
906.729	53.7
907.102	53.7
907.474	53.72
907.846	53.73
908.218	53.69
908.59	53.69
908.962	53.69
909.334	53.7
909.705	53.69
910.077	53.69
910.449	53.71
910.82	53.72
911.192	53.68
911.563	53.67
911.935	53.63
912.306	53.64
912.677	53.66
913.048	53.68
913.419	53.67
913.79	53.66
914.161	53.67
914.532	53.65
914.903	53.66
915.274	53.72
915.645	53.72
916.015	53.75
916.386	53.74
916.756	53.71
917.127	53.73
917.497	53.73
917.868	53.72
918.238	53.71
918.608	53.73
918.978	53.73
919.348	53.72
919.718	53.7
920.088	53.7
920.458	53.72
920.828	53.68
921.198	53.63
921.567	53.62
921.937	53.66
922.306	53.63
922.676	53.61
923.045	53.6
923.415	53.58
923.784	53.61
924.153	53.6
924.522	53.58
924.891	53.6
925.26	53.6
925.629	53.64
925.998	53.6
926.367	53.63
926.736	53.61
927.104	53.59
927.473	53.57
927.842	53.5
928.21	53.53
928.578	53.5
928.947	53.52
929.315	53.47
929.683	53.42
930.051	53.39
930.42	53.38
930.788	53.34
931.156	53.31
931.523	53.31
931.891	53.33
932.259	53.31
932.627	53.29
932.994	53.29
933.362	53.28
933.729	53.31
934.097	53.32
934.464	53.28
934.831	53.27
935.199	53.27
935.566	53.25
935.933	53.25
936.3	53.2
936.667	53.2
937.034	53.16
937.401	53.22
937.767	53.2
938.134	53.14
938.501	53.16
938.867	53.18
939.234	53.19
939.6	53.19
939.967	53.2
940.333	53.2
940.699	53.23
941.065	53.21
941.431	53.2
941.798	53.14
942.163	53.16
942.529	53.2
942.895	53.2
943.261	53.19
943.627	53.21
943.992	53.18
944.358	53.17
944.723	53.14
945.089	53.09
945.454	53.11
945.82	53.12
946.185	53.12
946.55	53.05
946.915	53.05
947.28	53.04
947.645	53.08
948.01	53.07
948.375	53.06
948.74	53.09
949.104	53.11
949.469	53.06
949.834	53.01
950.198	52.94
950.562	52.91
950.927	52.87
951.291	52.79
951.655	52.7
952.02	52.69
952.384	52.67
952.748	52.58
953.112	52.54
953.476	52.45
953.839	52.44
954.203	52.4
954.567	52.39
954.931	52.32
955.294	52.35
955.658	52.38
956.021	52.35
956.385	52.33
956.748	52.35
957.111	52.35
957.474	52.44
957.837	52.4
958.2	52.43
958.563	52.43
958.926	52.47
959.289	52.48
959.652	52.42
960.015	52.41
960.377	52.42
960.74	52.42
961.102	52.41
961.465	52.32
961.827	52.36
962.189	52.42
962.552	52.41
962.914	52.4
963.276	52.44
963.638	52.46
964	52.46
964.362	52.44
964.724	52.42
965.085	52.46
965.447	52.49
965.809	52.49
966.17	52.44
966.532	52.43
966.893	52.44
967.255	52.38
967.616	52.34
967.977	52.32
968.338	52.29
968.699	52.29
969.061	52.25
969.421	52.25
969.782	52.27
970.143	52.3
970.504	52.35
970.865	52.35
971.225	52.39
971.586	52.38
971.946	52.37
972.307	52.39
972.667	52.37
973.027	52.4
973.388	52.43
973.748	52.38
974.108	52.41
974.468	52.36
974.828	52.35
975.188	52.29
975.548	52.3
975.907	52.32
976.267	52.36
976.627	52.35
976.986	52.28
977.346	52.17
977.705	52.16
978.064	52.14
978.424	52.15
978.783	52.13
979.142	52.14
979.501	52.14
979.86	52.11
980.219	51.98
980.578	52.02
980.937	52.05
981.296	52.09
981.654	52.09
982.013	52.01
982.371	52.01
982.73	52.03
983.088	51.96
983.447	51.95
983.805	51.95
984.163	51.99
984.521	52.04
984.879	51.98
985.237	52.02
985.595	52.09
985.953	52.11
986.311	52.02
986.669	51.99
987.026	52.03
987.384	52.04
987.741	51.99
988.099	52.02
988.456	51.9
988.814	52.04
989.171	52
989.528	51.9
989.885	51.85
990.242	51.9
990.599	51.94
990.956	52.02
991.313	52.07
991.67	52.09
992.027	52.14
992.383	52.23
992.74	52.18
993.096	52.18
993.453	52.11
993.809	52.2
994.165	52.27
994.522	52.16
994.878	52.14
995.234	52.07
995.59	52.07
995.946	52
996.302	51.99
996.658	51.98
997.013	51.92
997.369	52.01
997.725	51.95
998.08	51.96
998.436	52.06
998.791	52.09
999.147	52.17
999.502	52.2
999.857	52.25
1000.212	52.11
1000.567	52.09
1000.922	52.07
1001.277	52.06
1001.632	51.96
1001.987	51.81
1002.342	51.73
1002.696	51.65
1003.051	51.61
1003.406	51.67
1003.76	51.57
1004.114	51.56
1004.469	51.57
1004.823	51.91
1005.177	51.89
1005.531	52.13
1005.885	52.24
1006.239	52.26
1006.593	52.32
1006.947	52.28
1007.301	52.16
1007.655	52.23
1008.008	52.36
1008.362	52.46
1008.715	52.21
1009.069	52.21
1009.422	52.07
1009.776	51.94
1010.129	51.86
1010.482	51.75
1010.835	51.78
1011.188	51.8
1011.541	51.84
1011.894	51.78
1012.247	51.66
1012.6	51.69
1012.952	51.7
1013.305	51.71
1013.657	51.69
1014.01	51.7
1014.362	51.7
1014.715	51.7
1015.067	51.86
1015.419	51.81
1015.771	51.85
1016.123	51.88
1016.475	51.77
1016.827	51.79
1017.179	51.79
1017.531	52
1017.883	52.16
1018.234	52.14
1018.586	51.98
1018.938	51.86
1019.289	51.75
1019.64	51.69
1019.992	51.66
1020.343	51.63
1020.694	51.55
1021.045	51.5
1021.396	51.4
1021.747	51.4
1022.098	51.43
1022.449	51.41
1022.8	51.38
1023.151	51.37
1023.501	51.34
1023.852	51.22
1024.202	51.18
1024.553	51.25
1024.903	51.31
1025.253	51.33
1025.604	51.02
1025.954	50.95
1026.304	51.09
1026.654	51.04
1027.004	51.05
1027.354	51.06
1027.703	50.97
1028.053	51.09
1028.403	51.14
1028.753	50.7
1029.102	50.58
1029.452	50.63
1029.801	50.55
1030.15	50.39
1030.499	50.27
897.758	769.78
901.051	776.78
904.343	778.44
907.636	790.75
910.928	766.38
914.22	771.09
917.511	762.61
920.803	725.36
924.094	722.95
927.384	704.14
930.675	679.32
933.965	677.89
937.255	639.41
940.544	612.56
943.834	586.71
947.123	583.3
950.411	548.08
953.7	537.7
956.988	512.01
960.276	497.27
963.563	487.68
966.851	472.72
970.138	466.82
973.424	453.34
976.711	456.16
979.997	433.65
983.283	430.24
986.568	422.4
989.853	411.59
993.138	403.88
996.423	386.11
999.708	376.85
1002.992	371.37
1006.275	357.69
1009.559	353.71
1012.842	340.97
1016.125	333.54
1019.408	328.5
1022.69	324.4
1025.972	316.4
1029.254	310.26
1032.536	305.24
1035.817	300.51
1039.098	297.57
1042.379	292.24
1045.659	289.22
1048.939	282.76
1052.219	278.16
1055.498	274.65
1058.778	267.59
1062.057	263.83
1065.335	261.16
1068.614	257.78
1071.892	254.53
1075.17	247.78
1078.447	242.68
1081.724	240.88
1085.001	239.58
1088.278	235.14
1091.554	230.73
1094.83	231.46
1098.106	229.47
1101.382	227.91
1104.657	226.16
1107.932	222.52
1111.206	223.34
1114.481	218.86
1117.755	216.89
1121.029	214.9
1124.302	213.82
1127.575	210.58
1130.848	208.4
1134.121	205.98
1137.393	203.99
1140.665	200.62
1143.937	199.22
1147.208	198.69
1150.48	197.11
1153.75	195.05
1157.021	193.38
1160.291	193.06
1163.561	190.81
1166.831	191.18
1170.101	190.21
1173.37	189.74
1176.639	190.53
1179.907	189.78
1183.176	186.9
1186.444	186.97
1189.711	186.8
1192.979	185.73
1196.246	184.78
1199.513	185.88
1202.78	184.39
1206.046	183.89
1209.312	183.1
1212.578	182.98
1215.843	183.67
1219.108	183.11
1222.373	186.75
1225.638	187.89
1228.902	189.49
1232.166	190.55
1235.43	190.93
1238.693	193.74
1241.956	194.52
1245.219	196.37
1248.482	196.65
1251.744	196.84
1255.006	197.33
1258.268	193.49
1261.529	192
1264.79	191.24
1268.051	189.59
1271.312	188.11
1274.572	185.65
1277.832	184.83
1281.092	181.87
1284.351	180.72
1287.61	180.75
1290.869	178.58
1294.128	177.5
1297.386	177.79
1300.644	176.55
1303.902	176.98
1307.159	176.27
1310.416	175.92
1313.673	174.95
1316.93	176.79
1320.186	176.51
1323.442	176.25
1326.697	177.93
1329.953	178.45
1333.208	178.32
1336.463	180.53
1339.717	180.25
1342.972	182.57
1346.226	183.6
1349.479	184.28
1352.733	185.21
1355.986	186.64
1359.238	186.43
1362.491	186.08
1365.743	187.36
1368.995	186.99
1372.247	186.91
1375.498	186.44
1378.749	186.56
1382	183.96
1385.251	183.77
1388.501	182.6
1391.751	180.9
1395	180.46
1398.25	179.74
1401.499	177.33
1404.748	176.77
1407.996	173.5
1411.244	172.42
1414.492	170.78
1417.74	168.83
1420.987	167.17
1424.234	165.82
1427.481	164.01
1430.728	163.23
1433.974	162.46
1437.22	160.42
1440.465	159.93
1443.711	157.89
1446.956	156.62
1450.201	155.48
1453.445	154.66
1456.689	153.4
1459.933	150.62
1463.177	149.99
1466.42	147.34
1469.663	145.4
1472.906	144.78
1476.148	141.81
1479.391	140.85
1482.633	140.33
1485.874	138.02
1489.115	136.63
1492.356	136.32
1495.597	135.9
1498.838	134.23
1502.078	134.11
1505.318	133.65
1508.557	133.57
1511.797	133.27
1515.036	132.99
1518.274	132.35
1521.513	131.39
1524.751	131.75
1527.989	130.89
1531.227	131.19
1534.464	130.67
1537.701	130.14
1540.938	129.95
1544.174	129.18
1547.41	129.49
1550.646	128.33
1553.882	128.7
1557.117	127.82
1560.352	126.96
1563.587	126.89
1566.821	126.38
1570.055	125.99
1573.289	125.55
1576.523	125.54
1579.756	124.8
1582.989	124.48
1586.222	124.48
1589.454	123.83
1592.686	125.11
1595.918	124.59
1599.15	124.32
1602.381	124.48
1605.612	124.43
1608.843	124.64
1612.073	124.18
1615.303	124.6
1618.533	124.79
1621.762	125.09
1624.992	125.86
1628.221	125.13
1631.449	125.11
1634.678	125.16
1637.906	125.81
1641.134	125.71
1644.361	125.54
1647.588	126.32
1650.815	125.99
1654.042	125.9
1657.269	126.34
1660.495	126.08
1663.72	126.07
1666.946	127.09
1670.171	127.01
1673.396	126.99
1676.621	127.05
1679.845	127.74
1683.069	127.4
1686.293	128.41
1689.517	128.17
1692.74	128.01
1695.963	128.31
1699.185	128.61
1702.408	128.42
1705.63	128.94
1708.852	129.3
1712.073	129.17
1715.294	128.84
1718.515	130.19
1721.736	129.83
1724.956	130.61
1728.176	130.7
1731.396	130.67
1734.616	131
1737.835	131.37
1741.054	130.72
1744.272	130.69
1747.491	131.99
1750.709	132.37
1753.927	131.66
1757.144	131.56
1760.361	131.55
1763.578	131.49
1766.795	131.26
1770.011	132.31
1773.227	132.02
1776.443	132.85
1779.658	132.6
1782.874	132.83
1786.089	132.77
1789.303	133.21
1792.518	134.18
1795.732	133.95
1798.945	135.48
1802.159	136.14
1805.372	135.82
1808.585	137.34
1811.797	138.23
1815.01	139.14
1818.222	139.77
1821.434	141.33
1824.645	141.49
1827.856	143.63
1831.067	144.64
1834.278	144.22
1837.488	145.24
1840.698	145.72
1843.908	145.07
1847.117	144.65
1850.326	145.08
1853.535	144.4
1856.744	145.38
1859.952	144.83
1863.16	143.26
1866.368	142.09
1869.575	142.35
1872.782	140.02
1875.989	139.32
1879.196	138.9
1882.402	137.76
1885.608	137.45
1888.814	137.06
1892.019	135.08
1895.224	134.89
1898.429	134.44
1901.634	134.3
1904.838	134.52
1908.042	135.78
1911.246	135.27
1914.449	135.48
1917.652	136.27
1920.855	135.85
1924.058	136.6
1927.26	136.62
1930.462	136.61
1933.664	137.3
1936.865	137.34
1940.066	136.55
1943.267	135.25
1946.467	135.92
1949.668	136.4
1952.868	137.38
1956.067	137.72
1959.267	136.97
1962.466	137.75
1965.665	137.15
1968.863	137.96
1972.061	139.23
1975.259	140.85
1978.457	142.05
1981.654	143.49
1984.852	143.68
1988.048	143.42
1991.245	144.8
1994.441	145.93
1997.637	147.8
2000.833	150.81
2004.028	152.24
2007.223	153.93
2010.418	154.8
2013.613	158.16
2016.807	159.64
2020.001	161.8
2023.194	164.88
2026.388	168.48
2029.581	172.29
2032.774	173.14
2035.966	175.93
2039.158	176.52
2042.35	179.13
2045.542	181.09
2048.733	183.45
2051.924	186.28
2055.115	189.2
2058.306	189.39
2061.496	190.81
2064.686	190.94
2067.875	194.65
2071.065	196.35
2074.254	196.1
2077.442	199.07
2080.631	199.62
2083.819	201.55
2087.007	202.59
2090.195	204.71
2093.382	206.07
2096.569	205.63
2099.756	210.28
2102.942	210.56
2106.128	211.48
2109.314	216.02
2112.5	215.17
2115.685	220
2118.87	220.52
2122.055	224.05
2125.239	224.86
2128.424	228.68
2131.608	230.21
2134.791	233.2
2137.974	233.85
2141.157	235.04
2144.34	235.49
2147.523	238.5
2150.705	237.18
2153.887	240.42
2157.068	240.55
2160.25	239.14
2163.431	240.61
2166.611	242.55
2169.792	245.51
2172.972	248.25
2176.152	250.85
2179.331	254.14
2182.511	258.2
2185.69	259.37
2188.868	265.19
2192.047	264.98
2195.225	273.37
2198.403	277.57
2201.58	284.67
2204.758	288.82
2207.935	294.95
2211.111	299.04
2214.288	301.96
2217.464	302.43
2220.64	311.27
2223.815	312.37
2226.991	325.22
2230.166	324.76
2233.34	329.67
2236.515	333.43
2239.689	335.78
2242.863	337.92
2246.036	347.51
2249.209	347.26
2252.382	352.94
2255.555	361.37
2258.727	363.21
2261.9	365.29
2265.071	369.3
2268.243	376.49
2271.414	381.17
2274.585	388.24
2277.756	393.24
2280.926	399.41
2284.096	405.87
2287.266	414.02
2290.436	416.52
2293.605	425.03
2296.774	436.37
2299.942	448.97
2303.111	452.39
2306.279	463.14
2309.447	466.89
2312.614	477.26
2315.781	486.75
2318.948	510.78
2322.115	505.44
2325.281	533.91
2328.447	522.09
2331.613	546.35
2334.779	541.11
2337.944	566.57
2341.109	569.95
2344.274	589.22
2347.438	607.1
2350.602	605.77
2353.766	625.61
2356.929	635.19
2360.092	631.77
2363.255	678.17
2366.418	676.03
2369.58	688.53
2372.742	726.47
2375.904	746.88
2379.066	742.95
2382.227	731.39
2385.388	791.29
2388.548	789.94
2391.709	801.77
2394.869	888.35
2398.029	852.55
2401.188	878.44
2404.347	870.77
2407.506	856.01
2410.665	878.42
2413.823	933.65
2416.981	989.62
2420.139	959.47
2423.296	948.65
2426.453	985.3
2429.61	948.44
2432.767	989.56
2435.923	976.83
2439.079	1074.75
2442.235	1092.14
2445.391	1081.83
2448.546	1068.19
2451.701	1043.1
2454.855	1041.43
2458.009	1102.62
2461.163	1152.34
2464.317	1192.6
2467.471	1226.96
2470.624	1231.28
2473.777	1196.06
2476.929	1163.22
2480.082	1127.53
2483.234	1118.47
2486.385	1172.23
2489.537	1179.17
2492.688	1225.86
2495.839	1187.65
2498.989	1162.22
2502.14	1164.34
2505.29	1166.12
2508.439	1185.78
2511.589	1184.98
2514.738	1294.98
2517.887	1265.96
2521.035	1331.63
2524.183	1346.33
2527.331	1351.86
2530.479	1345.84
2533.627	1355.76
