Data from C_1_DIV_WI_4N_Splice17_12-54-26-810.txt Node
Date: Sat Mar 07 12:54:26 EST 2020
User: sa697716
Spectrometer: NQ5500242
Trigger mode: 0
Integration Time (sec): 1.450000E-1
Scans to average: 20
Nonlinearity correction enabled: false
Boxcar width: 5
Storing dark spectrum: false
XAxis mode: Wavelengths
Number of Pixels in Spectrum: 512
>>>>>Begin Spectral Data<<<<<
187.83	99.32
188.298	107.75
188.766	84.52
189.233	66.22
189.701	69.5
190.169	88.29
190.636	81.16
191.104	19.09
191.571	-97.44
192.039	105.47
192.506	43.43
192.974	-35.58
193.441	11.89
193.908	-31.88
194.375	-30.06
194.842	-39.27
195.31	-19.31
195.777	-87.93
196.244	17.2
196.711	30.63
197.177	36.79
197.644	36.37
198.111	37.38
198.578	37.18
199.045	37.94
199.511	38.14
199.978	38.15
200.445	38.19
200.911	38.16
201.378	38.36
201.844	38.46
202.31	38.1
202.777	38.44
203.243	38.5
203.709	38.55
204.176	37.93
204.642	37.82
205.108	38.05
205.574	38.19
206.04	37.99
206.506	37.75
206.972	38.08
207.438	38.16
207.903	37.75
208.369	36.99
208.835	36.63
209.301	35.97
209.766	35.2
210.232	34.22
210.697	33.43
211.163	32.96
211.628	32.56
212.094	31.86
212.559	31.32
213.024	30.8
213.49	30.48
213.955	29.9
214.42	29.62
214.885	29.21
215.35	28.54
215.815	27.62
216.28	26.42
216.745	24.96
217.21	23.65
217.675	22.38
218.14	21.34
218.604	20.39
219.069	19.54
219.534	18.92
219.998	18.28
220.463	17.85
220.927	17.37
221.392	16.98
221.856	16.71
222.32	16.41
222.785	16.17
223.249	15.92
223.713	15.7
224.177	15.52
224.642	15.3
225.106	15.09
225.57	14.86
226.034	14.68
226.497	14.48
226.961	14.28
227.425	14.1
227.889	13.91
228.353	13.72
228.816	13.51
229.28	13.34
229.744	13.17
230.207	13
230.671	12.84
231.134	12.67
231.597	12.53
232.061	12.36
232.524	12.21
232.987	12.06
233.45	11.92
233.914	11.79
234.377	11.62
234.84	11.48
235.303	11.35
235.766	11.22
236.229	11.09
236.691	10.96
237.154	10.86
237.617	10.74
238.08	10.63
238.542	10.51
239.005	10.41
239.468	10.32
239.93	10.21
240.393	10.12
240.855	10
241.317	9.9
241.78	9.8
242.242	9.68
242.704	9.59
243.166	9.48
243.629	9.39
244.091	9.28
244.553	9.18
245.015	9.08
245.477	8.98
245.939	8.9
246.4	8.79
246.862	8.71
247.324	8.63
247.786	8.55
248.247	8.47
248.709	8.37
249.17	8.28
249.632	8.2
250.093	8.13
250.555	8.05
251.016	7.98
251.477	7.91
251.939	7.84
252.4	7.77
252.861	7.69
253.322	7.64
253.783	7.58
254.244	7.54
254.705	7.47
255.166	7.41
255.627	7.35
256.088	7.3
256.549	7.25
257.009	7.19
257.47	7.14
257.931	7.08
258.391	7.02
258.852	6.97
259.312	6.92
259.773	6.87
260.233	6.82
260.694	6.77
261.154	6.71
261.614	6.67
262.074	6.63
262.534	6.58
262.994	6.54
263.455	6.5
263.915	6.47
264.374	6.43
264.834	6.4
265.294	6.36
265.754	6.33
266.214	6.3
266.673	6.27
267.133	6.23
267.593	6.21
268.052	6.19
268.512	6.17
268.971	6.14
269.431	6.11
269.89	6.09
270.349	6.06
270.809	6.03
271.268	6.01
271.727	5.99
272.186	5.97
272.645	5.95
273.104	5.91
273.563	5.89
274.022	5.86
274.481	5.84
274.94	5.82
275.399	5.8
275.857	5.78
276.316	5.76
276.775	5.74
277.233	5.71
277.692	5.69
278.15	5.66
278.609	5.64
279.067	5.62
279.525	5.59
279.984	5.57
280.442	5.55
280.9	5.53
281.358	5.5
281.816	5.49
282.274	5.46
282.732	5.44
283.19	5.42
283.648	5.4
284.106	5.37
284.564	5.36
285.021	5.34
285.479	5.32
285.937	5.31
286.394	5.29
286.852	5.27
287.309	5.25
287.767	5.23
288.224	5.2
288.682	5.17
289.139	5.14
289.596	5.11
290.053	5.07
290.511	5.03
290.968	4.99
291.425	4.96
291.882	4.93
292.339	4.91
292.796	4.89
293.252	4.87
293.709	4.86
294.166	4.84
294.623	4.82
295.079	4.8
295.536	4.78
295.992	4.77
296.449	4.75
296.905	4.73
297.362	4.71
297.818	4.69
298.274	4.67
298.731	4.64
299.187	4.62
299.643	4.6
300.099	4.59
300.555	4.57
301.011	4.55
301.467	4.54
301.923	4.52
302.379	4.5
302.835	4.49
303.291	4.48
303.746	4.47
304.202	4.46
304.658	4.45
305.113	4.44
305.569	4.42
306.024	4.42
306.479	4.4
306.935	4.38
307.39	4.37
307.845	4.36
308.301	4.35
308.756	4.35
309.211	4.32
309.666	4.32
310.121	4.31
310.576	4.3
311.031	4.3
311.486	4.29
311.94	4.29
312.395	4.28
312.85	4.27
313.305	4.25
313.759	4.25
314.214	4.24
314.668	4.22
315.123	4.21
315.577	4.2
316.032	4.19
316.486	4.16
316.94	4.15
317.394	4.14
317.849	4.12
318.303	4.1
318.757	4.08
319.211	4.06
319.665	4.04
320.119	4.03
320.572	4.01
321.026	3.99
321.48	3.98
321.934	3.97
322.387	3.96
322.841	3.95
323.295	3.95
323.748	3.95
324.202	3.94
324.655	3.93
325.108	3.92
325.562	3.92
326.015	3.91
326.468	3.9
326.921	3.88
327.374	3.87
327.827	3.87
328.28	3.85
328.733	3.84
329.186	3.83
329.639	3.83
330.092	3.82
330.545	3.81
330.997	3.79
331.45	3.8
331.903	3.8
332.355	3.8
332.808	3.79
333.26	3.78
333.713	3.77
334.165	3.76
334.617	3.76
335.069	3.75
335.522	3.75
335.974	3.76
336.426	3.74
336.878	3.73
337.33	3.73
337.782	3.73
338.234	3.73
338.686	3.73
339.137	3.73
339.589	3.71
340.041	3.71
340.493	3.7
340.944	3.68
341.396	3.67
341.847	3.66
342.299	3.64
342.75	3.62
343.201	3.59
343.653	3.58
344.104	3.56
344.555	3.55
345.006	3.53
345.457	3.51
345.908	3.5
346.359	3.49
346.81	3.48
347.261	3.47
347.712	3.46
348.163	3.45
348.613	3.44
349.064	3.44
349.515	3.43
349.965	3.43
350.416	3.41
350.866	3.41
351.317	3.39
351.767	3.39
352.217	3.38
352.668	3.38
353.118	3.38
353.568	3.37
354.018	3.37
354.468	3.37
354.918	3.37
355.368	3.38
355.818	3.38
356.268	3.39
356.718	3.38
357.168	3.37
357.617	3.36
358.067	3.36
358.517	3.36
358.966	3.36
359.416	3.36
359.865	3.35
360.315	3.35
360.764	3.33
361.213	3.33
361.663	3.32
362.112	3.32
362.561	3.33
363.01	3.32
363.459	3.31
363.908	3.3
364.357	3.28
364.806	3.27
365.255	3.26
365.703	3.27
366.152	3.26
366.601	3.26
367.05	3.26
367.498	3.25
367.947	3.25
368.395	3.25
368.844	3.25
369.292	3.25
369.74	3.26
370.189	3.26
370.637	3.24
371.085	3.23
371.533	3.22
371.981	3.22
372.429	3.21
372.877	3.2
373.325	3.19
373.773	3.19
374.221	3.18
374.669	3.17
375.116	3.15
375.564	3.15
376.012	3.15
376.459	3.15
376.907	3.15
377.354	3.15
377.801	3.15
378.249	3.15
378.696	3.15
379.143	3.14
379.591	3.15
380.038	3.16
380.485	3.16
380.932	3.15
381.379	3.15
381.826	3.14
382.273	3.14
382.72	3.13
383.166	3.12
383.613	3.12
384.06	3.11
384.506	3.1
384.953	3.1
385.4	3.09
385.846	3.11
386.292	3.1
386.739	3.1
387.185	3.1
387.631	3.11
388.078	3.11
388.524	3.12
388.97	3.12
389.416	3.13
389.862	3.14
390.308	3.16
390.754	3.17
391.2	3.18
391.645	3.19
392.091	3.22
392.537	3.23
392.983	3.24
393.428	3.25
393.874	3.26
394.319	3.27
394.765	3.27
395.21	3.26
395.655	3.26
396.101	3.27
396.546	3.28
396.991	3.29
397.436	3.3
397.881	3.32
398.326	3.33
398.771	3.33
399.216	3.35
399.661	3.37
400.106	3.38
400.551	3.39
400.995	3.39
401.44	3.4
401.885	3.4
402.329	3.42
402.774	3.42
403.218	3.45
403.663	3.48
404.107	3.48
404.551	3.49
404.995	3.5
405.44	3.5
405.884	3.51
406.328	3.52
406.772	3.53
407.216	3.53
407.66	3.54
408.104	3.52
408.547	3.52
408.991	3.53
409.435	3.53
409.879	3.55
410.322	3.57
410.766	3.57
411.209	3.6
411.653	3.61
412.096	3.62
412.54	3.63
412.983	3.65
413.426	3.68
413.869	3.68
414.312	3.71
414.756	3.72
415.199	3.72
415.642	3.73
416.085	3.73
416.527	3.72
416.97	3.71
417.413	3.71
417.856	3.72
418.298	3.71
418.741	3.72
419.184	3.71
419.626	3.71
420.069	3.73
420.511	3.74
420.953	3.74
421.396	3.75
421.838	3.77
422.28	3.77
422.722	3.79
423.164	3.79
423.606	3.78
424.048	3.79
424.49	3.79
424.932	3.78
425.374	3.77
425.816	3.76
426.258	3.75
426.699	3.74
427.141	3.73
427.582	3.74
428.024	3.76
428.465	3.77
428.907	3.75
429.348	3.74
429.789	3.74
430.231	3.75
430.672	3.78
431.113	3.8
431.554	3.81
431.995	3.82
432.436	3.81
432.877	3.81
433.318	3.8
433.759	3.84
434.2	3.86
434.64	3.88
435.081	3.89
435.522	3.89
435.962	3.89
436.403	3.92
436.843	3.92
437.284	3.93
437.724	3.94
438.164	3.94
438.604	3.93
439.045	3.94
439.485	3.95
439.925	3.94
440.365	3.95
440.805	3.95
441.245	3.96
441.685	3.98
442.125	4
442.564	4.01
443.004	4.02
443.444	4.04
443.883	4.04
444.323	4.02
444.762	4.02
445.202	4.02
445.641	4.03
446.081	4.04
446.52	4.03
446.959	4.03
447.398	4.04
447.837	4.06
448.276	4.06
448.716	4.06
449.154	4.1
449.593	4.12
450.032	4.11
450.471	4.11
450.91	4.1
451.349	4.1
451.787	4.09
452.226	4.09
452.664	4.08
453.103	4.08
453.541	4.07
453.98	4.07
454.418	4.04
454.856	4.04
455.295	4.04
455.733	4.02
456.171	4.01
456.609	4.01
457.047	3.98
457.485	3.98
457.923	3.97
458.361	3.97
458.798	3.96
459.236	3.96
459.674	3.96
460.111	3.95
460.549	3.95
460.987	3.96
461.424	3.97
461.862	3.98
462.299	3.99
462.736	3.99
463.173	3.99
463.611	4
464.048	3.99
464.485	3.99
464.922	4
465.359	4.02
465.796	4.03
466.233	4.02
466.67	4.02
467.106	4.02
467.543	4.01
467.98	4.01
468.416	3.99
468.853	4
469.29	3.99
469.726	3.98
470.162	3.97
470.599	3.94
471.035	3.93
471.471	3.91
471.907	3.92
472.344	3.91
472.78	3.92
473.216	3.91
473.652	3.91
474.088	3.89
474.523	3.89
474.959	3.88
475.395	3.88
475.831	3.88
476.266	3.87
476.702	3.86
477.138	3.85
477.573	3.83
478.008	3.83
478.444	3.81
478.879	3.82
479.314	3.81
479.75	3.8
480.185	3.79
480.62	3.77
481.055	3.76
481.49	3.75
481.925	3.75
482.36	3.75
482.795	3.74
483.229	3.74
483.664	3.74
484.099	3.72
484.534	3.72
484.968	3.72
485.403	3.73
485.837	3.73
486.271	3.74
486.706	3.74
487.14	3.74
487.574	3.74
488.009	3.75
488.443	3.75
488.877	3.77
489.311	3.8
489.745	3.81
490.179	3.83
490.613	3.85
491.046	3.86
491.48	3.89
491.914	3.91
492.348	3.93
492.781	3.95
493.215	3.98
493.648	4.01
494.082	4.03
494.515	4.06
494.948	4.09
495.382	4.12
495.815	4.16
496.248	4.2
496.681	4.25
497.114	4.29
497.547	4.34
497.98	4.39
498.413	4.43
498.846	4.49
499.279	4.55
499.711	4.6
500.144	4.67
500.577	4.73
501.009	4.79
501.442	4.87
501.874	4.95
502.306	5.03
502.739	5.12
503.171	5.21
503.603	5.29
504.036	5.39
504.468	5.49
504.9	5.58
505.332	5.69
505.764	5.82
506.196	5.93
506.627	6.05
507.059	6.18
507.491	6.31
507.923	6.45
508.354	6.61
508.786	6.76
509.217	6.93
509.649	7.1
510.08	7.27
510.512	7.44
510.943	7.62
511.374	7.8
511.805	7.99
512.237	8.17
512.668	8.37
513.099	8.56
513.53	8.77
513.961	8.97
514.391	9.18
514.822	9.4
515.253	9.61
515.684	9.83
516.114	10.06
516.545	10.29
516.975	10.53
517.406	10.77
517.836	11
518.267	11.24
518.697	11.47
519.127	11.7
519.558	11.93
519.988	12.15
520.418	12.39
520.848	12.61
521.278	12.84
521.708	13.19
522.138	13.42
522.567	13.64
522.997	13.85
523.427	14.06
523.857	14.27
524.286	14.48
524.716	14.7
525.145	14.88
525.575	15.08
526.004	15.27
526.433	15.31
526.863	15.47
527.292	15.64
527.721	15.8
528.15	15.95
528.579	16.09
529.008	16.22
529.437	16.35
529.866	16.48
530.295	16.6
530.724	16.71
531.152	16.83
531.581	16.95
532.01	17.05
532.438	17.15
532.867	17.24
533.295	17.34
533.723	17.43
534.152	17.51
534.58	17.59
535.008	17.64
535.436	17.71
535.865	17.78
536.293	17.83
536.721	17.88
537.149	17.92
537.576	17.96
538.004	18
538.432	18.05
538.86	18.08
539.287	18.12
539.715	18.17
540.143	18.2
540.57	18.23
540.998	18.26
541.425	18.3
541.852	18.34
542.28	18.37
542.707	18.4
543.134	18.42
543.561	18.45
543.988	18.47
544.415	18.47
544.842	18.49
545.269	18.5
545.696	18.52
546.123	18.53
546.549	18.54
546.976	18.56
547.403	18.57
547.829	18.59
548.256	18.61
548.682	18.62
549.108	18.65
549.535	18.67
549.961	18.68
550.387	18.68
550.813	18.69
551.24	18.68
551.666	18.67
552.092	18.67
552.518	18.67
552.943	18.64
553.369	18.63
553.795	18.59
554.221	18.55
554.646	18.51
555.072	18.48
555.498	18.42
555.923	18.37
556.349	18.31
556.774	18.24
557.199	18.18
557.625	18.12
558.05	18.03
558.475	17.95
558.9	17.89
559.325	17.83
559.75	17.75
560.175	17.67
560.6	17.58
561.025	17.5
561.449	17.4
561.874	17.29
562.299	17.18
562.723	17.09
563.148	16.97
563.572	16.85
563.997	16.71
564.421	16.57
564.846	16.43
565.27	16.31
565.694	16.18
566.118	16.05
566.542	15.93
566.966	15.79
567.39	15.65
567.814	15.51
568.238	15.38
568.662	15.24
569.086	15.12
569.509	15
569.933	14.87
570.357	14.73
570.78	14.6
571.204	14.45
571.627	14.32
572.05	14.2
572.474	14.1
572.897	13.99
573.32	13.89
573.743	13.77
574.166	13.67
574.589	13.56
575.012	13.46
575.435	13.36
575.858	13.28
576.281	13.2
576.704	13.1
577.126	13.01
577.549	12.91
577.972	12.82
578.394	12.72
578.817	12.64
579.239	12.55
579.661	12.47
580.084	12.4
580.506	12.33
580.928	12.25
581.35	12.18
581.772	12.1
582.194	12.05
582.616	11.98
583.038	11.93
583.46	11.86
583.882	11.8
584.303	11.74
584.725	11.68
585.147	11.61
585.568	11.54
585.99	11.48
586.411	11.43
586.833	11.37
587.254	11.31
587.675	11.26
588.096	11.21
588.518	11.16
588.939	11.12
589.36	11.08
589.781	11.03
590.202	11
590.623	10.95
591.043	10.91
591.464	10.87
591.885	10.84
592.305	10.8
592.726	10.77
593.147	10.74
593.567	10.71
593.987	10.68
594.408	10.66
594.828	10.62
595.248	10.6
595.669	10.56
596.089	10.54
596.509	10.51
596.929	10.48
597.349	10.45
597.769	10.42
598.189	10.39
598.608	10.36
599.028	10.32
599.448	10.29
599.867	10.26
600.287	10.24
600.706	10.2
601.126	10.17
601.545	10.13
601.965	10.1
602.384	10.06
602.803	10.01
603.222	9.97
603.641	9.94
604.061	9.89
604.48	9.84
604.898	9.79
605.317	9.75
605.736	9.69
606.155	9.64
606.574	9.59
606.992	9.54
607.411	9.49
607.829	9.41
608.248	9.34
608.666	9.29
609.085	9.23
609.503	9.17
609.921	9.11
610.339	9.06
610.758	8.99
611.176	8.92
611.594	8.87
612.012	8.8
612.43	8.77
612.847	8.71
613.265	8.65
613.683	8.59
614.101	8.54
614.518	8.47
614.936	8.41
615.353	8.36
615.771	8.3
616.188	8.24
616.606	8.2
617.023	8.14
617.44	8.11
617.857	8.07
618.274	8.02
618.691	7.98
619.108	7.95
619.525	7.91
619.942	7.88
620.359	7.85
620.776	7.82
621.192	7.79
621.609	7.77
622.026	7.74
622.442	7.72
622.859	7.7
623.275	7.69
623.691	7.67
624.108	7.66
624.524	7.64
624.94	7.62
625.356	7.62
625.772	7.61
626.188	7.61
626.604	7.59
627.02	7.58
627.436	7.57
627.852	7.55
628.268	7.55
628.683	7.53
629.099	7.52
629.514	7.51
629.93	7.49
630.345	7.47
630.761	7.44
631.176	7.42
631.591	7.38
632.007	7.35
632.422	7.32
632.837	7.27
633.252	7.23
633.667	7.18
634.082	7.12
634.497	7.06
634.911	7
635.326	6.94
635.741	6.89
636.155	6.82
636.57	6.75
636.984	6.69
637.399	6.62
637.813	6.55
638.228	6.47
638.642	6.39
639.056	6.31
639.47	6.23
639.884	6.15
640.298	6.06
640.712	5.98
641.126	5.9
641.54	5.8
641.954	5.72
642.368	5.64
642.781	5.57
643.195	5.5
643.609	5.43
644.022	5.36
644.436	5.3
644.849	5.23
645.262	5.18
645.676	5.13
646.089	5.08
646.502	5.04
646.915	4.98
647.328	4.94
647.741	4.9
648.154	4.86
648.567	4.83
648.98	4.79
649.393	4.76
649.805	4.73
650.218	4.71
650.631	4.69
651.043	4.66
651.456	4.65
651.868	4.62
652.28	4.6
652.693	4.57
653.105	4.55
653.517	4.53
653.929	4.5
654.341	4.47
654.753	4.43
655.165	4.39
655.577	4.36
655.989	4.32
656.401	4.27
656.813	4.24
657.224	4.2
657.636	4.14
658.047	4.1
658.459	4.05
658.87	4
659.282	3.96
659.693	3.92
660.104	3.86
660.515	3.81
660.926	3.78
661.338	3.73
661.749	3.69
662.159	3.65
662.57	3.62
662.981	3.58
663.392	3.55
663.803	3.53
664.213	3.49
664.624	3.47
665.035	3.44
665.445	3.4
665.855	3.38
666.266	3.36
666.676	3.34
667.086	3.32
667.497	3.32
667.907	3.31
668.317	3.29
668.727	3.29
669.137	3.29
669.547	3.29
669.956	3.3
670.366	3.3
670.776	3.3
671.186	3.31
671.595	3.3
672.005	3.29
672.414	3.3
672.824	3.3
673.233	3.31
673.642	3.32
674.052	3.33
674.461	3.33
674.87	3.35
675.279	3.38
675.688	3.39
676.097	3.42
676.506	3.45
676.915	3.48
677.323	3.51
677.732	3.53
678.141	3.56
678.549	3.59
678.958	3.63
679.366	3.67
679.775	3.7
680.183	3.74
680.592	3.79
681	3.84
681.408	3.89
681.816	3.94
682.224	4.01
682.632	4.08
683.04	4.15
683.448	4.22
683.856	4.29
684.264	4.39
684.671	4.49
685.079	4.59
685.487	4.73
685.894	4.87
686.302	5.03
686.709	5.2
687.116	5.4
687.524	5.61
687.931	5.84
688.338	6.1
688.745	6.37
689.152	6.65
689.559	6.96
689.966	7.29
690.373	7.64
690.78	8.01
691.187	8.38
691.593	8.78
692	9.2
692.407	9.62
692.813	10.06
693.22	10.52
693.626	10.97
694.032	11.43
694.439	11.91
694.845	12.39
695.251	12.87
695.657	13.37
696.063	13.86
696.469	14.37
696.875	14.89
697.281	15.39
697.687	15.91
698.093	16.42
698.498	16.94
698.904	17.45
699.31	17.97
699.715	18.47
700.12	18.97
700.526	19.47
700.931	19.95
701.337	20.43
701.742	20.91
702.147	21.38
702.552	21.87
702.957	22.32
703.362	22.77
703.767	23.22
704.172	23.66
704.577	24.1
704.981	24.53
705.386	24.97
705.791	25.4
706.195	25.83
706.6	26.27
707.004	26.67
707.408	27.1
707.813	27.51
708.217	27.92
708.621	28.33
709.025	28.72
709.43	29.1
709.834	29.5
710.237	29.88
710.641	30.25
711.045	30.6
711.449	30.97
711.853	31.35
712.256	31.71
712.66	32.06
713.064	32.4
713.467	32.76
713.87	33.12
714.274	33.47
714.677	33.79
715.08	34.11
715.484	34.45
715.887	34.76
716.29	35.04
716.693	35.33
717.096	35.64
717.499	35.93
717.901	36.21
718.304	36.49
718.707	36.74
719.109	37.02
719.512	37.29
719.915	37.55
720.317	37.78
720.719	38.02
721.122	38.28
721.524	38.52
721.926	38.76
722.328	39.01
722.731	39.23
723.133	39.49
723.535	39.71
723.937	39.93
724.338	40.12
724.74	40.33
725.142	40.58
725.544	40.74
725.945	40.95
726.347	41.09
726.748	41.22
727.15	41.37
727.551	41.51
727.952	41.64
728.354	41.77
728.755	41.9
729.156	42.05
729.557	42.11
729.958	42.27
730.359	42.38
730.76	42.51
731.161	42.65
731.562	42.78
731.962	42.86
732.363	42.99
732.763	43.1
733.164	43.18
733.564	43.29
733.965	43.38
734.365	43.47
734.766	43.54
735.166	43.64
735.566	43.72
735.966	43.79
736.366	43.88
736.766	43.93
737.166	44.01
737.566	44.1
737.966	44.16
738.365	44.22
738.765	44.29
739.165	44.35
739.564	44.4
739.964	44.44
740.363	44.47
740.763	44.52
741.162	44.57
741.561	44.61
741.96	44.64
742.36	44.69
742.759	44.74
743.158	44.76
743.557	44.78
743.955	44.82
744.354	44.84
744.753	44.89
745.152	44.95
745.55	44.98
745.949	44.99
746.348	45.05
746.746	45.04
747.144	45.06
747.543	45.1
747.941	45.12
748.339	45.13
748.737	45.15
749.136	45.14
749.534	45.14
749.932	45.13
750.33	45.14
750.727	45.14
751.125	45.16
751.523	45.15
751.921	45.16
752.318	45.19
752.716	45.22
753.113	45.23
753.511	45.28
753.908	45.3
754.305	45.34
754.703	45.33
755.1	45.35
755.497	45.36
755.894	45.37
756.291	45.37
756.688	45.37
757.085	45.37
757.482	45.37
757.878	45.36
758.275	45.33
758.672	45.34
759.068	45.39
759.465	45.38
759.861	45.39
760.258	45.41
760.654	45.41
761.05	45.41
761.447	45.43
761.843	45.44
762.239	45.45
762.635	45.47
763.031	45.48
763.427	45.46
763.822	45.48
764.218	45.5
764.614	45.49
765.01	45.5
765.405	45.49
765.801	45.47
766.196	45.46
766.592	45.45
766.987	45.43
767.382	45.39
767.778	45.39
768.173	45.39
768.568	45.37
768.963	45.36
769.358	45.36
769.753	45.38
770.148	45.36
770.542	45.36
770.937	45.34
771.332	45.33
771.726	45.37
772.121	45.35
772.515	45.35
772.91	45.35
773.304	45.36
773.699	45.35
774.093	45.33
774.487	45.36
774.881	45.38
775.275	45.37
775.669	45.38
776.063	45.37
776.457	45.39
776.851	45.38
777.245	45.34
777.638	45.29
778.032	45.31
778.425	45.32
778.819	45.3
779.212	45.29
779.606	45.34
779.999	45.33
780.392	45.34
780.786	45.32
781.179	45.34
781.572	45.4
781.965	45.44
782.358	45.43
782.751	45.42
783.143	45.44
783.536	45.45
783.929	45.44
784.322	45.44
784.714	45.46
785.107	45.49
785.499	45.49
785.891	45.48
786.284	45.49
786.676	45.48
787.068	45.45
787.46	45.44
787.852	45.45
788.245	45.44
788.636	45.45
789.028	45.43
789.42	45.4
789.812	45.4
790.204	45.39
790.595	45.4
790.987	45.42
791.378	45.49
791.77	45.49
792.161	45.46
792.553	45.48
792.944	45.44
793.335	45.47
793.726	45.47
794.117	45.47
794.508	45.47
794.899	45.45
795.29	45.44
795.681	45.38
796.072	45.38
796.463	45.39
796.853	45.36
797.244	45.38
797.634	45.35
798.025	45.37
798.415	45.35
798.806	45.33
799.196	45.32
799.586	45.34
799.976	45.38
800.366	45.39
800.756	45.43
801.146	45.45
801.536	45.45
801.926	45.44
802.316	45.41
802.706	45.44
803.095	45.43
803.485	45.42
803.874	45.4
804.264	45.39
804.653	45.36
805.043	45.32
805.432	45.34
805.821	45.34
806.21	45.38
806.599	45.4
806.988	45.4
807.377	45.45
807.766	45.44
808.155	45.42
808.544	45.43
808.933	45.42
809.321	45.42
809.71	45.42
810.098	45.37
810.487	45.33
810.875	45.3
811.264	45.29
811.652	45.28
812.04	45.27
812.428	45.32
812.816	45.28
813.204	45.28
813.592	45.27
813.98	45.24
814.368	45.27
814.756	45.26
815.144	45.27
815.531	45.24
815.919	45.21
816.306	45.21
816.694	45.19
817.081	45.22
817.469	45.23
817.856	45.22
818.243	45.23
818.63	45.21
819.017	45.18
819.404	45.18
819.791	45.19
820.178	45.18
820.565	45.18
820.952	45.17
821.339	45.15
821.725	45.13
822.112	45.13
822.498	45.14
822.885	45.17
823.271	45.18
823.657	45.17
824.044	45.17
824.43	45.18
824.816	45.18
825.202	45.19
825.588	45.18
825.974	45.18
826.36	45.2
826.746	45.18
827.132	45.17
827.517	45.19
827.903	45.22
828.289	45.21
828.674	45.2
829.06	45.23
829.445	45.24
829.83	45.24
830.216	45.23
830.601	45.2
830.986	45.19
831.371	45.17
831.756	45.18
832.141	45.16
832.526	45.17
832.911	45.18
833.295	45.16
833.68	45.15
834.065	45.16
834.449	45.15
834.834	45.16
835.218	45.18
835.603	45.19
835.987	45.18
836.371	45.18
836.755	45.17
837.139	45.14
837.524	45.17
837.908	45.18
838.291	45.2
838.675	45.22
839.059	45.23
839.443	45.22
839.827	45.22
840.21	45.19
840.594	45.19
840.977	45.2
841.361	45.21
841.744	45.18
842.127	45.17
842.511	45.16
842.894	45.16
843.277	45.16
843.66	45.15
844.043	45.15
844.426	45.17
844.809	45.18
845.191	45.21
845.574	45.22
845.957	45.24
846.339	45.24
846.722	45.23
847.104	45.25
847.487	45.26
847.869	45.27
848.252	45.27
848.634	45.27
849.016	45.28
849.398	45.27
849.78	45.29
850.162	45.27
850.544	45.29
850.926	45.3
851.307	45.28
851.689	45.27
852.071	45.29
852.452	45.29
852.834	45.29
853.215	45.27
853.597	45.26
853.978	45.23
854.359	45.25
854.741	45.23
855.122	45.23
855.503	45.22
855.884	45.22
856.265	45.21
856.646	45.16
857.026	45.19
857.407	45.19
857.788	45.18
858.169	45.19
858.549	45.18
858.93	45.16
859.31	45.15
859.69	45.18
860.071	45.21
860.451	45.21
860.831	45.24
861.211	45.23
861.591	45.21
861.971	45.22
862.351	45.22
862.731	45.2
863.111	45.22
863.491	45.22
863.87	45.2
864.25	45.17
864.629	45.16
865.009	45.18
865.388	45.18
865.768	45.19
866.147	45.2
866.526	45.2
866.905	45.21
867.284	45.21
867.663	45.2
868.042	45.2
868.421	45.22
868.8	45.22
869.179	45.21
869.558	45.21
869.936	45.22
870.315	45.21
870.693	45.18
871.072	45.2
871.45	45.19
871.828	45.18
872.207	45.19
872.585	45.16
872.963	45.16
873.341	45.16
873.719	45.16
874.097	45.15
874.475	45.16
874.853	45.18
875.23	45.19
875.608	45.2
875.986	45.22
876.363	45.22
876.741	45.24
877.118	45.25
877.495	45.25
877.873	45.25
878.25	45.27
878.627	45.3
879.004	45.3
879.381	45.31
879.758	45.3
880.135	45.29
880.512	45.29
880.889	45.29
881.265	45.26
881.642	45.27
882.019	45.27
882.395	45.26
882.772	45.24
883.148	45.23
883.524	45.21
883.901	45.21
884.277	45.2
884.653	45.19
885.029	45.17
885.405	45.18
885.781	45.18
886.157	45.18
886.532	45.19
886.908	45.17
887.284	45.17
887.659	45.15
888.035	45.12
888.411	45.14
888.786	45.13
889.161	45.14
889.537	45.13
889.912	45.13
890.287	45.13
890.662	45.11
891.037	45.13
891.412	45.09
891.787	45.09
892.162	45.11
892.536	45.09
892.911	45.1
893.286	45.09
893.66	45.07
894.035	45.06
894.409	45.07
894.784	45.07
895.158	45.07
895.532	45.11
895.906	45.09
896.281	45.1
896.655	45.11
897.029	45.11
897.402	45.1
897.776	45.12
898.15	45.12
898.524	45.11
898.898	45.11
899.271	45.1
899.645	45.09
900.018	45.11
900.392	45.12
900.765	45.14
901.138	45.14
901.511	45.16
901.884	45.15
902.258	45.15
902.631	45.16
903.003	45.15
903.376	45.14
903.749	45.14
904.122	45.13
904.495	45.13
904.867	45.11
905.24	45.13
905.612	45.14
905.985	45.14
906.357	45.13
906.729	45.14
907.102	45.16
907.474	45.19
907.846	45.19
908.218	45.2
908.59	45.2
908.962	45.23
909.334	45.23
909.705	45.22
910.077	45.25
910.449	45.25
910.82	45.23
911.192	45.25
911.563	45.23
911.935	45.21
912.306	45.22
912.677	45.24
913.048	45.22
913.419	45.2
913.79	45.22
914.161	45.21
914.532	45.22
914.903	45.27
915.274	45.25
915.645	45.25
916.015	45.28
916.386	45.29
916.756	45.27
917.127	45.28
917.497	45.28
917.868	45.28
918.238	45.27
918.608	45.29
918.978	45.27
919.348	45.28
919.718	45.24
920.088	45.23
920.458	45.21
920.828	45.17
921.198	45.14
921.567	45.14
921.937	45.1
922.306	45.09
922.676	45.04
923.045	45.04
923.415	45
923.784	45.03
924.153	45.03
924.522	45.03
924.891	45.07
925.26	45.09
925.629	45.08
925.998	45.09
926.367	45.12
926.736	45.15
927.104	45.14
927.473	45.16
927.842	45.13
928.21	45.16
928.578	45.14
928.947	45.15
929.315	45.15
929.683	45.17
930.051	45.17
930.42	45.14
930.788	45.11
931.156	45.11
931.523	45.09
931.891	45.18
932.259	45.16
932.627	45.18
932.994	45.14
933.362	45.11
933.729	45.11
934.097	45.14
934.464	45.17
934.831	45.18
935.199	45.16
935.566	45.15
935.933	45.02
936.3	44.99
936.667	44.97
937.034	44.98
937.401	45.03
937.767	45.01
938.134	44.95
938.501	44.92
938.867	44.9
939.234	44.87
939.6	44.87
939.967	44.9
940.333	44.86
940.699	44.87
941.065	44.81
941.431	44.77
941.798	44.69
942.163	44.65
942.529	44.63
942.895	44.67
943.261	44.63
943.627	44.59
943.992	44.63
944.358	44.59
944.723	44.56
945.089	44.54
945.454	44.57
945.82	44.62
946.185	44.7
946.55	44.64
946.915	44.57
947.28	44.58
947.645	44.61
948.01	44.62
948.375	44.63
948.74	44.64
949.104	44.66
949.469	44.63
949.834	44.59
950.198	44.54
950.562	44.53
950.927	44.54
951.291	44.48
951.655	44.43
952.02	44.42
952.384	44.4
952.748	44.37
953.112	44.41
953.476	44.35
953.839	44.31
954.203	44.28
954.567	44.24
954.931	44.2
955.294	44.23
955.658	44.28
956.021	44.24
956.385	44.24
956.748	44.24
957.111	44.17
957.474	44.19
957.837	44.15
958.2	44.18
958.563	44.22
958.926	44.2
959.289	44.24
959.652	44.22
960.015	44.2
960.377	44.21
960.74	44.23
961.102	44.27
961.465	44.34
961.827	44.44
962.189	44.44
962.552	44.45
962.914	44.51
963.276	44.5
963.638	44.52
964	44.53
964.362	44.54
964.724	44.5
965.085	44.46
965.447	44.42
965.809	44.42
966.17	44.41
966.532	44.37
966.893	44.37
967.255	44.38
967.616	44.36
967.977	44.36
968.338	44.4
968.699	44.47
969.061	44.45
969.421	44.47
969.782	44.48
970.143	44.51
970.504	44.55
970.865	44.57
971.225	44.61
971.586	44.59
971.946	44.55
972.307	44.47
972.667	44.41
973.027	44.46
973.388	44.49
973.748	44.49
974.108	44.58
974.468	44.57
974.828	44.58
975.188	44.5
975.548	44.48
975.907	44.57
976.267	44.61
976.627	44.65
976.986	44.61
977.346	44.54
977.705	44.44
978.064	44.39
978.424	44.38
978.783	44.34
979.142	44.33
979.501	44.38
979.86	44.37
980.219	44.31
980.578	44.3
980.937	44.36
981.296	44.41
981.654	44.49
982.013	44.5
982.371	44.54
982.73	44.52
983.088	44.54
983.447	44.51
983.805	44.5
984.163	44.57
984.521	44.61
984.879	44.53
985.237	44.55
985.595	44.57
985.953	44.53
986.311	44.49
986.669	44.56
987.026	44.59
987.384	44.64
987.741	44.61
988.099	44.66
988.456	44.67
988.814	44.78
989.171	44.73
989.528	44.66
989.885	44.68
990.242	44.72
990.599	44.7
990.956	44.73
991.313	44.73
991.67	44.71
992.027	44.78
992.383	44.79
992.74	44.86
993.096	44.89
993.453	44.92
993.809	44.98
994.165	44.98
994.522	45
994.878	45.03
995.234	45.08
995.59	45.1
995.946	45.04
996.302	45.02
996.658	45
997.013	45.04
997.369	45.06
997.725	44.97
998.08	45.01
998.436	45.06
998.791	45.04
999.147	44.95
999.502	45.01
999.857	45.02
1000.212	45.02
1000.567	44.92
1000.922	44.92
1001.277	44.96
1001.632	44.9
1001.987	44.83
1002.342	44.74
1002.696	44.79
1003.051	44.98
1003.406	45.02
1003.76	44.99
1004.114	44.92
1004.469	44.93
1004.823	45.1
1005.177	45.04
1005.531	45.26
1005.885	45.35
1006.239	45.32
1006.593	45.32
1006.947	45.31
1007.301	45.22
1007.655	45.26
1008.008	45.28
1008.362	45.3
1008.715	45.2
1009.069	45.23
1009.422	45.05
1009.776	45.02
1010.129	45.12
1010.482	45.14
1010.835	45.18
1011.188	45.25
1011.541	45.29
1011.894	45.37
1012.247	45.45
1012.6	45.46
1012.952	45.43
1013.305	45.57
1013.657	45.55
1014.01	45.5
1014.362	45.3
1014.715	45.35
1015.067	45.42
1015.419	45.42
1015.771	45.31
1016.123	45.37
1016.475	45.34
1016.827	45.61
1017.179	45.59
1017.531	45.78
1017.883	45.91
1018.234	46.11
1018.586	46.03
1018.938	46.04
1019.289	45.89
1019.64	45.94
1019.992	45.72
1020.343	45.64
1020.694	45.46
1021.045	45.46
1021.396	45.27
1021.747	45.27
1022.098	45.35
1022.449	45.3
1022.8	45.23
1023.151	45.33
1023.501	45.45
1023.852	45.64
1024.202	45.83
1024.553	45.7
1024.903	45.81
1025.253	46.15
1025.604	46.11
1025.954	45.81
1026.304	45.77
1026.654	45.85
1027.004	45.98
1027.354	46.02
1027.703	45.93
1028.053	45.82
1028.403	46.2
1028.753	46.06
1029.102	46.07
1029.452	46.21
1029.801	46.64
1030.15	46.8
1030.499	46.81
897.758	1043.96
901.051	1057.06
904.343	1054.27
907.636	1075.55
910.928	1046.87
914.22	1047.7
917.511	1034.88
920.803	985.95
924.094	981.07
927.384	960.14
930.675	920
933.965	918.41
937.255	864.23
940.544	830.47
943.834	789.44
947.123	783.81
950.411	738.64
953.7	723.31
956.988	689.04
960.276	663.65
963.563	652.6
966.851	630.47
970.138	624.66
973.424	603.95
976.711	607.12
979.997	576.63
983.283	572.65
986.568	560.58
989.853	543.53
993.138	531.73
996.423	511.85
999.708	497.37
1002.992	490.54
1006.275	470.97
1009.559	467.13
1012.842	449.63
1016.125	439.31
1019.408	431.13
1022.69	424.37
1025.972	416.39
1029.254	408.2
1032.536	400.74
1035.817	391.47
1039.098	388.36
1042.379	379.88
1045.659	375.33
1048.939	366.39
1052.219	359.25
1055.498	354.98
1058.778	346.89
1062.057	340.21
1065.335	336.39
1068.614	332.56
1071.892	330.08
1075.17	319.68
1078.447	312.72
1081.724	309.65
1085.001	309.24
1088.278	302.74
1091.554	295.11
1094.83	295.67
1098.106	292.06
1101.382	290.37
1104.657	288.74
1107.932	283.68
1111.206	285.8
1114.481	278.79
1117.755	277.01
1121.029	273.49
1124.302	272.83
1127.575	268.49
1130.848	265.74
1134.121	263.17
1137.393	261.19
1140.665	254.83
1143.937	253.98
1147.208	251.5
1150.48	251.01
1153.75	247.92
1157.021	244.81
1160.291	244.84
1163.561	242.78
1166.831	242.54
1170.101	240.63
1173.37	240.47
1176.639	241.57
1179.907	238.7
1183.176	235.87
1186.444	236.01
1189.711	235.72
1192.979	234.48
1196.246	233.32
1199.513	234.27
1202.78	232.19
1206.046	232.13
1209.312	229.67
1212.578	229.51
1215.843	231.89
1219.108	230.87
1222.373	235.04
1225.638	236.12
1228.902	239.16
1232.166	240.73
1235.43	241.48
1238.693	245.65
1241.956	246.7
1245.219	250.64
1248.482	251.22
1251.744	250.76
1255.006	250.41
1258.268	245.92
1261.529	244.14
1264.79	243.15
1268.051	240.47
1271.312	238.06
1274.572	235.07
1277.832	233.04
1281.092	229.23
1284.351	227.32
1287.61	227.41
1290.869	224.63
1294.128	222.47
1297.386	222.62
1300.644	220.01
1303.902	220.11
1307.159	220.15
1310.416	219.85
1313.673	219.1
1316.93	221.15
1320.186	221.26
1323.442	222.15
1326.697	225.36
1329.953	226.16
1333.208	226.23
1336.463	228.83
1339.717	229.39
1342.972	231.68
1346.226	233.86
1349.479	235.1
1352.733	236.1
1355.986	237.34
1359.238	236.23
1362.491	238.29
1365.743	239.85
1368.995	240.32
1372.247	239.97
1375.498	239.91
1378.749	241.58
1382	238.64
1385.251	238.98
1388.501	237.06
1391.751	237.18
1395	236.08
1398.25	234.16
1401.499	232.34
1404.748	232.04
1407.996	230.69
1411.244	229.38
1414.492	227
1417.74	224.43
1420.987	221.6
1424.234	221
1427.481	218.16
1430.728	218.68
1433.974	216.9
1437.22	214.61
1440.465	213.96
1443.711	211.22
1446.956	209.75
1450.201	207.88
1453.445	206.14
1456.689	205.18
1459.933	202.44
1463.177	200.26
1466.42	196.61
1469.663	193.75
1472.906	193.03
1476.148	188.44
1479.391	186.47
1482.633	185.2
1485.874	182.25
1489.115	180.92
1492.356	179.1
1495.597	178.11
1498.838	176.36
1502.078	175.78
1505.318	175.37
1508.557	175.31
1511.797	175.08
1515.036	174.07
1518.274	173.29
1521.513	172.31
1524.751	172.23
1527.989	171.4
1531.227	171.16
1534.464	171.04
1537.701	169.65
1540.938	169.28
1544.174	167.34
1547.41	167.07
1550.646	166.16
1553.882	166.62
1557.117	164.22
1560.352	163.37
1563.587	163.21
1566.821	161.94
1570.055	160.93
1573.289	159.87
1576.523	159.65
1579.756	158.48
1582.989	158.02
1586.222	157.72
1589.454	156.46
1592.686	158.09
1595.918	156.99
1599.15	156.32
1602.381	156.74
1605.612	156.68
1608.843	157.31
1612.073	157.11
1615.303	157.84
1618.533	157.48
1621.762	157.8
1624.992	158.76
1628.221	157.82
1631.449	157.95
1634.678	157.78
1637.906	158.65
1641.134	158.23
1644.361	158.3
1647.588	158.36
1650.815	157.96
1654.042	157.38
1657.269	158.14
1660.495	157.41
1663.72	157.78
1666.946	158.55
1670.171	159.06
1673.396	158.09
1676.621	158.96
1679.845	158.91
1683.069	159.19
1686.293	160.52
1689.517	161.56
1692.74	160.98
1695.963	161.21
1699.185	162.16
1702.408	162.16
1705.63	162.79
1708.852	163.67
1712.073	163.02
1715.294	163.56
1718.515	164.09
1721.736	163.36
1724.956	163.87
1728.176	164.22
1731.396	165.58
1734.616	165.19
1737.835	165.98
1741.054	164.57
1744.272	165.22
1747.491	166.83
1750.709	166.74
1753.927	166.89
1757.144	166.67
1760.361	166.84
1763.578	167.61
1766.795	167.17
1770.011	168.2
1773.227	168.27
1776.443	170.65
1779.658	170.7
1782.874	170.2
1786.089	171
1789.303	171.23
1792.518	173.43
1795.732	173.31
1798.945	174.26
1802.159	174.53
1805.372	175.03
1808.585	177.32
1811.797	177.39
1815.01	178.24
1818.222	179.76
1821.434	180.73
1824.645	181.73
1827.856	184.2
1831.067	185.53
1834.278	185.27
1837.488	187.12
1840.698	188.07
1843.908	186.64
1847.117	187.64
1850.326	188.28
1853.535	187.97
1856.744	191.02
1859.952	190.16
1863.16	188.58
1866.368	187.7
1869.575	188.95
1872.782	185.95
1875.989	184.89
1879.196	184.02
1882.402	182.52
1885.608	182.97
1888.814	182.84
1892.019	181.67
1895.224	181.4
1898.429	180.97
1901.634	180.96
1904.838	181.42
1908.042	183.28
1911.246	183.68
1914.449	184.86
1917.652	185.05
1920.855	184.7
1924.058	185.11
1927.26	184.18
1930.462	184.75
1933.664	186.62
1936.865	185.13
1940.066	185.3
1943.267	183.54
1946.467	183.13
1949.668	184.48
1952.868	186.86
1956.067	187
1959.267	187.34
1962.466	188.02
1965.665	187.55
1968.863	187.07
1972.061	190.74
1975.259	192.07
1978.457	194.12
1981.654	196.37
1984.852	196.53
1988.048	195.9
1991.245	197.24
1994.441	199.4
1997.637	200.45
2000.833	204.13
2004.028	207.38
2007.223	208.46
2010.418	209.77
2013.613	212.98
2016.807	215.65
2020.001	217.73
2023.194	221.04
2026.388	226.57
2029.581	231.65
2032.774	234.4
2035.966	238.24
2039.158	238.7
2042.35	243.88
2045.542	245.34
2048.733	250.43
2051.924	252.52
2055.115	257.26
2058.306	258.12
2061.496	260.02
2064.686	259.31
2067.875	263.58
2071.065	265.98
2074.254	264.89
2077.442	266.85
2080.631	268.65
2083.819	270.57
2087.007	271.08
2090.195	273.26
2093.382	275.8
2096.569	274.38
2099.756	279.47
2102.942	280.34
2106.128	281.24
2109.314	287.67
2112.5	286.98
2115.685	293.67
2118.87	293.82
2122.055	300.81
2125.239	302.81
2128.424	306.78
2131.608	308.95
2134.791	312.57
2137.974	313.71
2141.157	315.46
2144.34	315.87
2147.523	321.24
2150.705	318.94
2153.887	322.53
2157.068	322.93
2160.25	320.32
2163.431	321.17
2166.611	325.69
2169.792	330.3
2172.972	334.26
2176.152	336.49
2179.331	340.8
2182.511	345.36
2185.69	348.73
2188.868	355.02
2192.047	355.87
2195.225	365.93
2198.403	374.41
2201.58	381.26
2204.758	387.77
2207.935	396.29
2211.111	402.71
2214.288	408.39
2217.464	410.01
2220.64	417.62
2223.815	422.1
2226.991	439.15
2230.166	439.9
2233.34	447.93
2236.515	455.34
2239.689	456.82
2242.863	458.05
2246.036	470.66
2249.209	468.03
2252.382	475.07
2255.555	487.71
2258.727	490.37
2261.9	494.07
2265.071	498.27
2268.243	506.91
2271.414	511.95
2274.585	523.43
2277.756	529.79
2280.926	534.25
2284.096	546.58
2287.266	558.86
2290.436	561.99
2293.605	574.78
2296.774	589.92
2299.942	609.54
2303.111	616.49
2306.279	627.65
2309.447	635.76
2312.614	653.26
2315.781	671.93
2318.948	701.04
2322.115	691.11
2325.281	729.11
2328.447	715.27
2331.613	743.3
2334.779	735.58
2337.944	765.18
2341.109	774.11
2344.274	797.5
2347.438	820.64
2350.602	821.05
2353.766	846.24
2356.929	860.83
2360.092	854.64
2363.255	914.39
2366.418	913.04
2369.58	931.9
2372.742	983.67
2375.904	1011.01
2379.066	1004.2
2382.227	988.47
2385.388	1073.15
2388.548	1073.4
2391.709	1084.88
2394.869	1213.92
2398.029	1161.08
2401.188	1188.24
2404.347	1180.55
2407.506	1165.22
2410.665	1196.44
2413.823	1265.75
2416.981	1340.33
2420.139	1294.83
2423.296	1282.02
2426.453	1340.09
2429.61	1290.49
2432.767	1350.32
2435.923	1342.85
2439.079	1467.3
2442.235	1487.33
2445.391	1473.81
2448.546	1463.46
2451.701	1422.33
2454.855	1422.4
2458.009	1509.32
2461.163	1569.12
2464.317	1619.92
2467.471	1660.57
2470.624	1664.44
2473.777	1623.5
2476.929	1579.14
2480.082	1534.05
2483.234	1522.06
2486.385	1596.59
2489.537	1605.61
2492.688	1655.71
2495.839	1611.6
2498.989	1574.88
2502.14	1584.27
2505.29	1593.96
2508.439	1618.82
2511.589	1615.92
2514.738	1761.77
2517.887	1720.38
2521.035	1808.01
2524.183	1828.28
2527.331	1847.79
2530.479	1836.13
2533.627	1850.48
