Data from C_1_DIV_OH_2N_Splice17_12-52-01-350.txt Node
Date: Sat Mar 07 12:52:01 EST 2020
User: sa697716
Spectrometer: NQ5500242
Trigger mode: 0
Integration Time (sec): 1.450000E-1
Scans to average: 20
Nonlinearity correction enabled: false
Boxcar width: 5
Storing dark spectrum: false
XAxis mode: Wavelengths
Number of Pixels in Spectrum: 512
>>>>>Begin Spectral Data<<<<<
187.83	142.79
188.298	174.34
188.766	138.74
189.233	109.78
189.701	125.25
190.169	136.87
190.636	120.07
191.104	118.68
191.571	-28.98
192.039	-199.43
192.506	-800.96
192.974	219.62
193.441	368.24
193.908	146.37
194.375	43.94
194.842	23.2
195.31	83.43
195.777	-57.17
196.244	24.7
196.711	29.46
197.177	31.4
197.644	30.87
198.111	31.49
198.578	32.26
199.045	32.72
199.511	32.71
199.978	32.72
200.445	32.4
200.911	32.61
201.378	32.75
201.844	33.02
202.31	32.92
202.777	33.19
203.243	33.1
203.709	32.85
204.176	32.26
204.642	32.76
205.108	32.78
205.574	33
206.04	32.41
206.506	32.03
206.972	31.73
207.438	31.42
207.903	30.84
208.369	30.01
208.835	29.59
209.301	29.24
209.766	27.92
210.232	27.41
210.697	26.48
211.163	26.13
211.628	25.76
212.094	25.12
212.559	24.71
213.024	24.24
213.49	24.04
213.955	23.47
214.42	22.92
214.885	22.48
215.35	21.76
215.815	20.75
216.28	19.47
216.745	18.01
217.21	16.67
217.675	15.35
218.14	14.32
218.604	13.33
219.069	12.5
219.534	11.83
219.998	11.28
220.463	10.76
220.927	10.3
221.392	9.98
221.856	9.68
222.32	9.44
222.785	9.23
223.249	8.98
223.713	8.8
224.177	8.67
224.642	8.52
225.106	8.35
225.57	8.2
226.034	8.09
226.497	7.96
226.961	7.84
227.425	7.72
227.889	7.61
228.353	7.5
228.816	7.4
229.28	7.28
229.744	7.17
230.207	7.06
230.671	6.97
231.134	6.88
231.597	6.81
232.061	6.72
232.524	6.63
232.987	6.55
233.45	6.5
233.914	6.42
234.377	6.36
234.84	6.3
235.303	6.24
235.766	6.19
236.229	6.12
236.691	6.06
237.154	6.02
237.617	5.98
238.08	5.91
238.542	5.84
239.005	5.79
239.468	5.73
239.93	5.68
240.393	5.63
240.855	5.57
241.317	5.52
241.78	5.46
242.242	5.4
242.704	5.35
243.166	5.3
243.629	5.25
244.091	5.21
244.553	5.17
245.015	5.14
245.477	5.09
245.939	5.05
246.4	5.01
246.862	4.97
247.324	4.94
247.786	4.9
248.247	4.87
248.709	4.83
249.17	4.78
249.632	4.74
250.093	4.7
250.555	4.67
251.016	4.63
251.477	4.59
251.939	4.56
252.4	4.53
252.861	4.5
253.322	4.47
253.783	4.45
254.244	4.42
254.705	4.39
255.166	4.36
255.627	4.33
256.088	4.32
256.549	4.3
257.009	4.28
257.47	4.25
257.931	4.22
258.391	4.18
258.852	4.15
259.312	4.13
259.773	4.11
260.233	4.09
260.694	4.07
261.154	4.03
261.614	4.01
262.074	3.98
262.534	3.95
262.994	3.93
263.455	3.91
263.915	3.9
264.374	3.88
264.834	3.87
265.294	3.84
265.754	3.83
266.214	3.82
266.673	3.81
267.133	3.79
267.593	3.79
268.052	3.78
268.512	3.77
268.971	3.76
269.431	3.74
269.89	3.73
270.349	3.72
270.809	3.71
271.268	3.7
271.727	3.69
272.186	3.68
272.645	3.67
273.104	3.65
273.563	3.64
274.022	3.63
274.481	3.62
274.94	3.61
275.399	3.59
275.857	3.58
276.316	3.57
276.775	3.56
277.233	3.55
277.692	3.54
278.15	3.54
278.609	3.53
279.067	3.52
279.525	3.51
279.984	3.5
280.442	3.49
280.9	3.49
281.358	3.48
281.816	3.48
282.274	3.47
282.732	3.46
283.19	3.44
283.648	3.43
284.106	3.42
284.564	3.41
285.021	3.41
285.479	3.4
285.937	3.39
286.394	3.39
286.852	3.38
287.309	3.37
287.767	3.35
288.224	3.34
288.682	3.34
289.139	3.32
289.596	3.31
290.053	3.29
290.511	3.27
290.968	3.26
291.425	3.24
291.882	3.23
292.339	3.21
292.796	3.2
293.252	3.19
293.709	3.18
294.166	3.17
294.623	3.16
295.079	3.15
295.536	3.15
295.992	3.14
296.449	3.13
296.905	3.13
297.362	3.13
297.818	3.12
298.274	3.11
298.731	3.1
299.187	3.09
299.643	3.07
300.099	3.07
300.555	3.06
301.011	3.06
301.467	3.05
301.923	3.04
302.379	3.03
302.835	3.03
303.291	3.02
303.746	3.02
304.202	3.02
304.658	3.02
305.113	3.01
305.569	3.01
306.024	3
306.479	2.99
306.935	2.98
307.39	2.99
307.845	2.98
308.301	2.98
308.756	2.97
309.211	2.97
309.666	2.98
310.121	2.99
310.576	2.99
311.031	2.98
311.486	2.99
311.94	2.98
312.395	2.98
312.85	2.98
313.305	2.98
313.759	2.98
314.214	2.97
314.668	2.96
315.123	2.95
315.577	2.95
316.032	2.95
316.486	2.94
316.94	2.94
317.394	2.93
317.849	2.91
318.303	2.9
318.757	2.89
319.211	2.88
319.665	2.87
320.119	2.86
320.572	2.85
321.026	2.84
321.48	2.83
321.934	2.83
322.387	2.83
322.841	2.82
323.295	2.82
323.748	2.82
324.202	2.81
324.655	2.81
325.108	2.8
325.562	2.8
326.015	2.8
326.468	2.8
326.921	2.8
327.374	2.79
327.827	2.8
328.28	2.79
328.733	2.79
329.186	2.79
329.639	2.79
330.092	2.8
330.545	2.79
330.997	2.78
331.45	2.78
331.903	2.78
332.355	2.78
332.808	2.78
333.26	2.78
333.713	2.78
334.165	2.77
334.617	2.77
335.069	2.75
335.522	2.76
335.974	2.76
336.426	2.76
336.878	2.76
337.33	2.76
337.782	2.75
338.234	2.75
338.686	2.75
339.137	2.77
339.589	2.76
340.041	2.76
340.493	2.76
340.944	2.75
341.396	2.74
341.847	2.73
342.299	2.72
342.75	2.72
343.201	2.7
343.653	2.69
344.104	2.67
344.555	2.66
345.006	2.65
345.457	2.64
345.908	2.65
346.359	2.63
346.81	2.63
347.261	2.63
347.712	2.62
348.163	2.61
348.613	2.62
349.064	2.63
349.515	2.63
349.965	2.63
350.416	2.62
350.866	2.61
351.317	2.61
351.767	2.61
352.217	2.62
352.668	2.62
353.118	2.63
353.568	2.62
354.018	2.62
354.468	2.63
354.918	2.63
355.368	2.63
355.818	2.63
356.268	2.63
356.718	2.64
357.168	2.63
357.617	2.63
358.067	2.63
358.517	2.64
358.966	2.65
359.416	2.65
359.865	2.64
360.315	2.65
360.764	2.66
361.213	2.66
361.663	2.65
362.112	2.66
362.561	2.68
363.01	2.68
363.459	2.68
363.908	2.67
364.357	2.68
364.806	2.69
365.255	2.7
365.703	2.72
366.152	2.73
366.601	2.75
367.05	2.75
367.498	2.75
367.947	2.76
368.395	2.78
368.844	2.79
369.292	2.8
369.74	2.81
370.189	2.81
370.637	2.81
371.085	2.81
371.533	2.83
371.981	2.84
372.429	2.85
372.877	2.87
373.325	2.87
373.773	2.89
374.221	2.9
374.669	2.91
375.116	2.92
375.564	2.94
376.012	2.95
376.459	2.96
376.907	2.99
377.354	3
377.801	3.02
378.249	3.05
378.696	3.06
379.143	3.08
379.591	3.11
380.038	3.13
380.485	3.15
380.932	3.18
381.379	3.19
381.826	3.22
382.273	3.25
382.72	3.26
383.166	3.28
383.613	3.31
384.06	3.34
384.506	3.36
384.953	3.39
385.4	3.42
385.846	3.45
386.292	3.49
386.739	3.51
387.185	3.54
387.631	3.58
388.078	3.6
388.524	3.64
388.97	3.66
389.416	3.69
389.862	3.72
390.308	3.76
390.754	3.79
391.2	3.82
391.645	3.85
392.091	3.89
392.537	3.92
392.983	3.94
393.428	3.98
393.874	4.02
394.319	4.04
394.765	4.07
395.21	4.08
395.655	4.1
396.101	4.13
396.546	4.15
396.991	4.18
397.436	4.19
397.881	4.23
398.326	4.25
398.771	4.28
399.216	4.3
399.661	4.33
400.106	4.35
400.551	4.37
400.995	4.38
401.44	4.39
401.885	4.4
402.329	4.41
402.774	4.43
403.218	4.45
403.663	4.46
404.107	4.47
404.551	4.48
404.995	4.48
405.44	4.48
405.884	4.5
406.328	4.5
406.772	4.49
407.216	4.48
407.66	4.48
408.104	4.46
408.547	4.45
408.991	4.45
409.435	4.45
409.879	4.46
410.322	4.47
410.766	4.48
411.209	4.49
411.653	4.51
412.096	4.52
412.54	4.52
412.983	4.54
413.426	4.58
413.869	4.58
414.312	4.6
414.756	4.62
415.199	4.61
415.642	4.61
416.085	4.62
416.527	4.62
416.97	4.61
417.413	4.61
417.856	4.6
418.298	4.59
418.741	4.59
419.184	4.59
419.626	4.59
420.069	4.61
420.511	4.6
420.953	4.61
421.396	4.62
421.838	4.64
422.28	4.64
422.722	4.65
423.164	4.65
423.606	4.65
424.048	4.67
424.49	4.68
424.932	4.66
425.374	4.66
425.816	4.65
426.258	4.63
426.699	4.61
427.141	4.62
427.582	4.62
428.024	4.62
428.465	4.62
428.907	4.61
429.348	4.6
429.789	4.61
430.231	4.63
430.672	4.65
431.113	4.68
431.554	4.71
431.995	4.71
432.436	4.73
432.877	4.74
433.318	4.76
433.759	4.78
434.2	4.81
434.64	4.83
435.081	4.84
435.522	4.85
435.962	4.86
436.403	4.89
436.843	4.91
437.284	4.91
437.724	4.93
438.164	4.94
438.604	4.97
439.045	4.97
439.485	4.97
439.925	4.99
440.365	5.01
440.805	5.02
441.245	5.04
441.685	5.07
442.125	5.1
442.564	5.12
443.004	5.14
443.444	5.16
443.883	5.2
444.323	5.24
444.762	5.26
445.202	5.28
445.641	5.32
446.081	5.35
446.52	5.37
446.959	5.42
447.398	5.47
447.837	5.51
448.276	5.53
448.716	5.56
449.154	5.59
449.593	5.63
450.032	5.66
450.471	5.67
450.91	5.69
451.349	5.73
451.787	5.73
452.226	5.74
452.664	5.75
453.103	5.76
453.541	5.77
453.98	5.78
454.418	5.78
454.856	5.79
455.295	5.79
455.733	5.79
456.171	5.79
456.609	5.79
457.047	5.8
457.485	5.8
457.923	5.8
458.361	5.81
458.798	5.81
459.236	5.82
459.674	5.82
460.111	5.82
460.549	5.83
460.987	5.83
461.424	5.83
461.862	5.83
462.299	5.84
462.736	5.85
463.173	5.85
463.611	5.86
464.048	5.87
464.485	5.88
464.922	5.89
465.359	5.9
465.796	5.91
466.233	5.92
466.67	5.93
467.106	5.94
467.543	5.95
467.98	5.94
468.416	5.95
468.853	5.95
469.29	5.95
469.726	5.95
470.162	5.95
470.599	5.95
471.035	5.94
471.471	5.92
471.907	5.91
472.344	5.91
472.78	5.93
473.216	5.94
473.652	5.95
474.088	5.94
474.523	5.95
474.959	5.96
475.395	5.96
475.831	5.97
476.266	5.98
476.702	6
477.138	5.99
477.573	6
478.008	6
478.444	5.99
478.879	6
479.314	6
479.75	5.99
480.185	5.99
480.62	5.99
481.055	5.99
481.49	5.98
481.925	5.99
482.36	5.99
482.795	6
483.229	6
483.664	6.01
484.099	6.01
484.534	6.02
484.968	6.05
485.403	6.06
485.837	6.09
486.271	6.11
486.706	6.13
487.14	6.15
487.574	6.18
488.009	6.21
488.443	6.24
488.877	6.29
489.311	6.33
489.745	6.36
490.179	6.42
490.613	6.47
491.046	6.52
491.48	6.57
491.914	6.63
492.348	6.7
492.781	6.76
493.215	6.83
493.648	6.91
494.082	6.99
494.515	7.06
494.948	7.13
495.382	7.2
495.815	7.29
496.248	7.38
496.681	7.47
497.114	7.56
497.547	7.67
497.98	7.76
498.413	7.86
498.846	7.97
499.279	8.09
499.711	8.2
500.144	8.33
500.577	8.45
501.009	8.58
501.442	8.72
501.874	8.86
502.306	9.01
502.739	9.16
503.171	9.34
503.603	9.49
504.036	9.67
504.468	9.84
504.9	10.01
505.332	10.19
505.764	10.39
506.196	10.58
506.627	10.8
507.059	10.99
507.491	11.19
507.923	11.39
508.354	11.61
508.786	11.83
509.217	12.06
509.649	12.29
510.08	12.53
510.512	12.76
510.943	13
511.374	13.23
511.805	13.48
512.237	13.73
512.668	13.99
513.099	14.23
513.53	14.48
513.961	14.72
514.391	14.98
514.822	15.23
515.253	15.49
515.684	15.74
516.114	16.01
516.545	16.28
516.975	16.53
517.406	16.78
517.836	17.05
518.267	17.3
518.697	17.55
519.127	17.78
519.558	18.02
519.988	18.26
520.418	18.47
520.848	18.7
521.278	18.92
521.708	19.24
522.138	19.46
522.567	19.66
522.997	19.87
523.427	20.1
523.857	20.3
524.286	20.48
524.716	20.66
525.145	20.85
525.575	21.03
526.004	21.19
526.433	21.24
526.863	21.38
527.292	21.53
527.721	21.65
528.15	21.76
528.579	21.88
529.008	21.99
529.437	22.11
529.866	22.21
530.295	22.31
530.724	22.41
531.152	22.5
531.581	22.59
532.01	22.68
532.438	22.77
532.867	22.84
533.295	22.91
533.723	22.99
534.152	23.06
534.58	23.11
535.008	23.15
535.436	23.21
535.865	23.26
536.293	23.32
536.721	23.38
537.149	23.42
537.576	23.47
538.004	23.52
538.432	23.56
538.86	23.61
539.287	23.65
539.715	23.7
540.143	23.72
540.57	23.74
540.998	23.78
541.425	23.79
541.852	23.81
542.28	23.85
542.707	23.87
543.134	23.89
543.561	23.9
543.988	23.93
544.415	23.94
544.842	23.96
545.269	23.99
545.696	23.99
546.123	24.02
546.549	24.04
546.976	24.06
547.403	24.07
547.829	24.08
548.256	24.09
548.682	24.09
549.108	24.11
549.535	24.14
549.961	24.12
550.387	24.13
550.813	24.12
551.24	24.11
551.666	24.09
552.092	24.08
552.518	24.08
552.943	24.07
553.369	24.05
553.795	24.01
554.221	23.98
554.646	23.95
555.072	23.92
555.498	23.89
555.923	23.86
556.349	23.82
556.774	23.75
557.199	23.7
557.625	23.66
558.05	23.62
558.475	23.57
558.9	23.53
559.325	23.48
559.75	23.42
560.175	23.38
560.6	23.29
561.025	23.23
561.449	23.16
561.874	23.08
562.299	23
562.723	22.9
563.148	22.82
563.572	22.71
563.997	22.62
564.421	22.5
564.846	22.39
565.27	22.31
565.694	22.21
566.118	22.11
566.542	22.02
566.966	21.9
567.39	21.81
567.814	21.7
568.238	21.61
568.662	21.5
569.086	21.4
569.509	21.31
569.933	21.21
570.357	21.11
570.78	21
571.204	20.89
571.627	20.79
572.05	20.67
572.474	20.57
572.897	20.47
573.32	20.37
573.743	20.27
574.166	20.16
574.589	20.05
575.012	19.96
575.435	19.87
575.858	19.78
576.281	19.69
576.704	19.6
577.126	19.52
577.549	19.43
577.972	19.34
578.394	19.25
578.817	19.19
579.239	19.11
579.661	19.05
580.084	18.98
580.506	18.9
580.928	18.83
581.35	18.77
581.772	18.7
582.194	18.64
582.616	18.58
583.038	18.54
583.46	18.47
583.882	18.41
584.303	18.35
584.725	18.29
585.147	18.24
585.568	18.18
585.99	18.13
586.411	18.07
586.833	18.01
587.254	17.94
587.675	17.88
588.096	17.84
588.518	17.8
588.939	17.75
589.36	17.71
589.781	17.67
590.202	17.64
590.623	17.6
591.043	17.56
591.464	17.55
591.885	17.52
592.305	17.49
592.726	17.46
593.147	17.43
593.567	17.39
593.987	17.36
594.408	17.32
594.828	17.29
595.248	17.26
595.669	17.24
596.089	17.2
596.509	17.18
596.929	17.16
597.349	17.13
597.769	17.09
598.189	17.06
598.608	17.03
599.028	17.01
599.448	16.98
599.867	16.94
600.287	16.9
600.706	16.87
601.126	16.82
601.545	16.78
601.965	16.76
602.384	16.73
602.803	16.68
603.222	16.64
603.641	16.59
604.061	16.54
604.48	16.48
604.898	16.43
605.317	16.38
605.736	16.33
606.155	16.27
606.574	16.2
606.992	16.12
607.411	16.05
607.829	15.95
608.248	15.88
608.666	15.82
609.085	15.76
609.503	15.69
609.921	15.62
610.339	15.55
610.758	15.48
611.176	15.41
611.594	15.35
612.012	15.27
612.43	15.23
612.847	15.16
613.265	15.09
613.683	15.02
614.101	14.95
614.518	14.88
614.936	14.81
615.353	14.74
615.771	14.69
616.188	14.61
616.606	14.57
617.023	14.5
617.44	14.46
617.857	14.42
618.274	14.36
618.691	14.3
619.108	14.26
619.525	14.21
619.942	14.18
620.359	14.14
620.776	14.11
621.192	14.06
621.609	14.04
622.026	14
622.442	13.97
622.859	13.96
623.275	13.94
623.691	13.93
624.108	13.91
624.524	13.88
624.94	13.87
625.356	13.86
625.772	13.85
626.188	13.84
626.604	13.82
627.02	13.82
627.436	13.8
627.852	13.79
628.268	13.78
628.683	13.77
629.099	13.77
629.514	13.74
629.93	13.72
630.345	13.69
630.761	13.67
631.176	13.65
631.591	13.61
632.007	13.57
632.422	13.53
632.837	13.48
633.252	13.43
633.667	13.36
634.082	13.31
634.497	13.25
634.911	13.18
635.326	13.1
635.741	13.03
636.155	12.93
636.57	12.85
636.984	12.77
637.399	12.67
637.813	12.58
638.228	12.48
638.642	12.36
639.056	12.25
639.47	12.14
639.884	12.01
640.298	11.89
640.712	11.77
641.126	11.65
641.54	11.51
641.954	11.38
642.368	11.25
642.781	11.14
643.195	11.03
643.609	10.92
644.022	10.81
644.436	10.71
644.849	10.6
645.262	10.49
645.676	10.38
646.089	10.29
646.502	10.21
646.915	10.14
647.328	10.05
647.741	9.97
648.154	9.91
648.567	9.85
648.98	9.78
649.393	9.74
649.805	9.7
650.218	9.66
650.631	9.61
651.043	9.57
651.456	9.52
651.868	9.47
652.28	9.42
652.693	9.37
653.105	9.3
653.517	9.25
653.929	9.19
654.341	9.1
654.753	9.02
655.165	8.96
655.577	8.87
655.989	8.79
656.401	8.71
656.813	8.62
657.224	8.52
657.636	8.42
658.047	8.31
658.459	8.2
658.87	8.1
659.282	7.98
659.693	7.87
660.104	7.75
660.515	7.64
660.926	7.52
661.338	7.41
661.749	7.31
662.159	7.2
662.57	7.11
662.981	7.01
663.392	6.92
663.803	6.84
664.213	6.75
664.624	6.66
665.035	6.58
665.445	6.5
665.855	6.43
666.266	6.37
666.676	6.31
667.086	6.24
667.497	6.19
667.907	6.14
668.317	6.09
668.727	6.04
669.137	6.01
669.547	5.97
669.956	5.95
670.366	5.93
670.776	5.9
671.186	5.88
671.595	5.85
672.005	5.82
672.414	5.82
672.824	5.8
673.233	5.8
673.642	5.8
674.052	5.81
674.461	5.81
674.87	5.8
675.279	5.81
675.688	5.84
676.097	5.86
676.506	5.88
676.915	5.91
677.323	5.94
677.732	5.96
678.141	5.99
678.549	6.03
678.958	6.08
679.366	6.14
679.775	6.19
680.183	6.27
680.592	6.36
681	6.48
681.408	6.58
681.816	6.72
682.224	6.87
682.632	7.03
683.04	7.21
683.448	7.4
683.856	7.61
684.264	7.84
684.671	8.09
685.079	8.34
685.487	8.62
685.894	8.93
686.302	9.25
686.709	9.61
687.116	9.98
687.524	10.37
687.931	10.77
688.338	11.2
688.745	11.63
689.152	12.08
689.559	12.55
689.966	13.02
690.373	13.5
690.78	13.99
691.187	14.47
691.593	14.97
692	15.46
692.407	15.94
692.813	16.42
693.22	16.91
693.626	17.39
694.032	17.87
694.439	18.35
694.845	18.81
695.251	19.28
695.657	19.72
696.063	20.18
696.469	20.61
696.875	21.07
697.281	21.5
697.687	21.92
698.093	22.33
698.498	22.73
698.904	23.12
699.31	23.49
699.715	23.87
700.12	24.23
700.526	24.59
700.931	24.94
701.337	25.25
701.742	25.59
702.147	25.91
702.552	26.23
702.957	26.54
703.362	26.84
703.767	27.15
704.172	27.43
704.577	27.7
704.981	27.96
705.386	28.23
705.791	28.5
706.195	28.74
706.6	28.99
707.004	29.23
707.408	29.47
707.813	29.7
708.217	29.92
708.621	30.14
709.025	30.36
709.43	30.55
709.834	30.77
710.237	30.99
710.641	31.2
711.045	31.4
711.449	31.58
711.853	31.77
712.256	31.93
712.66	32.1
713.064	32.28
713.467	32.44
713.87	32.61
714.274	32.76
714.677	32.9
715.08	33.04
715.484	33.18
715.887	33.33
716.29	33.45
716.693	33.59
717.096	33.72
717.499	33.85
717.901	33.99
718.304	34.11
718.707	34.23
719.109	34.36
719.512	34.47
719.915	34.59
720.317	34.69
720.719	34.79
721.122	34.89
721.524	35
721.926	35.1
722.328	35.21
722.731	35.29
723.133	35.39
723.535	35.47
723.937	35.58
724.338	35.66
724.74	35.74
725.142	35.92
725.544	35.99
725.945	36.07
726.347	36.13
726.748	36.18
727.15	36.25
727.551	36.32
727.952	36.36
728.354	36.42
728.755	36.46
729.156	36.51
729.557	36.48
729.958	36.53
730.359	36.56
730.76	36.63
731.161	36.7
731.562	36.74
731.962	36.76
732.363	36.84
732.763	36.89
733.164	36.94
733.564	36.99
733.965	37.02
734.365	37.07
734.766	37.12
735.166	37.14
735.566	37.15
735.966	37.19
736.366	37.21
736.766	37.21
737.166	37.22
737.566	37.25
737.966	37.28
738.365	37.31
738.765	37.32
739.165	37.34
739.564	37.36
739.964	37.38
740.363	37.38
740.763	37.41
741.162	37.43
741.561	37.42
741.96	37.42
742.36	37.4
742.759	37.42
743.158	37.43
743.557	37.43
743.955	37.46
744.354	37.47
744.753	37.5
745.152	37.51
745.55	37.51
745.949	37.53
746.348	37.55
746.746	37.57
747.144	37.57
747.543	37.57
747.941	37.61
748.339	37.58
748.737	37.57
749.136	37.57
749.534	37.56
749.932	37.57
750.33	37.58
750.727	37.57
751.125	37.59
751.523	37.58
751.921	37.6
752.318	37.6
752.716	37.63
753.113	37.67
753.511	37.67
753.908	37.71
754.305	37.72
754.703	37.7
755.1	37.69
755.497	37.69
755.894	37.68
756.291	37.67
756.688	37.63
757.085	37.61
757.482	37.58
757.878	37.56
758.275	37.53
758.672	37.52
759.068	37.53
759.465	37.55
759.861	37.55
760.258	37.57
760.654	37.55
761.05	37.57
761.447	37.57
761.843	37.56
762.239	37.57
762.635	37.57
763.031	37.54
763.427	37.53
763.822	37.55
764.218	37.56
764.614	37.57
765.01	37.56
765.405	37.56
765.801	37.56
766.196	37.59
766.592	37.59
766.987	37.62
767.382	37.65
767.778	37.67
768.173	37.66
768.568	37.65
768.963	37.64
769.358	37.67
769.753	37.67
770.148	37.66
770.542	37.66
770.937	37.65
771.332	37.63
771.726	37.61
772.121	37.6
772.515	37.58
772.91	37.57
773.304	37.59
773.699	37.59
774.093	37.58
774.487	37.57
774.881	37.58
775.275	37.59
775.669	37.58
776.063	37.57
776.457	37.55
776.851	37.54
777.245	37.53
777.638	37.49
778.032	37.49
778.425	37.52
778.819	37.51
779.212	37.51
779.606	37.51
779.999	37.54
780.392	37.56
780.786	37.56
781.179	37.58
781.572	37.6
781.965	37.62
782.358	37.63
782.751	37.61
783.143	37.62
783.536	37.63
783.929	37.6
784.322	37.6
784.714	37.61
785.107	37.65
785.499	37.62
785.891	37.62
786.284	37.61
786.676	37.6
787.068	37.61
787.46	37.61
787.852	37.58
788.245	37.59
788.636	37.55
789.028	37.53
789.42	37.52
789.812	37.53
790.204	37.53
790.595	37.54
790.987	37.55
791.378	37.55
791.77	37.55
792.161	37.58
792.553	37.6
792.944	37.61
793.335	37.61
793.726	37.6
794.117	37.6
794.508	37.58
794.899	37.56
795.29	37.52
795.681	37.51
796.072	37.5
796.463	37.48
796.853	37.46
797.244	37.45
797.634	37.47
798.025	37.48
798.415	37.48
798.806	37.48
799.196	37.47
799.586	37.5
799.976	37.51
800.366	37.49
800.756	37.49
801.146	37.5
801.536	37.51
801.926	37.48
802.316	37.45
802.706	37.45
803.095	37.47
803.485	37.49
803.874	37.48
804.264	37.45
804.653	37.47
805.043	37.48
805.432	37.49
805.821	37.51
806.21	37.51
806.599	37.52
806.988	37.53
807.377	37.49
807.766	37.49
808.155	37.47
808.544	37.49
808.933	37.49
809.321	37.47
809.71	37.47
810.098	37.46
810.487	37.45
810.875	37.44
811.264	37.43
811.652	37.46
812.04	37.45
812.428	37.47
812.816	37.46
813.204	37.44
813.592	37.42
813.98	37.41
814.368	37.4
814.756	37.4
815.144	37.4
815.531	37.39
815.919	37.38
816.306	37.39
816.694	37.4
817.081	37.4
817.469	37.4
817.856	37.41
818.243	37.41
818.63	37.4
819.017	37.41
819.404	37.41
819.791	37.4
820.178	37.4
820.565	37.38
820.952	37.36
821.339	37.37
821.725	37.39
822.112	37.39
822.498	37.43
822.885	37.45
823.271	37.45
823.657	37.42
824.044	37.43
824.43	37.44
824.816	37.42
825.202	37.42
825.588	37.41
825.974	37.39
826.36	37.4
826.746	37.38
827.132	37.36
827.517	37.36
827.903	37.38
828.289	37.38
828.674	37.38
829.06	37.39
829.445	37.37
829.83	37.37
830.216	37.36
830.601	37.35
830.986	37.35
831.371	37.34
831.756	37.34
832.141	37.33
832.526	37.36
832.911	37.35
833.295	37.35
833.68	37.37
834.065	37.37
834.449	37.37
834.834	37.35
835.218	37.35
835.603	37.35
835.987	37.33
836.371	37.34
836.755	37.3
837.139	37.28
837.524	37.28
837.908	37.28
838.291	37.28
838.675	37.29
839.059	37.31
839.443	37.28
839.827	37.28
840.21	37.28
840.594	37.29
840.977	37.29
841.361	37.31
841.744	37.28
842.127	37.29
842.511	37.28
842.894	37.3
843.277	37.29
843.66	37.28
844.043	37.28
844.426	37.29
844.809	37.29
845.191	37.3
845.574	37.3
845.957	37.34
846.339	37.33
846.722	37.32
847.104	37.31
847.487	37.32
847.869	37.33
848.252	37.31
848.634	37.3
849.016	37.31
849.398	37.31
849.78	37.31
850.162	37.3
850.544	37.29
850.926	37.31
851.307	37.3
851.689	37.29
852.071	37.29
852.452	37.31
852.834	37.32
853.215	37.3
853.597	37.32
853.978	37.3
854.359	37.3
854.741	37.3
855.122	37.27
855.503	37.26
855.884	37.26
856.265	37.27
856.646	37.26
857.026	37.28
857.407	37.28
857.788	37.28
858.169	37.3
858.549	37.3
858.93	37.29
859.31	37.3
859.69	37.32
860.071	37.34
860.451	37.32
860.831	37.33
861.211	37.3
861.591	37.28
861.971	37.27
862.351	37.28
862.731	37.3
863.111	37.28
863.491	37.28
863.87	37.26
864.25	37.23
864.629	37.24
865.009	37.25
865.388	37.24
865.768	37.24
866.147	37.26
866.526	37.22
866.905	37.22
867.284	37.24
867.663	37.24
868.042	37.25
868.421	37.25
868.8	37.26
869.179	37.25
869.558	37.26
869.936	37.26
870.315	37.23
870.693	37.24
871.072	37.24
871.45	37.24
871.828	37.25
872.207	37.26
872.585	37.25
872.963	37.25
873.341	37.23
873.719	37.23
874.097	37.22
874.475	37.25
874.853	37.29
875.23	37.28
875.608	37.29
875.986	37.31
876.363	37.3
876.741	37.33
877.118	37.34
877.495	37.36
877.873	37.36
878.25	37.38
878.627	37.38
879.004	37.36
879.381	37.36
879.758	37.36
880.135	37.34
880.512	37.34
880.889	37.34
881.265	37.34
881.642	37.34
882.019	37.36
882.395	37.36
882.772	37.35
883.148	37.34
883.524	37.34
883.901	37.34
884.277	37.32
884.653	37.31
885.029	37.3
885.405	37.29
885.781	37.32
886.157	37.3
886.532	37.3
886.908	37.28
887.284	37.27
887.659	37.27
888.035	37.26
888.411	37.25
888.786	37.26
889.161	37.25
889.537	37.25
889.912	37.22
890.287	37.22
890.662	37.23
891.037	37.25
891.412	37.25
891.787	37.25
892.162	37.25
892.536	37.24
892.911	37.23
893.286	37.23
893.66	37.22
894.035	37.22
894.409	37.2
894.784	37.21
895.158	37.18
895.532	37.19
895.906	37.18
896.281	37.17
896.655	37.17
897.029	37.19
897.402	37.18
897.776	37.19
898.15	37.21
898.524	37.22
898.898	37.21
899.271	37.22
899.645	37.22
900.018	37.23
900.392	37.25
900.765	37.27
901.138	37.25
901.511	37.27
901.884	37.28
902.258	37.28
902.631	37.27
903.003	37.28
903.376	37.28
903.749	37.28
904.122	37.3
904.495	37.3
904.867	37.3
905.24	37.31
905.612	37.31
905.985	37.28
906.357	37.28
906.729	37.28
907.102	37.29
907.474	37.31
907.846	37.31
908.218	37.28
908.59	37.3
908.962	37.27
909.334	37.3
909.705	37.3
910.077	37.31
910.449	37.29
910.82	37.29
911.192	37.26
911.563	37.24
911.935	37.22
912.306	37.21
912.677	37.2
913.048	37.22
913.419	37.19
913.79	37.19
914.161	37.19
914.532	37.17
914.903	37.15
915.274	37.16
915.645	37.16
916.015	37.17
916.386	37.16
916.756	37.15
917.127	37.16
917.497	37.16
917.868	37.13
918.238	37.13
918.608	37.17
918.978	37.21
919.348	37.23
919.718	37.24
920.088	37.25
920.458	37.26
920.828	37.26
921.198	37.22
921.567	37.23
921.937	37.26
922.306	37.23
922.676	37.2
923.045	37.17
923.415	37.13
923.784	37.12
924.153	37.11
924.522	37.1
924.891	37.1
925.26	37.1
925.629	37.1
925.998	37.08
926.367	37.1
926.736	37.1
927.104	37.13
927.473	37.12
927.842	37.11
928.21	37.12
928.578	37.1
928.947	37.11
929.315	37.12
929.683	37.1
930.051	37.09
930.42	37.07
930.788	37.06
931.156	37.04
931.523	37.03
931.891	37.03
932.259	37.03
932.627	37.04
932.994	37.03
933.362	37.03
933.729	37.04
934.097	37.05
934.464	37.07
934.831	37.09
935.199	37.07
935.566	37.07
935.933	37.04
936.3	37.04
936.667	37.03
937.034	37.07
937.401	37.08
937.767	37.08
938.134	37.06
938.501	37.05
938.867	37.06
939.234	37.07
939.6	37.09
939.967	37.15
940.333	37.13
940.699	37.18
941.065	37.11
941.431	37.11
941.798	37.09
942.163	37.11
942.529	37.13
942.895	37.09
943.261	37.11
943.627	37.06
943.992	37.02
944.358	36.99
944.723	36.95
945.089	36.91
945.454	36.92
945.82	36.9
946.185	36.86
946.55	36.77
946.915	36.77
947.28	36.75
947.645	36.77
948.01	36.83
948.375	36.85
948.74	36.84
949.104	36.85
949.469	36.81
949.834	36.78
950.198	36.78
950.562	36.81
950.927	36.77
951.291	36.69
951.655	36.64
952.02	36.56
952.384	36.49
952.748	36.43
953.112	36.43
953.476	36.41
953.839	36.39
954.203	36.33
954.567	36.3
954.931	36.28
955.294	36.3
955.658	36.33
956.021	36.33
956.385	36.34
956.748	36.33
957.111	36.29
957.474	36.26
957.837	36.25
958.2	36.23
958.563	36.26
958.926	36.28
959.289	36.31
959.652	36.25
960.015	36.24
960.377	36.23
960.74	36.25
961.102	36.31
961.465	36.35
961.827	36.4
962.189	36.45
962.552	36.39
962.914	36.4
963.276	36.39
963.638	36.43
964	36.41
964.362	36.44
964.724	36.4
965.085	36.33
965.447	36.3
965.809	36.27
966.17	36.24
966.532	36.3
966.893	36.28
967.255	36.26
967.616	36.26
967.977	36.28
968.338	36.27
968.699	36.3
969.061	36.32
969.421	36.37
969.782	36.38
970.143	36.39
970.504	36.33
970.865	36.35
971.225	36.35
971.586	36.34
971.946	36.27
972.307	36.26
972.667	36.26
973.027	36.25
973.388	36.15
973.748	36.15
974.108	36.2
974.468	36.17
974.828	36.2
975.188	36.17
975.548	36.14
975.907	36.21
976.267	36.24
976.627	36.23
976.986	36.2
977.346	36.21
977.705	36.19
978.064	36.2
978.424	36.25
978.783	36.17
979.142	36.22
979.501	36.25
979.86	36.26
980.219	36.23
980.578	36.27
980.937	36.29
981.296	36.33
981.654	36.35
982.013	36.39
982.371	36.38
982.73	36.4
983.088	36.37
983.447	36.34
983.805	36.32
984.163	36.3
984.521	36.31
984.879	36.35
985.237	36.3
985.595	36.28
985.953	36.18
986.311	36.2
986.669	36.18
987.026	36.21
987.384	36.28
987.741	36.25
988.099	36.28
988.456	36.17
988.814	36.13
989.171	36.14
989.528	36.16
989.885	36.16
990.242	36.16
990.599	36.27
990.956	36.29
991.313	36.3
991.67	36.37
992.027	36.47
992.383	36.57
992.74	36.62
993.096	36.68
993.453	36.72
993.809	36.75
994.165	36.76
994.522	36.66
994.878	36.68
995.234	36.65
995.59	36.59
995.946	36.53
996.302	36.52
996.658	36.52
997.013	36.46
997.369	36.47
997.725	36.53
998.08	36.55
998.436	36.58
998.791	36.64
999.147	36.6
999.502	36.7
999.857	36.65
1000.212	36.56
1000.567	36.55
1000.922	36.54
1001.277	36.48
1001.632	36.39
1001.987	36.32
1002.342	36.2
1002.696	36.14
1003.051	36.28
1003.406	36.28
1003.76	36.36
1004.114	36.44
1004.469	36.44
1004.823	36.77
1005.177	36.8
1005.531	36.89
1005.885	36.97
1006.239	37.09
1006.593	37.21
1006.947	37.16
1007.301	37.08
1007.655	36.97
1008.008	36.97
1008.362	37.03
1008.715	36.8
1009.069	36.82
1009.422	36.76
1009.776	36.71
1010.129	36.76
1010.482	36.69
1010.835	36.72
1011.188	36.73
1011.541	36.92
1011.894	37.07
1012.247	37.05
1012.6	37.17
1012.952	37.19
1013.305	37.3
1013.657	37.5
1014.01	37.47
1014.362	37.39
1014.715	37.36
1015.067	37.46
1015.419	37.46
1015.771	37.41
1016.123	37.38
1016.475	37.39
1016.827	37.46
1017.179	37.47
1017.531	37.39
1017.883	37.25
1018.234	37.4
1018.586	37.52
1018.938	37.63
1019.289	37.51
1019.64	37.33
1019.992	37.28
1020.343	37.15
1020.694	37.02
1021.045	36.88
1021.396	36.77
1021.747	37.16
1022.098	37.08
1022.449	36.99
1022.8	36.9
1023.151	36.93
1023.501	37.2
1023.852	37.34
1024.202	37.39
1024.553	37.41
1024.903	37.62
1025.253	37.87
1025.604	37.73
1025.954	37.59
1026.304	37.72
1026.654	37.83
1027.004	37.81
1027.354	37.6
1027.703	37.36
1028.053	37.39
1028.403	37.72
1028.753	37.46
1029.102	37.32
1029.452	37.21
1029.801	37.36
1030.15	37.15
1030.499	36.88
897.758	1023.99
901.051	1034.99
904.343	1031.04
907.636	1048.47
910.928	1019.16
914.22	1021.81
917.511	1007.51
920.803	962.16
924.094	957.98
927.384	937.51
930.675	899.92
933.965	897.44
937.255	842.23
940.544	809.86
943.834	770.31
947.123	764.97
950.411	719.42
953.7	704.08
956.988	671.44
960.276	646.3
963.563	634.98
966.851	613.13
970.138	608.73
973.424	590.54
976.711	592.99
979.997	563.98
983.283	561.01
986.568	549.57
989.853	533.17
993.138	521.52
996.423	500.16
999.708	487.59
1002.992	480.71
1006.275	457.56
1009.559	454.55
1012.842	439.1
1016.125	428.75
1019.408	420.83
1022.69	414.51
1025.972	405.51
1029.254	397.4
1032.536	390.99
1035.817	383.23
1039.098	380.27
1042.379	372.53
1045.659	367.88
1048.939	357.73
1052.219	351.78
1055.498	347.37
1058.778	339.96
1062.057	333.68
1065.335	329.23
1068.614	325.49
1071.892	321.85
1075.17	311.44
1078.447	306.42
1081.724	304.14
1085.001	302.75
1088.278	295.45
1091.554	288.94
1094.83	289.59
1098.106	286.75
1101.382	284.76
1104.657	283.39
1107.932	278.45
1111.206	280.49
1114.481	273.23
1117.755	270.49
1121.029	267.96
1124.302	268.31
1127.575	263.37
1130.848	259.95
1134.121	257.55
1137.393	255.76
1140.665	249.27
1143.937	247.97
1147.208	246.2
1150.48	245.53
1153.75	243.32
1157.021	240.43
1160.291	240.57
1163.561	238.08
1166.831	238.1
1170.101	236.09
1173.37	236.42
1176.639	237.86
1179.907	235.68
1183.176	232.63
1186.444	233.2
1189.711	232.36
1192.979	230.39
1196.246	228.64
1199.513	230.51
1202.78	229.26
1206.046	229.23
1209.312	226.71
1212.578	226.68
1215.843	228.16
1219.108	227.16
1222.373	231.14
1225.638	232.6
1228.902	236.81
1232.166	238.13
1235.43	238.58
1238.693	241.57
1241.956	242.7
1245.219	246.1
1248.482	246.16
1251.744	246.09
1255.006	246.01
1258.268	240.64
1261.529	238.77
1264.79	237.21
1268.051	234.72
1271.312	232.26
1274.572	229.65
1277.832	227.96
1281.092	224.26
1284.351	223.15
1287.61	223.4
1290.869	220.97
1294.128	219.48
1297.386	218.88
1300.644	217.11
1303.902	217.76
1307.159	216.44
1310.416	216.25
1313.673	215.45
1316.93	218.05
1320.186	217.35
1323.442	217.74
1326.697	221.08
1329.953	221.41
1333.208	222.7
1336.463	224.36
1339.717	224.8
1342.972	227.73
1346.226	229.89
1349.479	231.21
1352.733	231.73
1355.986	233.2
1359.238	232.8
1362.491	233.55
1365.743	236.27
1368.995	235.8
1372.247	236.21
1375.498	235.7
1378.749	237.41
1382	234.61
1385.251	234.55
1388.501	233.13
1391.751	233.31
1395	232.29
1398.25	230.84
1401.499	228.34
1404.748	228.02
1407.996	225.37
1411.244	224.19
1414.492	222.83
1417.74	219.9
1420.987	217.53
1424.234	216.37
1427.481	213.58
1430.728	213.46
1433.974	211.76
1437.22	209.81
1440.465	209.08
1443.711	207.2
1446.956	205.91
1450.201	202.63
1453.445	201.56
1456.689	200.16
1459.933	197.46
1463.177	196.18
1466.42	192.57
1469.663	189.82
1472.906	188.92
1476.148	184.43
1479.391	182.28
1482.633	181.03
1485.874	179
1489.115	177.24
1492.356	175.38
1495.597	174.95
1498.838	172.07
1502.078	171.7
1505.318	171.23
1508.557	171.14
1511.797	171.55
1515.036	170.33
1518.274	169.43
1521.513	168.75
1524.751	168.54
1527.989	168.18
1531.227	167.4
1534.464	168.28
1537.701	166.99
1540.938	166.61
1544.174	165.01
1547.41	164.55
1550.646	164.13
1553.882	164.54
1557.117	162.64
1560.352	161.63
1563.587	161.38
1566.821	160.39
1570.055	159.05
1573.289	157.82
1576.523	158
1579.756	156.35
1582.989	155.87
1586.222	155.89
1589.454	154.45
1592.686	155.21
1595.918	154.56
1599.15	153.97
1602.381	154.52
1605.612	154.29
1608.843	155.04
1612.073	154.37
1615.303	155.75
1618.533	155.36
1621.762	155.27
1624.992	155.94
1628.221	155.59
1631.449	155.37
1634.678	155.64
1637.906	156.1
1641.134	156.22
1644.361	155.85
1647.588	155.85
1650.815	155.39
1654.042	154.68
1657.269	155.95
1660.495	155.76
1663.72	155.93
1666.946	156.75
1670.171	156.8
1673.396	156.38
1676.621	156.6
1679.845	156.89
1683.069	157.21
1686.293	157.93
1689.517	159.02
1692.74	158.33
1695.963	158.68
1699.185	159.78
1702.408	159.42
1705.63	160.48
1708.852	161.15
1712.073	160.84
1715.294	161.38
1718.515	162.14
1721.736	162
1724.956	162.11
1728.176	162.18
1731.396	163.46
1734.616	162.98
1737.835	164.21
1741.054	162.14
1744.272	162.33
1747.491	163.88
1750.709	164.15
1753.927	164.07
1757.144	163.85
1760.361	164.45
1763.578	165.21
1766.795	164.42
1770.011	165.11
1773.227	165.26
1776.443	167.53
1779.658	168.04
1782.874	167.54
1786.089	168.28
1789.303	168.65
1792.518	170.82
1795.732	170.55
1798.945	171.7
1802.159	172.27
1805.372	173.07
1808.585	175.19
1811.797	175.6
1815.01	175.97
1818.222	177.56
1821.434	178.37
1824.645	179.11
1827.856	181.25
1831.067	182.89
1834.278	182.46
1837.488	184.26
1840.698	184.97
1843.908	183.5
1847.117	184.68
1850.326	185.73
1853.535	184.85
1856.744	187.59
1859.952	187.1
1863.16	185.64
1866.368	184.11
1869.575	185.38
1872.782	182.44
1875.989	181.45
1879.196	180.48
1882.402	178.92
1885.608	179.16
1888.814	179.01
1892.019	177.78
1895.224	177.41
1898.429	176.86
1901.634	177.41
1904.838	177.19
1908.042	178.52
1911.246	179.19
1914.449	180.54
1917.652	180.38
1920.855	180.15
1924.058	180.04
1927.26	179.28
1930.462	179.75
1933.664	181.64
1936.865	180.61
1940.066	180.64
1943.267	179.23
1946.467	178.89
1949.668	180.28
1952.868	182.05
1956.067	182.04
1959.267	183.28
1962.466	183.64
1965.665	182.95
1968.863	182.57
1972.061	185.45
1975.259	186.47
1978.457	188.89
1981.654	190.94
1984.852	190.96
1988.048	190.46
1991.245	192.51
1994.441	194.25
1997.637	195.58
2000.833	199.07
2004.028	201.88
2007.223	202.91
2010.418	205.14
2013.613	208.2
2016.807	210.15
2020.001	212.2
2023.194	215.94
2026.388	220.38
2029.581	224.72
2032.774	227.41
2035.966	231.77
2039.158	232.21
2042.35	236.7
2045.542	238.33
2048.733	241.73
2051.924	245.51
2055.115	249.64
2058.306	250.14
2061.496	252.42
2064.686	253.17
2067.875	256.38
2071.065	258.25
2074.254	257.4
2077.442	260.02
2080.631	261.47
2083.819	264.21
2087.007	264.44
2090.195	266.94
2093.382	269.05
2096.569	267.72
2099.756	272.84
2102.942	274.68
2106.128	276
2109.314	282.31
2112.5	281.78
2115.685	287.61
2118.87	288.49
2122.055	294.17
2125.239	296.36
2128.424	301.31
2131.608	302.5
2134.791	305.51
2137.974	306.72
2141.157	307.9
2144.34	308.92
2147.523	313.99
2150.705	312.39
2153.887	315.6
2157.068	315.69
2160.25	312.77
2163.431	314.55
2166.611	319.16
2169.792	323.78
2172.972	327.45
2176.152	329.22
2179.331	333.67
2182.511	338.25
2185.69	340.78
2188.868	346.95
2192.047	348.11
2195.225	359.09
2198.403	366.19
2201.58	372.11
2204.758	378.57
2207.935	386.49
2211.111	394.7
2214.288	399.49
2217.464	400.5
2220.64	409.59
2223.815	413.34
2226.991	430.01
2230.166	429.91
2233.34	436.37
2236.515	445.56
2239.689	446.5
2242.863	446.96
2246.036	459.4
2249.209	455.75
2252.382	463.57
2255.555	475.54
2258.727	477.87
2261.9	482.13
2265.071	487.34
2268.243	494.8
2271.414	499.05
2274.585	509.99
2277.756	517.37
2280.926	522.3
2284.096	534.72
2287.266	545.31
2290.436	548.86
2293.605	561.96
2296.774	576.13
2299.942	591.46
2303.111	597.25
2306.279	610.18
2309.447	618.65
2312.614	634.94
2315.781	650.17
2318.948	678.19
2322.115	669.89
2325.281	709.39
2328.447	695.4
2331.613	719.39
2334.779	714.87
2337.944	747.74
2341.109	754.09
2344.274	775.59
2347.438	798.26
2350.602	797.86
2353.766	825.49
2356.929	838.93
2360.092	824.67
2363.255	883.77
2366.418	886.59
2369.58	904.96
2372.742	952.69
2375.904	979.08
2379.066	974.83
2382.227	961.57
2385.388	1041.44
2388.548	1041.13
2391.709	1051.5
2394.869	1179.22
2398.029	1128.64
2401.188	1159.23
2404.347	1151.86
2407.506	1137.51
2410.665	1167
2413.823	1236.26
2416.981	1308.17
2420.139	1267.06
2423.296	1253.12
2426.453	1307.62
2429.61	1256.32
2432.767	1315.35
2435.923	1303.4
2439.079	1420.05
2442.235	1439.85
2445.391	1428
2448.546	1416.19
2451.701	1375.14
2454.855	1374.68
2458.009	1451.43
2461.163	1517.44
2464.317	1573.04
2467.471	1612.28
2470.624	1606.85
2473.777	1566.42
2476.929	1532.27
2480.082	1486.78
2483.234	1470.48
2486.385	1545.3
2489.537	1552.06
2492.688	1609.43
2495.839	1563.08
2498.989	1528.06
2502.14	1536.14
2505.29	1554.09
2508.439	1581.05
2511.589	1572.47
2514.738	1713.23
2517.887	1673.36
2521.035	1760.75
2524.183	1780.15
2527.331	1796.63
2530.479	1784.21
2533.627	1798.73
