Data from C_1_HIR_WI_4N_Splice17_13-00-02-202.txt Node
Date: Sat Mar 07 13:00:02 EST 2020
User: sa697716
Spectrometer: NQ5500242
Trigger mode: 0
Integration Time (sec): 1.450000E-1
Scans to average: 20
Nonlinearity correction enabled: false
Boxcar width: 5
Storing dark spectrum: false
XAxis mode: Wavelengths
Number of Pixels in Spectrum: 512
>>>>>Begin Spectral Data<<<<<
187.83	180.5
188.298	200.9
188.766	180.49
189.233	153.44
189.701	144.85
190.169	187.1
190.636	208.16
191.104	293.36
191.571	196.65
192.039	71.95
192.506	461.38
192.974	-19.8
193.441	103.01
193.908	62.12
194.375	59.78
194.842	-1.16
195.31	75.84
195.777	116.32
196.244	49.68
196.711	40.35
197.177	44.18
197.644	44.59
198.111	43.52
198.578	42.88
199.045	43.26
199.511	43.11
199.978	43.04
200.445	43.21
200.911	43.3
201.378	43.15
201.844	43.28
202.31	42.7
202.777	42.7
203.243	42.85
203.709	42.9
204.176	42.62
204.642	42.83
205.108	42.64
205.574	42.32
206.04	41.67
206.506	41.27
206.972	41.41
207.438	41.3
207.903	40.73
208.369	40.08
208.835	39.59
209.301	38.83
209.766	37.45
210.232	36.46
210.697	35.56
211.163	34.78
211.628	34.22
212.094	33.3
212.559	32.8
213.024	32.18
213.49	31.51
213.955	30.59
214.42	29.81
214.885	29.23
215.35	28.45
215.815	27.24
216.28	25.61
216.745	23.6
217.21	21.72
217.675	19.87
218.14	18.38
218.604	17.14
219.069	16.1
219.534	15.28
219.998	14.55
220.463	13.94
220.927	13.37
221.392	12.94
221.856	12.65
222.32	12.35
222.785	12.13
223.249	11.91
223.713	11.69
224.177	11.52
224.642	11.31
225.106	11.09
225.57	10.87
226.034	10.72
226.497	10.56
226.961	10.39
227.425	10.26
227.889	10.1
228.353	9.94
228.816	9.78
229.28	9.63
229.744	9.51
230.207	9.39
230.671	9.28
231.134	9.15
231.597	9.06
232.061	8.95
232.524	8.83
232.987	8.72
233.45	8.64
233.914	8.55
234.377	8.45
234.84	8.36
235.303	8.28
235.766	8.2
236.229	8.12
236.691	8.03
237.154	7.95
237.617	7.88
238.08	7.81
238.542	7.72
239.005	7.65
239.468	7.58
239.93	7.51
240.393	7.44
240.855	7.36
241.317	7.28
241.78	7.2
242.242	7.13
242.704	7.07
243.166	7.01
243.629	6.96
244.091	6.9
244.553	6.84
245.015	6.78
245.477	6.71
245.939	6.65
246.4	6.6
246.862	6.55
247.324	6.5
247.786	6.44
248.247	6.38
248.709	6.31
249.17	6.24
249.632	6.2
250.093	6.15
250.555	6.11
251.016	6.07
251.477	6.02
251.939	5.99
252.4	5.95
252.861	5.92
253.322	5.89
253.783	5.86
254.244	5.83
254.705	5.79
255.166	5.75
255.627	5.72
256.088	5.7
256.549	5.67
257.009	5.62
257.47	5.58
257.931	5.53
258.391	5.49
258.852	5.44
259.312	5.41
259.773	5.37
260.233	5.35
260.694	5.31
261.154	5.26
261.614	5.23
262.074	5.2
262.534	5.17
262.994	5.15
263.455	5.11
263.915	5.09
264.374	5.07
264.834	5.06
265.294	5.03
265.754	5.02
266.214	5
266.673	4.99
267.133	4.98
267.593	4.97
268.052	4.96
268.512	4.95
268.971	4.94
269.431	4.92
269.89	4.91
270.349	4.9
270.809	4.88
271.268	4.87
271.727	4.86
272.186	4.85
272.645	4.83
273.104	4.81
273.563	4.8
274.022	4.78
274.481	4.77
274.94	4.77
275.399	4.75
275.857	4.74
276.316	4.72
276.775	4.71
277.233	4.7
277.692	4.7
278.15	4.69
278.609	4.69
279.067	4.68
279.525	4.68
279.984	4.66
280.442	4.65
280.9	4.65
281.358	4.64
281.816	4.63
282.274	4.62
282.732	4.6
283.19	4.59
283.648	4.57
284.106	4.55
284.564	4.53
285.021	4.52
285.479	4.51
285.937	4.48
286.394	4.48
286.852	4.46
287.309	4.44
287.767	4.42
288.224	4.4
288.682	4.39
289.139	4.37
289.596	4.35
290.053	4.33
290.511	4.31
290.968	4.3
291.425	4.27
291.882	4.26
292.339	4.25
292.796	4.24
293.252	4.23
293.709	4.22
294.166	4.21
294.623	4.2
295.079	4.19
295.536	4.19
295.992	4.18
296.449	4.18
296.905	4.17
297.362	4.16
297.818	4.15
298.274	4.15
298.731	4.14
299.187	4.12
299.643	4.12
300.099	4.11
300.555	4.11
301.011	4.09
301.467	4.09
301.923	4.08
302.379	4.07
302.835	4.07
303.291	4.06
303.746	4.05
304.202	4.05
304.658	4.05
305.113	4.04
305.569	4.04
306.024	4.04
306.479	4.02
306.935	4.02
307.39	4.02
307.845	4.01
308.301	4.01
308.756	4
309.211	3.99
309.666	4
310.121	3.99
310.576	3.99
311.031	3.99
311.486	3.99
311.94	3.99
312.395	3.98
312.85	3.98
313.305	3.97
313.759	3.97
314.214	3.97
314.668	3.95
315.123	3.95
315.577	3.94
316.032	3.93
316.486	3.92
316.94	3.91
317.394	3.9
317.849	3.89
318.303	3.89
318.757	3.87
319.211	3.86
319.665	3.85
320.119	3.84
320.572	3.83
321.026	3.83
321.48	3.82
321.934	3.81
322.387	3.79
322.841	3.79
323.295	3.79
323.748	3.79
324.202	3.79
324.655	3.78
325.108	3.79
325.562	3.79
326.015	3.78
326.468	3.78
326.921	3.79
327.374	3.79
327.827	3.8
328.28	3.78
328.733	3.79
329.186	3.78
329.639	3.78
330.092	3.77
330.545	3.77
330.997	3.77
331.45	3.77
331.903	3.78
332.355	3.78
332.808	3.77
333.26	3.78
333.713	3.77
334.165	3.76
334.617	3.77
335.069	3.75
335.522	3.75
335.974	3.75
336.426	3.73
336.878	3.72
337.33	3.71
337.782	3.71
338.234	3.71
338.686	3.7
339.137	3.7
339.589	3.69
340.041	3.69
340.493	3.68
340.944	3.67
341.396	3.67
341.847	3.66
342.299	3.65
342.75	3.64
343.201	3.61
343.653	3.6
344.104	3.59
344.555	3.59
345.006	3.57
345.457	3.57
345.908	3.55
346.359	3.56
346.81	3.55
347.261	3.54
347.712	3.53
348.163	3.53
348.613	3.53
349.064	3.53
349.515	3.52
349.965	3.52
350.416	3.51
350.866	3.51
351.317	3.5
351.767	3.51
352.217	3.5
352.668	3.5
353.118	3.51
353.568	3.5
354.018	3.5
354.468	3.51
354.918	3.5
355.368	3.5
355.818	3.5
356.268	3.5
356.718	3.5
357.168	3.5
357.617	3.49
358.067	3.48
358.517	3.49
358.966	3.48
359.416	3.48
359.865	3.48
360.315	3.47
360.764	3.47
361.213	3.46
361.663	3.45
362.112	3.46
362.561	3.47
363.01	3.46
363.459	3.44
363.908	3.44
364.357	3.44
364.806	3.42
365.255	3.42
365.703	3.43
366.152	3.42
366.601	3.42
367.05	3.41
367.498	3.4
367.947	3.39
368.395	3.4
368.844	3.39
369.292	3.38
369.74	3.38
370.189	3.37
370.637	3.35
371.085	3.34
371.533	3.33
371.981	3.33
372.429	3.33
372.877	3.33
373.325	3.32
373.773	3.31
374.221	3.31
374.669	3.31
375.116	3.3
375.564	3.29
376.012	3.29
376.459	3.29
376.907	3.29
377.354	3.28
377.801	3.27
378.249	3.27
378.696	3.27
379.143	3.27
379.591	3.27
380.038	3.28
380.485	3.28
380.932	3.27
381.379	3.27
381.826	3.26
382.273	3.25
382.72	3.24
383.166	3.23
383.613	3.22
384.06	3.2
384.506	3.19
384.953	3.17
385.4	3.17
385.846	3.17
386.292	3.16
386.739	3.15
387.185	3.15
387.631	3.16
388.078	3.15
388.524	3.15
388.97	3.15
389.416	3.16
389.862	3.16
390.308	3.17
390.754	3.17
391.2	3.17
391.645	3.18
392.091	3.19
392.537	3.19
392.983	3.19
393.428	3.2
393.874	3.21
394.319	3.21
394.765	3.22
395.21	3.21
395.655	3.21
396.101	3.23
396.546	3.23
396.991	3.23
397.436	3.24
397.881	3.27
398.326	3.29
398.771	3.29
399.216	3.3
399.661	3.31
400.106	3.32
400.551	3.33
400.995	3.32
401.44	3.32
401.885	3.33
402.329	3.33
402.774	3.33
403.218	3.35
403.663	3.37
404.107	3.37
404.551	3.38
404.995	3.39
405.44	3.39
405.884	3.41
406.328	3.43
406.772	3.43
407.216	3.45
407.66	3.45
408.104	3.44
408.547	3.45
408.991	3.46
409.435	3.46
409.879	3.47
410.322	3.48
410.766	3.49
411.209	3.51
411.653	3.53
412.096	3.54
412.54	3.55
412.983	3.56
413.426	3.59
413.869	3.6
414.312	3.63
414.756	3.65
415.199	3.65
415.642	3.67
416.085	3.67
416.527	3.67
416.97	3.68
417.413	3.67
417.856	3.66
418.298	3.65
418.741	3.67
419.184	3.66
419.626	3.67
420.069	3.69
420.511	3.69
420.953	3.69
421.396	3.7
421.838	3.7
422.28	3.73
422.722	3.75
423.164	3.75
423.606	3.75
424.048	3.75
424.49	3.75
424.932	3.74
425.374	3.73
425.816	3.71
426.258	3.7
426.699	3.69
427.141	3.69
427.582	3.69
428.024	3.69
428.465	3.7
428.907	3.7
429.348	3.69
429.789	3.69
430.231	3.72
430.672	3.74
431.113	3.75
431.554	3.77
431.995	3.78
432.436	3.78
432.877	3.79
433.318	3.81
433.759	3.83
434.2	3.85
434.64	3.87
435.081	3.88
435.522	3.9
435.962	3.92
436.403	3.95
436.843	3.96
437.284	3.95
437.724	3.96
438.164	3.95
438.604	3.95
439.045	3.95
439.485	3.95
439.925	3.93
440.365	3.92
440.805	3.92
441.245	3.91
441.685	3.94
442.125	3.95
442.564	3.95
443.004	3.93
443.444	3.94
443.883	3.93
444.323	3.92
444.762	3.93
445.202	3.93
445.641	3.92
446.081	3.92
446.52	3.9
446.959	3.91
447.398	3.92
447.837	3.93
448.276	3.91
448.716	3.92
449.154	3.94
449.593	3.94
450.032	3.93
450.471	3.92
450.91	3.91
451.349	3.92
451.787	3.9
452.226	3.87
452.664	3.88
453.103	3.89
453.541	3.88
453.98	3.89
454.418	3.86
454.856	3.86
455.295	3.85
455.733	3.83
456.171	3.82
456.609	3.82
457.047	3.81
457.485	3.8
457.923	3.79
458.361	3.78
458.798	3.77
459.236	3.77
459.674	3.76
460.111	3.76
460.549	3.77
460.987	3.77
461.424	3.78
461.862	3.79
462.299	3.79
462.736	3.79
463.173	3.79
463.611	3.79
464.048	3.8
464.485	3.81
464.922	3.81
465.359	3.81
465.796	3.83
466.233	3.83
466.67	3.85
467.106	3.86
467.543	3.86
467.98	3.85
468.416	3.84
468.853	3.85
469.29	3.84
469.726	3.85
470.162	3.84
470.599	3.83
471.035	3.81
471.471	3.8
471.907	3.77
472.344	3.77
472.78	3.77
473.216	3.77
473.652	3.76
474.088	3.74
474.523	3.74
474.959	3.73
475.395	3.71
475.831	3.71
476.266	3.71
476.702	3.7
477.138	3.7
477.573	3.7
478.008	3.69
478.444	3.68
478.879	3.68
479.314	3.67
479.75	3.67
480.185	3.65
480.62	3.63
481.055	3.62
481.49	3.61
481.925	3.6
482.36	3.59
482.795	3.58
483.229	3.57
483.664	3.57
484.099	3.56
484.534	3.56
484.968	3.56
485.403	3.56
485.837	3.57
486.271	3.58
486.706	3.58
487.14	3.58
487.574	3.58
488.009	3.59
488.443	3.6
488.877	3.61
489.311	3.62
489.745	3.63
490.179	3.64
490.613	3.67
491.046	3.67
491.48	3.69
491.914	3.71
492.348	3.73
492.781	3.77
493.215	3.79
493.648	3.82
494.082	3.85
494.515	3.88
494.948	3.91
495.382	3.93
495.815	3.97
496.248	4.01
496.681	4.06
497.114	4.09
497.547	4.13
497.98	4.17
498.413	4.22
498.846	4.27
499.279	4.32
499.711	4.37
500.144	4.45
500.577	4.51
501.009	4.57
501.442	4.63
501.874	4.72
502.306	4.79
502.739	4.89
503.171	4.98
503.603	5.07
504.036	5.17
504.468	5.28
504.9	5.37
505.332	5.48
505.764	5.62
506.196	5.74
506.627	5.87
507.059	6.02
507.491	6.14
507.923	6.29
508.354	6.45
508.786	6.62
509.217	6.78
509.649	6.97
510.08	7.15
510.512	7.34
510.943	7.53
511.374	7.73
511.805	7.93
512.237	8.14
512.668	8.36
513.099	8.58
513.53	8.8
513.961	9.03
514.391	9.28
514.822	9.53
515.253	9.77
515.684	10.02
516.114	10.27
516.545	10.52
516.975	10.79
517.406	11.05
517.836	11.32
518.267	11.6
518.697	11.86
519.127	12.11
519.558	12.37
519.988	12.65
520.418	12.92
520.848	13.19
521.278	13.46
521.708	13.92
522.138	14.19
522.567	14.44
522.997	14.68
523.427	14.93
523.857	15.17
524.286	15.41
524.716	15.65
525.145	15.88
525.575	16.1
526.004	16.32
526.433	16.33
526.863	16.52
527.292	16.72
527.721	16.91
528.15	17.09
528.579	17.27
529.008	17.44
529.437	17.59
529.866	17.73
530.295	17.88
530.724	18.02
531.152	18.15
531.581	18.28
532.01	18.4
532.438	18.51
532.867	18.63
533.295	18.72
533.723	18.82
534.152	18.93
534.58	19.03
535.008	19.11
535.436	19.19
535.865	19.26
536.293	19.33
536.721	19.4
537.149	19.47
537.576	19.54
538.004	19.6
538.432	19.65
538.86	19.69
539.287	19.74
539.715	19.79
540.143	19.82
540.57	19.86
540.998	19.89
541.425	19.93
541.852	19.98
542.28	20.01
542.707	20.05
543.134	20.08
543.561	20.11
543.988	20.15
544.415	20.17
544.842	20.2
545.269	20.25
545.696	20.3
546.123	20.32
546.549	20.34
546.976	20.37
547.403	20.4
547.829	20.42
548.256	20.44
548.682	20.47
549.108	20.5
549.535	20.53
549.961	20.53
550.387	20.52
550.813	20.52
551.24	20.51
551.666	20.5
552.092	20.47
552.518	20.48
552.943	20.46
553.369	20.43
553.795	20.39
554.221	20.34
554.646	20.3
555.072	20.26
555.498	20.21
555.923	20.15
556.349	20.09
556.774	20.02
557.199	19.94
557.625	19.86
558.05	19.78
558.475	19.7
558.9	19.61
559.325	19.54
559.75	19.45
560.175	19.37
560.6	19.27
561.025	19.17
561.449	19.07
561.874	18.96
562.299	18.85
562.723	18.73
563.148	18.6
563.572	18.48
563.997	18.34
564.421	18.19
564.846	18.04
565.27	17.9
565.694	17.76
566.118	17.61
566.542	17.47
566.966	17.32
567.39	17.18
567.814	17.03
568.238	16.88
568.662	16.73
569.086	16.58
569.509	16.44
569.933	16.3
570.357	16.15
570.78	16.01
571.204	15.87
571.627	15.73
572.05	15.58
572.474	15.46
572.897	15.35
573.32	15.22
573.743	15.09
574.166	14.97
574.589	14.84
575.012	14.73
575.435	14.61
575.858	14.5
576.281	14.38
576.704	14.28
577.126	14.17
577.549	14.06
577.972	13.96
578.394	13.86
578.817	13.77
579.239	13.68
579.661	13.6
580.084	13.52
580.506	13.45
580.928	13.37
581.35	13.29
581.772	13.21
582.194	13.14
582.616	13.05
583.038	12.98
583.46	12.91
583.882	12.83
584.303	12.76
584.725	12.68
585.147	12.61
585.568	12.54
585.99	12.48
586.411	12.43
586.833	12.36
587.254	12.31
587.675	12.26
588.096	12.2
588.518	12.14
588.939	12.11
589.36	12.07
589.781	12.03
590.202	12
590.623	11.95
591.043	11.9
591.464	11.86
591.885	11.81
592.305	11.77
592.726	11.75
593.147	11.71
593.567	11.67
593.987	11.63
594.408	11.6
594.828	11.55
595.248	11.53
595.669	11.51
596.089	11.49
596.509	11.46
596.929	11.43
597.349	11.4
597.769	11.38
598.189	11.35
598.608	11.32
599.028	11.3
599.448	11.26
599.867	11.22
600.287	11.18
600.706	11.15
601.126	11.11
601.545	11.07
601.965	11.03
602.384	10.98
602.803	10.93
603.222	10.88
603.641	10.83
604.061	10.78
604.48	10.72
604.898	10.66
605.317	10.61
605.736	10.55
606.155	10.49
606.574	10.41
606.992	10.34
607.411	10.27
607.829	10.18
608.248	10.1
608.666	10.02
609.085	9.95
609.503	9.88
609.921	9.8
610.339	9.73
610.758	9.65
611.176	9.59
611.594	9.52
612.012	9.44
612.43	9.4
612.847	9.34
613.265	9.27
613.683	9.21
614.101	9.15
614.518	9.09
614.936	9.02
615.353	8.96
615.771	8.9
616.188	8.84
616.606	8.79
617.023	8.73
617.44	8.69
617.857	8.63
618.274	8.58
618.691	8.52
619.108	8.47
619.525	8.43
619.942	8.39
620.359	8.35
620.776	8.32
621.192	8.28
621.609	8.26
622.026	8.22
622.442	8.21
622.859	8.18
623.275	8.16
623.691	8.16
624.108	8.14
624.524	8.12
624.94	8.1
625.356	8.1
625.772	8.09
626.188	8.08
626.604	8.07
627.02	8.06
627.436	8.07
627.852	8.06
628.268	8.05
628.683	8.04
629.099	8.04
629.514	8.03
629.93	8.01
630.345	8
630.761	7.99
631.176	7.96
631.591	7.94
632.007	7.9
632.422	7.86
632.837	7.83
633.252	7.78
633.667	7.74
634.082	7.69
634.497	7.65
634.911	7.59
635.326	7.53
635.741	7.49
636.155	7.41
636.57	7.35
636.984	7.28
637.399	7.21
637.813	7.14
638.228	7.06
638.642	6.98
639.056	6.89
639.47	6.82
639.884	6.73
640.298	6.64
640.712	6.56
641.126	6.48
641.54	6.4
641.954	6.3
642.368	6.24
642.781	6.16
643.195	6.08
643.609	6.02
644.022	5.94
644.436	5.87
644.849	5.8
645.262	5.73
645.676	5.66
646.089	5.6
646.502	5.55
646.915	5.49
647.328	5.44
647.741	5.4
648.154	5.35
648.567	5.32
648.98	5.28
649.393	5.24
649.805	5.21
650.218	5.17
650.631	5.15
651.043	5.12
651.456	5.09
651.868	5.05
652.28	5.02
652.693	4.99
653.105	4.95
653.517	4.92
653.929	4.89
654.341	4.84
654.753	4.81
655.165	4.77
655.577	4.72
655.989	4.67
656.401	4.62
656.813	4.58
657.224	4.52
657.636	4.46
658.047	4.42
658.459	4.37
658.87	4.32
659.282	4.26
659.693	4.21
660.104	4.15
660.515	4.1
660.926	4.05
661.338	4
661.749	3.96
662.159	3.91
662.57	3.88
662.981	3.85
663.392	3.81
663.803	3.78
664.213	3.74
664.624	3.71
665.035	3.69
665.445	3.67
665.855	3.65
666.266	3.64
666.676	3.63
667.086	3.6
667.497	3.58
667.907	3.57
668.317	3.56
668.727	3.57
669.137	3.57
669.547	3.57
669.956	3.56
670.366	3.56
670.776	3.57
671.186	3.56
671.595	3.57
672.005	3.57
672.414	3.58
672.824	3.58
673.233	3.58
673.642	3.59
674.052	3.6
674.461	3.61
674.87	3.61
675.279	3.63
675.688	3.64
676.097	3.67
676.506	3.69
676.915	3.71
677.323	3.74
677.732	3.76
678.141	3.78
678.549	3.81
678.958	3.85
679.366	3.88
679.775	3.91
680.183	3.95
680.592	3.99
681	4.04
681.408	4.1
681.816	4.15
682.224	4.21
682.632	4.27
683.04	4.34
683.448	4.42
683.856	4.49
684.264	4.58
684.671	4.68
685.079	4.79
685.487	4.91
685.894	5.05
686.302	5.2
686.709	5.38
687.116	5.58
687.524	5.8
687.931	6.04
688.338	6.31
688.745	6.6
689.152	6.9
689.559	7.25
689.966	7.59
690.373	7.97
690.78	8.37
691.187	8.79
691.593	9.22
692	9.65
692.407	10.1
692.813	10.58
693.22	11.08
693.626	11.58
694.032	12.09
694.439	12.61
694.845	13.15
695.251	13.68
695.657	14.2
696.063	14.75
696.469	15.32
696.875	15.88
697.281	16.45
697.687	17
698.093	17.55
698.498	18.09
698.904	18.64
699.31	19.18
699.715	19.73
700.12	20.28
700.526	20.82
700.931	21.36
701.337	21.9
701.742	22.38
702.147	22.89
702.552	23.4
702.957	23.89
703.362	24.38
703.767	24.86
704.172	25.35
704.577	25.83
704.981	26.31
705.386	26.77
705.791	27.22
706.195	27.68
706.6	28.15
707.004	28.59
707.408	29.05
707.813	29.5
708.217	29.92
708.621	30.35
709.025	30.74
709.43	31.14
709.834	31.54
710.237	31.93
710.641	32.33
711.045	32.69
711.449	33.09
711.853	33.47
712.256	33.82
712.66	34.19
713.064	34.56
713.467	34.93
713.87	35.29
714.274	35.62
714.677	35.98
715.08	36.31
715.484	36.67
715.887	37.01
716.29	37.33
716.693	37.66
717.096	37.96
717.499	38.25
717.901	38.55
718.304	38.83
718.707	39.11
719.109	39.39
719.512	39.67
719.915	39.93
720.317	40.17
720.719	40.38
721.122	40.63
721.524	40.86
721.926	41.1
722.328	41.35
722.731	41.58
723.133	41.82
723.535	42.04
723.937	42.23
724.338	42.42
724.74	42.62
725.142	42.94
725.544	43.12
725.945	43.34
726.347	43.5
726.748	43.66
727.15	43.82
727.551	43.99
727.952	44.14
728.354	44.29
728.755	44.43
729.156	44.55
729.557	44.58
729.958	44.69
730.359	44.8
730.76	44.94
731.161	45.06
731.562	45.18
731.962	45.28
732.363	45.38
732.763	45.47
733.164	45.58
733.564	45.68
733.965	45.78
734.365	45.87
734.766	45.96
735.166	46.04
735.566	46.11
735.966	46.2
736.366	46.27
736.766	46.33
737.166	46.44
737.566	46.51
737.966	46.59
738.365	46.67
738.765	46.74
739.165	46.79
739.564	46.85
739.964	46.91
740.363	46.93
740.763	47.01
741.162	47.07
741.561	47.07
741.96	47.07
742.36	47.11
742.759	47.12
743.158	47.16
743.557	47.19
743.955	47.22
744.354	47.24
744.753	47.29
745.152	47.3
745.55	47.3
745.949	47.36
746.348	47.42
746.746	47.42
747.144	47.46
747.543	47.47
747.941	47.49
748.339	47.48
748.737	47.49
749.136	47.5
749.534	47.48
749.932	47.51
750.33	47.5
750.727	47.52
751.125	47.53
751.523	47.56
751.921	47.58
752.318	47.6
752.716	47.66
753.113	47.69
753.511	47.71
753.908	47.79
754.305	47.8
754.703	47.81
755.1	47.84
755.497	47.87
755.894	47.87
756.291	47.88
756.688	47.9
757.085	47.91
757.482	47.92
757.878	47.95
758.275	47.9
758.672	47.93
759.068	47.98
759.465	47.94
759.861	47.95
760.258	47.95
760.654	47.97
761.05	47.95
761.447	47.95
761.843	47.92
762.239	47.9
762.635	47.92
763.031	47.92
763.427	47.9
763.822	47.93
764.218	47.93
764.614	47.95
765.01	47.92
765.405	47.91
765.801	47.9
766.196	47.92
766.592	47.93
766.987	47.95
767.382	47.93
767.778	47.93
768.173	47.93
768.568	47.91
768.963	47.9
769.358	47.92
769.753	47.94
770.148	47.96
770.542	47.95
770.937	47.97
771.332	47.94
771.726	47.94
772.121	47.92
772.515	47.94
772.91	47.94
773.304	47.96
773.699	47.96
774.093	47.95
774.487	47.93
774.881	47.91
775.275	47.88
775.669	47.87
776.063	47.87
776.457	47.9
776.851	47.88
777.245	47.87
777.638	47.86
778.032	47.88
778.425	47.91
778.819	47.92
779.212	47.96
779.606	47.98
779.999	47.98
780.392	48.02
780.786	47.99
781.179	48
781.572	48.03
781.965	48.04
782.358	48.01
782.751	47.98
783.143	47.97
783.536	47.96
783.929	47.94
784.322	47.97
784.714	47.96
785.107	47.98
785.499	47.97
785.891	47.97
786.284	47.96
786.676	47.95
787.068	47.96
787.46	47.98
787.852	47.95
788.245	47.93
788.636	47.92
789.028	47.93
789.42	47.92
789.812	47.94
790.204	47.95
790.595	47.98
790.987	47.99
791.378	48.02
791.77	48.02
792.161	48.04
792.553	48.06
792.944	48.04
793.335	48.05
793.726	48.07
794.117	48.05
794.508	48.03
794.899	48.01
795.29	47.99
795.681	47.95
796.072	47.93
796.463	47.96
796.853	47.97
797.244	47.97
797.634	47.96
798.025	47.94
798.415	47.94
798.806	47.95
799.196	47.95
799.586	47.97
799.976	47.98
800.366	48
800.756	47.98
801.146	47.98
801.536	48.03
801.926	48
802.316	48.01
802.706	48.04
803.095	48.01
803.485	48
803.874	47.98
804.264	47.98
804.653	47.98
805.043	47.96
805.432	47.95
805.821	47.94
806.21	47.97
806.599	47.97
806.988	47.94
807.377	47.94
807.766	47.93
808.155	47.93
808.544	47.93
808.933	47.9
809.321	47.92
809.71	47.91
810.098	47.88
810.487	47.83
810.875	47.83
811.264	47.83
811.652	47.86
812.04	47.86
812.428	47.89
812.816	47.88
813.204	47.87
813.592	47.85
813.98	47.85
814.368	47.88
814.756	47.89
815.144	47.87
815.531	47.88
815.919	47.89
816.306	47.9
816.694	47.89
817.081	47.89
817.469	47.91
817.856	47.91
818.243	47.88
818.63	47.87
819.017	47.85
819.404	47.86
819.791	47.86
820.178	47.84
820.565	47.81
820.952	47.81
821.339	47.79
821.725	47.75
822.112	47.76
822.498	47.77
822.885	47.78
823.271	47.8
823.657	47.76
824.044	47.76
824.43	47.79
824.816	47.81
825.202	47.79
825.588	47.8
825.974	47.83
826.36	47.84
826.746	47.84
827.132	47.83
827.517	47.82
827.903	47.86
828.289	47.87
828.674	47.87
829.06	47.86
829.445	47.87
829.83	47.89
830.216	47.9
830.601	47.9
830.986	47.91
831.371	47.9
831.756	47.94
832.141	47.93
832.526	47.96
832.911	47.95
833.295	47.97
833.68	47.96
834.065	47.96
834.449	47.96
834.834	47.95
835.218	47.97
835.603	47.98
835.987	47.95
836.371	47.95
836.755	47.93
837.139	47.93
837.524	47.94
837.908	47.96
838.291	47.96
838.675	47.96
839.059	47.97
839.443	47.96
839.827	47.96
840.21	47.96
840.594	47.96
840.977	47.96
841.361	47.97
841.744	47.94
842.127	47.95
842.511	47.94
842.894	47.93
843.277	47.93
843.66	47.93
844.043	47.93
844.426	47.93
844.809	47.95
845.191	47.96
845.574	47.96
845.957	47.97
846.339	47.98
846.722	47.98
847.104	47.99
847.487	47.98
847.869	47.99
848.252	47.99
848.634	47.99
849.016	47.98
849.398	47.99
849.78	47.99
850.162	47.98
850.544	47.99
850.926	47.99
851.307	47.99
851.689	47.98
852.071	47.98
852.452	47.98
852.834	48
853.215	48
853.597	47.98
853.978	47.97
854.359	47.99
854.741	47.98
855.122	47.97
855.503	47.94
855.884	47.94
856.265	47.95
856.646	47.94
857.026	47.96
857.407	47.96
857.788	47.93
858.169	47.94
858.549	47.91
858.93	47.92
859.31	47.92
859.69	47.95
860.071	47.97
860.451	47.97
860.831	47.97
861.211	47.9
861.591	47.89
861.971	47.9
862.351	47.91
862.731	47.92
863.111	47.91
863.491	47.92
863.87	47.91
864.25	47.89
864.629	47.89
865.009	47.9
865.388	47.94
865.768	47.97
866.147	47.98
866.526	47.97
866.905	47.99
867.284	48.02
867.663	48.02
868.042	48.04
868.421	48.06
868.8	48.08
869.179	48.07
869.558	48.05
869.936	48.05
870.315	48.03
870.693	48.03
871.072	48.04
871.45	48.04
871.828	48.02
872.207	48.03
872.585	48.02
872.963	48.03
873.341	48.02
873.719	48.05
874.097	48.05
874.475	48.06
874.853	48.07
875.23	48.05
875.608	48.01
875.986	48.04
876.363	48.02
876.741	48.02
877.118	48.01
877.495	48.02
877.873	48.02
878.25	48.02
878.627	48.03
879.004	48.01
879.381	48.01
879.758	48.01
880.135	48.03
880.512	48.03
880.889	48.02
881.265	47.99
881.642	47.98
882.019	47.98
882.395	47.97
882.772	47.95
883.148	47.96
883.524	47.93
883.901	47.94
884.277	47.91
884.653	47.88
885.029	47.88
885.405	47.89
885.781	47.9
886.157	47.88
886.532	47.9
886.908	47.9
887.284	47.88
887.659	47.88
888.035	47.86
888.411	47.86
888.786	47.88
889.161	47.91
889.537	47.89
889.912	47.87
890.287	47.86
890.662	47.83
891.037	47.84
891.412	47.84
891.787	47.84
892.162	47.86
892.536	47.85
892.911	47.84
893.286	47.82
893.66	47.85
894.035	47.85
894.409	47.86
894.784	47.88
895.158	47.88
895.532	47.88
895.906	47.88
896.281	47.87
896.655	47.89
897.029	47.92
897.402	47.92
897.776	47.9
898.15	47.92
898.524	47.95
898.898	47.94
899.271	47.93
899.645	47.94
900.018	47.97
900.392	47.98
900.765	47.97
901.138	47.95
901.511	47.95
901.884	47.98
902.258	47.99
902.631	47.98
903.003	48.02
903.376	48.03
903.749	48.02
904.122	48.02
904.495	48.04
904.867	48.07
905.24	48.1
905.612	48.11
905.985	48.1
906.357	48.07
906.729	48.07
907.102	48.08
907.474	48.09
907.846	48.1
908.218	48.09
908.59	48.08
908.962	48.12
909.334	48.1
909.705	48.11
910.077	48.12
910.449	48.14
910.82	48.16
911.192	48.14
911.563	48.12
911.935	48.11
912.306	48.11
912.677	48.11
913.048	48.08
913.419	48.07
913.79	48.07
914.161	48.06
914.532	48.08
914.903	48.07
915.274	48.06
915.645	48.08
916.015	48.08
916.386	48.06
916.756	48.05
917.127	48.04
917.497	48.04
917.868	48.05
918.238	48.04
918.608	48.04
918.978	48.04
919.348	48.07
919.718	48.07
920.088	48.08
920.458	48.1
920.828	48.13
921.198	48.1
921.567	48.09
921.937	48.1
922.306	48.09
922.676	48.07
923.045	48.04
923.415	48.03
923.784	48.03
924.153	48.03
924.522	48.05
924.891	48.02
925.26	48.06
925.629	48.05
925.998	48.04
926.367	48.06
926.736	48.07
927.104	48.1
927.473	48.07
927.842	48.02
928.21	48
928.578	47.96
928.947	47.98
929.315	47.97
929.683	47.96
930.051	47.93
930.42	47.92
930.788	47.9
931.156	47.89
931.523	47.87
931.891	47.95
932.259	47.97
932.627	48.01
932.994	48.04
933.362	48.07
933.729	48.12
934.097	48.15
934.464	48.17
934.831	48.18
935.199	48.21
935.566	48.25
935.933	48.2
936.3	48.21
936.667	48.23
937.034	48.24
937.401	48.25
937.767	48.21
938.134	48.23
938.501	48.25
938.867	48.29
939.234	48.26
939.6	48.27
939.967	48.29
940.333	48.27
940.699	48.25
941.065	48.15
941.431	48.1
941.798	48.14
942.163	48.1
942.529	48.04
942.895	48
943.261	47.97
943.627	47.93
943.992	47.91
944.358	47.92
944.723	47.89
945.089	47.87
945.454	47.84
945.82	47.77
946.185	47.77
946.55	47.71
946.915	47.63
947.28	47.61
947.645	47.63
948.01	47.67
948.375	47.62
948.74	47.6
949.104	47.68
949.469	47.64
949.834	47.61
950.198	47.61
950.562	47.6
950.927	47.65
951.291	47.6
951.655	47.54
952.02	47.48
952.384	47.45
952.748	47.4
953.112	47.35
953.476	47.34
953.839	47.32
954.203	47.28
954.567	47.26
954.931	47.23
955.294	47.2
955.658	47.24
956.021	47.24
956.385	47.24
956.748	47.22
957.111	47.19
957.474	47.2
957.837	47.17
958.2	47.15
958.563	47.18
958.926	47.19
959.289	47.22
959.652	47.14
960.015	47.18
960.377	47.2
960.74	47.28
961.102	47.29
961.465	47.28
961.827	47.35
962.189	47.38
962.552	47.37
962.914	47.32
963.276	47.38
963.638	47.46
964	47.37
964.362	47.36
964.724	47.31
965.085	47.27
965.447	47.31
965.809	47.26
966.17	47.22
966.532	47.18
966.893	47.24
967.255	47.2
967.616	47.19
967.977	47.23
968.338	47.23
968.699	47.26
969.061	47.29
969.421	47.33
969.782	47.37
970.143	47.4
970.504	47.47
970.865	47.47
971.225	47.46
971.586	47.43
971.946	47.41
972.307	47.36
972.667	47.28
973.027	47.31
973.388	47.28
973.748	47.28
974.108	47.31
974.468	47.26
974.828	47.31
975.188	47.27
975.548	47.31
975.907	47.34
976.267	47.4
976.627	47.48
976.986	47.39
977.346	47.34
977.705	47.3
978.064	47.33
978.424	47.4
978.783	47.32
979.142	47.34
979.501	47.33
979.86	47.39
980.219	47.36
980.578	47.35
980.937	47.47
981.296	47.51
981.654	47.5
982.013	47.51
982.371	47.49
982.73	47.5
983.088	47.47
983.447	47.46
983.805	47.46
984.163	47.48
984.521	47.44
984.879	47.36
985.237	47.37
985.595	47.45
985.953	47.4
986.311	47.34
986.669	47.34
987.026	47.4
987.384	47.51
987.741	47.44
988.099	47.47
988.456	47.49
988.814	47.6
989.171	47.62
989.528	47.59
989.885	47.6
990.242	47.67
990.599	47.71
990.956	47.72
991.313	47.66
991.67	47.76
992.027	47.96
992.383	47.99
992.74	48.04
993.096	48.04
993.453	48.09
993.809	48.02
994.165	48.05
994.522	48.08
994.878	48.13
995.234	48.14
995.59	48.06
995.946	47.92
996.302	47.98
996.658	47.88
997.013	47.81
997.369	47.78
997.725	47.91
998.08	47.88
998.436	47.94
998.791	47.93
999.147	47.97
999.502	48.01
999.857	48
1000.212	47.93
1000.567	47.98
1000.922	48.13
1001.277	48.18
1001.632	48.13
1001.987	48.11
1002.342	47.99
1002.696	47.94
1003.051	48.01
1003.406	48.14
1003.76	48.05
1004.114	48.03
1004.469	48.09
1004.823	48.24
1005.177	48.17
1005.531	48.14
1005.885	48.14
1006.239	48.16
1006.593	48.33
1006.947	48.25
1007.301	48.04
1007.655	48.12
1008.008	48.22
1008.362	48.18
1008.715	47.97
1009.069	48.03
1009.422	48.18
1009.776	48.25
1010.129	48.34
1010.482	48.19
1010.835	48.29
1011.188	48.45
1011.541	48.51
1011.894	48.51
1012.247	48.35
1012.6	48.37
1012.952	48.39
1013.305	48.36
1013.657	48.35
1014.01	48.37
1014.362	48.38
1014.715	48.49
1015.067	48.47
1015.419	48.54
1015.771	48.53
1016.123	48.71
1016.475	48.62
1016.827	48.71
1017.179	48.72
1017.531	48.78
1017.883	48.71
1018.234	49.03
1018.586	49
1018.938	49.25
1019.289	49.14
1019.64	49.26
1019.992	49.3
1020.343	49.43
1020.694	49.46
1021.045	49.51
1021.396	49.45
1021.747	49.63
1022.098	49.4
1022.449	49.33
1022.8	49.26
1023.151	49.25
1023.501	49.1
1023.852	49.12
1024.202	49.13
1024.553	48.89
1024.903	48.94
1025.253	49.1
1025.604	49.04
1025.954	48.97
1026.304	49.07
1026.654	48.91
1027.004	48.83
1027.354	48.86
1027.703	48.78
1028.053	48.74
1028.403	49.16
1028.753	48.9
1029.102	49.26
1029.452	49.63
1029.801	50.09
1030.15	50.06
1030.499	50.16
897.758	1249.53
901.051	1251.17
904.343	1248.13
907.636	1273.61
910.928	1240.14
914.22	1241.88
917.511	1226.19
920.803	1169.02
924.094	1164.23
927.384	1139.98
930.675	1095.1
933.965	1087.65
937.255	1026.85
940.544	986.36
943.834	937.9
947.123	930.72
950.411	876.28
953.7	857.92
956.988	815.42
960.276	783.97
963.563	770.28
966.851	742.09
970.138	736.8
973.424	714.52
976.711	716.95
979.997	680.36
983.283	675.97
986.568	661.71
989.853	642.1
993.138	629.57
996.423	605.56
999.708	588.59
1002.992	582.43
1006.275	555.9
1009.559	549.99
1012.842	531.55
1016.125	519.06
1019.408	509.15
1022.69	501.62
1025.972	491.86
1029.254	480.32
1032.536	472.05
1035.817	462.49
1039.098	456.43
1042.379	447.72
1045.659	442.79
1048.939	431.82
1052.219	422.67
1055.498	416.83
1058.778	406.86
1062.057	397.62
1065.335	393.85
1068.614	389.74
1071.892	386.25
1075.17	373.19
1078.447	365.94
1081.724	363.32
1085.001	361.36
1088.278	354.41
1091.554	347.22
1094.83	347.97
1098.106	346.09
1101.382	343.39
1104.657	340.89
1107.932	334.54
1111.206	337.24
1114.481	329.36
1117.755	326.49
1121.029	322.98
1124.302	323.09
1127.575	317.02
1130.848	313.09
1134.121	308.55
1137.393	306.68
1140.665	299.26
1143.937	297.74
1147.208	296.89
1150.48	295.76
1153.75	292.67
1157.021	287.97
1160.291	287.64
1163.561	284.95
1166.831	285
1170.101	283.95
1173.37	282.77
1176.639	284.36
1179.907	281.84
1183.176	277.39
1186.444	277.81
1189.711	276.87
1192.979	276.68
1196.246	274.51
1199.513	275.82
1202.78	273.74
1206.046	273.46
1209.312	271.31
1212.578	271.22
1215.843	273.41
1219.108	272.17
1222.373	276.83
1225.638	278.8
1228.902	282.84
1232.166	284.09
1235.43	285.63
1238.693	289.4
1241.956	291.3
1245.219	295.85
1248.482	296.42
1251.744	296.11
1255.006	296.3
1258.268	289.68
1261.529	287.06
1264.79	285.77
1268.051	283.51
1271.312	279.96
1274.572	277.91
1277.832	273.99
1281.092	270.08
1284.351	267.59
1287.61	267.42
1290.869	264.28
1294.128	262.93
1297.386	261.53
1300.644	258.05
1303.902	258.81
1307.159	258.63
1310.416	257.81
1313.673	258.31
1316.93	260.4
1320.186	260.4
1323.442	261.28
1326.697	265.28
1329.953	265.42
1333.208	267.92
1336.463	271.02
1339.717	271.44
1342.972	274.08
1346.226	276.47
1349.479	277.04
1352.733	278.17
1355.986	280.27
1359.238	279.77
1362.491	281.83
1365.743	284.3
1368.995	284.47
1372.247	283.44
1375.498	283.47
1378.749	286.06
1382	282.15
1385.251	283.09
1388.501	280.6
1391.751	280.77
1395	280.09
1398.25	277.4
1401.499	275.27
1404.748	274.23
1407.996	272.22
1411.244	270.59
1414.492	268.39
1417.74	266.69
1420.987	262.32
1424.234	262.34
1427.481	259.36
1430.728	258.64
1433.974	256.68
1437.22	254.81
1440.465	253.58
1443.711	251.53
1446.956	249.1
1450.201	247.15
1453.445	244.13
1456.689	243.65
1459.933	239.62
1463.177	237.52
1466.42	233.71
1469.663	230.5
1472.906	229.52
1476.148	223.97
1479.391	221.13
1482.633	220.14
1485.874	215.43
1489.115	214.39
1492.356	212.16
1495.597	211.99
1498.838	208.65
1502.078	207.78
1505.318	207.03
1508.557	206.97
1511.797	206.88
1515.036	205.68
1518.274	204.98
1521.513	204.37
1524.751	203.87
1527.989	203.01
1531.227	201.74
1534.464	202.39
1537.701	200.78
1540.938	200.52
1544.174	198.47
1547.41	198.52
1550.646	197.82
1553.882	197.72
1557.117	194.99
1560.352	194.49
1563.587	193.97
1566.821	192.8
1570.055	190.95
1573.289	190.02
1576.523	189.56
1579.756	188.09
1582.989	186.72
1586.222	186.24
1589.454	185.19
1592.686	186.44
1595.918	185.3
1599.15	184.65
1602.381	185.4
1605.612	185.07
1608.843	185.4
1612.073	185.35
1615.303	186.57
1618.533	186.8
1621.762	186.84
1624.992	187.23
1628.221	186.76
1631.449	186.94
1634.678	186.53
1637.906	187.22
1641.134	187.36
1644.361	187.12
1647.588	187.28
1650.815	186.1
1654.042	185.56
1657.269	186.8
1660.495	186.91
1663.72	186.67
1666.946	187.02
1670.171	187.79
1673.396	187.38
1676.621	187.83
1679.845	188
1683.069	188.04
1686.293	189.29
1689.517	190.58
1692.74	190.17
1695.963	190.4
1699.185	192.02
1702.408	192.32
1705.63	193.08
1708.852	193.65
1712.073	193.32
1715.294	193.92
1718.515	195.1
1721.736	194.86
1724.956	195.13
1728.176	195.27
1731.396	196.73
1734.616	195.68
1737.835	196.41
1741.054	194.74
1744.272	195.34
1747.491	197.21
1750.709	197.55
1753.927	197.43
1757.144	197.18
1760.361	197.75
1763.578	197.92
1766.795	197.34
1770.011	199.28
1773.227	198.75
1776.443	201.52
1779.658	202.13
1782.874	201.81
1786.089	202.5
1789.303	202.99
1792.518	204.95
1795.732	204.81
1798.945	206.86
1802.159	207.21
1805.372	207.73
1808.585	211.49
1811.797	211.85
1815.01	212.33
1818.222	214.01
1821.434	215.39
1824.645	216.08
1827.856	219.58
1831.067	221.57
1834.278	220.74
1837.488	222.42
1840.698	223.75
1843.908	221.73
1847.117	222.87
1850.326	223.53
1853.535	222.9
1856.744	226.08
1859.952	225.56
1863.16	223.84
1866.368	222.56
1869.575	224.44
1872.782	221.26
1875.989	219.66
1879.196	218.47
1882.402	216.8
1885.608	217.52
1888.814	217.52
1892.019	216.05
1895.224	215.44
1898.429	214.73
1901.634	215.05
1904.838	215.39
1908.042	216.81
1911.246	217.52
1914.449	218.99
1917.652	219.02
1920.855	218.6
1924.058	218.67
1927.26	217.97
1930.462	219
1933.664	220.96
1936.865	219.64
1940.066	219.37
1943.267	218.39
1946.467	217.84
1949.668	219.27
1952.868	222.18
1956.067	222.38
1959.267	222.86
1962.466	223.45
1965.665	222.19
1968.863	222.21
1972.061	225.58
1975.259	227.47
1978.457	228.87
1981.654	232.49
1984.852	232.97
1988.048	231.95
1991.245	233.5
1994.441	236.65
1997.637	237.87
2000.833	242.62
2004.028	246.98
2007.223	248.09
2010.418	250.49
2013.613	254.79
2016.807	256.63
2020.001	258.35
2023.194	263.32
2026.388	269.07
2029.581	274.28
2032.774	277.36
2035.966	282.92
2039.158	282.89
2042.35	287.84
2045.542	289.72
2048.733	295.29
2051.924	299.95
2055.115	304.42
2058.306	304.22
2061.496	308.01
2064.686	307.95
2067.875	313.66
2071.065	314.59
2074.254	312.95
2077.442	316.46
2080.631	318.63
2083.819	321.08
2087.007	320.9
2090.195	326.25
2093.382	328.78
2096.569	326.63
2099.756	331.67
2102.942	332.61
2106.128	335.72
2109.314	343.09
2112.5	342.54
2115.685	349.78
2118.87	350.21
2122.055	356.46
2125.239	358.36
2128.424	363.16
2131.608	367.11
2134.791	371.79
2137.974	373.19
2141.157	374.02
2144.34	375.78
2147.523	380.28
2150.705	377.25
2153.887	381.67
2157.068	382.85
2160.25	380.72
2163.431	381.44
2166.611	385.59
2169.792	392.62
2172.972	396.29
2176.152	398.39
2179.331	402.25
2182.511	410.62
2185.69	414.58
2188.868	423.31
2192.047	423.75
2195.225	435.23
2198.403	446.82
2201.58	453.82
2204.758	462.61
2207.935	473.24
2211.111	482.22
2214.288	489.48
2217.464	489.66
2220.64	498.25
2223.815	503.75
2226.991	523.02
2230.166	522.71
2233.34	532.15
2236.515	540.72
2239.689	540.55
2242.863	542.4
2246.036	557.8
2249.209	555.55
2252.382	565.57
2255.555	581.92
2258.727	583
2261.9	589.21
2265.071	595.24
2268.243	602.34
2271.414	609.99
2274.585	623.41
2277.756	629.93
2280.926	634.6
2284.096	648.22
2287.266	660.04
2290.436	664.22
2293.605	681.21
2296.774	700.01
2299.942	722.3
2303.111	728.77
2306.279	742.88
2309.447	753.03
2312.614	773.6
2315.781	796.43
2318.948	828.55
2322.115	818.67
2325.281	862.64
2328.447	845.21
2331.613	880.05
2334.779	869.8
2337.944	907.77
2341.109	916.38
2344.274	943.11
2347.438	974.49
2350.602	970.88
2353.766	1005.84
2356.929	1021.45
2360.092	1013.28
2363.255	1085.69
2366.418	1081.43
2369.58	1104.91
2372.742	1168.88
2375.904	1201.6
2379.066	1194.82
2382.227	1169.6
2385.388	1272.05
2388.548	1270.17
2391.709	1282.67
2394.869	1428.85
2398.029	1369.82
2401.188	1407.16
2404.347	1397.78
2407.506	1378.93
2410.665	1415.89
2413.823	1502.71
2416.981	1594.43
2420.139	1538.83
2423.296	1523.21
2426.453	1590.79
2429.61	1530.6
2432.767	1596.94
2435.923	1583.08
2439.079	1728.83
2442.235	1747.26
2445.391	1732.04
2448.546	1715.95
2451.701	1665.85
2454.855	1666.92
2458.009	1759.47
2461.163	1838.08
2464.317	1904.03
2467.471	1954.29
2470.624	1957.25
2473.777	1903.13
2476.929	1865.17
2480.082	1809.62
2483.234	1789.12
2486.385	1881.95
2489.537	1890.82
2492.688	1963.88
2495.839	1907.4
2498.989	1867.9
2502.14	1880.1
2505.29	1891.25
2508.439	1929.72
2511.589	1916.8
2514.738	2095.17
2517.887	2044.39
2521.035	2158.48
2524.183	2174.94
2527.331	2195.43
2530.479	2183.42
2533.627	2199.2
