Data from C_1_DIV_WI_4N_Splice17_12-54-38-683.txt Node
Date: Sat Mar 07 12:54:38 EST 2020
User: sa697716
Spectrometer: NQ5500242
Trigger mode: 0
Integration Time (sec): 1.450000E-1
Scans to average: 20
Nonlinearity correction enabled: false
Boxcar width: 5
Storing dark spectrum: false
XAxis mode: Wavelengths
Number of Pixels in Spectrum: 512
>>>>>Begin Spectral Data<<<<<
187.83	105.72
188.298	125.14
188.766	121.8
189.233	109.82
189.701	137.69
190.169	156.89
190.636	205.11
191.104	340.12
191.571	439.78
192.039	409.4
192.506	336.94
192.974	-38.36
193.441	15.54
193.908	36.66
194.375	72.07
194.842	123.32
195.31	203.5
195.777	706.63
196.244	62.69
196.711	34.55
197.177	32.84
197.644	29.74
198.111	28.59
198.578	27.97
199.045	28.46
199.511	28.28
199.978	28.29
200.445	28.1
200.911	27.78
201.378	27.92
201.844	27.86
202.31	27.53
202.777	28.08
203.243	28.17
203.709	28.12
204.176	27.73
204.642	27.47
205.108	27.51
205.574	27.48
206.04	27.13
206.506	27.02
206.972	27.37
207.438	27.13
207.903	26.79
208.369	26.49
208.835	26.28
209.301	25.91
209.766	25.66
210.232	25.34
210.697	24.89
211.163	24.83
211.628	24.58
212.094	24.15
212.559	24.16
213.024	23.62
213.49	23.42
213.955	23.3
214.42	23.16
214.885	22.73
215.35	22.25
215.815	21.86
216.28	21.03
216.745	20.28
217.21	19.34
217.675	18.64
218.14	18.13
218.604	17.6
219.069	17.17
219.534	16.8
219.998	16.49
220.463	16.24
220.927	15.89
221.392	15.64
221.856	15.43
222.32	15.28
222.785	15.12
223.249	14.94
223.713	14.78
224.177	14.6
224.642	14.43
225.106	14.25
225.57	14.04
226.034	13.91
226.497	13.77
226.961	13.62
227.425	13.45
227.889	13.28
228.353	13.11
228.816	12.95
229.28	12.8
229.744	12.66
230.207	12.52
230.671	12.38
231.134	12.23
231.597	12.1
232.061	11.95
232.524	11.81
232.987	11.68
233.45	11.58
233.914	11.45
234.377	11.31
234.84	11.18
235.303	11.07
235.766	10.96
236.229	10.84
236.691	10.73
237.154	10.63
237.617	10.54
238.08	10.41
238.542	10.29
239.005	10.19
239.468	10.09
239.93	9.97
240.393	9.86
240.855	9.74
241.317	9.64
241.78	9.53
242.242	9.42
242.704	9.32
243.166	9.21
243.629	9.13
244.091	9.03
244.553	8.94
245.015	8.86
245.477	8.78
245.939	8.69
246.4	8.61
246.862	8.52
247.324	8.45
247.786	8.36
248.247	8.28
248.709	8.19
249.17	8.11
249.632	8.04
250.093	7.97
250.555	7.91
251.016	7.83
251.477	7.76
251.939	7.7
252.4	7.63
252.861	7.57
253.322	7.52
253.783	7.47
254.244	7.41
254.705	7.34
255.166	7.28
255.627	7.22
256.088	7.17
256.549	7.12
257.009	7.07
257.47	7.02
257.931	6.95
258.391	6.9
258.852	6.84
259.312	6.8
259.773	6.74
260.233	6.71
260.694	6.66
261.154	6.61
261.614	6.57
262.074	6.51
262.534	6.46
262.994	6.43
263.455	6.4
263.915	6.36
264.374	6.34
264.834	6.31
265.294	6.27
265.754	6.23
266.214	6.21
266.673	6.18
267.133	6.16
267.593	6.14
268.052	6.12
268.512	6.1
268.971	6.07
269.431	6.04
269.89	6.02
270.349	6
270.809	5.97
271.268	5.94
271.727	5.92
272.186	5.9
272.645	5.88
273.104	5.85
273.563	5.82
274.022	5.8
274.481	5.77
274.94	5.75
275.399	5.72
275.857	5.7
276.316	5.68
276.775	5.66
277.233	5.63
277.692	5.6
278.15	5.58
278.609	5.56
279.067	5.54
279.525	5.51
279.984	5.49
280.442	5.46
280.9	5.45
281.358	5.43
281.816	5.4
282.274	5.38
282.732	5.35
283.19	5.33
283.648	5.3
284.106	5.28
284.564	5.26
285.021	5.25
285.479	5.23
285.937	5.2
286.394	5.18
286.852	5.15
287.309	5.13
287.767	5.11
288.224	5.09
288.682	5.06
289.139	5.04
289.596	5.01
290.053	4.97
290.511	4.94
290.968	4.92
291.425	4.89
291.882	4.87
292.339	4.83
292.796	4.81
293.252	4.79
293.709	4.77
294.166	4.76
294.623	4.73
295.079	4.71
295.536	4.7
295.992	4.68
296.449	4.67
296.905	4.65
297.362	4.63
297.818	4.61
298.274	4.6
298.731	4.58
299.187	4.56
299.643	4.54
300.099	4.53
300.555	4.51
301.011	4.49
301.467	4.47
301.923	4.45
302.379	4.43
302.835	4.42
303.291	4.4
303.746	4.38
304.202	4.37
304.658	4.36
305.113	4.34
305.569	4.32
306.024	4.3
306.479	4.28
306.935	4.26
307.39	4.25
307.845	4.24
308.301	4.24
308.756	4.22
309.211	4.2
309.666	4.2
310.121	4.18
310.576	4.18
311.031	4.18
311.486	4.18
311.94	4.18
312.395	4.17
312.85	4.16
313.305	4.15
313.759	4.14
314.214	4.14
314.668	4.13
315.123	4.12
315.577	4.1
316.032	4.09
316.486	4.07
316.94	4.06
317.394	4.04
317.849	4.02
318.303	4.01
318.757	3.99
319.211	3.97
319.665	3.94
320.119	3.92
320.572	3.91
321.026	3.89
321.48	3.88
321.934	3.86
322.387	3.85
322.841	3.83
323.295	3.82
323.748	3.81
324.202	3.8
324.655	3.79
325.108	3.78
325.562	3.77
326.015	3.76
326.468	3.76
326.921	3.75
327.374	3.74
327.827	3.73
328.28	3.72
328.733	3.71
329.186	3.7
329.639	3.7
330.092	3.7
330.545	3.68
330.997	3.67
331.45	3.66
331.903	3.66
332.355	3.66
332.808	3.65
333.26	3.65
333.713	3.64
334.165	3.62
334.617	3.62
335.069	3.61
335.522	3.61
335.974	3.62
336.426	3.61
336.878	3.59
337.33	3.58
337.782	3.58
338.234	3.58
338.686	3.57
339.137	3.57
339.589	3.56
340.041	3.55
340.493	3.54
340.944	3.52
341.396	3.52
341.847	3.51
342.299	3.49
342.75	3.47
343.201	3.46
343.653	3.45
344.104	3.42
344.555	3.41
345.006	3.4
345.457	3.39
345.908	3.37
346.359	3.36
346.81	3.35
347.261	3.34
347.712	3.34
348.163	3.32
348.613	3.32
349.064	3.32
349.515	3.32
349.965	3.31
350.416	3.3
350.866	3.3
351.317	3.29
351.767	3.29
352.217	3.28
352.668	3.27
353.118	3.27
353.568	3.26
354.018	3.26
354.468	3.26
354.918	3.25
355.368	3.25
355.818	3.24
356.268	3.24
356.718	3.24
357.168	3.23
357.617	3.22
358.067	3.22
358.517	3.22
358.966	3.21
359.416	3.21
359.865	3.2
360.315	3.2
360.764	3.2
361.213	3.19
361.663	3.19
362.112	3.19
362.561	3.19
363.01	3.18
363.459	3.17
363.908	3.16
364.357	3.16
364.806	3.14
365.255	3.13
365.703	3.14
366.152	3.14
366.601	3.14
367.05	3.13
367.498	3.12
367.947	3.12
368.395	3.12
368.844	3.12
369.292	3.11
369.74	3.12
370.189	3.12
370.637	3.11
371.085	3.09
371.533	3.08
371.981	3.08
372.429	3.07
372.877	3.07
373.325	3.06
373.773	3.06
374.221	3.05
374.669	3.04
375.116	3.03
375.564	3.02
376.012	3.01
376.459	3.02
376.907	3.02
377.354	3.01
377.801	3.01
378.249	3.01
378.696	3
379.143	3.01
379.591	3
380.038	3.01
380.485	3.01
380.932	3.02
381.379	3.02
381.826	3.01
382.273	3.02
382.72	3
383.166	3
383.613	3
384.06	2.98
384.506	2.99
384.953	2.98
385.4	2.98
385.846	2.99
386.292	2.99
386.739	2.98
387.185	2.98
387.631	3
388.078	3
388.524	3.01
388.97	3.01
389.416	3.02
389.862	3.02
390.308	3.04
390.754	3.04
391.2	3.05
391.645	3.06
392.091	3.08
392.537	3.08
392.983	3.1
393.428	3.1
393.874	3.11
394.319	3.12
394.765	3.13
395.21	3.13
395.655	3.14
396.101	3.15
396.546	3.15
396.991	3.16
397.436	3.17
397.881	3.19
398.326	3.21
398.771	3.23
399.216	3.23
399.661	3.25
400.106	3.26
400.551	3.27
400.995	3.27
401.44	3.28
401.885	3.29
402.329	3.3
402.774	3.29
403.218	3.31
403.663	3.32
404.107	3.34
404.551	3.33
404.995	3.35
405.44	3.35
405.884	3.36
406.328	3.37
406.772	3.37
407.216	3.37
407.66	3.38
408.104	3.37
408.547	3.37
408.991	3.38
409.435	3.39
409.879	3.4
410.322	3.41
410.766	3.43
411.209	3.44
411.653	3.47
412.096	3.48
412.54	3.5
412.983	3.51
413.426	3.54
413.869	3.56
414.312	3.57
414.756	3.57
415.199	3.58
415.642	3.59
416.085	3.59
416.527	3.58
416.97	3.58
417.413	3.58
417.856	3.58
418.298	3.57
418.741	3.56
419.184	3.56
419.626	3.56
420.069	3.55
420.511	3.55
420.953	3.55
421.396	3.56
421.838	3.57
422.28	3.57
422.722	3.58
423.164	3.58
423.606	3.59
424.048	3.59
424.49	3.6
424.932	3.6
425.374	3.58
425.816	3.58
426.258	3.56
426.699	3.56
427.141	3.56
427.582	3.56
428.024	3.57
428.465	3.56
428.907	3.55
429.348	3.55
429.789	3.55
430.231	3.57
430.672	3.59
431.113	3.6
431.554	3.62
431.995	3.63
432.436	3.63
432.877	3.64
433.318	3.66
433.759	3.69
434.2	3.71
434.64	3.72
435.081	3.74
435.522	3.75
435.962	3.78
436.403	3.79
436.843	3.79
437.284	3.78
437.724	3.78
438.164	3.77
438.604	3.78
439.045	3.77
439.485	3.77
439.925	3.77
440.365	3.76
440.805	3.75
441.245	3.75
441.685	3.77
442.125	3.8
442.564	3.81
443.004	3.81
443.444	3.8
443.883	3.82
444.323	3.82
444.762	3.82
445.202	3.82
445.641	3.85
446.081	3.85
446.52	3.83
446.959	3.84
447.398	3.86
447.837	3.87
448.276	3.89
448.716	3.89
449.154	3.91
449.593	3.92
450.032	3.92
450.471	3.91
450.91	3.92
451.349	3.93
451.787	3.93
452.226	3.92
452.664	3.91
453.103	3.9
453.541	3.9
453.98	3.9
454.418	3.89
454.856	3.89
455.295	3.88
455.733	3.85
456.171	3.85
456.609	3.84
457.047	3.83
457.485	3.83
457.923	3.82
458.361	3.83
458.798	3.82
459.236	3.82
459.674	3.83
460.111	3.83
460.549	3.85
460.987	3.85
461.424	3.86
461.862	3.86
462.299	3.87
462.736	3.87
463.173	3.86
463.611	3.86
464.048	3.85
464.485	3.84
464.922	3.84
465.359	3.85
465.796	3.85
466.233	3.85
466.67	3.85
467.106	3.85
467.543	3.84
467.98	3.84
468.416	3.83
468.853	3.83
469.29	3.83
469.726	3.83
470.162	3.81
470.599	3.79
471.035	3.78
471.471	3.78
471.907	3.77
472.344	3.77
472.78	3.77
473.216	3.78
473.652	3.78
474.088	3.77
474.523	3.77
474.959	3.77
475.395	3.75
475.831	3.75
476.266	3.75
476.702	3.75
477.138	3.74
477.573	3.73
478.008	3.73
478.444	3.72
478.879	3.72
479.314	3.71
479.75	3.72
480.185	3.71
480.62	3.7
481.055	3.69
481.49	3.68
481.925	3.69
482.36	3.69
482.795	3.68
483.229	3.67
483.664	3.67
484.099	3.67
484.534	3.66
484.968	3.67
485.403	3.68
485.837	3.69
486.271	3.7
486.706	3.7
487.14	3.7
487.574	3.71
488.009	3.73
488.443	3.74
488.877	3.75
489.311	3.77
489.745	3.78
490.179	3.8
490.613	3.82
491.046	3.83
491.48	3.86
491.914	3.89
492.348	3.91
492.781	3.93
493.215	3.96
493.648	3.98
494.082	4
494.515	4.03
494.948	4.06
495.382	4.08
495.815	4.13
496.248	4.17
496.681	4.21
497.114	4.25
497.547	4.3
497.98	4.34
498.413	4.39
498.846	4.45
499.279	4.5
499.711	4.56
500.144	4.63
500.577	4.69
501.009	4.75
501.442	4.82
501.874	4.9
502.306	4.97
502.739	5.06
503.171	5.15
503.603	5.25
504.036	5.35
504.468	5.45
504.9	5.54
505.332	5.65
505.764	5.77
506.196	5.89
506.627	6.02
507.059	6.15
507.491	6.28
507.923	6.41
508.354	6.56
508.786	6.71
509.217	6.87
509.649	7.03
510.08	7.19
510.512	7.37
510.943	7.55
511.374	7.73
511.805	7.92
512.237	8.11
512.668	8.31
513.099	8.5
513.53	8.7
513.961	8.91
514.391	9.13
514.822	9.35
515.253	9.57
515.684	9.78
516.114	10
516.545	10.23
516.975	10.46
517.406	10.69
517.836	10.93
518.267	11.17
518.697	11.4
519.127	11.63
519.558	11.87
519.988	12.11
520.418	12.33
520.848	12.56
521.278	12.8
521.708	13.16
522.138	13.39
522.567	13.6
522.997	13.81
523.427	14.03
523.857	14.24
524.286	14.44
524.716	14.63
525.145	14.82
525.575	15.02
526.004	15.21
526.433	15.24
526.863	15.41
527.292	15.59
527.721	15.74
528.15	15.88
528.579	16.02
529.008	16.16
529.437	16.29
529.866	16.4
530.295	16.52
530.724	16.63
531.152	16.75
531.581	16.85
532.01	16.93
532.438	17.03
532.867	17.13
533.295	17.21
533.723	17.29
534.152	17.37
534.58	17.45
535.008	17.5
535.436	17.58
535.865	17.63
536.293	17.68
536.721	17.73
537.149	17.79
537.576	17.82
538.004	17.88
538.432	17.91
538.86	17.97
539.287	18
539.715	18.05
540.143	18.07
540.57	18.1
540.998	18.13
541.425	18.15
541.852	18.18
542.28	18.21
542.707	18.23
543.134	18.26
543.561	18.28
543.988	18.31
544.415	18.32
544.842	18.33
545.269	18.37
545.696	18.38
546.123	18.41
546.549	18.43
546.976	18.46
547.403	18.48
547.829	18.5
548.256	18.49
548.682	18.51
549.108	18.54
549.535	18.57
549.961	18.56
550.387	18.57
550.813	18.57
551.24	18.55
551.666	18.54
552.092	18.54
552.518	18.53
552.943	18.5
553.369	18.47
553.795	18.44
554.221	18.4
554.646	18.37
555.072	18.33
555.498	18.28
555.923	18.23
556.349	18.16
556.774	18.1
557.199	18.03
557.625	17.96
558.05	17.9
558.475	17.84
558.9	17.74
559.325	17.67
559.75	17.6
560.175	17.52
560.6	17.43
561.025	17.33
561.449	17.24
561.874	17.13
562.299	17.04
562.723	16.92
563.148	16.8
563.572	16.68
563.997	16.57
564.421	16.43
564.846	16.29
565.27	16.17
565.694	16.06
566.118	15.92
566.542	15.81
566.966	15.68
567.39	15.54
567.814	15.41
568.238	15.28
568.662	15.14
569.086	15.02
569.509	14.91
569.933	14.79
570.357	14.66
570.78	14.53
571.204	14.4
571.627	14.27
572.05	14.14
572.474	14.04
572.897	13.93
573.32	13.82
573.743	13.71
574.166	13.6
574.589	13.5
575.012	13.39
575.435	13.29
575.858	13.2
576.281	13.1
576.704	13.02
577.126	12.93
577.549	12.83
577.972	12.74
578.394	12.65
578.817	12.56
579.239	12.48
579.661	12.41
580.084	12.33
580.506	12.26
580.928	12.18
581.35	12.11
581.772	12.04
582.194	11.98
582.616	11.92
583.038	11.85
583.46	11.78
583.882	11.72
584.303	11.65
584.725	11.59
585.147	11.53
585.568	11.48
585.99	11.42
586.411	11.37
586.833	11.3
587.254	11.24
587.675	11.2
588.096	11.15
588.518	11.1
588.939	11.05
589.36	11.01
589.781	10.97
590.202	10.94
590.623	10.89
591.043	10.85
591.464	10.82
591.885	10.78
592.305	10.75
592.726	10.73
593.147	10.7
593.567	10.67
593.987	10.63
594.408	10.6
594.828	10.56
595.248	10.54
595.669	10.5
596.089	10.48
596.509	10.46
596.929	10.43
597.349	10.39
597.769	10.35
598.189	10.31
598.608	10.3
599.028	10.27
599.448	10.23
599.867	10.2
600.287	10.17
600.706	10.14
601.126	10.1
601.545	10.07
601.965	10.04
602.384	10.01
602.803	9.97
603.222	9.92
603.641	9.88
604.061	9.84
604.48	9.8
604.898	9.74
605.317	9.7
605.736	9.64
606.155	9.59
606.574	9.54
606.992	9.49
607.411	9.43
607.829	9.35
608.248	9.28
608.666	9.23
609.085	9.17
609.503	9.11
609.921	9.05
610.339	9
610.758	8.94
611.176	8.87
611.594	8.82
612.012	8.76
612.43	8.73
612.847	8.68
613.265	8.62
613.683	8.56
614.101	8.51
614.518	8.44
614.936	8.39
615.353	8.33
615.771	8.28
616.188	8.23
616.606	8.18
617.023	8.15
617.44	8.1
617.857	8.07
618.274	8.03
618.691	7.98
619.108	7.94
619.525	7.9
619.942	7.87
620.359	7.84
620.776	7.82
621.192	7.79
621.609	7.76
622.026	7.73
622.442	7.71
622.859	7.69
623.275	7.67
623.691	7.65
624.108	7.64
624.524	7.63
624.94	7.62
625.356	7.6
625.772	7.59
626.188	7.57
626.604	7.56
627.02	7.54
627.436	7.54
627.852	7.53
628.268	7.52
628.683	7.51
629.099	7.5
629.514	7.48
629.93	7.48
630.345	7.46
630.761	7.43
631.176	7.4
631.591	7.37
632.007	7.33
632.422	7.3
632.837	7.25
633.252	7.2
633.667	7.15
634.082	7.09
634.497	7.03
634.911	6.97
635.326	6.92
635.741	6.86
636.155	6.79
636.57	6.72
636.984	6.65
637.399	6.58
637.813	6.5
638.228	6.42
638.642	6.34
639.056	6.26
639.47	6.18
639.884	6.09
640.298	6
640.712	5.92
641.126	5.84
641.54	5.75
641.954	5.66
642.368	5.6
642.781	5.52
643.195	5.44
643.609	5.38
644.022	5.3
644.436	5.25
644.849	5.18
645.262	5.11
645.676	5.05
646.089	5
646.502	4.96
646.915	4.91
647.328	4.87
647.741	4.83
648.154	4.8
648.567	4.77
648.98	4.73
649.393	4.7
649.805	4.69
650.218	4.67
650.631	4.64
651.043	4.62
651.456	4.59
651.868	4.56
652.28	4.54
652.693	4.52
653.105	4.5
653.517	4.47
653.929	4.44
654.341	4.4
654.753	4.37
655.165	4.33
655.577	4.3
655.989	4.27
656.401	4.23
656.813	4.2
657.224	4.15
657.636	4.1
658.047	4.06
658.459	4.02
658.87	3.97
659.282	3.92
659.693	3.87
660.104	3.82
660.515	3.77
660.926	3.72
661.338	3.66
661.749	3.62
662.159	3.58
662.57	3.54
662.981	3.51
663.392	3.48
663.803	3.44
664.213	3.4
664.624	3.37
665.035	3.35
665.445	3.34
665.855	3.32
666.266	3.3
666.676	3.29
667.086	3.26
667.497	3.24
667.907	3.23
668.317	3.23
668.727	3.22
669.137	3.22
669.547	3.21
669.956	3.21
670.366	3.21
670.776	3.21
671.186	3.21
671.595	3.22
672.005	3.22
672.414	3.22
672.824	3.23
673.233	3.24
673.642	3.26
674.052	3.26
674.461	3.27
674.87	3.29
675.279	3.31
675.688	3.33
676.097	3.36
676.506	3.39
676.915	3.42
677.323	3.44
677.732	3.47
678.141	3.49
678.549	3.52
678.958	3.56
679.366	3.59
679.775	3.61
680.183	3.66
680.592	3.69
681	3.74
681.408	3.78
681.816	3.83
682.224	3.89
682.632	3.96
683.04	4.03
683.448	4.11
683.856	4.19
684.264	4.29
684.671	4.39
685.079	4.51
685.487	4.63
685.894	4.78
686.302	4.96
686.709	5.13
687.116	5.34
687.524	5.55
687.931	5.79
688.338	6.04
688.745	6.31
689.152	6.6
689.559	6.91
689.966	7.24
690.373	7.58
690.78	7.93
691.187	8.31
691.593	8.71
692	9.11
692.407	9.51
692.813	9.96
693.22	10.38
693.626	10.85
694.032	11.3
694.439	11.78
694.845	12.27
695.251	12.76
695.657	13.24
696.063	13.72
696.469	14.24
696.875	14.75
697.281	15.25
697.687	15.78
698.093	16.27
698.498	16.78
698.904	17.27
699.31	17.76
699.715	18.25
700.12	18.74
700.526	19.24
700.931	19.72
701.337	20.21
701.742	20.67
702.147	21.14
702.552	21.62
702.957	22.06
703.362	22.52
703.767	22.95
704.172	23.41
704.577	23.85
704.981	24.28
705.386	24.72
705.791	25.14
706.195	25.56
706.6	25.98
707.004	26.39
707.408	26.81
707.813	27.22
708.217	27.63
708.621	28.04
709.025	28.44
709.43	28.81
709.834	29.2
710.237	29.56
710.641	29.94
711.045	30.3
711.449	30.68
711.853	31.08
712.256	31.42
712.66	31.77
713.064	32.09
713.467	32.41
713.87	32.74
714.274	33.05
714.677	33.38
715.08	33.67
715.484	33.99
715.887	34.29
716.29	34.57
716.693	34.89
717.096	35.17
717.499	35.47
717.901	35.77
718.304	36.06
718.707	36.35
719.109	36.61
719.512	36.89
719.915	37.15
720.317	37.37
720.719	37.59
721.122	37.82
721.524	38.06
721.926	38.29
722.328	38.51
722.731	38.75
723.133	38.97
723.535	39.2
723.937	39.42
724.338	39.62
724.74	39.84
725.142	40.11
725.544	40.29
725.945	40.47
726.347	40.63
726.748	40.8
727.15	40.93
727.551	41.08
727.952	41.22
728.354	41.35
728.755	41.47
729.156	41.59
729.557	41.64
729.958	41.77
730.359	41.88
730.76	42
731.161	42.09
731.562	42.23
731.962	42.32
732.363	42.46
732.763	42.56
733.164	42.69
733.564	42.81
733.965	42.92
734.365	43.03
734.766	43.1
735.166	43.19
735.566	43.28
735.966	43.34
736.366	43.41
736.766	43.47
737.166	43.54
737.566	43.59
737.966	43.63
738.365	43.67
738.765	43.72
739.165	43.81
739.564	43.86
739.964	43.91
740.363	43.95
740.763	43.99
741.162	44.05
741.561	44.08
741.96	44.12
742.36	44.15
742.759	44.2
743.158	44.23
743.557	44.25
743.955	44.28
744.354	44.31
744.753	44.37
745.152	44.43
745.55	44.43
745.949	44.46
746.348	44.49
746.746	44.51
747.144	44.56
747.543	44.58
747.941	44.61
748.339	44.6
748.737	44.63
749.136	44.64
749.534	44.64
749.932	44.68
750.33	44.7
750.727	44.72
751.125	44.75
751.523	44.75
751.921	44.75
752.318	44.74
752.716	44.77
753.113	44.79
753.511	44.8
753.908	44.85
754.305	44.85
754.703	44.84
755.1	44.86
755.497	44.86
755.894	44.88
756.291	44.89
756.688	44.92
757.085	44.94
757.482	44.96
757.878	44.97
758.275	44.95
758.672	44.93
759.068	44.95
759.465	44.94
759.861	44.94
760.258	44.95
760.654	44.96
761.05	44.97
761.447	44.97
761.843	44.95
762.239	44.93
762.635	44.93
763.031	44.95
763.427	44.92
763.822	44.94
764.218	44.94
764.614	44.93
765.01	44.92
765.405	44.92
765.801	44.9
766.196	44.92
766.592	44.93
766.987	44.92
767.382	44.92
767.778	44.94
768.173	44.92
768.568	44.92
768.963	44.9
769.358	44.91
769.753	44.89
770.148	44.88
770.542	44.86
770.937	44.87
771.332	44.88
771.726	44.87
772.121	44.85
772.515	44.84
772.91	44.82
773.304	44.84
773.699	44.83
774.093	44.8
774.487	44.82
774.881	44.85
775.275	44.83
775.669	44.8
776.063	44.8
776.457	44.8
776.851	44.79
777.245	44.77
777.638	44.75
778.032	44.76
778.425	44.82
778.819	44.81
779.212	44.81
779.606	44.82
779.999	44.84
780.392	44.86
780.786	44.86
781.179	44.88
781.572	44.95
781.965	44.97
782.358	44.98
782.751	44.96
783.143	44.95
783.536	44.94
783.929	44.92
784.322	44.94
784.714	44.93
785.107	44.94
785.499	44.94
785.891	44.93
786.284	44.89
786.676	44.89
787.068	44.89
787.46	44.9
787.852	44.89
788.245	44.91
788.636	44.87
789.028	44.87
789.42	44.83
789.812	44.83
790.204	44.82
790.595	44.84
790.987	44.82
791.378	44.83
791.77	44.84
792.161	44.82
792.553	44.78
792.944	44.79
793.335	44.79
793.726	44.82
794.117	44.78
794.508	44.76
794.899	44.74
795.29	44.72
795.681	44.69
796.072	44.69
796.463	44.71
796.853	44.74
797.244	44.73
797.634	44.73
798.025	44.74
798.415	44.78
798.806	44.78
799.196	44.8
799.586	44.81
799.976	44.85
800.366	44.85
800.756	44.85
801.146	44.85
801.536	44.87
801.926	44.85
802.316	44.86
802.706	44.87
803.095	44.86
803.485	44.86
803.874	44.85
804.264	44.84
804.653	44.85
805.043	44.82
805.432	44.82
805.821	44.81
806.21	44.84
806.599	44.8
806.988	44.78
807.377	44.8
807.766	44.8
808.155	44.81
808.544	44.78
808.933	44.77
809.321	44.78
809.71	44.79
810.098	44.78
810.487	44.75
810.875	44.72
811.264	44.72
811.652	44.72
812.04	44.73
812.428	44.73
812.816	44.73
813.204	44.7
813.592	44.7
813.98	44.69
814.368	44.68
814.756	44.71
815.144	44.74
815.531	44.73
815.919	44.72
816.306	44.69
816.694	44.67
817.081	44.68
817.469	44.72
817.856	44.71
818.243	44.69
818.63	44.68
819.017	44.65
819.404	44.65
819.791	44.65
820.178	44.64
820.565	44.63
820.952	44.63
821.339	44.61
821.725	44.59
822.112	44.6
822.498	44.62
822.885	44.65
823.271	44.66
823.657	44.63
824.044	44.66
824.43	44.66
824.816	44.67
825.202	44.67
825.588	44.67
825.974	44.67
826.36	44.65
826.746	44.64
827.132	44.63
827.517	44.63
827.903	44.68
828.289	44.68
828.674	44.67
829.06	44.67
829.445	44.67
829.83	44.66
830.216	44.65
830.601	44.68
830.986	44.69
831.371	44.65
831.756	44.67
832.141	44.66
832.526	44.66
832.911	44.65
833.295	44.66
833.68	44.69
834.065	44.72
834.449	44.71
834.834	44.68
835.218	44.69
835.603	44.7
835.987	44.7
836.371	44.69
836.755	44.66
837.139	44.67
837.524	44.68
837.908	44.68
838.291	44.67
838.675	44.68
839.059	44.69
839.443	44.65
839.827	44.66
840.21	44.65
840.594	44.66
840.977	44.67
841.361	44.68
841.744	44.66
842.127	44.64
842.511	44.63
842.894	44.63
843.277	44.63
843.66	44.64
844.043	44.66
844.426	44.65
844.809	44.65
845.191	44.67
845.574	44.68
845.957	44.69
846.339	44.69
846.722	44.7
847.104	44.73
847.487	44.72
847.869	44.72
848.252	44.71
848.634	44.71
849.016	44.7
849.398	44.69
849.78	44.68
850.162	44.68
850.544	44.68
850.926	44.71
851.307	44.69
851.689	44.71
852.071	44.7
852.452	44.7
852.834	44.72
853.215	44.7
853.597	44.71
853.978	44.7
854.359	44.7
854.741	44.69
855.122	44.66
855.503	44.67
855.884	44.65
856.265	44.66
856.646	44.64
857.026	44.64
857.407	44.66
857.788	44.64
858.169	44.68
858.549	44.66
858.93	44.67
859.31	44.67
859.69	44.66
860.071	44.69
860.451	44.7
860.831	44.7
861.211	44.68
861.591	44.68
861.971	44.68
862.351	44.67
862.731	44.68
863.111	44.65
863.491	44.65
863.87	44.64
864.25	44.63
864.629	44.62
865.009	44.62
865.388	44.6
865.768	44.59
866.147	44.57
866.526	44.55
866.905	44.55
867.284	44.57
867.663	44.56
868.042	44.57
868.421	44.58
868.8	44.58
869.179	44.59
869.558	44.61
869.936	44.61
870.315	44.62
870.693	44.63
871.072	44.65
871.45	44.65
871.828	44.65
872.207	44.68
872.585	44.66
872.963	44.65
873.341	44.65
873.719	44.65
874.097	44.65
874.475	44.67
874.853	44.66
875.23	44.66
875.608	44.66
875.986	44.69
876.363	44.67
876.741	44.68
877.118	44.69
877.495	44.7
877.873	44.72
878.25	44.72
878.627	44.73
879.004	44.74
879.381	44.75
879.758	44.74
880.135	44.72
880.512	44.71
880.889	44.71
881.265	44.69
881.642	44.68
882.019	44.69
882.395	44.68
882.772	44.67
883.148	44.67
883.524	44.64
883.901	44.65
884.277	44.64
884.653	44.62
885.029	44.61
885.405	44.63
885.781	44.63
886.157	44.64
886.532	44.65
886.908	44.62
887.284	44.61
887.659	44.63
888.035	44.6
888.411	44.59
888.786	44.61
889.161	44.61
889.537	44.59
889.912	44.58
890.287	44.56
890.662	44.54
891.037	44.56
891.412	44.56
891.787	44.54
892.162	44.56
892.536	44.57
892.911	44.56
893.286	44.55
893.66	44.56
894.035	44.57
894.409	44.57
894.784	44.58
895.158	44.58
895.532	44.58
895.906	44.58
896.281	44.59
896.655	44.59
897.029	44.6
897.402	44.59
897.776	44.59
898.15	44.59
898.524	44.6
898.898	44.6
899.271	44.6
899.645	44.6
900.018	44.61
900.392	44.61
900.765	44.61
901.138	44.62
901.511	44.65
901.884	44.65
902.258	44.65
902.631	44.66
903.003	44.67
903.376	44.66
903.749	44.65
904.122	44.67
904.495	44.66
904.867	44.67
905.24	44.68
905.612	44.67
905.985	44.67
906.357	44.67
906.729	44.7
907.102	44.69
907.474	44.72
907.846	44.73
908.218	44.72
908.59	44.75
908.962	44.74
909.334	44.74
909.705	44.74
910.077	44.75
910.449	44.76
910.82	44.75
911.192	44.76
911.563	44.75
911.935	44.74
912.306	44.75
912.677	44.75
913.048	44.76
913.419	44.76
913.79	44.75
914.161	44.76
914.532	44.74
914.903	44.72
915.274	44.7
915.645	44.7
916.015	44.71
916.386	44.7
916.756	44.7
917.127	44.7
917.497	44.72
917.868	44.72
918.238	44.68
918.608	44.67
918.978	44.66
919.348	44.65
919.718	44.62
920.088	44.62
920.458	44.61
920.828	44.57
921.198	44.54
921.567	44.52
921.937	44.53
922.306	44.52
922.676	44.53
923.045	44.52
923.415	44.52
923.784	44.53
924.153	44.51
924.522	44.52
924.891	44.52
925.26	44.54
925.629	44.53
925.998	44.5
926.367	44.53
926.736	44.52
927.104	44.51
927.473	44.49
927.842	44.48
928.21	44.49
928.578	44.47
928.947	44.48
929.315	44.46
929.683	44.46
930.051	44.45
930.42	44.44
930.788	44.41
931.156	44.42
931.523	44.42
931.891	44.46
932.259	44.47
932.627	44.45
932.994	44.43
933.362	44.4
933.729	44.41
934.097	44.41
934.464	44.41
934.831	44.44
935.199	44.45
935.566	44.46
935.933	44.37
936.3	44.31
936.667	44.31
937.034	44.31
937.401	44.3
937.767	44.27
938.134	44.25
938.501	44.18
938.867	44.15
939.234	44.1
939.6	44.05
939.967	44.11
940.333	44.11
940.699	44.12
941.065	44
941.431	44
941.798	43.95
942.163	43.93
942.529	43.95
942.895	43.96
943.261	43.91
943.627	43.86
943.992	43.77
944.358	43.75
944.723	43.73
945.089	43.75
945.454	43.73
945.82	43.69
946.185	43.68
946.55	43.66
946.915	43.61
947.28	43.62
947.645	43.68
948.01	43.69
948.375	43.7
948.74	43.73
949.104	43.77
949.469	43.8
949.834	43.82
950.198	43.81
950.562	43.77
950.927	43.77
951.291	43.71
951.655	43.65
952.02	43.65
952.384	43.61
952.748	43.56
953.112	43.56
953.476	43.54
953.839	43.53
954.203	43.52
954.567	43.55
954.931	43.53
955.294	43.52
955.658	43.6
956.021	43.61
956.385	43.6
956.748	43.59
957.111	43.56
957.474	43.57
957.837	43.55
958.2	43.54
958.563	43.53
958.926	43.58
959.289	43.6
959.652	43.57
960.015	43.57
960.377	43.6
960.74	43.64
961.102	43.65
961.465	43.64
961.827	43.68
962.189	43.72
962.552	43.71
962.914	43.65
963.276	43.69
963.638	43.71
964	43.72
964.362	43.75
964.724	43.72
965.085	43.67
965.447	43.64
965.809	43.65
966.17	43.65
966.532	43.65
966.893	43.7
967.255	43.68
967.616	43.65
967.977	43.67
968.338	43.61
968.699	43.61
969.061	43.66
969.421	43.66
969.782	43.67
970.143	43.65
970.504	43.69
970.865	43.66
971.225	43.61
971.586	43.6
971.946	43.58
972.307	43.61
972.667	43.59
973.027	43.57
973.388	43.58
973.748	43.51
974.108	43.58
974.468	43.5
974.828	43.55
975.188	43.6
975.548	43.62
975.907	43.61
976.267	43.61
976.627	43.62
976.986	43.61
977.346	43.58
977.705	43.57
978.064	43.48
978.424	43.48
978.783	43.42
979.142	43.41
979.501	43.43
979.86	43.42
980.219	43.39
980.578	43.43
980.937	43.48
981.296	43.47
981.654	43.47
982.013	43.49
982.371	43.53
982.73	43.56
983.088	43.52
983.447	43.48
983.805	43.49
984.163	43.49
984.521	43.48
984.879	43.39
985.237	43.47
985.595	43.58
985.953	43.6
986.311	43.55
986.669	43.49
987.026	43.54
987.384	43.59
987.741	43.61
988.099	43.61
988.456	43.52
988.814	43.56
989.171	43.5
989.528	43.5
989.885	43.52
990.242	43.57
990.599	43.67
990.956	43.67
991.313	43.63
991.67	43.58
992.027	43.71
992.383	43.74
992.74	43.84
993.096	43.86
993.453	43.85
993.809	43.78
994.165	43.77
994.522	43.78
994.878	43.77
995.234	43.78
995.59	43.71
995.946	43.51
996.302	43.55
996.658	43.48
997.013	43.46
997.369	43.36
997.725	43.47
998.08	43.51
998.436	43.45
998.791	43.49
999.147	43.51
999.502	43.58
999.857	43.62
1000.212	43.48
1000.567	43.57
1000.922	43.55
1001.277	43.58
1001.632	43.47
1001.987	43.41
1002.342	43.31
1002.696	43.2
1003.051	43.34
1003.406	43.43
1003.76	43.39
1004.114	43.48
1004.469	43.31
1004.823	43.49
1005.177	43.44
1005.531	43.48
1005.885	43.56
1006.239	43.64
1006.593	43.73
1006.947	43.65
1007.301	43.46
1007.655	43.57
1008.008	43.56
1008.362	43.69
1008.715	43.64
1009.069	43.76
1009.422	43.7
1009.776	43.6
1010.129	43.63
1010.482	43.59
1010.835	43.51
1011.188	43.73
1011.541	43.65
1011.894	43.64
1012.247	43.64
1012.6	43.65
1012.952	43.49
1013.305	43.65
1013.657	43.68
1014.01	43.61
1014.362	43.64
1014.715	43.76
1015.067	43.69
1015.419	43.72
1015.771	43.72
1016.123	43.58
1016.475	43.33
1016.827	43.35
1017.179	43.33
1017.531	43.35
1017.883	43.33
1018.234	43.34
1018.586	43.27
1018.938	43.29
1019.289	43.29
1019.64	43.22
1019.992	43.19
1020.343	43.32
1020.694	43.31
1021.045	43.11
1021.396	43.1
1021.747	43.18
1022.098	43.12
1022.449	43.02
1022.8	42.96
1023.151	42.81
1023.501	43.06
1023.852	43.21
1024.202	43.1
1024.553	43.09
1024.903	43.18
1025.253	43.21
1025.604	43.06
1025.954	42.75
1026.304	42.82
1026.654	42.87
1027.004	43.05
1027.354	42.82
1027.703	42.4
1028.053	42.4
1028.403	42.52
1028.753	42.31
1029.102	42.3
1029.452	42.46
1029.801	42.84
1030.15	42.74
1030.499	42.54
897.758	1052.26
901.051	1061.57
904.343	1060.06
907.636	1079.4
910.928	1048.74
914.22	1050.9
917.511	1036.96
920.803	988.81
924.094	982.58
927.384	962.17
930.675	920.17
933.965	918.51
937.255	863.14
940.544	828.57
943.834	787.12
947.123	782.62
950.411	736.44
953.7	721.66
956.988	685.28
960.276	661.54
963.563	649.46
966.851	629.18
970.138	621.62
973.424	602.53
976.711	607.22
979.997	577.25
983.283	573.05
986.568	561.24
989.853	543.62
993.138	532.47
996.423	511.87
999.708	497.97
1002.992	490.47
1006.275	471.25
1009.559	467.4
1012.842	448.99
1016.125	438.85
1019.408	431.28
1022.69	424.35
1025.972	415.78
1029.254	407.94
1032.536	400.67
1035.817	391.95
1039.098	389.44
1042.379	380.27
1045.659	375.68
1048.939	367.09
1052.219	359.58
1055.498	354.26
1058.778	346.37
1062.057	340.03
1065.335	335.85
1068.614	332.1
1071.892	328.6
1075.17	318.17
1078.447	312.22
1081.724	309.81
1085.001	308.37
1088.278	301.43
1091.554	295.55
1094.83	295.84
1098.106	292.32
1101.382	290.82
1104.657	289.15
1107.932	283.73
1111.206	286.19
1114.481	278.79
1117.755	276.78
1121.029	273.39
1124.302	273.65
1127.575	267.9
1130.848	264.87
1134.121	262.77
1137.393	260.57
1140.665	254.79
1143.937	254.28
1147.208	251.47
1150.48	251.22
1153.75	247.92
1157.021	245.46
1160.291	245.45
1163.561	243.7
1166.831	243.51
1170.101	241.56
1173.37	241.11
1176.639	241.76
1179.907	239.63
1183.176	236.56
1186.444	236.89
1189.711	236.03
1192.979	234.93
1196.246	233.35
1199.513	233.81
1202.78	232.75
1206.046	232.45
1209.312	229.82
1212.578	229.86
1215.843	231.63
1219.108	230.57
1222.373	234.88
1225.638	236.57
1228.902	239.31
1232.166	240.45
1235.43	241.8
1238.693	245.29
1241.956	246.31
1245.219	250.87
1248.482	251.18
1251.744	250.85
1255.006	250.82
1258.268	245.57
1261.529	243.56
1264.79	242.59
1268.051	240.35
1271.312	237.99
1274.572	234.45
1277.832	232.9
1281.092	228.59
1284.351	226.93
1287.61	226.89
1290.869	223.67
1294.128	221.81
1297.386	222.31
1300.644	219.17
1303.902	220.29
1307.159	219.47
1310.416	219.49
1313.673	218.62
1316.93	221.36
1320.186	220.98
1323.442	221.92
1326.697	225.43
1329.953	226.18
1333.208	226.45
1336.463	229.6
1339.717	229.61
1342.972	232.51
1346.226	234.4
1349.479	235.55
1352.733	236.42
1355.986	237.44
1359.238	236.8
1362.491	238.57
1365.743	240.24
1368.995	239.79
1372.247	239.16
1375.498	238.75
1378.749	240.55
1382	238.33
1385.251	238.01
1388.501	236.14
1391.751	236.71
1395	235.67
1398.25	233.7
1401.499	232.25
1404.748	232.28
1407.996	230.82
1411.244	230
1414.492	227.5
1417.74	224.99
1420.987	222.24
1424.234	221.47
1427.481	218.96
1430.728	219.27
1433.974	217.97
1437.22	215.21
1440.465	214.36
1443.711	211.8
1446.956	209.9
1450.201	208.33
1453.445	206.12
1456.689	205.48
1459.933	202.31
1463.177	200.05
1466.42	196.36
1469.663	193.55
1472.906	192.63
1476.148	188.7
1479.391	186.28
1482.633	185.27
1485.874	181.84
1489.115	180.89
1492.356	178.84
1495.597	178.46
1498.838	176.11
1502.078	175.47
1505.318	174.85
1508.557	174.74
1511.797	174.52
1515.036	173.76
1518.274	172.51
1521.513	172.2
1524.751	171.58
1527.989	171.07
1531.227	170.57
1534.464	170.75
1537.701	169.44
1540.938	169.14
1544.174	167.37
1547.41	166.76
1550.646	165.89
1553.882	166.57
1557.117	164.26
1560.352	163.38
1563.587	163.27
1566.821	162.05
1570.055	160.85
1573.289	160.03
1576.523	159.58
1579.756	158.3
1582.989	157.67
1586.222	157.18
1589.454	155.99
1592.686	157.04
1595.918	156.02
1599.15	155.35
1602.381	155.85
1605.612	155.89
1608.843	156.43
1612.073	156.27
1615.303	157.26
1618.533	157.13
1621.762	157.81
1624.992	158.43
1628.221	157.91
1631.449	158.2
1634.678	158.33
1637.906	158.94
1641.134	158.67
1644.361	158.66
1647.588	158.71
1650.815	158.34
1654.042	157.63
1657.269	158.28
1660.495	158.09
1663.72	158.21
1666.946	158.92
1670.171	158.93
1673.396	158.79
1676.621	159.15
1679.845	158.7
1683.069	158.59
1686.293	159.82
1689.517	160.78
1692.74	160.34
1695.963	160.49
1699.185	161.39
1702.408	161.48
1705.63	162.42
1708.852	162.63
1712.073	162.3
1715.294	163.09
1718.515	164.26
1721.736	163.57
1724.956	164.24
1728.176	164.46
1731.396	165.6
1734.616	164.92
1737.835	165.65
1741.054	164.25
1744.272	164.83
1747.491	166.69
1750.709	166.6
1753.927	166.66
1757.144	166.01
1760.361	166.25
1763.578	166.96
1766.795	166.61
1770.011	168.09
1773.227	167.87
1776.443	169.93
1779.658	170.21
1782.874	169.52
1786.089	170.33
1789.303	170.66
1792.518	172.91
1795.732	172.87
1798.945	173.91
1802.159	174.5
1805.372	174.86
1808.585	177.61
1811.797	177.58
1815.01	178.27
1818.222	179.83
1821.434	180.63
1824.645	181.81
1827.856	184.89
1831.067	186.03
1834.278	185.58
1837.488	187.14
1840.698	187.71
1843.908	186.29
1847.117	187.35
1850.326	188.03
1853.535	187.3
1856.744	189.86
1859.952	189.19
1863.16	187.55
1866.368	186.39
1869.575	187.93
1872.782	184.67
1875.989	184.14
1879.196	182.63
1882.402	181.54
1885.608	181.79
1888.814	182.13
1892.019	181.3
1895.224	180.52
1898.429	180.35
1901.634	180.8
1904.838	180.28
1908.042	182.59
1911.246	182.8
1914.449	184.61
1917.652	184.57
1920.855	184.4
1924.058	184.85
1927.26	184.39
1930.462	184.95
1933.664	186.49
1936.865	184.69
1940.066	185.18
1943.267	183.62
1946.467	183.57
1949.668	184.44
1952.868	186.6
1956.067	186.84
1959.267	186.67
1962.466	187.21
1965.665	186.25
1968.863	186.17
1972.061	189.2
1975.259	190.74
1978.457	192.94
1981.654	194.6
1984.852	195.37
1988.048	194.89
1991.245	196.38
1994.441	198.38
1997.637	200.19
2000.833	204.1
2004.028	207.23
2007.223	208.28
2010.418	209.95
2013.613	213.24
2016.807	216.4
2020.001	217.95
2023.194	220.8
2026.388	226.38
2029.581	231.2
2032.774	232.94
2035.966	237.07
2039.158	237.43
2042.35	243.51
2045.542	244.75
2048.733	248.12
2051.924	250.82
2055.115	255.59
2058.306	256.6
2061.496	258.07
2064.686	259.35
2067.875	262.75
2071.065	265.13
2074.254	263.35
2077.442	265.78
2080.631	268.14
2083.819	270.8
2087.007	271.01
2090.195	274.22
2093.382	275.93
2096.569	274.63
2099.756	279.05
2102.942	280.9
2106.128	282.36
2109.314	289.21
2112.5	288.08
2115.685	294.27
2118.87	294.2
2122.055	300.6
2125.239	302.01
2128.424	307.35
2131.608	309.53
2134.791	312.99
2137.974	313.37
2141.157	314.48
2144.34	315.22
2147.523	321.11
2150.705	318.68
2153.887	322.58
2157.068	323.12
2160.25	320.31
2163.431	320.46
2166.611	325.22
2169.792	329.58
2172.972	334.07
2176.152	336.96
2179.331	341.18
2182.511	344.86
2185.69	348.26
2188.868	354.66
2192.047	356.17
2195.225	366.41
2198.403	374.72
2201.58	379.87
2204.758	387.4
2207.935	395.81
2211.111	402.58
2214.288	407.75
2217.464	409.59
2220.64	418.29
2223.815	422.58
2226.991	438.8
2230.166	439.01
2233.34	447.69
2236.515	457.28
2239.689	457.14
2242.863	459.34
2246.036	470.46
2249.209	468.38
2252.382	475.9
2255.555	488.31
2258.727	490.81
2261.9	494.88
2265.071	499.49
2268.243	508.09
2271.414	511.44
2274.585	523.52
2277.756	529.27
2280.926	532.93
2284.096	543.52
2287.266	555.5
2290.436	559.38
2293.605	572.57
2296.774	586.93
2299.942	607.34
2303.111	611.47
2306.279	625.37
2309.447	632.56
2312.614	649.8
2315.781	670.65
2318.948	699.62
2322.115	690.1
2325.281	725.98
2328.447	713.08
2331.613	740.75
2334.779	732.1
2337.944	765.63
2341.109	773.34
2344.274	796.07
2347.438	822.69
2350.602	820.03
2353.766	848.27
2356.929	862.96
2360.092	855.3
2363.255	914.62
2366.418	914.74
2369.58	932.39
2372.742	984.28
2375.904	1011.22
2379.066	1005.99
2382.227	986.09
2385.388	1075.7
2388.548	1073.73
2391.709	1083.15
2394.869	1212.02
2398.029	1160.83
2401.188	1190.46
2404.347	1184.34
2407.506	1166.77
2410.665	1196.35
2413.823	1268.85
2416.981	1345.66
2420.139	1293.09
2423.296	1283.82
2426.453	1340.24
2429.61	1289.84
2432.767	1348.88
2435.923	1338.9
2439.079	1456.96
2442.235	1478.25
2445.391	1469.36
2448.546	1458.64
2451.701	1414.72
2454.855	1420.53
2458.009	1498.87
2461.163	1562.87
2464.317	1620.63
2467.471	1661.55
2470.624	1663.12
2473.777	1625.05
2476.929	1584.47
2480.082	1537.07
2483.234	1519.91
2486.385	1597.2
2489.537	1602.71
2492.688	1662.47
2495.839	1614.69
2498.989	1576.76
2502.14	1585.69
2505.29	1595.1
2508.439	1624.69
2511.589	1618.87
2514.738	1760.58
2517.887	1723.5
2521.035	1812.55
2524.183	1833.66
2527.331	1848.29
2530.479	1840.27
2533.627	1852.48
