Data from C_1_HIR_WI_4N_Splice17_12-59-53-460.txt Node
Date: Sat Mar 07 12:59:53 EST 2020
User: sa697716
Spectrometer: NQ5500242
Trigger mode: 0
Integration Time (sec): 1.450000E-1
Scans to average: 20
Nonlinearity correction enabled: false
Boxcar width: 5
Storing dark spectrum: false
XAxis mode: Wavelengths
Number of Pixels in Spectrum: 512
>>>>>Begin Spectral Data<<<<<
187.83	139.96
188.298	151.79
188.766	131.66
189.233	103.61
189.701	100.18
190.169	105.32
190.636	110.58
191.104	147.56
191.571	-17.31
192.039	-304.64
192.506	-560.07
192.974	147.97
193.441	246.51
193.908	43.46
194.375	-19.58
194.842	-26.5
195.31	-34.38
195.777	-32.32
196.244	37.75
196.711	36
197.177	36.65
197.644	36.58
198.111	36.34
198.578	36.04
199.045	36.89
199.511	37.2
199.978	36.95
200.445	37.27
200.911	37.3
201.378	37.34
201.844	37.18
202.31	37.03
202.777	36.97
203.243	37.11
203.709	37.14
204.176	36.95
204.642	36.97
205.108	37.19
205.574	36.89
206.04	36.38
206.506	36.17
206.972	36.24
207.438	35.75
207.903	35.46
208.369	34.82
208.835	34.28
209.301	33.59
209.766	32.52
210.232	31.59
210.697	30.73
211.163	30.22
211.628	29.74
212.094	28.94
212.559	28.67
213.024	28.14
213.49	27.63
213.955	27.06
214.42	26.54
214.885	26.01
215.35	25.19
215.815	24.29
216.28	22.89
216.745	21.2
217.21	19.77
217.675	18.31
218.14	17.16
218.604	16.19
219.069	15.36
219.534	14.66
219.998	14.07
220.463	13.54
220.927	13.05
221.392	12.75
221.856	12.49
222.32	12.23
222.785	12.03
223.249	11.82
223.713	11.62
224.177	11.47
224.642	11.3
225.106	11.11
225.57	10.92
226.034	10.8
226.497	10.63
226.961	10.48
227.425	10.34
227.889	10.19
228.353	10.07
228.816	9.92
229.28	9.77
229.744	9.63
230.207	9.53
230.671	9.43
231.134	9.31
231.597	9.22
232.061	9.11
232.524	9.01
232.987	8.92
233.45	8.84
233.914	8.76
234.377	8.67
234.84	8.59
235.303	8.52
235.766	8.45
236.229	8.36
236.691	8.27
237.154	8.2
237.617	8.13
238.08	8.05
238.542	7.96
239.005	7.89
239.468	7.81
239.93	7.75
240.393	7.67
240.855	7.59
241.317	7.53
241.78	7.45
242.242	7.37
242.704	7.32
243.166	7.26
243.629	7.21
244.091	7.15
244.553	7.09
245.015	7.02
245.477	6.95
245.939	6.9
246.4	6.83
246.862	6.78
247.324	6.74
247.786	6.68
248.247	6.63
248.709	6.56
249.17	6.49
249.632	6.45
250.093	6.41
250.555	6.37
251.016	6.33
251.477	6.29
251.939	6.26
252.4	6.21
252.861	6.17
253.322	6.13
253.783	6.1
254.244	6.07
254.705	6.03
255.166	5.99
255.627	5.95
256.088	5.91
256.549	5.87
257.009	5.82
257.47	5.78
257.931	5.74
258.391	5.7
258.852	5.66
259.312	5.62
259.773	5.59
260.233	5.56
260.694	5.53
261.154	5.5
261.614	5.48
262.074	5.45
262.534	5.42
262.994	5.4
263.455	5.38
263.915	5.36
264.374	5.34
264.834	5.33
265.294	5.31
265.754	5.3
266.214	5.28
266.673	5.27
267.133	5.26
267.593	5.26
268.052	5.25
268.512	5.24
268.971	5.23
269.431	5.21
269.89	5.2
270.349	5.19
270.809	5.17
271.268	5.16
271.727	5.14
272.186	5.13
272.645	5.12
273.104	5.1
273.563	5.08
274.022	5.06
274.481	5.05
274.94	5.04
275.399	5.02
275.857	5.01
276.316	4.99
276.775	4.98
277.233	4.97
277.692	4.96
278.15	4.96
278.609	4.95
279.067	4.93
279.525	4.92
279.984	4.91
280.442	4.9
280.9	4.9
281.358	4.89
281.816	4.88
282.274	4.86
282.732	4.85
283.19	4.83
283.648	4.81
284.106	4.8
284.564	4.79
285.021	4.79
285.479	4.77
285.937	4.75
286.394	4.75
286.852	4.73
287.309	4.71
287.767	4.69
288.224	4.68
288.682	4.66
289.139	4.65
289.596	4.63
290.053	4.6
290.511	4.59
290.968	4.58
291.425	4.55
291.882	4.53
292.339	4.51
292.796	4.51
293.252	4.5
293.709	4.49
294.166	4.48
294.623	4.46
295.079	4.45
295.536	4.45
295.992	4.44
296.449	4.44
296.905	4.43
297.362	4.43
297.818	4.41
298.274	4.41
298.731	4.41
299.187	4.39
299.643	4.39
300.099	4.39
300.555	4.38
301.011	4.37
301.467	4.36
301.923	4.35
302.379	4.35
302.835	4.35
303.291	4.34
303.746	4.33
304.202	4.33
304.658	4.33
305.113	4.32
305.569	4.32
306.024	4.31
306.479	4.3
306.935	4.3
307.39	4.29
307.845	4.28
308.301	4.28
308.756	4.27
309.211	4.27
309.666	4.27
310.121	4.26
310.576	4.26
311.031	4.26
311.486	4.26
311.94	4.26
312.395	4.26
312.85	4.26
313.305	4.26
313.759	4.26
314.214	4.26
314.668	4.25
315.123	4.24
315.577	4.24
316.032	4.23
316.486	4.22
316.94	4.21
317.394	4.2
317.849	4.18
318.303	4.17
318.757	4.15
319.211	4.14
319.665	4.12
320.119	4.11
320.572	4.1
321.026	4.1
321.48	4.1
321.934	4.09
322.387	4.08
322.841	4.08
323.295	4.08
323.748	4.08
324.202	4.08
324.655	4.08
325.108	4.08
325.562	4.07
326.015	4.06
326.468	4.06
326.921	4.06
327.374	4.06
327.827	4.06
328.28	4.06
328.733	4.06
329.186	4.05
329.639	4.06
330.092	4.06
330.545	4.06
330.997	4.06
331.45	4.06
331.903	4.06
332.355	4.07
332.808	4.06
333.26	4.05
333.713	4.04
334.165	4.04
334.617	4.03
335.069	4.02
335.522	4.01
335.974	4.01
336.426	4.01
336.878	3.99
337.33	3.99
337.782	3.99
338.234	4
338.686	4
339.137	4
339.589	3.99
340.041	3.99
340.493	3.99
340.944	3.96
341.396	3.95
341.847	3.95
342.299	3.94
342.75	3.93
343.201	3.91
343.653	3.9
344.104	3.88
344.555	3.88
345.006	3.86
345.457	3.85
345.908	3.85
346.359	3.85
346.81	3.84
347.261	3.83
347.712	3.82
348.163	3.81
348.613	3.81
349.064	3.81
349.515	3.8
349.965	3.8
350.416	3.79
350.866	3.79
351.317	3.78
351.767	3.78
352.217	3.77
352.668	3.77
353.118	3.77
353.568	3.76
354.018	3.76
354.468	3.77
354.918	3.77
355.368	3.78
355.818	3.78
356.268	3.78
356.718	3.78
357.168	3.78
357.617	3.77
358.067	3.76
358.517	3.77
358.966	3.77
359.416	3.76
359.865	3.76
360.315	3.76
360.764	3.75
361.213	3.74
361.663	3.72
362.112	3.72
362.561	3.73
363.01	3.73
363.459	3.71
363.908	3.7
364.357	3.7
364.806	3.69
365.255	3.68
365.703	3.69
366.152	3.69
366.601	3.71
367.05	3.7
367.498	3.69
367.947	3.68
368.395	3.7
368.844	3.69
369.292	3.68
369.74	3.68
370.189	3.68
370.637	3.66
371.085	3.66
371.533	3.64
371.981	3.64
372.429	3.64
372.877	3.64
373.325	3.63
373.773	3.61
374.221	3.61
374.669	3.6
375.116	3.59
375.564	3.59
376.012	3.58
376.459	3.58
376.907	3.59
377.354	3.57
377.801	3.57
378.249	3.56
378.696	3.56
379.143	3.56
379.591	3.57
380.038	3.58
380.485	3.57
380.932	3.57
381.379	3.57
381.826	3.56
382.273	3.57
382.72	3.56
383.166	3.55
383.613	3.55
384.06	3.53
384.506	3.53
384.953	3.52
385.4	3.51
385.846	3.52
386.292	3.51
386.739	3.5
387.185	3.5
387.631	3.51
388.078	3.51
388.524	3.51
388.97	3.51
389.416	3.52
389.862	3.52
390.308	3.53
390.754	3.54
391.2	3.55
391.645	3.55
392.091	3.56
392.537	3.56
392.983	3.56
393.428	3.57
393.874	3.58
394.319	3.59
394.765	3.58
395.21	3.58
395.655	3.59
396.101	3.6
396.546	3.62
396.991	3.62
397.436	3.62
397.881	3.64
398.326	3.65
398.771	3.67
399.216	3.67
399.661	3.69
400.106	3.7
400.551	3.7
400.995	3.7
401.44	3.69
401.885	3.7
402.329	3.72
402.774	3.73
403.218	3.75
403.663	3.76
404.107	3.77
404.551	3.78
404.995	3.79
405.44	3.8
405.884	3.81
406.328	3.84
406.772	3.84
407.216	3.84
407.66	3.84
408.104	3.83
408.547	3.83
408.991	3.85
409.435	3.85
409.879	3.86
410.322	3.88
410.766	3.9
411.209	3.91
411.653	3.94
412.096	3.96
412.54	3.97
412.983	3.99
413.426	4.03
413.869	4.03
414.312	4.07
414.756	4.08
415.199	4.09
415.642	4.1
416.085	4.11
416.527	4.1
416.97	4.09
417.413	4.09
417.856	4.09
418.298	4.09
418.741	4.09
419.184	4.07
419.626	4.07
420.069	4.08
420.511	4.08
420.953	4.1
421.396	4.12
421.838	4.14
422.28	4.15
422.722	4.17
423.164	4.17
423.606	4.18
424.048	4.19
424.49	4.2
424.932	4.2
425.374	4.19
425.816	4.17
426.258	4.15
426.699	4.15
427.141	4.16
427.582	4.16
428.024	4.16
428.465	4.16
428.907	4.15
429.348	4.15
429.789	4.14
430.231	4.17
430.672	4.19
431.113	4.22
431.554	4.22
431.995	4.23
432.436	4.24
432.877	4.25
433.318	4.27
433.759	4.29
434.2	4.32
434.64	4.34
435.081	4.35
435.522	4.36
435.962	4.36
436.403	4.38
436.843	4.38
437.284	4.38
437.724	4.39
438.164	4.37
438.604	4.39
439.045	4.38
439.485	4.39
439.925	4.38
440.365	4.37
440.805	4.38
441.245	4.39
441.685	4.42
442.125	4.44
442.564	4.45
443.004	4.44
443.444	4.43
443.883	4.45
444.323	4.43
444.762	4.44
445.202	4.44
445.641	4.45
446.081	4.45
446.52	4.44
446.959	4.45
447.398	4.46
447.837	4.49
448.276	4.49
448.716	4.51
449.154	4.54
449.593	4.55
450.032	4.55
450.471	4.54
450.91	4.54
451.349	4.54
451.787	4.52
452.226	4.5
452.664	4.5
453.103	4.5
453.541	4.49
453.98	4.5
454.418	4.49
454.856	4.49
455.295	4.48
455.733	4.47
456.171	4.47
456.609	4.46
457.047	4.45
457.485	4.44
457.923	4.44
458.361	4.43
458.798	4.42
459.236	4.43
459.674	4.41
460.111	4.41
460.549	4.43
460.987	4.44
461.424	4.46
461.862	4.47
462.299	4.48
462.736	4.48
463.173	4.48
463.611	4.49
464.048	4.49
464.485	4.51
464.922	4.51
465.359	4.5
465.796	4.51
466.233	4.5
466.67	4.51
467.106	4.52
467.543	4.52
467.98	4.53
468.416	4.52
468.853	4.52
469.29	4.51
469.726	4.51
470.162	4.5
470.599	4.49
471.035	4.48
471.471	4.46
471.907	4.43
472.344	4.43
472.78	4.44
473.216	4.42
473.652	4.42
474.088	4.4
474.523	4.4
474.959	4.4
475.395	4.39
475.831	4.39
476.266	4.39
476.702	4.39
477.138	4.39
477.573	4.38
478.008	4.38
478.444	4.37
478.879	4.39
479.314	4.37
479.75	4.36
480.185	4.34
480.62	4.34
481.055	4.33
481.49	4.32
481.925	4.31
482.36	4.31
482.795	4.3
483.229	4.29
483.664	4.29
484.099	4.3
484.534	4.3
484.968	4.31
485.403	4.3
485.837	4.29
486.271	4.3
486.706	4.31
487.14	4.31
487.574	4.32
488.009	4.33
488.443	4.34
488.877	4.35
489.311	4.37
489.745	4.38
490.179	4.4
490.613	4.42
491.046	4.44
491.48	4.46
491.914	4.49
492.348	4.51
492.781	4.54
493.215	4.57
493.648	4.59
494.082	4.62
494.515	4.65
494.948	4.68
495.382	4.7
495.815	4.75
496.248	4.78
496.681	4.82
497.114	4.87
497.547	4.91
497.98	4.96
498.413	5
498.846	5.05
499.279	5.1
499.711	5.15
500.144	5.23
500.577	5.28
501.009	5.35
501.442	5.42
501.874	5.49
502.306	5.57
502.739	5.66
503.171	5.75
503.603	5.85
504.036	5.95
504.468	6.05
504.9	6.15
505.332	6.26
505.764	6.37
506.196	6.5
506.627	6.62
507.059	6.76
507.491	6.88
507.923	7.03
508.354	7.18
508.786	7.34
509.217	7.51
509.649	7.67
510.08	7.85
510.512	8.03
510.943	8.2
511.374	8.4
511.805	8.59
512.237	8.78
512.668	8.98
513.099	9.18
513.53	9.39
513.961	9.6
514.391	9.82
514.822	10.06
515.253	10.28
515.684	10.51
516.114	10.75
516.545	10.98
516.975	11.24
517.406	11.48
517.836	11.72
518.267	11.98
518.697	12.22
519.127	12.47
519.558	12.68
519.988	12.94
520.418	13.17
520.848	13.41
521.278	13.65
521.708	14.09
522.138	14.32
522.567	14.54
522.997	14.76
523.427	14.98
523.857	15.21
524.286	15.43
524.716	15.64
525.145	15.86
525.575	16.05
526.004	16.25
526.433	16.22
526.863	16.4
527.292	16.58
527.721	16.74
528.15	16.89
528.579	17.04
529.008	17.19
529.437	17.32
529.866	17.45
530.295	17.58
530.724	17.7
531.152	17.83
531.581	17.95
532.01	18.07
532.438	18.18
532.867	18.28
533.295	18.37
533.723	18.47
534.152	18.57
534.58	18.66
535.008	18.73
535.436	18.81
535.865	18.87
536.293	18.94
536.721	18.99
537.149	19.06
537.576	19.13
538.004	19.2
538.432	19.23
538.86	19.26
539.287	19.29
539.715	19.36
540.143	19.39
540.57	19.44
540.998	19.47
541.425	19.52
541.852	19.55
542.28	19.59
542.707	19.61
543.134	19.64
543.561	19.69
543.988	19.73
544.415	19.74
544.842	19.77
545.269	19.79
545.696	19.82
546.123	19.84
546.549	19.85
546.976	19.87
547.403	19.9
547.829	19.93
548.256	19.93
548.682	19.94
549.108	19.96
549.535	19.98
549.961	19.99
550.387	19.99
550.813	20
551.24	20
551.666	19.98
552.092	19.96
552.518	19.95
552.943	19.95
553.369	19.93
553.795	19.92
554.221	19.89
554.646	19.87
555.072	19.84
555.498	19.79
555.923	19.74
556.349	19.69
556.774	19.64
557.199	19.59
557.625	19.51
558.05	19.44
558.475	19.36
558.9	19.29
559.325	19.22
559.75	19.14
560.175	19.06
560.6	18.98
561.025	18.9
561.449	18.81
561.874	18.71
562.299	18.62
562.723	18.51
563.148	18.39
563.572	18.27
563.997	18.15
564.421	18.02
564.846	17.9
565.27	17.76
565.694	17.65
566.118	17.51
566.542	17.38
566.966	17.24
567.39	17.12
567.814	16.99
568.238	16.86
568.662	16.72
569.086	16.6
569.509	16.48
569.933	16.36
570.357	16.23
570.78	16.1
571.204	15.98
571.627	15.86
572.05	15.74
572.474	15.64
572.897	15.53
573.32	15.43
573.743	15.31
574.166	15.19
574.589	15.07
575.012	14.96
575.435	14.86
575.858	14.76
576.281	14.66
576.704	14.57
577.126	14.47
577.549	14.37
577.972	14.28
578.394	14.19
578.817	14.11
579.239	14.04
579.661	13.97
580.084	13.9
580.506	13.82
580.928	13.76
581.35	13.69
581.772	13.61
582.194	13.55
582.616	13.48
583.038	13.41
583.46	13.34
583.882	13.28
584.303	13.21
584.725	13.14
585.147	13.08
585.568	13.02
585.99	12.96
586.411	12.9
586.833	12.84
587.254	12.77
587.675	12.72
588.096	12.68
588.518	12.63
588.939	12.58
589.36	12.53
589.781	12.49
590.202	12.45
590.623	12.42
591.043	12.39
591.464	12.37
591.885	12.35
592.305	12.32
592.726	12.3
593.147	12.27
593.567	12.24
593.987	12.22
594.408	12.19
594.828	12.16
595.248	12.13
595.669	12.11
596.089	12.08
596.509	12.05
596.929	12.03
597.349	11.99
597.769	11.97
598.189	11.94
598.608	11.92
599.028	11.89
599.448	11.86
599.867	11.82
600.287	11.78
600.706	11.74
601.126	11.69
601.545	11.66
601.965	11.63
602.384	11.58
602.803	11.52
603.222	11.47
603.641	11.42
604.061	11.37
604.48	11.31
604.898	11.26
605.317	11.2
605.736	11.15
606.155	11.08
606.574	11.01
606.992	10.94
607.411	10.9
607.829	10.8
608.248	10.73
608.666	10.67
609.085	10.61
609.503	10.55
609.921	10.49
610.339	10.43
610.758	10.38
611.176	10.31
611.594	10.25
612.012	10.17
612.43	10.14
612.847	10.07
613.265	10
613.683	9.93
614.101	9.88
614.518	9.81
614.936	9.74
615.353	9.67
615.771	9.62
616.188	9.55
616.606	9.52
617.023	9.46
617.44	9.42
617.857	9.37
618.274	9.32
618.691	9.27
619.108	9.23
619.525	9.19
619.942	9.16
620.359	9.12
620.776	9.1
621.192	9.05
621.609	9.03
622.026	9.01
622.442	8.99
622.859	8.97
623.275	8.96
623.691	8.94
624.108	8.93
624.524	8.91
624.94	8.91
625.356	8.89
625.772	8.89
626.188	8.87
626.604	8.86
627.02	8.85
627.436	8.85
627.852	8.84
628.268	8.83
628.683	8.83
629.099	8.82
629.514	8.81
629.93	8.81
630.345	8.8
630.761	8.78
631.176	8.75
631.591	8.73
632.007	8.7
632.422	8.67
632.837	8.64
633.252	8.6
633.667	8.55
634.082	8.5
634.497	8.45
634.911	8.4
635.326	8.36
635.741	8.31
636.155	8.24
636.57	8.19
636.984	8.13
637.399	8.05
637.813	7.98
638.228	7.91
638.642	7.82
639.056	7.74
639.47	7.66
639.884	7.58
640.298	7.51
640.712	7.42
641.126	7.33
641.54	7.25
641.954	7.17
642.368	7.08
642.781	7.01
643.195	6.94
643.609	6.86
644.022	6.78
644.436	6.71
644.849	6.63
645.262	6.57
645.676	6.51
646.089	6.45
646.502	6.4
646.915	6.36
647.328	6.31
647.741	6.26
648.154	6.22
648.567	6.18
648.98	6.15
649.393	6.12
649.805	6.08
650.218	6.05
650.631	6.02
651.043	5.99
651.456	5.95
651.868	5.92
652.28	5.89
652.693	5.86
653.105	5.83
653.517	5.8
653.929	5.76
654.341	5.73
654.753	5.68
655.165	5.64
655.577	5.6
655.989	5.54
656.401	5.49
656.813	5.45
657.224	5.4
657.636	5.33
658.047	5.28
658.459	5.21
658.87	5.15
659.282	5.09
659.693	5.04
660.104	4.98
660.515	4.94
660.926	4.88
661.338	4.82
661.749	4.77
662.159	4.72
662.57	4.69
662.981	4.65
663.392	4.62
663.803	4.58
664.213	4.54
664.624	4.52
665.035	4.49
665.445	4.48
665.855	4.46
666.266	4.44
666.676	4.43
667.086	4.4
667.497	4.38
667.907	4.36
668.317	4.36
668.727	4.35
669.137	4.34
669.547	4.33
669.956	4.31
670.366	4.31
670.776	4.3
671.186	4.3
671.595	4.31
672.005	4.32
672.414	4.33
672.824	4.33
673.233	4.33
673.642	4.35
674.052	4.36
674.461	4.37
674.87	4.38
675.279	4.4
675.688	4.42
676.097	4.44
676.506	4.45
676.915	4.47
677.323	4.5
677.732	4.52
678.141	4.54
678.549	4.56
678.958	4.58
679.366	4.62
679.775	4.64
680.183	4.68
680.592	4.72
681	4.77
681.408	4.82
681.816	4.87
682.224	4.93
682.632	5
683.04	5.06
683.448	5.14
683.856	5.22
684.264	5.32
684.671	5.43
685.079	5.54
685.487	5.68
685.894	5.83
686.302	6
686.709	6.19
687.116	6.39
687.524	6.62
687.931	6.88
688.338	7.16
688.745	7.43
689.152	7.73
689.559	8.08
689.966	8.43
690.373	8.78
690.78	9.16
691.187	9.56
691.593	9.98
692	10.4
692.407	10.82
692.813	11.27
693.22	11.74
693.626	12.23
694.032	12.69
694.439	13.18
694.845	13.68
695.251	14.17
695.657	14.66
696.063	15.17
696.469	15.68
696.875	16.2
697.281	16.7
697.687	17.2
698.093	17.7
698.498	18.19
698.904	18.68
699.31	19.16
699.715	19.66
700.12	20.15
700.526	20.62
700.931	21.1
701.337	21.56
701.742	22.01
702.147	22.46
702.552	22.91
702.957	23.34
703.362	23.77
703.767	24.19
704.172	24.6
704.577	25
704.981	25.4
705.386	25.81
705.791	26.22
706.195	26.62
706.6	27.02
707.004	27.4
707.408	27.79
707.813	28.18
708.217	28.56
708.621	28.92
709.025	29.29
709.43	29.66
709.834	30.02
710.237	30.35
710.641	30.69
711.045	31.03
711.449	31.39
711.853	31.73
712.256	32.03
712.66	32.34
713.064	32.66
713.467	32.98
713.87	33.28
714.274	33.55
714.677	33.86
715.08	34.15
715.484	34.43
715.887	34.72
716.29	34.96
716.693	35.23
717.096	35.51
717.499	35.77
717.901	36
718.304	36.25
718.707	36.51
719.109	36.77
719.512	37.01
719.915	37.24
720.317	37.44
720.719	37.67
721.122	37.88
721.524	38.07
721.926	38.28
722.328	38.49
722.731	38.69
723.133	38.88
723.535	39.04
723.937	39.22
724.338	39.38
724.74	39.54
725.142	39.8
725.544	39.97
725.945	40.18
726.347	40.31
726.748	40.45
727.15	40.59
727.551	40.76
727.952	40.87
728.354	41
728.755	41.13
729.156	41.25
729.557	41.27
729.958	41.38
730.359	41.45
730.76	41.59
731.161	41.68
731.562	41.79
731.962	41.83
732.363	41.94
732.763	42.02
733.164	42.1
733.564	42.21
733.965	42.29
734.365	42.37
734.766	42.45
735.166	42.51
735.566	42.58
735.966	42.65
736.366	42.71
736.766	42.78
737.166	42.83
737.566	42.89
737.966	42.93
738.365	43
738.765	43.05
739.165	43.06
739.564	43.1
739.964	43.14
740.363	43.17
740.763	43.22
741.162	43.25
741.561	43.29
741.96	43.32
742.36	43.36
742.759	43.38
743.158	43.4
743.557	43.44
743.955	43.49
744.354	43.53
744.753	43.57
745.152	43.62
745.55	43.67
745.949	43.72
746.348	43.75
746.746	43.76
747.144	43.79
747.543	43.81
747.941	43.83
748.339	43.82
748.737	43.83
749.136	43.82
749.534	43.82
749.932	43.82
750.33	43.81
750.727	43.83
751.125	43.85
751.523	43.85
751.921	43.88
752.318	43.9
752.716	43.92
753.113	43.94
753.511	43.98
753.908	44
754.305	44.03
754.703	44.05
755.1	44.05
755.497	44.06
755.894	44.07
756.291	44.09
756.688	44.1
757.085	44.13
757.482	44.13
757.878	44.13
758.275	44.14
758.672	44.12
759.068	44.14
759.465	44.14
759.861	44.15
760.258	44.17
760.654	44.19
761.05	44.21
761.447	44.21
761.843	44.2
762.239	44.21
762.635	44.21
763.031	44.22
763.427	44.18
763.822	44.2
764.218	44.23
764.614	44.23
765.01	44.19
765.405	44.17
765.801	44.16
766.196	44.19
766.592	44.18
766.987	44.18
767.382	44.17
767.778	44.19
768.173	44.17
768.568	44.14
768.963	44.13
769.358	44.15
769.753	44.17
770.148	44.19
770.542	44.19
770.937	44.18
771.332	44.17
771.726	44.19
772.121	44.2
772.515	44.21
772.91	44.19
773.304	44.2
773.699	44.2
774.093	44.19
774.487	44.17
774.881	44.18
775.275	44.19
775.669	44.18
776.063	44.17
776.457	44.17
776.851	44.15
777.245	44.16
777.638	44.15
778.032	44.15
778.425	44.16
778.819	44.15
779.212	44.16
779.606	44.16
779.999	44.18
780.392	44.21
780.786	44.21
781.179	44.26
781.572	44.28
781.965	44.31
782.358	44.31
782.751	44.31
783.143	44.34
783.536	44.33
783.929	44.34
784.322	44.37
784.714	44.36
785.107	44.38
785.499	44.36
785.891	44.37
786.284	44.39
786.676	44.38
787.068	44.37
787.46	44.35
787.852	44.34
788.245	44.35
788.636	44.31
789.028	44.32
789.42	44.32
789.812	44.34
790.204	44.33
790.595	44.31
790.987	44.33
791.378	44.38
791.77	44.39
792.161	44.4
792.553	44.4
792.944	44.43
793.335	44.43
793.726	44.43
794.117	44.42
794.508	44.41
794.899	44.4
795.29	44.39
795.681	44.35
796.072	44.39
796.463	44.4
796.853	44.4
797.244	44.4
797.634	44.42
798.025	44.41
798.415	44.39
798.806	44.39
799.196	44.4
799.586	44.4
799.976	44.41
800.366	44.4
800.756	44.38
801.146	44.36
801.536	44.38
801.926	44.35
802.316	44.36
802.706	44.39
803.095	44.39
803.485	44.38
803.874	44.38
804.264	44.39
804.653	44.39
805.043	44.39
805.432	44.42
805.821	44.45
806.21	44.46
806.599	44.45
806.988	44.45
807.377	44.44
807.766	44.43
808.155	44.42
808.544	44.42
808.933	44.4
809.321	44.42
809.71	44.41
810.098	44.38
810.487	44.36
810.875	44.38
811.264	44.36
811.652	44.39
812.04	44.4
812.428	44.44
812.816	44.43
813.204	44.43
813.592	44.42
813.98	44.42
814.368	44.42
814.756	44.41
815.144	44.37
815.531	44.39
815.919	44.38
816.306	44.36
816.694	44.34
817.081	44.34
817.469	44.34
817.856	44.35
818.243	44.34
818.63	44.35
819.017	44.36
819.404	44.37
819.791	44.36
820.178	44.33
820.565	44.34
820.952	44.33
821.339	44.32
821.725	44.33
822.112	44.34
822.498	44.36
822.885	44.38
823.271	44.38
823.657	44.37
824.044	44.37
824.43	44.41
824.816	44.41
825.202	44.42
825.588	44.43
825.974	44.43
826.36	44.41
826.746	44.4
827.132	44.38
827.517	44.4
827.903	44.43
828.289	44.45
828.674	44.45
829.06	44.43
829.445	44.41
829.83	44.42
830.216	44.42
830.601	44.43
830.986	44.44
831.371	44.44
831.756	44.44
832.141	44.44
832.526	44.46
832.911	44.46
833.295	44.47
833.68	44.52
834.065	44.51
834.449	44.51
834.834	44.52
835.218	44.54
835.603	44.55
835.987	44.53
836.371	44.54
836.755	44.53
837.139	44.54
837.524	44.56
837.908	44.58
838.291	44.61
838.675	44.62
839.059	44.63
839.443	44.6
839.827	44.58
840.21	44.6
840.594	44.61
840.977	44.59
841.361	44.61
841.744	44.58
842.127	44.56
842.511	44.52
842.894	44.53
843.277	44.52
843.66	44.54
844.043	44.57
844.426	44.56
844.809	44.56
845.191	44.58
845.574	44.56
845.957	44.59
846.339	44.59
846.722	44.61
847.104	44.62
847.487	44.6
847.869	44.61
848.252	44.62
848.634	44.64
849.016	44.63
849.398	44.64
849.78	44.66
850.162	44.66
850.544	44.66
850.926	44.66
851.307	44.67
851.689	44.68
852.071	44.68
852.452	44.68
852.834	44.68
853.215	44.67
853.597	44.68
853.978	44.67
854.359	44.67
854.741	44.68
855.122	44.68
855.503	44.66
855.884	44.65
856.265	44.68
856.646	44.69
857.026	44.69
857.407	44.72
857.788	44.7
858.169	44.71
858.549	44.74
858.93	44.75
859.31	44.75
859.69	44.77
860.071	44.78
860.451	44.77
860.831	44.75
861.211	44.73
861.591	44.71
861.971	44.73
862.351	44.73
862.731	44.73
863.111	44.71
863.491	44.72
863.87	44.71
864.25	44.7
864.629	44.72
865.009	44.72
865.388	44.73
865.768	44.75
866.147	44.76
866.526	44.75
866.905	44.75
867.284	44.75
867.663	44.75
868.042	44.74
868.421	44.77
868.8	44.77
869.179	44.79
869.558	44.81
869.936	44.79
870.315	44.77
870.693	44.78
871.072	44.79
871.45	44.82
871.828	44.84
872.207	44.85
872.585	44.82
872.963	44.81
873.341	44.8
873.719	44.8
874.097	44.78
874.475	44.8
874.853	44.81
875.23	44.82
875.608	44.82
875.986	44.82
876.363	44.86
876.741	44.89
877.118	44.91
877.495	44.91
877.873	44.9
878.25	44.93
878.627	44.95
879.004	44.95
879.381	44.94
879.758	44.91
880.135	44.9
880.512	44.86
880.889	44.85
881.265	44.83
881.642	44.83
882.019	44.84
882.395	44.83
882.772	44.82
883.148	44.79
883.524	44.79
883.901	44.8
884.277	44.79
884.653	44.77
885.029	44.75
885.405	44.76
885.781	44.77
886.157	44.76
886.532	44.76
886.908	44.74
887.284	44.74
887.659	44.73
888.035	44.71
888.411	44.71
888.786	44.74
889.161	44.74
889.537	44.74
889.912	44.74
890.287	44.74
890.662	44.74
891.037	44.75
891.412	44.74
891.787	44.74
892.162	44.76
892.536	44.76
892.911	44.78
893.286	44.8
893.66	44.81
894.035	44.82
894.409	44.8
894.784	44.81
895.158	44.83
895.532	44.86
895.906	44.86
896.281	44.87
896.655	44.88
897.029	44.87
897.402	44.85
897.776	44.85
898.15	44.85
898.524	44.9
898.898	44.88
899.271	44.89
899.645	44.89
900.018	44.93
900.392	44.91
900.765	44.91
901.138	44.92
901.511	44.95
901.884	44.96
902.258	44.96
902.631	44.94
903.003	44.95
903.376	44.95
903.749	44.97
904.122	44.98
904.495	44.99
904.867	45
905.24	45
905.612	45
905.985	44.97
906.357	44.97
906.729	44.99
907.102	45.01
907.474	45.02
907.846	45.02
908.218	44.99
908.59	45
908.962	45.01
909.334	45.01
909.705	44.98
910.077	45.01
910.449	44.99
910.82	44.99
911.192	44.96
911.563	44.94
911.935	44.9
912.306	44.91
912.677	44.91
913.048	44.94
913.419	44.93
913.79	44.94
914.161	44.92
914.532	44.92
914.903	44.93
915.274	44.93
915.645	44.95
916.015	44.98
916.386	45
916.756	44.98
917.127	44.94
917.497	44.92
917.868	44.92
918.238	44.92
918.608	44.95
918.978	44.93
919.348	44.93
919.718	44.91
920.088	44.9
920.458	44.86
920.828	44.83
921.198	44.82
921.567	44.84
921.937	44.84
922.306	44.86
922.676	44.84
923.045	44.84
923.415	44.81
923.784	44.81
924.153	44.82
924.522	44.85
924.891	44.87
925.26	44.89
925.629	44.89
925.998	44.87
926.367	44.85
926.736	44.82
927.104	44.82
927.473	44.84
927.842	44.82
928.21	44.81
928.578	44.78
928.947	44.8
929.315	44.8
929.683	44.8
930.051	44.77
930.42	44.77
930.788	44.77
931.156	44.76
931.523	44.78
931.891	44.8
932.259	44.81
932.627	44.83
932.994	44.82
933.362	44.79
933.729	44.8
934.097	44.83
934.464	44.84
934.831	44.85
935.199	44.87
935.566	44.85
935.933	44.8
936.3	44.77
936.667	44.77
937.034	44.81
937.401	44.85
937.767	44.87
938.134	44.89
938.501	44.91
938.867	44.91
939.234	44.87
939.6	44.88
939.967	44.93
940.333	44.94
940.699	44.91
941.065	44.8
941.431	44.77
941.798	44.69
942.163	44.69
942.529	44.62
942.895	44.62
943.261	44.62
943.627	44.63
943.992	44.55
944.358	44.55
944.723	44.49
945.089	44.47
945.454	44.45
945.82	44.48
946.185	44.39
946.55	44.36
946.915	44.31
947.28	44.27
947.645	44.24
948.01	44.29
948.375	44.23
948.74	44.27
949.104	44.27
949.469	44.28
949.834	44.23
950.198	44.27
950.562	44.25
950.927	44.26
951.291	44.23
951.655	44.17
952.02	44.16
952.384	44.12
952.748	44.04
953.112	44.07
953.476	44.03
953.839	43.98
954.203	43.94
954.567	43.94
954.931	43.91
955.294	43.94
955.658	43.97
956.021	43.91
956.385	43.92
956.748	43.93
957.111	43.9
957.474	43.89
957.837	43.89
958.2	43.88
958.563	43.89
958.926	43.89
959.289	43.85
959.652	43.85
960.015	43.84
960.377	43.86
960.74	43.89
961.102	43.89
961.465	43.96
961.827	44.05
962.189	44.07
962.552	44.03
962.914	43.99
963.276	44.01
963.638	44.04
964	44.03
964.362	44.06
964.724	44.06
965.085	44.06
965.447	44.01
965.809	43.96
966.17	43.93
966.532	43.95
966.893	43.99
967.255	43.98
967.616	43.93
967.977	43.98
968.338	43.91
968.699	43.89
969.061	43.89
969.421	43.88
969.782	43.87
970.143	43.87
970.504	43.94
970.865	43.96
971.225	43.97
971.586	43.99
971.946	43.99
972.307	43.97
972.667	43.95
973.027	44.02
973.388	44
973.748	44.02
974.108	44.06
974.468	43.95
974.828	43.97
975.188	43.96
975.548	43.92
975.907	43.9
976.267	43.95
976.627	44
976.986	43.87
977.346	43.91
977.705	43.89
978.064	43.92
978.424	43.99
978.783	43.93
979.142	43.96
979.501	43.99
979.86	44.07
980.219	44.03
980.578	44.06
980.937	44.16
981.296	44.12
981.654	44.11
982.013	44.1
982.371	44.08
982.73	44.09
983.088	44.09
983.447	44.03
983.805	44.01
984.163	43.99
984.521	43.93
984.879	43.85
985.237	43.84
985.595	43.9
985.953	43.81
986.311	43.84
986.669	43.83
987.026	43.87
987.384	43.95
987.741	43.9
988.099	43.99
988.456	43.98
988.814	43.98
989.171	44.04
989.528	44.07
989.885	44.12
990.242	44.07
990.599	44.11
990.956	44.06
991.313	44.06
991.67	44.1
992.027	44.18
992.383	44.19
992.74	44.28
993.096	44.22
993.453	44.18
993.809	44.16
994.165	44.26
994.522	44.24
994.878	44.25
995.234	44.22
995.59	44.17
995.946	44.08
996.302	44.04
996.658	44
997.013	44
997.369	44
997.725	44.03
998.08	43.91
998.436	43.88
998.791	43.95
999.147	43.88
999.502	43.94
999.857	43.98
1000.212	43.99
1000.567	44.01
1000.922	44.04
1001.277	43.98
1001.632	43.96
1001.987	44.03
1002.342	43.96
1002.696	43.8
1003.051	44.03
1003.406	44.12
1003.76	44.03
1004.114	44.04
1004.469	44.05
1004.823	44.19
1005.177	44.22
1005.531	44.23
1005.885	44.18
1006.239	44.35
1006.593	44.64
1006.947	44.48
1007.301	44.33
1007.655	44.34
1008.008	44.41
1008.362	44.53
1008.715	44.46
1009.069	44.45
1009.422	44.45
1009.776	44.47
1010.129	44.39
1010.482	44.15
1010.835	44.14
1011.188	44.2
1011.541	44.26
1011.894	44.26
1012.247	44.16
1012.6	43.97
1012.952	43.86
1013.305	43.89
1013.657	43.95
1014.01	43.99
1014.362	44.07
1014.715	44.19
1015.067	44.21
1015.419	44.38
1015.771	44.29
1016.123	44.3
1016.475	44.45
1016.827	44.65
1017.179	44.81
1017.531	44.73
1017.883	44.64
1018.234	44.8
1018.586	44.76
1018.938	44.98
1019.289	44.7
1019.64	44.86
1019.992	44.87
1020.343	44.7
1020.694	44.79
1021.045	44.72
1021.396	44.86
1021.747	45.09
1022.098	45.07
1022.449	45.23
1022.8	45.07
1023.151	45.12
1023.501	45.23
1023.852	45.3
1024.202	45.39
1024.553	45.17
1024.903	45.31
1025.253	45.37
1025.604	45.19
1025.954	44.85
1026.304	44.73
1026.654	44.76
1027.004	44.73
1027.354	44.59
1027.703	44.33
1028.053	44.37
1028.403	44.63
1028.753	44.25
1029.102	44.25
1029.452	44.37
1029.801	44.61
1030.15	44.49
1030.499	44.27
897.758	1239.29
901.051	1247.97
904.343	1245.24
907.636	1267.58
910.928	1233.64
914.22	1233.96
917.511	1218.04
920.803	1162.82
924.094	1158.57
927.384	1133.09
930.675	1086.77
933.965	1081.29
937.255	1018.27
940.544	976.96
943.834	930.55
947.123	923.77
950.411	870.73
953.7	853.05
956.988	808.67
960.276	777.35
963.563	763.74
966.851	737.25
970.138	731.24
973.424	708.63
976.711	711.31
979.997	675.82
983.283	671.45
986.568	656.64
989.853	637.7
993.138	626.35
996.423	600.88
999.708	584.45
1002.992	576.88
1006.275	551.63
1009.559	545.49
1012.842	527.81
1016.125	514.17
1019.408	504.35
1022.69	496.63
1025.972	486.33
1029.254	474.53
1032.536	467.16
1035.817	457.43
1039.098	452.2
1042.379	442.88
1045.659	438.41
1048.939	426.38
1052.219	418.31
1055.498	411.46
1058.778	402.01
1062.057	393.09
1065.335	389.01
1068.614	384.94
1071.892	381.26
1075.17	368.84
1078.447	361.5
1081.724	358.98
1085.001	356.61
1088.278	349.66
1091.554	343.33
1094.83	343.67
1098.106	341.58
1101.382	338.6
1104.657	335.86
1107.932	329.86
1111.206	332.66
1114.481	323.87
1117.755	321.13
1121.029	318.33
1124.302	317.73
1127.575	311.33
1130.848	307.65
1134.121	303.19
1137.393	301.64
1140.665	294.76
1143.937	293.2
1147.208	291.11
1150.48	290.86
1153.75	286.95
1157.021	282.76
1160.291	282.76
1163.561	279.85
1166.831	280.28
1170.101	278.86
1173.37	277.37
1176.639	278.82
1179.907	275.95
1183.176	271.66
1186.444	271.98
1189.711	271.47
1192.979	271.12
1196.246	268.53
1199.513	270.32
1202.78	268.22
1206.046	268.05
1209.312	265.92
1212.578	265.64
1215.843	267.99
1219.108	267.26
1222.373	272.23
1225.638	274.11
1228.902	277.67
1232.166	279.4
1235.43	280.77
1238.693	283.82
1241.956	285.73
1245.219	290.58
1248.482	290.79
1251.744	290.66
1255.006	291.25
1258.268	284.07
1261.529	281.2
1264.79	280.26
1268.051	277.8
1271.312	274.76
1274.572	272.57
1277.832	268.95
1281.092	264.76
1284.351	262.85
1287.61	262.72
1290.869	258.82
1294.128	257.62
1297.386	257.31
1300.644	253.59
1303.902	254.55
1307.159	253.81
1310.416	253.2
1313.673	253.55
1316.93	256.23
1320.186	255.85
1323.442	256.57
1326.697	261.11
1329.953	261.32
1333.208	262.82
1336.463	265.91
1339.717	266.08
1342.972	269.08
1346.226	271.89
1349.479	272.38
1352.733	272.93
1355.986	275.44
1359.238	274.82
1362.491	276.48
1365.743	279.75
1368.995	279.77
1372.247	277.87
1375.498	278.28
1378.749	280.53
1382	276.86
1385.251	277.73
1388.501	275.51
1391.751	275.87
1395	275.59
1398.25	273.21
1401.499	270.37
1404.748	269.76
1407.996	269.8
1411.244	267.99
1414.492	265.92
1417.74	263.63
1420.987	259.87
1424.234	259.93
1427.481	256.66
1430.728	255.84
1433.974	253.53
1437.22	251.81
1440.465	250.69
1443.711	247.95
1446.956	245.42
1450.201	243.18
1453.445	240.88
1456.689	240.14
1459.933	235.82
1463.177	233.62
1466.42	229.9
1469.663	226.9
1472.906	225.99
1476.148	220.34
1479.391	217.79
1482.633	216.78
1485.874	212.8
1489.115	211.34
1492.356	208.86
1495.597	208.84
1498.838	205.87
1502.078	205.02
1505.318	204.09
1508.557	203.7
1511.797	203.62
1515.036	202.51
1518.274	201.82
1521.513	200.55
1524.751	200
1527.989	199.64
1531.227	198.66
1534.464	199.09
1537.701	197.15
1540.938	196.97
1544.174	195.08
1547.41	194.63
1550.646	193.39
1553.882	193.24
1557.117	190.77
1560.352	190.11
1563.587	189.03
1566.821	187.85
1570.055	185.72
1573.289	185.2
1576.523	184.74
1579.756	183.24
1582.989	182.19
1586.222	181.63
1589.454	180.83
1592.686	182.43
1595.918	181.56
1599.15	181.14
1602.381	181.56
1605.612	181.55
1608.843	181.6
1612.073	181.44
1615.303	182.98
1618.533	183.15
1621.762	183.55
1624.992	184.02
1628.221	183.09
1631.449	183.25
1634.678	183.01
1637.906	183.69
1641.134	183.86
1644.361	183.73
1647.588	184.07
1650.815	182.52
1654.042	182.4
1657.269	182.9
1660.495	182.65
1663.72	182.3
1666.946	182.98
1670.171	183.59
1673.396	183.18
1676.621	183.5
1679.845	183.49
1683.069	183.73
1686.293	185.02
1689.517	185.97
1692.74	186.22
1695.963	186.33
1699.185	188.19
1702.408	188.1
1705.63	188.72
1708.852	189.68
1712.073	189.38
1715.294	190.1
1718.515	191.02
1721.736	190.85
1724.956	190.84
1728.176	190.88
1731.396	192.37
1734.616	191.59
1737.835	192.36
1741.054	190.63
1744.272	190.71
1747.491	192.82
1750.709	193.41
1753.927	193.17
1757.144	192.94
1760.361	193.57
1763.578	194.14
1766.795	193.59
1770.011	195.63
1773.227	194.86
1776.443	197.85
1779.658	198.92
1782.874	198.34
1786.089	198.79
1789.303	199.44
1792.518	201.25
1795.732	201.31
1798.945	202.74
1802.159	203.33
1805.372	203.32
1808.585	207.23
1811.797	207.48
1815.01	207.67
1818.222	209.3
1821.434	211.05
1824.645	211.79
1827.856	215.43
1831.067	216.8
1834.278	216.95
1837.488	218.38
1840.698	219.76
1843.908	217.93
1847.117	218.72
1850.326	219.73
1853.535	218.87
1856.744	222.5
1859.952	221.82
1863.16	220.44
1866.368	219.53
1869.575	221.35
1872.782	218.33
1875.989	217.15
1879.196	216.22
1882.402	215.33
1885.608	215.88
1888.814	216.52
1892.019	214.93
1895.224	214.6
1898.429	214.11
1901.634	215.05
1904.838	214.84
1908.042	216.29
1911.246	217.37
1914.449	218.71
1917.652	218.69
1920.855	218.51
1924.058	218.95
1927.26	217.85
1930.462	219.08
1933.664	221.1
1936.865	218.87
1940.066	218.81
1943.267	218.66
1946.467	217.79
1949.668	219.31
1952.868	221.79
1956.067	221.79
1959.267	221.72
1962.466	222.47
1965.665	221.66
1968.863	221.22
1972.061	225.27
1975.259	227.08
1978.457	228.22
1981.654	231.57
1984.852	231.81
1988.048	231.41
1991.245	233.27
1994.441	235.84
1997.637	236.93
2000.833	241.3
2004.028	245.03
2007.223	246.16
2010.418	248.56
2013.613	252.69
2016.807	254.79
2020.001	256.86
2023.194	261.01
2026.388	267.25
2029.581	273.2
2032.774	276.12
2035.966	281.64
2039.158	281.86
2042.35	287.73
2045.542	289.02
2048.733	294.61
2051.924	298.14
2055.115	303.1
2058.306	303.21
2061.496	306.17
2064.686	305.44
2067.875	310.9
2071.065	311.67
2074.254	310.57
2077.442	313.26
2080.631	316.03
2083.819	317.83
2087.007	319.24
2090.195	323.12
2093.382	326.58
2096.569	324.13
2099.756	329.95
2102.942	330.97
2106.128	333.92
2109.314	341.49
2112.5	340.86
2115.685	347.17
2118.87	347.98
2122.055	354.2
2125.239	356.69
2128.424	361.02
2131.608	364.4
2134.791	367.95
2137.974	370.01
2141.157	371.05
2144.34	372.29
2147.523	377.34
2150.705	374.97
2153.887	379.05
2157.068	379.38
2160.25	377.01
2163.431	377.61
2166.611	381.99
2169.792	389.67
2172.972	393.56
2176.152	395.32
2179.331	400.04
2182.511	408
2185.69	412.06
2188.868	419.95
2192.047	421.94
2195.225	433.74
2198.403	445.22
2201.58	452.53
2204.758	460.22
2207.935	471.03
2211.111	480.26
2214.288	486.31
2217.464	487.09
2220.64	494.98
2223.815	501.48
2226.991	519.68
2230.166	519.36
2233.34	528.01
2236.515	537.48
2239.689	538.05
2242.863	539.97
2246.036	554.97
2249.209	550.4
2252.382	559.71
2255.555	576.43
2258.727	577.83
2261.9	583.74
2265.071	589.73
2268.243	597.41
2271.414	604.53
2274.585	618
2277.756	623.18
2280.926	627.59
2284.096	644.2
2287.266	657.26
2290.436	662.63
2293.605	678.41
2296.774	695.5
2299.942	718.79
2303.111	725.54
2306.279	739.65
2309.447	750.69
2312.614	769.9
2315.781	793.05
2318.948	825.31
2322.115	813.88
2325.281	857.22
2328.447	841.17
2331.613	874.66
2334.779	864.68
2337.944	903.54
2341.109	912.99
2344.274	937.35
2347.438	971.87
2350.602	968.95
2353.766	1002.01
2356.929	1017.41
2360.092	1008.27
2363.255	1081.35
2366.418	1080.06
2369.58	1102.64
2372.742	1167.07
2375.904	1197.42
2379.066	1192.24
2382.227	1165.62
2385.388	1270.47
2388.548	1271.68
2391.709	1286.9
2394.869	1433.02
2398.029	1372.06
2401.188	1408.94
2404.347	1398.92
2407.506	1377.91
2410.665	1415.09
2413.823	1500.56
2416.981	1593.25
2420.139	1533.94
2423.296	1516.64
2426.453	1582.69
2429.61	1524.31
2432.767	1590.39
2435.923	1575.84
2439.079	1724.05
2442.235	1740.62
2445.391	1727.04
2448.546	1709.73
2451.701	1663.62
2454.855	1664.05
2458.009	1756.98
2461.163	1831.61
2464.317	1896.55
2467.471	1949.34
2470.624	1953.95
2473.777	1901
2476.929	1861.78
2480.082	1807.66
2483.234	1791.45
2486.385	1876.77
2489.537	1887.55
2492.688	1961.25
2495.839	1904.95
2498.989	1866.16
2502.14	1873.67
2505.29	1882.72
2508.439	1914.76
2511.589	1907.46
2514.738	2081.95
2517.887	2028.97
2521.035	2142.23
2524.183	2160.34
2527.331	2179.66
2530.479	2168.1
2533.627	2184.14
