Data from C_1_DIV_WI_4N_Splice17_12-54-09-000.txt Node
Date: Sat Mar 07 12:54:09 EST 2020
User: sa697716
Spectrometer: NQ5500242
Trigger mode: 0
Integration Time (sec): 1.450000E-1
Scans to average: 20
Nonlinearity correction enabled: false
Boxcar width: 5
Storing dark spectrum: false
XAxis mode: Wavelengths
Number of Pixels in Spectrum: 512
>>>>>Begin Spectral Data<<<<<
187.83	168.18
188.298	205.07
188.766	194.27
189.233	164.82
189.701	162.05
190.169	169.77
190.636	214.83
191.104	342.89
191.571	450.27
192.039	277.34
192.506	371.11
192.974	-8.53
193.441	81.55
193.908	66.81
194.375	99.03
194.842	92.29
195.31	107.32
195.777	301.82
196.244	31.16
196.711	24.57
197.177	25.33
197.644	25.31
198.111	24.82
198.578	25.59
199.045	25.29
199.511	25.18
199.978	24.78
200.445	24.75
200.911	24.6
201.378	24.84
201.844	25.03
202.31	25.05
202.777	25.19
203.243	25.45
203.709	25.28
204.176	24.88
204.642	24.7
205.108	24.62
205.574	24.51
206.04	24.25
206.506	24.11
206.972	24.15
207.438	24.02
207.903	23.46
208.369	22.93
208.835	22.44
209.301	22.41
209.766	21.77
210.232	21.34
210.697	20.95
211.163	20.71
211.628	20.36
212.094	19.7
212.559	19.47
213.024	19.25
213.49	19.07
213.955	18.69
214.42	18.41
214.885	18.12
215.35	17.83
215.815	17.1
216.28	16.14
216.745	15.21
217.21	14.41
217.675	13.51
218.14	12.8
218.604	12.19
219.069	11.77
219.534	11.41
219.998	11.07
220.463	10.75
220.927	10.46
221.392	10.26
221.856	10.12
222.32	9.92
222.785	9.79
223.249	9.64
223.713	9.53
224.177	9.42
224.642	9.29
225.106	9.15
225.57	9.01
226.034	8.91
226.497	8.8
226.961	8.68
227.425	8.58
227.889	8.49
228.353	8.39
228.816	8.27
229.28	8.15
229.744	8.04
230.207	7.96
230.671	7.87
231.134	7.79
231.597	7.72
232.061	7.64
232.524	7.56
232.987	7.48
233.45	7.41
233.914	7.33
234.377	7.25
234.84	7.18
235.303	7.12
235.766	7.06
236.229	6.98
236.691	6.91
237.154	6.84
237.617	6.78
238.08	6.71
238.542	6.64
239.005	6.58
239.468	6.52
239.93	6.48
240.393	6.42
240.855	6.35
241.317	6.29
241.78	6.22
242.242	6.15
242.704	6.1
243.166	6.05
243.629	6.01
244.091	5.95
244.553	5.89
245.015	5.83
245.477	5.77
245.939	5.73
246.4	5.69
246.862	5.64
247.324	5.61
247.786	5.56
248.247	5.51
248.709	5.46
249.17	5.42
249.632	5.39
250.093	5.37
250.555	5.33
251.016	5.29
251.477	5.26
251.939	5.23
252.4	5.2
252.861	5.17
253.322	5.14
253.783	5.12
254.244	5.09
254.705	5.05
255.166	5.01
255.627	4.98
256.088	4.96
256.549	4.92
257.009	4.89
257.47	4.86
257.931	4.82
258.391	4.79
258.852	4.75
259.312	4.73
259.773	4.71
260.233	4.69
260.694	4.67
261.154	4.64
261.614	4.62
262.074	4.59
262.534	4.57
262.994	4.56
263.455	4.54
263.915	4.52
264.374	4.5
264.834	4.49
265.294	4.47
265.754	4.45
266.214	4.44
266.673	4.42
267.133	4.41
267.593	4.4
268.052	4.39
268.512	4.38
268.971	4.36
269.431	4.35
269.89	4.34
270.349	4.33
270.809	4.32
271.268	4.31
271.727	4.3
272.186	4.29
272.645	4.28
273.104	4.26
273.563	4.25
274.022	4.24
274.481	4.23
274.94	4.22
275.399	4.21
275.857	4.2
276.316	4.18
276.775	4.17
277.233	4.16
277.692	4.15
278.15	4.13
278.609	4.12
279.067	4.1
279.525	4.08
279.984	4.06
280.442	4.04
280.9	4.03
281.358	4.01
281.816	4
282.274	3.98
282.732	3.96
283.19	3.95
283.648	3.93
284.106	3.91
284.564	3.89
285.021	3.89
285.479	3.87
285.937	3.85
286.394	3.84
286.852	3.81
287.309	3.8
287.767	3.79
288.224	3.77
288.682	3.75
289.139	3.73
289.596	3.72
290.053	3.7
290.511	3.68
290.968	3.67
291.425	3.66
291.882	3.64
292.339	3.62
292.796	3.62
293.252	3.61
293.709	3.6
294.166	3.6
294.623	3.58
295.079	3.57
295.536	3.56
295.992	3.55
296.449	3.54
296.905	3.53
297.362	3.52
297.818	3.5
298.274	3.5
298.731	3.48
299.187	3.47
299.643	3.46
300.099	3.45
300.555	3.43
301.011	3.42
301.467	3.42
301.923	3.4
302.379	3.39
302.835	3.39
303.291	3.37
303.746	3.36
304.202	3.36
304.658	3.35
305.113	3.33
305.569	3.33
306.024	3.31
306.479	3.3
306.935	3.29
307.39	3.29
307.845	3.28
308.301	3.27
308.756	3.27
309.211	3.25
309.666	3.26
310.121	3.25
310.576	3.24
311.031	3.24
311.486	3.24
311.94	3.23
312.395	3.23
312.85	3.22
313.305	3.21
313.759	3.2
314.214	3.18
314.668	3.17
315.123	3.16
315.577	3.14
316.032	3.13
316.486	3.11
316.94	3.11
317.394	3.09
317.849	3.07
318.303	3.07
318.757	3.06
319.211	3.06
319.665	3.05
320.119	3.04
320.572	3.03
321.026	3.03
321.48	3.02
321.934	3.01
322.387	3
322.841	3
323.295	3
323.748	2.99
324.202	2.99
324.655	2.98
325.108	2.98
325.562	2.98
326.015	2.97
326.468	2.97
326.921	2.97
327.374	2.96
327.827	2.95
328.28	2.94
328.733	2.94
329.186	2.93
329.639	2.92
330.092	2.91
330.545	2.9
330.997	2.89
331.45	2.9
331.903	2.89
332.355	2.9
332.808	2.89
333.26	2.88
333.713	2.87
334.165	2.86
334.617	2.86
335.069	2.84
335.522	2.84
335.974	2.84
336.426	2.82
336.878	2.81
337.33	2.81
337.782	2.8
338.234	2.8
338.686	2.8
339.137	2.81
339.589	2.81
340.041	2.81
340.493	2.8
340.944	2.78
341.396	2.77
341.847	2.77
342.299	2.76
342.75	2.75
343.201	2.73
343.653	2.72
344.104	2.7
344.555	2.69
345.006	2.68
345.457	2.67
345.908	2.67
346.359	2.67
346.81	2.67
347.261	2.66
347.712	2.66
348.163	2.65
348.613	2.64
349.064	2.65
349.515	2.64
349.965	2.64
350.416	2.63
350.866	2.63
351.317	2.61
351.767	2.61
352.217	2.6
352.668	2.6
353.118	2.6
353.568	2.59
354.018	2.6
354.468	2.59
354.918	2.58
355.368	2.59
355.818	2.58
356.268	2.58
356.718	2.58
357.168	2.57
357.617	2.56
358.067	2.56
358.517	2.56
358.966	2.56
359.416	2.57
359.865	2.56
360.315	2.56
360.764	2.56
361.213	2.56
361.663	2.55
362.112	2.56
362.561	2.57
363.01	2.56
363.459	2.54
363.908	2.53
364.357	2.53
364.806	2.53
365.255	2.52
365.703	2.53
366.152	2.53
366.601	2.53
367.05	2.52
367.498	2.51
367.947	2.51
368.395	2.52
368.844	2.51
369.292	2.5
369.74	2.5
370.189	2.49
370.637	2.49
371.085	2.48
371.533	2.48
371.981	2.47
372.429	2.47
372.877	2.47
373.325	2.46
373.773	2.46
374.221	2.46
374.669	2.45
375.116	2.45
375.564	2.44
376.012	2.43
376.459	2.42
376.907	2.43
377.354	2.43
377.801	2.43
378.249	2.44
378.696	2.43
379.143	2.42
379.591	2.42
380.038	2.42
380.485	2.42
380.932	2.42
381.379	2.43
381.826	2.42
382.273	2.41
382.72	2.4
383.166	2.4
383.613	2.4
384.06	2.4
384.506	2.4
384.953	2.4
385.4	2.4
385.846	2.4
386.292	2.4
386.739	2.4
387.185	2.4
387.631	2.41
388.078	2.4
388.524	2.4
388.97	2.39
389.416	2.4
389.862	2.41
390.308	2.42
390.754	2.42
391.2	2.43
391.645	2.44
392.091	2.45
392.537	2.47
392.983	2.47
393.428	2.49
393.874	2.5
394.319	2.51
394.765	2.51
395.21	2.51
395.655	2.53
396.101	2.55
396.546	2.55
396.991	2.56
397.436	2.57
397.881	2.59
398.326	2.6
398.771	2.62
399.216	2.63
399.661	2.65
400.106	2.66
400.551	2.68
400.995	2.68
401.44	2.69
401.885	2.71
402.329	2.72
402.774	2.72
403.218	2.75
403.663	2.76
404.107	2.77
404.551	2.78
404.995	2.8
405.44	2.8
405.884	2.82
406.328	2.84
406.772	2.84
407.216	2.86
407.66	2.88
408.104	2.88
408.547	2.89
408.991	2.92
409.435	2.92
409.879	2.93
410.322	2.95
410.766	2.97
411.209	2.98
411.653	3.01
412.096	3.03
412.54	3.04
412.983	3.04
413.426	3.07
413.869	3.08
414.312	3.1
414.756	3.13
415.199	3.12
415.642	3.12
416.085	3.12
416.527	3.12
416.97	3.11
417.413	3.11
417.856	3.11
418.298	3.11
418.741	3.1
419.184	3.11
419.626	3.11
420.069	3.13
420.511	3.14
420.953	3.14
421.396	3.15
421.838	3.16
422.28	3.17
422.722	3.18
423.164	3.19
423.606	3.19
424.048	3.2
424.49	3.2
424.932	3.19
425.374	3.18
425.816	3.17
426.258	3.15
426.699	3.14
427.141	3.14
427.582	3.14
428.024	3.14
428.465	3.15
428.907	3.14
429.348	3.14
429.789	3.13
430.231	3.16
430.672	3.18
431.113	3.2
431.554	3.23
431.995	3.25
432.436	3.26
432.877	3.3
433.318	3.32
433.759	3.34
434.2	3.36
434.64	3.38
435.081	3.39
435.522	3.39
435.962	3.41
436.403	3.42
436.843	3.43
437.284	3.43
437.724	3.42
438.164	3.42
438.604	3.43
439.045	3.44
439.485	3.45
439.925	3.45
440.365	3.47
440.805	3.48
441.245	3.49
441.685	3.51
442.125	3.53
442.564	3.53
443.004	3.54
443.444	3.54
443.883	3.55
444.323	3.55
444.762	3.56
445.202	3.57
445.641	3.59
446.081	3.6
446.52	3.6
446.959	3.63
447.398	3.65
447.837	3.66
448.276	3.65
448.716	3.66
449.154	3.67
449.593	3.67
450.032	3.67
450.471	3.66
450.91	3.65
451.349	3.64
451.787	3.62
452.226	3.61
452.664	3.6
453.103	3.6
453.541	3.61
453.98	3.62
454.418	3.59
454.856	3.58
455.295	3.57
455.733	3.55
456.171	3.56
456.609	3.56
457.047	3.53
457.485	3.52
457.923	3.51
458.361	3.51
458.798	3.5
459.236	3.5
459.674	3.5
460.111	3.5
460.549	3.5
460.987	3.5
461.424	3.5
461.862	3.52
462.299	3.53
462.736	3.54
463.173	3.54
463.611	3.55
464.048	3.57
464.485	3.58
464.922	3.59
465.359	3.61
465.796	3.63
466.233	3.63
466.67	3.65
467.106	3.66
467.543	3.66
467.98	3.67
468.416	3.68
468.853	3.68
469.29	3.68
469.726	3.71
470.162	3.71
470.599	3.73
471.035	3.73
471.471	3.71
471.907	3.7
472.344	3.72
472.78	3.72
473.216	3.71
473.652	3.72
474.088	3.71
474.523	3.71
474.959	3.7
475.395	3.68
475.831	3.68
476.266	3.69
476.702	3.68
477.138	3.68
477.573	3.68
478.008	3.68
478.444	3.66
478.879	3.67
479.314	3.66
479.75	3.64
480.185	3.63
480.62	3.62
481.055	3.6
481.49	3.57
481.925	3.55
482.36	3.52
482.795	3.51
483.229	3.49
483.664	3.48
484.099	3.46
484.534	3.46
484.968	3.46
485.403	3.45
485.837	3.46
486.271	3.49
486.706	3.5
487.14	3.5
487.574	3.51
488.009	3.51
488.443	3.52
488.877	3.53
489.311	3.54
489.745	3.55
490.179	3.57
490.613	3.58
491.046	3.59
491.48	3.6
491.914	3.62
492.348	3.65
492.781	3.68
493.215	3.71
493.648	3.74
494.082	3.76
494.515	3.79
494.948	3.82
495.382	3.84
495.815	3.88
496.248	3.91
496.681	3.94
497.114	3.97
497.547	3.99
497.98	4.04
498.413	4.07
498.846	4.11
499.279	4.16
499.711	4.2
500.144	4.26
500.577	4.32
501.009	4.38
501.442	4.45
501.874	4.52
502.306	4.6
502.739	4.68
503.171	4.75
503.603	4.83
504.036	4.91
504.468	5
504.9	5.07
505.332	5.15
505.764	5.25
506.196	5.36
506.627	5.46
507.059	5.56
507.491	5.66
507.923	5.78
508.354	5.91
508.786	6.03
509.217	6.16
509.649	6.3
510.08	6.43
510.512	6.56
510.943	6.69
511.374	6.83
511.805	6.97
512.237	7.1
512.668	7.22
513.099	7.36
513.53	7.5
513.961	7.65
514.391	7.79
514.822	7.96
515.253	8.13
515.684	8.31
516.114	8.5
516.545	8.68
516.975	8.89
517.406	9.11
517.836	9.31
518.267	9.53
518.697	9.73
519.127	9.94
519.558	10.14
519.988	10.35
520.418	10.55
520.848	10.74
521.278	10.93
521.708	11.25
522.138	11.41
522.567	11.56
522.997	11.71
523.427	11.89
523.857	12.06
524.286	12.22
524.716	12.37
525.145	12.53
525.575	12.68
526.004	12.85
526.433	12.86
526.863	13.02
527.292	13.19
527.721	13.33
528.15	13.45
528.579	13.55
529.008	13.65
529.437	13.74
529.866	13.84
530.295	13.92
530.724	14
531.152	14.09
531.581	14.18
532.01	14.25
532.438	14.34
532.867	14.41
533.295	14.5
533.723	14.56
534.152	14.62
534.58	14.68
535.008	14.71
535.436	14.75
535.865	14.78
536.293	14.8
536.721	14.81
537.149	14.83
537.576	14.86
538.004	14.88
538.432	14.91
538.86	14.94
539.287	14.97
539.715	15.01
540.143	15.06
540.57	15.09
540.998	15.13
541.425	15.19
541.852	15.23
542.28	15.27
542.707	15.31
543.134	15.34
543.561	15.38
543.988	15.41
544.415	15.43
544.842	15.45
545.269	15.48
545.696	15.51
546.123	15.54
546.549	15.56
546.976	15.6
547.403	15.63
547.829	15.66
548.256	15.68
548.682	15.7
549.108	15.73
549.535	15.75
549.961	15.77
550.387	15.77
550.813	15.79
551.24	15.8
551.666	15.79
552.092	15.77
552.518	15.74
552.943	15.72
553.369	15.69
553.795	15.65
554.221	15.6
554.646	15.55
555.072	15.5
555.498	15.43
555.923	15.36
556.349	15.31
556.774	15.25
557.199	15.2
557.625	15.14
558.05	15.08
558.475	15.02
558.9	14.97
559.325	14.92
559.75	14.85
560.175	14.78
560.6	14.7
561.025	14.61
561.449	14.52
561.874	14.41
562.299	14.32
562.723	14.22
563.148	14.11
563.572	13.99
563.997	13.88
564.421	13.76
564.846	13.64
565.27	13.52
565.694	13.41
566.118	13.27
566.542	13.15
566.966	13.03
567.39	12.91
567.814	12.8
568.238	12.69
568.662	12.59
569.086	12.49
569.509	12.4
569.933	12.3
570.357	12.2
570.78	12.11
571.204	12.02
571.627	11.93
572.05	11.85
572.474	11.76
572.897	11.68
573.32	11.58
573.743	11.48
574.166	11.39
574.589	11.31
575.012	11.23
575.435	11.16
575.858	11.09
576.281	11.01
576.704	10.95
577.126	10.89
577.549	10.81
577.972	10.75
578.394	10.7
578.817	10.64
579.239	10.6
579.661	10.55
580.084	10.5
580.506	10.45
580.928	10.39
581.35	10.33
581.772	10.27
582.194	10.21
582.616	10.16
583.038	10.11
583.46	10.05
583.882	9.99
584.303	9.92
584.725	9.85
585.147	9.79
585.568	9.74
585.99	9.67
586.411	9.63
586.833	9.57
587.254	9.51
587.675	9.47
588.096	9.43
588.518	9.38
588.939	9.35
589.36	9.33
589.781	9.29
590.202	9.26
590.623	9.24
591.043	9.19
591.464	9.18
591.885	9.16
592.305	9.12
592.726	9.1
593.147	9.07
593.567	9.04
593.987	9.01
594.408	8.98
594.828	8.95
595.248	8.93
595.669	8.91
596.089	8.88
596.509	8.85
596.929	8.83
597.349	8.79
597.769	8.77
598.189	8.73
598.608	8.71
599.028	8.7
599.448	8.67
599.867	8.65
600.287	8.63
600.706	8.61
601.126	8.59
601.545	8.56
601.965	8.53
602.384	8.51
602.803	8.48
603.222	8.44
603.641	8.39
604.061	8.36
604.48	8.31
604.898	8.26
605.317	8.21
605.736	8.16
606.155	8.11
606.574	8.06
606.992	8
607.411	7.95
607.829	7.87
608.248	7.82
608.666	7.76
609.085	7.72
609.503	7.67
609.921	7.61
610.339	7.56
610.758	7.52
611.176	7.46
611.594	7.41
612.012	7.36
612.43	7.34
612.847	7.3
613.265	7.25
613.683	7.19
614.101	7.15
614.518	7.11
614.936	7.07
615.353	7.01
615.771	6.97
616.188	6.94
616.606	6.91
617.023	6.87
617.44	6.85
617.857	6.81
618.274	6.78
618.691	6.74
619.108	6.7
619.525	6.67
619.942	6.65
620.359	6.62
620.776	6.59
621.192	6.55
621.609	6.52
622.026	6.49
622.442	6.46
622.859	6.44
623.275	6.41
623.691	6.4
624.108	6.39
624.524	6.37
624.94	6.36
625.356	6.35
625.772	6.33
626.188	6.33
626.604	6.32
627.02	6.3
627.436	6.28
627.852	6.28
628.268	6.26
628.683	6.25
629.099	6.24
629.514	6.23
629.93	6.21
630.345	6.2
630.761	6.17
631.176	6.15
631.591	6.13
632.007	6.11
632.422	6.08
632.837	6.05
633.252	6.01
633.667	5.97
634.082	5.94
634.497	5.89
634.911	5.85
635.326	5.81
635.741	5.77
636.155	5.72
636.57	5.67
636.984	5.62
637.399	5.56
637.813	5.51
638.228	5.44
638.642	5.37
639.056	5.31
639.47	5.26
639.884	5.2
640.298	5.14
640.712	5.07
641.126	5.02
641.54	4.95
641.954	4.89
642.368	4.82
642.781	4.77
643.195	4.7
643.609	4.65
644.022	4.59
644.436	4.54
644.849	4.48
645.262	4.44
645.676	4.39
646.089	4.34
646.502	4.31
646.915	4.28
647.328	4.25
647.741	4.22
648.154	4.19
648.567	4.17
648.98	4.15
649.393	4.13
649.805	4.11
650.218	4.09
650.631	4.08
651.043	4.05
651.456	4.02
651.868	4
652.28	3.97
652.693	3.94
653.105	3.91
653.517	3.88
653.929	3.86
654.341	3.82
654.753	3.8
655.165	3.77
655.577	3.75
655.989	3.73
656.401	3.7
656.813	3.69
657.224	3.66
657.636	3.64
658.047	3.62
658.459	3.59
658.87	3.56
659.282	3.52
659.693	3.49
660.104	3.45
660.515	3.41
660.926	3.38
661.338	3.34
661.749	3.31
662.159	3.28
662.57	3.24
662.981	3.21
663.392	3.18
663.803	3.15
664.213	3.12
664.624	3.1
665.035	3.08
665.445	3.06
665.855	3.03
666.266	3.01
666.676	3
667.086	2.98
667.497	2.96
667.907	2.94
668.317	2.94
668.727	2.93
669.137	2.92
669.547	2.92
669.956	2.91
670.366	2.91
670.776	2.9
671.186	2.9
671.595	2.91
672.005	2.9
672.414	2.91
672.824	2.9
673.233	2.9
673.642	2.91
674.052	2.91
674.461	2.92
674.87	2.94
675.279	2.95
675.688	2.96
676.097	2.98
676.506	3
676.915	3.01
677.323	3.03
677.732	3.05
678.141	3.06
678.549	3.08
678.958	3.1
679.366	3.12
679.775	3.14
680.183	3.17
680.592	3.2
681	3.23
681.408	3.28
681.816	3.32
682.224	3.36
682.632	3.41
683.04	3.46
683.448	3.52
683.856	3.56
684.264	3.62
684.671	3.7
685.079	3.78
685.487	3.87
685.894	3.97
686.302	4.09
686.709	4.22
687.116	4.37
687.524	4.53
687.931	4.7
688.338	4.91
688.745	5.11
689.152	5.32
689.559	5.55
689.966	5.78
690.373	6.02
690.78	6.29
691.187	6.55
691.593	6.83
692	7.12
692.407	7.41
692.813	7.71
693.22	8.02
693.626	8.33
694.032	8.64
694.439	8.96
694.845	9.3
695.251	9.62
695.657	9.95
696.063	10.28
696.469	10.62
696.875	10.96
697.281	11.3
697.687	11.64
698.093	11.97
698.498	12.31
698.904	12.66
699.31	12.99
699.715	13.32
700.12	13.67
700.526	14.01
700.931	14.33
701.337	14.67
701.742	15
702.147	15.31
702.552	15.65
702.957	15.96
703.362	16.26
703.767	16.57
704.172	16.86
704.577	17.14
704.981	17.44
705.386	17.74
705.791	18.03
706.195	18.31
706.6	18.6
707.004	18.86
707.408	19.15
707.813	19.44
708.217	19.73
708.621	20
709.025	20.27
709.43	20.53
709.834	20.78
710.237	21.03
710.641	21.28
711.045	21.52
711.449	21.79
711.853	22.04
712.256	22.25
712.66	22.47
713.064	22.69
713.467	22.9
713.87	23.09
714.274	23.27
714.677	23.46
715.08	23.61
715.484	23.8
715.887	23.97
716.29	24.11
716.693	24.3
717.096	24.47
717.499	24.68
717.901	24.91
718.304	25.13
718.707	25.36
719.109	25.58
719.512	25.79
719.915	25.99
720.317	26.17
720.719	26.35
721.122	26.54
721.524	26.7
721.926	26.86
722.328	27
722.731	27.12
723.133	27.25
723.535	27.39
723.937	27.55
724.338	27.67
724.74	27.83
725.142	28.03
725.544	28.16
725.945	28.31
726.347	28.42
726.748	28.54
727.15	28.66
727.551	28.81
727.952	28.91
728.354	29.03
728.755	29.16
729.156	29.27
729.557	29.31
729.958	29.43
730.359	29.55
730.76	29.67
731.161	29.79
731.562	29.9
731.962	29.97
732.363	30.06
732.763	30.16
733.164	30.25
733.564	30.33
733.965	30.41
734.365	30.48
734.766	30.52
735.166	30.55
735.566	30.59
735.966	30.66
736.366	30.7
736.766	30.74
737.166	30.77
737.566	30.8
737.966	30.83
738.365	30.88
738.765	30.93
739.165	30.98
739.564	31.04
739.964	31.08
740.363	31.1
740.763	31.15
741.162	31.21
741.561	31.25
741.96	31.29
742.36	31.33
742.759	31.36
743.158	31.37
743.557	31.39
743.955	31.4
744.354	31.43
744.753	31.48
745.152	31.5
745.55	31.51
745.949	31.53
746.348	31.56
746.746	31.54
747.144	31.56
747.543	31.58
747.941	31.6
748.339	31.6
748.737	31.6
749.136	31.6
749.534	31.6
749.932	31.6
750.33	31.59
750.727	31.6
751.125	31.64
751.523	31.63
751.921	31.63
752.318	31.62
752.716	31.64
753.113	31.63
753.511	31.63
753.908	31.64
754.305	31.63
754.703	31.58
755.1	31.48
755.497	31.29
755.894	31.02
756.291	30.73
756.688	30.38
757.085	30.07
757.482	29.78
757.878	29.52
758.275	29.22
758.672	28.94
759.068	28.7
759.465	28.52
759.861	28.44
760.258	28.44
760.654	28.52
761.05	28.68
761.447	28.83
761.843	28.95
762.239	29.07
762.635	29.24
763.031	29.44
763.427	29.61
763.822	29.82
764.218	30.03
764.614	30.25
765.01	30.41
765.405	30.57
765.801	30.7
766.196	30.85
766.592	30.95
766.987	31.05
767.382	31.12
767.778	31.19
768.173	31.25
768.568	31.28
768.963	31.29
769.358	31.33
769.753	31.36
770.148	31.37
770.542	31.38
770.937	31.41
771.332	31.42
771.726	31.42
772.121	31.4
772.515	31.38
772.91	31.38
773.304	31.39
773.699	31.39
774.093	31.38
774.487	31.36
774.881	31.35
775.275	31.33
775.669	31.28
776.063	31.27
776.457	31.27
776.851	31.25
777.245	31.23
777.638	31.19
778.032	31.17
778.425	31.16
778.819	31.14
779.212	31.14
779.606	31.13
779.999	31.11
780.392	31.09
780.786	31.08
781.179	31.08
781.572	31.07
781.965	31.07
782.358	31.06
782.751	31.03
783.143	31.01
783.536	30.98
783.929	30.96
784.322	30.96
784.714	30.93
785.107	30.92
785.499	30.9
785.891	30.86
786.284	30.84
786.676	30.8
787.068	30.76
787.46	30.74
787.852	30.7
788.245	30.65
788.636	30.6
789.028	30.59
789.42	30.54
789.812	30.51
790.204	30.48
790.595	30.45
790.987	30.44
791.378	30.41
791.77	30.39
792.161	30.36
792.553	30.36
792.944	30.35
793.335	30.33
793.726	30.3
794.117	30.3
794.508	30.26
794.899	30.24
795.29	30.22
795.681	30.19
796.072	30.17
796.463	30.16
796.853	30.13
797.244	30.1
797.634	30.07
798.025	30.06
798.415	30.03
798.806	30.02
799.196	30
799.586	29.97
799.976	29.95
800.366	29.93
800.756	29.9
801.146	29.88
801.536	29.87
801.926	29.82
802.316	29.79
802.706	29.75
803.095	29.73
803.485	29.7
803.874	29.67
804.264	29.64
804.653	29.62
805.043	29.59
805.432	29.55
805.821	29.51
806.21	29.5
806.599	29.47
806.988	29.43
807.377	29.38
807.766	29.33
808.155	29.27
808.544	29.23
808.933	29.17
809.321	29.11
809.71	29.07
810.098	29.02
810.487	28.93
810.875	28.87
811.264	28.82
811.652	28.76
812.04	28.7
812.428	28.68
812.816	28.63
813.204	28.57
813.592	28.51
813.98	28.47
814.368	28.42
814.756	28.39
815.144	28.35
815.531	28.32
815.919	28.28
816.306	28.28
816.694	28.24
817.081	28.22
817.469	28.2
817.856	28.17
818.243	28.14
818.63	28.1
819.017	28.06
819.404	28.04
819.791	28.01
820.178	27.98
820.565	27.93
820.952	27.91
821.339	27.88
821.725	27.88
822.112	27.89
822.498	27.89
822.885	27.89
823.271	27.9
823.657	27.89
824.044	27.88
824.43	27.88
824.816	27.86
825.202	27.83
825.588	27.81
825.974	27.76
826.36	27.74
826.746	27.71
827.132	27.68
827.517	27.65
827.903	27.64
828.289	27.63
828.674	27.61
829.06	27.59
829.445	27.58
829.83	27.58
830.216	27.56
830.601	27.55
830.986	27.55
831.371	27.52
831.756	27.53
832.141	27.51
832.526	27.5
832.911	27.48
833.295	27.48
833.68	27.49
834.065	27.49
834.449	27.48
834.834	27.47
835.218	27.46
835.603	27.45
835.987	27.41
836.371	27.4
836.755	27.39
837.139	27.39
837.524	27.38
837.908	27.36
838.291	27.36
838.675	27.35
839.059	27.34
839.443	27.33
839.827	27.32
840.21	27.32
840.594	27.34
840.977	27.33
841.361	27.32
841.744	27.29
842.127	27.27
842.511	27.23
842.894	27.22
843.277	27.22
843.66	27.22
844.043	27.23
844.426	27.23
844.809	27.21
845.191	27.2
845.574	27.19
845.957	27.2
846.339	27.2
846.722	27.2
847.104	27.2
847.487	27.16
847.869	27.16
848.252	27.13
848.634	27.1
849.016	27.1
849.398	27.08
849.78	27.06
850.162	27.05
850.544	27.03
850.926	27.02
851.307	27
851.689	26.98
852.071	26.98
852.452	26.97
852.834	26.96
853.215	26.95
853.597	26.96
853.978	26.95
854.359	26.97
854.741	26.99
855.122	26.98
855.503	26.98
855.884	26.98
856.265	26.96
856.646	26.96
857.026	26.98
857.407	26.98
857.788	26.95
858.169	26.95
858.549	26.94
858.93	26.93
859.31	26.91
859.69	26.91
860.071	26.92
860.451	26.92
860.831	26.91
861.211	26.89
861.591	26.85
861.971	26.83
862.351	26.81
862.731	26.8
863.111	26.78
863.491	26.78
863.87	26.77
864.25	26.74
864.629	26.74
865.009	26.73
865.388	26.71
865.768	26.7
866.147	26.71
866.526	26.71
866.905	26.71
867.284	26.72
867.663	26.71
868.042	26.7
868.421	26.71
868.8	26.71
869.179	26.7
869.558	26.72
869.936	26.72
870.315	26.72
870.693	26.72
871.072	26.71
871.45	26.71
871.828	26.71
872.207	26.71
872.585	26.69
872.963	26.7
873.341	26.7
873.719	26.69
874.097	26.69
874.475	26.69
874.853	26.69
875.23	26.69
875.608	26.69
875.986	26.72
876.363	26.72
876.741	26.73
877.118	26.73
877.495	26.72
877.873	26.71
878.25	26.72
878.627	26.72
879.004	26.73
879.381	26.73
879.758	26.7
880.135	26.68
880.512	26.66
880.889	26.64
881.265	26.62
881.642	26.63
882.019	26.63
882.395	26.63
882.772	26.61
883.148	26.58
883.524	26.57
883.901	26.55
884.277	26.54
884.653	26.52
885.029	26.53
885.405	26.53
885.781	26.52
886.157	26.52
886.532	26.51
886.908	26.5
887.284	26.52
887.659	26.51
888.035	26.51
888.411	26.51
888.786	26.52
889.161	26.52
889.537	26.52
889.912	26.51
890.287	26.49
890.662	26.49
891.037	26.49
891.412	26.47
891.787	26.46
892.162	26.47
892.536	26.44
892.911	26.44
893.286	26.41
893.66	26.4
894.035	26.39
894.409	26.38
894.784	26.36
895.158	26.36
895.532	26.35
895.906	26.33
896.281	26.32
896.655	26.32
897.029	26.33
897.402	26.34
897.776	26.35
898.15	26.35
898.524	26.36
898.898	26.37
899.271	26.36
899.645	26.38
900.018	26.41
900.392	26.42
900.765	26.41
901.138	26.39
901.511	26.38
901.884	26.37
902.258	26.36
902.631	26.35
903.003	26.33
903.376	26.32
903.749	26.3
904.122	26.28
904.495	26.27
904.867	26.28
905.24	26.29
905.612	26.29
905.985	26.29
906.357	26.29
906.729	26.32
907.102	26.31
907.474	26.31
907.846	26.31
908.218	26.31
908.59	26.31
908.962	26.3
909.334	26.27
909.705	26.27
910.077	26.26
910.449	26.24
910.82	26.23
911.192	26.25
911.563	26.24
911.935	26.22
912.306	26.23
912.677	26.23
913.048	26.23
913.419	26.24
913.79	26.25
914.161	26.23
914.532	26.24
914.903	26.23
915.274	26.2
915.645	26.21
916.015	26.19
916.386	26.2
916.756	26.21
917.127	26.21
917.497	26.19
917.868	26.18
918.238	26.2
918.608	26.2
918.978	26.2
919.348	26.21
919.718	26.2
920.088	26.21
920.458	26.18
920.828	26.17
921.198	26.15
921.567	26.17
921.937	26.2
922.306	26.17
922.676	26.16
923.045	26.15
923.415	26.14
923.784	26.16
924.153	26.16
924.522	26.17
924.891	26.14
925.26	26.14
925.629	26.15
925.998	26.11
926.367	26.13
926.736	26.12
927.104	26.12
927.473	26.11
927.842	26.09
928.21	26.11
928.578	26.09
928.947	26.09
929.315	26.06
929.683	26.02
930.051	25.98
930.42	25.98
930.788	25.95
931.156	25.93
931.523	25.92
931.891	25.92
932.259	25.9
932.627	25.91
932.994	25.89
933.362	25.89
933.729	25.9
934.097	25.92
934.464	25.92
934.831	25.94
935.199	25.96
935.566	25.95
935.933	25.87
936.3	25.85
936.667	25.83
937.034	25.89
937.401	25.91
937.767	25.91
938.134	25.92
938.501	25.93
938.867	25.97
939.234	25.96
939.6	25.97
939.967	26.07
940.333	26.02
940.699	26.06
941.065	26
941.431	26.02
941.798	25.98
942.163	25.96
942.529	25.92
942.895	25.85
943.261	25.84
943.627	25.85
943.992	25.79
944.358	25.85
944.723	25.76
945.089	25.71
945.454	25.68
945.82	25.66
946.185	25.67
946.55	25.66
946.915	25.67
947.28	25.64
947.645	25.63
948.01	25.66
948.375	25.63
948.74	25.64
949.104	25.72
949.469	25.71
949.834	25.7
950.198	25.71
950.562	25.69
950.927	25.66
951.291	25.62
951.655	25.56
952.02	25.56
952.384	25.54
952.748	25.57
953.112	25.54
953.476	25.52
953.839	25.52
954.203	25.47
954.567	25.45
954.931	25.45
955.294	25.47
955.658	25.56
956.021	25.56
956.385	25.55
956.748	25.53
957.111	25.48
957.474	25.51
957.837	25.51
958.2	25.52
958.563	25.55
958.926	25.56
959.289	25.57
959.652	25.53
960.015	25.52
960.377	25.53
960.74	25.55
961.102	25.58
961.465	25.57
961.827	25.59
962.189	25.63
962.552	25.64
962.914	25.64
963.276	25.65
963.638	25.65
964	25.61
964.362	25.62
964.724	25.57
965.085	25.58
965.447	25.57
965.809	25.55
966.17	25.49
966.532	25.5
966.893	25.52
967.255	25.51
967.616	25.5
967.977	25.54
968.338	25.55
968.699	25.57
969.061	25.57
969.421	25.59
969.782	25.61
970.143	25.62
970.504	25.62
970.865	25.6
971.225	25.57
971.586	25.57
971.946	25.55
972.307	25.52
972.667	25.52
973.027	25.53
973.388	25.49
973.748	25.47
974.108	25.54
974.468	25.48
974.828	25.51
975.188	25.52
975.548	25.48
975.907	25.48
976.267	25.51
976.627	25.55
976.986	25.51
977.346	25.51
977.705	25.51
978.064	25.51
978.424	25.55
978.783	25.52
979.142	25.55
979.501	25.57
979.86	25.67
980.219	25.68
980.578	25.66
980.937	25.74
981.296	25.78
981.654	25.79
982.013	25.75
982.371	25.74
982.73	25.77
983.088	25.77
983.447	25.78
983.805	25.69
984.163	25.68
984.521	25.66
984.879	25.53
985.237	25.58
985.595	25.62
985.953	25.64
986.311	25.56
986.669	25.58
987.026	25.52
987.384	25.51
987.741	25.48
988.099	25.51
988.456	25.46
988.814	25.5
989.171	25.41
989.528	25.38
989.885	25.34
990.242	25.48
990.599	25.48
990.956	25.52
991.313	25.56
991.67	25.56
992.027	25.64
992.383	25.72
992.74	25.78
993.096	25.84
993.453	25.86
993.809	25.9
994.165	25.83
994.522	25.83
994.878	25.87
995.234	25.85
995.59	25.94
995.946	25.81
996.302	25.85
996.658	25.9
997.013	25.91
997.369	26
997.725	26.04
998.08	26.07
998.436	26.05
998.791	26.11
999.147	26.1
999.502	26.1
999.857	26.14
1000.212	26.04
1000.567	26.03
1000.922	26.03
1001.277	25.9
1001.632	25.77
1001.987	25.77
1002.342	25.67
1002.696	25.56
1003.051	25.64
1003.406	25.73
1003.76	25.71
1004.114	25.65
1004.469	25.56
1004.823	25.74
1005.177	25.7
1005.531	25.84
1005.885	25.85
1006.239	25.93
1006.593	26.07
1006.947	26.01
1007.301	25.84
1007.655	25.83
1008.008	25.99
1008.362	26.11
1008.715	25.92
1009.069	26.11
1009.422	26.15
1009.776	26.15
1010.129	26.2
1010.482	26.19
1010.835	26.28
1011.188	26.37
1011.541	26.4
1011.894	26.47
1012.247	26.46
1012.6	26.46
1012.952	26.25
1013.305	26.21
1013.657	26.29
1014.01	26.34
1014.362	26.27
1014.715	26.42
1015.067	26.46
1015.419	26.54
1015.771	26.56
1016.123	26.46
1016.475	26.52
1016.827	26.67
1017.179	26.8
1017.531	26.72
1017.883	26.67
1018.234	26.75
1018.586	26.52
1018.938	26.7
1019.289	26.86
1019.64	26.85
1019.992	27.16
1020.343	27.08
1020.694	27.11
1021.045	26.85
1021.396	26.78
1021.747	26.93
1022.098	27
1022.449	27.08
1022.8	26.91
1023.151	26.87
1023.501	26.98
1023.852	26.87
1024.202	26.84
1024.553	26.74
1024.903	26.87
1025.253	27.12
1025.604	27.37
1025.954	27.28
1026.304	27.38
1026.654	27.54
1027.004	27.51
1027.354	27.2
1027.703	27.23
1028.053	27.39
1028.403	27.78
1028.753	27.88
1029.102	27.87
1029.452	27.59
1029.801	27.74
1030.15	27.75
1030.499	27.7
897.758	1053.06
901.051	1060.96
904.343	1060.93
907.636	1080.18
910.928	1052.02
914.22	1052.13
917.511	1036.74
920.803	992.97
924.094	987.21
927.384	964.78
930.675	928.5
933.965	925
937.255	870.51
940.544	834.33
943.834	794.08
947.123	787.56
950.411	742.17
953.7	726.89
956.988	689.84
960.276	663.6
963.563	651.69
966.851	628.01
970.138	621.48
973.424	602.46
976.711	605.45
979.997	575.28
983.283	572.03
986.568	560.1
989.853	543.96
993.138	531.29
996.423	511.58
999.708	497.82
1002.992	491
1006.275	469.84
1009.559	466.2
1012.842	449.45
1016.125	438.02
1019.408	429.1
1022.69	422.83
1025.972	414.78
1029.254	406.98
1032.536	399.37
1035.817	390.5
1039.098	387.38
1042.379	379.17
1045.659	374.71
1048.939	365.24
1052.219	358.5
1055.498	354.78
1058.778	346.81
1062.057	339.48
1065.335	335.57
1068.614	331.43
1071.892	328.66
1075.17	318.29
1078.447	311.66
1081.724	309.14
1085.001	308.49
1088.278	301.1
1091.554	295.38
1094.83	295.33
1098.106	291.53
1101.382	290.28
1104.657	288.91
1107.932	283.63
1111.206	285.33
1114.481	279.14
1117.755	276.1
1121.029	272.66
1124.302	273.45
1127.575	267.5
1130.848	264.72
1134.121	262.35
1137.393	260.08
1140.665	254.39
1143.937	253.24
1147.208	250.99
1150.48	250.65
1153.75	248.35
1157.021	245.45
1160.291	245.36
1163.561	242.89
1166.831	242.47
1170.101	240.5
1173.37	240.4
1176.639	241.06
1179.907	238.91
1183.176	236.07
1186.444	235.9
1189.711	235.08
1192.979	233.79
1196.246	232.4
1199.513	232.79
1202.78	231.81
1206.046	231.63
1209.312	229.26
1212.578	229.13
1215.843	231.57
1219.108	230.64
1222.373	235.24
1225.638	236.4
1228.902	239.46
1232.166	240.53
1235.43	242.21
1238.693	245.42
1241.956	246.64
1245.219	250.8
1248.482	250.9
1251.744	250.28
1255.006	250.03
1258.268	244.79
1261.529	242.98
1264.79	241.84
1268.051	240.14
1271.312	237.46
1274.572	234.91
1277.832	233.03
1281.092	228.5
1284.351	227.3
1287.61	226.92
1290.869	224.55
1294.128	222.67
1297.386	222.87
1300.644	220.44
1303.902	220.39
1307.159	220.21
1310.416	219.68
1313.673	219.15
1316.93	221.6
1320.186	221.26
1323.442	222.39
1326.697	224.72
1329.953	225.28
1333.208	225.48
1336.463	228.58
1339.717	228.93
1342.972	230.81
1346.226	233.18
1349.479	234.49
1352.733	235.36
1355.986	236.45
1359.238	235.3
1362.491	237.46
1365.743	239.9
1368.995	239.94
1372.247	238.97
1375.498	238.61
1378.749	241.04
1382	237.74
1385.251	237.79
1388.501	236.23
1391.751	236.76
1395	236.16
1398.25	234.56
1401.499	231.99
1404.748	231.92
1407.996	230.85
1411.244	229.59
1414.492	227.13
1417.74	225.26
1420.987	222.2
1424.234	221.56
1427.481	218.9
1430.728	219.25
1433.974	217.25
1437.22	215.35
1440.465	214.17
1443.711	211.49
1446.956	209.78
1450.201	208.29
1453.445	206.27
1456.689	205.33
1459.933	201.8
1463.177	199.52
1466.42	195.92
1469.663	192.91
1472.906	192.06
1476.148	188.29
1479.391	185.69
1482.633	184.71
1485.874	181.51
1489.115	179.96
1492.356	178.33
1495.597	177.7
1498.838	175.55
1502.078	174.85
1505.318	174.58
1508.557	174.43
1511.797	174.18
1515.036	173.41
1518.274	172.63
1521.513	171.62
1524.751	171.55
1527.989	170.71
1531.227	170.45
1534.464	170.68
1537.701	169.49
1540.938	169.19
1544.174	167.84
1547.41	167.36
1550.646	166.52
1553.882	166.99
1557.117	164.54
1560.352	163.84
1563.587	163.73
1566.821	162.67
1570.055	161.45
1573.289	160.39
1576.523	160
1579.756	158.42
1582.989	157.89
1586.222	157.71
1589.454	156.22
1592.686	157.73
1595.918	156.34
1599.15	155.66
1602.381	156.07
1605.612	156.05
1608.843	156.37
1612.073	156.15
1615.303	157.31
1618.533	156.67
1621.762	157.38
1624.992	158.01
1628.221	157.48
1631.449	157.68
1634.678	157.87
1637.906	158.39
1641.134	158.01
1644.361	158.23
1647.588	158.53
1650.815	157.77
1654.042	157.61
1657.269	157.84
1660.495	157.71
1663.72	157.6
1666.946	158.59
1670.171	158.62
1673.396	158.02
1676.621	158.63
1679.845	158.39
1683.069	158.32
1686.293	159.47
1689.517	160.6
1692.74	160.26
1695.963	160.53
1699.185	161.59
1702.408	161.64
1705.63	162.24
1708.852	162.85
1712.073	162.41
1715.294	162.98
1718.515	163.96
1721.736	163.31
1724.956	163.47
1728.176	163.83
1731.396	165.02
1734.616	164.89
1737.835	165.25
1741.054	164.08
1744.272	165.08
1747.491	166.46
1750.709	166.62
1753.927	166.63
1757.144	166.36
1760.361	166.63
1763.578	167.17
1766.795	166.68
1770.011	167.81
1773.227	167.51
1776.443	169.76
1779.658	169.69
1782.874	169.47
1786.089	170.03
1789.303	170.23
1792.518	172.85
1795.732	172.54
1798.945	173.31
1802.159	174.18
1805.372	174.21
1808.585	177.06
1811.797	177.04
1815.01	178.07
1818.222	179.56
1821.434	180.77
1824.645	181.79
1827.856	184.14
1831.067	185.59
1834.278	185.92
1837.488	187.14
1840.698	187.97
1843.908	186.9
1847.117	187.74
1850.326	188.16
1853.535	188.06
1856.744	190.37
1859.952	189.44
1863.16	188.09
1866.368	187.29
1869.575	187.97
1872.782	185.13
1875.989	184.94
1879.196	183.37
1882.402	182.32
1885.608	182.58
1888.814	182.36
1892.019	181.81
1895.224	181.74
1898.429	180.95
1901.634	181.23
1904.838	181.61
1908.042	183.34
1911.246	183.42
1914.449	185.09
1917.652	184.92
1920.855	184.81
1924.058	185.04
1927.26	184.32
1930.462	184.75
1933.664	186.17
1936.865	184.89
1940.066	184.66
1943.267	183.74
1946.467	182.74
1949.668	184.42
1952.868	186.43
1956.067	186.56
1959.267	186.6
1962.466	187.08
1965.665	186.25
1968.863	186.55
1972.061	189.25
1975.259	191.34
1978.457	192.61
1981.654	195.16
1984.852	194.82
1988.048	194.64
1991.245	196.2
1994.441	198.2
1997.637	199.54
2000.833	203.22
2004.028	206.61
2007.223	207.67
2010.418	208.97
2013.613	212.46
2016.807	215.08
2020.001	217.31
2023.194	220.86
2026.388	225.89
2029.581	230.36
2032.774	232.87
2035.966	237.67
2039.158	237.31
2042.35	242.77
2045.542	244.17
2048.733	248.09
2051.924	250.91
2055.115	255.65
2058.306	256.26
2061.496	258.59
2064.686	259.64
2067.875	263.12
2071.065	265.28
2074.254	264.3
2077.442	266.86
2080.631	268.47
2083.819	271.38
2087.007	271.06
2090.195	272.92
2093.382	275.71
2096.569	274.15
2099.756	278.92
2102.942	280.32
2106.128	281.8
2109.314	287.86
2112.5	287.12
2115.685	294.02
2118.87	294.2
2122.055	300.89
2125.239	303.08
2128.424	306.85
2131.608	309.07
2134.791	313.13
2137.974	313.77
2141.157	314.92
2144.34	316.14
2147.523	320.1
2150.705	317.56
2153.887	321.55
2157.068	322.35
2160.25	319.28
2163.431	320.22
2166.611	324.53
2169.792	328.8
2172.972	332.24
2176.152	334.61
2179.331	338.67
2182.511	344.07
2185.69	348.04
2188.868	354.12
2192.047	354.38
2195.225	365.56
2198.403	373.06
2201.58	379.89
2204.758	385.74
2207.935	395.64
2211.111	401.82
2214.288	406.61
2217.464	408.63
2220.64	415.68
2223.815	420.2
2226.991	437.16
2230.166	437.84
2233.34	446.35
2236.515	454
2239.689	456.89
2242.863	456.83
2246.036	469.77
2249.209	468.53
2252.382	475.41
2255.555	489.38
2258.727	491.09
2261.9	496.29
2265.071	501.12
2268.243	509.09
2271.414	513.11
2274.585	524.25
2277.756	529.33
2280.926	533
2284.096	544.43
2287.266	556.81
2290.436	559.2
2293.605	572.15
2296.774	587.25
2299.942	605.91
2303.111	612.36
2306.279	627.15
2309.447	632.89
2312.614	653.39
2315.781	671.7
2318.948	702.11
2322.115	692.7
2325.281	729.89
2328.447	715.81
2331.613	744.18
2334.779	736.41
2337.944	768.67
2341.109	774.32
2344.274	798.89
2347.438	824.01
2350.602	824.36
2353.766	847.06
2356.929	861.4
2360.092	854.21
2363.255	914.08
2366.418	912.24
2369.58	930.71
2372.742	980.26
2375.904	1007.68
2379.066	1002.61
2382.227	984.85
2385.388	1072.42
2388.548	1072.32
2391.709	1083.71
2394.869	1211.22
2398.029	1158.65
2401.188	1191.02
2404.347	1182.83
2407.506	1167.68
2410.665	1198.59
2413.823	1267.73
2416.981	1343.62
2420.139	1293.79
2423.296	1287.42
2426.453	1341.16
2429.61	1292.75
2432.767	1354.14
2435.923	1339.25
2439.079	1462.76
2442.235	1485.18
2445.391	1470.67
2448.546	1462.17
2451.701	1418.3
2454.855	1419.87
2458.009	1503.19
2461.163	1565.56
2464.317	1621.37
2467.471	1662.02
2470.624	1664.59
2473.777	1624.66
2476.929	1582.73
2480.082	1540.58
2483.234	1522.37
2486.385	1595.44
2489.537	1604.69
2492.688	1656.68
2495.839	1613.08
2498.989	1573.97
2502.14	1586.52
2505.29	1597
2508.439	1623.23
2511.589	1619.76
2514.738	1763.73
2517.887	1725.8
2521.035	1819.34
2524.183	1836.03
2527.331	1851.95
2530.479	1842.75
2533.627	1857.26
