Data from C_1_DEC_NC_4N_Splice17_12-58-15-352.txt Node
Date: Sat Mar 07 12:58:15 EST 2020
User: sa697716
Spectrometer: NQ5500242
Trigger mode: 0
Integration Time (sec): 1.450000E-1
Scans to average: 20
Nonlinearity correction enabled: false
Boxcar width: 5
Storing dark spectrum: false
XAxis mode: Wavelengths
Number of Pixels in Spectrum: 512
>>>>>Begin Spectral Data<<<<<
187.83	167.75
188.298	179.66
188.766	151.53
189.233	128.19
189.701	128.81
190.169	138.81
190.636	123.06
191.104	150.45
191.571	96.99
192.039	-240.49
192.506	-798.21
192.974	168.47
193.441	180.6
193.908	13.28
194.375	13.21
194.842	-39.82
195.31	-61.68
195.777	-306.39
196.244	33.94
196.711	47.54
197.177	48.01
197.644	47.8
198.111	48.07
198.578	48.86
199.045	49.61
199.511	50.11
199.978	50.19
200.445	50.27
200.911	50.26
201.378	50.15
201.844	49.94
202.31	49.64
202.777	49.88
203.243	49.97
203.709	49.56
204.176	49.01
204.642	48.67
205.108	48.51
205.574	48.28
206.04	47.81
206.506	47.41
206.972	47.18
207.438	46.8
207.903	46.07
208.369	45.15
208.835	44.55
209.301	44.05
209.766	42.82
210.232	41.78
210.697	40.93
211.163	40.09
211.628	39.39
212.094	38.66
212.559	37.99
213.024	37.38
213.49	36.83
213.955	36.18
214.42	35.4
214.885	34.57
215.35	33.65
215.815	32.45
216.28	30.83
216.745	28.98
217.21	27.18
217.675	25.55
218.14	24.13
218.604	22.8
219.069	21.82
219.534	20.92
219.998	20.22
220.463	19.66
220.927	19.01
221.392	18.58
221.856	18.19
222.32	17.88
222.785	17.57
223.249	17.28
223.713	17.05
224.177	16.79
224.642	16.56
225.106	16.3
225.57	16.01
226.034	15.81
226.497	15.59
226.961	15.39
227.425	15.18
227.889	14.99
228.353	14.78
228.816	14.56
229.28	14.36
229.744	14.17
230.207	13.98
230.671	13.81
231.134	13.63
231.597	13.49
232.061	13.31
232.524	13.14
232.987	12.98
233.45	12.84
233.914	12.7
234.377	12.55
234.84	12.39
235.303	12.27
235.766	12.15
236.229	12.01
236.691	11.87
237.154	11.76
237.617	11.65
238.08	11.53
238.542	11.39
239.005	11.28
239.468	11.16
239.93	11.05
240.393	10.94
240.855	10.81
241.317	10.71
241.78	10.6
242.242	10.49
242.704	10.39
243.166	10.28
243.629	10.2
244.091	10.09
244.553	9.99
245.015	9.91
245.477	9.81
245.939	9.73
246.4	9.64
246.862	9.56
247.324	9.49
247.786	9.4
248.247	9.31
248.709	9.22
249.17	9.14
249.632	9.08
250.093	9.01
250.555	8.94
251.016	8.87
251.477	8.8
251.939	8.74
252.4	8.68
252.861	8.62
253.322	8.57
253.783	8.53
254.244	8.47
254.705	8.41
255.166	8.35
255.627	8.29
256.088	8.25
256.549	8.2
257.009	8.14
257.47	8.08
257.931	8.02
258.391	7.96
258.852	7.9
259.312	7.84
259.773	7.8
260.233	7.76
260.694	7.72
261.154	7.67
261.614	7.62
262.074	7.57
262.534	7.53
262.994	7.5
263.455	7.47
263.915	7.44
264.374	7.41
264.834	7.39
265.294	7.35
265.754	7.32
266.214	7.3
266.673	7.28
267.133	7.27
267.593	7.25
268.052	7.23
268.512	7.22
268.971	7.21
269.431	7.18
269.89	7.16
270.349	7.15
270.809	7.13
271.268	7.11
271.727	7.09
272.186	7.07
272.645	7.06
273.104	7.04
273.563	7.01
274.022	7
274.481	6.98
274.94	6.97
275.399	6.94
275.857	6.93
276.316	6.91
276.775	6.89
277.233	6.87
277.692	6.85
278.15	6.83
278.609	6.82
279.067	6.8
279.525	6.78
279.984	6.77
280.442	6.75
280.9	6.73
281.358	6.72
281.816	6.71
282.274	6.69
282.732	6.67
283.19	6.64
283.648	6.62
284.106	6.6
284.564	6.57
285.021	6.55
285.479	6.53
285.937	6.5
286.394	6.49
286.852	6.46
287.309	6.44
287.767	6.41
288.224	6.38
288.682	6.35
289.139	6.32
289.596	6.29
290.053	6.26
290.511	6.23
290.968	6.21
291.425	6.17
291.882	6.15
292.339	6.13
292.796	6.1
293.252	6.09
293.709	6.08
294.166	6.07
294.623	6.05
295.079	6.03
295.536	6.02
295.992	6.01
296.449	6
296.905	5.99
297.362	5.97
297.818	5.96
298.274	5.95
298.731	5.93
299.187	5.9
299.643	5.88
300.099	5.87
300.555	5.85
301.011	5.84
301.467	5.83
301.923	5.81
302.379	5.8
302.835	5.79
303.291	5.77
303.746	5.76
304.202	5.75
304.658	5.75
305.113	5.74
305.569	5.72
306.024	5.71
306.479	5.69
306.935	5.67
307.39	5.67
307.845	5.65
308.301	5.65
308.756	5.64
309.211	5.63
309.666	5.63
310.121	5.62
310.576	5.62
311.031	5.61
311.486	5.61
311.94	5.61
312.395	5.61
312.85	5.6
313.305	5.58
313.759	5.57
314.214	5.56
314.668	5.54
315.123	5.53
315.577	5.51
316.032	5.51
316.486	5.49
316.94	5.47
317.394	5.45
317.849	5.43
318.303	5.42
318.757	5.4
319.211	5.38
319.665	5.36
320.119	5.34
320.572	5.34
321.026	5.32
321.48	5.31
321.934	5.29
322.387	5.28
322.841	5.28
323.295	5.27
323.748	5.26
324.202	5.25
324.655	5.24
325.108	5.24
325.562	5.22
326.015	5.22
326.468	5.21
326.921	5.21
327.374	5.2
327.827	5.19
328.28	5.19
328.733	5.19
329.186	5.18
329.639	5.18
330.092	5.18
330.545	5.17
330.997	5.16
331.45	5.16
331.903	5.15
332.355	5.16
332.808	5.15
333.26	5.14
333.713	5.13
334.165	5.13
334.617	5.13
335.069	5.12
335.522	5.12
335.974	5.12
336.426	5.11
336.878	5.11
337.33	5.1
337.782	5.1
338.234	5.1
338.686	5.1
339.137	5.11
339.589	5.09
340.041	5.09
340.493	5.06
340.944	5.05
341.396	5.03
341.847	5.02
342.299	5
342.75	4.99
343.201	4.96
343.653	4.94
344.104	4.91
344.555	4.9
345.006	4.88
345.457	4.88
345.908	4.87
346.359	4.86
346.81	4.85
347.261	4.84
347.712	4.84
348.163	4.84
348.613	4.83
349.064	4.83
349.515	4.83
349.965	4.82
350.416	4.81
350.866	4.81
351.317	4.8
351.767	4.81
352.217	4.81
352.668	4.81
353.118	4.81
353.568	4.81
354.018	4.82
354.468	4.82
354.918	4.83
355.368	4.84
355.818	4.84
356.268	4.84
356.718	4.84
357.168	4.83
357.617	4.82
358.067	4.81
358.517	4.82
358.966	4.81
359.416	4.82
359.865	4.82
360.315	4.82
360.764	4.81
361.213	4.79
361.663	4.78
362.112	4.79
362.561	4.79
363.01	4.8
363.459	4.79
363.908	4.78
364.357	4.77
364.806	4.77
365.255	4.76
365.703	4.77
366.152	4.78
366.601	4.78
367.05	4.78
367.498	4.78
367.947	4.78
368.395	4.78
368.844	4.77
369.292	4.77
369.74	4.77
370.189	4.76
370.637	4.76
371.085	4.76
371.533	4.76
371.981	4.77
372.429	4.77
372.877	4.77
373.325	4.77
373.773	4.77
374.221	4.77
374.669	4.77
375.116	4.77
375.564	4.77
376.012	4.78
376.459	4.77
376.907	4.79
377.354	4.79
377.801	4.8
378.249	4.81
378.696	4.82
379.143	4.83
379.591	4.84
380.038	4.86
380.485	4.87
380.932	4.88
381.379	4.9
381.826	4.91
382.273	4.91
382.72	4.91
383.166	4.92
383.613	4.93
384.06	4.94
384.506	4.95
384.953	4.97
385.4	4.98
385.846	5
386.292	5.02
386.739	5.04
387.185	5.07
387.631	5.1
388.078	5.13
388.524	5.16
388.97	5.19
389.416	5.23
389.862	5.25
390.308	5.3
390.754	5.33
391.2	5.36
391.645	5.4
392.091	5.44
392.537	5.48
392.983	5.52
393.428	5.57
393.874	5.6
394.319	5.64
394.765	5.68
395.21	5.71
395.655	5.74
396.101	5.78
396.546	5.82
396.991	5.87
397.436	5.9
397.881	5.95
398.326	5.98
398.771	6.03
399.216	6.06
399.661	6.1
400.106	6.14
400.551	6.17
400.995	6.18
401.44	6.19
401.885	6.21
402.329	6.24
402.774	6.26
403.218	6.29
403.663	6.32
404.107	6.33
404.551	6.35
404.995	6.35
405.44	6.36
405.884	6.38
406.328	6.41
406.772	6.41
407.216	6.42
407.66	6.44
408.104	6.43
408.547	6.43
408.991	6.45
409.435	6.46
409.879	6.47
410.322	6.5
410.766	6.52
411.209	6.54
411.653	6.57
412.096	6.58
412.54	6.59
412.983	6.6
413.426	6.63
413.869	6.64
414.312	6.67
414.756	6.68
415.199	6.7
415.642	6.7
416.085	6.7
416.527	6.69
416.97	6.69
417.413	6.67
417.856	6.68
418.298	6.67
418.741	6.67
419.184	6.66
419.626	6.65
420.069	6.65
420.511	6.66
420.953	6.66
421.396	6.67
421.838	6.68
422.28	6.69
422.722	6.71
423.164	6.7
423.606	6.69
424.048	6.68
424.49	6.68
424.932	6.67
425.374	6.63
425.816	6.6
426.258	6.59
426.699	6.57
427.141	6.57
427.582	6.55
428.024	6.56
428.465	6.56
428.907	6.57
429.348	6.55
429.789	6.55
430.231	6.57
430.672	6.59
431.113	6.62
431.554	6.63
431.995	6.64
432.436	6.66
432.877	6.67
433.318	6.68
433.759	6.7
434.2	6.74
434.64	6.76
435.081	6.79
435.522	6.81
435.962	6.82
436.403	6.86
436.843	6.87
437.284	6.86
437.724	6.86
438.164	6.87
438.604	6.88
439.045	6.9
439.485	6.93
439.925	6.93
440.365	6.94
440.805	6.95
441.245	6.97
441.685	7.01
442.125	7.05
442.564	7.1
443.004	7.15
443.444	7.19
443.883	7.23
444.323	7.26
444.762	7.29
445.202	7.32
445.641	7.37
446.081	7.4
446.52	7.43
446.959	7.47
447.398	7.51
447.837	7.54
448.276	7.56
448.716	7.6
449.154	7.66
449.593	7.7
450.032	7.72
450.471	7.73
450.91	7.75
451.349	7.78
451.787	7.79
452.226	7.8
452.664	7.82
453.103	7.83
453.541	7.84
453.98	7.84
454.418	7.84
454.856	7.86
455.295	7.87
455.733	7.87
456.171	7.86
456.609	7.88
457.047	7.86
457.485	7.85
457.923	7.86
458.361	7.87
458.798	7.86
459.236	7.86
459.674	7.85
460.111	7.85
460.549	7.87
460.987	7.88
461.424	7.89
461.862	7.91
462.299	7.92
462.736	7.92
463.173	7.92
463.611	7.92
464.048	7.93
464.485	7.95
464.922	7.95
465.359	7.95
465.796	7.97
466.233	7.97
466.67	7.98
467.106	7.99
467.543	7.98
467.98	7.98
468.416	7.98
468.853	7.99
469.29	7.98
469.726	7.99
470.162	7.99
470.599	7.98
471.035	7.97
471.471	7.96
471.907	7.96
472.344	7.98
472.78	7.98
473.216	7.99
473.652	8
474.088	7.99
474.523	8.01
474.959	8.01
475.395	8.01
475.831	8.03
476.266	8.04
476.702	8.04
477.138	8.05
477.573	8.07
478.008	8.08
478.444	8.07
478.879	8.1
479.314	8.1
479.75	8.12
480.185	8.12
480.62	8.12
481.055	8.12
481.49	8.13
481.925	8.13
482.36	8.14
482.795	8.15
483.229	8.16
483.664	8.18
484.099	8.19
484.534	8.19
484.968	8.22
485.403	8.24
485.837	8.28
486.271	8.31
486.706	8.35
487.14	8.38
487.574	8.42
488.009	8.47
488.443	8.52
488.877	8.58
489.311	8.64
489.745	8.7
490.179	8.78
490.613	8.85
491.046	8.92
491.48	8.99
491.914	9.07
492.348	9.14
492.781	9.23
493.215	9.32
493.648	9.41
494.082	9.51
494.515	9.61
494.948	9.7
495.382	9.81
495.815	9.92
496.248	10.05
496.681	10.16
497.114	10.29
497.547	10.42
497.98	10.56
498.413	10.7
498.846	10.84
499.279	11
499.711	11.16
500.144	11.34
500.577	11.52
501.009	11.7
501.442	11.88
501.874	12.09
502.306	12.28
502.739	12.51
503.171	12.73
503.603	12.96
504.036	13.2
504.468	13.44
504.9	13.68
505.332	13.93
505.764	14.19
506.196	14.44
506.627	14.72
507.059	15.01
507.491	15.28
507.923	15.58
508.354	15.89
508.786	16.21
509.217	16.54
509.649	16.87
510.08	17.2
510.512	17.54
510.943	17.89
511.374	18.24
511.805	18.59
512.237	18.94
512.668	19.3
513.099	19.66
513.53	20.02
513.961	20.38
514.391	20.76
514.822	21.15
515.253	21.52
515.684	21.89
516.114	22.28
516.545	22.65
516.975	23.03
517.406	23.41
517.836	23.77
518.267	24.14
518.697	24.5
519.127	24.85
519.558	25.2
519.988	25.57
520.418	25.93
520.848	26.25
521.278	26.58
521.708	27.09
522.138	27.41
522.567	27.73
522.997	28.02
523.427	28.33
523.857	28.61
524.286	28.88
524.716	29.14
525.145	29.39
525.575	29.65
526.004	29.92
526.433	29.96
526.863	30.18
527.292	30.4
527.721	30.61
528.15	30.81
528.579	31
529.008	31.19
529.437	31.36
529.866	31.53
530.295	31.68
530.724	31.84
531.152	32
531.581	32.16
532.01	32.28
532.438	32.4
532.867	32.54
533.295	32.66
533.723	32.78
534.152	32.89
534.58	33
535.008	33.09
535.436	33.17
535.865	33.25
536.293	33.32
536.721	33.4
537.149	33.49
537.576	33.55
538.004	33.63
538.432	33.68
538.86	33.74
539.287	33.78
539.715	33.87
540.143	33.92
540.57	33.98
540.998	34.03
541.425	34.09
541.852	34.13
542.28	34.18
542.707	34.22
543.134	34.27
543.561	34.32
543.988	34.38
544.415	34.38
544.842	34.41
545.269	34.44
545.696	34.48
546.123	34.49
546.549	34.54
546.976	34.57
547.403	34.59
547.829	34.62
548.256	34.63
548.682	34.62
549.108	34.66
549.535	34.68
549.961	34.69
550.387	34.69
550.813	34.71
551.24	34.7
551.666	34.69
552.092	34.69
552.518	34.69
552.943	34.69
553.369	34.68
553.795	34.65
554.221	34.64
554.646	34.59
555.072	34.57
555.498	34.53
555.923	34.48
556.349	34.44
556.774	34.39
557.199	34.31
557.625	34.25
558.05	34.19
558.475	34.13
558.9	34.05
559.325	33.99
559.75	33.92
560.175	33.84
560.6	33.73
561.025	33.65
561.449	33.54
561.874	33.42
562.299	33.32
562.723	33.2
563.148	33.08
563.572	32.94
563.997	32.8
564.421	32.65
564.846	32.52
565.27	32.39
565.694	32.25
566.118	32.13
566.542	32
566.966	31.85
567.39	31.71
567.814	31.57
568.238	31.43
568.662	31.3
569.086	31.18
569.509	31.04
569.933	30.9
570.357	30.76
570.78	30.61
571.204	30.47
571.627	30.33
572.05	30.21
572.474	30.09
572.897	29.95
573.32	29.81
573.743	29.65
574.166	29.53
574.589	29.4
575.012	29.26
575.435	29.14
575.858	29.02
576.281	28.91
576.704	28.77
577.126	28.66
577.549	28.55
577.972	28.45
578.394	28.33
578.817	28.24
579.239	28.14
579.661	28.04
580.084	27.94
580.506	27.85
580.928	27.75
581.35	27.66
581.772	27.54
582.194	27.47
582.616	27.4
583.038	27.32
583.46	27.21
583.882	27.11
584.303	27.02
584.725	26.93
585.147	26.85
585.568	26.77
585.99	26.68
586.411	26.61
586.833	26.51
587.254	26.42
587.675	26.35
588.096	26.29
588.518	26.22
588.939	26.16
589.36	26.09
589.781	26.04
590.202	25.99
590.623	25.94
591.043	25.89
591.464	25.85
591.885	25.8
592.305	25.76
592.726	25.72
593.147	25.68
593.567	25.64
593.987	25.6
594.408	25.55
594.828	25.5
595.248	25.48
595.669	25.44
596.089	25.38
596.509	25.34
596.929	25.3
597.349	25.26
597.769	25.22
598.189	25.18
598.608	25.14
599.028	25.09
599.448	25.06
599.867	25
600.287	24.96
600.706	24.93
601.126	24.87
601.545	24.81
601.965	24.75
602.384	24.69
602.803	24.64
603.222	24.59
603.641	24.53
604.061	24.47
604.48	24.39
604.898	24.31
605.317	24.23
605.736	24.15
606.155	24.08
606.574	24
606.992	23.9
607.411	23.8
607.829	23.67
608.248	23.57
608.666	23.46
609.085	23.37
609.503	23.29
609.921	23.19
610.339	23.09
610.758	22.98
611.176	22.88
611.594	22.8
612.012	22.7
612.43	22.63
612.847	22.54
613.265	22.45
613.683	22.35
614.101	22.26
614.518	22.16
614.936	22.07
615.353	21.97
615.771	21.89
616.188	21.79
616.606	21.71
617.023	21.64
617.44	21.59
617.857	21.51
618.274	21.43
618.691	21.36
619.108	21.31
619.525	21.24
619.942	21.21
620.359	21.15
620.776	21.11
621.192	21.06
621.609	21.02
622.026	20.97
622.442	20.94
622.859	20.91
623.275	20.88
623.691	20.85
624.108	20.82
624.524	20.8
624.94	20.79
625.356	20.78
625.772	20.77
626.188	20.76
626.604	20.74
627.02	20.73
627.436	20.73
627.852	20.71
628.268	20.7
628.683	20.68
629.099	20.67
629.514	20.65
629.93	20.62
630.345	20.58
630.761	20.52
631.176	20.48
631.591	20.43
632.007	20.37
632.422	20.31
632.837	20.24
633.252	20.15
633.667	20.06
634.082	19.94
634.497	19.84
634.911	19.74
635.326	19.62
635.741	19.51
636.155	19.37
636.57	19.22
636.984	19.06
637.399	18.9
637.813	18.75
638.228	18.58
638.642	18.41
639.056	18.22
639.47	18.05
639.884	17.87
640.298	17.65
640.712	17.47
641.126	17.28
641.54	17.09
641.954	16.9
642.368	16.69
642.781	16.51
643.195	16.33
643.609	16.14
644.022	15.94
644.436	15.76
644.849	15.6
645.262	15.44
645.676	15.28
646.089	15.14
646.502	15.01
646.915	14.89
647.328	14.77
647.741	14.65
648.154	14.55
648.567	14.45
648.98	14.35
649.393	14.27
649.805	14.2
650.218	14.13
650.631	14.05
651.043	13.98
651.456	13.89
651.868	13.81
652.28	13.75
652.693	13.69
653.105	13.61
653.517	13.54
653.929	13.45
654.341	13.36
654.753	13.24
655.165	13.13
655.577	13.02
655.989	12.9
656.401	12.76
656.813	12.63
657.224	12.48
657.636	12.34
658.047	12.19
658.459	12.03
658.87	11.87
659.282	11.72
659.693	11.56
660.104	11.4
660.515	11.24
660.926	11.09
661.338	10.92
661.749	10.76
662.159	10.61
662.57	10.45
662.981	10.3
663.392	10.14
663.803	10
664.213	9.86
664.624	9.73
665.035	9.6
665.445	9.49
665.855	9.38
666.266	9.27
666.676	9.18
667.086	9.08
667.497	9
667.907	8.93
668.317	8.85
668.727	8.79
669.137	8.74
669.547	8.69
669.956	8.64
670.366	8.6
670.776	8.56
671.186	8.52
671.595	8.49
672.005	8.46
672.414	8.45
672.824	8.44
673.233	8.43
673.642	8.42
674.052	8.42
674.461	8.42
674.87	8.43
675.279	8.45
675.688	8.48
676.097	8.51
676.506	8.56
676.915	8.6
677.323	8.67
677.732	8.72
678.141	8.79
678.549	8.87
678.958	8.96
679.366	9.07
679.775	9.18
680.183	9.32
680.592	9.47
681	9.65
681.408	9.84
681.816	10.04
682.224	10.3
682.632	10.57
683.04	10.86
683.448	11.18
683.856	11.53
684.264	11.92
684.671	12.32
685.079	12.77
685.487	13.24
685.894	13.75
686.302	14.3
686.709	14.86
687.116	15.45
687.524	16.08
687.931	16.74
688.338	17.41
688.745	18.09
689.152	18.8
689.559	19.54
689.966	20.28
690.373	21.05
690.78	21.79
691.187	22.55
691.593	23.31
692	24.06
692.407	24.82
692.813	25.6
693.22	26.33
693.626	27.08
694.032	27.81
694.439	28.52
694.845	29.21
695.251	29.91
695.657	30.58
696.063	31.25
696.469	31.91
696.875	32.55
697.281	33.16
697.687	33.77
698.093	34.36
698.498	34.92
698.904	35.5
699.31	36.04
699.715	36.57
700.12	37.1
700.526	37.59
700.931	38.08
701.337	38.55
701.742	38.99
702.147	39.43
702.552	39.86
702.957	40.26
703.362	40.66
703.767	41.03
704.172	41.4
704.577	41.75
704.981	42.11
705.386	42.44
705.791	42.77
706.195	43.12
706.6	43.46
707.004	43.76
707.408	44.08
707.813	44.39
708.217	44.69
708.621	45
709.025	45.26
709.43	45.52
709.834	45.8
710.237	46.08
710.641	46.32
711.045	46.55
711.449	46.8
711.853	47.04
712.256	47.27
712.66	47.49
713.064	47.68
713.467	47.92
713.87	48.13
714.274	48.33
714.677	48.5
715.08	48.71
715.484	48.91
715.887	49.12
716.29	49.29
716.693	49.46
717.096	49.61
717.499	49.77
717.901	49.95
718.304	50.11
718.707	50.28
719.109	50.46
719.512	50.57
719.915	50.73
720.317	50.82
720.719	50.94
721.122	51.07
721.524	51.22
721.926	51.37
722.328	51.5
722.731	51.6
723.133	51.71
723.535	51.79
723.937	51.92
724.338	52.01
724.74	52.15
725.142	52.36
725.544	52.46
725.945	52.56
726.347	52.6
726.748	52.68
727.15	52.74
727.551	52.83
727.952	52.91
728.354	52.97
728.755	53.03
729.156	53.08
729.557	53.03
729.958	53.06
730.359	53.1
730.76	53.18
731.161	53.22
731.562	53.31
731.962	53.33
732.363	53.39
732.763	53.44
733.164	53.47
733.564	53.51
733.965	53.56
734.365	53.61
734.766	53.66
735.166	53.68
735.566	53.71
735.966	53.72
736.366	53.76
736.766	53.77
737.166	53.8
737.566	53.84
737.966	53.85
738.365	53.91
738.765	53.95
739.165	53.97
739.564	54.01
739.964	54.04
740.363	54.05
740.763	54.1
741.162	54.12
741.561	54.12
741.96	54.12
742.36	54.15
742.759	54.15
743.158	54.15
743.557	54.15
743.955	54.14
744.354	54.13
744.753	54.18
745.152	54.19
745.55	54.19
745.949	54.22
746.348	54.26
746.746	54.25
747.144	54.27
747.543	54.27
747.941	54.29
748.339	54.31
748.737	54.32
749.136	54.3
749.534	54.27
749.932	54.29
750.33	54.27
750.727	54.25
751.125	54.28
751.523	54.27
751.921	54.32
752.318	54.32
752.716	54.34
753.113	54.34
753.511	54.38
753.908	54.43
754.305	54.48
754.703	54.5
755.1	54.53
755.497	54.53
755.894	54.55
756.291	54.53
756.688	54.49
757.085	54.49
757.482	54.53
757.878	54.54
758.275	54.52
758.672	54.49
759.068	54.54
759.465	54.54
759.861	54.54
760.258	54.53
760.654	54.56
761.05	54.62
761.447	54.64
761.843	54.62
762.239	54.6
762.635	54.58
763.031	54.58
763.427	54.52
763.822	54.51
764.218	54.52
764.614	54.52
765.01	54.5
765.405	54.48
765.801	54.43
766.196	54.43
766.592	54.39
766.987	54.42
767.382	54.41
767.778	54.42
768.173	54.44
768.568	54.43
768.963	54.41
769.358	54.42
769.753	54.4
770.148	54.43
770.542	54.43
770.937	54.46
771.332	54.43
771.726	54.42
772.121	54.43
772.515	54.43
772.91	54.45
773.304	54.49
773.699	54.5
774.093	54.52
774.487	54.49
774.881	54.52
775.275	54.51
775.669	54.51
776.063	54.51
776.457	54.5
776.851	54.5
777.245	54.46
777.638	54.42
778.032	54.41
778.425	54.41
778.819	54.44
779.212	54.46
779.606	54.49
779.999	54.47
780.392	54.53
780.786	54.51
781.179	54.51
781.572	54.55
781.965	54.58
782.358	54.6
782.751	54.59
783.143	54.58
783.536	54.56
783.929	54.55
784.322	54.58
784.714	54.57
785.107	54.58
785.499	54.55
785.891	54.53
786.284	54.52
786.676	54.49
787.068	54.48
787.46	54.48
787.852	54.49
788.245	54.46
788.636	54.43
789.028	54.43
789.42	54.43
789.812	54.45
790.204	54.47
790.595	54.47
790.987	54.5
791.378	54.53
791.77	54.54
792.161	54.51
792.553	54.55
792.944	54.55
793.335	54.58
793.726	54.6
794.117	54.56
794.508	54.54
794.899	54.54
795.29	54.52
795.681	54.49
796.072	54.5
796.463	54.52
796.853	54.51
797.244	54.51
797.634	54.45
798.025	54.48
798.415	54.51
798.806	54.5
799.196	54.5
799.586	54.51
799.976	54.52
800.366	54.52
800.756	54.52
801.146	54.53
801.536	54.55
801.926	54.55
802.316	54.55
802.706	54.56
803.095	54.58
803.485	54.56
803.874	54.56
804.264	54.55
804.653	54.56
805.043	54.53
805.432	54.53
805.821	54.55
806.21	54.54
806.599	54.55
806.988	54.55
807.377	54.54
807.766	54.58
808.155	54.56
808.544	54.58
808.933	54.58
809.321	54.6
809.71	54.6
810.098	54.59
810.487	54.57
810.875	54.57
811.264	54.54
811.652	54.58
812.04	54.57
812.428	54.6
812.816	54.6
813.204	54.57
813.592	54.57
813.98	54.59
814.368	54.6
814.756	54.62
815.144	54.62
815.531	54.65
815.919	54.64
816.306	54.63
816.694	54.62
817.081	54.63
817.469	54.66
817.856	54.65
818.243	54.62
818.63	54.61
819.017	54.6
819.404	54.56
819.791	54.55
820.178	54.53
820.565	54.51
820.952	54.52
821.339	54.51
821.725	54.47
822.112	54.5
822.498	54.54
822.885	54.55
823.271	54.56
823.657	54.55
824.044	54.55
824.43	54.59
824.816	54.59
825.202	54.59
825.588	54.59
825.974	54.62
826.36	54.57
826.746	54.54
827.132	54.55
827.517	54.57
827.903	54.6
828.289	54.62
828.674	54.59
829.06	54.59
829.445	54.59
829.83	54.58
830.216	54.56
830.601	54.59
830.986	54.61
831.371	54.58
831.756	54.6
832.141	54.6
832.526	54.61
832.911	54.6
833.295	54.62
833.68	54.63
834.065	54.66
834.449	54.67
834.834	54.68
835.218	54.69
835.603	54.7
835.987	54.67
836.371	54.67
836.755	54.64
837.139	54.65
837.524	54.64
837.908	54.66
838.291	54.64
838.675	54.64
839.059	54.65
839.443	54.66
839.827	54.66
840.21	54.66
840.594	54.65
840.977	54.65
841.361	54.66
841.744	54.63
842.127	54.6
842.511	54.61
842.894	54.62
843.277	54.62
843.66	54.57
844.043	54.58
844.426	54.59
844.809	54.61
845.191	54.65
845.574	54.64
845.957	54.67
846.339	54.69
846.722	54.67
847.104	54.68
847.487	54.66
847.869	54.68
848.252	54.69
848.634	54.7
849.016	54.7
849.398	54.71
849.78	54.7
850.162	54.7
850.544	54.72
850.926	54.74
851.307	54.74
851.689	54.79
852.071	54.8
852.452	54.81
852.834	54.84
853.215	54.82
853.597	54.83
853.978	54.84
854.359	54.85
854.741	54.82
855.122	54.83
855.503	54.8
855.884	54.76
856.265	54.76
856.646	54.74
857.026	54.73
857.407	54.76
857.788	54.72
858.169	54.73
858.549	54.71
858.93	54.73
859.31	54.75
859.69	54.79
860.071	54.83
860.451	54.83
860.831	54.83
861.211	54.8
861.591	54.8
861.971	54.8
862.351	54.8
862.731	54.81
863.111	54.8
863.491	54.75
863.87	54.74
864.25	54.7
864.629	54.72
865.009	54.72
865.388	54.74
865.768	54.74
866.147	54.75
866.526	54.75
866.905	54.74
867.284	54.73
867.663	54.76
868.042	54.77
868.421	54.79
868.8	54.78
869.179	54.79
869.558	54.79
869.936	54.81
870.315	54.83
870.693	54.83
871.072	54.88
871.45	54.94
871.828	54.98
872.207	55
872.585	54.97
872.963	55
873.341	55
873.719	55.01
874.097	55
874.475	54.98
874.853	54.98
875.23	54.99
875.608	54.95
875.986	54.96
876.363	54.95
876.741	54.99
877.118	54.99
877.495	54.98
877.873	54.98
878.25	55.01
878.627	55.04
879.004	55.04
879.381	55.03
879.758	55
880.135	54.98
880.512	54.95
880.889	54.95
881.265	54.92
881.642	54.96
882.019	54.95
882.395	54.93
882.772	54.9
883.148	54.9
883.524	54.88
883.901	54.88
884.277	54.83
884.653	54.83
885.029	54.79
885.405	54.79
885.781	54.78
886.157	54.76
886.532	54.77
886.908	54.76
887.284	54.77
887.659	54.76
888.035	54.76
888.411	54.79
888.786	54.81
889.161	54.84
889.537	54.86
889.912	54.84
890.287	54.85
890.662	54.83
891.037	54.84
891.412	54.82
891.787	54.8
892.162	54.81
892.536	54.8
892.911	54.78
893.286	54.77
893.66	54.78
894.035	54.77
894.409	54.76
894.784	54.77
895.158	54.78
895.532	54.79
895.906	54.8
896.281	54.79
896.655	54.81
897.029	54.83
897.402	54.8
897.776	54.81
898.15	54.85
898.524	54.89
898.898	54.86
899.271	54.87
899.645	54.89
900.018	54.92
900.392	54.95
900.765	54.96
901.138	54.97
901.511	55
901.884	55
902.258	55
902.631	54.99
903.003	55.04
903.376	55.04
903.749	55.03
904.122	55.03
904.495	55.05
904.867	55.05
905.24	55.08
905.612	55.1
905.985	55.09
906.357	55.07
906.729	55.07
907.102	55.03
907.474	55.01
907.846	55.02
908.218	54.99
908.59	55.01
908.962	55.01
909.334	54.98
909.705	54.94
910.077	54.95
910.449	54.96
910.82	54.95
911.192	54.95
911.563	54.98
911.935	54.95
912.306	55
912.677	55
913.048	54.99
913.419	54.95
913.79	54.96
914.161	54.96
914.532	54.94
914.903	54.94
915.274	54.93
915.645	54.92
916.015	54.96
916.386	54.92
916.756	54.9
917.127	54.9
917.497	54.94
917.868	54.96
918.238	54.93
918.608	54.97
918.978	54.99
919.348	55.02
919.718	55.03
920.088	55.03
920.458	55.05
920.828	55.02
921.198	55.05
921.567	55.07
921.937	55.08
922.306	55.09
922.676	55.08
923.045	55.04
923.415	55.01
923.784	54.98
924.153	55
924.522	54.99
924.891	55.01
925.26	55
925.629	55
925.998	55
926.367	55.01
926.736	54.99
927.104	55.03
927.473	55.02
927.842	54.99
928.21	54.96
928.578	54.94
928.947	54.93
929.315	54.89
929.683	54.88
930.051	54.81
930.42	54.79
930.788	54.76
931.156	54.73
931.523	54.75
931.891	54.81
932.259	54.82
932.627	54.82
932.994	54.82
933.362	54.83
933.729	54.8
934.097	54.84
934.464	54.87
934.831	54.9
935.199	54.92
935.566	54.92
935.933	54.88
936.3	54.88
936.667	54.88
937.034	54.92
937.401	54.89
937.767	54.9
938.134	54.92
938.501	54.88
938.867	54.9
939.234	54.85
939.6	54.82
939.967	54.84
940.333	54.79
940.699	54.79
941.065	54.67
941.431	54.66
941.798	54.64
942.163	54.57
942.529	54.6
942.895	54.57
943.261	54.52
943.627	54.51
943.992	54.49
944.358	54.49
944.723	54.51
945.089	54.5
945.454	54.52
945.82	54.46
946.185	54.48
946.55	54.36
946.915	54.38
947.28	54.4
947.645	54.44
948.01	54.39
948.375	54.34
948.74	54.27
949.104	54.31
949.469	54.26
949.834	54.25
950.198	54.24
950.562	54.23
950.927	54.2
951.291	54.17
951.655	54.09
952.02	54.09
952.384	54.1
952.748	54.09
953.112	54.04
953.476	54
953.839	53.94
954.203	53.91
954.567	53.91
954.931	53.85
955.294	53.81
955.658	53.84
956.021	53.8
956.385	53.78
956.748	53.74
957.111	53.7
957.474	53.76
957.837	53.77
958.2	53.76
958.563	53.74
958.926	53.72
959.289	53.73
959.652	53.7
960.015	53.68
960.377	53.69
960.74	53.76
961.102	53.81
961.465	53.83
961.827	53.87
962.189	53.89
962.552	53.88
962.914	53.96
963.276	54
963.638	54
964	53.97
964.362	53.97
964.724	53.88
965.085	53.83
965.447	53.75
965.809	53.68
966.17	53.68
966.532	53.7
966.893	53.7
967.255	53.71
967.616	53.7
967.977	53.78
968.338	53.78
968.699	53.81
969.061	53.83
969.421	53.88
969.782	53.93
970.143	53.96
970.504	54
970.865	54.01
971.225	53.96
971.586	53.98
971.946	53.91
972.307	53.87
972.667	53.9
973.027	53.94
973.388	53.93
973.748	53.92
974.108	53.94
974.468	53.91
974.828	53.97
975.188	53.99
975.548	53.98
975.907	54.01
976.267	54.06
976.627	54
976.986	53.92
977.346	53.85
977.705	53.89
978.064	53.82
978.424	53.77
978.783	53.62
979.142	53.56
979.501	53.56
979.86	53.59
980.219	53.6
980.578	53.69
980.937	53.77
981.296	53.77
981.654	53.71
982.013	53.72
982.371	53.72
982.73	53.76
983.088	53.77
983.447	53.74
983.805	53.73
984.163	53.66
984.521	53.54
984.879	53.46
985.237	53.47
985.595	53.47
985.953	53.46
986.311	53.46
986.669	53.41
987.026	53.42
987.384	53.47
987.741	53.46
988.099	53.53
988.456	53.51
988.814	53.6
989.171	53.61
989.528	53.6
989.885	53.56
990.242	53.52
990.599	53.65
990.956	53.62
991.313	53.62
991.67	53.66
992.027	53.72
992.383	53.84
992.74	53.91
993.096	53.9
993.453	53.93
993.809	53.98
994.165	54.07
994.522	54.11
994.878	54.27
995.234	54.26
995.59	54.25
995.946	54.2
996.302	54.19
996.658	54.22
997.013	54.2
997.369	54.18
997.725	54.23
998.08	54.22
998.436	54.11
998.791	54.15
999.147	54.15
999.502	54.18
999.857	54.18
1000.212	54.17
1000.567	54.06
1000.922	54.05
1001.277	54.07
1001.632	53.93
1001.987	54
1002.342	53.96
1002.696	53.87
1003.051	54.02
1003.406	54.12
1003.76	54.22
1004.114	54.18
1004.469	54.18
1004.823	54.47
1005.177	54.43
1005.531	54.62
1005.885	54.62
1006.239	54.73
1006.593	54.85
1006.947	54.71
1007.301	54.53
1007.655	54.39
1008.008	54.54
1008.362	54.63
1008.715	54.46
1009.069	54.58
1009.422	54.61
1009.776	54.56
1010.129	54.44
1010.482	54.33
1010.835	54.34
1011.188	54.33
1011.541	54.42
1011.894	54.45
1012.247	54.45
1012.6	54.58
1012.952	54.38
1013.305	54.35
1013.657	54.43
1014.01	54.51
1014.362	54.59
1014.715	54.74
1015.067	54.86
1015.419	54.92
1015.771	54.65
1016.123	54.78
1016.475	54.58
1016.827	54.82
1017.179	54.96
1017.531	54.86
1017.883	54.98
1018.234	55.04
1018.586	55.02
1018.938	55.33
1019.289	55.38
1019.64	55.68
1019.992	55.43
1020.343	55.6
1020.694	55.68
1021.045	55.46
1021.396	55.58
1021.747	55.7
1022.098	55.66
1022.449	55.42
1022.8	55.12
1023.151	55.02
1023.501	54.95
1023.852	55.15
1024.202	55.24
1024.553	55.05
1024.903	55.42
1025.253	55.55
1025.604	55.33
1025.954	55.16
1026.304	55.39
1026.654	55.62
1027.004	55.58
1027.354	55.59
1027.703	55.54
1028.053	55.32
1028.403	55.51
1028.753	55.23
1029.102	55.04
1029.452	55.08
1029.801	55.17
1030.15	55.07
1030.499	54.68
897.758	1202.54
901.051	1209.81
904.343	1207.34
907.636	1231.75
910.928	1197.88
914.22	1199.06
917.511	1181.84
920.803	1131
924.094	1123.45
927.384	1095.73
930.675	1053.5
933.965	1046.43
937.255	983.11
940.544	943.7
943.834	899.97
947.123	893.2
950.411	840.22
953.7	825.41
956.988	782.86
960.276	756.49
963.563	742.86
966.851	718.31
970.138	712.25
973.424	693
976.711	696.04
979.997	659.08
983.283	655.62
986.568	642.73
989.853	623.01
993.138	610.09
996.423	588.03
999.708	570.88
1002.992	563.54
1006.275	539.68
1009.559	534.31
1012.842	516.01
1016.125	504.16
1019.408	494.72
1022.69	486.63
1025.972	477.22
1029.254	467.7
1032.536	457.86
1035.817	450.39
1039.098	444.54
1042.379	436.04
1045.659	431.05
1048.939	420.29
1052.219	411.71
1055.498	405.35
1058.778	396.72
1062.057	388.98
1065.335	384.93
1068.614	380.21
1071.892	376.24
1075.17	365.45
1078.447	358.77
1081.724	355.83
1085.001	353.06
1088.278	346.25
1091.554	340.63
1094.83	340.97
1098.106	337.96
1101.382	335.49
1104.657	333.51
1107.932	327.35
1111.206	329.22
1114.481	320.75
1117.755	317.93
1121.029	315.81
1124.302	315.84
1127.575	308.91
1130.848	305.25
1134.121	301.86
1137.393	300.09
1140.665	293.61
1143.937	292.4
1147.208	290.68
1150.48	289.7
1153.75	287.07
1157.021	282.73
1160.291	282.63
1163.561	279.57
1166.831	279.36
1170.101	277.02
1173.37	276.31
1176.639	277.82
1179.907	274.38
1183.176	270.4
1186.444	270.64
1189.711	269.54
1192.979	269.18
1196.246	266.83
1199.513	268.4
1202.78	266.89
1206.046	267.2
1209.312	264.93
1212.578	264.4
1215.843	268.18
1219.108	266.35
1222.373	271.41
1225.638	273.2
1228.902	276.86
1232.166	277.82
1235.43	279.86
1238.693	283.45
1241.956	285
1245.219	289.41
1248.482	289.08
1251.744	288.12
1255.006	288.71
1258.268	282.5
1261.529	280.41
1264.79	278.5
1268.051	276.69
1271.312	273.51
1274.572	270.65
1277.832	267.16
1281.092	262.81
1284.351	261.47
1287.61	261.39
1290.869	258.35
1294.128	256.29
1297.386	255.62
1300.644	252.29
1303.902	253.39
1307.159	252.32
1310.416	252.5
1313.673	252.55
1316.93	254.85
1320.186	254.58
1323.442	255.29
1326.697	259.37
1329.953	260.3
1333.208	261.72
1336.463	264.29
1339.717	264.42
1342.972	267.63
1346.226	269.16
1349.479	270.21
1352.733	271.32
1355.986	272.81
1359.238	272.36
1362.491	274.05
1365.743	276.42
1368.995	275.63
1372.247	275.15
1375.498	275.23
1378.749	276.96
1382	273.74
1385.251	274.51
1388.501	271.85
1391.751	272.09
1395	271.19
1398.25	268.69
1401.499	266.11
1404.748	266.16
1407.996	265.37
1411.244	263.72
1414.492	262.18
1417.74	258.63
1420.987	254.74
1424.234	255.2
1427.481	252.29
1430.728	251.19
1433.974	249.58
1437.22	246.64
1440.465	245.6
1443.711	242.46
1446.956	240.5
1450.201	237.63
1453.445	236.74
1456.689	235.65
1459.933	231.26
1463.177	229.49
1466.42	225.65
1469.663	222.6
1472.906	222.05
1476.148	217.31
1479.391	214.47
1482.633	212.98
1485.874	209.76
1489.115	207.85
1492.356	206.29
1495.597	206.18
1498.838	203.31
1502.078	202.99
1505.318	202.09
1508.557	202.13
1511.797	201.77
1515.036	201.27
1518.274	200.15
1521.513	198.97
1524.751	198.81
1527.989	197.77
1531.227	197.26
1534.464	197.15
1537.701	196.07
1540.938	195.79
1544.174	193.6
1547.41	193.48
1550.646	192.29
1553.882	192.68
1557.117	190.15
1560.352	189.59
1563.587	189.55
1566.821	188.31
1570.055	187.01
1573.289	185.64
1576.523	185.5
1579.756	183.94
1582.989	183
1586.222	182.7
1589.454	181.82
1592.686	183.67
1595.918	182.4
1599.15	181.47
1602.381	181.81
1605.612	181.84
1608.843	182.18
1612.073	181.8
1615.303	183.46
1618.533	183.15
1621.762	183.55
1624.992	183.85
1628.221	182.94
1631.449	183.1
1634.678	182.83
1637.906	183.62
1641.134	183.63
1644.361	183.76
1647.588	183.81
1650.815	182.73
1654.042	182.02
1657.269	183.41
1660.495	183.14
1663.72	182.7
1666.946	183.52
1670.171	184.14
1673.396	183.45
1676.621	183.56
1679.845	183.69
1683.069	184.25
1686.293	185.5
1689.517	186.96
1692.74	186.14
1695.963	186.75
1699.185	188.71
1702.408	188.94
1705.63	189.46
1708.852	190.17
1712.073	190.15
1715.294	190.67
1718.515	191.2
1721.736	190.9
1724.956	191.69
1728.176	191.64
1731.396	192.68
1734.616	191.91
1737.835	192.29
1741.054	191.27
1744.272	191.64
1747.491	193.42
1750.709	193.41
1753.927	193.53
1757.144	193.14
1760.361	193.02
1763.578	193.78
1766.795	193.7
1770.011	194.2
1773.227	194.55
1776.443	196.61
1779.658	197.16
1782.874	195.86
1786.089	196.98
1789.303	197.21
1792.518	199.72
1795.732	200.14
1798.945	201.03
1802.159	201.25
1805.372	202.38
1808.585	205.29
1811.797	206.3
1815.01	206.57
1818.222	209.12
1821.434	210.03
1824.645	210.87
1827.856	213.74
1831.067	214.96
1834.278	214.94
1837.488	216.85
1840.698	218.08
1843.908	215.96
1847.117	216.22
1850.326	217.67
1853.535	216.13
1856.744	219.66
1859.952	219.3
1863.16	217.55
1866.368	216.12
1869.575	217.8
1872.782	213.96
1875.989	213.03
1879.196	211.71
1882.402	210.05
1885.608	210.51
1888.814	211.25
1892.019	209.14
1895.224	208.71
1898.429	207.53
1901.634	207.88
1904.838	208.26
1908.042	209.86
1911.246	210
1914.449	211.61
1917.652	211.97
1920.855	211.75
1924.058	211.86
1927.26	211.31
1930.462	211.41
1933.664	214.15
1936.865	212.17
1940.066	212.43
1943.267	211.8
1946.467	211.3
1949.668	212.52
1952.868	215.1
1956.067	214.82
1959.267	214.78
1962.466	215.59
1965.665	214.88
1968.863	214.84
1972.061	218.75
1975.259	219.86
1978.457	221.2
1981.654	224.03
1984.852	224.29
1988.048	223.25
1991.245	225.6
1994.441	228.22
1997.637	229.56
2000.833	234.55
2004.028	237.99
2007.223	238.38
2010.418	240.94
2013.613	244.44
2016.807	247.31
2020.001	249.26
2023.194	253.73
2026.388	258.49
2029.581	264.62
2032.774	267.56
2035.966	272.06
2039.158	272.12
2042.35	278.97
2045.542	279.87
2048.733	284.68
2051.924	288.33
2055.115	293.43
2058.306	293.37
2061.496	296.84
2064.686	296.29
2067.875	301.07
2071.065	302.37
2074.254	300.49
2077.442	302.85
2080.631	305.48
2083.819	308.8
2087.007	309
2090.195	313.02
2093.382	316.2
2096.569	314.36
2099.756	319.77
2102.942	320.64
2106.128	323.33
2109.314	331.96
2112.5	331.73
2115.685	337.87
2118.87	338.19
2122.055	345.06
2125.239	346.6
2128.424	351.38
2131.608	355.24
2134.791	359.45
2137.974	361.11
2141.157	362.37
2144.34	362.55
2147.523	367.93
2150.705	366.01
2153.887	369.12
2157.068	369.86
2160.25	366.76
2163.431	368.38
2166.611	371.55
2169.792	377.81
2172.972	382.41
2176.152	385.01
2179.331	389.78
2182.511	396.45
2185.69	399.8
2188.868	408.9
2192.047	409.69
2195.225	422.45
2198.403	430.82
2201.58	436.85
2204.758	445.42
2207.935	455.07
2211.111	463
2214.288	468.85
2217.464	469.7
2220.64	478.74
2223.815	483.91
2226.991	502.84
2230.166	502.2
2233.34	511.65
2236.515	521.69
2239.689	522.48
2242.863	522.72
2246.036	537.86
2249.209	535.09
2252.382	543.14
2255.555	560.09
2258.727	561.73
2261.9	565.8
2265.071	571.97
2268.243	581.71
2271.414	588.19
2274.585	601.17
2277.756	607.79
2280.926	611.54
2284.096	625.87
2287.266	638.95
2290.436	639.72
2293.605	656.64
2296.774	675.09
2299.942	696.03
2303.111	700.64
2306.279	715.69
2309.447	723.97
2312.614	743.55
2315.781	766.4
2318.948	795.35
2322.115	785.9
2325.281	831.43
2328.447	814.47
2331.613	843.21
2334.779	835.83
2337.944	872.54
2341.109	880.86
2344.274	907.49
2347.438	936.47
2350.602	934.32
2353.766	967.21
2356.929	981.38
2360.092	972.7
2363.255	1040.92
2366.418	1043.92
2369.58	1064.49
2372.742	1123.84
2375.904	1154.28
2379.066	1147.57
2382.227	1129.26
2385.388	1224.25
2388.548	1223.53
2391.709	1240.87
2394.869	1379.1
2398.029	1320.32
2401.188	1355.33
2404.347	1345.01
2407.506	1327.28
2410.665	1366.51
2413.823	1442.71
2416.981	1528.51
2420.139	1474.53
2423.296	1462.38
2426.453	1523.03
2429.61	1475.89
2432.767	1542.34
2435.923	1528.12
2439.079	1668.5
2442.235	1687.93
2445.391	1669
2448.546	1661.13
2451.701	1608.48
2454.855	1610.18
2458.009	1701.51
2461.163	1773.85
2464.317	1826.27
2467.471	1876.52
2470.624	1881.54
2473.777	1835.07
2476.929	1792.52
2480.082	1740.66
2483.234	1719.77
2486.385	1807.45
2489.537	1816.43
2492.688	1883.67
2495.839	1832.13
2498.989	1792.35
2502.14	1800.26
2505.29	1811.02
2508.439	1844.7
2511.589	1835.79
2514.738	2001.47
2517.887	1958.62
2521.035	2067.18
2524.183	2085.81
2527.331	2105.56
2530.479	2092.3
2533.627	2108.38
