Data from C_1_HIR_IL_4N_Splice17_12-47-43-075.txt Node
Date: Sat Mar 07 12:47:43 EST 2020
User: sa697716
Spectrometer: NQ5500242
Trigger mode: 0
Integration Time (sec): 1.450000E-1
Scans to average: 20
Nonlinearity correction enabled: false
Boxcar width: 5
Storing dark spectrum: false
XAxis mode: Wavelengths
Number of Pixels in Spectrum: 512
>>>>>Begin Spectral Data<<<<<
187.83	49.59
188.298	54.05
188.766	48.49
189.233	52.79
189.701	56.55
190.169	89.86
190.636	80.61
191.104	-9.69
191.571	-263
192.039	7.93
192.506	239.1
192.974	-8.75
193.441	-64.46
193.908	-97.05
194.375	40.53
194.842	10.14
195.31	64.17
195.777	-11.44
196.244	12.83
196.711	28.86
197.177	32.9
197.644	34.23
198.111	33.24
198.578	33.45
199.045	34.13
199.511	33.61
199.978	33.97
200.445	34.35
200.911	34.35
201.378	34.4
201.844	34.23
202.31	34.14
202.777	34.17
203.243	34.43
203.709	34.4
204.176	34.03
204.642	33.75
205.108	33.79
205.574	33.62
206.04	33.36
206.506	33.16
206.972	33.37
207.438	33.15
207.903	32.62
208.369	31.98
208.835	31.53
209.301	31.13
209.766	30.37
210.232	29.71
210.697	29.09
211.163	28.6
211.628	28.27
212.094	27.55
212.559	27.11
213.024	26.61
213.49	26.39
213.955	25.88
214.42	25.43
214.885	25.13
215.35	24.45
215.815	23.44
216.28	22.28
216.745	20.93
217.21	19.65
217.675	18.61
218.14	17.7
218.604	16.77
219.069	16.1
219.534	15.56
219.998	14.97
220.463	14.51
220.927	14.08
221.392	13.79
221.856	13.56
222.32	13.37
222.785	13.17
223.249	12.96
223.713	12.77
224.177	12.61
224.642	12.41
225.106	12.25
225.57	12.09
226.034	11.97
226.497	11.84
226.961	11.68
227.425	11.53
227.889	11.38
228.353	11.25
228.816	11.12
229.28	10.96
229.744	10.85
230.207	10.72
230.671	10.6
231.134	10.48
231.597	10.37
232.061	10.27
232.524	10.18
232.987	10.05
233.45	9.95
233.914	9.85
234.377	9.76
234.84	9.66
235.303	9.59
235.766	9.5
236.229	9.4
236.691	9.31
237.154	9.22
237.617	9.13
238.08	9.07
238.542	8.99
239.005	8.92
239.468	8.84
239.93	8.76
240.393	8.69
240.855	8.61
241.317	8.56
241.78	8.48
242.242	8.4
242.704	8.33
243.166	8.26
243.629	8.19
244.091	8.12
244.553	8.04
245.015	7.98
245.477	7.91
245.939	7.85
246.4	7.79
246.862	7.74
247.324	7.68
247.786	7.62
248.247	7.56
248.709	7.5
249.17	7.44
249.632	7.41
250.093	7.37
250.555	7.32
251.016	7.27
251.477	7.22
251.939	7.18
252.4	7.16
252.861	7.12
253.322	7.09
253.783	7.06
254.244	7.04
254.705	7
255.166	6.96
255.627	6.93
256.088	6.9
256.549	6.87
257.009	6.83
257.47	6.78
257.931	6.73
258.391	6.69
258.852	6.66
259.312	6.62
259.773	6.58
260.233	6.55
260.694	6.51
261.154	6.48
261.614	6.45
262.074	6.42
262.534	6.39
262.994	6.37
263.455	6.35
263.915	6.33
264.374	6.32
264.834	6.3
265.294	6.28
265.754	6.27
266.214	6.26
266.673	6.24
267.133	6.24
267.593	6.23
268.052	6.22
268.512	6.21
268.971	6.2
269.431	6.18
269.89	6.16
270.349	6.16
270.809	6.13
271.268	6.12
271.727	6.1
272.186	6.09
272.645	6.08
273.104	6.06
273.563	6.04
274.022	6.03
274.481	6.02
274.94	6.01
275.399	5.99
275.857	5.98
276.316	5.96
276.775	5.94
277.233	5.93
277.692	5.91
278.15	5.89
278.609	5.88
279.067	5.86
279.525	5.85
279.984	5.83
280.442	5.82
280.9	5.81
281.358	5.8
281.816	5.78
282.274	5.76
282.732	5.74
283.19	5.72
283.648	5.69
284.106	5.67
284.564	5.65
285.021	5.63
285.479	5.61
285.937	5.58
286.394	5.56
286.852	5.53
287.309	5.52
287.767	5.49
288.224	5.47
288.682	5.45
289.139	5.43
289.596	5.41
290.053	5.38
290.511	5.36
290.968	5.35
291.425	5.33
291.882	5.32
292.339	5.3
292.796	5.29
293.252	5.28
293.709	5.26
294.166	5.25
294.623	5.24
295.079	5.22
295.536	5.21
295.992	5.19
296.449	5.18
296.905	5.17
297.362	5.17
297.818	5.15
298.274	5.13
298.731	5.12
299.187	5.09
299.643	5.08
300.099	5.07
300.555	5.06
301.011	5.04
301.467	5.03
301.923	5.01
302.379	4.99
302.835	4.99
303.291	4.98
303.746	4.97
304.202	4.97
304.658	4.96
305.113	4.95
305.569	4.94
306.024	4.94
306.479	4.92
306.935	4.91
307.39	4.89
307.845	4.88
308.301	4.87
308.756	4.86
309.211	4.85
309.666	4.85
310.121	4.83
310.576	4.82
311.031	4.8
311.486	4.8
311.94	4.8
312.395	4.79
312.85	4.78
313.305	4.77
313.759	4.77
314.214	4.75
314.668	4.74
315.123	4.73
315.577	4.73
316.032	4.72
316.486	4.7
316.94	4.7
317.394	4.68
317.849	4.67
318.303	4.65
318.757	4.63
319.211	4.62
319.665	4.6
320.119	4.58
320.572	4.57
321.026	4.56
321.48	4.55
321.934	4.53
322.387	4.52
322.841	4.52
323.295	4.52
323.748	4.51
324.202	4.5
324.655	4.49
325.108	4.49
325.562	4.49
326.015	4.47
326.468	4.47
326.921	4.46
327.374	4.46
327.827	4.45
328.28	4.43
328.733	4.42
329.186	4.41
329.639	4.41
330.092	4.4
330.545	4.4
330.997	4.4
331.45	4.39
331.903	4.39
332.355	4.39
332.808	4.38
333.26	4.39
333.713	4.38
334.165	4.37
334.617	4.37
335.069	4.37
335.522	4.36
335.974	4.36
336.426	4.35
336.878	4.34
337.33	4.34
337.782	4.34
338.234	4.33
338.686	4.34
339.137	4.34
339.589	4.32
340.041	4.32
340.493	4.31
340.944	4.29
341.396	4.28
341.847	4.27
342.299	4.25
342.75	4.23
343.201	4.22
343.653	4.2
344.104	4.18
344.555	4.17
345.006	4.15
345.457	4.15
345.908	4.14
346.359	4.15
346.81	4.14
347.261	4.13
347.712	4.13
348.163	4.13
348.613	4.14
349.064	4.14
349.515	4.13
349.965	4.14
350.416	4.12
350.866	4.12
351.317	4.11
351.767	4.1
352.217	4.1
352.668	4.1
353.118	4.09
353.568	4.07
354.018	4.07
354.468	4.07
354.918	4.06
355.368	4.07
355.818	4.06
356.268	4.06
356.718	4.06
357.168	4.06
357.617	4.05
358.067	4.05
358.517	4.06
358.966	4.06
359.416	4.05
359.865	4.05
360.315	4.05
360.764	4.05
361.213	4.05
361.663	4.04
362.112	4.05
362.561	4.05
363.01	4.04
363.459	4.03
363.908	4.03
364.357	4.03
364.806	4.02
365.255	4.02
365.703	4.03
366.152	4.03
366.601	4.03
367.05	4.03
367.498	4.02
367.947	4.03
368.395	4.03
368.844	4.03
369.292	4.03
369.74	4.04
370.189	4.03
370.637	4.02
371.085	4.01
371.533	4.01
371.981	4
372.429	4.01
372.877	4
373.325	4.01
373.773	4.01
374.221	4.02
374.669	4.01
375.116	4.01
375.564	4.01
376.012	4.02
376.459	4.03
376.907	4.05
377.354	4.05
377.801	4.06
378.249	4.07
378.696	4.07
379.143	4.07
379.591	4.08
380.038	4.09
380.485	4.12
380.932	4.13
381.379	4.14
381.826	4.15
382.273	4.16
382.72	4.16
383.166	4.17
383.613	4.18
384.06	4.19
384.506	4.19
384.953	4.21
385.4	4.21
385.846	4.23
386.292	4.24
386.739	4.24
387.185	4.25
387.631	4.27
388.078	4.28
388.524	4.3
388.97	4.32
389.416	4.34
389.862	4.35
390.308	4.38
390.754	4.4
391.2	4.42
391.645	4.44
392.091	4.46
392.537	4.48
392.983	4.49
393.428	4.51
393.874	4.52
394.319	4.53
394.765	4.54
395.21	4.54
395.655	4.54
396.101	4.55
396.546	4.56
396.991	4.58
397.436	4.59
397.881	4.61
398.326	4.64
398.771	4.66
399.216	4.68
399.661	4.7
400.106	4.71
400.551	4.73
400.995	4.73
401.44	4.75
401.885	4.75
402.329	4.76
402.774	4.77
403.218	4.78
403.663	4.8
404.107	4.8
404.551	4.81
404.995	4.82
405.44	4.81
405.884	4.83
406.328	4.83
406.772	4.83
407.216	4.84
407.66	4.84
408.104	4.83
408.547	4.82
408.991	4.82
409.435	4.82
409.879	4.83
410.322	4.84
410.766	4.84
411.209	4.84
411.653	4.85
412.096	4.85
412.54	4.86
412.983	4.84
413.426	4.86
413.869	4.87
414.312	4.88
414.756	4.88
415.199	4.88
415.642	4.89
416.085	4.88
416.527	4.87
416.97	4.86
417.413	4.86
417.856	4.87
418.298	4.84
418.741	4.83
419.184	4.83
419.626	4.82
420.069	4.83
420.511	4.81
420.953	4.81
421.396	4.82
421.838	4.83
422.28	4.82
422.722	4.83
423.164	4.84
423.606	4.84
424.048	4.84
424.49	4.84
424.932	4.83
425.374	4.82
425.816	4.8
426.258	4.79
426.699	4.77
427.141	4.77
427.582	4.76
428.024	4.76
428.465	4.76
428.907	4.75
429.348	4.73
429.789	4.72
430.231	4.73
430.672	4.75
431.113	4.76
431.554	4.76
431.995	4.77
432.436	4.77
432.877	4.77
433.318	4.78
433.759	4.8
434.2	4.82
434.64	4.84
435.081	4.86
435.522	4.88
435.962	4.89
436.403	4.92
436.843	4.93
437.284	4.92
437.724	4.94
438.164	4.93
438.604	4.94
439.045	4.94
439.485	4.94
439.925	4.94
440.365	4.94
440.805	4.94
441.245	4.96
441.685	4.96
442.125	4.98
442.564	4.99
443.004	5
443.444	4.99
443.883	5.01
444.323	4.99
444.762	5
445.202	5
445.641	5
446.081	5.01
446.52	5.01
446.959	5.03
447.398	5.03
447.837	5.04
448.276	5.04
448.716	5.04
449.154	5.07
449.593	5.09
450.032	5.08
450.471	5.07
450.91	5.05
451.349	5.06
451.787	5.05
452.226	5.04
452.664	5.04
453.103	5.03
453.541	5.03
453.98	5.03
454.418	5.01
454.856	5.01
455.295	5.02
455.733	4.99
456.171	4.98
456.609	4.97
457.047	4.96
457.485	4.94
457.923	4.94
458.361	4.94
458.798	4.93
459.236	4.92
459.674	4.91
460.111	4.92
460.549	4.93
460.987	4.95
461.424	4.95
461.862	4.96
462.299	4.97
462.736	4.97
463.173	4.98
463.611	4.98
464.048	4.98
464.485	4.99
464.922	4.99
465.359	5
465.796	5
466.233	5
466.67	5
467.106	5.01
467.543	5.01
467.98	5
468.416	5
468.853	5
469.29	5.01
469.726	4.99
470.162	4.99
470.599	4.99
471.035	4.98
471.471	4.97
471.907	4.97
472.344	4.96
472.78	4.97
473.216	4.97
473.652	4.98
474.088	4.97
474.523	4.97
474.959	4.97
475.395	4.95
475.831	4.94
476.266	4.95
476.702	4.94
477.138	4.93
477.573	4.93
478.008	4.94
478.444	4.92
478.879	4.93
479.314	4.93
479.75	4.92
480.185	4.91
480.62	4.9
481.055	4.89
481.49	4.88
481.925	4.87
482.36	4.87
482.795	4.84
483.229	4.83
483.664	4.83
484.099	4.82
484.534	4.81
484.968	4.82
485.403	4.82
485.837	4.84
486.271	4.85
486.706	4.86
487.14	4.86
487.574	4.88
488.009	4.89
488.443	4.9
488.877	4.93
489.311	4.95
489.745	4.97
490.179	4.99
490.613	5.02
491.046	5.04
491.48	5.07
491.914	5.11
492.348	5.14
492.781	5.18
493.215	5.23
493.648	5.27
494.082	5.32
494.515	5.35
494.948	5.39
495.382	5.44
495.815	5.49
496.248	5.54
496.681	5.6
497.114	5.66
497.547	5.72
497.98	5.78
498.413	5.84
498.846	5.92
499.279	5.99
499.711	6.09
500.144	6.17
500.577	6.26
501.009	6.36
501.442	6.46
501.874	6.57
502.306	6.68
502.739	6.79
503.171	6.91
503.603	7.04
504.036	7.18
504.468	7.31
504.9	7.44
505.332	7.6
505.764	7.75
506.196	7.91
506.627	8.08
507.059	8.26
507.491	8.44
507.923	8.63
508.354	8.84
508.786	9.03
509.217	9.24
509.649	9.46
510.08	9.68
510.512	9.91
510.943	10.14
511.374	10.37
511.805	10.61
512.237	10.85
512.668	11.1
513.099	11.33
513.53	11.6
513.961	11.86
514.391	12.12
514.822	12.39
515.253	12.65
515.684	12.92
516.114	13.2
516.545	13.48
516.975	13.76
517.406	14.06
517.836	14.34
518.267	14.64
518.697	14.92
519.127	15.21
519.558	15.5
519.988	15.79
520.418	16.07
520.848	16.36
521.278	16.64
521.708	17.04
522.138	17.31
522.567	17.56
522.997	17.8
523.427	18.06
523.857	18.31
524.286	18.54
524.716	18.78
525.145	19
525.575	19.22
526.004	19.42
526.433	19.5
526.863	19.69
527.292	19.89
527.721	20.09
528.15	20.24
528.579	20.41
529.008	20.57
529.437	20.71
529.866	20.87
530.295	21.01
530.724	21.14
531.152	21.27
531.581	21.41
532.01	21.52
532.438	21.62
532.867	21.73
533.295	21.83
533.723	21.94
534.152	22.01
534.58	22.1
535.008	22.16
535.436	22.23
535.865	22.29
536.293	22.34
536.721	22.39
537.149	22.45
537.576	22.51
538.004	22.56
538.432	22.6
538.86	22.66
539.287	22.69
539.715	22.74
540.143	22.79
540.57	22.83
540.998	22.87
541.425	22.9
541.852	22.94
542.28	22.99
542.707	23.02
543.134	23.05
543.561	23.08
543.988	23.11
544.415	23.13
544.842	23.15
545.269	23.19
545.696	23.21
546.123	23.26
546.549	23.27
546.976	23.29
547.403	23.33
547.829	23.35
548.256	23.37
548.682	23.41
549.108	23.42
549.535	23.44
549.961	23.43
550.387	23.44
550.813	23.43
551.24	23.42
551.666	23.41
552.092	23.4
552.518	23.37
552.943	23.34
553.369	23.31
553.795	23.27
554.221	23.23
554.646	23.19
555.072	23.14
555.498	23.1
555.923	23.04
556.349	22.97
556.774	22.89
557.199	22.82
557.625	22.75
558.05	22.68
558.475	22.62
558.9	22.53
559.325	22.46
559.75	22.37
560.175	22.28
560.6	22.18
561.025	22.07
561.449	21.98
561.874	21.86
562.299	21.74
562.723	21.61
563.148	21.48
563.572	21.35
563.997	21.21
564.421	21.07
564.846	20.94
565.27	20.8
565.694	20.67
566.118	20.52
566.542	20.39
566.966	20.24
567.39	20.11
567.814	19.97
568.238	19.83
568.662	19.69
569.086	19.55
569.509	19.4
569.933	19.25
570.357	19.1
570.78	18.95
571.204	18.8
571.627	18.66
572.05	18.51
572.474	18.39
572.897	18.24
573.32	18.1
573.743	17.98
574.166	17.85
574.589	17.72
575.012	17.6
575.435	17.48
575.858	17.36
576.281	17.25
576.704	17.13
577.126	17.02
577.549	16.92
577.972	16.82
578.394	16.72
578.817	16.62
579.239	16.54
579.661	16.45
580.084	16.37
580.506	16.3
580.928	16.21
581.35	16.13
581.772	16.04
582.194	15.96
582.616	15.88
583.038	15.8
583.46	15.73
583.882	15.65
584.303	15.57
584.725	15.49
585.147	15.41
585.568	15.33
585.99	15.28
586.411	15.2
586.833	15.14
587.254	15.08
587.675	15.02
588.096	14.96
588.518	14.9
588.939	14.87
589.36	14.82
589.781	14.77
590.202	14.75
590.623	14.69
591.043	14.66
591.464	14.62
591.885	14.58
592.305	14.54
592.726	14.5
593.147	14.46
593.567	14.42
593.987	14.39
594.408	14.36
594.828	14.32
595.248	14.29
595.669	14.26
596.089	14.22
596.509	14.2
596.929	14.17
597.349	14.14
597.769	14.12
598.189	14.08
598.608	14.05
599.028	14.01
599.448	13.96
599.867	13.92
600.287	13.88
600.706	13.84
601.126	13.8
601.545	13.75
601.965	13.71
602.384	13.66
602.803	13.61
603.222	13.55
603.641	13.5
604.061	13.45
604.48	13.39
604.898	13.31
605.317	13.24
605.736	13.16
606.155	13.1
606.574	13.02
606.992	12.94
607.411	12.86
607.829	12.76
608.248	12.68
608.666	12.59
609.085	12.52
609.503	12.45
609.921	12.37
610.339	12.3
610.758	12.22
611.176	12.13
611.594	12.06
612.012	11.98
612.43	11.93
612.847	11.85
613.265	11.78
613.683	11.71
614.101	11.64
614.518	11.56
614.936	11.49
615.353	11.42
615.771	11.36
616.188	11.29
616.606	11.23
617.023	11.16
617.44	11.11
617.857	11.06
618.274	11.01
618.691	10.96
619.108	10.91
619.525	10.86
619.942	10.82
620.359	10.79
620.776	10.74
621.192	10.69
621.609	10.67
622.026	10.64
622.442	10.61
622.859	10.58
623.275	10.55
623.691	10.53
624.108	10.52
624.524	10.5
624.94	10.49
625.356	10.48
625.772	10.47
626.188	10.45
626.604	10.44
627.02	10.43
627.436	10.42
627.852	10.41
628.268	10.4
628.683	10.38
629.099	10.37
629.514	10.34
629.93	10.33
630.345	10.31
630.761	10.27
631.176	10.25
631.591	10.22
632.007	10.18
632.422	10.14
632.837	10.09
633.252	10.05
633.667	10
634.082	9.94
634.497	9.86
634.911	9.8
635.326	9.74
635.741	9.67
636.155	9.59
636.57	9.52
636.984	9.43
637.399	9.34
637.813	9.24
638.228	9.14
638.642	9.05
639.056	8.94
639.47	8.84
639.884	8.73
640.298	8.62
640.712	8.51
641.126	8.4
641.54	8.29
641.954	8.18
642.368	8.09
642.781	8
643.195	7.9
643.609	7.81
644.022	7.72
644.436	7.65
644.849	7.56
645.262	7.47
645.676	7.38
646.089	7.31
646.502	7.25
646.915	7.18
647.328	7.12
647.741	7.06
648.154	7.01
648.567	6.96
648.98	6.9
649.393	6.86
649.805	6.83
650.218	6.8
650.631	6.76
651.043	6.72
651.456	6.68
651.868	6.63
652.28	6.58
652.693	6.54
653.105	6.5
653.517	6.45
653.929	6.4
654.341	6.35
654.753	6.29
655.165	6.24
655.577	6.18
655.989	6.13
656.401	6.07
656.813	6.02
657.224	5.95
657.636	5.88
658.047	5.82
658.459	5.74
658.87	5.68
659.282	5.6
659.693	5.54
660.104	5.46
660.515	5.39
660.926	5.32
661.338	5.25
661.749	5.19
662.159	5.13
662.57	5.07
662.981	5.02
663.392	4.98
663.803	4.93
664.213	4.88
664.624	4.84
665.035	4.8
665.445	4.77
665.855	4.74
666.266	4.7
666.676	4.69
667.086	4.66
667.497	4.64
667.907	4.62
668.317	4.6
668.727	4.59
669.137	4.58
669.547	4.57
669.956	4.57
670.366	4.57
670.776	4.57
671.186	4.57
671.595	4.57
672.005	4.57
672.414	4.57
672.824	4.57
673.233	4.59
673.642	4.61
674.052	4.62
674.461	4.63
674.87	4.64
675.279	4.67
675.688	4.68
676.097	4.71
676.506	4.73
676.915	4.76
677.323	4.8
677.732	4.82
678.141	4.85
678.549	4.88
678.958	4.93
679.366	4.98
679.775	5.01
680.183	5.06
680.592	5.12
681	5.18
681.408	5.23
681.816	5.3
682.224	5.38
682.632	5.47
683.04	5.57
683.448	5.66
683.856	5.77
684.264	5.91
684.671	6.04
685.079	6.2
685.487	6.39
685.894	6.6
686.302	6.82
686.709	7.07
687.116	7.35
687.524	7.64
687.931	7.97
688.338	8.32
688.745	8.68
689.152	9.07
689.559	9.49
689.966	9.92
690.373	10.37
690.78	10.85
691.187	11.32
691.593	11.81
692	12.32
692.407	12.84
692.813	13.37
693.22	13.91
693.626	14.47
694.032	15.02
694.439	15.57
694.845	16.14
695.251	16.69
695.657	17.25
696.063	17.82
696.469	18.39
696.875	18.95
697.281	19.49
697.687	20.04
698.093	20.58
698.498	21.11
698.904	21.66
699.31	22.17
699.715	22.72
700.12	23.22
700.526	23.73
700.931	24.24
701.337	24.74
701.742	25.25
702.147	25.74
702.552	26.23
702.957	26.71
703.362	27.15
703.767	27.58
704.172	28.01
704.577	28.44
704.981	28.87
705.386	29.28
705.791	29.68
706.195	30.08
706.6	30.45
707.004	30.84
707.408	31.21
707.813	31.61
708.217	31.99
708.621	32.38
709.025	32.74
709.43	33.09
709.834	33.45
710.237	33.8
710.641	34.12
711.045	34.45
711.449	34.78
711.853	35.12
712.256	35.43
712.66	35.72
713.064	36
713.467	36.31
713.87	36.61
714.274	36.87
714.677	37.16
715.08	37.43
715.484	37.72
715.887	37.99
716.29	38.23
716.693	38.49
717.096	38.76
717.499	39.02
717.901	39.27
718.304	39.5
718.707	39.78
719.109	40.02
719.512	40.25
719.915	40.47
720.317	40.68
720.719	40.88
721.122	41.09
721.524	41.27
721.926	41.48
722.328	41.67
722.731	41.85
723.133	42.02
723.535	42.18
723.937	42.35
724.338	42.51
724.74	42.66
725.142	42.88
725.544	42.99
725.945	43.16
726.347	43.27
726.748	43.38
727.15	43.49
727.551	43.63
727.952	43.74
728.354	43.87
728.755	43.97
729.156	44.08
729.557	44.12
729.958	44.24
730.359	44.34
730.76	44.45
731.161	44.54
731.562	44.67
731.962	44.72
732.363	44.81
732.763	44.9
733.164	44.97
733.564	45.05
733.965	45.13
734.365	45.22
734.766	45.26
735.166	45.32
735.566	45.4
735.966	45.46
736.366	45.53
736.766	45.57
737.166	45.62
737.566	45.69
737.966	45.76
738.365	45.8
738.765	45.85
739.165	45.91
739.564	45.95
739.964	46.01
740.363	46.03
740.763	46.06
741.162	46.09
741.561	46.12
741.96	46.13
742.36	46.14
742.759	46.17
743.158	46.19
743.557	46.19
743.955	46.21
744.354	46.22
744.753	46.27
745.152	46.3
745.55	46.34
745.949	46.36
746.348	46.38
746.746	46.4
747.144	46.44
747.543	46.46
747.941	46.5
748.339	46.5
748.737	46.52
749.136	46.53
749.534	46.53
749.932	46.54
750.33	46.54
750.727	46.58
751.125	46.59
751.523	46.58
751.921	46.59
752.318	46.6
752.716	46.62
753.113	46.63
753.511	46.63
753.908	46.66
754.305	46.64
754.703	46.63
755.1	46.61
755.497	46.6
755.894	46.58
756.291	46.56
756.688	46.53
757.085	46.49
757.482	46.46
757.878	46.43
758.275	46.37
758.672	46.36
759.068	46.37
759.465	46.35
759.861	46.34
760.258	46.34
760.654	46.36
761.05	46.38
761.447	46.41
761.843	46.4
762.239	46.42
762.635	46.44
763.031	46.45
763.427	46.43
763.822	46.48
764.218	46.52
764.614	46.53
765.01	46.53
765.405	46.53
765.801	46.54
766.196	46.58
766.592	46.59
766.987	46.59
767.382	46.59
767.778	46.63
768.173	46.61
768.568	46.59
768.963	46.59
769.358	46.62
769.753	46.62
770.148	46.62
770.542	46.6
770.937	46.61
771.332	46.63
771.726	46.62
772.121	46.59
772.515	46.59
772.91	46.57
773.304	46.58
773.699	46.53
774.093	46.52
774.487	46.53
774.881	46.56
775.275	46.54
775.669	46.51
776.063	46.52
776.457	46.54
776.851	46.52
777.245	46.5
777.638	46.47
778.032	46.51
778.425	46.55
778.819	46.52
779.212	46.51
779.606	46.55
779.999	46.55
780.392	46.56
780.786	46.56
781.179	46.57
781.572	46.62
781.965	46.64
782.358	46.63
782.751	46.62
783.143	46.63
783.536	46.64
783.929	46.62
784.322	46.64
784.714	46.64
785.107	46.67
785.499	46.67
785.891	46.65
786.284	46.65
786.676	46.65
787.068	46.66
787.46	46.66
787.852	46.65
788.245	46.63
788.636	46.6
789.028	46.61
789.42	46.57
789.812	46.58
790.204	46.59
790.595	46.6
790.987	46.61
791.378	46.6
791.77	46.61
792.161	46.61
792.553	46.61
792.944	46.61
793.335	46.61
793.726	46.62
794.117	46.62
794.508	46.6
794.899	46.61
795.29	46.61
795.681	46.57
796.072	46.57
796.463	46.59
796.853	46.59
797.244	46.59
797.634	46.58
798.025	46.58
798.415	46.57
798.806	46.57
799.196	46.57
799.586	46.54
799.976	46.57
800.366	46.57
800.756	46.54
801.146	46.53
801.536	46.55
801.926	46.55
802.316	46.59
802.706	46.61
803.095	46.64
803.485	46.64
803.874	46.64
804.264	46.63
804.653	46.62
805.043	46.63
805.432	46.64
805.821	46.64
806.21	46.6
806.599	46.58
806.988	46.55
807.377	46.54
807.766	46.52
808.155	46.53
808.544	46.55
808.933	46.55
809.321	46.55
809.71	46.54
810.098	46.53
810.487	46.55
810.875	46.55
811.264	46.56
811.652	46.55
812.04	46.55
812.428	46.57
812.816	46.52
813.204	46.49
813.592	46.47
813.98	46.48
814.368	46.48
814.756	46.47
815.144	46.44
815.531	46.45
815.919	46.45
816.306	46.45
816.694	46.42
817.081	46.45
817.469	46.45
817.856	46.45
818.243	46.42
818.63	46.41
819.017	46.42
819.404	46.41
819.791	46.41
820.178	46.41
820.565	46.38
820.952	46.37
821.339	46.34
821.725	46.35
822.112	46.35
822.498	46.36
822.885	46.37
823.271	46.36
823.657	46.34
824.044	46.32
824.43	46.33
824.816	46.34
825.202	46.33
825.588	46.34
825.974	46.35
826.36	46.35
826.746	46.36
827.132	46.37
827.517	46.36
827.903	46.41
828.289	46.44
828.674	46.42
829.06	46.43
829.445	46.44
829.83	46.44
830.216	46.44
830.601	46.47
830.986	46.45
831.371	46.42
831.756	46.44
832.141	46.44
832.526	46.42
832.911	46.41
833.295	46.4
833.68	46.42
834.065	46.44
834.449	46.43
834.834	46.42
835.218	46.44
835.603	46.46
835.987	46.43
836.371	46.42
836.755	46.42
837.139	46.42
837.524	46.45
837.908	46.44
838.291	46.46
838.675	46.49
839.059	46.48
839.443	46.49
839.827	46.48
840.21	46.51
840.594	46.53
840.977	46.56
841.361	46.57
841.744	46.54
842.127	46.53
842.511	46.5
842.894	46.48
843.277	46.48
843.66	46.45
844.043	46.46
844.426	46.46
844.809	46.45
845.191	46.44
845.574	46.45
845.957	46.46
846.339	46.47
846.722	46.5
847.104	46.51
847.487	46.52
847.869	46.53
848.252	46.52
848.634	46.5
849.016	46.51
849.398	46.49
849.78	46.48
850.162	46.48
850.544	46.47
850.926	46.47
851.307	46.47
851.689	46.49
852.071	46.49
852.452	46.5
852.834	46.52
853.215	46.52
853.597	46.54
853.978	46.54
854.359	46.54
854.741	46.54
855.122	46.54
855.503	46.53
855.884	46.49
856.265	46.48
856.646	46.46
857.026	46.49
857.407	46.5
857.788	46.48
858.169	46.5
858.549	46.51
858.93	46.51
859.31	46.51
859.69	46.52
860.071	46.54
860.451	46.55
860.831	46.56
861.211	46.51
861.591	46.5
861.971	46.5
862.351	46.48
862.731	46.5
863.111	46.47
863.491	46.46
863.87	46.45
864.25	46.46
864.629	46.46
865.009	46.48
865.388	46.51
865.768	46.5
866.147	46.51
866.526	46.53
866.905	46.51
867.284	46.54
867.663	46.53
868.042	46.53
868.421	46.53
868.8	46.55
869.179	46.53
869.558	46.52
869.936	46.52
870.315	46.5
870.693	46.48
871.072	46.49
871.45	46.48
871.828	46.5
872.207	46.52
872.585	46.47
872.963	46.47
873.341	46.46
873.719	46.44
874.097	46.45
874.475	46.48
874.853	46.49
875.23	46.51
875.608	46.54
875.986	46.57
876.363	46.58
876.741	46.62
877.118	46.62
877.495	46.64
877.873	46.68
878.25	46.68
878.627	46.68
879.004	46.67
879.381	46.65
879.758	46.6
880.135	46.58
880.512	46.55
880.889	46.56
881.265	46.57
881.642	46.56
882.019	46.56
882.395	46.54
882.772	46.53
883.148	46.53
883.524	46.53
883.901	46.53
884.277	46.52
884.653	46.5
885.029	46.49
885.405	46.48
885.781	46.48
886.157	46.47
886.532	46.47
886.908	46.47
887.284	46.48
887.659	46.47
888.035	46.47
888.411	46.46
888.786	46.47
889.161	46.47
889.537	46.47
889.912	46.46
890.287	46.47
890.662	46.45
891.037	46.48
891.412	46.47
891.787	46.46
892.162	46.46
892.536	46.47
892.911	46.48
893.286	46.48
893.66	46.49
894.035	46.5
894.409	46.49
894.784	46.5
895.158	46.48
895.532	46.48
895.906	46.49
896.281	46.5
896.655	46.49
897.029	46.5
897.402	46.5
897.776	46.48
898.15	46.49
898.524	46.49
898.898	46.48
899.271	46.47
899.645	46.47
900.018	46.47
900.392	46.46
900.765	46.48
901.138	46.47
901.511	46.47
901.884	46.5
902.258	46.48
902.631	46.48
903.003	46.5
903.376	46.53
903.749	46.52
904.122	46.54
904.495	46.56
904.867	46.56
905.24	46.57
905.612	46.56
905.985	46.52
906.357	46.53
906.729	46.55
907.102	46.53
907.474	46.54
907.846	46.54
908.218	46.52
908.59	46.53
908.962	46.53
909.334	46.53
909.705	46.53
910.077	46.53
910.449	46.53
910.82	46.52
911.192	46.54
911.563	46.51
911.935	46.5
912.306	46.5
912.677	46.5
913.048	46.49
913.419	46.46
913.79	46.49
914.161	46.5
914.532	46.5
914.903	46.48
915.274	46.48
915.645	46.47
916.015	46.5
916.386	46.47
916.756	46.46
917.127	46.46
917.497	46.5
917.868	46.47
918.238	46.46
918.608	46.46
918.978	46.48
919.348	46.46
919.718	46.46
920.088	46.48
920.458	46.52
920.828	46.52
921.198	46.48
921.567	46.45
921.937	46.47
922.306	46.46
922.676	46.45
923.045	46.42
923.415	46.41
923.784	46.42
924.153	46.4
924.522	46.38
924.891	46.35
925.26	46.33
925.629	46.37
925.998	46.34
926.367	46.35
926.736	46.33
927.104	46.34
927.473	46.32
927.842	46.28
928.21	46.28
928.578	46.28
928.947	46.3
929.315	46.3
929.683	46.26
930.051	46.25
930.42	46.21
930.788	46.22
931.156	46.2
931.523	46.19
931.891	46.22
932.259	46.16
932.627	46.12
932.994	46.1
933.362	46.08
933.729	46.08
934.097	46.07
934.464	46.11
934.831	46.08
935.199	46.11
935.566	46.15
935.933	46.15
936.3	46.17
936.667	46.21
937.034	46.22
937.401	46.25
937.767	46.26
938.134	46.26
938.501	46.24
938.867	46.28
939.234	46.28
939.6	46.25
939.967	46.18
940.333	46.18
940.699	46.21
941.065	46.17
941.431	46.17
941.798	46.17
942.163	46.18
942.529	46.19
942.895	46.17
943.261	46.11
943.627	46.11
943.992	46.1
944.358	46.08
944.723	45.99
945.089	45.99
945.454	46
945.82	46.01
946.185	46.05
946.55	45.95
946.915	45.94
947.28	45.94
947.645	45.94
948.01	45.97
948.375	46.02
948.74	46.05
949.104	46.08
949.469	46.06
949.834	46.04
950.198	45.98
950.562	46.01
950.927	46.02
951.291	45.91
951.655	45.83
952.02	45.85
952.384	45.78
952.748	45.76
953.112	45.75
953.476	45.73
953.839	45.65
954.203	45.64
954.567	45.59
954.931	45.5
955.294	45.53
955.658	45.61
956.021	45.56
956.385	45.52
956.748	45.52
957.111	45.45
957.474	45.41
957.837	45.39
958.2	45.41
958.563	45.42
958.926	45.47
959.289	45.48
959.652	45.43
960.015	45.45
960.377	45.44
960.74	45.43
961.102	45.45
961.465	45.46
961.827	45.48
962.189	45.49
962.552	45.45
962.914	45.47
963.276	45.51
963.638	45.53
964	45.46
964.362	45.52
964.724	45.52
965.085	45.52
965.447	45.52
965.809	45.5
966.17	45.5
966.532	45.5
966.893	45.44
967.255	45.4
967.616	45.37
967.977	45.38
968.338	45.31
968.699	45.26
969.061	45.27
969.421	45.25
969.782	45.26
970.143	45.21
970.504	45.25
970.865	45.28
971.225	45.28
971.586	45.26
971.946	45.26
972.307	45.27
972.667	45.23
973.027	45.24
973.388	45.26
973.748	45.26
974.108	45.34
974.468	45.32
974.828	45.37
975.188	45.34
975.548	45.3
975.907	45.33
976.267	45.34
976.627	45.4
976.986	45.34
977.346	45.31
977.705	45.29
978.064	45.24
978.424	45.26
978.783	45.17
979.142	45.17
979.501	45.24
979.86	45.22
980.219	45.2
980.578	45.23
980.937	45.25
981.296	45.22
981.654	45.22
982.013	45.22
982.371	45.17
982.73	45.19
983.088	45.2
983.447	45.21
983.805	45.22
984.163	45.22
984.521	45.18
984.879	45.1
985.237	45.11
985.595	45.2
985.953	45.15
986.311	45.11
986.669	45.05
987.026	45.02
987.384	45
987.741	44.95
988.099	44.93
988.456	44.9
988.814	44.92
989.171	44.99
989.528	44.97
989.885	44.96
990.242	45.04
990.599	45.15
990.956	45.18
991.313	45.12
991.67	45.16
992.027	45.29
992.383	45.34
992.74	45.42
993.096	45.38
993.453	45.28
993.809	45.31
994.165	45.35
994.522	45.37
994.878	45.34
995.234	45.44
995.59	45.36
995.946	45.24
996.302	45.25
996.658	45.27
997.013	45.24
997.369	45.25
997.725	45.25
998.08	45.22
998.436	45.11
998.791	45.16
999.147	45.07
999.502	45.14
999.857	45.15
1000.212	45.03
1000.567	45.03
1000.922	44.99
1001.277	45.02
1001.632	44.92
1001.987	44.91
1002.342	44.93
1002.696	44.9
1003.051	44.97
1003.406	45.12
1003.76	45.17
1004.114	45.18
1004.469	45.17
1004.823	45.39
1005.177	45.34
1005.531	45.5
1005.885	45.54
1006.239	45.61
1006.593	45.73
1006.947	45.68
1007.301	45.39
1007.655	45.31
1008.008	45.47
1008.362	45.53
1008.715	45.34
1009.069	45.4
1009.422	45.33
1009.776	45.25
1010.129	45.15
1010.482	45.04
1010.835	45.08
1011.188	45.19
1011.541	45.21
1011.894	45.22
1012.247	45.19
1012.6	45.19
1012.952	45.15
1013.305	45.27
1013.657	45.3
1014.01	45.37
1014.362	45.2
1014.715	45.16
1015.067	45.3
1015.419	45.33
1015.771	45.13
1016.123	45.13
1016.475	45.13
1016.827	45.24
1017.179	45.1
1017.531	45.25
1017.883	45.22
1018.234	45.36
1018.586	45.4
1018.938	45.36
1019.289	45.18
1019.64	45.22
1019.992	45.07
1020.343	45.02
1020.694	44.96
1021.045	45.13
1021.396	45.02
1021.747	45.26
1022.098	45.23
1022.449	45.17
1022.8	45.18
1023.151	45.36
1023.501	45.7
1023.852	45.69
1024.202	45.63
1024.553	45.57
1024.903	45.46
1025.253	45.43
1025.604	45.25
1025.954	45
1026.304	44.75
1026.654	44.66
1027.004	44.54
1027.354	44.29
1027.703	44.35
1028.053	44.34
1028.403	44.36
1028.753	44.19
1029.102	44.38
1029.452	44.5
1029.801	45.01
1030.15	45.36
1030.499	45.34
897.758	988.87
901.051	994.1
904.343	993.02
907.636	1011.44
910.928	980.23
914.22	984.06
917.511	966.76
920.803	923.74
924.094	918.84
927.384	896.06
930.675	862.14
933.965	861.71
937.255	811.28
940.544	778.14
943.834	739.11
947.123	734.99
950.411	689.97
953.7	678.63
956.988	642.7
960.276	618.28
963.563	607.01
966.851	583.39
970.138	577.62
973.424	560.21
976.711	562.71
979.997	534.92
983.283	531.7
986.568	520.23
989.853	506.56
993.138	495.53
996.423	475.95
999.708	463.44
1002.992	457.87
1006.275	436.09
1009.559	432.75
1012.842	418.17
1016.125	407.5
1019.408	399.63
1022.69	393.85
1025.972	383.83
1029.254	376.75
1032.536	370.96
1035.817	362.48
1039.098	358.2
1042.379	352.77
1045.659	346.76
1048.939	338.16
1052.219	331.68
1055.498	326.79
1058.778	319.52
1062.057	312.75
1065.335	308.71
1068.614	304.71
1071.892	302.01
1075.17	293.48
1078.447	286.93
1081.724	285.17
1085.001	282.74
1088.278	276.77
1091.554	272.01
1094.83	271.42
1098.106	269.47
1101.382	267.49
1104.657	266.15
1107.932	262.07
1111.206	263.14
1114.481	256.97
1117.755	254.55
1121.029	252.24
1124.302	251.8
1127.575	247.68
1130.848	245.4
1134.121	242.47
1137.393	240.57
1140.665	234.71
1143.937	232.94
1147.208	231.44
1150.48	230.62
1153.75	228.48
1157.021	226.09
1160.291	226.06
1163.561	222.77
1166.831	222.47
1170.101	220.73
1173.37	221.09
1176.639	222.04
1179.907	219.52
1183.176	216.78
1186.444	216.96
1189.711	216.09
1192.979	214.66
1196.246	213.7
1199.513	215.22
1202.78	213.65
1206.046	213.34
1209.312	211.04
1212.578	211.22
1215.843	213.21
1219.108	211.92
1222.373	215.73
1225.638	216.91
1228.902	219.78
1232.166	220.84
1235.43	221.09
1238.693	224.88
1241.956	225.64
1245.219	229.42
1248.482	229.32
1251.744	229.13
1255.006	229.91
1258.268	224.46
1261.529	222.96
1264.79	221.89
1268.051	220.24
1271.312	217.98
1274.572	215.4
1277.832	214.03
1281.092	209.66
1284.351	208.46
1287.61	208.52
1290.869	205.78
1294.128	204.75
1297.386	204.3
1300.644	201.97
1303.902	202.27
1307.159	201.75
1310.416	201.25
1313.673	200.78
1316.93	203.33
1320.186	203.07
1323.442	203.73
1326.697	206.54
1329.953	207.54
1333.208	208.68
1336.463	211.71
1339.717	211.9
1342.972	214.11
1346.226	216
1349.479	217.13
1352.733	218.3
1355.986	219.38
1359.238	218.86
1362.491	220.21
1365.743	221.67
1368.995	222.08
1372.247	222.25
1375.498	221.66
1378.749	223.73
1382	221.65
1385.251	221.98
1388.501	220.34
1391.751	220.97
1395	220.47
1398.25	218.82
1401.499	217.51
1404.748	216.79
1407.996	213.45
1411.244	212.85
1414.492	211.25
1417.74	208.77
1420.987	206.61
1424.234	205.65
1427.481	202.86
1430.728	202.69
1433.974	201.36
1437.22	199.3
1440.465	198.59
1443.711	197.03
1446.956	195.48
1450.201	193.72
1453.445	192.01
1456.689	190.48
1459.933	187.8
1463.177	187.45
1466.42	183.7
1469.663	180.75
1472.906	180.06
1476.148	175.87
1479.391	174.42
1482.633	173.07
1485.874	170.04
1489.115	168.93
1492.356	167.43
1495.597	166.68
1498.838	163.54
1502.078	163.22
1505.318	163.01
1508.557	162.44
1511.797	161.94
1515.036	160.71
1518.274	159.48
1521.513	158.77
1524.751	158.17
1527.989	157.58
1531.227	157.34
1534.464	157.42
1537.701	156.15
1540.938	155.72
1544.174	154.2
1547.41	154.49
1550.646	153.32
1553.882	154.33
1557.117	152.48
1560.352	151.76
1563.587	151.33
1566.821	150.22
1570.055	148.96
1573.289	147.65
1576.523	147.41
1579.756	146.62
1582.989	145.49
1586.222	145.19
1589.454	144.11
1592.686	145.04
1595.918	144.29
1599.15	143.44
1602.381	144.07
1605.612	143.97
1608.843	144.52
1612.073	144.36
1615.303	144.71
1618.533	144.69
1621.762	145.25
1624.992	145.58
1628.221	144.78
1631.449	144.94
1634.678	144.86
1637.906	145.39
1641.134	145.61
1644.361	145.43
1647.588	145.19
1650.815	144.92
1654.042	144.66
1657.269	144.79
1660.495	144.59
1663.72	144.79
1666.946	145.64
1670.171	146.02
1673.396	145.6
1676.621	145.59
1679.845	146.51
1683.069	146.81
1686.293	147.78
1689.517	148.55
1692.74	148.79
1695.963	148.72
1699.185	149.51
1702.408	149.65
1705.63	150.44
1708.852	150.46
1712.073	150.74
1715.294	150.67
1718.515	151.81
1721.736	151.23
1724.956	151.97
1728.176	152.02
1731.396	153.06
1734.616	153.15
1737.835	153.51
1741.054	152.07
1744.272	153.43
1747.491	154.41
1750.709	155.06
1753.927	154.98
1757.144	154.7
1760.361	154.78
1763.578	155.55
1766.795	155.52
1770.011	156.25
1773.227	156.01
1776.443	157.98
1779.658	157.72
1782.874	157.86
1786.089	157.89
1789.303	158.42
1792.518	159.99
1795.732	160.27
1798.945	160.87
1802.159	161.65
1805.372	162.04
1808.585	164.39
1811.797	165.25
1815.01	165.84
1818.222	166.89
1821.434	168.71
1824.645	169.01
1827.856	171.76
1831.067	173.13
1834.278	172.37
1837.488	173.69
1840.698	174.73
1843.908	173.88
1847.117	174.08
1850.326	174.97
1853.535	173.83
1856.744	175.54
1859.952	175.51
1863.16	174.58
1866.368	173.62
1869.575	175.26
1872.782	172.78
1875.989	172.18
1879.196	171.49
1882.402	170.9
1885.608	171.2
1888.814	171.97
1892.019	170.85
1895.224	170.53
1898.429	170
1901.634	170.51
1904.838	171
1908.042	172.71
1911.246	172.68
1914.449	173.94
1917.652	173.07
1920.855	173.01
1924.058	172.95
1927.26	172.65
1930.462	172.86
1933.664	174.3
1936.865	173
1940.066	172.92
1943.267	171.08
1946.467	171.86
1949.668	172.28
1952.868	175.06
1956.067	175.09
1959.267	175.61
1962.466	175.87
1965.665	175.57
1968.863	175.62
1972.061	179.23
1975.259	180.18
1978.457	182.6
1981.654	184.14
1984.852	184.85
1988.048	184.13
1991.245	185.83
1994.441	188.29
1997.637	189.05
2000.833	193.35
2004.028	196.23
2007.223	196.18
2010.418	198.19
2013.613	200.94
2016.807	202.97
2020.001	205.42
2023.194	209.08
2026.388	212.94
2029.581	217.53
2032.774	220.95
2035.966	223.3
2039.158	223.91
2042.35	228.24
2045.542	229.97
2048.733	233.8
2051.924	236.78
2055.115	240.36
2058.306	240.47
2061.496	243.22
2064.686	242.85
2067.875	247.05
2071.065	249.33
2074.254	247.93
2077.442	251.02
2080.631	252.06
2083.819	254.89
2087.007	255.78
2090.195	258.3
2093.382	260.19
2096.569	258.93
2099.756	263.87
2102.942	264.05
2106.128	265.63
2109.314	271.72
2112.5	270.46
2115.685	277.48
2118.87	277.57
2122.055	283.07
2125.239	285.07
2128.424	289.41
2131.608	290.34
2134.791	293.7
2137.974	294.63
2141.157	295.67
2144.34	297.03
2147.523	300.52
2150.705	297.66
2153.887	301.7
2157.068	301.84
2160.25	298.96
2163.431	300.2
2166.611	304.68
2169.792	309.75
2172.972	313.31
2176.152	316.34
2179.331	319.66
2182.511	324.92
2185.69	328.66
2188.868	335.18
2192.047	336.06
2195.225	346.51
2198.403	354.22
2201.58	361.86
2204.758	368.14
2207.935	375.65
2211.111	381.48
2214.288	386.8
2217.464	388.21
2220.64	395.63
2223.815	398.83
2226.991	414.73
2230.166	414.9
2233.34	421.79
2236.515	425.92
2239.689	428.05
2242.863	430.1
2246.036	442.53
2249.209	440.27
2252.382	447.61
2255.555	459.16
2258.727	461.12
2261.9	463.79
2265.071	469.1
2268.243	477.42
2271.414	483.59
2274.585	492.51
2277.756	497.28
2280.926	502.03
2284.096	513.06
2287.266	524
2290.436	527.05
2293.605	539.79
2296.774	554.35
2299.942	570.26
2303.111	575.14
2306.279	588.77
2309.447	597.33
2312.614	611.92
2315.781	628.01
2318.948	654.12
2322.115	647.93
2325.281	686.68
2328.447	668.7
2331.613	695.8
2334.779	690.21
2337.944	719.12
2341.109	726.07
2344.274	747.11
2347.438	773.75
2350.602	771.73
2353.766	798.62
2356.929	810.52
2360.092	801.74
2363.255	864.7
2366.418	863.9
2369.58	882.05
2372.742	928.4
2375.904	954.38
2379.066	946.2
2382.227	929.75
2385.388	1013.75
2388.548	1013.72
2391.709	1021.78
2394.869	1141.19
2398.029	1092.8
2401.188	1122.34
2404.347	1113.13
2407.506	1101.58
2410.665	1128.28
2413.823	1197.84
2416.981	1270.77
2420.139	1224.59
2423.296	1215.99
2426.453	1271.34
2429.61	1215.63
2432.767	1270.02
2435.923	1256.53
2439.079	1373.87
2442.235	1394.45
2445.391	1385.84
2448.546	1369.54
2451.701	1332.87
2454.855	1331.91
2458.009	1403.1
2461.163	1463.12
2464.317	1525.27
2467.471	1561.68
2470.624	1563.11
2473.777	1519.15
2476.929	1483.31
2480.082	1433.79
2483.234	1422.78
2486.385	1495.16
2489.537	1501.3
2492.688	1557.75
2495.839	1516.29
2498.989	1479.45
2502.14	1488.51
2505.29	1500.53
2508.439	1534.64
2511.589	1526.33
2514.738	1667.93
2517.887	1627.76
2521.035	1710.62
2524.183	1729.85
2527.331	1741.17
2530.479	1728.22
2533.627	1740
