Data from C_1_DIV_OH_2N_Splice17_12-51-43-541.txt Node
Date: Sat Mar 07 12:51:43 EST 2020
User: sa697716
Spectrometer: NQ5500242
Trigger mode: 0
Integration Time (sec): 1.450000E-1
Scans to average: 20
Nonlinearity correction enabled: false
Boxcar width: 5
Storing dark spectrum: false
XAxis mode: Wavelengths
Number of Pixels in Spectrum: 512
>>>>>Begin Spectral Data<<<<<
187.83	77.87
188.298	87.6
188.766	78.97
189.233	54.25
189.701	46.04
190.169	70.84
190.636	58.65
191.104	57.13
191.571	119.32
192.039	229.2
192.506	313.87
192.974	188.35
193.441	284.12
193.908	127.95
194.375	47.65
194.842	15.16
195.31	97.59
195.777	36.47
196.244	24.91
196.711	32.57
197.177	33.22
197.644	31.7
198.111	30.37
198.578	30.83
199.045	31.54
199.511	31.57
199.978	31.6
200.445	31.74
200.911	31.98
201.378	32.12
201.844	32.08
202.31	32.03
202.777	32.04
203.243	32.25
203.709	31.78
204.176	31.38
204.642	31.36
205.108	31.34
205.574	31.12
206.04	30.59
206.506	30.5
206.972	30.44
207.438	30.18
207.903	30.05
208.369	29.55
208.835	29.17
209.301	28.57
209.766	27.42
210.232	26.65
210.697	25.9
211.163	25.47
211.628	24.82
212.094	24.05
212.559	23.53
213.024	22.96
213.49	22.42
213.955	21.97
214.42	21.7
214.885	21.54
215.35	20.94
215.815	19.94
216.28	18.76
216.745	17.34
217.21	16.12
217.675	14.88
218.14	13.83
218.604	13
219.069	12.27
219.534	11.61
219.998	11.05
220.463	10.59
220.927	10.18
221.392	9.9
221.856	9.64
222.32	9.43
222.785	9.26
223.249	9.09
223.713	8.92
224.177	8.78
224.642	8.64
225.106	8.47
225.57	8.33
226.034	8.2
226.497	8.09
226.961	7.98
227.425	7.85
227.889	7.75
228.353	7.63
228.816	7.5
229.28	7.38
229.744	7.29
230.207	7.2
230.671	7.1
231.134	7.03
231.597	6.94
232.061	6.86
232.524	6.76
232.987	6.67
233.45	6.61
233.914	6.54
234.377	6.47
234.84	6.4
235.303	6.35
235.766	6.29
236.229	6.23
236.691	6.16
237.154	6.11
237.617	6.06
238.08	6.01
238.542	5.95
239.005	5.9
239.468	5.85
239.93	5.79
240.393	5.75
240.855	5.69
241.317	5.63
241.78	5.58
242.242	5.52
242.704	5.48
243.166	5.44
243.629	5.4
244.091	5.36
244.553	5.31
245.015	5.27
245.477	5.22
245.939	5.18
246.4	5.15
246.862	5.12
247.324	5.08
247.786	5.04
248.247	5
248.709	4.95
249.17	4.89
249.632	4.87
250.093	4.84
250.555	4.82
251.016	4.79
251.477	4.76
251.939	4.73
252.4	4.7
252.861	4.67
253.322	4.65
253.783	4.62
254.244	4.61
254.705	4.58
255.166	4.55
255.627	4.51
256.088	4.49
256.549	4.47
257.009	4.44
257.47	4.42
257.931	4.39
258.391	4.35
258.852	4.33
259.312	4.3
259.773	4.28
260.233	4.26
260.694	4.24
261.154	4.22
261.614	4.19
262.074	4.16
262.534	4.13
262.994	4.11
263.455	4.1
263.915	4.08
264.374	4.07
264.834	4.05
265.294	4.03
265.754	4.01
266.214	4
266.673	3.99
267.133	3.98
267.593	3.98
268.052	3.97
268.512	3.96
268.971	3.94
269.431	3.93
269.89	3.91
270.349	3.91
270.809	3.89
271.268	3.88
271.727	3.87
272.186	3.85
272.645	3.84
273.104	3.83
273.563	3.82
274.022	3.81
274.481	3.8
274.94	3.8
275.399	3.78
275.857	3.77
276.316	3.76
276.775	3.75
277.233	3.74
277.692	3.74
278.15	3.72
278.609	3.72
279.067	3.71
279.525	3.69
279.984	3.68
280.442	3.67
280.9	3.67
281.358	3.66
281.816	3.65
282.274	3.64
282.732	3.63
283.19	3.61
283.648	3.6
284.106	3.58
284.564	3.57
285.021	3.57
285.479	3.56
285.937	3.54
286.394	3.53
286.852	3.53
287.309	3.52
287.767	3.5
288.224	3.5
288.682	3.49
289.139	3.48
289.596	3.47
290.053	3.45
290.511	3.44
290.968	3.44
291.425	3.42
291.882	3.4
292.339	3.39
292.796	3.38
293.252	3.37
293.709	3.37
294.166	3.36
294.623	3.34
295.079	3.33
295.536	3.32
295.992	3.31
296.449	3.31
296.905	3.31
297.362	3.3
297.818	3.29
298.274	3.28
298.731	3.27
299.187	3.26
299.643	3.25
300.099	3.25
300.555	3.24
301.011	3.23
301.467	3.22
301.923	3.2
302.379	3.19
302.835	3.19
303.291	3.18
303.746	3.17
304.202	3.17
304.658	3.17
305.113	3.16
305.569	3.16
306.024	3.16
306.479	3.16
306.935	3.15
307.39	3.15
307.845	3.15
308.301	3.15
308.756	3.15
309.211	3.14
309.666	3.14
310.121	3.13
310.576	3.13
311.031	3.13
311.486	3.13
311.94	3.14
312.395	3.14
312.85	3.14
313.305	3.13
313.759	3.13
314.214	3.12
314.668	3.12
315.123	3.12
315.577	3.11
316.032	3.11
316.486	3.1
316.94	3.09
317.394	3.08
317.849	3.08
318.303	3.07
318.757	3.06
319.211	3.06
319.665	3.04
320.119	3.03
320.572	3.03
321.026	3.02
321.48	3.01
321.934	3
322.387	2.99
322.841	2.99
323.295	2.99
323.748	2.98
324.202	2.98
324.655	2.98
325.108	2.98
325.562	2.98
326.015	2.98
326.468	2.98
326.921	2.98
327.374	2.98
327.827	2.98
328.28	2.97
328.733	2.97
329.186	2.96
329.639	2.96
330.092	2.95
330.545	2.95
330.997	2.95
331.45	2.95
331.903	2.95
332.355	2.95
332.808	2.95
333.26	2.95
333.713	2.94
334.165	2.94
334.617	2.94
335.069	2.94
335.522	2.94
335.974	2.94
336.426	2.94
336.878	2.93
337.33	2.93
337.782	2.93
338.234	2.94
338.686	2.94
339.137	2.94
339.589	2.93
340.041	2.93
340.493	2.93
340.944	2.91
341.396	2.91
341.847	2.9
342.299	2.89
342.75	2.87
343.201	2.86
343.653	2.86
344.104	2.84
344.555	2.85
345.006	2.84
345.457	2.84
345.908	2.84
346.359	2.84
346.81	2.84
347.261	2.84
347.712	2.84
348.163	2.82
348.613	2.83
349.064	2.83
349.515	2.82
349.965	2.83
350.416	2.82
350.866	2.82
351.317	2.82
351.767	2.82
352.217	2.82
352.668	2.82
353.118	2.83
353.568	2.82
354.018	2.83
354.468	2.84
354.918	2.83
355.368	2.84
355.818	2.85
356.268	2.85
356.718	2.86
357.168	2.86
357.617	2.86
358.067	2.85
358.517	2.87
358.966	2.87
359.416	2.87
359.865	2.87
360.315	2.87
360.764	2.88
361.213	2.87
361.663	2.87
362.112	2.88
362.561	2.89
363.01	2.9
363.459	2.9
363.908	2.9
364.357	2.91
364.806	2.91
365.255	2.92
365.703	2.93
366.152	2.94
366.601	2.95
367.05	2.96
367.498	2.96
367.947	2.98
368.395	2.99
368.844	2.99
369.292	3.01
369.74	3.02
370.189	3.03
370.637	3.03
371.085	3.04
371.533	3.06
371.981	3.08
372.429	3.09
372.877	3.11
373.325	3.13
373.773	3.14
374.221	3.16
374.669	3.18
375.116	3.19
375.564	3.21
376.012	3.23
376.459	3.24
376.907	3.26
377.354	3.29
377.801	3.31
378.249	3.33
378.696	3.35
379.143	3.38
379.591	3.41
380.038	3.44
380.485	3.47
380.932	3.5
381.379	3.54
381.826	3.57
382.273	3.59
382.72	3.62
383.166	3.65
383.613	3.69
384.06	3.72
384.506	3.75
384.953	3.79
385.4	3.83
385.846	3.86
386.292	3.89
386.739	3.92
387.185	3.95
387.631	3.99
388.078	4.03
388.524	4.07
388.97	4.1
389.416	4.14
389.862	4.17
390.308	4.21
390.754	4.25
391.2	4.29
391.645	4.31
392.091	4.36
392.537	4.41
392.983	4.44
393.428	4.47
393.874	4.51
394.319	4.55
394.765	4.58
395.21	4.61
395.655	4.64
396.101	4.67
396.546	4.7
396.991	4.73
397.436	4.75
397.881	4.79
398.326	4.82
398.771	4.84
399.216	4.87
399.661	4.89
400.106	4.9
400.551	4.91
400.995	4.93
401.44	4.95
401.885	4.96
402.329	4.97
402.774	4.98
403.218	5
403.663	5
404.107	5.01
404.551	5.02
404.995	5.03
405.44	5.04
405.884	5.04
406.328	5.04
406.772	5.04
407.216	5.04
407.66	5.04
408.104	5.03
408.547	5.03
408.991	5.02
409.435	5.02
409.879	5.02
410.322	5.03
410.766	5.04
411.209	5.05
411.653	5.07
412.096	5.08
412.54	5.09
412.983	5.09
413.426	5.11
413.869	5.12
414.312	5.15
414.756	5.18
415.199	5.17
415.642	5.16
416.085	5.16
416.527	5.15
416.97	5.12
417.413	5.12
417.856	5.13
418.298	5.12
418.741	5.12
419.184	5.11
419.626	5.1
420.069	5.11
420.511	5.12
420.953	5.13
421.396	5.13
421.838	5.15
422.28	5.15
422.722	5.18
423.164	5.18
423.606	5.19
424.048	5.2
424.49	5.2
424.932	5.2
425.374	5.18
425.816	5.16
426.258	5.15
426.699	5.14
427.141	5.14
427.582	5.13
428.024	5.14
428.465	5.14
428.907	5.12
429.348	5.11
429.789	5.1
430.231	5.11
430.672	5.14
431.113	5.15
431.554	5.15
431.995	5.17
432.436	5.17
432.877	5.17
433.318	5.18
433.759	5.21
434.2	5.24
434.64	5.25
435.081	5.26
435.522	5.26
435.962	5.28
436.403	5.3
436.843	5.31
437.284	5.32
437.724	5.34
438.164	5.34
438.604	5.36
439.045	5.38
439.485	5.4
439.925	5.41
440.365	5.43
440.805	5.45
441.245	5.49
441.685	5.52
442.125	5.55
442.564	5.58
443.004	5.62
443.444	5.63
443.883	5.66
444.323	5.68
444.762	5.72
445.202	5.75
445.641	5.79
446.081	5.82
446.52	5.85
446.959	5.89
447.398	5.92
447.837	5.96
448.276	5.99
448.716	6.04
449.154	6.1
449.593	6.16
450.032	6.19
450.471	6.2
450.91	6.22
451.349	6.24
451.787	6.25
452.226	6.28
452.664	6.31
453.103	6.32
453.541	6.33
453.98	6.34
454.418	6.34
454.856	6.35
455.295	6.36
455.733	6.35
456.171	6.36
456.609	6.36
457.047	6.36
457.485	6.35
457.923	6.35
458.361	6.35
458.798	6.34
459.236	6.33
459.674	6.33
460.111	6.33
460.549	6.34
460.987	6.34
461.424	6.35
461.862	6.35
462.299	6.36
462.736	6.36
463.173	6.37
463.611	6.36
464.048	6.37
464.485	6.38
464.922	6.37
465.359	6.38
465.796	6.39
466.233	6.38
466.67	6.39
467.106	6.4
467.543	6.39
467.98	6.39
468.416	6.4
468.853	6.41
469.29	6.41
469.726	6.42
470.162	6.43
470.599	6.43
471.035	6.43
471.471	6.42
471.907	6.43
472.344	6.45
472.78	6.47
473.216	6.46
473.652	6.47
474.088	6.47
474.523	6.47
474.959	6.48
475.395	6.48
475.831	6.5
476.266	6.51
476.702	6.51
477.138	6.5
477.573	6.5
478.008	6.5
478.444	6.5
478.879	6.51
479.314	6.52
479.75	6.52
480.185	6.51
480.62	6.51
481.055	6.51
481.49	6.51
481.925	6.52
482.36	6.52
482.795	6.54
483.229	6.54
483.664	6.55
484.099	6.56
484.534	6.56
484.968	6.58
485.403	6.59
485.837	6.62
486.271	6.65
486.706	6.67
487.14	6.7
487.574	6.73
488.009	6.76
488.443	6.79
488.877	6.84
489.311	6.88
489.745	6.93
490.179	6.98
490.613	7.04
491.046	7.1
491.48	7.15
491.914	7.21
492.348	7.27
492.781	7.35
493.215	7.42
493.648	7.5
494.082	7.57
494.515	7.64
494.948	7.72
495.382	7.8
495.815	7.88
496.248	7.98
496.681	8.07
497.114	8.17
497.547	8.26
497.98	8.36
498.413	8.46
498.846	8.57
499.279	8.69
499.711	8.8
500.144	8.93
500.577	9.06
501.009	9.18
501.442	9.31
501.874	9.46
502.306	9.6
502.739	9.76
503.171	9.91
503.603	10.07
504.036	10.23
504.468	10.4
504.9	10.56
505.332	10.73
505.764	10.91
506.196	11.09
506.627	11.29
507.059	11.49
507.491	11.69
507.923	11.89
508.354	12.11
508.786	12.33
509.217	12.54
509.649	12.76
510.08	12.97
510.512	13.21
510.943	13.43
511.374	13.65
511.805	13.88
512.237	14.09
512.668	14.33
513.099	14.56
513.53	14.78
513.961	15.01
514.391	15.26
514.822	15.51
515.253	15.74
515.684	15.97
516.114	16.21
516.545	16.44
516.975	16.68
517.406	16.91
517.836	17.14
518.267	17.37
518.697	17.58
519.127	17.78
519.558	18
519.988	18.24
520.418	18.43
520.848	18.64
521.278	18.85
521.708	19.18
522.138	19.37
522.567	19.55
522.997	19.73
523.427	19.93
523.857	20.11
524.286	20.28
524.716	20.44
525.145	20.61
525.575	20.76
526.004	20.91
526.433	20.93
526.863	21.09
527.292	21.23
527.721	21.36
528.15	21.46
528.579	21.58
529.008	21.7
529.437	21.79
529.866	21.88
530.295	21.98
530.724	22.06
531.152	22.14
531.581	22.22
532.01	22.31
532.438	22.39
532.867	22.48
533.295	22.55
533.723	22.62
534.152	22.68
534.58	22.75
535.008	22.8
535.436	22.86
535.865	22.91
536.293	22.96
536.721	23
537.149	23.04
537.576	23.08
538.004	23.12
538.432	23.15
538.86	23.2
539.287	23.21
539.715	23.26
540.143	23.28
540.57	23.3
540.998	23.32
541.425	23.34
541.852	23.37
542.28	23.39
542.707	23.4
543.134	23.42
543.561	23.43
543.988	23.46
544.415	23.47
544.842	23.48
545.269	23.51
545.696	23.52
546.123	23.54
546.549	23.55
546.976	23.57
547.403	23.58
547.829	23.58
548.256	23.59
548.682	23.59
549.108	23.6
549.535	23.6
549.961	23.61
550.387	23.61
550.813	23.62
551.24	23.62
551.666	23.61
552.092	23.61
552.518	23.63
552.943	23.62
553.369	23.61
553.795	23.59
554.221	23.59
554.646	23.57
555.072	23.54
555.498	23.5
555.923	23.46
556.349	23.42
556.774	23.38
557.199	23.33
557.625	23.28
558.05	23.25
558.475	23.21
558.9	23.15
559.325	23.11
559.75	23.07
560.175	23.03
560.6	22.98
561.025	22.92
561.449	22.88
561.874	22.81
562.299	22.76
562.723	22.69
563.148	22.61
563.572	22.54
563.997	22.46
564.421	22.37
564.846	22.28
565.27	22.2
565.694	22.11
566.118	22.01
566.542	21.93
566.966	21.84
567.39	21.75
567.814	21.65
568.238	21.56
568.662	21.46
569.086	21.37
569.509	21.28
569.933	21.19
570.357	21.1
570.78	20.99
571.204	20.88
571.627	20.78
572.05	20.68
572.474	20.59
572.897	20.5
573.32	20.39
573.743	20.29
574.166	20.2
574.589	20.11
575.012	20.02
575.435	19.94
575.858	19.86
576.281	19.78
576.704	19.71
577.126	19.63
577.549	19.55
577.972	19.49
578.394	19.43
578.817	19.37
579.239	19.3
579.661	19.24
580.084	19.18
580.506	19.13
580.928	19.08
581.35	19.01
581.772	18.95
582.194	18.89
582.616	18.84
583.038	18.78
583.46	18.71
583.882	18.66
584.303	18.61
584.725	18.55
585.147	18.48
585.568	18.43
585.99	18.39
586.411	18.34
586.833	18.29
587.254	18.24
587.675	18.2
588.096	18.15
588.518	18.11
588.939	18.07
589.36	18.02
589.781	18
590.202	17.97
590.623	17.93
591.043	17.91
591.464	17.89
591.885	17.86
592.305	17.84
592.726	17.82
593.147	17.8
593.567	17.78
593.987	17.76
594.408	17.73
594.828	17.71
595.248	17.68
595.669	17.65
596.089	17.61
596.509	17.59
596.929	17.56
597.349	17.53
597.769	17.49
598.189	17.46
598.608	17.43
599.028	17.4
599.448	17.35
599.867	17.32
600.287	17.29
600.706	17.26
601.126	17.23
601.545	17.2
601.965	17.18
602.384	17.14
602.803	17.1
603.222	17.05
603.641	17.01
604.061	16.98
604.48	16.93
604.898	16.88
605.317	16.83
605.736	16.77
606.155	16.72
606.574	16.65
606.992	16.59
607.411	16.54
607.829	16.47
608.248	16.39
608.666	16.32
609.085	16.27
609.503	16.21
609.921	16.15
610.339	16.09
610.758	16.02
611.176	15.96
611.594	15.89
612.012	15.81
612.43	15.76
612.847	15.7
613.265	15.64
613.683	15.58
614.101	15.51
614.518	15.44
614.936	15.37
615.353	15.3
615.771	15.25
616.188	15.2
616.606	15.15
617.023	15.09
617.44	15.05
617.857	15.01
618.274	14.96
618.691	14.92
619.108	14.87
619.525	14.83
619.942	14.79
620.359	14.75
620.776	14.71
621.192	14.68
621.609	14.67
622.026	14.63
622.442	14.6
622.859	14.59
623.275	14.57
623.691	14.56
624.108	14.55
624.524	14.53
624.94	14.53
625.356	14.53
625.772	14.52
626.188	14.51
626.604	14.51
627.02	14.5
627.436	14.47
627.852	14.47
628.268	14.45
628.683	14.44
629.099	14.43
629.514	14.41
629.93	14.39
630.345	14.37
630.761	14.34
631.176	14.31
631.591	14.27
632.007	14.24
632.422	14.2
632.837	14.15
633.252	14.11
633.667	14.06
634.082	13.99
634.497	13.94
634.911	13.85
635.326	13.78
635.741	13.7
636.155	13.62
636.57	13.55
636.984	13.46
637.399	13.36
637.813	13.27
638.228	13.16
638.642	13.05
639.056	12.95
639.47	12.85
639.884	12.74
640.298	12.62
640.712	12.52
641.126	12.39
641.54	12.27
641.954	12.16
642.368	12.05
642.781	11.94
643.195	11.83
643.609	11.72
644.022	11.61
644.436	11.51
644.849	11.41
645.262	11.31
645.676	11.22
646.089	11.13
646.502	11.06
646.915	10.98
647.328	10.9
647.741	10.83
648.154	10.76
648.567	10.69
648.98	10.62
649.393	10.56
649.805	10.52
650.218	10.46
650.631	10.41
651.043	10.36
651.456	10.31
651.868	10.26
652.28	10.2
652.693	10.15
653.105	10.11
653.517	10.05
653.929	10
654.341	9.92
654.753	9.85
655.165	9.78
655.577	9.7
655.989	9.61
656.401	9.53
656.813	9.45
657.224	9.35
657.636	9.25
658.047	9.15
658.459	9.04
658.87	8.92
659.282	8.79
659.693	8.67
660.104	8.55
660.515	8.43
660.926	8.31
661.338	8.18
661.749	8.05
662.159	7.93
662.57	7.83
662.981	7.73
663.392	7.63
663.803	7.54
664.213	7.43
664.624	7.34
665.035	7.25
665.445	7.17
665.855	7.09
666.266	7.03
666.676	6.97
667.086	6.89
667.497	6.83
667.907	6.77
668.317	6.73
668.727	6.67
669.137	6.63
669.547	6.59
669.956	6.55
670.366	6.53
670.776	6.49
671.186	6.45
671.595	6.43
672.005	6.41
672.414	6.4
672.824	6.36
673.233	6.36
673.642	6.35
674.052	6.33
674.461	6.33
674.87	6.31
675.279	6.33
675.688	6.33
676.097	6.35
676.506	6.37
676.915	6.39
677.323	6.43
677.732	6.46
678.141	6.5
678.549	6.55
678.958	6.61
679.366	6.68
679.775	6.74
680.183	6.83
680.592	6.93
681	7.03
681.408	7.16
681.816	7.3
682.224	7.47
682.632	7.64
683.04	7.82
683.448	8.03
683.856	8.24
684.264	8.5
684.671	8.76
685.079	9.03
685.487	9.33
685.894	9.65
686.302	9.97
686.709	10.31
687.116	10.67
687.524	11.06
687.931	11.47
688.338	11.88
688.745	12.3
689.152	12.71
689.559	13.17
689.966	13.61
690.373	14.06
690.78	14.51
691.187	14.97
691.593	15.42
692	15.88
692.407	16.33
692.813	16.79
693.22	17.22
693.626	17.67
694.032	18.1
694.439	18.51
694.845	18.93
695.251	19.35
695.657	19.75
696.063	20.15
696.469	20.54
696.875	20.92
697.281	21.29
697.687	21.67
698.093	22.02
698.498	22.36
698.904	22.71
699.31	23.04
699.715	23.36
700.12	23.67
700.526	23.99
700.931	24.29
701.337	24.56
701.742	24.85
702.147	25.11
702.552	25.38
702.957	25.63
703.362	25.88
703.767	26.12
704.172	26.36
704.577	26.59
704.981	26.81
705.386	27.03
705.791	27.24
706.195	27.45
706.6	27.66
707.004	27.85
707.408	28.07
707.813	28.27
708.217	28.46
708.621	28.65
709.025	28.81
709.43	28.97
709.834	29.14
710.237	29.31
710.641	29.48
711.045	29.63
711.449	29.81
711.853	29.95
712.256	30.09
712.66	30.25
713.064	30.38
713.467	30.54
713.87	30.69
714.274	30.8
714.677	30.93
715.08	31.06
715.484	31.19
715.887	31.3
716.29	31.41
716.693	31.53
717.096	31.64
717.499	31.74
717.901	31.82
718.304	31.93
718.707	32.03
719.109	32.14
719.512	32.24
719.915	32.33
720.317	32.4
720.719	32.5
721.122	32.58
721.524	32.65
721.926	32.75
722.328	32.85
722.731	32.91
723.133	33.01
723.535	33.06
723.937	33.12
724.338	33.17
724.74	33.24
725.142	33.36
725.544	33.41
725.945	33.5
726.347	33.53
726.748	33.58
727.15	33.63
727.551	33.67
727.952	33.71
728.354	33.77
728.755	33.8
729.156	33.84
729.557	33.8
729.958	33.84
730.359	33.87
730.76	33.92
731.161	33.95
731.562	33.99
731.962	34.01
732.363	34.05
732.763	34.08
733.164	34.13
733.564	34.18
733.965	34.2
734.365	34.24
734.766	34.25
735.166	34.28
735.566	34.28
735.966	34.31
736.366	34.32
736.766	34.34
737.166	34.35
737.566	34.37
737.966	34.37
738.365	34.38
738.765	34.41
739.165	34.41
739.564	34.41
739.964	34.44
740.363	34.43
740.763	34.46
741.162	34.48
741.561	34.48
741.96	34.47
742.36	34.47
742.759	34.49
743.158	34.49
743.557	34.5
743.955	34.53
744.354	34.54
744.753	34.57
745.152	34.58
745.55	34.58
745.949	34.61
746.348	34.6
746.746	34.62
747.144	34.64
747.543	34.63
747.941	34.64
748.339	34.64
748.737	34.65
749.136	34.65
749.534	34.62
749.932	34.61
750.33	34.61
750.727	34.63
751.125	34.61
751.523	34.59
751.921	34.62
752.318	34.62
752.716	34.62
753.113	34.61
753.511	34.59
753.908	34.64
754.305	34.64
754.703	34.63
755.1	34.62
755.497	34.62
755.894	34.61
756.291	34.59
756.688	34.55
757.085	34.55
757.482	34.54
757.878	34.51
758.275	34.48
758.672	34.46
759.068	34.47
759.465	34.46
759.861	34.46
760.258	34.47
760.654	34.49
761.05	34.51
761.447	34.51
761.843	34.51
762.239	34.51
762.635	34.49
763.031	34.52
763.427	34.5
763.822	34.51
764.218	34.5
764.614	34.5
765.01	34.46
765.405	34.46
765.801	34.45
766.196	34.45
766.592	34.44
766.987	34.47
767.382	34.43
767.778	34.42
768.173	34.43
768.568	34.43
768.963	34.42
769.358	34.42
769.753	34.4
770.148	34.4
770.542	34.39
770.937	34.4
771.332	34.39
771.726	34.37
772.121	34.37
772.515	34.35
772.91	34.36
773.304	34.36
773.699	34.37
774.093	34.36
774.487	34.35
774.881	34.36
775.275	34.37
775.669	34.33
776.063	34.33
776.457	34.33
776.851	34.32
777.245	34.29
777.638	34.27
778.032	34.27
778.425	34.28
778.819	34.29
779.212	34.3
779.606	34.31
779.999	34.33
780.392	34.34
780.786	34.33
781.179	34.35
781.572	34.37
781.965	34.41
782.358	34.41
782.751	34.4
783.143	34.39
783.536	34.37
783.929	34.35
784.322	34.35
784.714	34.35
785.107	34.38
785.499	34.37
785.891	34.36
786.284	34.33
786.676	34.33
787.068	34.29
787.46	34.29
787.852	34.31
788.245	34.3
788.636	34.3
789.028	34.32
789.42	34.29
789.812	34.3
790.204	34.3
790.595	34.29
790.987	34.29
791.378	34.32
791.77	34.32
792.161	34.3
792.553	34.32
792.944	34.32
793.335	34.29
793.726	34.3
794.117	34.26
794.508	34.24
794.899	34.25
795.29	34.24
795.681	34.2
796.072	34.2
796.463	34.18
796.853	34.14
797.244	34.13
797.634	34.14
798.025	34.16
798.415	34.14
798.806	34.13
799.196	34.11
799.586	34.11
799.976	34.13
800.366	34.13
800.756	34.14
801.146	34.17
801.536	34.16
801.926	34.13
802.316	34.09
802.706	34.12
803.095	34.15
803.485	34.16
803.874	34.13
804.264	34.13
804.653	34.15
805.043	34.14
805.432	34.11
805.821	34.11
806.21	34.12
806.599	34.12
806.988	34.1
807.377	34.08
807.766	34.07
808.155	34.04
808.544	34.03
808.933	34
809.321	33.97
809.71	33.97
810.098	33.93
810.487	33.92
810.875	33.92
811.264	33.9
811.652	33.9
812.04	33.89
812.428	33.9
812.816	33.87
813.204	33.85
813.592	33.85
813.98	33.85
814.368	33.85
814.756	33.83
815.144	33.82
815.531	33.82
815.919	33.79
816.306	33.81
816.694	33.79
817.081	33.79
817.469	33.81
817.856	33.8
818.243	33.78
818.63	33.77
819.017	33.76
819.404	33.74
819.791	33.73
820.178	33.74
820.565	33.73
820.952	33.73
821.339	33.74
821.725	33.73
822.112	33.74
822.498	33.76
822.885	33.77
823.271	33.77
823.657	33.76
824.044	33.77
824.43	33.79
824.816	33.79
825.202	33.77
825.588	33.77
825.974	33.77
826.36	33.75
826.746	33.73
827.132	33.71
827.517	33.72
827.903	33.74
828.289	33.72
828.674	33.68
829.06	33.69
829.445	33.7
829.83	33.69
830.216	33.66
830.601	33.66
830.986	33.67
831.371	33.68
831.756	33.69
832.141	33.68
832.526	33.69
832.911	33.7
833.295	33.68
833.68	33.67
834.065	33.67
834.449	33.67
834.834	33.65
835.218	33.63
835.603	33.62
835.987	33.6
836.371	33.58
836.755	33.57
837.139	33.56
837.524	33.55
837.908	33.58
838.291	33.59
838.675	33.58
839.059	33.59
839.443	33.58
839.827	33.58
840.21	33.58
840.594	33.58
840.977	33.58
841.361	33.57
841.744	33.55
842.127	33.53
842.511	33.52
842.894	33.52
843.277	33.49
843.66	33.49
844.043	33.48
844.426	33.48
844.809	33.49
845.191	33.47
845.574	33.48
845.957	33.49
846.339	33.49
846.722	33.48
847.104	33.49
847.487	33.5
847.869	33.5
848.252	33.48
848.634	33.47
849.016	33.46
849.398	33.45
849.78	33.43
850.162	33.43
850.544	33.42
850.926	33.42
851.307	33.4
851.689	33.41
852.071	33.4
852.452	33.42
852.834	33.41
853.215	33.38
853.597	33.39
853.978	33.4
854.359	33.38
854.741	33.38
855.122	33.36
855.503	33.35
855.884	33.34
856.265	33.34
856.646	33.31
857.026	33.31
857.407	33.34
857.788	33.33
858.169	33.33
858.549	33.34
858.93	33.33
859.31	33.33
859.69	33.34
860.071	33.34
860.451	33.33
860.831	33.33
861.211	33.33
861.591	33.3
861.971	33.29
862.351	33.29
862.731	33.27
863.111	33.27
863.491	33.27
863.87	33.26
864.25	33.25
864.629	33.26
865.009	33.27
865.388	33.26
865.768	33.27
866.147	33.26
866.526	33.26
866.905	33.29
867.284	33.29
867.663	33.28
868.042	33.28
868.421	33.3
868.8	33.3
869.179	33.28
869.558	33.27
869.936	33.27
870.315	33.28
870.693	33.26
871.072	33.26
871.45	33.25
871.828	33.26
872.207	33.26
872.585	33.23
872.963	33.22
873.341	33.22
873.719	33.23
874.097	33.21
874.475	33.23
874.853	33.24
875.23	33.25
875.608	33.24
875.986	33.26
876.363	33.25
876.741	33.25
877.118	33.27
877.495	33.28
877.873	33.29
878.25	33.31
878.627	33.31
879.004	33.31
879.381	33.32
879.758	33.3
880.135	33.29
880.512	33.29
880.889	33.3
881.265	33.28
881.642	33.29
882.019	33.3
882.395	33.3
882.772	33.28
883.148	33.27
883.524	33.26
883.901	33.27
884.277	33.26
884.653	33.25
885.029	33.23
885.405	33.23
885.781	33.22
886.157	33.2
886.532	33.2
886.908	33.19
887.284	33.2
887.659	33.19
888.035	33.18
888.411	33.19
888.786	33.18
889.161	33.2
889.537	33.2
889.912	33.18
890.287	33.19
890.662	33.18
891.037	33.18
891.412	33.17
891.787	33.15
892.162	33.16
892.536	33.13
892.911	33.13
893.286	33.12
893.66	33.11
894.035	33.11
894.409	33.1
894.784	33.09
895.158	33.06
895.532	33.06
895.906	33.06
896.281	33.05
896.655	33.05
897.029	33.06
897.402	33.05
897.776	33.07
898.15	33.07
898.524	33.08
898.898	33.08
899.271	33.1
899.645	33.1
900.018	33.1
900.392	33.12
900.765	33.14
901.138	33.14
901.511	33.13
901.884	33.12
902.258	33.13
902.631	33.11
903.003	33.12
903.376	33.12
903.749	33.1
904.122	33.11
904.495	33.11
904.867	33.09
905.24	33.08
905.612	33.1
905.985	33.1
906.357	33.09
906.729	33.1
907.102	33.07
907.474	33.1
907.846	33.11
908.218	33.09
908.59	33.08
908.962	33.1
909.334	33.11
909.705	33.08
910.077	33.09
910.449	33.1
910.82	33.11
911.192	33.11
911.563	33.08
911.935	33.08
912.306	33.08
912.677	33.09
913.048	33.09
913.419	33.09
913.79	33.11
914.161	33.09
914.532	33.1
914.903	33.1
915.274	33.11
915.645	33.13
916.015	33.14
916.386	33.15
916.756	33.15
917.127	33.17
917.497	33.17
917.868	33.16
918.238	33.15
918.608	33.16
918.978	33.15
919.348	33.16
919.718	33.14
920.088	33.15
920.458	33.16
920.828	33.16
921.198	33.14
921.567	33.16
921.937	33.16
922.306	33.17
922.676	33.17
923.045	33.17
923.415	33.15
923.784	33.15
924.153	33.16
924.522	33.17
924.891	33.14
925.26	33.13
925.629	33.12
925.998	33.13
926.367	33.14
926.736	33.14
927.104	33.15
927.473	33.15
927.842	33.16
928.21	33.16
928.578	33.17
928.947	33.22
929.315	33.22
929.683	33.2
930.051	33.18
930.42	33.19
930.788	33.16
931.156	33.14
931.523	33.15
931.891	33.16
932.259	33.15
932.627	33.14
932.994	33.12
933.362	33.13
933.729	33.19
934.097	33.2
934.464	33.2
934.831	33.25
935.199	33.26
935.566	33.28
935.933	33.25
936.3	33.24
936.667	33.22
937.034	33.22
937.401	33.24
937.767	33.21
938.134	33.22
938.501	33.19
938.867	33.17
939.234	33.14
939.6	33.09
939.967	33.07
940.333	33.06
940.699	33.09
941.065	33.04
941.431	33.04
941.798	33.01
942.163	32.98
942.529	33.01
942.895	32.99
943.261	32.99
943.627	33.05
943.992	33.03
944.358	33.05
944.723	33.03
945.089	32.95
945.454	32.93
945.82	32.9
946.185	32.91
946.55	32.85
946.915	32.83
947.28	32.83
947.645	32.8
948.01	32.87
948.375	32.84
948.74	32.82
949.104	32.88
949.469	32.85
949.834	32.84
950.198	32.8
950.562	32.79
950.927	32.76
951.291	32.68
951.655	32.63
952.02	32.61
952.384	32.58
952.748	32.56
953.112	32.56
953.476	32.56
953.839	32.55
954.203	32.53
954.567	32.53
954.931	32.53
955.294	32.57
955.658	32.62
956.021	32.6
956.385	32.64
956.748	32.65
957.111	32.6
957.474	32.58
957.837	32.55
958.2	32.57
958.563	32.56
958.926	32.6
959.289	32.61
959.652	32.6
960.015	32.58
960.377	32.57
960.74	32.59
961.102	32.61
961.465	32.61
961.827	32.69
962.189	32.73
962.552	32.68
962.914	32.65
963.276	32.68
963.638	32.67
964	32.7
964.362	32.69
964.724	32.66
965.085	32.65
965.447	32.71
965.809	32.68
966.17	32.67
966.532	32.69
966.893	32.69
967.255	32.69
967.616	32.68
967.977	32.71
968.338	32.69
968.699	32.68
969.061	32.68
969.421	32.65
969.782	32.68
970.143	32.72
970.504	32.77
970.865	32.81
971.225	32.82
971.586	32.84
971.946	32.77
972.307	32.8
972.667	32.84
973.027	32.91
973.388	32.96
973.748	32.94
974.108	32.99
974.468	32.95
974.828	32.96
975.188	32.95
975.548	32.96
975.907	33.04
976.267	33
976.627	33
976.986	32.96
977.346	32.88
977.705	32.87
978.064	32.8
978.424	32.85
978.783	32.8
979.142	32.81
979.501	32.83
979.86	32.84
980.219	32.88
980.578	32.85
980.937	32.89
981.296	32.92
981.654	32.94
982.013	33.02
982.371	33.03
982.73	33.1
983.088	33.13
983.447	33.12
983.805	33.06
984.163	33.09
984.521	33.1
984.879	33.06
985.237	33.11
985.595	33.15
985.953	33.09
986.311	33.08
986.669	33.05
987.026	33.02
987.384	33.06
987.741	33.06
988.099	33.07
988.456	33.09
988.814	33.16
989.171	33.14
989.528	33.13
989.885	33.13
990.242	33.17
990.599	33.26
990.956	33.35
991.313	33.3
991.67	33.41
992.027	33.48
992.383	33.5
992.74	33.51
993.096	33.52
993.453	33.51
993.809	33.54
994.165	33.57
994.522	33.53
994.878	33.49
995.234	33.54
995.59	33.46
995.946	33.36
996.302	33.41
996.658	33.46
997.013	33.55
997.369	33.62
997.725	33.71
998.08	33.76
998.436	33.76
998.791	33.72
999.147	33.74
999.502	33.82
999.857	33.88
1000.212	33.84
1000.567	33.79
1000.922	33.66
1001.277	33.6
1001.632	33.56
1001.987	33.57
1002.342	33.53
1002.696	33.66
1003.051	33.78
1003.406	33.9
1003.76	33.97
1004.114	34.01
1004.469	34.05
1004.823	34.25
1005.177	34.31
1005.531	34.35
1005.885	34.36
1006.239	34.39
1006.593	34.49
1006.947	34.4
1007.301	34.3
1007.655	34.31
1008.008	34.36
1008.362	34.37
1008.715	34.2
1009.069	34.28
1009.422	34.22
1009.776	34.02
1010.129	34.04
1010.482	33.92
1010.835	33.98
1011.188	34.03
1011.541	33.85
1011.894	33.86
1012.247	33.73
1012.6	33.76
1012.952	33.69
1013.305	33.75
1013.657	34.04
1014.01	34.06
1014.362	33.95
1014.715	33.91
1015.067	33.91
1015.419	34.16
1015.771	34.13
1016.123	34.34
1016.475	34.41
1016.827	34.47
1017.179	34.51
1017.531	34.32
1017.883	34.3
1018.234	34.52
1018.586	34.68
1018.938	34.79
1019.289	34.65
1019.64	34.81
1019.992	34.77
1020.343	34.75
1020.694	34.75
1021.045	34.74
1021.396	34.94
1021.747	35.04
1022.098	34.99
1022.449	34.7
1022.8	34.74
1023.151	34.82
1023.501	34.76
1023.852	34.93
1024.202	35.05
1024.553	34.95
1024.903	35.06
1025.253	35.15
1025.604	35.17
1025.954	35.01
1026.304	35.23
1026.654	35.13
1027.004	35.25
1027.354	35.18
1027.703	35.06
1028.053	34.75
1028.403	34.9
1028.753	34.42
1029.102	34.44
1029.452	34.58
1029.801	34.9
1030.15	34.8
1030.499	34.67
897.758	1015.8
901.051	1025.98
904.343	1019.83
907.636	1039.31
910.928	1010.66
914.22	1010.95
917.511	997.13
920.803	956.49
924.094	950.47
927.384	926.17
930.675	889.8
933.965	887.59
937.255	833.14
940.544	801.81
943.834	762.88
947.123	756.93
950.411	714.19
953.7	699.32
956.988	664.9
960.276	638.34
963.563	628.73
966.851	606.34
970.138	601.9
973.424	583.26
976.711	584.48
979.997	555.13
983.283	552.21
986.568	540.04
989.853	523.16
993.138	511.39
996.423	491.89
999.708	478.1
1002.992	471.6
1006.275	448.89
1009.559	445.89
1012.842	431.38
1016.125	420.37
1019.408	411.84
1022.69	406.56
1025.972	398.73
1029.254	389.49
1032.536	383.24
1035.817	374.46
1039.098	370.96
1042.379	364.07
1045.659	359.24
1048.939	349.93
1052.219	342.65
1055.498	337.78
1058.778	329.56
1062.057	322.89
1065.335	319.33
1068.614	315.57
1071.892	312.49
1075.17	302.33
1078.447	296.78
1081.724	293.78
1085.001	292.24
1088.278	286.53
1091.554	280.51
1094.83	280.72
1098.106	277.77
1101.382	275.85
1104.657	274.07
1107.932	268.95
1111.206	270.88
1114.481	263.78
1117.755	261.61
1121.029	258.5
1124.302	258.51
1127.575	253.68
1130.848	250.46
1134.121	248.28
1137.393	246.08
1140.665	240.19
1143.937	238.76
1147.208	236.84
1150.48	236.29
1153.75	234.06
1157.021	230.78
1160.291	230.74
1163.561	228.53
1166.831	228.35
1170.101	226.09
1173.37	226.85
1176.639	227.85
1179.907	225.73
1183.176	223
1186.444	223.19
1189.711	222.23
1192.979	222.06
1196.246	219.65
1199.513	221.07
1202.78	220.12
1206.046	219.86
1209.312	216.91
1212.578	217.15
1215.843	219.56
1219.108	218.07
1222.373	221.72
1225.638	223.3
1228.902	225.61
1232.166	228.19
1235.43	228.91
1238.693	231.28
1241.956	233.07
1245.219	236.35
1248.482	236.28
1251.744	235.42
1255.006	236.02
1258.268	230.75
1261.529	229.3
1264.79	228.06
1268.051	224.65
1271.312	222.33
1274.572	219.9
1277.832	218.34
1281.092	214.88
1284.351	213.51
1287.61	213.75
1290.869	211.18
1294.128	209.95
1297.386	209.03
1300.644	207.29
1303.902	207.82
1307.159	207.4
1310.416	207.27
1313.673	206.06
1316.93	208.54
1320.186	208.43
1323.442	208.95
1326.697	212.03
1329.953	212.31
1333.208	213.68
1336.463	215.1
1339.717	216.04
1342.972	218.32
1346.226	220.48
1349.479	221.81
1352.733	222.34
1355.986	223.5
1359.238	223.16
1362.491	224.13
1365.743	226.89
1368.995	226
1372.247	226.91
1375.498	226.33
1378.749	227.36
1382	224.95
1385.251	224.67
1388.501	223.49
1391.751	223.85
1395	222.89
1398.25	221.66
1401.499	219.78
1404.748	220.03
1407.996	218.08
1411.244	217.23
1414.492	215.99
1417.74	213.84
1420.987	211.97
1424.234	211.34
1427.481	208.35
1430.728	208.44
1433.974	206.6
1437.22	204.36
1440.465	203.52
1443.711	201.54
1446.956	199.72
1450.201	197.39
1453.445	195.69
1456.689	193.57
1459.933	191.25
1463.177	190.2
1466.42	186.88
1469.663	184.11
1472.906	183.21
1476.148	179.42
1479.391	177.04
1482.633	176.08
1485.874	173.52
1489.115	171.96
1492.356	170.77
1495.597	170.1
1498.838	166.86
1502.078	166.2
1505.318	165.8
1508.557	165.48
1511.797	165.14
1515.036	163.97
1518.274	162.73
1521.513	162.37
1524.751	161.72
1527.989	160.75
1531.227	159.73
1534.464	160.34
1537.701	159.1
1540.938	158.73
1544.174	157.17
1547.41	156.61
1550.646	155.89
1553.882	156.51
1557.117	153.85
1560.352	153.57
1563.587	152.84
1566.821	152.12
1570.055	150.64
1573.289	149.53
1576.523	149.46
1579.756	147.71
1582.989	147.24
1586.222	147.17
1589.454	145.92
1592.686	147.3
1595.918	146.17
1599.15	146.1
1602.381	146.3
1605.612	146.51
1608.843	146.75
1612.073	146.46
1615.303	147.9
1618.533	147.54
1621.762	147.73
1624.992	148.06
1628.221	147.22
1631.449	147.62
1634.678	147.04
1637.906	147.64
1641.134	147.85
1644.361	147.75
1647.588	147.46
1650.815	146.82
1654.042	146.43
1657.269	147.25
1660.495	147.25
1663.72	146.95
1666.946	147.53
1670.171	148.36
1673.396	147.89
1676.621	147.63
1679.845	148.22
1683.069	148.53
1686.293	149.44
1689.517	150.56
1692.74	149.96
1695.963	150.4
1699.185	151.93
1702.408	151.39
1705.63	152.3
1708.852	153.05
1712.073	152.78
1715.294	153.16
1718.515	154.08
1721.736	153.8
1724.956	154.01
1728.176	154.18
1731.396	155.11
1734.616	154.39
1737.835	155.63
1741.054	153.89
1744.272	154.32
1747.491	155.86
1750.709	156.19
1753.927	156.16
1757.144	155.69
1760.361	156.24
1763.578	157.12
1766.795	156.68
1770.011	157.52
1773.227	157.56
1776.443	159.75
1779.658	159.91
1782.874	159.63
1786.089	160.13
1789.303	160.43
1792.518	163.1
1795.732	162.49
1798.945	163.41
1802.159	163.92
1805.372	164.79
1808.585	167.35
1811.797	167.15
1815.01	167.78
1818.222	169.43
1821.434	170.77
1824.645	171.52
1827.856	173.59
1831.067	175.15
1834.278	174.76
1837.488	176.28
1840.698	177.35
1843.908	175.67
1847.117	177.06
1850.326	177.91
1853.535	177.06
1856.744	179.8
1859.952	179.59
1863.16	178.09
1866.368	177.22
1869.575	178.79
1872.782	176.59
1875.989	175.91
1879.196	175.61
1882.402	174.72
1885.608	175.08
1888.814	175.75
1892.019	174.21
1895.224	174.08
1898.429	174.02
1901.634	175
1904.838	175.17
1908.042	177.03
1911.246	177.46
1914.449	178.59
1917.652	178.47
1920.855	178.49
1924.058	178.47
1927.26	178.33
1930.462	178.75
1933.664	180.77
1936.865	179.12
1940.066	178.62
1943.267	177.52
1946.467	177.26
1949.668	178.47
1952.868	180.13
1956.067	180.36
1959.267	181.54
1962.466	181.78
1965.665	180.8
1968.863	180.74
1972.061	183.95
1975.259	185.63
1978.457	186.73
1981.654	188.94
1984.852	188.99
1988.048	189.14
1991.245	190.01
1994.441	191.37
1997.637	193.64
2000.833	197.46
2004.028	199.66
2007.223	200.85
2010.418	202.61
2013.613	206.34
2016.807	208.63
2020.001	210.13
2023.194	213.29
2026.388	218.63
2029.581	223.08
2032.774	224.07
2035.966	227.84
2039.158	228.46
2042.35	232.98
2045.542	234.76
2048.733	237.81
2051.924	241.04
2055.115	245.99
2058.306	246.64
2061.496	248.5
2064.686	248.83
2067.875	252.95
2071.065	255.69
2074.254	254.4
2077.442	256.22
2080.631	257.14
2083.819	260.18
2087.007	260.73
2090.195	263.02
2093.382	265.52
2096.569	264.48
2099.756	268.66
2102.942	270.22
2106.128	271.17
2109.314	278.44
2112.5	278.08
2115.685	284.54
2118.87	284.66
2122.055	290.74
2125.239	292.65
2128.424	296.3
2131.608	298.17
2134.791	301.86
2137.974	302.75
2141.157	303.98
2144.34	304.53
2147.523	309.56
2150.705	308.18
2153.887	311.08
2157.068	310.64
2160.25	307.86
2163.431	310.19
2166.611	313.91
2169.792	318.84
2172.972	322.68
2176.152	323.9
2179.331	327.74
2182.511	332.33
2185.69	335.23
2188.868	342.38
2192.047	343.87
2195.225	354.22
2198.403	360.86
2201.58	368.09
2204.758	375.29
2207.935	382.17
2211.111	390.27
2214.288	395.39
2217.464	396.93
2220.64	403.23
2223.815	407.45
2226.991	423.47
2230.166	422.95
2233.34	430.33
2236.515	437.97
2239.689	438.32
2242.863	441.32
2246.036	453.81
2249.209	451.62
2252.382	458.03
2255.555	473.06
2258.727	474.99
2261.9	479.56
2265.071	485.34
2268.243	494.08
2271.414	497.81
2274.585	509.17
2277.756	515.09
2280.926	519.27
2284.096	528.62
2287.266	539.98
2290.436	543.8
2293.605	556.7
2296.774	569.91
2299.942	587.24
2303.111	592.2
2306.279	606.66
2309.447	614.27
2312.614	631.39
2315.781	648.05
2318.948	677.54
2322.115	669
2325.281	709.6
2328.447	693.62
2331.613	718.89
2334.779	713.39
2337.944	743.67
2341.109	748.41
2344.274	772.14
2347.438	793.36
2350.602	791.76
2353.766	820.48
2356.929	835.13
2360.092	818.35
2363.255	880.69
2366.418	882.73
2369.58	899.91
2372.742	950.02
2375.904	977.86
2379.066	970.65
2382.227	957.88
2385.388	1041.43
2388.548	1040.65
2391.709	1048.92
2394.869	1181.53
2398.029	1129.06
2401.188	1159.66
2404.347	1152.29
2407.506	1136.39
2410.665	1166.81
2413.823	1237.19
2416.981	1311.17
2420.139	1264.81
2423.296	1253.38
2426.453	1310.63
2429.61	1257.21
2432.767	1315.66
2435.923	1303.24
2439.079	1420.26
2442.235	1441.14
2445.391	1427.87
2448.546	1410.9
2451.701	1372.62
2454.855	1375.78
2458.009	1452.16
2461.163	1514.8
2464.317	1570.37
2467.471	1609.52
2470.624	1607.08
2473.777	1565.78
2476.929	1529.5
2480.082	1486.12
2483.234	1477.46
2486.385	1544.46
2489.537	1550.3
2492.688	1610.02
2495.839	1560.96
2498.989	1523.57
2502.14	1532.28
2505.29	1547.44
2508.439	1575.53
2511.589	1567.07
2514.738	1708
2517.887	1665.61
2521.035	1758.61
2524.183	1784.22
2527.331	1793.75
2530.479	1788.13
2533.627	1802.93
