Data from C_1_DEC_ON_6N_Splice17_12-45-32-482.txt Node
Date: Sat Mar 07 12:45:32 EST 2020
User: sa697716
Spectrometer: NQ5500242
Trigger mode: 0
Integration Time (sec): 1.450000E-1
Scans to average: 20
Nonlinearity correction enabled: false
Boxcar width: 5
Storing dark spectrum: false
XAxis mode: Wavelengths
Number of Pixels in Spectrum: 512
>>>>>Begin Spectral Data<<<<<
187.83	79.4
188.298	92.43
188.766	53.02
189.233	53.52
189.701	46.8
190.169	63.25
190.636	46.22
191.104	-62.08
191.571	-145.7
192.039	-67.72
192.506	-713.39
192.974	234.09
193.441	252.76
193.908	-22.54
194.375	27.63
194.842	13.31
195.31	104.34
195.777	174.9
196.244	32.93
196.711	35.18
197.177	37.86
197.644	37.1
198.111	37.87
198.578	38.6
199.045	38.97
199.511	38.65
199.978	38.55
200.445	38.37
200.911	38.57
201.378	38.52
201.844	38.62
202.31	38.62
202.777	38.83
203.243	38.89
203.709	38.67
204.176	38.24
204.642	38.22
205.108	38.35
205.574	38.18
206.04	37.35
206.506	37.14
206.972	37.21
207.438	36.88
207.903	36.48
208.369	35.53
208.835	34.76
209.301	34.24
209.766	33.33
210.232	32.38
210.697	31.54
211.163	31.32
211.628	30.56
212.094	29.93
212.559	29.44
213.024	28.83
213.49	28.66
213.955	28.08
214.42	27.49
214.885	26.82
215.35	26.02
215.815	24.93
216.28	23.27
216.745	21.77
217.21	20.03
217.675	18.37
218.14	16.97
218.604	15.78
219.069	14.87
219.534	14.14
219.998	13.51
220.463	12.97
220.927	12.45
221.392	12.07
221.856	11.71
222.32	11.42
222.785	11.23
223.249	11.03
223.713	10.83
224.177	10.66
224.642	10.48
225.106	10.26
225.57	10.05
226.034	9.9
226.497	9.76
226.961	9.62
227.425	9.5
227.889	9.35
228.353	9.21
228.816	9.05
229.28	8.91
229.744	8.79
230.207	8.69
230.671	8.59
231.134	8.47
231.597	8.37
232.061	8.27
232.524	8.16
232.987	8.04
233.45	7.95
233.914	7.86
234.377	7.77
234.84	7.67
235.303	7.6
235.766	7.51
236.229	7.44
236.691	7.35
237.154	7.28
237.617	7.21
238.08	7.14
238.542	7.08
239.005	7.03
239.468	6.96
239.93	6.91
240.393	6.84
240.855	6.78
241.317	6.71
241.78	6.66
242.242	6.59
242.704	6.53
243.166	6.47
243.629	6.41
244.091	6.34
244.553	6.29
245.015	6.22
245.477	6.16
245.939	6.1
246.4	6.05
246.862	6
247.324	5.96
247.786	5.91
248.247	5.86
248.709	5.8
249.17	5.75
249.632	5.71
250.093	5.68
250.555	5.63
251.016	5.59
251.477	5.54
251.939	5.5
252.4	5.46
252.861	5.42
253.322	5.4
253.783	5.37
254.244	5.36
254.705	5.32
255.166	5.28
255.627	5.25
256.088	5.23
256.549	5.2
257.009	5.17
257.47	5.14
257.931	5.1
258.391	5.06
258.852	5.02
259.312	4.98
259.773	4.95
260.233	4.92
260.694	4.89
261.154	4.86
261.614	4.82
262.074	4.79
262.534	4.77
262.994	4.75
263.455	4.74
263.915	4.72
264.374	4.7
264.834	4.68
265.294	4.66
265.754	4.65
266.214	4.64
266.673	4.63
267.133	4.62
267.593	4.61
268.052	4.59
268.512	4.58
268.971	4.57
269.431	4.56
269.89	4.54
270.349	4.53
270.809	4.52
271.268	4.5
271.727	4.48
272.186	4.47
272.645	4.46
273.104	4.45
273.563	4.44
274.022	4.43
274.481	4.42
274.94	4.41
275.399	4.4
275.857	4.39
276.316	4.38
276.775	4.38
277.233	4.37
277.692	4.36
278.15	4.35
278.609	4.33
279.067	4.33
279.525	4.31
279.984	4.3
280.442	4.29
280.9	4.29
281.358	4.28
281.816	4.27
282.274	4.26
282.732	4.25
283.19	4.24
283.648	4.23
284.106	4.22
284.564	4.22
285.021	4.21
285.479	4.21
285.937	4.19
286.394	4.18
286.852	4.16
287.309	4.16
287.767	4.14
288.224	4.13
288.682	4.11
289.139	4.1
289.596	4.08
290.053	4.05
290.511	4.04
290.968	4.03
291.425	4
291.882	3.99
292.339	3.97
292.796	3.96
293.252	3.96
293.709	3.95
294.166	3.93
294.623	3.92
295.079	3.91
295.536	3.9
295.992	3.89
296.449	3.88
296.905	3.88
297.362	3.87
297.818	3.86
298.274	3.85
298.731	3.84
299.187	3.83
299.643	3.82
300.099	3.81
300.555	3.8
301.011	3.79
301.467	3.78
301.923	3.77
302.379	3.77
302.835	3.77
303.291	3.76
303.746	3.76
304.202	3.76
304.658	3.76
305.113	3.75
305.569	3.75
306.024	3.74
306.479	3.74
306.935	3.74
307.39	3.73
307.845	3.73
308.301	3.72
308.756	3.72
309.211	3.72
309.666	3.73
310.121	3.73
310.576	3.73
311.031	3.73
311.486	3.74
311.94	3.74
312.395	3.73
312.85	3.73
313.305	3.73
313.759	3.73
314.214	3.72
314.668	3.7
315.123	3.7
315.577	3.69
316.032	3.69
316.486	3.67
316.94	3.67
317.394	3.65
317.849	3.64
318.303	3.63
318.757	3.61
319.211	3.61
319.665	3.6
320.119	3.59
320.572	3.58
321.026	3.58
321.48	3.58
321.934	3.57
322.387	3.57
322.841	3.56
323.295	3.56
323.748	3.56
324.202	3.55
324.655	3.54
325.108	3.54
325.562	3.54
326.015	3.53
326.468	3.52
326.921	3.52
327.374	3.52
327.827	3.52
328.28	3.51
328.733	3.51
329.186	3.51
329.639	3.51
330.092	3.52
330.545	3.52
330.997	3.51
331.45	3.52
331.903	3.52
332.355	3.53
332.808	3.52
333.26	3.52
333.713	3.51
334.165	3.51
334.617	3.52
335.069	3.51
335.522	3.51
335.974	3.52
336.426	3.52
336.878	3.51
337.33	3.51
337.782	3.51
338.234	3.52
338.686	3.51
339.137	3.52
339.589	3.5
340.041	3.49
340.493	3.49
340.944	3.47
341.396	3.46
341.847	3.45
342.299	3.44
342.75	3.42
343.201	3.41
343.653	3.39
344.104	3.37
344.555	3.36
345.006	3.35
345.457	3.34
345.908	3.33
346.359	3.33
346.81	3.32
347.261	3.31
347.712	3.31
348.163	3.31
348.613	3.31
349.064	3.3
349.515	3.3
349.965	3.3
350.416	3.3
350.866	3.29
351.317	3.28
351.767	3.28
352.217	3.28
352.668	3.28
353.118	3.28
353.568	3.28
354.018	3.28
354.468	3.28
354.918	3.29
355.368	3.29
355.818	3.29
356.268	3.29
356.718	3.3
357.168	3.28
357.617	3.28
358.067	3.29
358.517	3.29
358.966	3.29
359.416	3.29
359.865	3.29
360.315	3.29
360.764	3.29
361.213	3.29
361.663	3.29
362.112	3.31
362.561	3.31
363.01	3.3
363.459	3.29
363.908	3.29
364.357	3.29
364.806	3.28
365.255	3.28
365.703	3.29
366.152	3.29
366.601	3.3
367.05	3.3
367.498	3.3
367.947	3.31
368.395	3.33
368.844	3.33
369.292	3.32
369.74	3.33
370.189	3.33
370.637	3.33
371.085	3.33
371.533	3.32
371.981	3.32
372.429	3.33
372.877	3.34
373.325	3.33
373.773	3.34
374.221	3.34
374.669	3.34
375.116	3.35
375.564	3.35
376.012	3.36
376.459	3.37
376.907	3.39
377.354	3.39
377.801	3.41
378.249	3.42
378.696	3.43
379.143	3.44
379.591	3.46
380.038	3.47
380.485	3.49
380.932	3.5
381.379	3.51
381.826	3.53
382.273	3.54
382.72	3.55
383.166	3.57
383.613	3.58
384.06	3.59
384.506	3.61
384.953	3.62
385.4	3.64
385.846	3.67
386.292	3.7
386.739	3.71
387.185	3.73
387.631	3.75
388.078	3.77
388.524	3.79
388.97	3.81
389.416	3.83
389.862	3.85
390.308	3.87
390.754	3.89
391.2	3.91
391.645	3.93
392.091	3.95
392.537	3.97
392.983	3.99
393.428	4.01
393.874	4.04
394.319	4.05
394.765	4.06
395.21	4.07
395.655	4.09
396.101	4.1
396.546	4.11
396.991	4.14
397.436	4.15
397.881	4.18
398.326	4.2
398.771	4.21
399.216	4.22
399.661	4.24
400.106	4.25
400.551	4.26
400.995	4.26
401.44	4.27
401.885	4.26
402.329	4.27
402.774	4.27
403.218	4.28
403.663	4.29
404.107	4.3
404.551	4.29
404.995	4.29
405.44	4.29
405.884	4.29
406.328	4.29
406.772	4.28
407.216	4.27
407.66	4.27
408.104	4.25
408.547	4.24
408.991	4.25
409.435	4.25
409.879	4.25
410.322	4.25
410.766	4.25
411.209	4.26
411.653	4.29
412.096	4.29
412.54	4.3
412.983	4.31
413.426	4.33
413.869	4.34
414.312	4.37
414.756	4.38
415.199	4.39
415.642	4.38
416.085	4.39
416.527	4.37
416.97	4.36
417.413	4.36
417.856	4.36
418.298	4.34
418.741	4.33
419.184	4.31
419.626	4.3
420.069	4.3
420.511	4.31
420.953	4.29
421.396	4.3
421.838	4.3
422.28	4.3
422.722	4.32
423.164	4.31
423.606	4.32
424.048	4.33
424.49	4.33
424.932	4.33
425.374	4.31
425.816	4.29
426.258	4.27
426.699	4.26
427.141	4.26
427.582	4.26
428.024	4.26
428.465	4.27
428.907	4.25
429.348	4.24
429.789	4.23
430.231	4.25
430.672	4.27
431.113	4.29
431.554	4.3
431.995	4.31
432.436	4.31
432.877	4.32
433.318	4.33
433.759	4.34
434.2	4.37
434.64	4.38
435.081	4.39
435.522	4.41
435.962	4.43
436.403	4.44
436.843	4.45
437.284	4.45
437.724	4.45
438.164	4.44
438.604	4.46
439.045	4.45
439.485	4.47
439.925	4.48
440.365	4.48
440.805	4.48
441.245	4.49
441.685	4.51
442.125	4.54
442.564	4.56
443.004	4.57
443.444	4.58
443.883	4.6
444.323	4.59
444.762	4.59
445.202	4.59
445.641	4.61
446.081	4.61
446.52	4.62
446.959	4.63
447.398	4.63
447.837	4.64
448.276	4.64
448.716	4.65
449.154	4.67
449.593	4.69
450.032	4.7
450.471	4.69
450.91	4.69
451.349	4.68
451.787	4.67
452.226	4.67
452.664	4.67
453.103	4.67
453.541	4.66
453.98	4.66
454.418	4.64
454.856	4.63
455.295	4.63
455.733	4.6
456.171	4.59
456.609	4.58
457.047	4.56
457.485	4.55
457.923	4.54
458.361	4.54
458.798	4.53
459.236	4.53
459.674	4.52
460.111	4.51
460.549	4.54
460.987	4.55
461.424	4.54
461.862	4.55
462.299	4.55
462.736	4.55
463.173	4.55
463.611	4.56
464.048	4.56
464.485	4.57
464.922	4.57
465.359	4.57
465.796	4.57
466.233	4.58
466.67	4.59
467.106	4.6
467.543	4.6
467.98	4.59
468.416	4.59
468.853	4.58
469.29	4.59
469.726	4.59
470.162	4.59
470.599	4.59
471.035	4.58
471.471	4.56
471.907	4.55
472.344	4.55
472.78	4.56
473.216	4.57
473.652	4.57
474.088	4.55
474.523	4.54
474.959	4.53
475.395	4.51
475.831	4.5
476.266	4.5
476.702	4.49
477.138	4.48
477.573	4.47
478.008	4.46
478.444	4.45
478.879	4.45
479.314	4.45
479.75	4.44
480.185	4.44
480.62	4.43
481.055	4.42
481.49	4.41
481.925	4.41
482.36	4.41
482.795	4.4
483.229	4.39
483.664	4.39
484.099	4.39
484.534	4.38
484.968	4.38
485.403	4.38
485.837	4.4
486.271	4.4
486.706	4.41
487.14	4.42
487.574	4.42
488.009	4.43
488.443	4.44
488.877	4.46
489.311	4.49
489.745	4.5
490.179	4.53
490.613	4.55
491.046	4.58
491.48	4.6
491.914	4.63
492.348	4.67
492.781	4.7
493.215	4.74
493.648	4.78
494.082	4.81
494.515	4.85
494.948	4.89
495.382	4.93
495.815	4.98
496.248	5.04
496.681	5.1
497.114	5.16
497.547	5.21
497.98	5.28
498.413	5.34
498.846	5.42
499.279	5.49
499.711	5.57
500.144	5.66
500.577	5.74
501.009	5.83
501.442	5.92
501.874	6.03
502.306	6.13
502.739	6.25
503.171	6.37
503.603	6.49
504.036	6.62
504.468	6.76
504.9	6.88
505.332	7.03
505.764	7.19
506.196	7.35
506.627	7.51
507.059	7.69
507.491	7.87
507.923	8.06
508.354	8.27
508.786	8.48
509.217	8.69
509.649	8.91
510.08	9.14
510.512	9.37
510.943	9.61
511.374	9.85
511.805	10.09
512.237	10.35
512.668	10.63
513.099	10.88
513.53	11.15
513.961	11.44
514.391	11.73
514.822	12.03
515.253	12.31
515.684	12.6
516.114	12.92
516.545	13.23
516.975	13.54
517.406	13.85
517.836	14.15
518.267	14.47
518.697	14.79
519.127	15.09
519.558	15.4
519.988	15.72
520.418	16.02
520.848	16.33
521.278	16.63
521.708	17.05
522.138	17.34
522.567	17.63
522.997	17.9
523.427	18.18
523.857	18.46
524.286	18.71
524.716	18.97
525.145	19.23
525.575	19.47
526.004	19.72
526.433	19.82
526.863	20.06
527.292	20.28
527.721	20.49
528.15	20.69
528.579	20.87
529.008	21.06
529.437	21.23
529.866	21.41
530.295	21.58
530.724	21.72
531.152	21.89
531.581	22.03
532.01	22.16
532.438	22.3
532.867	22.4
533.295	22.52
533.723	22.63
534.152	22.74
534.58	22.84
535.008	22.93
535.436	23.01
535.865	23.07
536.293	23.13
536.721	23.22
537.149	23.29
537.576	23.37
538.004	23.43
538.432	23.49
538.86	23.54
539.287	23.57
539.715	23.63
540.143	23.68
540.57	23.74
540.998	23.79
541.425	23.83
541.852	23.86
542.28	23.91
542.707	23.94
543.134	23.98
543.561	24.03
543.988	24.08
544.415	24.09
544.842	24.12
545.269	24.14
545.696	24.17
546.123	24.2
546.549	24.24
546.976	24.26
547.403	24.29
547.829	24.3
548.256	24.31
548.682	24.33
549.108	24.37
549.535	24.39
549.961	24.4
550.387	24.41
550.813	24.41
551.24	24.41
551.666	24.39
552.092	24.38
552.518	24.38
552.943	24.35
553.369	24.32
553.795	24.27
554.221	24.24
554.646	24.19
555.072	24.14
555.498	24.08
555.923	24.03
556.349	23.96
556.774	23.89
557.199	23.81
557.625	23.73
558.05	23.65
558.475	23.58
558.9	23.48
559.325	23.39
559.75	23.29
560.175	23.19
560.6	23.07
561.025	22.96
561.449	22.83
561.874	22.71
562.299	22.59
562.723	22.43
563.148	22.28
563.572	22.12
563.997	21.97
564.421	21.81
564.846	21.64
565.27	21.49
565.694	21.33
566.118	21.17
566.542	21
566.966	20.83
567.39	20.69
567.814	20.53
568.238	20.37
568.662	20.19
569.086	20.03
569.509	19.87
569.933	19.7
570.357	19.53
570.78	19.37
571.204	19.2
571.627	19.04
572.05	18.87
572.474	18.73
572.897	18.6
573.32	18.46
573.743	18.32
574.166	18.18
574.589	18.05
575.012	17.92
575.435	17.79
575.858	17.67
576.281	17.56
576.704	17.44
577.126	17.3
577.549	17.18
577.972	17.07
578.394	16.96
578.817	16.86
579.239	16.76
579.661	16.67
580.084	16.58
580.506	16.49
580.928	16.4
581.35	16.31
581.772	16.22
582.194	16.13
582.616	16.05
583.038	15.97
583.46	15.86
583.882	15.78
584.303	15.7
584.725	15.61
585.147	15.53
585.568	15.47
585.99	15.39
586.411	15.31
586.833	15.24
587.254	15.17
587.675	15.11
588.096	15.06
588.518	14.99
588.939	14.94
589.36	14.88
589.781	14.82
590.202	14.76
590.623	14.72
591.043	14.67
591.464	14.64
591.885	14.59
592.305	14.54
592.726	14.5
593.147	14.47
593.567	14.41
593.987	14.36
594.408	14.32
594.828	14.27
595.248	14.24
595.669	14.21
596.089	14.17
596.509	14.14
596.929	14.11
597.349	14.07
597.769	14.03
598.189	14
598.608	13.98
599.028	13.95
599.448	13.91
599.867	13.85
600.287	13.81
600.706	13.75
601.126	13.7
601.545	13.65
601.965	13.6
602.384	13.55
602.803	13.49
603.222	13.43
603.641	13.37
604.061	13.33
604.48	13.26
604.898	13.19
605.317	13.14
605.736	13.07
606.155	13.01
606.574	12.94
606.992	12.88
607.411	12.8
607.829	12.71
608.248	12.62
608.666	12.54
609.085	12.48
609.503	12.42
609.921	12.34
610.339	12.26
610.758	12.18
611.176	12.1
611.594	12.03
612.012	11.95
612.43	11.9
612.847	11.84
613.265	11.77
613.683	11.69
614.101	11.61
614.518	11.54
614.936	11.47
615.353	11.39
615.771	11.33
616.188	11.26
616.606	11.2
617.023	11.14
617.44	11.08
617.857	11.03
618.274	10.97
618.691	10.91
619.108	10.86
619.525	10.82
619.942	10.79
620.359	10.75
620.776	10.72
621.192	10.69
621.609	10.67
622.026	10.62
622.442	10.6
622.859	10.57
623.275	10.55
623.691	10.53
624.108	10.52
624.524	10.49
624.94	10.47
625.356	10.45
625.772	10.44
626.188	10.44
626.604	10.43
627.02	10.42
627.436	10.41
627.852	10.4
628.268	10.38
628.683	10.37
629.099	10.36
629.514	10.34
629.93	10.33
630.345	10.29
630.761	10.25
631.176	10.22
631.591	10.18
632.007	10.14
632.422	10.08
632.837	10.03
633.252	9.97
633.667	9.91
634.082	9.84
634.497	9.77
634.911	9.69
635.326	9.6
635.741	9.51
636.155	9.41
636.57	9.31
636.984	9.22
637.399	9.1
637.813	8.98
638.228	8.85
638.642	8.74
639.056	8.61
639.47	8.49
639.884	8.38
640.298	8.25
640.712	8.13
641.126	8.01
641.54	7.88
641.954	7.78
642.368	7.66
642.781	7.56
643.195	7.46
643.609	7.36
644.022	7.27
644.436	7.17
644.849	7.09
645.262	7
645.676	6.92
646.089	6.84
646.502	6.78
646.915	6.72
647.328	6.66
647.741	6.6
648.154	6.55
648.567	6.49
648.98	6.44
649.393	6.4
649.805	6.36
650.218	6.32
650.631	6.29
651.043	6.26
651.456	6.22
651.868	6.19
652.28	6.16
652.693	6.13
653.105	6.1
653.517	6.05
653.929	6.02
654.341	5.98
654.753	5.94
655.165	5.9
655.577	5.85
655.989	5.8
656.401	5.75
656.813	5.69
657.224	5.64
657.636	5.57
658.047	5.52
658.459	5.46
658.87	5.39
659.282	5.33
659.693	5.26
660.104	5.19
660.515	5.14
660.926	5.08
661.338	5.02
661.749	4.96
662.159	4.92
662.57	4.86
662.981	4.82
663.392	4.78
663.803	4.74
664.213	4.7
664.624	4.66
665.035	4.63
665.445	4.6
665.855	4.57
666.266	4.55
666.676	4.53
667.086	4.5
667.497	4.49
667.907	4.48
668.317	4.48
668.727	4.47
669.137	4.46
669.547	4.46
669.956	4.46
670.366	4.46
670.776	4.47
671.186	4.48
671.595	4.48
672.005	4.49
672.414	4.5
672.824	4.51
673.233	4.53
673.642	4.56
674.052	4.57
674.461	4.6
674.87	4.62
675.279	4.65
675.688	4.67
676.097	4.7
676.506	4.73
676.915	4.76
677.323	4.79
677.732	4.82
678.141	4.86
678.549	4.9
678.958	4.93
679.366	4.98
679.775	5.03
680.183	5.09
680.592	5.16
681	5.22
681.408	5.29
681.816	5.37
682.224	5.47
682.632	5.57
683.04	5.67
683.448	5.8
683.856	5.91
684.264	6.06
684.671	6.22
685.079	6.39
685.487	6.6
685.894	6.82
686.302	7.07
686.709	7.33
687.116	7.63
687.524	7.94
687.931	8.29
688.338	8.68
688.745	9.07
689.152	9.5
689.559	9.97
689.966	10.44
690.373	10.95
690.78	11.48
691.187	12.01
691.593	12.58
692	13.16
692.407	13.75
692.813	14.36
693.22	14.98
693.626	15.61
694.032	16.26
694.439	16.9
694.845	17.56
695.251	18.22
695.657	18.88
696.063	19.56
696.469	20.23
696.875	20.9
697.281	21.57
697.687	22.24
698.093	22.9
698.498	23.55
698.904	24.2
699.31	24.83
699.715	25.48
700.12	26.12
700.526	26.74
700.931	27.36
701.337	27.97
701.742	28.57
702.147	29.15
702.552	29.73
702.957	30.27
703.362	30.83
703.767	31.38
704.172	31.91
704.577	32.45
704.981	32.97
705.386	33.49
705.791	33.98
706.195	34.49
706.6	34.98
707.004	35.46
707.408	35.97
707.813	36.45
708.217	36.92
708.621	37.38
709.025	37.8
709.43	38.23
709.834	38.66
710.237	39.09
710.641	39.51
711.045	39.93
711.449	40.35
711.853	40.74
712.256	41.11
712.66	41.49
713.064	41.87
713.467	42.25
713.87	42.63
714.274	42.99
714.677	43.36
715.08	43.7
715.484	44.03
715.887	44.39
716.29	44.73
716.693	45.08
717.096	45.41
717.499	45.75
717.901	46.07
718.304	46.38
718.707	46.68
719.109	46.99
719.512	47.27
719.915	47.56
720.317	47.81
720.719	48.05
721.122	48.32
721.524	48.6
721.926	48.86
722.328	49.12
722.731	49.34
723.133	49.59
723.535	49.8
723.937	50.04
724.338	50.25
724.74	50.47
725.142	50.71
725.544	50.87
725.945	51.05
726.347	51.2
726.748	51.34
727.15	51.53
727.551	51.69
727.952	51.84
728.354	51.99
728.755	52.12
729.156	52.24
729.557	52.33
729.958	52.45
730.359	52.57
730.76	52.72
731.161	52.85
731.562	52.97
731.962	53.06
732.363	53.16
732.763	53.25
733.164	53.34
733.564	53.46
733.965	53.57
734.365	53.68
734.766	53.77
735.166	53.83
735.566	53.91
735.966	53.99
736.366	54.06
736.766	54.14
737.166	54.21
737.566	54.29
737.966	54.34
738.365	54.37
738.765	54.46
739.165	54.52
739.564	54.58
739.964	54.65
740.363	54.68
740.763	54.73
741.162	54.76
741.561	54.81
741.96	54.81
742.36	54.86
742.759	54.93
743.158	54.95
743.557	54.98
743.955	55.02
744.354	55.05
744.753	55.09
745.152	55.15
745.55	55.21
745.949	55.24
746.348	55.32
746.746	55.36
747.144	55.39
747.543	55.4
747.941	55.4
748.339	55.39
748.737	55.4
749.136	55.42
749.534	55.42
749.932	55.41
750.33	55.44
750.727	55.43
751.125	55.45
751.523	55.46
751.921	55.45
752.318	55.48
752.716	55.52
753.113	55.54
753.511	55.57
753.908	55.58
754.305	55.61
754.703	55.61
755.1	55.61
755.497	55.58
755.894	55.58
756.291	55.59
756.688	55.57
757.085	55.59
757.482	55.58
757.878	55.58
758.275	55.56
758.672	55.56
759.068	55.59
759.465	55.6
759.861	55.63
760.258	55.63
760.654	55.65
761.05	55.67
761.447	55.66
761.843	55.66
762.239	55.65
762.635	55.66
763.031	55.65
763.427	55.61
763.822	55.62
764.218	55.61
764.614	55.62
765.01	55.61
765.405	55.6
765.801	55.58
766.196	55.59
766.592	55.58
766.987	55.56
767.382	55.55
767.778	55.55
768.173	55.51
768.568	55.49
768.963	55.45
769.358	55.45
769.753	55.42
770.148	55.41
770.542	55.4
770.937	55.4
771.332	55.41
771.726	55.4
772.121	55.41
772.515	55.42
772.91	55.43
773.304	55.45
773.699	55.46
774.093	55.46
774.487	55.49
774.881	55.52
775.275	55.51
775.669	55.51
776.063	55.53
776.457	55.53
776.851	55.51
777.245	55.49
777.638	55.51
778.032	55.49
778.425	55.54
778.819	55.52
779.212	55.51
779.606	55.52
779.999	55.52
780.392	55.55
780.786	55.53
781.179	55.55
781.572	55.6
781.965	55.59
782.358	55.6
782.751	55.58
783.143	55.6
783.536	55.59
783.929	55.55
784.322	55.53
784.714	55.52
785.107	55.54
785.499	55.54
785.891	55.51
786.284	55.52
786.676	55.55
787.068	55.51
787.46	55.5
787.852	55.52
788.245	55.53
788.636	55.53
789.028	55.52
789.42	55.49
789.812	55.51
790.204	55.52
790.595	55.54
790.987	55.51
791.378	55.57
791.77	55.58
792.161	55.57
792.553	55.58
792.944	55.57
793.335	55.59
793.726	55.63
794.117	55.56
794.508	55.53
794.899	55.48
795.29	55.49
795.681	55.46
796.072	55.45
796.463	55.47
796.853	55.45
797.244	55.45
797.634	55.45
798.025	55.44
798.415	55.5
798.806	55.5
799.196	55.53
799.586	55.52
799.976	55.54
800.366	55.54
800.756	55.52
801.146	55.56
801.536	55.57
801.926	55.55
802.316	55.56
802.706	55.55
803.095	55.55
803.485	55.56
803.874	55.55
804.264	55.51
804.653	55.53
805.043	55.52
805.432	55.49
805.821	55.49
806.21	55.51
806.599	55.5
806.988	55.5
807.377	55.5
807.766	55.49
808.155	55.47
808.544	55.5
808.933	55.46
809.321	55.44
809.71	55.42
810.098	55.41
810.487	55.37
810.875	55.38
811.264	55.36
811.652	55.37
812.04	55.37
812.428	55.41
812.816	55.37
813.204	55.35
813.592	55.37
813.98	55.4
814.368	55.39
814.756	55.39
815.144	55.39
815.531	55.4
815.919	55.39
816.306	55.38
816.694	55.36
817.081	55.41
817.469	55.43
817.856	55.41
818.243	55.4
818.63	55.41
819.017	55.41
819.404	55.4
819.791	55.41
820.178	55.43
820.565	55.43
820.952	55.44
821.339	55.42
821.725	55.46
822.112	55.49
822.498	55.52
822.885	55.53
823.271	55.54
823.657	55.51
824.044	55.49
824.43	55.48
824.816	55.49
825.202	55.46
825.588	55.47
825.974	55.44
826.36	55.41
826.746	55.38
827.132	55.38
827.517	55.38
827.903	55.42
828.289	55.43
828.674	55.45
829.06	55.43
829.445	55.44
829.83	55.41
830.216	55.41
830.601	55.4
830.986	55.42
831.371	55.39
831.756	55.42
832.141	55.43
832.526	55.43
832.911	55.4
833.295	55.42
833.68	55.44
834.065	55.47
834.449	55.48
834.834	55.48
835.218	55.47
835.603	55.5
835.987	55.46
836.371	55.43
836.755	55.4
837.139	55.39
837.524	55.39
837.908	55.39
838.291	55.4
838.675	55.39
839.059	55.41
839.443	55.39
839.827	55.39
840.21	55.4
840.594	55.41
840.977	55.44
841.361	55.49
841.744	55.45
842.127	55.45
842.511	55.4
842.894	55.4
843.277	55.4
843.66	55.4
844.043	55.42
844.426	55.42
844.809	55.44
845.191	55.43
845.574	55.39
845.957	55.43
846.339	55.4
846.722	55.43
847.104	55.43
847.487	55.43
847.869	55.44
848.252	55.43
848.634	55.43
849.016	55.44
849.398	55.45
849.78	55.48
850.162	55.48
850.544	55.49
850.926	55.48
851.307	55.47
851.689	55.5
852.071	55.52
852.452	55.52
852.834	55.54
853.215	55.51
853.597	55.48
853.978	55.47
854.359	55.47
854.741	55.5
855.122	55.5
855.503	55.51
855.884	55.47
856.265	55.43
856.646	55.41
857.026	55.43
857.407	55.46
857.788	55.46
858.169	55.5
858.549	55.49
858.93	55.46
859.31	55.48
859.69	55.49
860.071	55.53
860.451	55.54
860.831	55.54
861.211	55.49
861.591	55.47
861.971	55.48
862.351	55.45
862.731	55.45
863.111	55.45
863.491	55.43
863.87	55.42
864.25	55.4
864.629	55.42
865.009	55.43
865.388	55.45
865.768	55.45
866.147	55.44
866.526	55.45
866.905	55.46
867.284	55.47
867.663	55.48
868.042	55.48
868.421	55.5
868.8	55.51
869.179	55.51
869.558	55.5
869.936	55.5
870.315	55.52
870.693	55.52
871.072	55.53
871.45	55.55
871.828	55.56
872.207	55.55
872.585	55.51
872.963	55.51
873.341	55.49
873.719	55.49
874.097	55.49
874.475	55.5
874.853	55.51
875.23	55.53
875.608	55.51
875.986	55.55
876.363	55.55
876.741	55.57
877.118	55.58
877.495	55.6
877.873	55.61
878.25	55.64
878.627	55.65
879.004	55.63
879.381	55.63
879.758	55.59
880.135	55.57
880.512	55.57
880.889	55.57
881.265	55.56
881.642	55.57
882.019	55.56
882.395	55.52
882.772	55.5
883.148	55.46
883.524	55.47
883.901	55.48
884.277	55.46
884.653	55.44
885.029	55.42
885.405	55.4
885.781	55.38
886.157	55.38
886.532	55.4
886.908	55.39
887.284	55.41
887.659	55.41
888.035	55.39
888.411	55.38
888.786	55.4
889.161	55.39
889.537	55.39
889.912	55.41
890.287	55.42
890.662	55.41
891.037	55.43
891.412	55.42
891.787	55.41
892.162	55.42
892.536	55.42
892.911	55.4
893.286	55.41
893.66	55.42
894.035	55.41
894.409	55.4
894.784	55.42
895.158	55.39
895.532	55.41
895.906	55.41
896.281	55.41
896.655	55.42
897.029	55.46
897.402	55.47
897.776	55.49
898.15	55.46
898.524	55.49
898.898	55.47
899.271	55.47
899.645	55.47
900.018	55.47
900.392	55.49
900.765	55.51
901.138	55.48
901.511	55.48
901.884	55.48
902.258	55.53
902.631	55.52
903.003	55.54
903.376	55.53
903.749	55.52
904.122	55.56
904.495	55.55
904.867	55.56
905.24	55.57
905.612	55.58
905.985	55.56
906.357	55.53
906.729	55.54
907.102	55.52
907.474	55.52
907.846	55.52
908.218	55.48
908.59	55.48
908.962	55.48
909.334	55.47
909.705	55.46
910.077	55.5
910.449	55.49
910.82	55.47
911.192	55.45
911.563	55.44
911.935	55.41
912.306	55.39
912.677	55.39
913.048	55.41
913.419	55.39
913.79	55.37
914.161	55.35
914.532	55.33
914.903	55.32
915.274	55.34
915.645	55.36
916.015	55.4
916.386	55.43
916.756	55.4
917.127	55.39
917.497	55.39
917.868	55.39
918.238	55.37
918.608	55.41
918.978	55.44
919.348	55.43
919.718	55.42
920.088	55.43
920.458	55.43
920.828	55.42
921.198	55.38
921.567	55.38
921.937	55.4
922.306	55.38
922.676	55.38
923.045	55.35
923.415	55.34
923.784	55.36
924.153	55.34
924.522	55.36
924.891	55.36
925.26	55.38
925.629	55.37
925.998	55.36
926.367	55.4
926.736	55.37
927.104	55.4
927.473	55.36
927.842	55.33
928.21	55.35
928.578	55.27
928.947	55.27
929.315	55.23
929.683	55.22
930.051	55.18
930.42	55.13
930.788	55.11
931.156	55.02
931.523	55.01
931.891	55
932.259	54.96
932.627	54.98
932.994	54.96
933.362	54.94
933.729	54.94
934.097	54.94
934.464	54.93
934.831	54.88
935.199	54.93
935.566	54.95
935.933	54.98
936.3	54.96
936.667	54.92
937.034	54.9
937.401	54.9
937.767	54.91
938.134	54.87
938.501	54.92
938.867	54.99
939.234	55.01
939.6	54.99
939.967	54.96
940.333	54.95
940.699	55.02
941.065	54.99
941.431	55.04
941.798	54.96
942.163	54.97
942.529	54.88
942.895	54.86
943.261	54.82
943.627	54.8
943.992	54.77
944.358	54.78
944.723	54.71
945.089	54.7
945.454	54.67
945.82	54.7
946.185	54.74
946.55	54.73
946.915	54.7
947.28	54.64
947.645	54.64
948.01	54.63
948.375	54.62
948.74	54.64
949.104	54.69
949.469	54.68
949.834	54.6
950.198	54.57
950.562	54.6
950.927	54.57
951.291	54.57
951.655	54.49
952.02	54.48
952.384	54.45
952.748	54.41
953.112	54.38
953.476	54.33
953.839	54.34
954.203	54.32
954.567	54.32
954.931	54.3
955.294	54.27
955.658	54.37
956.021	54.35
956.385	54.32
956.748	54.26
957.111	54.25
957.474	54.27
957.837	54.19
958.2	54.14
958.563	54.13
958.926	54.16
959.289	54.18
959.652	54.12
960.015	54.12
960.377	54.1
960.74	54.15
961.102	54.15
961.465	54.17
961.827	54.25
962.189	54.31
962.552	54.31
962.914	54.29
963.276	54.29
963.638	54.32
964	54.31
964.362	54.33
964.724	54.27
965.085	54.24
965.447	54.21
965.809	54.18
966.17	54.15
966.532	54.12
966.893	54.15
967.255	54.2
967.616	54.23
967.977	54.25
968.338	54.26
968.699	54.31
969.061	54.32
969.421	54.39
969.782	54.41
970.143	54.4
970.504	54.43
970.865	54.45
971.225	54.4
971.586	54.34
971.946	54.26
972.307	54.21
972.667	54.2
973.027	54.22
973.388	54.19
973.748	54.22
974.108	54.26
974.468	54.21
974.828	54.14
975.188	54.1
975.548	54.07
975.907	54.12
976.267	54.15
976.627	54.14
976.986	54.09
977.346	54.03
977.705	54
978.064	53.99
978.424	54.01
978.783	54
979.142	54
979.501	54.05
979.86	54.1
980.219	54.09
980.578	54.12
980.937	54.14
981.296	54.11
981.654	54.07
982.013	54.02
982.371	53.99
982.73	53.97
983.088	53.99
983.447	53.89
983.805	53.85
984.163	53.79
984.521	53.79
984.879	53.72
985.237	53.69
985.595	53.76
985.953	53.77
986.311	53.79
986.669	53.8
987.026	53.76
987.384	53.86
987.741	53.76
988.099	53.85
988.456	53.77
988.814	53.81
989.171	53.85
989.528	53.82
989.885	53.78
990.242	53.77
990.599	53.84
990.956	53.87
991.313	53.84
991.67	53.97
992.027	54.01
992.383	54.04
992.74	54.11
993.096	54.1
993.453	54.13
993.809	54.1
994.165	54.18
994.522	54.14
994.878	54.14
995.234	54.12
995.59	54.01
995.946	53.94
996.302	53.97
996.658	54.03
997.013	54.03
997.369	53.99
997.725	54.16
998.08	54.16
998.436	54.13
998.791	54.17
999.147	54.14
999.502	54.2
999.857	54.15
1000.212	54.09
1000.567	54
1000.922	54.02
1001.277	54.03
1001.632	53.73
1001.987	53.65
1002.342	53.68
1002.696	53.54
1003.051	53.68
1003.406	53.82
1003.76	53.71
1004.114	53.67
1004.469	53.72
1004.823	53.87
1005.177	53.75
1005.531	53.96
1005.885	53.99
1006.239	54.03
1006.593	54.17
1006.947	53.92
1007.301	53.66
1007.655	53.85
1008.008	53.98
1008.362	54
1008.715	53.86
1009.069	54
1009.422	53.89
1009.776	53.84
1010.129	53.83
1010.482	53.79
1010.835	54.03
1011.188	54.17
1011.541	54.11
1011.894	54
1012.247	53.79
1012.6	53.72
1012.952	53.59
1013.305	53.77
1013.657	53.71
1014.01	53.62
1014.362	53.51
1014.715	53.35
1015.067	53.38
1015.419	53.52
1015.771	53.63
1016.123	53.64
1016.475	53.77
1016.827	53.9
1017.179	53.73
1017.531	53.86
1017.883	53.8
1018.234	53.83
1018.586	53.98
1018.938	53.91
1019.289	53.71
1019.64	53.54
1019.992	53.58
1020.343	53.47
1020.694	53.51
1021.045	53.57
1021.396	53.78
1021.747	54.07
1022.098	54.23
1022.449	54.12
1022.8	54.32
1023.151	54.32
1023.501	54.31
1023.852	54.46
1024.202	54.37
1024.553	54.25
1024.903	54.42
1025.253	54.31
1025.604	53.97
1025.954	53.65
1026.304	53.74
1026.654	53.63
1027.004	53.67
1027.354	53.69
1027.703	53.37
1028.053	53.35
1028.403	53.24
1028.753	52.75
1029.102	52.76
1029.452	52.98
1029.801	53.39
1030.15	53.25
1030.499	53.06
897.758	952.32
901.051	959.59
904.343	956.25
907.636	971.39
910.928	947.39
914.22	948.39
917.511	936.65
920.803	888.19
924.094	886.4
927.384	863.04
930.675	828.76
933.965	827.83
937.255	780.66
940.544	750.98
943.834	717.46
947.123	711.01
950.411	671.22
953.7	657.31
956.988	628.27
960.276	605.12
963.563	592.85
966.851	573.58
970.138	567.86
973.424	549.98
976.711	551.95
979.997	526.03
983.283	522.2
986.568	511.12
989.853	497.18
993.138	486.71
996.423	467.35
999.708	456.46
1002.992	451.32
1006.275	432.95
1009.559	428.51
1012.842	415.25
1016.125	404.32
1019.408	396.95
1022.69	390.43
1025.972	381.99
1029.254	373.95
1032.536	368.44
1035.817	360.33
1039.098	357.33
1042.379	349.54
1045.659	346.6
1048.939	336.57
1052.219	330.17
1055.498	326.45
1058.778	319.83
1062.057	314.13
1065.335	310.99
1068.614	306.19
1071.892	303.91
1075.17	295.1
1078.447	289.96
1081.724	287.01
1085.001	285.75
1088.278	280.39
1091.554	274.74
1094.83	274.5
1098.106	271.7
1101.382	270.52
1104.657	269.76
1107.932	264.85
1111.206	265.32
1114.481	259.49
1117.755	257.37
1121.029	255.32
1124.302	254.91
1127.575	250.52
1130.848	248.3
1134.121	246.21
1137.393	243.95
1140.665	238.61
1143.937	237.71
1147.208	237.37
1150.48	236.01
1153.75	233.62
1157.021	231.07
1160.291	230.96
1163.561	228.2
1166.831	228.41
1170.101	226.44
1173.37	226.32
1176.639	227.23
1179.907	225.46
1183.176	222.02
1186.444	222.34
1189.711	222.13
1192.979	221.4
1196.246	219.91
1199.513	221.31
1202.78	219.87
1206.046	219.78
1209.312	217.65
1212.578	217.69
1215.843	218.9
1219.108	218.47
1222.373	221.93
1225.638	223.2
1228.902	225.58
1232.166	226.13
1235.43	227.2
1238.693	230.45
1241.956	231.8
1245.219	234.61
1248.482	234.64
1251.744	234.88
1255.006	235.52
1258.268	230.08
1261.529	228.34
1264.79	227.23
1268.051	225.61
1271.312	223.62
1274.572	220.29
1277.832	218.41
1281.092	215.38
1284.351	214.13
1287.61	214.23
1290.869	211.31
1294.128	210.9
1297.386	210.5
1300.644	208.36
1303.902	209.01
1307.159	207.97
1310.416	207.84
1313.673	206.89
1316.93	208.82
1320.186	208.28
1323.442	208.63
1326.697	211.14
1329.953	211.82
1333.208	212.36
1336.463	215.1
1339.717	215.64
1342.972	217.38
1346.226	219.58
1349.479	220.9
1352.733	221.71
1355.986	222.76
1359.238	222.36
1362.491	222.91
1365.743	224.42
1368.995	224.91
1372.247	224.66
1375.498	223.7
1378.749	225.79
1382	222.8
1385.251	222.4
1388.501	220.86
1391.751	221.23
1395	219.67
1398.25	218.66
1401.499	216.79
1404.748	215.85
1407.996	213.17
1411.244	212.74
1414.492	210.23
1417.74	207.95
1420.987	206.27
1424.234	205.07
1427.481	202.58
1430.728	203.11
1433.974	200.94
1437.22	199.07
1440.465	198.31
1443.711	195.79
1446.956	194.25
1450.201	192.97
1453.445	191.47
1456.689	189.81
1459.933	187.31
1463.177	185.74
1466.42	182.45
1469.663	179.7
1472.906	179.04
1476.148	174.86
1479.391	173.8
1482.633	172.49
1485.874	169.89
1489.115	168.21
1492.356	166.56
1495.597	166.22
1498.838	164
1502.078	163.49
1505.318	163.65
1508.557	163.07
1511.797	163.05
1515.036	161.9
1518.274	161.18
1521.513	160.7
1524.751	160.77
1527.989	160.47
1531.227	159.98
1534.464	160.27
1537.701	159.2
1540.938	158.71
1544.174	157.61
1547.41	157.61
1550.646	156.18
1553.882	156.72
1557.117	154.75
1560.352	153.77
1563.587	154.01
1566.821	152.93
1570.055	151.71
1573.289	150.77
1576.523	150.53
1579.756	149.44
1582.989	148.8
1586.222	149.11
1589.454	147.85
1592.686	148.98
1595.918	148.61
1599.15	147.76
1602.381	148.41
1605.612	148.44
1608.843	148.92
1612.073	148.76
1615.303	149.91
1618.533	149.73
1621.762	150.04
1624.992	150.68
1628.221	150.18
1631.449	150.05
1634.678	150.25
1637.906	151.01
1641.134	151.27
1644.361	151.09
1647.588	151.47
1650.815	150.86
1654.042	150.17
1657.269	150.67
1660.495	150.59
1663.72	151
1666.946	151.5
1670.171	151.75
1673.396	150.93
1676.621	151.13
1679.845	151.29
1683.069	151.62
1686.293	152.36
1689.517	153.37
1692.74	153.26
1695.963	153.42
1699.185	153.87
1702.408	154.05
1705.63	154.48
1708.852	155.48
1712.073	155.04
1715.294	155.7
1718.515	156.41
1721.736	156.02
1724.956	156.66
1728.176	156.82
1731.396	157.99
1734.616	157.72
1737.835	158.66
1741.054	157.05
1744.272	157.34
1747.491	158.9
1750.709	158.8
1753.927	158.45
1757.144	158.34
1760.361	158.4
1763.578	158.79
1766.795	158.27
1770.011	159.45
1773.227	158.77
1776.443	161.01
1779.658	161.09
1782.874	160.75
1786.089	161.28
1789.303	161.64
1792.518	163.43
1795.732	163.5
1798.945	164.51
1802.159	164.87
1805.372	164.52
1808.585	167.36
1811.797	167.87
1815.01	168.47
1818.222	169.82
1821.434	171.76
1824.645	171.93
1827.856	174.43
1831.067	175.82
1834.278	174.86
1837.488	176.56
1840.698	177.66
1843.908	176.36
1847.117	176.63
1850.326	177.07
1853.535	176.19
1856.744	177.59
1859.952	177.57
1863.16	175.53
1866.368	174.42
1869.575	175.66
1872.782	173.38
1875.989	171.82
1879.196	170.73
1882.402	169.37
1885.608	169.77
1888.814	169.54
1892.019	167.66
1895.224	166.87
1898.429	166.69
1901.634	166.53
1904.838	166.39
1908.042	167.16
1911.246	167.58
1914.449	168.55
1917.652	168.26
1920.855	167.43
1924.058	167.14
1927.26	166.9
1930.462	167.09
1933.664	168.2
1936.865	166.67
1940.066	166.74
1943.267	165.18
1946.467	165.08
1949.668	165.97
1952.868	168.41
1956.067	168.82
1959.267	169.43
1962.466	169.46
1965.665	168.89
1968.863	169.45
1972.061	172.91
1975.259	173.49
1978.457	175.7
1981.654	177.97
1984.852	178.2
1988.048	177.2
1991.245	178.81
1994.441	180.78
1997.637	183.19
2000.833	187.64
2004.028	189.44
2007.223	189.92
2010.418	192.73
2013.613	195.24
2016.807	197.28
2020.001	199.49
2023.194	203.25
2026.388	207.09
2029.581	211.18
2032.774	212.4
2035.966	215.55
2039.158	216.36
2042.35	220.16
2045.542	222.22
2048.733	225.55
2051.924	229.12
2055.115	232.82
2058.306	232.38
2061.496	235.12
2064.686	235.98
2067.875	240.18
2071.065	240.89
2074.254	240.11
2077.442	244.16
2080.631	244.55
2083.819	247.99
2087.007	246.76
2090.195	249.47
2093.382	252.44
2096.569	251.43
2099.756	255.19
2102.942	255.83
2106.128	258.4
2109.314	264.55
2112.5	262.82
2115.685	268.53
2118.87	268.64
2122.055	275.46
2125.239	276.61
2128.424	279.29
2131.608	281.55
2134.791	285.56
2137.974	286.05
2141.157	287.47
2144.34	287.88
2147.523	292.69
2150.705	291.21
2153.887	294.23
2157.068	293.52
2160.25	291.81
2163.431	293.9
2166.611	296.76
2169.792	301.42
2172.972	305.29
2176.152	307.13
2179.331	310.81
2182.511	314.77
2185.69	318.05
2188.868	323.74
2192.047	325.75
2195.225	335.56
2198.403	342.14
2201.58	350.33
2204.758	356.77
2207.935	364.74
2211.111	370.46
2214.288	375.1
2217.464	376.36
2220.64	384.03
2223.815	387.42
2226.991	402.33
2230.166	401.9
2233.34	408.54
2236.515	413.07
2239.689	414.37
2242.863	416.89
2246.036	429.6
2249.209	426.04
2252.382	431.5
2255.555	442.25
2258.727	445.09
2261.9	448.77
2265.071	453.97
2268.243	462.08
2271.414	467.22
2274.585	476.56
2277.756	479.25
2280.926	482.87
2284.096	495.07
2287.266	506.92
2290.436	509.23
2293.605	522.19
2296.774	535.45
2299.942	551.84
2303.111	556.43
2306.279	567.03
2309.447	573.96
2312.614	589.65
2315.781	604.12
2318.948	629.56
2322.115	622.67
2325.281	660.2
2328.447	642.51
2331.613	667.46
2334.779	660.74
2337.944	686.55
2341.109	695.04
2344.274	714.39
2347.438	739.69
2350.602	739.7
2353.766	765.25
2356.929	776.78
2360.092	768.86
2363.255	826.48
2366.418	827.9
2369.58	841.97
2372.742	892.62
2375.904	916.92
2379.066	912.05
2382.227	895.14
2385.388	969.36
2388.548	966.5
2391.709	978.21
2394.869	1087.01
2398.029	1045.97
2401.188	1070.23
2404.347	1065.81
2407.506	1048.65
2410.665	1074.43
2413.823	1145.68
2416.981	1210.73
2420.139	1174.2
2423.296	1160.8
2426.453	1212.72
2429.61	1166.78
2432.767	1215.45
2435.923	1206.81
2439.079	1316.49
2442.235	1339.73
2445.391	1331.07
2448.546	1312.86
2451.701	1279.08
2454.855	1279.47
2458.009	1354.79
2461.163	1406.64
2464.317	1458.69
2467.471	1497.53
2470.624	1496.72
2473.777	1457.4
2476.929	1417.95
2480.082	1374.57
2483.234	1360.3
2486.385	1427.83
2489.537	1431.91
2492.688	1489.92
2495.839	1451.04
2498.989	1417.83
2502.14	1421.05
2505.29	1435.5
2508.439	1457.92
2511.589	1453.86
2514.738	1588.91
2517.887	1552.86
2521.035	1633.78
2524.183	1653.77
2527.331	1664.43
2530.479	1654.71
2533.627	1667.6
