Data from C_1_DEC_OH_4N_Splice17_12-43-45-633.txt Node
Date: Sat Mar 07 12:43:45 EST 2020
User: sa697716
Spectrometer: NQ5500242
Trigger mode: 0
Integration Time (sec): 1.450000E-1
Scans to average: 20
Nonlinearity correction enabled: false
Boxcar width: 5
Storing dark spectrum: false
XAxis mode: Wavelengths
Number of Pixels in Spectrum: 512
>>>>>Begin Spectral Data<<<<<
187.83	69.51
188.298	79.25
188.766	58.55
189.233	59.8
189.701	62.85
190.169	73.31
190.636	72.11
191.104	-28.33
191.571	-188.5
192.039	64.05
192.506	45.08
192.974	23.41
193.441	121.83
193.908	36.73
194.375	57.77
194.842	33.31
195.31	84.38
195.777	93.83
196.244	25.89
196.711	37.72
197.177	40.67
197.644	40.28
198.111	39.95
198.578	39.8
199.045	39.88
199.511	39.98
199.978	40.07
200.445	40.06
200.911	40.23
201.378	40.69
201.844	40.5
202.31	40.15
202.777	40.56
203.243	40.89
203.709	40.83
204.176	40.52
204.642	40.33
205.108	40.47
205.574	40.4
206.04	40.18
206.506	39.65
206.972	39.76
207.438	39.3
207.903	38.66
208.369	38.18
208.835	37.71
209.301	37.39
209.766	36.83
210.232	36.24
210.697	35.64
211.163	35.19
211.628	34.92
212.094	34.38
212.559	34.33
213.024	34.12
213.49	33.67
213.955	33.37
214.42	32.95
214.885	32.5
215.35	31.73
215.815	30.73
216.28	29.53
216.745	28.18
217.21	26.95
217.675	25.91
218.14	24.89
218.604	24.11
219.069	23.46
219.534	22.91
219.998	22.5
220.463	22.17
220.927	21.83
221.392	21.55
221.856	21.27
222.32	21.04
222.785	20.78
223.249	20.59
223.713	20.37
224.177	20.15
224.642	19.93
225.106	19.67
225.57	19.42
226.034	19.21
226.497	18.99
226.961	18.8
227.425	18.59
227.889	18.39
228.353	18.18
228.816	17.98
229.28	17.79
229.744	17.59
230.207	17.42
230.671	17.23
231.134	17.03
231.597	16.88
232.061	16.7
232.524	16.53
232.987	16.36
233.45	16.22
233.914	16.05
234.377	15.88
234.84	15.71
235.303	15.57
235.766	15.43
236.229	15.29
236.691	15.14
237.154	15.01
237.617	14.88
238.08	14.73
238.542	14.58
239.005	14.45
239.468	14.31
239.93	14.19
240.393	14.05
240.855	13.91
241.317	13.77
241.78	13.63
242.242	13.5
242.704	13.39
243.166	13.27
243.629	13.17
244.091	13.05
244.553	12.94
245.015	12.84
245.477	12.72
245.939	12.63
246.4	12.53
246.862	12.45
247.324	12.35
247.786	12.24
248.247	12.15
248.709	12.04
249.17	11.95
249.632	11.88
250.093	11.79
250.555	11.71
251.016	11.64
251.477	11.56
251.939	11.49
252.4	11.43
252.861	11.37
253.322	11.3
253.783	11.24
254.244	11.19
254.705	11.12
255.166	11.06
255.627	11
256.088	10.93
256.549	10.89
257.009	10.82
257.47	10.75
257.931	10.69
258.391	10.62
258.852	10.57
259.312	10.52
259.773	10.46
260.233	10.41
260.694	10.35
261.154	10.3
261.614	10.25
262.074	10.2
262.534	10.15
262.994	10.11
263.455	10.09
263.915	10.05
264.374	10.01
264.834	10
265.294	9.97
265.754	9.96
266.214	9.93
266.673	9.91
267.133	9.9
267.593	9.88
268.052	9.87
268.512	9.85
268.971	9.83
269.431	9.81
269.89	9.79
270.349	9.77
270.809	9.74
271.268	9.72
271.727	9.69
272.186	9.65
272.645	9.63
273.104	9.6
273.563	9.57
274.022	9.54
274.481	9.52
274.94	9.49
275.399	9.45
275.857	9.43
276.316	9.41
276.775	9.39
277.233	9.37
277.692	9.34
278.15	9.32
278.609	9.3
279.067	9.28
279.525	9.25
279.984	9.22
280.442	9.19
280.9	9.16
281.358	9.13
281.816	9.11
282.274	9.09
282.732	9.06
283.19	9.03
283.648	9
284.106	8.96
284.564	8.94
285.021	8.91
285.479	8.89
285.937	8.86
286.394	8.83
286.852	8.79
287.309	8.75
287.767	8.71
288.224	8.67
288.682	8.63
289.139	8.6
289.596	8.56
290.053	8.52
290.511	8.48
290.968	8.45
291.425	8.43
291.882	8.41
292.339	8.38
292.796	8.37
293.252	8.35
293.709	8.33
294.166	8.31
294.623	8.3
295.079	8.28
295.536	8.27
295.992	8.25
296.449	8.22
296.905	8.21
297.362	8.19
297.818	8.16
298.274	8.15
298.731	8.13
299.187	8.11
299.643	8.09
300.099	8.07
300.555	8.04
301.011	8.02
301.467	8
301.923	7.97
302.379	7.95
302.835	7.94
303.291	7.91
303.746	7.89
304.202	7.87
304.658	7.85
305.113	7.83
305.569	7.82
306.024	7.8
306.479	7.78
306.935	7.77
307.39	7.75
307.845	7.74
308.301	7.72
308.756	7.7
309.211	7.68
309.666	7.68
310.121	7.67
310.576	7.65
311.031	7.64
311.486	7.63
311.94	7.62
312.395	7.61
312.85	7.6
313.305	7.59
313.759	7.59
314.214	7.57
314.668	7.55
315.123	7.53
315.577	7.51
316.032	7.5
316.486	7.48
316.94	7.46
317.394	7.43
317.849	7.4
318.303	7.38
318.757	7.35
319.211	7.33
319.665	7.31
320.119	7.29
320.572	7.26
321.026	7.24
321.48	7.21
321.934	7.19
322.387	7.18
322.841	7.16
323.295	7.15
323.748	7.14
324.202	7.12
324.655	7.11
325.108	7.1
325.562	7.08
326.015	7.08
326.468	7.07
326.921	7.06
327.374	7.05
327.827	7.03
328.28	7.01
328.733	7
329.186	6.98
329.639	6.96
330.092	6.95
330.545	6.94
330.997	6.91
331.45	6.9
331.903	6.89
332.355	6.89
332.808	6.88
333.26	6.86
333.713	6.85
334.165	6.84
334.617	6.84
335.069	6.82
335.522	6.81
335.974	6.8
336.426	6.79
336.878	6.78
337.33	6.76
337.782	6.75
338.234	6.75
338.686	6.74
339.137	6.74
339.589	6.72
340.041	6.71
340.493	6.7
340.944	6.68
341.396	6.66
341.847	6.64
342.299	6.61
342.75	6.6
343.201	6.57
343.653	6.56
344.104	6.52
344.555	6.52
345.006	6.51
345.457	6.49
345.908	6.48
346.359	6.48
346.81	6.46
347.261	6.45
347.712	6.44
348.163	6.43
348.613	6.43
349.064	6.43
349.515	6.41
349.965	6.4
350.416	6.39
350.866	6.37
351.317	6.35
351.767	6.35
352.217	6.36
352.668	6.35
353.118	6.35
353.568	6.33
354.018	6.32
354.468	6.32
354.918	6.32
355.368	6.32
355.818	6.32
356.268	6.32
356.718	6.32
357.168	6.31
357.617	6.29
358.067	6.29
358.517	6.29
358.966	6.29
359.416	6.29
359.865	6.28
360.315	6.29
360.764	6.27
361.213	6.25
361.663	6.24
362.112	6.24
362.561	6.24
363.01	6.22
363.459	6.21
363.908	6.2
364.357	6.19
364.806	6.18
365.255	6.16
365.703	6.16
366.152	6.16
366.601	6.16
367.05	6.16
367.498	6.16
367.947	6.15
368.395	6.15
368.844	6.14
369.292	6.13
369.74	6.13
370.189	6.12
370.637	6.12
371.085	6.1
371.533	6.09
371.981	6.08
372.429	6.07
372.877	6.07
373.325	6.06
373.773	6.05
374.221	6.03
374.669	6.01
375.116	5.99
375.564	5.98
376.012	5.98
376.459	5.97
376.907	5.97
377.354	5.97
377.801	5.96
378.249	5.95
378.696	5.95
379.143	5.95
379.591	5.95
380.038	5.95
380.485	5.94
380.932	5.94
381.379	5.95
381.826	5.94
382.273	5.93
382.72	5.91
383.166	5.9
383.613	5.91
384.06	5.9
384.506	5.89
384.953	5.89
385.4	5.89
385.846	5.9
386.292	5.89
386.739	5.87
387.185	5.86
387.631	5.87
388.078	5.87
388.524	5.87
388.97	5.86
389.416	5.87
389.862	5.87
390.308	5.87
390.754	5.87
391.2	5.88
391.645	5.89
392.091	5.91
392.537	5.91
392.983	5.9
393.428	5.9
393.874	5.9
394.319	5.89
394.765	5.89
395.21	5.88
395.655	5.88
396.101	5.89
396.546	5.88
396.991	5.89
397.436	5.9
397.881	5.92
398.326	5.94
398.771	5.95
399.216	5.95
399.661	5.97
400.106	5.98
400.551	5.98
400.995	5.98
401.44	5.99
401.885	5.98
402.329	6
402.774	5.99
403.218	6
403.663	6.01
404.107	6.02
404.551	6.03
404.995	6.03
405.44	6.03
405.884	6.04
406.328	6.05
406.772	6.06
407.216	6.06
407.66	6.07
408.104	6.06
408.547	6.06
408.991	6.07
409.435	6.06
409.879	6.07
410.322	6.08
410.766	6.08
411.209	6.09
411.653	6.1
412.096	6.11
412.54	6.11
412.983	6.12
413.426	6.13
413.869	6.15
414.312	6.17
414.756	6.18
415.199	6.17
415.642	6.18
416.085	6.17
416.527	6.16
416.97	6.16
417.413	6.15
417.856	6.15
418.298	6.15
418.741	6.14
419.184	6.14
419.626	6.13
420.069	6.15
420.511	6.15
420.953	6.17
421.396	6.16
421.838	6.16
422.28	6.16
422.722	6.18
423.164	6.16
423.606	6.16
424.048	6.16
424.49	6.16
424.932	6.16
425.374	6.13
425.816	6.1
426.258	6.1
426.699	6.1
427.141	6.1
427.582	6.1
428.024	6.1
428.465	6.11
428.907	6.09
429.348	6.08
429.789	6.09
430.231	6.12
430.672	6.14
431.113	6.16
431.554	6.17
431.995	6.19
432.436	6.18
432.877	6.2
433.318	6.22
433.759	6.25
434.2	6.27
434.64	6.27
435.081	6.26
435.522	6.28
435.962	6.28
436.403	6.31
436.843	6.31
437.284	6.3
437.724	6.29
438.164	6.27
438.604	6.28
439.045	6.27
439.485	6.28
439.925	6.27
440.365	6.28
440.805	6.26
441.245	6.26
441.685	6.28
442.125	6.3
442.564	6.32
443.004	6.32
443.444	6.31
443.883	6.33
444.323	6.32
444.762	6.32
445.202	6.3
445.641	6.32
446.081	6.33
446.52	6.31
446.959	6.32
447.398	6.31
447.837	6.32
448.276	6.32
448.716	6.33
449.154	6.35
449.593	6.35
450.032	6.36
450.471	6.34
450.91	6.33
451.349	6.33
451.787	6.32
452.226	6.31
452.664	6.3
453.103	6.29
453.541	6.29
453.98	6.28
454.418	6.26
454.856	6.26
455.295	6.25
455.733	6.22
456.171	6.22
456.609	6.21
457.047	6.2
457.485	6.18
457.923	6.19
458.361	6.17
458.798	6.17
459.236	6.18
459.674	6.18
460.111	6.19
460.549	6.21
460.987	6.22
461.424	6.24
461.862	6.25
462.299	6.26
462.736	6.25
463.173	6.26
463.611	6.25
464.048	6.26
464.485	6.27
464.922	6.27
465.359	6.27
465.796	6.28
466.233	6.28
466.67	6.28
467.106	6.29
467.543	6.3
467.98	6.3
468.416	6.31
468.853	6.31
469.29	6.31
469.726	6.31
470.162	6.3
470.599	6.3
471.035	6.28
471.471	6.27
471.907	6.27
472.344	6.26
472.78	6.25
473.216	6.24
473.652	6.24
474.088	6.21
474.523	6.21
474.959	6.21
475.395	6.2
475.831	6.2
476.266	6.21
476.702	6.19
477.138	6.18
477.573	6.17
478.008	6.17
478.444	6.15
478.879	6.16
479.314	6.15
479.75	6.14
480.185	6.13
480.62	6.12
481.055	6.1
481.49	6.09
481.925	6.09
482.36	6.08
482.795	6.08
483.229	6.08
483.664	6.07
484.099	6.07
484.534	6.06
484.968	6.07
485.403	6.07
485.837	6.07
486.271	6.09
486.706	6.09
487.14	6.1
487.574	6.11
488.009	6.12
488.443	6.13
488.877	6.15
489.311	6.17
489.745	6.18
490.179	6.2
490.613	6.23
491.046	6.24
491.48	6.26
491.914	6.29
492.348	6.31
492.781	6.35
493.215	6.39
493.648	6.43
494.082	6.47
494.515	6.5
494.948	6.54
495.382	6.58
495.815	6.63
496.248	6.7
496.681	6.76
497.114	6.82
497.547	6.87
497.98	6.93
498.413	6.98
498.846	7.06
499.279	7.14
499.711	7.22
500.144	7.31
500.577	7.4
501.009	7.48
501.442	7.57
501.874	7.67
502.306	7.77
502.739	7.89
503.171	8.02
503.603	8.13
504.036	8.26
504.468	8.39
504.9	8.52
505.332	8.66
505.764	8.82
506.196	8.98
506.627	9.16
507.059	9.33
507.491	9.51
507.923	9.7
508.354	9.91
508.786	10.12
509.217	10.34
509.649	10.56
510.08	10.79
510.512	11.02
510.943	11.27
511.374	11.52
511.805	11.77
512.237	12.02
512.668	12.29
513.099	12.55
513.53	12.83
513.961	13.11
514.391	13.41
514.822	13.7
515.253	13.99
515.684	14.29
516.114	14.59
516.545	14.9
516.975	15.22
517.406	15.52
517.836	15.84
518.267	16.16
518.697	16.47
519.127	16.76
519.558	17.08
519.988	17.39
520.418	17.68
520.848	17.98
521.278	18.27
521.708	18.66
522.138	18.96
522.567	19.25
522.997	19.5
523.427	19.79
523.857	20.07
524.286	20.32
524.716	20.58
525.145	20.84
525.575	21.08
526.004	21.32
526.433	21.44
526.863	21.65
527.292	21.86
527.721	22.07
528.15	22.24
528.579	22.43
529.008	22.6
529.437	22.75
529.866	22.9
530.295	23.05
530.724	23.19
531.152	23.32
531.581	23.47
532.01	23.59
532.438	23.71
532.867	23.83
533.295	23.93
533.723	24.02
534.152	24.12
534.58	24.21
535.008	24.28
535.436	24.37
535.865	24.42
536.293	24.47
536.721	24.52
537.149	24.58
537.576	24.64
538.004	24.71
538.432	24.76
538.86	24.81
539.287	24.84
539.715	24.9
540.143	24.94
540.57	24.99
540.998	25.04
541.425	25.08
541.852	25.1
542.28	25.13
542.707	25.15
543.134	25.18
543.561	25.21
543.988	25.25
544.415	25.27
544.842	25.28
545.269	25.3
545.696	25.31
546.123	25.34
546.549	25.36
546.976	25.37
547.403	25.38
547.829	25.4
548.256	25.4
548.682	25.41
549.108	25.42
549.535	25.43
549.961	25.44
550.387	25.44
550.813	25.46
551.24	25.44
551.666	25.43
552.092	25.41
552.518	25.4
552.943	25.39
553.369	25.36
553.795	25.32
554.221	25.29
554.646	25.24
555.072	25.18
555.498	25.1
555.923	25.05
556.349	24.97
556.774	24.89
557.199	24.79
557.625	24.7
558.05	24.62
558.475	24.52
558.9	24.42
559.325	24.32
559.75	24.21
560.175	24.11
560.6	23.98
561.025	23.85
561.449	23.72
561.874	23.59
562.299	23.44
562.723	23.28
563.148	23.13
563.572	22.99
563.997	22.82
564.421	22.67
564.846	22.51
565.27	22.34
565.694	22.2
566.118	22.02
566.542	21.85
566.966	21.69
567.39	21.53
567.814	21.35
568.238	21.16
568.662	20.99
569.086	20.81
569.509	20.63
569.933	20.47
570.357	20.28
570.78	20.12
571.204	19.95
571.627	19.8
572.05	19.63
572.474	19.49
572.897	19.34
573.32	19.19
573.743	19.04
574.166	18.9
574.589	18.76
575.012	18.63
575.435	18.5
575.858	18.4
576.281	18.26
576.704	18.13
577.126	18.01
577.549	17.9
577.972	17.78
578.394	17.68
578.817	17.57
579.239	17.49
579.661	17.39
580.084	17.28
580.506	17.18
580.928	17.08
581.35	16.99
581.772	16.88
582.194	16.79
582.616	16.7
583.038	16.61
583.46	16.52
583.882	16.43
584.303	16.35
584.725	16.26
585.147	16.19
585.568	16.12
585.99	16.04
586.411	15.97
586.833	15.91
587.254	15.84
587.675	15.78
588.096	15.71
588.518	15.65
588.939	15.6
589.36	15.54
589.781	15.48
590.202	15.42
590.623	15.38
591.043	15.34
591.464	15.29
591.885	15.25
592.305	15.21
592.726	15.19
593.147	15.15
593.567	15.1
593.987	15.06
594.408	15.02
594.828	14.99
595.248	14.97
595.669	14.93
596.089	14.89
596.509	14.85
596.929	14.81
597.349	14.77
597.769	14.73
598.189	14.69
598.608	14.66
599.028	14.62
599.448	14.58
599.867	14.52
600.287	14.49
600.706	14.45
601.126	14.4
601.545	14.36
601.965	14.33
602.384	14.27
602.803	14.21
603.222	14.16
603.641	14.1
604.061	14.05
604.48	13.99
604.898	13.91
605.317	13.84
605.736	13.77
606.155	13.7
606.574	13.63
606.992	13.56
607.411	13.49
607.829	13.39
608.248	13.31
608.666	13.23
609.085	13.16
609.503	13.09
609.921	13.03
610.339	12.96
610.758	12.89
611.176	12.8
611.594	12.73
612.012	12.67
612.43	12.62
612.847	12.56
613.265	12.49
613.683	12.42
614.101	12.34
614.518	12.27
614.936	12.19
615.353	12.11
615.771	12.05
616.188	11.99
616.606	11.92
617.023	11.87
617.44	11.82
617.857	11.77
618.274	11.72
618.691	11.67
619.108	11.63
619.525	11.59
619.942	11.56
620.359	11.52
620.776	11.49
621.192	11.45
621.609	11.43
622.026	11.39
622.442	11.37
622.859	11.34
623.275	11.33
623.691	11.31
624.108	11.3
624.524	11.28
624.94	11.26
625.356	11.25
625.772	11.24
626.188	11.22
626.604	11.21
627.02	11.2
627.436	11.2
627.852	11.18
628.268	11.17
628.683	11.15
629.099	11.14
629.514	11.12
629.93	11.1
630.345	11.09
630.761	11.05
631.176	11.02
631.591	10.99
632.007	10.95
632.422	10.91
632.837	10.86
633.252	10.8
633.667	10.74
634.082	10.67
634.497	10.6
634.911	10.51
635.326	10.44
635.741	10.36
636.155	10.27
636.57	10.18
636.984	10.09
637.399	9.99
637.813	9.89
638.228	9.78
638.642	9.68
639.056	9.59
639.47	9.49
639.884	9.38
640.298	9.26
640.712	9.16
641.126	9.05
641.54	8.94
641.954	8.83
642.368	8.75
642.781	8.66
643.195	8.56
643.609	8.46
644.022	8.36
644.436	8.28
644.849	8.2
645.262	8.12
645.676	8.04
646.089	7.98
646.502	7.92
646.915	7.86
647.328	7.8
647.741	7.76
648.154	7.72
648.567	7.68
648.98	7.65
649.393	7.62
649.805	7.59
650.218	7.57
650.631	7.54
651.043	7.51
651.456	7.49
651.868	7.46
652.28	7.43
652.693	7.41
653.105	7.39
653.517	7.35
653.929	7.33
654.341	7.3
654.753	7.26
655.165	7.23
655.577	7.2
655.989	7.14
656.401	7.1
656.813	7.07
657.224	7.01
657.636	6.96
658.047	6.91
658.459	6.85
658.87	6.8
659.282	6.74
659.693	6.69
660.104	6.64
660.515	6.6
660.926	6.55
661.338	6.5
661.749	6.46
662.159	6.42
662.57	6.39
662.981	6.36
663.392	6.33
663.803	6.31
664.213	6.27
664.624	6.25
665.035	6.21
665.445	6.2
665.855	6.19
666.266	6.18
666.676	6.17
667.086	6.14
667.497	6.13
667.907	6.13
668.317	6.13
668.727	6.12
669.137	6.14
669.547	6.14
669.956	6.14
670.366	6.15
670.776	6.15
671.186	6.16
671.595	6.18
672.005	6.19
672.414	6.2
672.824	6.21
673.233	6.23
673.642	6.25
674.052	6.27
674.461	6.29
674.87	6.31
675.279	6.35
675.688	6.37
676.097	6.4
676.506	6.43
676.915	6.47
677.323	6.5
677.732	6.53
678.141	6.56
678.549	6.6
678.958	6.64
679.366	6.69
679.775	6.73
680.183	6.77
680.592	6.83
681	6.88
681.408	6.95
681.816	7.01
682.224	7.09
682.632	7.16
683.04	7.25
683.448	7.34
683.856	7.43
684.264	7.56
684.671	7.69
685.079	7.83
685.487	8
685.894	8.19
686.302	8.41
686.709	8.65
687.116	8.9
687.524	9.18
687.931	9.51
688.338	9.86
688.745	10.24
689.152	10.64
689.559	11.08
689.966	11.54
690.373	12.02
690.78	12.52
691.187	13.06
691.593	13.62
692	14.2
692.407	14.78
692.813	15.39
693.22	15.99
693.626	16.63
694.032	17.26
694.439	17.89
694.845	18.56
695.251	19.22
695.657	19.88
696.063	20.53
696.469	21.19
696.875	21.86
697.281	22.51
697.687	23.18
698.093	23.85
698.498	24.51
698.904	25.17
699.31	25.79
699.715	26.43
700.12	27.05
700.526	27.68
700.931	28.3
701.337	28.9
701.742	29.49
702.147	30.08
702.552	30.66
702.957	31.2
703.362	31.75
703.767	32.28
704.172	32.8
704.577	33.32
704.981	33.82
705.386	34.3
705.791	34.79
706.195	35.29
706.6	35.76
707.004	36.19
707.408	36.67
707.813	37.14
708.217	37.6
708.621	38.06
709.025	38.48
709.43	38.89
709.834	39.35
710.237	39.77
710.641	40.16
711.045	40.55
711.449	40.97
711.853	41.36
712.256	41.72
712.66	42.1
713.064	42.44
713.467	42.83
713.87	43.21
714.274	43.54
714.677	43.89
715.08	44.21
715.484	44.56
715.887	44.89
716.29	45.21
716.693	45.53
717.096	45.84
717.499	46.16
717.901	46.44
718.304	46.71
718.707	47.01
719.109	47.28
719.512	47.56
719.915	47.81
720.317	48.05
720.719	48.28
721.122	48.54
721.524	48.77
721.926	49.02
722.328	49.25
722.731	49.47
723.133	49.69
723.535	49.92
723.937	50.12
724.338	50.33
724.74	50.52
725.142	50.75
725.544	50.91
725.945	51.1
726.347	51.25
726.748	51.4
727.15	51.55
727.551	51.7
727.952	51.83
728.354	51.98
728.755	52.11
729.156	52.23
729.557	52.32
729.958	52.43
730.359	52.53
730.76	52.67
731.161	52.78
731.562	52.9
731.962	52.97
732.363	53.1
732.763	53.21
733.164	53.28
733.564	53.4
733.965	53.47
734.365	53.56
734.766	53.63
735.166	53.68
735.566	53.77
735.966	53.85
736.366	53.94
736.766	53.96
737.166	54.01
737.566	54.13
737.966	54.18
738.365	54.26
738.765	54.32
739.165	54.36
739.564	54.42
739.964	54.47
740.363	54.49
740.763	54.54
741.162	54.59
741.561	54.64
741.96	54.63
742.36	54.65
742.759	54.66
743.158	54.68
743.557	54.7
743.955	54.75
744.354	54.76
744.753	54.82
745.152	54.85
745.55	54.92
745.949	54.95
746.348	55
746.746	55.02
747.144	55.08
747.543	55.09
747.941	55.13
748.339	55.12
748.737	55.15
749.136	55.13
749.534	55.12
749.932	55.1
750.33	55.09
750.727	55.11
751.125	55.12
751.523	55.12
751.921	55.15
752.318	55.14
752.716	55.15
753.113	55.16
753.511	55.18
753.908	55.23
754.305	55.24
754.703	55.24
755.1	55.24
755.497	55.26
755.894	55.26
756.291	55.27
756.688	55.25
757.085	55.24
757.482	55.22
757.878	55.24
758.275	55.21
758.672	55.19
759.068	55.21
759.465	55.19
759.861	55.18
760.258	55.19
760.654	55.2
761.05	55.23
761.447	55.28
761.843	55.29
762.239	55.26
762.635	55.25
763.031	55.23
763.427	55.19
763.822	55.18
764.218	55.18
764.614	55.17
765.01	55.14
765.405	55.1
765.801	55.04
766.196	55.01
766.592	55.02
766.987	55.03
767.382	55.04
767.778	55.08
768.173	55.09
768.568	55.08
768.963	55.05
769.358	55.06
769.753	55.07
770.148	55.08
770.542	55.1
770.937	55.1
771.332	55.1
771.726	55.07
772.121	55.04
772.515	55.04
772.91	55.04
773.304	55.05
773.699	55.05
774.093	55.02
774.487	55.03
774.881	55.04
775.275	55.02
775.669	54.99
776.063	55
776.457	55
776.851	54.96
777.245	54.94
777.638	54.94
778.032	54.92
778.425	54.96
778.819	54.94
779.212	54.95
779.606	54.97
779.999	54.96
780.392	54.97
780.786	54.97
781.179	54.99
781.572	55.03
781.965	55.03
782.358	55.05
782.751	55.03
783.143	55.06
783.536	55.04
783.929	55.04
784.322	55.06
784.714	55.05
785.107	55.08
785.499	55.08
785.891	55.07
786.284	55.07
786.676	55.06
787.068	55.05
787.46	55.04
787.852	55.06
788.245	55.04
788.636	55.05
789.028	55.07
789.42	55.05
789.812	55.04
790.204	55.04
790.595	55.03
790.987	55.05
791.378	55.1
791.77	55.09
792.161	55.05
792.553	55.03
792.944	55.01
793.335	55.01
793.726	55.01
794.117	54.99
794.508	54.96
794.899	54.94
795.29	54.93
795.681	54.88
796.072	54.87
796.463	54.88
796.853	54.88
797.244	54.87
797.634	54.85
798.025	54.85
798.415	54.9
798.806	54.9
799.196	54.9
799.586	54.93
799.976	54.93
800.366	54.92
800.756	54.97
801.146	55
801.536	55.02
801.926	55.03
802.316	55.02
802.706	55
803.095	55
803.485	55.02
803.874	55
804.264	54.97
804.653	54.98
805.043	54.93
805.432	54.92
805.821	54.91
806.21	54.92
806.599	54.91
806.988	54.93
807.377	54.94
807.766	54.96
808.155	54.91
808.544	54.94
808.933	54.95
809.321	54.96
809.71	54.96
810.098	54.94
810.487	54.92
810.875	54.91
811.264	54.9
811.652	54.89
812.04	54.87
812.428	54.92
812.816	54.91
813.204	54.87
813.592	54.86
813.98	54.86
814.368	54.87
814.756	54.9
815.144	54.88
815.531	54.85
815.919	54.83
816.306	54.82
816.694	54.76
817.081	54.76
817.469	54.78
817.856	54.76
818.243	54.72
818.63	54.71
819.017	54.68
819.404	54.68
819.791	54.67
820.178	54.71
820.565	54.68
820.952	54.68
821.339	54.69
821.725	54.7
822.112	54.71
822.498	54.74
822.885	54.77
823.271	54.77
823.657	54.76
824.044	54.77
824.43	54.74
824.816	54.77
825.202	54.79
825.588	54.78
825.974	54.76
826.36	54.76
826.746	54.75
827.132	54.73
827.517	54.74
827.903	54.77
828.289	54.78
828.674	54.79
829.06	54.79
829.445	54.77
829.83	54.77
830.216	54.76
830.601	54.74
830.986	54.73
831.371	54.72
831.756	54.72
832.141	54.71
832.526	54.68
832.911	54.68
833.295	54.7
833.68	54.73
834.065	54.73
834.449	54.71
834.834	54.73
835.218	54.73
835.603	54.73
835.987	54.73
836.371	54.72
836.755	54.7
837.139	54.7
837.524	54.66
837.908	54.67
838.291	54.67
838.675	54.69
839.059	54.7
839.443	54.69
839.827	54.67
840.21	54.65
840.594	54.66
840.977	54.68
841.361	54.7
841.744	54.69
842.127	54.67
842.511	54.66
842.894	54.65
843.277	54.62
843.66	54.62
844.043	54.65
844.426	54.67
844.809	54.68
845.191	54.69
845.574	54.67
845.957	54.7
846.339	54.7
846.722	54.7
847.104	54.76
847.487	54.76
847.869	54.76
848.252	54.74
848.634	54.72
849.016	54.7
849.398	54.7
849.78	54.71
850.162	54.69
850.544	54.68
850.926	54.68
851.307	54.66
851.689	54.68
852.071	54.7
852.452	54.72
852.834	54.75
853.215	54.74
853.597	54.75
853.978	54.74
854.359	54.74
854.741	54.71
855.122	54.71
855.503	54.68
855.884	54.67
856.265	54.65
856.646	54.62
857.026	54.61
857.407	54.64
857.788	54.62
858.169	54.6
858.549	54.61
858.93	54.62
859.31	54.61
859.69	54.65
860.071	54.65
860.451	54.63
860.831	54.63
861.211	54.61
861.591	54.6
861.971	54.59
862.351	54.62
862.731	54.61
863.111	54.62
863.491	54.61
863.87	54.58
864.25	54.58
864.629	54.59
865.009	54.59
865.388	54.58
865.768	54.59
866.147	54.58
866.526	54.59
866.905	54.58
867.284	54.58
867.663	54.58
868.042	54.6
868.421	54.6
868.8	54.62
869.179	54.63
869.558	54.65
869.936	54.64
870.315	54.65
870.693	54.64
871.072	54.66
871.45	54.67
871.828	54.69
872.207	54.7
872.585	54.69
872.963	54.69
873.341	54.66
873.719	54.65
874.097	54.67
874.475	54.66
874.853	54.69
875.23	54.69
875.608	54.68
875.986	54.71
876.363	54.7
876.741	54.7
877.118	54.7
877.495	54.73
877.873	54.76
878.25	54.77
878.627	54.8
879.004	54.77
879.381	54.79
879.758	54.77
880.135	54.76
880.512	54.72
880.889	54.71
881.265	54.7
881.642	54.7
882.019	54.69
882.395	54.66
882.772	54.66
883.148	54.65
883.524	54.62
883.901	54.65
884.277	54.62
884.653	54.62
885.029	54.61
885.405	54.61
885.781	54.59
886.157	54.57
886.532	54.58
886.908	54.54
887.284	54.54
887.659	54.53
888.035	54.51
888.411	54.5
888.786	54.52
889.161	54.53
889.537	54.54
889.912	54.54
890.287	54.55
890.662	54.54
891.037	54.55
891.412	54.54
891.787	54.54
892.162	54.54
892.536	54.55
892.911	54.54
893.286	54.54
893.66	54.54
894.035	54.53
894.409	54.49
894.784	54.48
895.158	54.47
895.532	54.48
895.906	54.47
896.281	54.46
896.655	54.47
897.029	54.48
897.402	54.47
897.776	54.46
898.15	54.49
898.524	54.52
898.898	54.55
899.271	54.56
899.645	54.58
900.018	54.6
900.392	54.63
900.765	54.62
901.138	54.62
901.511	54.63
901.884	54.64
902.258	54.63
902.631	54.63
903.003	54.64
903.376	54.64
903.749	54.61
904.122	54.62
904.495	54.62
904.867	54.6
905.24	54.61
905.612	54.62
905.985	54.62
906.357	54.61
906.729	54.62
907.102	54.62
907.474	54.64
907.846	54.66
908.218	54.63
908.59	54.65
908.962	54.66
909.334	54.68
909.705	54.66
910.077	54.68
910.449	54.68
910.82	54.67
911.192	54.66
911.563	54.63
911.935	54.61
912.306	54.62
912.677	54.63
913.048	54.64
913.419	54.6
913.79	54.57
914.161	54.56
914.532	54.58
914.903	54.55
915.274	54.54
915.645	54.57
916.015	54.59
916.386	54.6
916.756	54.59
917.127	54.58
917.497	54.6
917.868	54.64
918.238	54.61
918.608	54.63
918.978	54.63
919.348	54.66
919.718	54.63
920.088	54.63
920.458	54.62
920.828	54.58
921.198	54.56
921.567	54.57
921.937	54.57
922.306	54.55
922.676	54.5
923.045	54.52
923.415	54.47
923.784	54.46
924.153	54.48
924.522	54.47
924.891	54.48
925.26	54.48
925.629	54.46
925.998	54.45
926.367	54.46
926.736	54.48
927.104	54.49
927.473	54.49
927.842	54.5
928.21	54.48
928.578	54.48
928.947	54.5
929.315	54.47
929.683	54.44
930.051	54.39
930.42	54.4
930.788	54.33
931.156	54.26
931.523	54.24
931.891	54.26
932.259	54.24
932.627	54.24
932.994	54.18
933.362	54.16
933.729	54.16
934.097	54.18
934.464	54.19
934.831	54.21
935.199	54.24
935.566	54.25
935.933	54.25
936.3	54.22
936.667	54.18
937.034	54.18
937.401	54.22
937.767	54.19
938.134	54.17
938.501	54.17
938.867	54.2
939.234	54.19
939.6	54.14
939.967	54.13
940.333	54.1
940.699	54.11
941.065	54.08
941.431	54.11
941.798	54.11
942.163	54.05
942.529	54.03
942.895	54
943.261	53.95
943.627	53.96
943.992	53.93
944.358	53.99
944.723	54
945.089	54.01
945.454	53.98
945.82	54.01
946.185	54.1
946.55	54.07
946.915	54.08
947.28	54.08
947.645	54.06
948.01	54.02
948.375	53.96
948.74	53.93
949.104	53.95
949.469	53.93
949.834	53.88
950.198	53.84
950.562	53.83
950.927	53.75
951.291	53.65
951.655	53.61
952.02	53.61
952.384	53.58
952.748	53.52
953.112	53.45
953.476	53.39
953.839	53.32
954.203	53.31
954.567	53.26
954.931	53.31
955.294	53.35
955.658	53.41
956.021	53.41
956.385	53.36
956.748	53.35
957.111	53.41
957.474	53.45
957.837	53.49
958.2	53.47
958.563	53.49
958.926	53.46
959.289	53.48
959.652	53.39
960.015	53.35
960.377	53.38
960.74	53.39
961.102	53.35
961.465	53.36
961.827	53.35
962.189	53.37
962.552	53.37
962.914	53.36
963.276	53.4
963.638	53.46
964	53.47
964.362	53.51
964.724	53.5
965.085	53.47
965.447	53.42
965.809	53.39
966.17	53.35
966.532	53.32
966.893	53.34
967.255	53.3
967.616	53.24
967.977	53.31
968.338	53.28
968.699	53.25
969.061	53.27
969.421	53.31
969.782	53.37
970.143	53.37
970.504	53.39
970.865	53.41
971.225	53.38
971.586	53.38
971.946	53.29
972.307	53.28
972.667	53.3
973.027	53.33
973.388	53.32
973.748	53.26
974.108	53.27
974.468	53.25
974.828	53.2
975.188	53.21
975.548	53.24
975.907	53.29
976.267	53.26
976.627	53.2
976.986	53.2
977.346	53.11
977.705	53.08
978.064	53.1
978.424	53.15
978.783	53.2
979.142	53.2
979.501	53.15
979.86	53.16
980.219	53.15
980.578	53.19
980.937	53.2
981.296	53.23
981.654	53.33
982.013	53.25
982.371	53.19
982.73	53.13
983.088	53.09
983.447	53.12
983.805	53.08
984.163	53.08
984.521	53.1
984.879	53.02
985.237	53.01
985.595	52.97
985.953	53
986.311	52.91
986.669	52.9
987.026	52.98
987.384	52.98
987.741	52.91
988.099	52.94
988.456	52.91
988.814	52.95
989.171	52.91
989.528	52.86
989.885	52.89
990.242	52.97
990.599	53.04
990.956	52.92
991.313	52.94
991.67	52.94
992.027	52.96
992.383	52.95
992.74	52.98
993.096	53.03
993.453	53.05
993.809	53.04
994.165	53.1
994.522	53.06
994.878	53.12
995.234	53.16
995.59	53.23
995.946	53.19
996.302	53.13
996.658	53.18
997.013	53.17
997.369	53.18
997.725	53.19
998.08	53.17
998.436	53.25
998.791	53.3
999.147	53.22
999.502	53.17
999.857	53.21
1000.212	53.15
1000.567	53.01
1000.922	52.93
1001.277	52.97
1001.632	52.93
1001.987	52.79
1002.342	52.66
1002.696	52.58
1003.051	52.66
1003.406	52.86
1003.76	52.86
1004.114	52.94
1004.469	53.05
1004.823	53.48
1005.177	53.35
1005.531	53.41
1005.885	53.56
1006.239	53.64
1006.593	53.71
1006.947	53.75
1007.301	53.46
1007.655	53.5
1008.008	53.54
1008.362	53.58
1008.715	53.27
1009.069	53.43
1009.422	53.33
1009.776	53.31
1010.129	53.27
1010.482	53.23
1010.835	53.24
1011.188	53.42
1011.541	53.31
1011.894	53.38
1012.247	53.15
1012.6	53.21
1012.952	53.14
1013.305	53.25
1013.657	53.17
1014.01	53.11
1014.362	53.13
1014.715	52.99
1015.067	52.98
1015.419	53.11
1015.771	52.95
1016.123	52.98
1016.475	53.03
1016.827	53.15
1017.179	53.14
1017.531	53.23
1017.883	53.28
1018.234	53.32
1018.586	53.3
1018.938	53.19
1019.289	53.05
1019.64	53.23
1019.992	53.26
1020.343	53.21
1020.694	53.19
1021.045	53.19
1021.396	53.22
1021.747	53.23
1022.098	53.32
1022.449	53.3
1022.8	53.41
1023.151	53.42
1023.501	53.58
1023.852	53.6
1024.202	53.45
1024.553	53.28
1024.903	53.1
1025.253	53.26
1025.604	53.39
1025.954	52.96
1026.304	53.13
1026.654	53.13
1027.004	53.14
1027.354	52.83
1027.703	52.72
1028.053	52.7
1028.403	52.85
1028.753	52.8
1029.102	52.87
1029.452	53.04
1029.801	53.6
1030.15	53.48
1030.499	53.46
897.758	889.17
901.051	896.11
904.343	894.34
907.636	907.45
910.928	884.3
914.22	887.08
917.511	880.8
920.803	841.46
924.094	839.19
927.384	814.81
930.675	783.62
933.965	781.64
937.255	739.23
940.544	710.46
943.834	680.02
947.123	675.28
950.411	634.89
953.7	621.77
956.988	591.69
960.276	567.9
963.563	559.71
966.851	542.34
970.138	537.9
973.424	520.93
976.711	523.77
979.997	500.57
983.283	495.66
986.568	487.45
989.853	475.03
993.138	463.63
996.423	448.79
999.708	437.02
1002.992	431.14
1006.275	412.57
1009.559	408.98
1012.842	395.37
1016.125	384.85
1019.408	379.45
1022.69	373.44
1025.972	365.94
1029.254	359.17
1032.536	353.04
1035.817	346.38
1039.098	343.42
1042.379	337.77
1045.659	333.46
1048.939	324.8
1052.219	318.68
1055.498	314.83
1058.778	308.02
1062.057	301.9
1065.335	299.94
1068.614	296.66
1071.892	293.25
1075.17	285.31
1078.447	279.08
1081.724	277.88
1085.001	276.42
1088.278	271.49
1091.554	267.09
1094.83	266.65
1098.106	264.99
1101.382	262.77
1104.657	260.81
1107.932	257.76
1111.206	258.07
1114.481	252.61
1117.755	250.89
1121.029	249.35
1124.302	248.24
1127.575	243.5
1130.848	241.74
1134.121	239.04
1137.393	237.14
1140.665	232.06
1143.937	229.98
1147.208	230.6
1150.48	229.72
1153.75	226.68
1157.021	223.43
1160.291	224.07
1163.561	221.36
1166.831	221.83
1170.101	219.72
1173.37	220.29
1176.639	221.07
1179.907	218.4
1183.176	215.35
1186.444	216.05
1189.711	214.7
1192.979	215
1196.246	213.39
1199.513	214.26
1202.78	212.52
1206.046	212.38
1209.312	210.65
1212.578	210.84
1215.843	212.58
1219.108	211.19
1222.373	214.69
1225.638	216.25
1228.902	217.79
1232.166	218.23
1235.43	219.7
1238.693	222.89
1241.956	223.89
1245.219	225.82
1248.482	225.99
1251.744	226.23
1255.006	226.8
1258.268	221.48
1261.529	220.46
1264.79	219.34
1268.051	218.7
1271.312	216.07
1274.572	213.03
1277.832	212.13
1281.092	208.93
1284.351	207.65
1287.61	207.84
1290.869	204.82
1294.128	204.31
1297.386	203.79
1300.644	201.69
1303.902	201.54
1307.159	201.29
1310.416	201.06
1313.673	199.58
1316.93	202.01
1320.186	201.91
1323.442	202.67
1326.697	204.91
1329.953	204.74
1333.208	205.01
1336.463	207.8
1339.717	208.11
1342.972	209.34
1346.226	211.39
1349.479	212.68
1352.733	212.9
1355.986	213.82
1359.238	212.92
1362.491	213.81
1365.743	215.77
1368.995	216.08
1372.247	214.88
1375.498	213.98
1378.749	214.89
1382	212.07
1385.251	211.39
1388.501	209.96
1391.751	209.65
1395	209.08
1398.25	207.19
1401.499	205.31
1404.748	204.2
1407.996	202.03
1411.244	201.48
1414.492	199.87
1417.74	198.02
1420.987	196.06
1424.234	194.72
1427.481	192.28
1430.728	191.86
1433.974	190.32
1437.22	188.09
1440.465	187.76
1443.711	185.78
1446.956	184.08
1450.201	183.03
1453.445	181.15
1456.689	180.39
1459.933	177.18
1463.177	176.4
1466.42	172.8
1469.663	170.85
1472.906	170.3
1476.148	166.31
1479.391	165.56
1482.633	164.65
1485.874	161.51
1489.115	160.26
1492.356	158.57
1495.597	158.74
1498.838	156.46
1502.078	156.65
1505.318	156.64
1508.557	156.51
1511.797	156.53
1515.036	155.09
1518.274	154.61
1521.513	154.47
1524.751	153.9
1527.989	154.08
1531.227	153.74
1534.464	153.64
1537.701	152.91
1540.938	152.49
1544.174	150.88
1547.41	151.16
1550.646	150.43
1553.882	150.97
1557.117	149.19
1560.352	149.32
1563.587	149.11
1566.821	148.54
1570.055	147.18
1573.289	146.36
1576.523	146.19
1579.756	145.56
1582.989	144.84
1586.222	144.75
1589.454	143.98
1592.686	145.25
1595.918	144.45
1599.15	143.51
1602.381	144.02
1605.612	144.49
1608.843	144.62
1612.073	144.46
1615.303	145.4
1618.533	145.27
1621.762	145.93
1624.992	146.15
1628.221	145.65
1631.449	145.72
1634.678	145.79
1637.906	146.49
1641.134	146.59
1644.361	146.48
1647.588	146.98
1650.815	146.27
1654.042	146.33
1657.269	146.67
1660.495	146.5
1663.72	146.45
1666.946	147.39
1670.171	147.72
1673.396	147.29
1676.621	147.31
1679.845	147.93
1683.069	147.79
1686.293	148.82
1689.517	149.37
1692.74	149.24
1695.963	149.52
1699.185	150.47
1702.408	150.08
1705.63	150.56
1708.852	151.27
1712.073	151.34
1715.294	151.45
1718.515	152.73
1721.736	151.93
1724.956	152.31
1728.176	152.52
1731.396	153.48
1734.616	152.77
1737.835	153.37
1741.054	152.01
1744.272	152.33
1747.491	153.28
1750.709	153.28
1753.927	152.66
1757.144	153.05
1760.361	152.91
1763.578	153.25
1766.795	152.67
1770.011	154.11
1773.227	153.63
1776.443	155.47
1779.658	155.18
1782.874	155.26
1786.089	155.96
1789.303	156.15
1792.518	157.33
1795.732	157.29
1798.945	158.35
1802.159	158.87
1805.372	158.76
1808.585	161.39
1811.797	162.02
1815.01	162.93
1818.222	164.02
1821.434	164.92
1824.645	165.01
1827.856	167.85
1831.067	169.17
1834.278	168.36
1837.488	169.3
1840.698	170.51
1843.908	168.88
1847.117	169.23
1850.326	169.25
1853.535	168.18
1856.744	169.98
1859.952	169.77
1863.16	167.77
1866.368	166.4
1869.575	167.05
1872.782	164.18
1875.989	162.78
1879.196	161.93
1882.402	160.46
1885.608	160.32
1888.814	159.96
1892.019	158.15
1895.224	157.67
1898.429	156.79
1901.634	156.85
1904.838	156.79
1908.042	158.9
1911.246	158.26
1914.449	159.09
1917.652	158.64
1920.855	158.38
1924.058	158.64
1927.26	158.2
1930.462	158.21
1933.664	160.15
1936.865	158.96
1940.066	158.67
1943.267	157.23
1946.467	158.01
1949.668	158.77
1952.868	160.97
1956.067	161.43
1959.267	161.59
1962.466	162.11
1965.665	161.29
1968.863	161.26
1972.061	163.63
1975.259	164.82
1978.457	165.84
1981.654	168.47
1984.852	168.57
1988.048	168.22
1991.245	169.45
1994.441	171.71
1997.637	172.96
2000.833	177.24
2004.028	179.44
2007.223	180.94
2010.418	182.65
2013.613	186.59
2016.807	187.77
2020.001	189.12
2023.194	193.26
2026.388	196.66
2029.581	200.75
2032.774	202.8
2035.966	205.68
2039.158	206.5
2042.35	210.95
2045.542	212.32
2048.733	214.27
2051.924	217.39
2055.115	223.22
2058.306	222.35
2061.496	225.09
2064.686	224.4
2067.875	228.47
2071.065	230.14
2074.254	228.77
2077.442	231.07
2080.631	232.29
2083.819	235.38
2087.007	235.26
2090.195	235.73
2093.382	239.09
2096.569	238.47
2099.756	243.23
2102.942	243.99
2106.128	245.37
2109.314	251.91
2112.5	250.84
2115.685	256.53
2118.87	256.58
2122.055	263.36
2125.239	265.49
2128.424	267.67
2131.608	269.38
2134.791	272.11
2137.974	273.21
2141.157	274.51
2144.34	274.62
2147.523	279.25
2150.705	277.96
2153.887	280.93
2157.068	279.87
2160.25	276.55
2163.431	278.87
2166.611	281.51
2169.792	286.39
2172.972	289.46
2176.152	291.15
2179.331	294.8
2182.511	298.52
2185.69	300.59
2188.868	307.17
2192.047	307.04
2195.225	317.24
2198.403	323.91
2201.58	329.87
2204.758	336.06
2207.935	342.7
2211.111	348.59
2214.288	352.8
2217.464	353.69
2220.64	361.94
2223.815	364.29
2226.991	379.15
2230.166	379.59
2233.34	384.36
2236.515	391.54
2239.689	393.03
2242.863	394.38
2246.036	405.24
2249.209	403.76
2252.382	409.41
2255.555	420.92
2258.727	423.16
2261.9	426.12
2265.071	430.5
2268.243	437.92
2271.414	442.43
2274.585	450.48
2277.756	456.44
2280.926	461.44
2284.096	470.53
2287.266	480.62
2290.436	483.07
2293.605	493.97
2296.774	508.7
2299.942	521.54
2303.111	525.94
2306.279	538.56
2309.447	544.86
2312.614	556.27
2315.781	570.99
2318.948	596.5
2322.115	590.55
2325.281	622.64
2328.447	607.73
2331.613	629.87
2334.779	625.95
2337.944	654.09
2341.109	657.79
2344.274	677.17
2347.438	700.31
2350.602	696.08
2353.766	720.6
2356.929	731.36
2360.092	720.14
2363.255	774.37
2366.418	774.93
2369.58	790.49
2372.742	831.09
2375.904	856.45
2379.066	850.83
2382.227	836.51
2385.388	908.86
2388.548	905.05
2391.709	915.7
2394.869	1029.14
2398.029	983.07
2401.188	1011.96
2404.347	1005.54
2407.506	993.48
2410.665	1020.19
2413.823	1081.5
2416.981	1146.33
2420.139	1112
2423.296	1100.88
2426.453	1143.77
2429.61	1101.12
2432.767	1151.3
2435.923	1136.77
2439.079	1244.76
2442.235	1261.65
2445.391	1246.66
2448.546	1232.54
2451.701	1201.31
2454.855	1198.01
2458.009	1268.16
2461.163	1326.75
2464.317	1373.76
2467.471	1409.05
2470.624	1411.18
2473.777	1369.81
2476.929	1335.33
2480.082	1296.41
2483.234	1287.22
2486.385	1350.23
2489.537	1357.57
2492.688	1409.15
2495.839	1370.05
2498.989	1332.68
2502.14	1340.75
2505.29	1354.72
2508.439	1375.46
2511.589	1372.29
2514.738	1499.44
2517.887	1461.83
2521.035	1538.41
2524.183	1551.73
2527.331	1560
2530.479	1549.35
2533.627	1565.88
