Data from C_1_DIV_IL_4n_Splice17_12-39-09-603.txt Node
Date: Sat Mar 07 12:39:09 EST 2020
User: sa697716
Spectrometer: NQ5500242
Trigger mode: 0
Integration Time (sec): 1.450000E-1
Scans to average: 20
Nonlinearity correction enabled: false
Boxcar width: 5
Storing dark spectrum: false
XAxis mode: Wavelengths
Number of Pixels in Spectrum: 512
>>>>>Begin Spectral Data<<<<<
187.83	116.18
188.298	129.03
188.766	109.61
189.233	88.35
189.701	71.35
190.169	105.2
190.636	110.41
191.104	94.73
191.571	42.34
192.039	-39.5
192.506	-54.05
192.974	179.96
193.441	227.28
193.908	124.09
194.375	84.39
194.842	-38.85
195.31	-5.48
195.777	-17.15
196.244	33.7
196.711	38.45
197.177	40.46
197.644	40.73
198.111	40.08
198.578	40.74
199.045	41.16
199.511	40.79
199.978	41.24
200.445	41.43
200.911	41.32
201.378	41.27
201.844	41.37
202.31	41.19
202.777	41.44
203.243	41.77
203.709	41.53
204.176	41
204.642	41.29
205.108	41.63
205.574	41.59
206.04	41.19
206.506	40.92
206.972	40.89
207.438	40.4
207.903	40.15
208.369	39.44
208.835	38.84
209.301	38.3
209.766	37.26
210.232	36.41
210.697	35.42
211.163	34.99
211.628	34.35
212.094	33.65
212.559	33.3
213.024	32.55
213.49	31.83
213.955	31.33
214.42	30.94
214.885	30.45
215.35	29.49
215.815	28.7
216.28	27.27
216.745	26.01
217.21	24.7
217.675	23.38
218.14	22.27
218.604	21.28
219.069	20.47
219.534	19.77
219.998	19.18
220.463	18.75
220.927	18.27
221.392	17.92
221.856	17.59
222.32	17.35
222.785	17.12
223.249	16.89
223.713	16.69
224.177	16.51
224.642	16.28
225.106	16.07
225.57	15.84
226.034	15.66
226.497	15.49
226.961	15.33
227.425	15.12
227.889	14.94
228.353	14.81
228.816	14.65
229.28	14.49
229.744	14.35
230.207	14.19
230.671	14.04
231.134	13.9
231.597	13.78
232.061	13.64
232.524	13.5
232.987	13.36
233.45	13.23
233.914	13.11
234.377	12.98
234.84	12.86
235.303	12.76
235.766	12.66
236.229	12.55
236.691	12.42
237.154	12.32
237.617	12.23
238.08	12.13
238.542	12.01
239.005	11.91
239.468	11.8
239.93	11.71
240.393	11.62
240.855	11.5
241.317	11.41
241.78	11.31
242.242	11.2
242.704	11.11
243.166	11.02
243.629	10.94
244.091	10.85
244.553	10.75
245.015	10.65
245.477	10.56
245.939	10.49
246.4	10.4
246.862	10.32
247.324	10.25
247.786	10.16
248.247	10.08
248.709	10.01
249.17	9.93
249.632	9.88
250.093	9.82
250.555	9.76
251.016	9.71
251.477	9.65
251.939	9.61
252.4	9.56
252.861	9.52
253.322	9.48
253.783	9.43
254.244	9.39
254.705	9.34
255.166	9.29
255.627	9.24
256.088	9.2
256.549	9.16
257.009	9.11
257.47	9.08
257.931	9.02
258.391	8.97
258.852	8.92
259.312	8.87
259.773	8.84
260.233	8.8
260.694	8.76
261.154	8.71
261.614	8.68
262.074	8.65
262.534	8.61
262.994	8.59
263.455	8.56
263.915	8.55
264.374	8.53
264.834	8.52
265.294	8.5
265.754	8.49
266.214	8.48
266.673	8.46
267.133	8.44
267.593	8.43
268.052	8.41
268.512	8.4
268.971	8.39
269.431	8.37
269.89	8.34
270.349	8.33
270.809	8.31
271.268	8.3
271.727	8.29
272.186	8.27
272.645	8.27
273.104	8.25
273.563	8.23
274.022	8.21
274.481	8.2
274.94	8.19
275.399	8.16
275.857	8.15
276.316	8.12
276.775	8.09
277.233	8.08
277.692	8.05
278.15	8.03
278.609	8.02
279.067	8
279.525	7.98
279.984	7.96
280.442	7.95
280.9	7.92
281.358	7.91
281.816	7.89
282.274	7.87
282.732	7.85
283.19	7.83
283.648	7.8
284.106	7.78
284.564	7.76
285.021	7.74
285.479	7.71
285.937	7.69
286.394	7.66
286.852	7.64
287.309	7.62
287.767	7.59
288.224	7.55
288.682	7.53
289.139	7.51
289.596	7.48
290.053	7.44
290.511	7.42
290.968	7.4
291.425	7.37
291.882	7.36
292.339	7.34
292.796	7.32
293.252	7.31
293.709	7.29
294.166	7.27
294.623	7.25
295.079	7.24
295.536	7.22
295.992	7.2
296.449	7.19
296.905	7.17
297.362	7.15
297.818	7.13
298.274	7.11
298.731	7.09
299.187	7.07
299.643	7.06
300.099	7.05
300.555	7.03
301.011	7.01
301.467	7
301.923	6.98
302.379	6.97
302.835	6.95
303.291	6.94
303.746	6.93
304.202	6.91
304.658	6.89
305.113	6.88
305.569	6.87
306.024	6.86
306.479	6.85
306.935	6.82
307.39	6.81
307.845	6.8
308.301	6.8
308.756	6.78
309.211	6.77
309.666	6.78
310.121	6.76
310.576	6.75
311.031	6.74
311.486	6.74
311.94	6.74
312.395	6.72
312.85	6.71
313.305	6.7
313.759	6.69
314.214	6.67
314.668	6.65
315.123	6.63
315.577	6.62
316.032	6.6
316.486	6.58
316.94	6.57
317.394	6.56
317.849	6.53
318.303	6.52
318.757	6.5
319.211	6.49
319.665	6.47
320.119	6.46
320.572	6.44
321.026	6.42
321.48	6.41
321.934	6.39
322.387	6.37
322.841	6.37
323.295	6.36
323.748	6.34
324.202	6.33
324.655	6.32
325.108	6.31
325.562	6.3
326.015	6.3
326.468	6.28
326.921	6.27
327.374	6.27
327.827	6.26
328.28	6.25
328.733	6.24
329.186	6.23
329.639	6.23
330.092	6.21
330.545	6.2
330.997	6.2
331.45	6.2
331.903	6.2
332.355	6.2
332.808	6.2
333.26	6.19
333.713	6.19
334.165	6.18
334.617	6.18
335.069	6.18
335.522	6.18
335.974	6.17
336.426	6.14
336.878	6.14
337.33	6.13
337.782	6.12
338.234	6.11
338.686	6.11
339.137	6.11
339.589	6.1
340.041	6.08
340.493	6.06
340.944	6.05
341.396	6.05
341.847	6.03
342.299	6.01
342.75	6
343.201	5.97
343.653	5.95
344.104	5.93
344.555	5.91
345.006	5.91
345.457	5.9
345.908	5.88
346.359	5.89
346.81	5.87
347.261	5.86
347.712	5.85
348.163	5.84
348.613	5.84
349.064	5.83
349.515	5.82
349.965	5.81
350.416	5.8
350.866	5.79
351.317	5.78
351.767	5.78
352.217	5.77
352.668	5.77
353.118	5.77
353.568	5.76
354.018	5.76
354.468	5.76
354.918	5.75
355.368	5.75
355.818	5.75
356.268	5.74
356.718	5.74
357.168	5.74
357.617	5.73
358.067	5.72
358.517	5.73
358.966	5.74
359.416	5.74
359.865	5.74
360.315	5.74
360.764	5.75
361.213	5.74
361.663	5.73
362.112	5.73
362.561	5.74
363.01	5.74
363.459	5.73
363.908	5.72
364.357	5.72
364.806	5.71
365.255	5.72
365.703	5.72
366.152	5.73
366.601	5.73
367.05	5.74
367.498	5.75
367.947	5.76
368.395	5.76
368.844	5.77
369.292	5.79
369.74	5.81
370.189	5.81
370.637	5.82
371.085	5.83
371.533	5.85
371.981	5.87
372.429	5.89
372.877	5.91
373.325	5.94
373.773	5.95
374.221	5.96
374.669	5.98
375.116	6
375.564	6.03
376.012	6.07
376.459	6.08
376.907	6.11
377.354	6.14
377.801	6.17
378.249	6.2
378.696	6.24
379.143	6.28
379.591	6.32
380.038	6.36
380.485	6.39
380.932	6.44
381.379	6.48
381.826	6.52
382.273	6.56
382.72	6.59
383.166	6.64
383.613	6.7
384.06	6.74
384.506	6.77
384.953	6.81
385.4	6.86
385.846	6.91
386.292	6.95
386.739	6.99
387.185	7.03
387.631	7.08
388.078	7.12
388.524	7.15
388.97	7.19
389.416	7.23
389.862	7.27
390.308	7.31
390.754	7.35
391.2	7.4
391.645	7.44
392.091	7.48
392.537	7.53
392.983	7.56
393.428	7.59
393.874	7.63
394.319	7.66
394.765	7.68
395.21	7.69
395.655	7.7
396.101	7.73
396.546	7.74
396.991	7.75
397.436	7.75
397.881	7.78
398.326	7.79
398.771	7.82
399.216	7.83
399.661	7.85
400.106	7.86
400.551	7.87
400.995	7.86
401.44	7.86
401.885	7.85
402.329	7.86
402.774	7.86
403.218	7.87
403.663	7.86
404.107	7.85
404.551	7.84
404.995	7.84
405.44	7.83
405.884	7.83
406.328	7.83
406.772	7.83
407.216	7.82
407.66	7.8
408.104	7.78
408.547	7.77
408.991	7.76
409.435	7.75
409.879	7.74
410.322	7.73
410.766	7.73
411.209	7.74
411.653	7.73
412.096	7.72
412.54	7.72
412.983	7.71
413.426	7.74
413.869	7.75
414.312	7.76
414.756	7.77
415.199	7.77
415.642	7.76
416.085	7.74
416.527	7.72
416.97	7.72
417.413	7.7
417.856	7.69
418.298	7.67
418.741	7.64
419.184	7.63
419.626	7.61
420.069	7.6
420.511	7.59
420.953	7.59
421.396	7.6
421.838	7.6
422.28	7.59
422.722	7.59
423.164	7.59
423.606	7.59
424.048	7.6
424.49	7.6
424.932	7.59
425.374	7.57
425.816	7.53
426.258	7.51
426.699	7.49
427.141	7.49
427.582	7.48
428.024	7.46
428.465	7.46
428.907	7.44
429.348	7.42
429.789	7.41
430.231	7.43
430.672	7.46
431.113	7.46
431.554	7.48
431.995	7.49
432.436	7.49
432.877	7.51
433.318	7.52
433.759	7.53
434.2	7.56
434.64	7.57
435.081	7.58
435.522	7.59
435.962	7.61
436.403	7.64
436.843	7.64
437.284	7.63
437.724	7.64
438.164	7.64
438.604	7.66
439.045	7.66
439.485	7.66
439.925	7.66
440.365	7.67
440.805	7.67
441.245	7.67
441.685	7.71
442.125	7.73
442.564	7.73
443.004	7.74
443.444	7.77
443.883	7.79
444.323	7.82
444.762	7.84
445.202	7.86
445.641	7.9
446.081	7.93
446.52	7.93
446.959	7.97
447.398	8.02
447.837	8.04
448.276	8.05
448.716	8.08
449.154	8.11
449.593	8.14
450.032	8.16
450.471	8.17
450.91	8.17
451.349	8.19
451.787	8.19
452.226	8.18
452.664	8.19
453.103	8.2
453.541	8.22
453.98	8.22
454.418	8.23
454.856	8.23
455.295	8.24
455.733	8.23
456.171	8.23
456.609	8.23
457.047	8.23
457.485	8.22
457.923	8.22
458.361	8.22
458.798	8.21
459.236	8.2
459.674	8.19
460.111	8.19
460.549	8.2
460.987	8.21
461.424	8.2
461.862	8.21
462.299	8.22
462.736	8.21
463.173	8.21
463.611	8.2
464.048	8.2
464.485	8.22
464.922	8.21
465.359	8.22
465.796	8.21
466.233	8.23
466.67	8.24
467.106	8.24
467.543	8.25
467.98	8.25
468.416	8.25
468.853	8.25
469.29	8.24
469.726	8.25
470.162	8.25
470.599	8.26
471.035	8.25
471.471	8.25
471.907	8.24
472.344	8.25
472.78	8.25
473.216	8.26
473.652	8.25
474.088	8.23
474.523	8.23
474.959	8.24
475.395	8.22
475.831	8.21
476.266	8.2
476.702	8.2
477.138	8.19
477.573	8.2
478.008	8.2
478.444	8.2
478.879	8.22
479.314	8.2
479.75	8.2
480.185	8.19
480.62	8.19
481.055	8.19
481.49	8.19
481.925	8.19
482.36	8.19
482.795	8.19
483.229	8.2
483.664	8.2
484.099	8.22
484.534	8.23
484.968	8.25
485.403	8.27
485.837	8.29
486.271	8.32
486.706	8.35
487.14	8.38
487.574	8.4
488.009	8.45
488.443	8.48
488.877	8.52
489.311	8.57
489.745	8.62
490.179	8.68
490.613	8.73
491.046	8.79
491.48	8.85
491.914	8.92
492.348	8.98
492.781	9.06
493.215	9.14
493.648	9.22
494.082	9.3
494.515	9.37
494.948	9.47
495.382	9.56
495.815	9.66
496.248	9.77
496.681	9.87
497.114	9.99
497.547	10.1
497.98	10.23
498.413	10.36
498.846	10.5
499.279	10.65
499.711	10.8
500.144	10.97
500.577	11.13
501.009	11.29
501.442	11.47
501.874	11.65
502.306	11.84
502.739	12.03
503.171	12.24
503.603	12.43
504.036	12.65
504.468	12.86
504.9	13.08
505.332	13.31
505.764	13.56
506.196	13.81
506.627	14.08
507.059	14.35
507.491	14.62
507.923	14.91
508.354	15.21
508.786	15.49
509.217	15.8
509.649	16.1
510.08	16.42
510.512	16.74
510.943	17.06
511.374	17.39
511.805	17.72
512.237	18.05
512.668	18.39
513.099	18.73
513.53	19.09
513.961	19.45
514.391	19.82
514.822	20.16
515.253	20.52
515.684	20.89
516.114	21.25
516.545	21.61
516.975	21.97
517.406	22.33
517.836	22.7
518.267	23.04
518.697	23.37
519.127	23.68
519.558	24.03
519.988	24.37
520.418	24.69
520.848	25.02
521.278	25.33
521.708	25.75
522.138	26.05
522.567	26.34
522.997	26.62
523.427	26.91
523.857	27.2
524.286	27.45
524.716	27.71
525.145	27.96
525.575	28.2
526.004	28.45
526.433	28.57
526.863	28.79
527.292	29.01
527.721	29.21
528.15	29.41
528.579	29.58
529.008	29.76
529.437	29.92
529.866	30.08
530.295	30.22
530.724	30.36
531.152	30.49
531.581	30.62
532.01	30.73
532.438	30.85
532.867	30.96
533.295	31.07
533.723	31.17
534.152	31.26
534.58	31.35
535.008	31.41
535.436	31.49
535.865	31.56
536.293	31.61
536.721	31.69
537.149	31.76
537.576	31.81
538.004	31.88
538.432	31.93
538.86	31.99
539.287	32.03
539.715	32.09
540.143	32.14
540.57	32.18
540.998	32.23
541.425	32.26
541.852	32.28
542.28	32.32
542.707	32.34
543.134	32.37
543.561	32.39
543.988	32.42
544.415	32.45
544.842	32.46
545.269	32.49
545.696	32.52
546.123	32.54
546.549	32.58
546.976	32.6
547.403	32.63
547.829	32.63
548.256	32.66
548.682	32.67
549.108	32.69
549.535	32.69
549.961	32.69
550.387	32.68
550.813	32.69
551.24	32.67
551.666	32.66
552.092	32.64
552.518	32.63
552.943	32.61
553.369	32.58
553.795	32.54
554.221	32.49
554.646	32.45
555.072	32.41
555.498	32.34
555.923	32.28
556.349	32.21
556.774	32.15
557.199	32.06
557.625	31.98
558.05	31.9
558.475	31.82
558.9	31.75
559.325	31.66
559.75	31.55
560.175	31.44
560.6	31.33
561.025	31.23
561.449	31.1
561.874	30.99
562.299	30.85
562.723	30.71
563.148	30.57
563.572	30.4
563.997	30.24
564.421	30.08
564.846	29.92
565.27	29.78
565.694	29.62
566.118	29.45
566.542	29.28
566.966	29.13
567.39	28.97
567.814	28.78
568.238	28.62
568.662	28.45
569.086	28.29
569.509	28.15
569.933	27.97
570.357	27.79
570.78	27.63
571.204	27.47
571.627	27.3
572.05	27.14
572.474	27.01
572.897	26.86
573.32	26.71
573.743	26.57
574.166	26.41
574.589	26.28
575.012	26.15
575.435	26
575.858	25.86
576.281	25.72
576.704	25.59
577.126	25.46
577.549	25.33
577.972	25.21
578.394	25.08
578.817	24.94
579.239	24.81
579.661	24.68
580.084	24.58
580.506	24.47
580.928	24.38
581.35	24.28
581.772	24.16
582.194	24.06
582.616	23.96
583.038	23.86
583.46	23.77
583.882	23.69
584.303	23.59
584.725	23.5
585.147	23.4
585.568	23.31
585.99	23.22
586.411	23.13
586.833	23.05
587.254	22.96
587.675	22.9
588.096	22.85
588.518	22.77
588.939	22.73
589.36	22.66
589.781	22.6
590.202	22.55
590.623	22.49
591.043	22.44
591.464	22.4
591.885	22.36
592.305	22.31
592.726	22.26
593.147	22.21
593.567	22.16
593.987	22.11
594.408	22.07
594.828	22.03
595.248	22.01
595.669	21.97
596.089	21.92
596.509	21.9
596.929	21.86
597.349	21.82
597.769	21.78
598.189	21.73
598.608	21.69
599.028	21.66
599.448	21.59
599.867	21.52
600.287	21.48
600.706	21.44
601.126	21.37
601.545	21.31
601.965	21.26
602.384	21.19
602.803	21.14
603.222	21.08
603.641	21
604.061	20.94
604.48	20.86
604.898	20.77
605.317	20.69
605.736	20.62
606.155	20.55
606.574	20.45
606.992	20.37
607.411	20.28
607.829	20.17
608.248	20.07
608.666	19.98
609.085	19.89
609.503	19.8
609.921	19.7
610.339	19.59
610.758	19.5
611.176	19.38
611.594	19.28
612.012	19.17
612.43	19.09
612.847	19.01
613.265	18.91
613.683	18.82
614.101	18.73
614.518	18.64
614.936	18.56
615.353	18.46
615.771	18.39
616.188	18.31
616.606	18.22
617.023	18.15
617.44	18.09
617.857	18.01
618.274	17.95
618.691	17.88
619.108	17.82
619.525	17.76
619.942	17.71
620.359	17.66
620.776	17.62
621.192	17.59
621.609	17.55
622.026	17.5
622.442	17.47
622.859	17.43
623.275	17.41
623.691	17.38
624.108	17.36
624.524	17.34
624.94	17.32
625.356	17.32
625.772	17.29
626.188	17.27
626.604	17.26
627.02	17.25
627.436	17.24
627.852	17.22
628.268	17.2
628.683	17.18
629.099	17.16
629.514	17.14
629.93	17.11
630.345	17.08
630.761	17.03
631.176	16.99
631.591	16.93
632.007	16.88
632.422	16.82
632.837	16.75
633.252	16.68
633.667	16.6
634.082	16.51
634.497	16.41
634.911	16.32
635.326	16.22
635.741	16.12
636.155	16
636.57	15.89
636.984	15.76
637.399	15.63
637.813	15.49
638.228	15.34
638.642	15.2
639.056	15.04
639.47	14.88
639.884	14.71
640.298	14.55
640.712	14.39
641.126	14.22
641.54	14.03
641.954	13.87
642.368	13.72
642.781	13.58
643.195	13.43
643.609	13.28
644.022	13.14
644.436	13.02
644.849	12.88
645.262	12.76
645.676	12.65
646.089	12.56
646.502	12.45
646.915	12.35
647.328	12.25
647.741	12.15
648.154	12.08
648.567	12
648.98	11.92
649.393	11.86
649.805	11.79
650.218	11.73
650.631	11.68
651.043	11.64
651.456	11.57
651.868	11.52
652.28	11.46
652.693	11.41
653.105	11.35
653.517	11.29
653.929	11.24
654.341	11.17
654.753	11.1
655.165	11.02
655.577	10.95
655.989	10.87
656.401	10.78
656.813	10.69
657.224	10.58
657.636	10.46
658.047	10.36
658.459	10.24
658.87	10.13
659.282	10.01
659.693	9.89
660.104	9.75
660.515	9.63
660.926	9.52
661.338	9.4
661.749	9.29
662.159	9.19
662.57	9.1
662.981	9
663.392	8.9
663.803	8.81
664.213	8.73
664.624	8.65
665.035	8.57
665.445	8.5
665.855	8.43
666.266	8.38
666.676	8.34
667.086	8.28
667.497	8.24
667.907	8.2
668.317	8.17
668.727	8.13
669.137	8.11
669.547	8.09
669.956	8.06
670.366	8.06
670.776	8.04
671.186	8.01
671.595	8.01
672.005	8
672.414	8.01
672.824	8.02
673.233	8.02
673.642	8.02
674.052	8.04
674.461	8.06
674.87	8.07
675.279	8.1
675.688	8.13
676.097	8.15
676.506	8.19
676.915	8.22
677.323	8.25
677.732	8.3
678.141	8.36
678.549	8.41
678.958	8.47
679.366	8.54
679.775	8.62
680.183	8.72
680.592	8.83
681	8.94
681.408	9.07
681.816	9.2
682.224	9.36
682.632	9.52
683.04	9.71
683.448	9.91
683.856	10.14
684.264	10.39
684.671	10.65
685.079	10.95
685.487	11.26
685.894	11.62
686.302	12.01
686.709	12.42
687.116	12.85
687.524	13.32
687.931	13.82
688.338	14.35
688.745	14.9
689.152	15.48
689.559	16.08
689.966	16.7
690.373	17.33
690.78	17.99
691.187	18.66
691.593	19.34
692	20.03
692.407	20.72
692.813	21.42
693.22	22.09
693.626	22.81
694.032	23.53
694.439	24.24
694.845	24.96
695.251	25.67
695.657	26.37
696.063	27.07
696.469	27.76
696.875	28.44
697.281	29.11
697.687	29.79
698.093	30.45
698.498	31.08
698.904	31.71
699.31	32.32
699.715	32.93
700.12	33.54
700.526	34.12
700.931	34.71
701.337	35.25
701.742	35.82
702.147	36.35
702.552	36.86
702.957	37.35
703.362	37.84
703.767	38.32
704.172	38.8
704.577	39.23
704.981	39.69
705.386	40.12
705.791	40.58
706.195	41
706.6	41.42
707.004	41.82
707.408	42.25
707.813	42.67
708.217	43.05
708.621	43.44
709.025	43.83
709.43	44.19
709.834	44.55
710.237	44.88
710.641	45.23
711.045	45.58
711.449	45.94
711.853	46.27
712.256	46.56
712.66	46.87
713.064	47.15
713.467	47.46
713.87	47.76
714.274	48.02
714.677	48.31
715.08	48.58
715.484	48.85
715.887	49.13
716.29	49.38
716.693	49.64
717.096	49.9
717.499	50.17
717.901	50.42
718.304	50.65
718.707	50.92
719.109	51.16
719.512	51.4
719.915	51.63
720.317	51.83
720.719	52.03
721.122	52.24
721.524	52.43
721.926	52.63
722.328	52.81
722.731	52.99
723.133	53.18
723.535	53.33
723.937	53.49
724.338	53.68
724.74	53.83
725.142	54.03
725.544	54.19
725.945	54.32
726.347	54.41
726.748	54.54
727.15	54.64
727.551	54.73
727.952	54.84
728.354	54.95
728.755	55.03
729.156	55.11
729.557	55.13
729.958	55.19
730.359	55.28
730.76	55.41
731.161	55.49
731.562	55.62
731.962	55.69
732.363	55.8
732.763	55.86
733.164	55.9
733.564	55.97
733.965	56.07
734.365	56.15
734.766	56.2
735.166	56.25
735.566	56.31
735.966	56.35
736.366	56.41
736.766	56.44
737.166	56.5
737.566	56.59
737.966	56.64
738.365	56.65
738.765	56.7
739.165	56.73
739.564	56.77
739.964	56.8
740.363	56.81
740.763	56.85
741.162	56.88
741.561	56.86
741.96	56.87
742.36	56.89
742.759	56.92
743.158	56.95
743.557	56.98
743.955	57.02
744.354	57.04
744.753	57.08
745.152	57.12
745.55	57.13
745.949	57.19
746.348	57.22
746.746	57.23
747.144	57.26
747.543	57.28
747.941	57.3
748.339	57.29
748.737	57.31
749.136	57.31
749.534	57.3
749.932	57.32
750.33	57.33
750.727	57.35
751.125	57.36
751.523	57.36
751.921	57.36
752.318	57.36
752.716	57.36
753.113	57.38
753.511	57.4
753.908	57.45
754.305	57.46
754.703	57.45
755.1	57.44
755.497	57.43
755.894	57.43
756.291	57.41
756.688	57.39
757.085	57.43
757.482	57.39
757.878	57.38
758.275	57.33
758.672	57.32
759.068	57.34
759.465	57.34
759.861	57.37
760.258	57.37
760.654	57.39
761.05	57.41
761.447	57.42
761.843	57.43
762.239	57.41
762.635	57.42
763.031	57.39
763.427	57.36
763.822	57.36
764.218	57.32
764.614	57.31
765.01	57.28
765.405	57.26
765.801	57.18
766.196	57.18
766.592	57.17
766.987	57.17
767.382	57.18
767.778	57.17
768.173	57.18
768.568	57.19
768.963	57.19
769.358	57.24
769.753	57.23
770.148	57.24
770.542	57.22
770.937	57.23
771.332	57.23
771.726	57.2
772.121	57.15
772.515	57.12
772.91	57.11
773.304	57.12
773.699	57.11
774.093	57.1
774.487	57.12
774.881	57.13
775.275	57.11
775.669	57.09
776.063	57.09
776.457	57.15
776.851	57.14
777.245	57.09
777.638	57.1
778.032	57.08
778.425	57.11
778.819	57.08
779.212	57.1
779.606	57.12
779.999	57.09
780.392	57.11
780.786	57.12
781.179	57.13
781.572	57.18
781.965	57.18
782.358	57.16
782.751	57.14
783.143	57.13
783.536	57.11
783.929	57.09
784.322	57.13
784.714	57.12
785.107	57.15
785.499	57.14
785.891	57.13
786.284	57.14
786.676	57.16
787.068	57.18
787.46	57.19
787.852	57.19
788.245	57.21
788.636	57.21
789.028	57.22
789.42	57.19
789.812	57.21
790.204	57.22
790.595	57.2
790.987	57.19
791.378	57.2
791.77	57.23
792.161	57.21
792.553	57.18
792.944	57.18
793.335	57.2
793.726	57.19
794.117	57.14
794.508	57.11
794.899	57.07
795.29	57.09
795.681	57.03
796.072	57.01
796.463	57.01
796.853	56.98
797.244	56.96
797.634	56.93
798.025	56.95
798.415	56.95
798.806	56.93
799.196	56.95
799.586	56.93
799.976	56.97
800.366	56.96
800.756	56.99
801.146	57.04
801.536	57.06
801.926	57.04
802.316	57.02
802.706	57.06
803.095	57.09
803.485	57.11
803.874	57.11
804.264	57.07
804.653	57.1
805.043	57.07
805.432	57.06
805.821	57.09
806.21	57.11
806.599	57.11
806.988	57.11
807.377	57.09
807.766	57.04
808.155	57.02
808.544	57.05
808.933	57.03
809.321	57.03
809.71	57.03
810.098	56.99
810.487	56.97
810.875	56.93
811.264	56.91
811.652	56.92
812.04	56.93
812.428	56.98
812.816	56.92
813.204	56.9
813.592	56.87
813.98	56.85
814.368	56.83
814.756	56.84
815.144	56.85
815.531	56.83
815.919	56.8
816.306	56.81
816.694	56.77
817.081	56.79
817.469	56.8
817.856	56.81
818.243	56.8
818.63	56.79
819.017	56.78
819.404	56.77
819.791	56.78
820.178	56.8
820.565	56.78
820.952	56.79
821.339	56.8
821.725	56.81
822.112	56.82
822.498	56.86
822.885	56.89
823.271	56.89
823.657	56.89
824.044	56.89
824.43	56.91
824.816	56.93
825.202	56.89
825.588	56.89
825.974	56.89
826.36	56.89
826.746	56.86
827.132	56.84
827.517	56.83
827.903	56.84
828.289	56.85
828.674	56.83
829.06	56.82
829.445	56.83
829.83	56.79
830.216	56.75
830.601	56.73
830.986	56.75
831.371	56.74
831.756	56.74
832.141	56.71
832.526	56.72
832.911	56.71
833.295	56.7
833.68	56.73
834.065	56.77
834.449	56.76
834.834	56.76
835.218	56.75
835.603	56.76
835.987	56.76
836.371	56.77
836.755	56.75
837.139	56.75
837.524	56.76
837.908	56.75
838.291	56.76
838.675	56.77
839.059	56.78
839.443	56.77
839.827	56.73
840.21	56.71
840.594	56.73
840.977	56.7
841.361	56.71
841.744	56.66
842.127	56.65
842.511	56.62
842.894	56.59
843.277	56.58
843.66	56.53
844.043	56.57
844.426	56.59
844.809	56.58
845.191	56.6
845.574	56.61
845.957	56.63
846.339	56.64
846.722	56.66
847.104	56.69
847.487	56.69
847.869	56.73
848.252	56.72
848.634	56.73
849.016	56.75
849.398	56.75
849.78	56.74
850.162	56.74
850.544	56.71
850.926	56.69
851.307	56.69
851.689	56.71
852.071	56.68
852.452	56.68
852.834	56.68
853.215	56.66
853.597	56.65
853.978	56.63
854.359	56.62
854.741	56.63
855.122	56.62
855.503	56.6
855.884	56.56
856.265	56.58
856.646	56.56
857.026	56.56
857.407	56.58
857.788	56.57
858.169	56.6
858.549	56.6
858.93	56.59
859.31	56.59
859.69	56.58
860.071	56.63
860.451	56.63
860.831	56.64
861.211	56.6
861.591	56.55
861.971	56.54
862.351	56.55
862.731	56.55
863.111	56.56
863.491	56.56
863.87	56.57
864.25	56.54
864.629	56.53
865.009	56.52
865.388	56.53
865.768	56.55
866.147	56.55
866.526	56.52
866.905	56.52
867.284	56.52
867.663	56.51
868.042	56.51
868.421	56.52
868.8	56.53
869.179	56.53
869.558	56.54
869.936	56.54
870.315	56.54
870.693	56.56
871.072	56.57
871.45	56.6
871.828	56.61
872.207	56.63
872.585	56.61
872.963	56.59
873.341	56.57
873.719	56.56
874.097	56.56
874.475	56.58
874.853	56.59
875.23	56.6
875.608	56.59
875.986	56.59
876.363	56.58
876.741	56.59
877.118	56.64
877.495	56.68
877.873	56.71
878.25	56.75
878.627	56.76
879.004	56.75
879.381	56.72
879.758	56.7
880.135	56.7
880.512	56.69
880.889	56.69
881.265	56.68
881.642	56.67
882.019	56.67
882.395	56.62
882.772	56.59
883.148	56.57
883.524	56.56
883.901	56.57
884.277	56.53
884.653	56.54
885.029	56.51
885.405	56.49
885.781	56.46
886.157	56.46
886.532	56.48
886.908	56.49
887.284	56.5
887.659	56.49
888.035	56.49
888.411	56.49
888.786	56.49
889.161	56.52
889.537	56.53
889.912	56.54
890.287	56.54
890.662	56.54
891.037	56.56
891.412	56.55
891.787	56.52
892.162	56.5
892.536	56.51
892.911	56.52
893.286	56.51
893.66	56.48
894.035	56.46
894.409	56.44
894.784	56.41
895.158	56.37
895.532	56.37
895.906	56.38
896.281	56.39
896.655	56.38
897.029	56.35
897.402	56.34
897.776	56.36
898.15	56.38
898.524	56.4
898.898	56.4
899.271	56.42
899.645	56.43
900.018	56.46
900.392	56.46
900.765	56.5
901.138	56.49
901.511	56.49
901.884	56.51
902.258	56.53
902.631	56.53
903.003	56.57
903.376	56.57
903.749	56.58
904.122	56.59
904.495	56.6
904.867	56.57
905.24	56.62
905.612	56.66
905.985	56.63
906.357	56.61
906.729	56.63
907.102	56.61
907.474	56.61
907.846	56.59
908.218	56.56
908.59	56.56
908.962	56.57
909.334	56.55
909.705	56.51
910.077	56.54
910.449	56.53
910.82	56.49
911.192	56.45
911.563	56.43
911.935	56.42
912.306	56.42
912.677	56.44
913.048	56.44
913.419	56.4
913.79	56.39
914.161	56.37
914.532	56.36
914.903	56.39
915.274	56.42
915.645	56.43
916.015	56.43
916.386	56.44
916.756	56.41
917.127	56.44
917.497	56.46
917.868	56.47
918.238	56.46
918.608	56.5
918.978	56.51
919.348	56.5
919.718	56.5
920.088	56.57
920.458	56.57
920.828	56.57
921.198	56.51
921.567	56.52
921.937	56.53
922.306	56.52
922.676	56.47
923.045	56.43
923.415	56.4
923.784	56.37
924.153	56.34
924.522	56.34
924.891	56.34
925.26	56.37
925.629	56.35
925.998	56.35
926.367	56.39
926.736	56.38
927.104	56.39
927.473	56.41
927.842	56.42
928.21	56.41
928.578	56.38
928.947	56.37
929.315	56.32
929.683	56.31
930.051	56.28
930.42	56.21
930.788	56.16
931.156	56.12
931.523	56.08
931.891	56.06
932.259	56.03
932.627	55.99
932.994	55.99
933.362	55.97
933.729	55.97
934.097	55.94
934.464	55.99
934.831	56.02
935.199	56.05
935.566	56.02
935.933	55.98
936.3	55.95
936.667	55.95
937.034	55.96
937.401	55.97
937.767	55.96
938.134	55.94
938.501	55.9
938.867	55.92
939.234	55.87
939.6	55.91
939.967	55.95
940.333	56.01
940.699	56.06
941.065	56.04
941.431	56.04
941.798	56.02
942.163	56.04
942.529	56.06
942.895	56.07
943.261	56.07
943.627	56.05
943.992	56.05
944.358	56.03
944.723	56.01
945.089	56
945.454	56
945.82	55.97
946.185	56.01
946.55	55.98
946.915	55.95
947.28	55.99
947.645	56.03
948.01	56.03
948.375	55.99
948.74	55.94
949.104	55.94
949.469	55.92
949.834	55.89
950.198	55.83
950.562	55.83
950.927	55.81
951.291	55.72
951.655	55.64
952.02	55.62
952.384	55.54
952.748	55.5
953.112	55.45
953.476	55.38
953.839	55.34
954.203	55.34
954.567	55.31
954.931	55.22
955.294	55.22
955.658	55.29
956.021	55.24
956.385	55.23
956.748	55.17
957.111	55.17
957.474	55.2
957.837	55.17
958.2	55.13
958.563	55.09
958.926	55.17
959.289	55.14
959.652	55.07
960.015	55.08
960.377	55.06
960.74	55.11
961.102	55.16
961.465	55.16
961.827	55.21
962.189	55.25
962.552	55.28
962.914	55.23
963.276	55.22
963.638	55.22
964	55.23
964.362	55.27
964.724	55.28
965.085	55.21
965.447	55.21
965.809	55.19
966.17	55.14
966.532	55.1
966.893	55.14
967.255	55.2
967.616	55.23
967.977	55.2
968.338	55.2
968.699	55.17
969.061	55.17
969.421	55.16
969.782	55.17
970.143	55.14
970.504	55.14
970.865	55.13
971.225	55.07
971.586	55.08
971.946	55.07
972.307	55.03
972.667	55.09
973.027	55.13
973.388	55.13
973.748	55.17
974.108	55.25
974.468	55.25
974.828	55.24
975.188	55.26
975.548	55.24
975.907	55.28
976.267	55.31
976.627	55.27
976.986	55.23
977.346	55.14
977.705	55.1
978.064	55.05
978.424	55.06
978.783	55.02
979.142	54.96
979.501	54.94
979.86	54.93
980.219	54.89
980.578	54.91
980.937	54.96
981.296	54.98
981.654	54.89
982.013	54.88
982.371	54.85
982.73	54.91
983.088	54.95
983.447	54.88
983.805	54.9
984.163	54.89
984.521	54.8
984.879	54.75
985.237	54.76
985.595	54.9
985.953	54.88
986.311	54.92
986.669	54.9
987.026	54.91
987.384	54.99
987.741	54.97
988.099	55.01
988.456	55.01
988.814	55.06
989.171	55.14
989.528	55.1
989.885	55.09
990.242	55.09
990.599	55.17
990.956	55.24
991.313	55.15
991.67	55.14
992.027	55.25
992.383	55.27
992.74	55.24
993.096	55.19
993.453	55.19
993.809	55.22
994.165	55.26
994.522	55.13
994.878	55.03
995.234	55.09
995.59	55.05
995.946	54.87
996.302	54.88
996.658	54.86
997.013	54.85
997.369	54.81
997.725	54.86
998.08	54.87
998.436	54.92
998.791	55.03
999.147	55.08
999.502	55.1
999.857	55.21
1000.212	55.22
1000.567	55.26
1000.922	55.1
1001.277	55.08
1001.632	54.99
1001.987	55.11
1002.342	54.99
1002.696	54.8
1003.051	54.87
1003.406	54.98
1003.76	54.94
1004.114	54.84
1004.469	54.83
1004.823	55.22
1005.177	55.29
1005.531	55.4
1005.885	55.32
1006.239	55.36
1006.593	55.43
1006.947	55.36
1007.301	55.17
1007.655	55.15
1008.008	55.25
1008.362	55.27
1008.715	55.04
1009.069	55
1009.422	54.97
1009.776	54.91
1010.129	54.96
1010.482	55.03
1010.835	55.18
1011.188	55.34
1011.541	55.47
1011.894	55.46
1012.247	55.44
1012.6	55.53
1012.952	55.58
1013.305	55.51
1013.657	55.59
1014.01	55.6
1014.362	55.5
1014.715	55.32
1015.067	55.22
1015.419	55.32
1015.771	55.27
1016.123	55.29
1016.475	55.24
1016.827	55.22
1017.179	55.4
1017.531	55.31
1017.883	55.3
1018.234	55.38
1018.586	55.43
1018.938	55.67
1019.289	55.36
1019.64	55.51
1019.992	55.4
1020.343	55.39
1020.694	55.29
1021.045	55.01
1021.396	54.94
1021.747	55.08
1022.098	55.16
1022.449	55.05
1022.8	55
1023.151	55.04
1023.501	54.89
1023.852	55.07
1024.202	54.95
1024.553	55.1
1024.903	55.25
1025.253	55.4
1025.604	55.26
1025.954	54.81
1026.304	54.83
1026.654	54.76
1027.004	54.75
1027.354	54.57
1027.703	54.25
1028.053	54.29
1028.403	54.4
1028.753	54.39
1029.102	54.47
1029.452	54.59
1029.801	55.08
1030.15	55.09
1030.499	55
897.758	805.38
901.051	814.69
904.343	813.11
907.636	826.91
910.928	806.05
914.22	809.66
917.511	801.34
920.803	763.32
924.094	763.4
927.384	747.56
930.675	717.21
933.965	716.13
937.255	675.78
940.544	649.8
943.834	622.44
947.123	616.91
950.411	579.93
953.7	568.62
956.988	541.94
960.276	522.91
963.563	513.99
966.851	498.36
970.138	494.52
973.424	479.3
976.711	481.89
979.997	458.17
983.283	455.03
986.568	447.66
989.853	435.98
993.138	428.44
996.423	411.9
999.708	401
1002.992	395.95
1006.275	379.38
1009.559	377.21
1012.842	364.26
1016.125	356.87
1019.408	351.81
1022.69	347.42
1025.972	339.89
1029.254	331.75
1032.536	326.8
1035.817	321.13
1039.098	318.75
1042.379	313.78
1045.659	309.18
1048.939	302.62
1052.219	296.22
1055.498	292.92
1058.778	285.61
1062.057	279.79
1065.335	277.98
1068.614	274.25
1071.892	272.3
1075.17	264.18
1078.447	258.61
1081.724	257.23
1085.001	255.52
1088.278	251.12
1091.554	246.04
1094.83	246.78
1098.106	245.28
1101.382	243.83
1104.657	243.03
1107.932	238.43
1111.206	239.31
1114.481	235.04
1117.755	233.07
1121.029	231.07
1124.302	230.84
1127.575	226.69
1130.848	224.67
1134.121	222.9
1137.393	220.84
1140.665	216.13
1143.937	215.55
1147.208	214.56
1150.48	212.97
1153.75	211.79
1157.021	209.07
1160.291	208.99
1163.561	207.16
1166.831	206.95
1170.101	205.45
1173.37	205.82
1176.639	206.6
1179.907	204.18
1183.176	202.14
1186.444	202.49
1189.711	201
1192.979	200.96
1196.246	199.71
1199.513	200.6
1202.78	199.16
1206.046	199.18
1209.312	197.33
1212.578	196.89
1215.843	198.67
1219.108	197.95
1222.373	200.98
1225.638	202.27
1228.902	204.08
1232.166	205.41
1235.43	205.92
1238.693	208.91
1241.956	209.47
1245.219	212.13
1248.482	212.99
1251.744	212.79
1255.006	212.9
1258.268	208.49
1261.529	207.6
1264.79	206.05
1268.051	204.2
1271.312	202.66
1274.572	200.31
1277.832	199.17
1281.092	196.27
1284.351	194.94
1287.61	195.13
1290.869	192.43
1294.128	191.59
1297.386	191.06
1300.644	189.73
1303.902	190.87
1307.159	189.93
1310.416	189.15
1313.673	188.87
1316.93	190.18
1320.186	190.03
1323.442	190.51
1326.697	193
1329.953	193.8
1333.208	194.06
1336.463	196.32
1339.717	195.3
1342.972	197.67
1346.226	199.23
1349.479	199.52
1352.733	200.2
1355.986	201.75
1359.238	200.68
1362.491	201.67
1365.743	202.18
1368.995	201.47
1372.247	201.03
1375.498	200.16
1378.749	200.91
1382	197.53
1385.251	197.54
1388.501	196.27
1391.751	194.51
1395	193.62
1398.25	191.97
1401.499	189.41
1404.748	189.06
1407.996	187.16
1411.244	186.61
1414.492	184.24
1417.74	183.37
1420.987	180.54
1424.234	179.61
1427.481	176.9
1430.728	176.61
1433.974	175.15
1437.22	173.51
1440.465	173.29
1443.711	170.49
1446.956	168.59
1450.201	167.71
1453.445	166.1
1456.689	165.76
1459.933	162.79
1463.177	162.11
1466.42	159.93
1469.663	157.67
1472.906	157.36
1476.148	153.5
1479.391	152.25
1482.633	151.88
1485.874	149.12
1489.115	147.94
1492.356	147.14
1495.597	146.81
1498.838	145.41
1502.078	144.82
1505.318	144.57
1508.557	144.68
1511.797	144.53
1515.036	144.24
1518.274	143.49
1521.513	143.31
1524.751	142.95
1527.989	142.77
1531.227	142.84
1534.464	142.87
1537.701	142.24
1540.938	142.08
1544.174	140.92
1547.41	141.68
1550.646	141.23
1553.882	141.94
1557.117	140.39
1560.352	140.02
1563.587	140.07
1566.821	139.53
1570.055	138.79
1573.289	138.05
1576.523	138.27
1579.756	137.23
1582.989	136.94
1586.222	136.25
1589.454	135.5
1592.686	137.15
1595.918	136.53
1599.15	135.81
1602.381	135.83
1605.612	135.95
1608.843	136.56
1612.073	136.09
1615.303	137.33
1618.533	137.1
1621.762	137.92
1624.992	138.52
1628.221	137.77
1631.449	137.88
1634.678	138.17
1637.906	139.13
1641.134	139.04
1644.361	138.87
1647.588	139.26
1650.815	138.78
1654.042	138.49
1657.269	138.93
1660.495	139
1663.72	138.9
1666.946	139.78
1670.171	139.82
1673.396	139.67
1676.621	139.98
1679.845	140.47
1683.069	140.43
1686.293	141.53
1689.517	141.6
1692.74	141.66
1695.963	141.59
1699.185	142.46
1702.408	142.5
1705.63	142.95
1708.852	143.84
1712.073	143.08
1715.294	142.99
1718.515	144.12
1721.736	143.52
1724.956	143.78
1728.176	143.59
1731.396	144.19
1734.616	144.04
1737.835	144.41
1741.054	142.96
1744.272	142.82
1747.491	144.11
1750.709	144.48
1753.927	143.61
1757.144	143.44
1760.361	143.91
1763.578	144.18
1766.795	143.84
1770.011	144.71
1773.227	144.66
1776.443	145.85
1779.658	145.58
1782.874	145.84
1786.089	145.9
1789.303	146.37
1792.518	147.67
1795.732	147.43
1798.945	148.28
1802.159	149.12
1805.372	149.06
1808.585	150.84
1811.797	151.76
1815.01	152.31
1818.222	153.15
1821.434	155.12
1824.645	155.31
1827.856	157.47
1831.067	158.69
1834.278	158.12
1837.488	159
1840.698	159.5
1843.908	158.25
1847.117	158.48
1850.326	158.79
1853.535	157.77
1856.744	158.88
1859.952	158.48
1863.16	156.61
1866.368	155.37
1869.575	155.7
1872.782	152.53
1875.989	150.96
1879.196	149.71
1882.402	147.86
1885.608	147.87
1888.814	147.16
1892.019	144.42
1895.224	143.44
1898.429	142.84
1901.634	142.3
1904.838	141.8
1908.042	142.98
1911.246	142.69
1914.449	143.36
1917.652	143.5
1920.855	143.2
1924.058	142.78
1927.26	142.52
1930.462	142.9
1933.664	143.72
1936.865	143.3
1940.066	143.49
1943.267	141.65
1946.467	142.36
1949.668	143.01
1952.868	144.65
1956.067	144.53
1959.267	145.34
1962.466	145.86
1965.665	145.35
1968.863	145.91
1972.061	147.7
1975.259	148.8
1978.457	150.89
1981.654	152.74
1984.852	152.78
1988.048	152.33
1991.245	153.95
1994.441	155.29
1997.637	156.7
2000.833	160.28
2004.028	162.13
2007.223	163.47
2010.418	164.85
2013.613	168.07
2016.807	169.76
2020.001	171.74
2023.194	174.85
2026.388	178.36
2029.581	183.33
2032.774	184.42
2035.966	187.17
2039.158	188.19
2042.35	191.56
2045.542	193.03
2048.733	195.7
2051.924	198.63
2055.115	201.61
2058.306	201.97
2061.496	203.71
2064.686	202.99
2067.875	207.83
2071.065	209.16
2074.254	207.45
2077.442	210.58
2080.631	211.64
2083.819	213.66
2087.007	213.67
2090.195	217.29
2093.382	219.21
2096.569	218.94
2099.756	223.38
2102.942	223.48
2106.128	224.76
2109.314	230.88
2112.5	230.17
2115.685	235.92
2118.87	235.96
2122.055	241.5
2125.239	242
2128.424	244.59
2131.608	245.79
2134.791	247.53
2137.974	249.05
2141.157	249.83
2144.34	250.23
2147.523	253
2150.705	250.8
2153.887	254.4
2157.068	253.98
2160.25	251.25
2163.431	254.23
2166.611	256.98
2169.792	261.69
2172.972	265.26
2176.152	266
2179.331	269.37
2182.511	274.6
2185.69	277.18
2188.868	282.04
2192.047	282.46
2195.225	291.79
2198.403	296.81
2201.58	302.56
2204.758	307.63
2207.935	312.14
2211.111	319.98
2214.288	324.19
2217.464	324.4
2220.64	331.01
2223.815	333.68
2226.991	346.61
2230.166	346.83
2233.34	351.37
2236.515	357.13
2239.689	357.79
2242.863	359.78
2246.036	369.72
2249.209	367.21
2252.382	372.7
2255.555	382.75
2258.727	385.24
2261.9	386.82
2265.071	391.52
2268.243	398.97
2271.414	400.64
2274.585	409.8
2277.756	413.61
2280.926	418.44
2284.096	426.58
2287.266	435.44
2290.436	438.19
2293.605	447.36
2296.774	460.31
2299.942	473.54
2303.111	475.86
2306.279	489.7
2309.447	492.35
2312.614	505.88
2315.781	518.07
2318.948	540.09
2322.115	534.06
2325.281	563.43
2328.447	549.6
2331.613	570.54
2334.779	565.48
2337.944	589.84
2341.109	594.17
2344.274	612.52
2347.438	631.93
2350.602	629.14
2353.766	652.57
2356.929	662.92
2360.092	655.65
2363.255	705.78
2366.418	705.35
2369.58	715.98
2372.742	759.35
2375.904	779.65
2379.066	777.09
2382.227	763.83
2385.388	824.41
2388.548	823.43
2391.709	832.58
2394.869	926.85
2398.029	891.51
2401.188	914.54
2404.347	913.07
2407.506	898.37
2410.665	919.22
2413.823	976.8
2416.981	1033.49
2420.139	1001.84
2423.296	991.41
2426.453	1031.48
2429.61	991.9
2432.767	1030.01
2435.923	1021.28
2439.079	1118.38
2442.235	1133.18
2445.391	1126.05
2448.546	1114.09
2451.701	1082.97
2454.855	1084.72
2458.009	1144.38
2461.163	1192.1
2464.317	1237.32
2467.471	1274.25
2470.624	1276.08
2473.777	1236.8
2476.929	1207.42
2480.082	1167.35
2483.234	1155.59
2486.385	1217.84
2489.537	1221.19
2492.688	1268.54
2495.839	1237.97
2498.989	1210.87
2502.14	1215
2505.29	1222.87
2508.439	1245.39
2511.589	1240.74
2514.738	1356.13
2517.887	1325.96
2521.035	1397.18
2524.183	1411.02
2527.331	1422.39
2530.479	1412.93
2533.627	1422.08
