Data from C_1_DEC_CT_2N_Splice17_12-56-01-788.txt Node
Date: Sat Mar 07 12:56:01 EST 2020
User: sa697716
Spectrometer: NQ5500242
Trigger mode: 0
Integration Time (sec): 1.450000E-1
Scans to average: 20
Nonlinearity correction enabled: false
Boxcar width: 5
Storing dark spectrum: false
XAxis mode: Wavelengths
Number of Pixels in Spectrum: 512
>>>>>Begin Spectral Data<<<<<
187.83	127.77
188.298	123.72
188.766	128.3
189.233	117.39
189.701	139.34
190.169	158.96
190.636	195.28
191.104	248
191.571	35.57
192.039	44.13
192.506	45.89
192.974	-52.98
193.441	-169.21
193.908	-26.04
194.375	16.92
194.842	68.41
195.31	76.68
195.777	256.28
196.244	50.15
196.711	38.7
197.177	39.84
197.644	38.02
198.111	37.97
198.578	38.56
199.045	38.81
199.511	38.57
199.978	38.04
200.445	38.31
200.911	38.17
201.378	38.03
201.844	38.02
202.31	37.88
202.777	37.89
203.243	38.11
203.709	37.73
204.176	37.22
204.642	37.14
205.108	37.27
205.574	37.22
206.04	36.97
206.506	36.94
206.972	36.84
207.438	36.64
207.903	36.3
208.369	35.5
208.835	34.95
209.301	34.47
209.766	33.6
210.232	32.77
210.697	31.65
211.163	31.02
211.628	30.25
212.094	29.43
212.559	28.95
213.024	28.18
213.49	27.59
213.955	27.03
214.42	26.36
214.885	25.81
215.35	24.86
215.815	23.8
216.28	22.24
216.745	20.44
217.21	18.88
217.675	17.22
218.14	15.96
218.604	14.81
219.069	13.78
219.534	12.98
219.998	12.26
220.463	11.72
220.927	11.21
221.392	10.84
221.856	10.55
222.32	10.24
222.785	10.01
223.249	9.78
223.713	9.58
224.177	9.42
224.642	9.25
225.106	9.06
225.57	8.88
226.034	8.75
226.497	8.6
226.961	8.44
227.425	8.32
227.889	8.18
228.353	8.06
228.816	7.94
229.28	7.82
229.744	7.69
230.207	7.59
230.671	7.47
231.134	7.36
231.597	7.28
232.061	7.21
232.524	7.12
232.987	7.03
233.45	6.96
233.914	6.89
234.377	6.8
234.84	6.74
235.303	6.67
235.766	6.63
236.229	6.56
236.691	6.48
237.154	6.41
237.617	6.35
238.08	6.3
238.542	6.22
239.005	6.16
239.468	6.1
239.93	6.05
240.393	6
240.855	5.92
241.317	5.86
241.78	5.8
242.242	5.73
242.704	5.69
243.166	5.63
243.629	5.59
244.091	5.54
244.553	5.49
245.015	5.43
245.477	5.38
245.939	5.33
246.4	5.29
246.862	5.25
247.324	5.21
247.786	5.16
248.247	5.11
248.709	5.06
249.17	5.02
249.632	4.99
250.093	4.96
250.555	4.92
251.016	4.89
251.477	4.86
251.939	4.83
252.4	4.8
252.861	4.77
253.322	4.75
253.783	4.71
254.244	4.69
254.705	4.66
255.166	4.63
255.627	4.6
256.088	4.57
256.549	4.55
257.009	4.52
257.47	4.48
257.931	4.45
258.391	4.41
258.852	4.38
259.312	4.34
259.773	4.3
260.233	4.28
260.694	4.26
261.154	4.23
261.614	4.2
262.074	4.17
262.534	4.15
262.994	4.13
263.455	4.11
263.915	4.09
264.374	4.07
264.834	4.06
265.294	4.03
265.754	4.02
266.214	4
266.673	3.99
267.133	3.98
267.593	3.96
268.052	3.95
268.512	3.95
268.971	3.93
269.431	3.92
269.89	3.91
270.349	3.9
270.809	3.89
271.268	3.88
271.727	3.87
272.186	3.86
272.645	3.86
273.104	3.84
273.563	3.83
274.022	3.83
274.481	3.82
274.94	3.81
275.399	3.79
275.857	3.78
276.316	3.76
276.775	3.75
277.233	3.75
277.692	3.74
278.15	3.73
278.609	3.73
279.067	3.72
279.525	3.71
279.984	3.71
280.442	3.7
280.9	3.69
281.358	3.69
281.816	3.68
282.274	3.68
282.732	3.66
283.19	3.65
283.648	3.64
284.106	3.63
284.564	3.62
285.021	3.61
285.479	3.6
285.937	3.59
286.394	3.58
286.852	3.58
287.309	3.56
287.767	3.55
288.224	3.53
288.682	3.52
289.139	3.51
289.596	3.5
290.053	3.48
290.511	3.46
290.968	3.45
291.425	3.42
291.882	3.4
292.339	3.39
292.796	3.38
293.252	3.36
293.709	3.35
294.166	3.34
294.623	3.33
295.079	3.32
295.536	3.32
295.992	3.32
296.449	3.32
296.905	3.32
297.362	3.31
297.818	3.3
298.274	3.3
298.731	3.3
299.187	3.29
299.643	3.29
300.099	3.28
300.555	3.27
301.011	3.26
301.467	3.25
301.923	3.24
302.379	3.23
302.835	3.24
303.291	3.23
303.746	3.22
304.202	3.22
304.658	3.21
305.113	3.21
305.569	3.21
306.024	3.21
306.479	3.2
306.935	3.2
307.39	3.19
307.845	3.19
308.301	3.18
308.756	3.18
309.211	3.18
309.666	3.18
310.121	3.18
310.576	3.17
311.031	3.18
311.486	3.18
311.94	3.18
312.395	3.18
312.85	3.18
313.305	3.18
313.759	3.17
314.214	3.17
314.668	3.16
315.123	3.15
315.577	3.14
316.032	3.13
316.486	3.13
316.94	3.12
317.394	3.1
317.849	3.08
318.303	3.07
318.757	3.06
319.211	3.05
319.665	3.05
320.119	3.04
320.572	3.03
321.026	3.03
321.48	3.02
321.934	3.01
322.387	3
322.841	3
323.295	3
323.748	3
324.202	3
324.655	2.99
325.108	2.99
325.562	2.98
326.015	2.98
326.468	2.98
326.921	2.99
327.374	2.98
327.827	2.98
328.28	2.97
328.733	2.97
329.186	2.96
329.639	2.96
330.092	2.96
330.545	2.96
330.997	2.95
331.45	2.95
331.903	2.95
332.355	2.95
332.808	2.95
333.26	2.95
333.713	2.94
334.165	2.94
334.617	2.95
335.069	2.94
335.522	2.95
335.974	2.95
336.426	2.94
336.878	2.93
337.33	2.94
337.782	2.94
338.234	2.94
338.686	2.94
339.137	2.95
339.589	2.93
340.041	2.93
340.493	2.92
340.944	2.9
341.396	2.89
341.847	2.88
342.299	2.86
342.75	2.85
343.201	2.84
343.653	2.82
344.104	2.8
344.555	2.79
345.006	2.78
345.457	2.78
345.908	2.78
346.359	2.77
346.81	2.77
347.261	2.76
347.712	2.76
348.163	2.75
348.613	2.76
349.064	2.76
349.515	2.76
349.965	2.76
350.416	2.75
350.866	2.75
351.317	2.74
351.767	2.74
352.217	2.73
352.668	2.73
353.118	2.73
353.568	2.72
354.018	2.73
354.468	2.73
354.918	2.73
355.368	2.73
355.818	2.73
356.268	2.73
356.718	2.74
357.168	2.73
357.617	2.73
358.067	2.73
358.517	2.74
358.966	2.74
359.416	2.74
359.865	2.73
360.315	2.73
360.764	2.73
361.213	2.73
361.663	2.73
362.112	2.74
362.561	2.74
363.01	2.74
363.459	2.72
363.908	2.72
364.357	2.71
364.806	2.71
365.255	2.71
365.703	2.72
366.152	2.72
366.601	2.72
367.05	2.72
367.498	2.72
367.947	2.73
368.395	2.74
368.844	2.74
369.292	2.75
369.74	2.75
370.189	2.75
370.637	2.74
371.085	2.73
371.533	2.73
371.981	2.72
372.429	2.71
372.877	2.71
373.325	2.7
373.773	2.69
374.221	2.68
374.669	2.67
375.116	2.66
375.564	2.65
376.012	2.65
376.459	2.65
376.907	2.66
377.354	2.66
377.801	2.66
378.249	2.66
378.696	2.66
379.143	2.67
379.591	2.67
380.038	2.68
380.485	2.68
380.932	2.67
381.379	2.68
381.826	2.68
382.273	2.67
382.72	2.66
383.166	2.66
383.613	2.65
384.06	2.64
384.506	2.64
384.953	2.64
385.4	2.64
385.846	2.64
386.292	2.63
386.739	2.62
387.185	2.62
387.631	2.63
388.078	2.63
388.524	2.64
388.97	2.64
389.416	2.64
389.862	2.64
390.308	2.66
390.754	2.67
391.2	2.68
391.645	2.69
392.091	2.71
392.537	2.71
392.983	2.71
393.428	2.72
393.874	2.72
394.319	2.73
394.765	2.73
395.21	2.73
395.655	2.72
396.101	2.73
396.546	2.74
396.991	2.75
397.436	2.76
397.881	2.78
398.326	2.8
398.771	2.81
399.216	2.83
399.661	2.85
400.106	2.86
400.551	2.87
400.995	2.88
401.44	2.88
401.885	2.89
402.329	2.9
402.774	2.91
403.218	2.93
403.663	2.94
404.107	2.96
404.551	2.97
404.995	2.97
405.44	2.99
405.884	3
406.328	3.02
406.772	3.03
407.216	3.04
407.66	3.04
408.104	3.04
408.547	3.04
408.991	3.05
409.435	3.06
409.879	3.08
410.322	3.1
410.766	3.11
411.209	3.13
411.653	3.15
412.096	3.16
412.54	3.18
412.983	3.19
413.426	3.22
413.869	3.22
414.312	3.25
414.756	3.26
415.199	3.26
415.642	3.27
416.085	3.28
416.527	3.28
416.97	3.27
417.413	3.27
417.856	3.27
418.298	3.26
418.741	3.28
419.184	3.27
419.626	3.27
420.069	3.27
420.511	3.27
420.953	3.26
421.396	3.28
421.838	3.28
422.28	3.28
422.722	3.3
423.164	3.3
423.606	3.3
424.048	3.32
424.49	3.33
424.932	3.34
425.374	3.34
425.816	3.31
426.258	3.3
426.699	3.28
427.141	3.28
427.582	3.29
428.024	3.29
428.465	3.3
428.907	3.28
429.348	3.27
429.789	3.27
430.231	3.29
430.672	3.32
431.113	3.34
431.554	3.36
431.995	3.37
432.436	3.38
432.877	3.4
433.318	3.42
433.759	3.45
434.2	3.47
434.64	3.49
435.081	3.5
435.522	3.52
435.962	3.54
436.403	3.56
436.843	3.58
437.284	3.58
437.724	3.57
438.164	3.56
438.604	3.56
439.045	3.56
439.485	3.56
439.925	3.56
440.365	3.55
440.805	3.54
441.245	3.54
441.685	3.56
442.125	3.57
442.564	3.58
443.004	3.58
443.444	3.59
443.883	3.61
444.323	3.6
444.762	3.6
445.202	3.6
445.641	3.61
446.081	3.62
446.52	3.61
446.959	3.63
447.398	3.64
447.837	3.65
448.276	3.65
448.716	3.64
449.154	3.65
449.593	3.66
450.032	3.65
450.471	3.64
450.91	3.62
451.349	3.63
451.787	3.62
452.226	3.61
452.664	3.6
453.103	3.59
453.541	3.58
453.98	3.58
454.418	3.57
454.856	3.57
455.295	3.56
455.733	3.53
456.171	3.53
456.609	3.52
457.047	3.49
457.485	3.48
457.923	3.48
458.361	3.48
458.798	3.47
459.236	3.47
459.674	3.47
460.111	3.46
460.549	3.48
460.987	3.48
461.424	3.48
461.862	3.5
462.299	3.51
462.736	3.52
463.173	3.51
463.611	3.51
464.048	3.52
464.485	3.52
464.922	3.53
465.359	3.53
465.796	3.55
466.233	3.55
466.67	3.56
467.106	3.57
467.543	3.57
467.98	3.56
468.416	3.55
468.853	3.55
469.29	3.55
469.726	3.55
470.162	3.55
470.599	3.55
471.035	3.55
471.471	3.54
471.907	3.52
472.344	3.52
472.78	3.53
473.216	3.53
473.652	3.53
474.088	3.53
474.523	3.52
474.959	3.51
475.395	3.5
475.831	3.49
476.266	3.49
476.702	3.48
477.138	3.47
477.573	3.46
478.008	3.46
478.444	3.45
478.879	3.45
479.314	3.44
479.75	3.43
480.185	3.41
480.62	3.4
481.055	3.38
481.49	3.37
481.925	3.36
482.36	3.36
482.795	3.34
483.229	3.33
483.664	3.33
484.099	3.32
484.534	3.31
484.968	3.31
485.403	3.32
485.837	3.32
486.271	3.33
486.706	3.33
487.14	3.33
487.574	3.34
488.009	3.35
488.443	3.35
488.877	3.36
489.311	3.38
489.745	3.4
490.179	3.42
490.613	3.44
491.046	3.45
491.48	3.47
491.914	3.5
492.348	3.52
492.781	3.54
493.215	3.57
493.648	3.59
494.082	3.61
494.515	3.62
494.948	3.65
495.382	3.68
495.815	3.71
496.248	3.75
496.681	3.79
497.114	3.84
497.547	3.88
497.98	3.93
498.413	3.98
498.846	4.04
499.279	4.11
499.711	4.16
500.144	4.23
500.577	4.31
501.009	4.37
501.442	4.44
501.874	4.51
502.306	4.59
502.739	4.68
503.171	4.77
503.603	4.86
504.036	4.96
504.468	5.07
504.9	5.16
505.332	5.28
505.764	5.4
506.196	5.53
506.627	5.66
507.059	5.81
507.491	5.94
507.923	6.09
508.354	6.26
508.786	6.42
509.217	6.59
509.649	6.76
510.08	6.93
510.512	7.11
510.943	7.3
511.374	7.49
511.805	7.67
512.237	7.87
512.668	8.07
513.099	8.26
513.53	8.47
513.961	8.68
514.391	8.9
514.822	9.13
515.253	9.36
515.684	9.6
516.114	9.86
516.545	10.11
516.975	10.37
517.406	10.62
517.836	10.88
518.267	11.16
518.697	11.43
519.127	11.69
519.558	11.94
519.988	12.2
520.418	12.45
520.848	12.7
521.278	12.94
521.708	13.33
522.138	13.57
522.567	13.8
522.997	14.01
523.427	14.24
523.857	14.47
524.286	14.7
524.716	14.92
525.145	15.12
525.575	15.33
526.004	15.54
526.433	15.59
526.863	15.78
527.292	15.97
527.721	16.15
528.15	16.31
528.579	16.48
529.008	16.61
529.437	16.75
529.866	16.88
530.295	17.02
530.724	17.14
531.152	17.26
531.581	17.39
532.01	17.5
532.438	17.61
532.867	17.71
533.295	17.79
533.723	17.88
534.152	17.97
534.58	18.05
535.008	18.11
535.436	18.16
535.865	18.22
536.293	18.26
536.721	18.31
537.149	18.37
537.576	18.43
538.004	18.49
538.432	18.54
538.86	18.57
539.287	18.61
539.715	18.67
540.143	18.73
540.57	18.76
540.998	18.81
541.425	18.84
541.852	18.87
542.28	18.92
542.707	18.95
543.134	18.99
543.561	19.05
543.988	19.08
544.415	19.11
544.842	19.12
545.269	19.17
545.696	19.2
546.123	19.25
546.549	19.28
546.976	19.29
547.403	19.33
547.829	19.34
548.256	19.35
548.682	19.37
549.108	19.38
549.535	19.41
549.961	19.4
550.387	19.4
550.813	19.4
551.24	19.39
551.666	19.38
552.092	19.37
552.518	19.36
552.943	19.34
553.369	19.32
553.795	19.3
554.221	19.28
554.646	19.23
555.072	19.2
555.498	19.14
555.923	19.1
556.349	19.04
556.774	18.98
557.199	18.92
557.625	18.86
558.05	18.8
558.475	18.72
558.9	18.64
559.325	18.57
559.75	18.48
560.175	18.39
560.6	18.29
561.025	18.2
561.449	18.09
561.874	17.97
562.299	17.86
562.723	17.73
563.148	17.61
563.572	17.47
563.997	17.35
564.421	17.21
564.846	17.07
565.27	16.94
565.694	16.8
566.118	16.66
566.542	16.52
566.966	16.38
567.39	16.24
567.814	16.11
568.238	15.98
568.662	15.84
569.086	15.7
569.509	15.58
569.933	15.44
570.357	15.31
570.78	15.17
571.204	15.03
571.627	14.91
572.05	14.77
572.474	14.64
572.897	14.52
573.32	14.39
573.743	14.28
574.166	14.16
574.589	14.04
575.012	13.94
575.435	13.84
575.858	13.75
576.281	13.66
576.704	13.57
577.126	13.46
577.549	13.36
577.972	13.28
578.394	13.19
578.817	13.11
579.239	13.03
579.661	12.95
580.084	12.88
580.506	12.8
580.928	12.71
581.35	12.63
581.772	12.57
582.194	12.5
582.616	12.42
583.038	12.36
583.46	12.28
583.882	12.22
584.303	12.15
584.725	12.07
585.147	12.01
585.568	11.95
585.99	11.88
586.411	11.82
586.833	11.76
587.254	11.7
587.675	11.64
588.096	11.59
588.518	11.54
588.939	11.51
589.36	11.47
589.781	11.43
590.202	11.4
590.623	11.37
591.043	11.33
591.464	11.3
591.885	11.26
592.305	11.22
592.726	11.19
593.147	11.15
593.567	11.11
593.987	11.08
594.408	11.06
594.828	11.02
595.248	10.99
595.669	10.97
596.089	10.93
596.509	10.91
596.929	10.88
597.349	10.85
597.769	10.81
598.189	10.78
598.608	10.75
599.028	10.71
599.448	10.67
599.867	10.63
600.287	10.6
600.706	10.58
601.126	10.54
601.545	10.5
601.965	10.46
602.384	10.43
602.803	10.38
603.222	10.33
603.641	10.28
604.061	10.24
604.48	10.19
604.898	10.13
605.317	10.07
605.736	10.02
606.155	9.96
606.574	9.9
606.992	9.83
607.411	9.77
607.829	9.68
608.248	9.61
608.666	9.54
609.085	9.48
609.503	9.4
609.921	9.33
610.339	9.26
610.758	9.2
611.176	9.13
611.594	9.08
612.012	9.01
612.43	8.98
612.847	8.92
613.265	8.86
613.683	8.79
614.101	8.74
614.518	8.68
614.936	8.62
615.353	8.55
615.771	8.5
616.188	8.44
616.606	8.4
617.023	8.34
617.44	8.31
617.857	8.26
618.274	8.21
618.691	8.16
619.108	8.12
619.525	8.08
619.942	8.05
620.359	8.01
620.776	7.98
621.192	7.94
621.609	7.91
622.026	7.87
622.442	7.85
622.859	7.83
623.275	7.81
623.691	7.79
624.108	7.77
624.524	7.75
624.94	7.74
625.356	7.73
625.772	7.71
626.188	7.7
626.604	7.7
627.02	7.68
627.436	7.68
627.852	7.66
628.268	7.66
628.683	7.64
629.099	7.64
629.514	7.63
629.93	7.62
630.345	7.61
630.761	7.58
631.176	7.56
631.591	7.53
632.007	7.5
632.422	7.47
632.837	7.44
633.252	7.39
633.667	7.34
634.082	7.29
634.497	7.24
634.911	7.19
635.326	7.13
635.741	7.07
636.155	7
636.57	6.94
636.984	6.87
637.399	6.8
637.813	6.73
638.228	6.65
638.642	6.56
639.056	6.47
639.47	6.39
639.884	6.31
640.298	6.22
640.712	6.13
641.126	6.05
641.54	5.95
641.954	5.87
642.368	5.77
642.781	5.7
643.195	5.62
643.609	5.54
644.022	5.46
644.436	5.39
644.849	5.32
645.262	5.27
645.676	5.2
646.089	5.14
646.502	5.09
646.915	5.05
647.328	4.99
647.741	4.95
648.154	4.91
648.567	4.88
648.98	4.85
649.393	4.81
649.805	4.79
650.218	4.75
650.631	4.73
651.043	4.7
651.456	4.68
651.868	4.66
652.28	4.63
652.693	4.6
653.105	4.56
653.517	4.53
653.929	4.49
654.341	4.44
654.753	4.41
655.165	4.36
655.577	4.31
655.989	4.27
656.401	4.22
656.813	4.17
657.224	4.13
657.636	4.08
658.047	4.04
658.459	3.98
658.87	3.93
659.282	3.88
659.693	3.84
660.104	3.78
660.515	3.72
660.926	3.68
661.338	3.62
661.749	3.58
662.159	3.54
662.57	3.49
662.981	3.46
663.392	3.43
663.803	3.39
664.213	3.35
664.624	3.33
665.035	3.31
665.445	3.3
665.855	3.28
666.266	3.26
666.676	3.25
667.086	3.22
667.497	3.2
667.907	3.19
668.317	3.19
668.727	3.18
669.137	3.17
669.547	3.16
669.956	3.15
670.366	3.14
670.776	3.13
671.186	3.13
671.595	3.14
672.005	3.14
672.414	3.14
672.824	3.14
673.233	3.15
673.642	3.16
674.052	3.16
674.461	3.17
674.87	3.18
675.279	3.2
675.688	3.21
676.097	3.23
676.506	3.24
676.915	3.26
677.323	3.28
677.732	3.29
678.141	3.31
678.549	3.34
678.958	3.36
679.366	3.4
679.775	3.42
680.183	3.46
680.592	3.5
681	3.55
681.408	3.6
681.816	3.66
682.224	3.73
682.632	3.8
683.04	3.86
683.448	3.94
683.856	4.02
684.264	4.12
684.671	4.23
685.079	4.35
685.487	4.49
685.894	4.64
686.302	4.82
686.709	5
687.116	5.21
687.524	5.44
687.931	5.69
688.338	5.96
688.745	6.25
689.152	6.55
689.559	6.89
689.966	7.25
690.373	7.61
690.78	7.99
691.187	8.39
691.593	8.81
692	9.23
692.407	9.67
692.813	10.12
693.22	10.59
693.626	11.06
694.032	11.53
694.439	12
694.845	12.49
695.251	12.97
695.657	13.46
696.063	13.95
696.469	14.46
696.875	14.96
697.281	15.45
697.687	15.94
698.093	16.42
698.498	16.91
698.904	17.4
699.31	17.88
699.715	18.37
700.12	18.84
700.526	19.31
700.931	19.78
701.337	20.23
701.742	20.68
702.147	21.12
702.552	21.57
702.957	21.99
703.362	22.4
703.767	22.81
704.172	23.21
704.577	23.62
704.981	24.03
705.386	24.42
705.791	24.81
706.195	25.21
706.6	25.6
707.004	25.98
707.408	26.36
707.813	26.75
708.217	27.11
708.621	27.48
709.025	27.84
709.43	28.16
709.834	28.52
710.237	28.86
710.641	29.18
711.045	29.49
711.449	29.81
711.853	30.14
712.256	30.42
712.66	30.73
713.064	31.02
713.467	31.29
713.87	31.6
714.274	31.85
714.677	32.11
715.08	32.35
715.484	32.62
715.887	32.87
716.29	33.1
716.693	33.37
717.096	33.61
717.499	33.87
717.901	34.14
718.304	34.38
718.707	34.63
719.109	34.88
719.512	35.15
719.915	35.39
720.317	35.59
720.719	35.78
721.122	35.98
721.524	36.19
721.926	36.39
722.328	36.58
722.731	36.76
723.133	36.94
723.535	37.11
723.937	37.26
724.338	37.41
724.74	37.6
725.142	37.86
725.544	38
725.945	38.17
726.347	38.28
726.748	38.41
727.15	38.53
727.551	38.67
727.952	38.79
728.354	38.93
728.755	39.05
729.156	39.18
729.557	39.22
729.958	39.32
730.359	39.43
730.76	39.57
731.161	39.67
731.562	39.79
731.962	39.85
732.363	39.95
732.763	40.03
733.164	40.13
733.564	40.2
733.965	40.29
734.365	40.39
734.766	40.44
735.166	40.5
735.566	40.57
735.966	40.65
736.366	40.72
736.766	40.77
737.166	40.85
737.566	40.87
737.966	40.92
738.365	40.94
738.765	40.99
739.165	41.03
739.564	41.08
739.964	41.11
740.363	41.13
740.763	41.18
741.162	41.22
741.561	41.24
741.96	41.28
742.36	41.31
742.759	41.36
743.158	41.39
743.557	41.4
743.955	41.44
744.354	41.47
744.753	41.51
745.152	41.56
745.55	41.59
745.949	41.59
746.348	41.64
746.746	41.66
747.144	41.69
747.543	41.71
747.941	41.72
748.339	41.71
748.737	41.71
749.136	41.71
749.534	41.69
749.932	41.71
750.33	41.74
750.727	41.74
751.125	41.75
751.523	41.72
751.921	41.73
752.318	41.77
752.716	41.78
753.113	41.79
753.511	41.79
753.908	41.82
754.305	41.79
754.703	41.77
755.1	41.73
755.497	41.68
755.894	41.62
756.291	41.5
756.688	41.35
757.085	41.25
757.482	41.15
757.878	41.06
758.275	40.95
758.672	40.88
759.068	40.84
759.465	40.78
759.861	40.73
760.258	40.72
760.654	40.76
761.05	40.83
761.447	40.9
761.843	40.96
762.239	40.99
762.635	41.02
763.031	41.09
763.427	41.12
763.822	41.2
764.218	41.27
764.614	41.35
765.01	41.42
765.405	41.45
765.801	41.48
766.196	41.53
766.592	41.59
766.987	41.66
767.382	41.67
767.778	41.7
768.173	41.71
768.568	41.74
768.963	41.78
769.358	41.8
769.753	41.81
770.148	41.83
770.542	41.81
770.937	41.81
771.332	41.8
771.726	41.8
772.121	41.78
772.515	41.8
772.91	41.78
773.304	41.77
773.699	41.78
774.093	41.78
774.487	41.78
774.881	41.79
775.275	41.76
775.669	41.74
776.063	41.72
776.457	41.71
776.851	41.68
777.245	41.67
777.638	41.61
778.032	41.59
778.425	41.6
778.819	41.58
779.212	41.58
779.606	41.6
779.999	41.61
780.392	41.63
780.786	41.62
781.179	41.64
781.572	41.65
781.965	41.69
782.358	41.69
782.751	41.68
783.143	41.69
783.536	41.68
783.929	41.67
784.322	41.68
784.714	41.65
785.107	41.69
785.499	41.67
785.891	41.66
786.284	41.66
786.676	41.67
787.068	41.62
787.46	41.6
787.852	41.59
788.245	41.59
788.636	41.55
789.028	41.57
789.42	41.53
789.812	41.53
790.204	41.5
790.595	41.48
790.987	41.46
791.378	41.49
791.77	41.48
792.161	41.46
792.553	41.47
792.944	41.45
793.335	41.44
793.726	41.44
794.117	41.43
794.508	41.41
794.899	41.4
795.29	41.38
795.681	41.34
796.072	41.33
796.463	41.35
796.853	41.31
797.244	41.32
797.634	41.3
798.025	41.29
798.415	41.26
798.806	41.26
799.196	41.27
799.586	41.27
799.976	41.27
800.366	41.27
800.756	41.26
801.146	41.27
801.536	41.27
801.926	41.26
802.316	41.24
802.706	41.26
803.095	41.24
803.485	41.21
803.874	41.2
804.264	41.18
804.653	41.17
805.043	41.16
805.432	41.14
805.821	41.14
806.21	41.13
806.599	41.11
806.988	41.08
807.377	41.08
807.766	41.07
808.155	41.03
808.544	41.04
808.933	41.03
809.321	40.98
809.71	40.95
810.098	40.91
810.487	40.87
810.875	40.85
811.264	40.82
811.652	40.82
812.04	40.82
812.428	40.84
812.816	40.79
813.204	40.74
813.592	40.74
813.98	40.72
814.368	40.71
814.756	40.71
815.144	40.68
815.531	40.67
815.919	40.65
816.306	40.63
816.694	40.63
817.081	40.61
817.469	40.63
817.856	40.62
818.243	40.57
818.63	40.58
819.017	40.56
819.404	40.54
819.791	40.53
820.178	40.52
820.565	40.48
820.952	40.45
821.339	40.44
821.725	40.44
822.112	40.45
822.498	40.51
822.885	40.5
823.271	40.51
823.657	40.52
824.044	40.54
824.43	40.53
824.816	40.53
825.202	40.53
825.588	40.57
825.974	40.54
826.36	40.51
826.746	40.48
827.132	40.47
827.517	40.46
827.903	40.46
828.289	40.44
828.674	40.42
829.06	40.42
829.445	40.41
829.83	40.38
830.216	40.38
830.601	40.4
830.986	40.4
831.371	40.39
831.756	40.38
832.141	40.37
832.526	40.38
832.911	40.39
833.295	40.38
833.68	40.39
834.065	40.4
834.449	40.4
834.834	40.39
835.218	40.41
835.603	40.41
835.987	40.39
836.371	40.4
836.755	40.38
837.139	40.37
837.524	40.36
837.908	40.37
838.291	40.37
838.675	40.34
839.059	40.34
839.443	40.31
839.827	40.3
840.21	40.31
840.594	40.3
840.977	40.29
841.361	40.29
841.744	40.29
842.127	40.26
842.511	40.25
842.894	40.26
843.277	40.24
843.66	40.23
844.043	40.23
844.426	40.24
844.809	40.24
845.191	40.26
845.574	40.26
845.957	40.28
846.339	40.27
846.722	40.27
847.104	40.27
847.487	40.26
847.869	40.27
848.252	40.27
848.634	40.25
849.016	40.25
849.398	40.24
849.78	40.23
850.162	40.19
850.544	40.21
850.926	40.21
851.307	40.21
851.689	40.22
852.071	40.21
852.452	40.21
852.834	40.22
853.215	40.2
853.597	40.2
853.978	40.24
854.359	40.25
854.741	40.25
855.122	40.23
855.503	40.22
855.884	40.23
856.265	40.22
856.646	40.22
857.026	40.21
857.407	40.21
857.788	40.2
858.169	40.17
858.549	40.18
858.93	40.17
859.31	40.18
859.69	40.19
860.071	40.2
860.451	40.21
860.831	40.21
861.211	40.2
861.591	40.21
861.971	40.2
862.351	40.21
862.731	40.19
863.111	40.19
863.491	40.18
863.87	40.18
864.25	40.18
864.629	40.2
865.009	40.2
865.388	40.2
865.768	40.19
866.147	40.18
866.526	40.17
866.905	40.18
867.284	40.18
867.663	40.17
868.042	40.17
868.421	40.16
868.8	40.14
869.179	40.13
869.558	40.11
869.936	40.11
870.315	40.1
870.693	40.11
871.072	40.11
871.45	40.11
871.828	40.12
872.207	40.15
872.585	40.13
872.963	40.13
873.341	40.12
873.719	40.16
874.097	40.17
874.475	40.19
874.853	40.18
875.23	40.21
875.608	40.21
875.986	40.23
876.363	40.21
876.741	40.21
877.118	40.22
877.495	40.22
877.873	40.23
878.25	40.25
878.627	40.27
879.004	40.27
879.381	40.27
879.758	40.27
880.135	40.24
880.512	40.21
880.889	40.24
881.265	40.22
881.642	40.23
882.019	40.21
882.395	40.18
882.772	40.18
883.148	40.16
883.524	40.12
883.901	40.11
884.277	40.11
884.653	40.13
885.029	40.11
885.405	40.11
885.781	40.13
886.157	40.11
886.532	40.1
886.908	40.07
887.284	40.07
887.659	40.09
888.035	40.06
888.411	40.04
888.786	40.03
889.161	40.04
889.537	40.02
889.912	40
890.287	40
890.662	39.99
891.037	40.01
891.412	40.02
891.787	39.99
892.162	40
892.536	39.99
892.911	40
893.286	39.99
893.66	40
894.035	40.01
894.409	40
894.784	40.01
895.158	40
895.532	39.99
895.906	40.01
896.281	39.99
896.655	39.99
897.029	40
897.402	39.99
897.776	39.99
898.15	39.98
898.524	39.99
898.898	39.98
899.271	39.98
899.645	39.99
900.018	39.98
900.392	40.01
900.765	40.04
901.138	40.04
901.511	40.03
901.884	40.03
902.258	40.03
902.631	40.01
903.003	40.02
903.376	40.02
903.749	40.01
904.122	40.04
904.495	40.05
904.867	40.05
905.24	40.06
905.612	40.06
905.985	40.06
906.357	40.06
906.729	40.07
907.102	40.09
907.474	40.08
907.846	40.09
908.218	40.06
908.59	40.06
908.962	40.04
909.334	40.02
909.705	40.03
910.077	40.04
910.449	40.03
910.82	40.02
911.192	40.01
911.563	40
911.935	39.98
912.306	39.99
912.677	39.96
913.048	39.99
913.419	40.01
913.79	40
914.161	39.99
914.532	39.98
914.903	39.99
915.274	40
915.645	40.01
916.015	40.03
916.386	40.03
916.756	40.04
917.127	40.03
917.497	40.03
917.868	40.05
918.238	40.03
918.608	40.06
918.978	40.06
919.348	40.07
919.718	40.06
920.088	40.07
920.458	40.06
920.828	40.03
921.198	40
921.567	40
921.937	39.98
922.306	39.97
922.676	39.96
923.045	39.95
923.415	39.93
923.784	39.95
924.153	39.96
924.522	39.96
924.891	39.96
925.26	39.99
925.629	39.97
925.998	39.96
926.367	39.97
926.736	39.95
927.104	39.95
927.473	39.92
927.842	39.87
928.21	39.86
928.578	39.83
928.947	39.87
929.315	39.84
929.683	39.84
930.051	39.83
930.42	39.81
930.788	39.81
931.156	39.8
931.523	39.82
931.891	39.85
932.259	39.85
932.627	39.88
932.994	39.84
933.362	39.81
933.729	39.83
934.097	39.83
934.464	39.87
934.831	39.87
935.199	39.91
935.566	39.89
935.933	39.84
936.3	39.82
936.667	39.78
937.034	39.81
937.401	39.84
937.767	39.82
938.134	39.79
938.501	39.79
938.867	39.8
939.234	39.75
939.6	39.75
939.967	39.8
940.333	39.76
940.699	39.78
941.065	39.72
941.431	39.71
941.798	39.68
942.163	39.72
942.529	39.68
942.895	39.67
943.261	39.68
943.627	39.65
943.992	39.65
944.358	39.69
944.723	39.69
945.089	39.68
945.454	39.71
945.82	39.72
946.185	39.71
946.55	39.67
946.915	39.69
947.28	39.65
947.645	39.67
948.01	39.63
948.375	39.61
948.74	39.59
949.104	39.62
949.469	39.55
949.834	39.51
950.198	39.51
950.562	39.48
950.927	39.41
951.291	39.34
951.655	39.31
952.02	39.31
952.384	39.31
952.748	39.31
953.112	39.26
953.476	39.23
953.839	39.21
954.203	39.18
954.567	39.18
954.931	39.15
955.294	39.18
955.658	39.2
956.021	39.19
956.385	39.16
956.748	39.12
957.111	39.09
957.474	39.12
957.837	39.1
958.2	39.11
958.563	39.11
958.926	39.15
959.289	39.19
959.652	39.17
960.015	39.19
960.377	39.17
960.74	39.22
961.102	39.23
961.465	39.26
961.827	39.29
962.189	39.3
962.552	39.26
962.914	39.27
963.276	39.28
963.638	39.27
964	39.28
964.362	39.28
964.724	39.25
965.085	39.27
965.447	39.26
965.809	39.23
966.17	39.19
966.532	39.23
966.893	39.25
967.255	39.24
967.616	39.27
967.977	39.24
968.338	39.23
968.699	39.23
969.061	39.26
969.421	39.24
969.782	39.27
970.143	39.25
970.504	39.28
970.865	39.3
971.225	39.25
971.586	39.23
971.946	39.2
972.307	39.23
972.667	39.23
973.027	39.22
973.388	39.24
973.748	39.24
974.108	39.29
974.468	39.31
974.828	39.36
975.188	39.36
975.548	39.35
975.907	39.39
976.267	39.39
976.627	39.43
976.986	39.39
977.346	39.35
977.705	39.34
978.064	39.31
978.424	39.29
978.783	39.17
979.142	39.2
979.501	39.25
979.86	39.27
980.219	39.31
980.578	39.3
980.937	39.33
981.296	39.34
981.654	39.38
982.013	39.42
982.371	39.34
982.73	39.38
983.088	39.39
983.447	39.34
983.805	39.32
984.163	39.28
984.521	39.23
984.879	39.23
985.237	39.25
985.595	39.27
985.953	39.22
986.311	39.31
986.669	39.35
987.026	39.29
987.384	39.28
987.741	39.25
988.099	39.28
988.456	39.31
988.814	39.36
989.171	39.43
989.528	39.32
989.885	39.32
990.242	39.28
990.599	39.23
990.956	39.32
991.313	39.38
991.67	39.44
992.027	39.5
992.383	39.56
992.74	39.65
993.096	39.63
993.453	39.71
993.809	39.76
994.165	39.9
994.522	40.01
994.878	40.02
995.234	40.01
995.59	39.96
995.946	39.94
996.302	39.93
996.658	39.9
997.013	39.8
997.369	39.86
997.725	39.83
998.08	39.74
998.436	39.66
998.791	39.7
999.147	39.67
999.502	39.81
999.857	39.84
1000.212	39.81
1000.567	39.76
1000.922	39.84
1001.277	39.83
1001.632	39.83
1001.987	39.85
1002.342	39.83
1002.696	39.73
1003.051	39.82
1003.406	39.79
1003.76	39.77
1004.114	39.75
1004.469	39.7
1004.823	39.9
1005.177	39.8
1005.531	39.79
1005.885	39.86
1006.239	39.92
1006.593	40.09
1006.947	40.15
1007.301	40.07
1007.655	40.07
1008.008	40.15
1008.362	40.24
1008.715	40.03
1009.069	40.17
1009.422	40.3
1009.776	40.26
1010.129	40.29
1010.482	40.23
1010.835	40.21
1011.188	40.33
1011.541	40.33
1011.894	40.32
1012.247	40.28
1012.6	40.38
1012.952	40.4
1013.305	40.48
1013.657	40.55
1014.01	40.59
1014.362	40.44
1014.715	40.47
1015.067	40.53
1015.419	40.66
1015.771	40.69
1016.123	40.7
1016.475	40.68
1016.827	40.79
1017.179	40.89
1017.531	40.89
1017.883	40.97
1018.234	41.31
1018.586	41.35
1018.938	41.57
1019.289	41.41
1019.64	41.43
1019.992	41.56
1020.343	41.61
1020.694	41.52
1021.045	41.44
1021.396	41.41
1021.747	41.48
1022.098	41.62
1022.449	41.53
1022.8	41.54
1023.151	41.62
1023.501	41.81
1023.852	41.86
1024.202	41.81
1024.553	41.85
1024.903	41.97
1025.253	42.02
1025.604	42.12
1025.954	41.64
1026.304	41.77
1026.654	41.59
1027.004	41.71
1027.354	41.75
1027.703	41.75
1028.053	41.98
1028.403	41.94
1028.753	41.79
1029.102	42.13
1029.452	42.16
1029.801	42.67
1030.15	42.69
1030.499	42.75
897.758	1110.49
901.051	1128.05
904.343	1119.18
907.636	1139.63
910.928	1108.17
914.22	1109.75
917.511	1096.5
920.803	1045.64
924.094	1042.34
927.384	1017.08
930.675	975.46
933.965	971.29
937.255	910.49
940.544	877.12
943.834	836.53
947.123	831.64
950.411	782.79
953.7	768.05
956.988	731.31
960.276	705.17
963.563	691.87
966.851	669.2
970.138	663.63
973.424	643.1
976.711	646.2
979.997	614.81
983.283	610.71
986.568	598.61
989.853	582.2
993.138	570.74
996.423	547.34
999.708	533.36
1002.992	527.84
1006.275	505.21
1009.559	501.18
1012.842	484.51
1016.125	472.37
1019.408	463.82
1022.69	457.22
1025.972	447.66
1029.254	439.11
1032.536	432.5
1035.817	423.86
1039.098	419.08
1042.379	410.83
1045.659	405.71
1048.939	395.82
1052.219	388.59
1055.498	384.12
1058.778	375.6
1062.057	368.2
1065.335	363.59
1068.614	358.78
1071.892	355.96
1075.17	344.08
1078.447	338.37
1081.724	336.58
1085.001	335.33
1088.278	328.08
1091.554	322.07
1094.83	322.74
1098.106	319.44
1101.382	317.46
1104.657	315.96
1107.932	309.96
1111.206	312.91
1114.481	305.06
1117.755	302.14
1121.029	298.67
1124.302	298.5
1127.575	292.78
1130.848	289.65
1134.121	286.3
1137.393	284.44
1140.665	278.56
1143.937	277.83
1147.208	276.16
1150.48	275.29
1153.75	272.34
1157.021	269.05
1160.291	269.09
1163.561	266.39
1166.831	265.58
1170.101	264.47
1173.37	264.42
1176.639	265.46
1179.907	262.54
1183.176	259.23
1186.444	259.65
1189.711	259.04
1192.979	257.99
1196.246	256.82
1199.513	257.67
1202.78	256.45
1206.046	256.21
1209.312	253.4
1212.578	253.38
1215.843	256.15
1219.108	254.28
1222.373	258.8
1225.638	260.62
1228.902	264.24
1232.166	265.03
1235.43	266.71
1238.693	270.04
1241.956	271.1
1245.219	275.48
1248.482	275.84
1251.744	274.85
1255.006	275.2
1258.268	269.65
1261.529	267.02
1264.79	265.9
1268.051	263.48
1271.312	260.32
1274.572	257.7
1277.832	256.14
1281.092	251.35
1284.351	249.3
1287.61	249.26
1290.869	246.88
1294.128	244.73
1297.386	244.82
1300.644	241.15
1303.902	242.45
1307.159	241.92
1310.416	241.69
1313.673	240.75
1316.93	244.24
1320.186	243.64
1323.442	244.38
1326.697	247.39
1329.953	249.02
1333.208	249.35
1336.463	252.75
1339.717	252.54
1342.972	256.03
1346.226	257.39
1349.479	258.17
1352.733	258.84
1355.986	260.48
1359.238	259.94
1362.491	261.5
1365.743	263.15
1368.995	263.5
1372.247	263.22
1375.498	262.93
1378.749	263.18
1382	261.38
1385.251	261.94
1388.501	259.93
1391.751	260.25
1395	259.54
1398.25	257.24
1401.499	254.8
1404.748	254.34
1407.996	252.26
1411.244	251.02
1414.492	249.57
1417.74	246.48
1420.987	243.12
1424.234	242.57
1427.481	239.7
1430.728	239.25
1433.974	236.96
1437.22	234.85
1440.465	234.01
1443.711	231.05
1446.956	229.35
1450.201	227.06
1453.445	225.28
1456.689	224.41
1459.933	220.28
1463.177	218.83
1466.42	214.9
1469.663	213.02
1472.906	212.05
1476.148	207.58
1479.391	205.42
1482.633	204.19
1485.874	201
1489.115	199.41
1492.356	197.58
1495.597	197.83
1498.838	195.25
1502.078	194.94
1505.318	194.12
1508.557	194.05
1511.797	193.35
1515.036	192.67
1518.274	191.99
1521.513	191.3
1524.751	191.35
1527.989	190.22
1531.227	189.69
1534.464	189.43
1537.701	188.47
1540.938	188.19
1544.174	185.96
1547.41	186.15
1550.646	185.44
1553.882	185.82
1557.117	183.55
1560.352	182.72
1563.587	183.01
1566.821	181.67
1570.055	180.41
1573.289	179.6
1576.523	179.42
1579.756	178.56
1582.989	177.97
1586.222	177.36
1589.454	175.97
1592.686	177.49
1595.918	176.1
1599.15	175.38
1602.381	176
1605.612	175.82
1608.843	175.66
1612.073	175.88
1615.303	176.5
1618.533	176.1
1621.762	176.81
1624.992	177.37
1628.221	176.4
1631.449	176.83
1634.678	176.68
1637.906	177.26
1641.134	177.5
1644.361	177.5
1647.588	177.39
1650.815	176.99
1654.042	176.81
1657.269	177.44
1660.495	177.17
1663.72	177.41
1666.946	178.01
1670.171	178.39
1673.396	177.65
1676.621	177.89
1679.845	178.08
1683.069	178.02
1686.293	179.03
1689.517	179.9
1692.74	179.39
1695.963	180.03
1699.185	181.01
1702.408	181.17
1705.63	181.95
1708.852	182.74
1712.073	182.5
1715.294	183.01
1718.515	183.73
1721.736	183.29
1724.956	183.98
1728.176	184.03
1731.396	185.04
1734.616	184.23
1737.835	184.8
1741.054	183.5
1744.272	183.9
1747.491	185.33
1750.709	185.91
1753.927	185.9
1757.144	185.59
1760.361	185.22
1763.578	186.01
1766.795	185.64
1770.011	187.46
1773.227	187.11
1776.443	189.3
1779.658	189.7
1782.874	189.61
1786.089	189.75
1789.303	190.11
1792.518	191.94
1795.732	192.22
1798.945	193.51
1802.159	194.14
1805.372	194.21
1808.585	197.51
1811.797	197.75
1815.01	198.26
1818.222	199.61
1821.434	201.34
1824.645	201.93
1827.856	205.09
1831.067	206.65
1834.278	205.6
1837.488	207.09
1840.698	208.29
1843.908	206.42
1847.117	206.93
1850.326	207.6
1853.535	206.76
1856.744	209.11
1859.952	208.85
1863.16	207.09
1866.368	205.92
1869.575	207.43
1872.782	203.43
1875.989	201.68
1879.196	199.88
1882.402	198.81
1885.608	199.12
1888.814	198.96
1892.019	197.3
1895.224	196.33
1898.429	195.36
1901.634	194.86
1904.838	194.95
1908.042	196.94
1911.246	197.74
1914.449	199.4
1917.652	198.5
1920.855	198.47
1924.058	198.56
1927.26	197.5
1930.462	197.83
1933.664	199.82
1936.865	198.43
1940.066	197.76
1943.267	196.87
1946.467	196.01
1949.668	197.03
1952.868	199.3
1956.067	198.86
1959.267	199.25
1962.466	200.09
1965.665	199.16
1968.863	199.76
1972.061	202.96
1975.259	205.52
1978.457	206.44
1981.654	208.97
1984.852	210.05
1988.048	209.86
1991.245	211.52
1994.441	214.06
1997.637	214.99
2000.833	219.99
2004.028	222.65
2007.223	224.15
2010.418	225.26
2013.613	229.94
2016.807	232.64
2020.001	234.46
2023.194	238.67
2026.388	243.74
2029.581	249.09
2032.774	251.79
2035.966	256.17
2039.158	256.72
2042.35	262
2045.542	263.61
2048.733	267.66
2051.924	270.66
2055.115	275.58
2058.306	275.54
2061.496	278.63
2064.686	278.07
2067.875	283.37
2071.065	285.11
2074.254	283.8
2077.442	286.38
2080.631	288.76
2083.819	290.83
2087.007	291.42
2090.195	294.88
2093.382	296.94
2096.569	295.29
2099.756	300.2
2102.942	300.85
2106.128	302.47
2109.314	309.78
2112.5	308.65
2115.685	314.94
2118.87	315.67
2122.055	322.47
2125.239	323.47
2128.424	328.57
2131.608	331.27
2134.791	336.24
2137.974	337.18
2141.157	338.29
2144.34	338.56
2147.523	344.15
2150.705	341.83
2153.887	346.16
2157.068	346
2160.25	343.2
2163.431	343.99
2166.611	348.05
2169.792	352.7
2172.972	357.59
2176.152	360.46
2179.331	364.89
2182.511	370.11
2185.69	374.55
2188.868	379.92
2192.047	381.94
2195.225	393.08
2198.403	401.79
2201.58	408.07
2204.758	417.53
2207.935	425.26
2211.111	432.05
2214.288	437.47
2217.464	439
2220.64	445.37
2223.815	451.01
2226.991	468.54
2230.166	469.09
2233.34	476.94
2236.515	486.47
2239.689	484.69
2242.863	487.22
2246.036	500.53
2249.209	497.27
2252.382	505.66
2255.555	519.99
2258.727	522.05
2261.9	525.32
2265.071	530.48
2268.243	540.2
2271.414	544.27
2274.585	556.59
2277.756	563
2280.926	564.8
2284.096	579.79
2287.266	590.99
2290.436	594.88
2293.605	609.37
2296.774	624.4
2299.942	646.95
2303.111	650.36
2306.279	665.23
2309.447	673.51
2312.614	688.92
2315.781	712.37
2318.948	741.25
2322.115	731.57
2325.281	772.85
2328.447	756.26
2331.613	787.18
2334.779	776.58
2337.944	806.18
2341.109	813.62
2344.274	837.91
2347.438	866.53
2350.602	865.86
2353.766	890.9
2356.929	905.71
2360.092	898.28
2363.255	963.11
2366.418	960.97
2369.58	978.15
2372.742	1039.75
2375.904	1067.5
2379.066	1059.25
2382.227	1040.56
2385.388	1128.44
2388.548	1132.47
2391.709	1142.43
2394.869	1272.56
2398.029	1220.53
2401.188	1251.61
2404.347	1247.11
2407.506	1231.83
2410.665	1261.9
2413.823	1335.2
2416.981	1415.52
2420.139	1369.53
2423.296	1353.52
2426.453	1416.6
2429.61	1359.64
2432.767	1421.62
2435.923	1412.01
2439.079	1536.89
2442.235	1558.81
2445.391	1545.15
2448.546	1535.07
2451.701	1491.8
2454.855	1487.72
2458.009	1576.65
2461.163	1640.06
2464.317	1702.11
2467.471	1741.63
2470.624	1740.99
2473.777	1697.07
2476.929	1652.26
2480.082	1610.48
2483.234	1594.68
2486.385	1670.91
2489.537	1679.21
2492.688	1737.55
2495.839	1688.54
2498.989	1650.98
2502.14	1662.45
2505.29	1677.05
2508.439	1707.94
2511.589	1701.45
2514.738	1854.01
2517.887	1808.59
2521.035	1906.57
2524.183	1931.51
2527.331	1952.35
2530.479	1945.26
2533.627	1961.2
