Data from C_1_DEC_VA_2N_Splice17_12-41-39-448.txt Node
Date: Sat Mar 07 12:41:39 EST 2020
User: sa697716
Spectrometer: NQ5500242
Trigger mode: 0
Integration Time (sec): 1.450000E-1
Scans to average: 20
Nonlinearity correction enabled: false
Boxcar width: 5
Storing dark spectrum: false
XAxis mode: Wavelengths
Number of Pixels in Spectrum: 512
>>>>>Begin Spectral Data<<<<<
187.83	67.27
188.298	59.06
188.766	38.79
189.233	35.31
189.701	24.21
190.169	26.95
190.636	-6.8
191.104	-115.65
191.571	-239.49
192.039	-432.4
192.506	-1300.31
192.974	333.78
193.441	260.61
193.908	59.92
194.375	37.43
194.842	-62.32
195.31	-68.17
195.777	-295.27
196.244	11.54
196.711	32.8
197.177	36.07
197.644	36.56
198.111	37
198.578	37.85
199.045	38.81
199.511	38.89
199.978	39.51
200.445	39.45
200.911	39.57
201.378	39.72
201.844	39.8
202.31	39.84
202.777	40.12
203.243	40.28
203.709	40.12
204.176	39.73
204.642	39.62
205.108	39.22
205.574	39.15
206.04	38.86
206.506	38.65
206.972	38.7
207.438	38.38
207.903	37.79
208.369	37.34
208.835	36.74
209.301	35.88
209.766	35.06
210.232	34.29
210.697	33.54
211.163	32.74
211.628	32.06
212.094	30.95
212.559	30.18
213.024	29.53
213.49	28.82
213.955	28.09
214.42	27.89
214.885	27.25
215.35	26.5
215.815	25.25
216.28	23.86
216.745	22.08
217.21	20.66
217.675	19.21
218.14	18.01
218.604	16.86
219.069	15.98
219.534	15.16
219.998	14.45
220.463	13.91
220.927	13.4
221.392	13.01
221.856	12.74
222.32	12.47
222.785	12.22
223.249	11.96
223.713	11.77
224.177	11.58
224.642	11.37
225.106	11.19
225.57	10.98
226.034	10.85
226.497	10.68
226.961	10.5
227.425	10.32
227.889	10.15
228.353	10.02
228.816	9.85
229.28	9.72
229.744	9.58
230.207	9.44
230.671	9.31
231.134	9.18
231.597	9.08
232.061	8.96
232.524	8.85
232.987	8.76
233.45	8.66
233.914	8.56
234.377	8.45
234.84	8.36
235.303	8.29
235.766	8.21
236.229	8.12
236.691	8.03
237.154	7.96
237.617	7.89
238.08	7.81
238.542	7.73
239.005	7.66
239.468	7.59
239.93	7.53
240.393	7.45
240.855	7.37
241.317	7.3
241.78	7.23
242.242	7.14
242.704	7.07
243.166	7
243.629	6.94
244.091	6.88
244.553	6.82
245.015	6.75
245.477	6.69
245.939	6.64
246.4	6.57
246.862	6.52
247.324	6.48
247.786	6.43
248.247	6.37
248.709	6.31
249.17	6.24
249.632	6.19
250.093	6.15
250.555	6.1
251.016	6.06
251.477	6.02
251.939	5.98
252.4	5.94
252.861	5.89
253.322	5.86
253.783	5.83
254.244	5.8
254.705	5.76
255.166	5.72
255.627	5.69
256.088	5.65
256.549	5.62
257.009	5.59
257.47	5.55
257.931	5.52
258.391	5.47
258.852	5.43
259.312	5.4
259.773	5.37
260.233	5.35
260.694	5.31
261.154	5.27
261.614	5.24
262.074	5.21
262.534	5.18
262.994	5.16
263.455	5.14
263.915	5.12
264.374	5.1
264.834	5.08
265.294	5.05
265.754	5.03
266.214	5.02
266.673	5.01
267.133	4.99
267.593	4.99
268.052	4.97
268.512	4.96
268.971	4.94
269.431	4.93
269.89	4.91
270.349	4.91
270.809	4.89
271.268	4.88
271.727	4.86
272.186	4.85
272.645	4.84
273.104	4.82
273.563	4.8
274.022	4.79
274.481	4.78
274.94	4.77
275.399	4.76
275.857	4.75
276.316	4.73
276.775	4.72
277.233	4.71
277.692	4.7
278.15	4.69
278.609	4.69
279.067	4.68
279.525	4.66
279.984	4.65
280.442	4.64
280.9	4.63
281.358	4.61
281.816	4.6
282.274	4.6
282.732	4.58
283.19	4.57
283.648	4.55
284.106	4.54
284.564	4.53
285.021	4.52
285.479	4.51
285.937	4.5
286.394	4.49
286.852	4.48
287.309	4.46
287.767	4.45
288.224	4.44
288.682	4.42
289.139	4.4
289.596	4.38
290.053	4.36
290.511	4.34
290.968	4.32
291.425	4.31
291.882	4.3
292.339	4.28
292.796	4.27
293.252	4.26
293.709	4.24
294.166	4.23
294.623	4.22
295.079	4.22
295.536	4.21
295.992	4.2
296.449	4.19
296.905	4.18
297.362	4.17
297.818	4.16
298.274	4.15
298.731	4.15
299.187	4.14
299.643	4.12
300.099	4.12
300.555	4.1
301.011	4.09
301.467	4.09
301.923	4.08
302.379	4.07
302.835	4.07
303.291	4.07
303.746	4.05
304.202	4.05
304.658	4.04
305.113	4.04
305.569	4.04
306.024	4.03
306.479	4.02
306.935	4.01
307.39	4.01
307.845	4
308.301	4.01
308.756	4.01
309.211	4.01
309.666	4.02
310.121	4.02
310.576	4.01
311.031	4.01
311.486	4.02
311.94	4.02
312.395	4.02
312.85	4.02
313.305	4.01
313.759	4.01
314.214	4
314.668	3.98
315.123	3.97
315.577	3.97
316.032	3.96
316.486	3.95
316.94	3.94
317.394	3.93
317.849	3.92
318.303	3.91
318.757	3.89
319.211	3.88
319.665	3.87
320.119	3.85
320.572	3.84
321.026	3.83
321.48	3.82
321.934	3.81
322.387	3.8
322.841	3.78
323.295	3.77
323.748	3.77
324.202	3.76
324.655	3.76
325.108	3.77
325.562	3.76
326.015	3.76
326.468	3.76
326.921	3.75
327.374	3.74
327.827	3.75
328.28	3.75
328.733	3.74
329.186	3.74
329.639	3.74
330.092	3.74
330.545	3.73
330.997	3.72
331.45	3.72
331.903	3.72
332.355	3.73
332.808	3.72
333.26	3.72
333.713	3.72
334.165	3.71
334.617	3.72
335.069	3.71
335.522	3.72
335.974	3.73
336.426	3.74
336.878	3.73
337.33	3.73
337.782	3.73
338.234	3.73
338.686	3.73
339.137	3.74
339.589	3.72
340.041	3.72
340.493	3.7
340.944	3.68
341.396	3.66
341.847	3.65
342.299	3.63
342.75	3.62
343.201	3.6
343.653	3.58
344.104	3.56
344.555	3.54
345.006	3.53
345.457	3.53
345.908	3.52
346.359	3.52
346.81	3.52
347.261	3.51
347.712	3.5
348.163	3.5
348.613	3.51
349.064	3.51
349.515	3.51
349.965	3.52
350.416	3.52
350.866	3.51
351.317	3.5
351.767	3.5
352.217	3.5
352.668	3.5
353.118	3.5
353.568	3.49
354.018	3.49
354.468	3.49
354.918	3.48
355.368	3.48
355.818	3.49
356.268	3.49
356.718	3.49
357.168	3.48
357.617	3.48
358.067	3.47
358.517	3.48
358.966	3.48
359.416	3.48
359.865	3.48
360.315	3.48
360.764	3.48
361.213	3.48
361.663	3.47
362.112	3.49
362.561	3.49
363.01	3.49
363.459	3.48
363.908	3.47
364.357	3.48
364.806	3.47
365.255	3.46
365.703	3.47
366.152	3.48
366.601	3.48
367.05	3.48
367.498	3.47
367.947	3.48
368.395	3.49
368.844	3.5
369.292	3.49
369.74	3.5
370.189	3.5
370.637	3.5
371.085	3.49
371.533	3.49
371.981	3.5
372.429	3.51
372.877	3.52
373.325	3.51
373.773	3.51
374.221	3.51
374.669	3.51
375.116	3.5
375.564	3.51
376.012	3.52
376.459	3.53
376.907	3.54
377.354	3.55
377.801	3.56
378.249	3.58
378.696	3.58
379.143	3.6
379.591	3.62
380.038	3.65
380.485	3.66
380.932	3.67
381.379	3.69
381.826	3.7
382.273	3.71
382.72	3.72
383.166	3.74
383.613	3.76
384.06	3.76
384.506	3.78
384.953	3.8
385.4	3.83
385.846	3.85
386.292	3.88
386.739	3.9
387.185	3.93
387.631	3.96
388.078	3.99
388.524	4.02
388.97	4.06
389.416	4.09
389.862	4.13
390.308	4.16
390.754	4.2
391.2	4.23
391.645	4.25
392.091	4.28
392.537	4.32
392.983	4.34
393.428	4.36
393.874	4.4
394.319	4.42
394.765	4.44
395.21	4.45
395.655	4.48
396.101	4.51
396.546	4.54
396.991	4.57
397.436	4.6
397.881	4.64
398.326	4.67
398.771	4.7
399.216	4.72
399.661	4.77
400.106	4.79
400.551	4.8
400.995	4.81
401.44	4.83
401.885	4.85
402.329	4.86
402.774	4.88
403.218	4.9
403.663	4.91
404.107	4.92
404.551	4.93
404.995	4.95
405.44	4.95
405.884	4.97
406.328	4.99
406.772	4.99
407.216	4.99
407.66	4.98
408.104	4.97
408.547	4.97
408.991	4.98
409.435	4.99
409.879	4.98
410.322	4.99
410.766	5
411.209	5.01
411.653	5.02
412.096	5.02
412.54	5.03
412.983	5.04
413.426	5.06
413.869	5.06
414.312	5.06
414.756	5.07
415.199	5.08
415.642	5.08
416.085	5.08
416.527	5.07
416.97	5.06
417.413	5.05
417.856	5.05
418.298	5.04
418.741	5.04
419.184	5.04
419.626	5.03
420.069	5.03
420.511	5.03
420.953	5.02
421.396	5.04
421.838	5.03
422.28	5.04
422.722	5.05
423.164	5.06
423.606	5.04
424.048	5.05
424.49	5.03
424.932	5.01
425.374	4.99
425.816	4.98
426.258	4.95
426.699	4.94
427.141	4.92
427.582	4.91
428.024	4.9
428.465	4.91
428.907	4.9
429.348	4.89
429.789	4.9
430.231	4.91
430.672	4.92
431.113	4.95
431.554	4.97
431.995	4.98
432.436	4.98
432.877	4.99
433.318	5.02
433.759	5.03
434.2	5.07
434.64	5.1
435.081	5.11
435.522	5.13
435.962	5.14
436.403	5.16
436.843	5.18
437.284	5.19
437.724	5.2
438.164	5.19
438.604	5.21
439.045	5.21
439.485	5.2
439.925	5.19
440.365	5.21
440.805	5.22
441.245	5.23
441.685	5.26
442.125	5.3
442.564	5.34
443.004	5.35
443.444	5.39
443.883	5.42
444.323	5.45
444.762	5.49
445.202	5.5
445.641	5.54
446.081	5.58
446.52	5.6
446.959	5.64
447.398	5.65
447.837	5.69
448.276	5.71
448.716	5.73
449.154	5.78
449.593	5.81
450.032	5.84
450.471	5.85
450.91	5.86
451.349	5.88
451.787	5.9
452.226	5.9
452.664	5.92
453.103	5.93
453.541	5.94
453.98	5.96
454.418	5.95
454.856	5.95
455.295	5.95
455.733	5.93
456.171	5.92
456.609	5.91
457.047	5.91
457.485	5.89
457.923	5.88
458.361	5.87
458.798	5.84
459.236	5.83
459.674	5.82
460.111	5.81
460.549	5.82
460.987	5.82
461.424	5.82
461.862	5.81
462.299	5.81
462.736	5.81
463.173	5.82
463.611	5.82
464.048	5.84
464.485	5.85
464.922	5.85
465.359	5.85
465.796	5.86
466.233	5.87
466.67	5.88
467.106	5.88
467.543	5.89
467.98	5.89
468.416	5.89
468.853	5.89
469.29	5.88
469.726	5.89
470.162	5.89
470.599	5.89
471.035	5.89
471.471	5.88
471.907	5.89
472.344	5.89
472.78	5.89
473.216	5.89
473.652	5.89
474.088	5.88
474.523	5.88
474.959	5.87
475.395	5.87
475.831	5.87
476.266	5.88
476.702	5.87
477.138	5.87
477.573	5.88
478.008	5.89
478.444	5.88
478.879	5.9
479.314	5.89
479.75	5.9
480.185	5.89
480.62	5.88
481.055	5.87
481.49	5.87
481.925	5.87
482.36	5.88
482.795	5.88
483.229	5.88
483.664	5.89
484.099	5.9
484.534	5.91
484.968	5.94
485.403	5.96
485.837	5.99
486.271	6.01
486.706	6.02
487.14	6.05
487.574	6.08
488.009	6.12
488.443	6.16
488.877	6.19
489.311	6.23
489.745	6.27
490.179	6.32
490.613	6.38
491.046	6.43
491.48	6.49
491.914	6.55
492.348	6.62
492.781	6.69
493.215	6.77
493.648	6.85
494.082	6.94
494.515	7.02
494.948	7.11
495.382	7.2
495.815	7.31
496.248	7.41
496.681	7.53
497.114	7.64
497.547	7.75
497.98	7.88
498.413	8
498.846	8.14
499.279	8.28
499.711	8.43
500.144	8.59
500.577	8.75
501.009	8.92
501.442	9.1
501.874	9.29
502.306	9.49
502.739	9.69
503.171	9.91
503.603	10.12
504.036	10.35
504.468	10.58
504.9	10.82
505.332	11.06
505.764	11.32
506.196	11.57
506.627	11.82
507.059	12.1
507.491	12.38
507.923	12.67
508.354	12.98
508.786	13.28
509.217	13.6
509.649	13.92
510.08	14.24
510.512	14.58
510.943	14.92
511.374	15.27
511.805	15.61
512.237	15.95
512.668	16.31
513.099	16.66
513.53	17.02
513.961	17.38
514.391	17.75
514.822	18.14
515.253	18.51
515.684	18.88
516.114	19.27
516.545	19.66
516.975	20.06
517.406	20.44
517.836	20.81
518.267	21.2
518.697	21.58
519.127	21.95
519.558	22.33
519.988	22.69
520.418	23.04
520.848	23.38
521.278	23.72
521.708	24.16
522.138	24.49
522.567	24.82
522.997	25.11
523.427	25.43
523.857	25.71
524.286	25.98
524.716	26.25
525.145	26.53
525.575	26.8
526.004	27.06
526.433	27.18
526.863	27.4
527.292	27.63
527.721	27.84
528.15	28.02
528.579	28.22
529.008	28.42
529.437	28.59
529.866	28.74
530.295	28.89
530.724	29.04
531.152	29.19
531.581	29.35
532.01	29.48
532.438	29.6
532.867	29.73
533.295	29.82
533.723	29.92
534.152	30.01
534.58	30.11
535.008	30.17
535.436	30.26
535.865	30.34
536.293	30.4
536.721	30.46
537.149	30.53
537.576	30.58
538.004	30.67
538.432	30.73
538.86	30.8
539.287	30.85
539.715	30.91
540.143	30.96
540.57	31
540.998	31.02
541.425	31.06
541.852	31.1
542.28	31.15
542.707	31.16
543.134	31.19
543.561	31.22
543.988	31.26
544.415	31.27
544.842	31.28
545.269	31.32
545.696	31.36
546.123	31.37
546.549	31.4
546.976	31.42
547.403	31.44
547.829	31.46
548.256	31.46
548.682	31.48
549.108	31.51
549.535	31.54
549.961	31.53
550.387	31.54
550.813	31.55
551.24	31.53
551.666	31.51
552.092	31.52
552.518	31.5
552.943	31.48
553.369	31.46
553.795	31.42
554.221	31.37
554.646	31.33
555.072	31.28
555.498	31.21
555.923	31.17
556.349	31.08
556.774	31.01
557.199	30.93
557.625	30.85
558.05	30.77
558.475	30.69
558.9	30.6
559.325	30.52
559.75	30.41
560.175	30.3
560.6	30.18
561.025	30.08
561.449	29.96
561.874	29.83
562.299	29.7
562.723	29.54
563.148	29.39
563.572	29.23
563.997	29.07
564.421	28.91
564.846	28.76
565.27	28.59
565.694	28.43
566.118	28.24
566.542	28.08
566.966	27.9
567.39	27.73
567.814	27.54
568.238	27.36
568.662	27.18
569.086	27.03
569.509	26.86
569.933	26.69
570.357	26.5
570.78	26.34
571.204	26.17
571.627	26
572.05	25.84
572.474	25.69
572.897	25.54
573.32	25.37
573.743	25.21
574.166	25.04
574.589	24.88
575.012	24.73
575.435	24.59
575.858	24.44
576.281	24.3
576.704	24.16
577.126	24.04
577.549	23.89
577.972	23.77
578.394	23.64
578.817	23.52
579.239	23.41
579.661	23.3
580.084	23.18
580.506	23.07
580.928	22.96
581.35	22.86
581.772	22.73
582.194	22.63
582.616	22.54
583.038	22.43
583.46	22.33
583.882	22.22
584.303	22.11
584.725	22.02
585.147	21.93
585.568	21.84
585.99	21.75
586.411	21.67
586.833	21.58
587.254	21.49
587.675	21.42
588.096	21.34
588.518	21.27
588.939	21.22
589.36	21.15
589.781	21.09
590.202	21.02
590.623	20.96
591.043	20.89
591.464	20.85
591.885	20.79
592.305	20.72
592.726	20.68
593.147	20.65
593.567	20.58
593.987	20.53
594.408	20.48
594.828	20.43
595.248	20.37
595.669	20.34
596.089	20.3
596.509	20.26
596.929	20.22
597.349	20.17
597.769	20.13
598.189	20.08
598.608	20.03
599.028	19.98
599.448	19.94
599.867	19.89
600.287	19.83
600.706	19.78
601.126	19.73
601.545	19.68
601.965	19.63
602.384	19.56
602.803	19.5
603.222	19.45
603.641	19.38
604.061	19.33
604.48	19.25
604.898	19.17
605.317	19.08
605.736	18.98
606.155	18.89
606.574	18.8
606.992	18.71
607.411	18.62
607.829	18.49
608.248	18.39
608.666	18.27
609.085	18.17
609.503	18.08
609.921	17.98
610.339	17.89
610.758	17.81
611.176	17.69
611.594	17.6
612.012	17.5
612.43	17.41
612.847	17.32
613.265	17.24
613.683	17.15
614.101	17.06
614.518	16.95
614.936	16.85
615.353	16.75
615.771	16.68
616.188	16.59
616.606	16.5
617.023	16.43
617.44	16.37
617.857	16.28
618.274	16.21
618.691	16.14
619.108	16.08
619.525	16.03
619.942	15.99
620.359	15.92
620.776	15.87
621.192	15.83
621.609	15.79
622.026	15.74
622.442	15.72
622.859	15.69
623.275	15.66
623.691	15.63
624.108	15.61
624.524	15.58
624.94	15.57
625.356	15.55
625.772	15.53
626.188	15.52
626.604	15.51
627.02	15.5
627.436	15.49
627.852	15.48
628.268	15.46
628.683	15.44
629.099	15.42
629.514	15.39
629.93	15.37
630.345	15.33
630.761	15.28
631.176	15.23
631.591	15.16
632.007	15.09
632.422	15.02
632.837	14.95
633.252	14.86
633.667	14.77
634.082	14.66
634.497	14.55
634.911	14.43
635.326	14.3
635.741	14.17
636.155	14.04
636.57	13.9
636.984	13.76
637.399	13.61
637.813	13.46
638.228	13.29
638.642	13.12
639.056	12.94
639.47	12.79
639.884	12.62
640.298	12.46
640.712	12.28
641.126	12.11
641.54	11.91
641.954	11.74
642.368	11.56
642.781	11.4
643.195	11.25
643.609	11.09
644.022	10.94
644.436	10.8
644.849	10.64
645.262	10.5
645.676	10.37
646.089	10.27
646.502	10.16
646.915	10.06
647.328	9.95
647.741	9.86
648.154	9.77
648.567	9.69
648.98	9.62
649.393	9.56
649.805	9.5
650.218	9.43
650.631	9.38
651.043	9.33
651.456	9.27
651.868	9.21
652.28	9.17
652.693	9.11
653.105	9.05
653.517	8.98
653.929	8.92
654.341	8.86
654.753	8.78
655.165	8.7
655.577	8.61
655.989	8.51
656.401	8.41
656.813	8.33
657.224	8.22
657.636	8.1
658.047	8
658.459	7.88
658.87	7.75
659.282	7.63
659.693	7.51
660.104	7.39
660.515	7.28
660.926	7.17
661.338	7.04
661.749	6.93
662.159	6.82
662.57	6.72
662.981	6.63
663.392	6.54
663.803	6.46
664.213	6.37
664.624	6.29
665.035	6.2
665.445	6.14
665.855	6.07
666.266	6.02
666.676	5.98
667.086	5.92
667.497	5.87
667.907	5.83
668.317	5.8
668.727	5.77
669.137	5.75
669.547	5.73
669.956	5.72
670.366	5.71
670.776	5.69
671.186	5.68
671.595	5.67
672.005	5.67
672.414	5.67
672.824	5.67
673.233	5.68
673.642	5.69
674.052	5.7
674.461	5.71
674.87	5.72
675.279	5.75
675.688	5.78
676.097	5.82
676.506	5.86
676.915	5.9
677.323	5.95
677.732	6
678.141	6.06
678.549	6.13
678.958	6.2
679.366	6.29
679.775	6.37
680.183	6.47
680.592	6.59
681	6.72
681.408	6.84
681.816	6.99
682.224	7.16
682.632	7.34
683.04	7.55
683.448	7.77
683.856	8.01
684.264	8.28
684.671	8.58
685.079	8.89
685.487	9.24
685.894	9.65
686.302	10.06
686.709	10.52
687.116	11
687.524	11.52
687.931	12.06
688.338	12.64
688.745	13.24
689.152	13.85
689.559	14.51
689.966	15.18
690.373	15.86
690.78	16.58
691.187	17.29
691.593	18.02
692	18.77
692.407	19.51
692.813	20.25
693.22	20.99
693.626	21.75
694.032	22.5
694.439	23.25
694.845	24
695.251	24.74
695.657	25.47
696.063	26.2
696.469	26.93
696.875	27.64
697.281	28.35
697.687	29.06
698.093	29.73
698.498	30.37
698.904	31.02
699.31	31.64
699.715	32.25
700.12	32.86
700.526	33.44
700.931	34.01
701.337	34.58
701.742	35.13
702.147	35.64
702.552	36.17
702.957	36.67
703.362	37.15
703.767	37.63
704.172	38.1
704.577	38.57
704.981	39.01
705.386	39.44
705.791	39.86
706.195	40.26
706.6	40.67
707.004	41.06
707.408	41.47
707.813	41.87
708.217	42.23
708.621	42.62
709.025	42.94
709.43	43.26
709.834	43.63
710.237	43.97
710.641	44.29
711.045	44.64
711.449	44.96
711.853	45.28
712.256	45.56
712.66	45.86
713.064	46.13
713.467	46.42
713.87	46.74
714.274	46.99
714.677	47.27
715.08	47.53
715.484	47.75
715.887	48.01
716.29	48.24
716.693	48.5
717.096	48.75
717.499	48.99
717.901	49.21
718.304	49.41
718.707	49.6
719.109	49.82
719.512	50.02
719.915	50.21
720.317	50.39
720.719	50.54
721.122	50.72
721.524	50.87
721.926	51.03
722.328	51.22
722.731	51.41
723.133	51.57
723.535	51.7
723.937	51.89
724.338	52.05
724.74	52.19
725.142	52.39
725.544	52.51
725.945	52.66
726.347	52.77
726.748	52.84
727.15	52.92
727.551	53.02
727.952	53.11
728.354	53.18
728.755	53.27
729.156	53.35
729.557	53.38
729.958	53.46
730.359	53.54
730.76	53.63
731.161	53.73
731.562	53.83
731.962	53.88
732.363	53.95
732.763	54.02
733.164	54.07
733.564	54.13
733.965	54.17
734.365	54.25
734.766	54.3
735.166	54.34
735.566	54.38
735.966	54.43
736.366	54.5
736.766	54.54
737.166	54.58
737.566	54.63
737.966	54.68
738.365	54.76
738.765	54.79
739.165	54.8
739.564	54.87
739.964	54.9
740.363	54.91
740.763	54.96
741.162	54.99
741.561	55
741.96	55
742.36	55.01
742.759	55.02
743.158	55.02
743.557	55.02
743.955	55.03
744.354	55.05
744.753	55.07
745.152	55.08
745.55	55.11
745.949	55.16
746.348	55.22
746.746	55.24
747.144	55.29
747.543	55.3
747.941	55.34
748.339	55.31
748.737	55.32
749.136	55.31
749.534	55.29
749.932	55.25
750.33	55.25
750.727	55.26
751.125	55.24
751.523	55.22
751.921	55.23
752.318	55.23
752.716	55.26
753.113	55.25
753.511	55.27
753.908	55.3
754.305	55.33
754.703	55.32
755.1	55.3
755.497	55.31
755.894	55.32
756.291	55.34
756.688	55.34
757.085	55.36
757.482	55.36
757.878	55.35
758.275	55.34
758.672	55.35
759.068	55.37
759.465	55.35
759.861	55.36
760.258	55.34
760.654	55.33
761.05	55.32
761.447	55.31
761.843	55.31
762.239	55.31
762.635	55.29
763.031	55.27
763.427	55.21
763.822	55.23
764.218	55.23
764.614	55.23
765.01	55.19
765.405	55.15
765.801	55.11
766.196	55.09
766.592	55.07
766.987	55.09
767.382	55.06
767.778	55.06
768.173	55.05
768.568	55.04
768.963	55.02
769.358	55.01
769.753	55.04
770.148	55.06
770.542	55.07
770.937	55.1
771.332	55.07
771.726	55.1
772.121	55.11
772.515	55.13
772.91	55.1
773.304	55.12
773.699	55.15
774.093	55.14
774.487	55.14
774.881	55.14
775.275	55.12
775.669	55.13
776.063	55.13
776.457	55.16
776.851	55.13
777.245	55.12
777.638	55.11
778.032	55.09
778.425	55.1
778.819	55.1
779.212	55.1
779.606	55.12
779.999	55.1
780.392	55.1
780.786	55.09
781.179	55.09
781.572	55.11
781.965	55.13
782.358	55.15
782.751	55.14
783.143	55.15
783.536	55.15
783.929	55.12
784.322	55.13
784.714	55.13
785.107	55.16
785.499	55.18
785.891	55.17
786.284	55.2
786.676	55.2
787.068	55.19
787.46	55.18
787.852	55.16
788.245	55.18
788.636	55.18
789.028	55.18
789.42	55.13
789.812	55.16
790.204	55.18
790.595	55.15
790.987	55.12
791.378	55.15
791.77	55.17
792.161	55.17
792.553	55.17
792.944	55.15
793.335	55.15
793.726	55.17
794.117	55.12
794.508	55.11
794.899	55.11
795.29	55.13
795.681	55.07
796.072	55.04
796.463	55.06
796.853	55.03
797.244	55.02
797.634	54.99
798.025	54.99
798.415	55
798.806	54.98
799.196	54.95
799.586	54.93
799.976	54.98
800.366	54.99
800.756	54.99
801.146	55.02
801.536	55.05
801.926	55.07
802.316	55.06
802.706	55.09
803.095	55.1
803.485	55.13
803.874	55.13
804.264	55.13
804.653	55.12
805.043	55.12
805.432	55.11
805.821	55.11
806.21	55.12
806.599	55.15
806.988	55.1
807.377	55.1
807.766	55.09
808.155	55.04
808.544	55.03
808.933	55.02
809.321	54.98
809.71	55.02
810.098	55
810.487	54.99
810.875	54.98
811.264	55.01
811.652	55
812.04	55.01
812.428	55.06
812.816	55.08
813.204	55.07
813.592	55.08
813.98	55.04
814.368	55.02
814.756	55
815.144	54.97
815.531	54.96
815.919	54.98
816.306	54.97
816.694	54.96
817.081	54.94
817.469	54.94
817.856	54.95
818.243	54.95
818.63	54.95
819.017	54.99
819.404	55.01
819.791	54.99
820.178	54.98
820.565	54.96
820.952	54.96
821.339	54.94
821.725	54.97
822.112	54.97
822.498	55.01
822.885	55.05
823.271	54.99
823.657	54.98
824.044	54.98
824.43	55
824.816	55.01
825.202	54.99
825.588	54.99
825.974	55.01
826.36	55
826.746	54.98
827.132	54.95
827.517	54.99
827.903	55.02
828.289	55.04
828.674	55.02
829.06	55.02
829.445	55.02
829.83	55.02
830.216	54.99
830.601	54.99
830.986	54.99
831.371	54.99
831.756	55
832.141	54.96
832.526	54.97
832.911	54.98
833.295	54.99
833.68	55.02
834.065	55.03
834.449	55.03
834.834	55
835.218	54.99
835.603	55
835.987	54.98
836.371	55
836.755	54.96
837.139	54.95
837.524	54.96
837.908	54.95
838.291	54.96
838.675	54.97
839.059	54.99
839.443	54.98
839.827	54.98
840.21	54.98
840.594	54.96
840.977	54.96
841.361	54.96
841.744	54.93
842.127	54.93
842.511	54.9
842.894	54.91
843.277	54.9
843.66	54.89
844.043	54.9
844.426	54.9
844.809	54.91
845.191	54.93
845.574	54.93
845.957	54.96
846.339	54.95
846.722	54.97
847.104	54.99
847.487	54.98
847.869	54.99
848.252	54.97
848.634	54.99
849.016	55
849.398	55.02
849.78	55.03
850.162	55.01
850.544	55.01
850.926	55
851.307	54.98
851.689	54.99
852.071	55.01
852.452	55
852.834	54.99
853.215	54.96
853.597	54.95
853.978	54.94
854.359	54.93
854.741	54.95
855.122	54.95
855.503	54.95
855.884	54.92
856.265	54.92
856.646	54.91
857.026	54.92
857.407	54.96
857.788	54.96
858.169	54.99
858.549	55
858.93	55
859.31	55
859.69	55.01
860.071	55.05
860.451	55.05
860.831	55.06
861.211	55.03
861.591	55.01
861.971	55.01
862.351	55.01
862.731	55.03
863.111	54.99
863.491	54.99
863.87	55
864.25	54.97
864.629	54.95
865.009	54.96
865.388	54.97
865.768	54.96
866.147	54.94
866.526	54.92
866.905	54.9
867.284	54.92
867.663	54.91
868.042	54.91
868.421	54.92
868.8	54.94
869.179	54.93
869.558	54.94
869.936	54.95
870.315	54.94
870.693	54.94
871.072	54.95
871.45	54.95
871.828	54.94
872.207	54.93
872.585	54.91
872.963	54.89
873.341	54.88
873.719	54.88
874.097	54.88
874.475	54.88
874.853	54.88
875.23	54.9
875.608	54.92
875.986	54.97
876.363	54.99
876.741	55.01
877.118	55.04
877.495	55.07
877.873	55.1
878.25	55.11
878.627	55.13
879.004	55.16
879.381	55.14
879.758	55.1
880.135	55.07
880.512	55.06
880.889	55.07
881.265	55.05
881.642	55.06
882.019	55.03
882.395	55.01
882.772	55
883.148	54.97
883.524	54.96
883.901	54.97
884.277	54.95
884.653	54.92
885.029	54.91
885.405	54.88
885.781	54.85
886.157	54.83
886.532	54.86
886.908	54.84
887.284	54.83
887.659	54.82
888.035	54.83
888.411	54.84
888.786	54.84
889.161	54.85
889.537	54.86
889.912	54.87
890.287	54.89
890.662	54.87
891.037	54.89
891.412	54.88
891.787	54.88
892.162	54.89
892.536	54.89
892.911	54.87
893.286	54.87
893.66	54.9
894.035	54.89
894.409	54.88
894.784	54.87
895.158	54.86
895.532	54.88
895.906	54.86
896.281	54.84
896.655	54.82
897.029	54.83
897.402	54.8
897.776	54.8
898.15	54.8
898.524	54.81
898.898	54.8
899.271	54.81
899.645	54.82
900.018	54.85
900.392	54.89
900.765	54.91
901.138	54.91
901.511	54.92
901.884	54.9
902.258	54.94
902.631	54.94
903.003	54.95
903.376	54.96
903.749	54.96
904.122	54.95
904.495	54.96
904.867	54.99
905.24	55.04
905.612	55.07
905.985	55.07
906.357	55.05
906.729	55.07
907.102	55.08
907.474	55.06
907.846	55.06
908.218	55.04
908.59	55.01
908.962	54.99
909.334	54.97
909.705	54.93
910.077	54.94
910.449	54.92
910.82	54.9
911.192	54.88
911.563	54.88
911.935	54.85
912.306	54.87
912.677	54.9
913.048	54.89
913.419	54.88
913.79	54.89
914.161	54.89
914.532	54.87
914.903	54.85
915.274	54.85
915.645	54.87
916.015	54.89
916.386	54.9
916.756	54.88
917.127	54.89
917.497	54.89
917.868	54.86
918.238	54.84
918.608	54.86
918.978	54.87
919.348	54.91
919.718	54.91
920.088	54.92
920.458	54.91
920.828	54.89
921.198	54.88
921.567	54.92
921.937	54.97
922.306	54.97
922.676	54.97
923.045	54.95
923.415	54.91
923.784	54.86
924.153	54.85
924.522	54.85
924.891	54.86
925.26	54.83
925.629	54.83
925.998	54.79
926.367	54.81
926.736	54.8
927.104	54.83
927.473	54.82
927.842	54.83
928.21	54.84
928.578	54.79
928.947	54.79
929.315	54.77
929.683	54.73
930.051	54.72
930.42	54.68
930.788	54.63
931.156	54.57
931.523	54.52
931.891	54.51
932.259	54.47
932.627	54.47
932.994	54.43
933.362	54.41
933.729	54.42
934.097	54.39
934.464	54.42
934.831	54.44
935.199	54.45
935.566	54.44
935.933	54.4
936.3	54.4
936.667	54.4
937.034	54.43
937.401	54.45
937.767	54.42
938.134	54.4
938.501	54.36
938.867	54.38
939.234	54.37
939.6	54.38
939.967	54.37
940.333	54.35
940.699	54.38
941.065	54.35
941.431	54.39
941.798	54.37
942.163	54.4
942.529	54.4
942.895	54.42
943.261	54.37
943.627	54.43
943.992	54.47
944.358	54.51
944.723	54.46
945.089	54.41
945.454	54.38
945.82	54.38
946.185	54.42
946.55	54.4
946.915	54.33
947.28	54.3
947.645	54.33
948.01	54.33
948.375	54.26
948.74	54.26
949.104	54.34
949.469	54.35
949.834	54.33
950.198	54.25
950.562	54.23
950.927	54.24
951.291	54.25
951.655	54.17
952.02	54.2
952.384	54.19
952.748	54.13
953.112	54.05
953.476	53.97
953.839	53.89
954.203	53.89
954.567	53.86
954.931	53.82
955.294	53.8
955.658	53.85
956.021	53.78
956.385	53.77
956.748	53.77
957.111	53.78
957.474	53.82
957.837	53.78
958.2	53.8
958.563	53.79
958.926	53.76
959.289	53.79
959.652	53.71
960.015	53.69
960.377	53.69
960.74	53.73
961.102	53.71
961.465	53.72
961.827	53.79
962.189	53.79
962.552	53.81
962.914	53.83
963.276	53.85
963.638	53.84
964	53.8
964.362	53.81
964.724	53.81
965.085	53.79
965.447	53.8
965.809	53.77
966.17	53.76
966.532	53.72
966.893	53.7
967.255	53.66
967.616	53.69
967.977	53.73
968.338	53.71
968.699	53.65
969.061	53.64
969.421	53.6
969.782	53.64
970.143	53.67
970.504	53.7
970.865	53.75
971.225	53.76
971.586	53.74
971.946	53.77
972.307	53.79
972.667	53.85
973.027	53.88
973.388	53.91
973.748	53.91
974.108	53.9
974.468	53.86
974.828	53.84
975.188	53.82
975.548	53.86
975.907	53.87
976.267	53.93
976.627	53.9
976.986	53.84
977.346	53.71
977.705	53.71
978.064	53.7
978.424	53.78
978.783	53.71
979.142	53.67
979.501	53.63
979.86	53.59
980.219	53.52
980.578	53.55
980.937	53.54
981.296	53.53
981.654	53.47
982.013	53.43
982.371	53.35
982.73	53.4
983.088	53.42
983.447	53.33
983.805	53.33
984.163	53.3
984.521	53.24
984.879	53.22
985.237	53.25
985.595	53.31
985.953	53.3
986.311	53.2
986.669	53.27
987.026	53.24
987.384	53.37
987.741	53.26
988.099	53.22
988.456	53.18
988.814	53.24
989.171	53.24
989.528	53.27
989.885	53.28
990.242	53.39
990.599	53.36
990.956	53.4
991.313	53.38
991.67	53.5
992.027	53.61
992.383	53.66
992.74	53.71
993.096	53.7
993.453	53.61
993.809	53.54
994.165	53.59
994.522	53.49
994.878	53.49
995.234	53.42
995.59	53.37
995.946	53.41
996.302	53.44
996.658	53.4
997.013	53.49
997.369	53.53
997.725	53.6
998.08	53.64
998.436	53.71
998.791	53.67
999.147	53.65
999.502	53.68
999.857	53.59
1000.212	53.47
1000.567	53.54
1000.922	53.56
1001.277	53.58
1001.632	53.47
1001.987	53.38
1002.342	53.37
1002.696	53.35
1003.051	53.52
1003.406	53.53
1003.76	53.55
1004.114	53.52
1004.469	53.48
1004.823	53.65
1005.177	53.6
1005.531	53.69
1005.885	53.78
1006.239	53.7
1006.593	53.84
1006.947	53.76
1007.301	53.66
1007.655	53.46
1008.008	53.49
1008.362	53.54
1008.715	53.38
1009.069	53.42
1009.422	53.41
1009.776	53.29
1010.129	53.39
1010.482	53.35
1010.835	53.27
1011.188	53.39
1011.541	53.56
1011.894	53.59
1012.247	53.45
1012.6	53.35
1012.952	53.42
1013.305	53.42
1013.657	53.49
1014.01	53.56
1014.362	53.45
1014.715	53.54
1015.067	53.65
1015.419	53.68
1015.771	53.57
1016.123	53.69
1016.475	53.78
1016.827	53.84
1017.179	53.9
1017.531	53.99
1017.883	53.79
1018.234	53.81
1018.586	53.83
1018.938	53.79
1019.289	53.67
1019.64	53.77
1019.992	53.49
1020.343	53.4
1020.694	53.23
1021.045	53.25
1021.396	53.17
1021.747	53.43
1022.098	53.61
1022.449	53.61
1022.8	53.59
1023.151	53.55
1023.501	53.69
1023.852	54.07
1024.202	53.8
1024.553	53.66
1024.903	53.58
1025.253	53.59
1025.604	53.34
1025.954	52.96
1026.304	52.9
1026.654	52.78
1027.004	52.9
1027.354	52.8
1027.703	52.61
1028.053	52.76
1028.403	52.94
1028.753	52.79
1029.102	52.83
1029.452	53.05
1029.801	53.43
1030.15	53.4
1030.499	53.33
897.758	846.96
901.051	848.42
904.343	850.07
907.636	865.39
910.928	842.5
914.22	843.98
917.511	834.14
920.803	793.21
924.094	793.1
927.384	776.52
930.675	747.02
933.965	744.47
937.255	702.94
940.544	674.89
943.834	644.2
947.123	640
950.411	602.84
953.7	590.66
956.988	565.26
960.276	541.71
963.563	532.52
966.851	515.29
970.138	511.07
973.424	497.19
976.711	499.73
979.997	475.77
983.283	471.19
986.568	462.95
989.853	449.76
993.138	439.64
996.423	422.74
999.708	413.57
1002.992	407.56
1006.275	389.75
1009.559	387.02
1012.842	373.2
1016.125	363.91
1019.408	358.53
1022.69	354.3
1025.972	347.27
1029.254	339.75
1032.536	335.28
1035.817	328.19
1039.098	324.27
1042.379	319.18
1045.659	315.3
1048.939	308.84
1052.219	304.13
1055.498	299.88
1058.778	292.98
1062.057	287.5
1065.335	285.32
1068.614	281.78
1071.892	279
1075.17	271.69
1078.447	265.91
1081.724	263.59
1085.001	261.36
1088.278	256.38
1091.554	251.61
1094.83	251.52
1098.106	248.96
1101.382	247.92
1104.657	246.12
1107.932	242.25
1111.206	243.64
1114.481	238.64
1117.755	237.03
1121.029	235.25
1124.302	235.1
1127.575	231.36
1130.848	229.33
1134.121	227.37
1137.393	225.21
1140.665	220.52
1143.937	219.42
1147.208	218.97
1150.48	218.24
1153.75	216.37
1157.021	213.44
1160.291	212.88
1163.561	210.83
1166.831	210.78
1170.101	209.24
1173.37	209.84
1176.639	210.82
1179.907	208.64
1183.176	205.21
1186.444	205.42
1189.711	204.54
1192.979	203.95
1196.246	202.93
1199.513	203.82
1202.78	202.22
1206.046	202.48
1209.312	200.29
1212.578	200.55
1215.843	202.01
1219.108	201.56
1222.373	205.38
1225.638	206.41
1228.902	209.02
1232.166	209.54
1235.43	210.67
1238.693	213.72
1241.956	214.02
1245.219	216.63
1248.482	217.21
1251.744	217.23
1255.006	217.13
1258.268	212.21
1261.529	210.85
1264.79	209.9
1268.051	208.29
1271.312	205.56
1274.572	203.68
1277.832	202.85
1281.092	199.31
1284.351	197.64
1287.61	198.15
1290.869	195.53
1294.128	194.54
1297.386	194.73
1300.644	192.27
1303.902	193.52
1307.159	192.84
1310.416	192.07
1313.673	191.32
1316.93	193.53
1320.186	192.9
1323.442	193.65
1326.697	196.47
1329.953	196.78
1333.208	197.04
1336.463	199.94
1339.717	199.4
1342.972	201.4
1346.226	203.7
1349.479	204.06
1352.733	205.06
1355.986	207.08
1359.238	205.67
1362.491	206.53
1365.743	208.65
1368.995	208.58
1372.247	208.55
1375.498	208.46
1378.749	210.32
1382	207.43
1385.251	207.49
1388.501	206.23
1391.751	205.76
1395	205.36
1398.25	203.64
1401.499	201.91
1404.748	201.7
1407.996	198.82
1411.244	197.49
1414.492	195.69
1417.74	193.67
1420.987	191.98
1424.234	190.79
1427.481	188.19
1430.728	187.83
1433.974	186.73
1437.22	184.25
1440.465	183.68
1443.711	181.36
1446.956	180.36
1450.201	179.32
1453.445	177.72
1456.689	176.76
1459.933	174.01
1463.177	173.04
1466.42	170.38
1469.663	167.95
1472.906	167.79
1476.148	164.52
1479.391	163.5
1482.633	162.35
1485.874	159.49
1489.115	158.47
1492.356	157.18
1495.597	157.12
1498.838	155.03
1502.078	154.67
1505.318	154.74
1508.557	154.3
1511.797	153.71
1515.036	152.81
1518.274	152.34
1521.513	151.62
1524.751	151.28
1527.989	150.98
1531.227	150.7
1534.464	151.14
1537.701	150.54
1540.938	150.17
1544.174	149.14
1547.41	149.1
1550.646	148.84
1553.882	149.16
1557.117	147.8
1560.352	147.48
1563.587	146.95
1566.821	146.2
1570.055	145.32
1573.289	144.35
1576.523	144.49
1579.756	143.12
1582.989	142.94
1586.222	142.38
1589.454	141.62
1592.686	143.19
1595.918	142.23
1599.15	141.74
1602.381	141.91
1605.612	141.62
1608.843	142.22
1612.073	141.58
1615.303	142.77
1618.533	142.39
1621.762	142.87
1624.992	143.21
1628.221	142.31
1631.449	142.57
1634.678	142.81
1637.906	143.36
1641.134	143.53
1644.361	143.07
1647.588	143.69
1650.815	143.1
1654.042	143.49
1657.269	143.39
1660.495	143.49
1663.72	143.38
1666.946	143.85
1670.171	143.98
1673.396	144.16
1676.621	144.05
1679.845	144.58
1683.069	144.65
1686.293	145.77
1689.517	145.47
1692.74	145.93
1695.963	145.97
1699.185	146.92
1702.408	147.25
1705.63	147.44
1708.852	147.95
1712.073	147.82
1715.294	147.68
1718.515	148.24
1721.736	147.57
1724.956	148.21
1728.176	148.24
1731.396	149.42
1734.616	148.86
1737.835	149.18
1741.054	148.46
1744.272	148.32
1747.491	149.79
1750.709	150.05
1753.927	149.89
1757.144	149.78
1760.361	150.28
1763.578	150.17
1766.795	149.59
1770.011	151.18
1773.227	150.62
1776.443	152.04
1779.658	152.02
1782.874	152.48
1786.089	152.9
1789.303	153.26
1792.518	154.58
1795.732	154.34
1798.945	155.81
1802.159	156.28
1805.372	156.02
1808.585	158.47
1811.797	159.44
1815.01	160.15
1818.222	160.56
1821.434	161.58
1824.645	161.78
1827.856	164.14
1831.067	165.02
1834.278	164.88
1837.488	165.87
1840.698	166.53
1843.908	165.47
1847.117	165.6
1850.326	165.99
1853.535	164.87
1856.744	167.21
1859.952	167.27
1863.16	165.73
1866.368	164.61
1869.575	164.98
1872.782	161.79
1875.989	160.49
1879.196	159.21
1882.402	157.48
1885.608	157.21
1888.814	156.73
1892.019	154.47
1895.224	153.21
1898.429	151.59
1901.634	151.12
1904.838	150.55
1908.042	152.05
1911.246	151.45
1914.449	152.09
1917.652	151.75
1920.855	151
1924.058	150.47
1927.26	149.75
1930.462	150.12
1933.664	151.92
1936.865	151.12
1940.066	150.55
1943.267	149.98
1946.467	150.21
1949.668	150.84
1952.868	152.64
1956.067	153.18
1959.267	154.75
1962.466	155.07
1965.665	154.25
1968.863	154.73
1972.061	157.84
1975.259	159.23
1978.457	160.42
1981.654	162.55
1984.852	162.87
1988.048	162.68
1991.245	164.41
1994.441	165.71
1997.637	167.12
2000.833	171.12
2004.028	173.16
2007.223	174.2
2010.418	176.04
2013.613	178.8
2016.807	181.15
2020.001	183.12
2023.194	186.37
2026.388	190.63
2029.581	194.94
2032.774	197.01
2035.966	199.82
2039.158	200.89
2042.35	204.02
2045.542	205.73
2048.733	207.88
2051.924	211.01
2055.115	214.15
2058.306	214.14
2061.496	215.87
2064.686	215.08
2067.875	219.07
2071.065	220.13
2074.254	219.35
2077.442	221.84
2080.631	223.39
2083.819	226.65
2087.007	225.66
2090.195	229.55
2093.382	230.92
2096.569	229.55
2099.756	234.92
2102.942	234.79
2106.128	237.39
2109.314	243.05
2112.5	242.48
2115.685	246.88
2118.87	247.05
2122.055	253.3
2125.239	253.43
2128.424	257.17
2131.608	258.6
2134.791	261.3
2137.974	262.95
2141.157	263.81
2144.34	263.79
2147.523	267.75
2150.705	266.63
2153.887	268.93
2157.068	268.93
2160.25	266.49
2163.431	268.38
2166.611	272.29
2169.792	276.75
2172.972	279.74
2176.152	281.02
2179.331	283.98
2182.511	288.13
2185.69	291.02
2188.868	295.76
2192.047	296.81
2195.225	305.74
2198.403	311.92
2201.58	316.97
2204.758	321.88
2207.935	328.03
2211.111	334.3
2214.288	338.93
2217.464	340.02
2220.64	347.04
2223.815	351.42
2226.991	363.61
2230.166	364.53
2233.34	370.81
2236.515	376.83
2239.689	378.5
2242.863	380.7
2246.036	390.25
2249.209	388.03
2252.382	393.8
2255.555	404.28
2258.727	406.31
2261.9	409.08
2265.071	413.77
2268.243	420.23
2271.414	425.12
2274.585	435.22
2277.756	437.22
2280.926	444.53
2284.096	453.31
2287.266	461.93
2290.436	464.31
2293.605	474.52
2296.774	488.85
2299.942	500.19
2303.111	503.84
2306.279	513.26
2309.447	517.34
2312.614	532.49
2315.781	542.71
2318.948	565.99
2322.115	559.74
2325.281	591.78
2328.447	577.71
2331.613	598.01
2334.779	594.53
2337.944	619.99
2341.109	625.31
2344.274	644.2
2347.438	663.53
2350.602	661.84
2353.766	688.59
2356.929	699.1
2360.092	687.52
2363.255	739.64
2366.418	741.98
2369.58	753.49
2372.742	797.87
2375.904	820.24
2379.066	815.04
2382.227	804.27
2385.388	872.86
2388.548	865.7
2391.709	876.1
2394.869	982.76
2398.029	942.83
2401.188	964.23
2404.347	961.9
2407.506	946.34
2410.665	971.16
2413.823	1027.01
2416.981	1087.01
2420.139	1054.15
2423.296	1045.99
2426.453	1089.43
2429.61	1045.03
2432.767	1089.52
2435.923	1083.57
2439.079	1179.03
2442.235	1197.7
2445.391	1186.78
2448.546	1174.63
2451.701	1142.51
2454.855	1137.1
2458.009	1203.76
2461.163	1254.89
2464.317	1299.26
2467.471	1336.06
2470.624	1330.56
2473.777	1298.01
2476.929	1261.25
2480.082	1226.16
2483.234	1219.3
2486.385	1283.69
2489.537	1291.19
2492.688	1336.01
2495.839	1302.51
2498.989	1277.41
2502.14	1281.6
2505.29	1296.57
2508.439	1321.05
2511.589	1320.78
2514.738	1439.08
2517.887	1403.2
2521.035	1475.89
2524.183	1487.65
2527.331	1501.32
2530.479	1491.68
2533.627	1499.75
