Data from C_1_HIR_IL_4N_Splice17_12-47-25-267.txt Node
Date: Sat Mar 07 12:47:25 EST 2020
User: sa697716
Spectrometer: NQ5500242
Trigger mode: 0
Integration Time (sec): 1.450000E-1
Scans to average: 20
Nonlinearity correction enabled: false
Boxcar width: 5
Storing dark spectrum: false
XAxis mode: Wavelengths
Number of Pixels in Spectrum: 512
>>>>>Begin Spectral Data<<<<<
187.83	84.16
188.298	94.15
188.766	85.05
189.233	83.71
189.701	82.84
190.169	103.6
190.636	108.47
191.104	58.84
191.571	-222.89
192.039	-164.6
192.506	-314.08
192.974	136.53
193.441	236.63
193.908	131.99
194.375	129.43
194.842	58.1
195.31	106.49
195.777	247.78
196.244	31.75
196.711	31.07
197.177	33.48
197.644	33.1
198.111	32.29
198.578	32.42
199.045	31.92
199.511	31.72
199.978	31.66
200.445	31.18
200.911	30.96
201.378	30.96
201.844	30.46
202.31	29.86
202.777	29.72
203.243	29.76
203.709	29.17
204.176	28.95
204.642	28.67
205.108	28.7
205.574	28.99
206.04	28.52
206.506	28.11
206.972	28.28
207.438	27.99
207.903	27.52
208.369	26.81
208.835	26.27
209.301	25.71
209.766	24.65
210.232	23.96
210.697	23.07
211.163	22.54
211.628	22.01
212.094	21.02
212.559	20.64
213.024	20.08
213.49	19.56
213.955	19.04
214.42	18.63
214.885	18.19
215.35	17.33
215.815	16.36
216.28	15.2
216.745	13.86
217.21	12.58
217.675	11.37
218.14	10.35
218.604	9.45
219.069	8.62
219.534	7.96
219.998	7.48
220.463	7.07
220.927	6.67
221.392	6.35
221.856	6.09
222.32	5.89
222.785	5.68
223.249	5.5
223.713	5.36
224.177	5.27
224.642	5.16
225.106	5.01
225.57	4.88
226.034	4.79
226.497	4.7
226.961	4.6
227.425	4.51
227.889	4.44
228.353	4.36
228.816	4.27
229.28	4.18
229.744	4.12
230.207	4.05
230.671	3.99
231.134	3.93
231.597	3.89
232.061	3.84
232.524	3.79
232.987	3.74
233.45	3.71
233.914	3.66
234.377	3.61
234.84	3.57
235.303	3.54
235.766	3.52
236.229	3.49
236.691	3.44
237.154	3.42
237.617	3.38
238.08	3.35
238.542	3.31
239.005	3.29
239.468	3.27
239.93	3.24
240.393	3.21
240.855	3.16
241.317	3.14
241.78	3.11
242.242	3.08
242.704	3.07
243.166	3.04
243.629	3.03
244.091	2.99
244.553	2.96
245.015	2.94
245.477	2.92
245.939	2.9
246.4	2.88
246.862	2.85
247.324	2.84
247.786	2.81
248.247	2.78
248.709	2.75
249.17	2.73
249.632	2.72
250.093	2.7
250.555	2.69
251.016	2.69
251.477	2.67
251.939	2.65
252.4	2.64
252.861	2.63
253.322	2.62
253.783	2.62
254.244	2.61
254.705	2.59
255.166	2.58
255.627	2.57
256.088	2.55
256.549	2.54
257.009	2.53
257.47	2.51
257.931	2.49
258.391	2.47
258.852	2.45
259.312	2.43
259.773	2.42
260.233	2.41
260.694	2.4
261.154	2.38
261.614	2.37
262.074	2.35
262.534	2.34
262.994	2.33
263.455	2.32
263.915	2.31
264.374	2.3
264.834	2.3
265.294	2.28
265.754	2.27
266.214	2.27
266.673	2.26
267.133	2.26
267.593	2.26
268.052	2.26
268.512	2.26
268.971	2.26
269.431	2.25
269.89	2.25
270.349	2.24
270.809	2.24
271.268	2.23
271.727	2.23
272.186	2.22
272.645	2.22
273.104	2.21
273.563	2.21
274.022	2.2
274.481	2.19
274.94	2.19
275.399	2.18
275.857	2.18
276.316	2.18
276.775	2.18
277.233	2.18
277.692	2.17
278.15	2.17
278.609	2.16
279.067	2.15
279.525	2.16
279.984	2.15
280.442	2.15
280.9	2.15
281.358	2.14
281.816	2.14
282.274	2.14
282.732	2.13
283.19	2.12
283.648	2.12
284.106	2.12
284.564	2.12
285.021	2.11
285.479	2.11
285.937	2.09
286.394	2.09
286.852	2.09
287.309	2.09
287.767	2.08
288.224	2.07
288.682	2.07
289.139	2.06
289.596	2.05
290.053	2.04
290.511	2.03
290.968	2.03
291.425	2.02
291.882	2.01
292.339	2
292.796	2
293.252	1.99
293.709	1.99
294.166	1.99
294.623	1.98
295.079	1.98
295.536	1.97
295.992	1.96
296.449	1.95
296.905	1.95
297.362	1.94
297.818	1.94
298.274	1.94
298.731	1.93
299.187	1.92
299.643	1.91
300.099	1.91
300.555	1.9
301.011	1.9
301.467	1.9
301.923	1.89
302.379	1.89
302.835	1.89
303.291	1.88
303.746	1.88
304.202	1.88
304.658	1.88
305.113	1.88
305.569	1.88
306.024	1.88
306.479	1.88
306.935	1.87
307.39	1.86
307.845	1.86
308.301	1.86
308.756	1.87
309.211	1.86
309.666	1.87
310.121	1.87
310.576	1.86
311.031	1.87
311.486	1.87
311.94	1.88
312.395	1.87
312.85	1.87
313.305	1.87
313.759	1.87
314.214	1.86
314.668	1.85
315.123	1.85
315.577	1.85
316.032	1.84
316.486	1.84
316.94	1.84
317.394	1.84
317.849	1.84
318.303	1.83
318.757	1.82
319.211	1.82
319.665	1.81
320.119	1.81
320.572	1.81
321.026	1.81
321.48	1.81
321.934	1.79
322.387	1.79
322.841	1.78
323.295	1.78
323.748	1.78
324.202	1.78
324.655	1.79
325.108	1.79
325.562	1.79
326.015	1.78
326.468	1.79
326.921	1.79
327.374	1.78
327.827	1.78
328.28	1.78
328.733	1.79
329.186	1.79
329.639	1.78
330.092	1.78
330.545	1.78
330.997	1.78
331.45	1.78
331.903	1.79
332.355	1.8
332.808	1.8
333.26	1.79
333.713	1.79
334.165	1.78
334.617	1.78
335.069	1.78
335.522	1.79
335.974	1.79
336.426	1.78
336.878	1.77
337.33	1.76
337.782	1.76
338.234	1.77
338.686	1.78
339.137	1.79
339.589	1.79
340.041	1.78
340.493	1.78
340.944	1.77
341.396	1.77
341.847	1.77
342.299	1.76
342.75	1.75
343.201	1.74
343.653	1.74
344.104	1.72
344.555	1.71
345.006	1.7
345.457	1.69
345.908	1.7
346.359	1.7
346.81	1.69
347.261	1.69
347.712	1.69
348.163	1.68
348.613	1.68
349.064	1.68
349.515	1.69
349.965	1.69
350.416	1.69
350.866	1.68
351.317	1.68
351.767	1.67
352.217	1.67
352.668	1.67
353.118	1.67
353.568	1.68
354.018	1.68
354.468	1.68
354.918	1.68
355.368	1.68
355.818	1.68
356.268	1.68
356.718	1.69
357.168	1.69
357.617	1.69
358.067	1.7
358.517	1.7
358.966	1.71
359.416	1.71
359.865	1.7
360.315	1.71
360.764	1.71
361.213	1.71
361.663	1.71
362.112	1.72
362.561	1.72
363.01	1.71
363.459	1.69
363.908	1.68
364.357	1.68
364.806	1.68
365.255	1.67
365.703	1.68
366.152	1.69
366.601	1.69
367.05	1.69
367.498	1.69
367.947	1.7
368.395	1.71
368.844	1.72
369.292	1.72
369.74	1.73
370.189	1.73
370.637	1.72
371.085	1.72
371.533	1.72
371.981	1.72
372.429	1.72
372.877	1.73
373.325	1.73
373.773	1.73
374.221	1.73
374.669	1.74
375.116	1.74
375.564	1.73
376.012	1.74
376.459	1.74
376.907	1.74
377.354	1.75
377.801	1.76
378.249	1.75
378.696	1.76
379.143	1.76
379.591	1.77
380.038	1.77
380.485	1.78
380.932	1.8
381.379	1.81
381.826	1.82
382.273	1.83
382.72	1.83
383.166	1.86
383.613	1.87
384.06	1.9
384.506	1.92
384.953	1.96
385.4	2
385.846	2.05
386.292	2.11
386.739	2.17
387.185	2.24
387.631	2.31
388.078	2.37
388.524	2.42
388.97	2.47
389.416	2.54
389.862	2.62
390.308	2.74
390.754	2.87
391.2	2.99
391.645	3.1
392.091	3.2
392.537	3.31
392.983	3.46
393.428	3.69
393.874	3.96
394.319	4.27
394.765	4.58
395.21	4.9
395.655	5.22
396.101	5.58
396.546	5.97
396.991	6.42
397.436	6.9
397.881	7.4
398.326	7.85
398.771	8.28
399.216	8.7
399.661	9.06
400.106	9.38
400.551	9.68
400.995	9.94
401.44	10.18
401.885	10.41
402.329	10.65
402.774	10.9
403.218	11.21
403.663	11.52
404.107	11.85
404.551	12.21
404.995	12.54
405.44	12.86
405.884	13.2
406.328	13.58
406.772	14.01
407.216	14.46
407.66	14.86
408.104	15.2
408.547	15.51
408.991	15.8
409.435	16.1
409.879	16.48
410.322	16.92
410.766	17.37
411.209	17.79
411.653	18.16
412.096	18.49
412.54	18.82
412.983	19.15
413.426	19.52
413.869	19.89
414.312	20.26
414.756	20.59
415.199	20.84
415.642	21.07
416.085	21.25
416.527	21.37
416.97	21.44
417.413	21.48
417.856	21.48
418.298	21.45
418.741	21.47
419.184	21.51
419.626	21.58
420.069	21.73
420.511	21.86
420.953	22.02
421.396	22.24
421.838	22.52
422.28	22.82
422.722	23.15
423.164	23.48
423.606	23.73
424.048	23.92
424.49	23.99
424.932	23.84
425.374	23.49
425.816	23.01
426.258	22.51
426.699	22.19
427.141	22.19
427.582	22.44
428.024	22.8
428.465	23.2
428.907	23.52
429.348	23.86
429.789	24.37
430.231	25.17
430.672	26.26
431.113	27.46
431.554	28.57
431.995	29.39
432.436	29.98
432.877	30.44
433.318	30.85
433.759	31.32
434.2	31.9
434.64	32.59
435.081	33.21
435.522	33.75
435.962	34.2
436.403	34.57
436.843	34.9
437.284	35.29
437.724	35.71
438.164	36.26
438.604	36.86
439.045	37.46
439.485	38
439.925	38.48
440.365	38.87
440.805	39.18
441.245	39.52
441.685	39.82
442.125	40.14
442.564	40.51
443.004	40.9
443.444	41.35
443.883	41.86
444.323	42.33
444.762	42.82
445.202	43.35
445.641	44
446.081	44.73
446.52	45.49
446.959	46.18
447.398	46.7
447.837	47.01
448.276	47.14
448.716	47.2
449.154	47.3
449.593	47.38
450.032	47.42
450.471	47.31
450.91	47.13
451.349	46.96
451.787	46.81
452.226	46.74
452.664	46.74
453.103	46.8
453.541	46.81
453.98	46.71
454.418	46.57
454.856	46.39
455.295	46.27
455.733	46.13
456.171	46.05
456.609	45.99
457.047	45.9
457.485	45.88
457.923	45.96
458.361	46.07
458.798	46.28
459.236	46.46
459.674	46.69
460.111	46.88
460.549	47.15
460.987	47.38
461.424	47.63
461.862	47.92
462.299	48.17
462.736	48.39
463.173	48.69
463.611	49.04
464.048	49.48
464.485	49.96
464.922	50.49
465.359	50.98
465.796	51.39
466.233	51.83
466.67	52.31
467.106	52.85
467.543	53.44
467.98	54.02
468.416	54.47
468.853	54.88
469.29	55.25
469.726	55.63
470.162	56.02
470.599	56.38
471.035	56.64
471.471	56.8
471.907	56.87
472.344	56.87
472.78	56.8
473.216	56.73
473.652	56.67
474.088	56.54
474.523	56.33
474.959	56.1
475.395	55.84
475.831	55.59
476.266	55.32
476.702	55.07
477.138	54.76
477.573	54.4
478.008	54.02
478.444	53.54
478.879	53.05
479.314	52.54
479.75	51.98
480.185	51.4
480.62	50.74
481.055	49.96
481.49	49
481.925	48.03
482.36	47.13
482.795	46.37
483.229	45.75
483.664	45.19
484.099	44.68
484.534	44.23
484.968	43.87
485.403	43.61
485.837	43.54
486.271	43.63
486.706	43.71
487.14	43.76
487.574	43.69
488.009	43.59
488.443	43.49
488.877	43.44
489.311	43.4
489.745	43.38
490.179	43.38
490.613	43.37
491.046	43.37
491.48	43.42
491.914	43.5
492.348	43.66
492.781	43.82
493.215	43.97
493.648	44.05
494.082	44.13
494.515	44.2
494.948	44.26
495.382	44.3
495.815	44.32
496.248	44.36
496.681	44.37
497.114	44.34
497.547	44.3
497.98	44.32
498.413	44.42
498.846	44.56
499.279	44.67
499.711	44.77
500.144	44.92
500.577	45.13
501.009	45.38
501.442	45.72
501.874	46.08
502.306	46.44
502.739	46.74
503.171	47.01
503.603	47.24
504.036	47.51
504.468	47.81
504.9	48.12
505.332	48.4
505.764	48.65
506.196	48.86
506.627	49.11
507.059	49.4
507.491	49.7
507.923	49.98
508.354	50.32
508.786	50.59
509.217	50.81
509.649	51.01
510.08	51.21
510.512	51.45
510.943	51.72
511.374	51.95
511.805	52.05
512.237	52.05
512.668	52.04
513.099	52
513.53	52.03
513.961	52.1
514.391	52.22
514.822	52.4
515.253	52.61
515.684	52.81
516.114	53.07
516.545	53.41
516.975	53.91
517.406	54.44
517.836	54.97
518.267	55.44
518.697	55.89
519.127	56.28
519.558	56.68
519.988	57.06
520.418	57.39
520.848	57.65
521.278	57.89
521.708	58.06
522.138	58.08
522.567	58.05
522.997	58.07
523.427	58.14
523.857	58.25
524.286	58.38
524.716	58.48
525.145	58.57
525.575	58.68
526.004	58.83
526.433	59.03
526.863	59.4
527.292	59.75
527.721	60.01
528.15	60.11
528.579	60.13
529.008	60.1
529.437	60.03
529.866	59.97
530.295	59.94
530.724	59.92
531.152	59.91
531.581	59.87
532.01	59.81
532.438	59.78
532.867	59.82
533.295	59.88
533.723	59.93
534.152	59.97
534.58	59.98
535.008	59.9
535.436	59.78
535.865	59.56
536.293	59.38
536.721	59.27
537.149	59.23
537.576	59.25
538.004	59.29
538.432	59.29
538.86	59.32
539.287	59.37
539.715	59.52
540.143	59.71
540.57	59.97
540.998	60.23
541.425	60.47
541.852	60.73
542.28	60.94
542.707	61.15
543.134	61.36
543.561	61.53
543.988	61.73
544.415	61.9
544.842	62.1
545.269	62.3
545.696	62.48
546.123	62.69
546.549	62.86
546.976	63.04
547.403	63.21
547.829	63.4
548.256	63.62
548.682	63.78
549.108	63.97
549.535	64.15
549.961	64.29
550.387	64.45
550.813	64.61
551.24	64.74
551.666	64.84
552.092	64.89
552.518	64.94
552.943	64.92
553.369	64.91
553.795	64.86
554.221	64.74
554.646	64.57
555.072	64.35
555.498	64.12
555.923	63.93
556.349	63.76
556.774	63.65
557.199	63.47
557.625	63.34
558.05	63.2
558.475	63.05
558.9	62.92
559.325	62.81
559.75	62.67
560.175	62.53
560.6	62.31
561.025	62.02
561.449	61.65
561.874	61.3
562.299	60.94
562.723	60.6
563.148	60.23
563.572	59.81
563.997	59.38
564.421	58.93
564.846	58.5
565.27	58.06
565.694	57.63
566.118	57.18
566.542	56.75
566.966	56.29
567.39	55.85
567.814	55.47
568.238	55.15
568.662	54.88
569.086	54.64
569.509	54.42
569.933	54.22
570.357	54.04
570.78	53.9
571.204	53.79
571.627	53.71
572.05	53.61
572.474	53.54
572.897	53.45
573.32	53.34
573.743	53.24
574.166	53.14
574.589	53.06
575.012	53.02
575.435	53.06
575.858	53.12
576.281	53.21
576.704	53.31
577.126	53.39
577.549	53.5
577.972	53.66
578.394	53.85
578.817	54.07
579.239	54.33
579.661	54.55
580.084	54.73
580.506	54.94
580.928	55.12
581.35	55.29
581.772	55.43
582.194	55.59
582.616	55.77
583.038	55.97
583.46	56.14
583.882	56.23
584.303	56.26
584.725	56.24
585.147	56.17
585.568	56.17
585.99	56.23
586.411	56.39
586.833	56.53
587.254	56.66
587.675	56.82
588.096	56.99
588.518	57.23
588.939	57.57
589.36	57.94
589.781	58.37
590.202	58.69
590.623	58.96
591.043	59.16
591.464	59.35
591.885	59.51
592.305	59.67
592.726	59.82
593.147	59.89
593.567	59.94
593.987	59.98
594.408	59.99
594.828	60.05
595.248	60.08
595.669	60.06
596.089	60
596.509	59.94
596.929	59.8
597.349	59.67
597.769	59.54
598.189	59.42
598.608	59.37
599.028	59.32
599.448	59.28
599.867	59.23
600.287	59.24
600.706	59.23
601.126	59.22
601.545	59.24
601.965	59.27
602.384	59.33
602.803	59.36
603.222	59.34
603.641	59.31
604.061	59.28
604.48	59.23
604.898	59.18
605.317	59.17
605.736	59.13
606.155	59.1
606.574	59.08
606.992	59.06
607.411	59.04
607.829	59.02
608.248	59.01
608.666	58.96
609.085	58.95
609.503	58.9
609.921	58.87
610.339	58.85
610.758	58.83
611.176	58.79
611.594	58.72
612.012	58.61
612.43	58.51
612.847	58.43
613.265	58.4
613.683	58.37
614.101	58.39
614.518	58.39
614.936	58.39
615.353	58.36
615.771	58.39
616.188	58.45
616.606	58.55
617.023	58.64
617.44	58.71
617.857	58.72
618.274	58.72
618.691	58.65
619.108	58.6
619.525	58.53
619.942	58.45
620.359	58.32
620.776	58.16
621.192	58
621.609	57.88
622.026	57.75
622.442	57.68
622.859	57.58
623.275	57.5
623.691	57.38
624.108	57.29
624.524	57.24
624.94	57.18
625.356	57.14
625.772	57.1
626.188	57.09
626.604	57.04
627.02	56.98
627.436	56.94
627.852	56.96
628.268	56.98
628.683	57.03
629.099	57.08
629.514	57.14
629.93	57.21
630.345	57.31
630.761	57.36
631.176	57.43
631.591	57.47
632.007	57.55
632.422	57.6
632.837	57.69
633.252	57.75
633.667	57.82
634.082	57.86
634.497	57.94
634.911	57.96
635.326	57.97
635.741	57.95
636.155	57.95
636.57	57.91
636.984	57.87
637.399	57.78
637.813	57.74
638.228	57.64
638.642	57.56
639.056	57.45
639.47	57.4
639.884	57.34
640.298	57.3
640.712	57.27
641.126	57.22
641.54	57.15
641.954	57.09
642.368	56.98
642.781	56.89
643.195	56.81
643.609	56.71
644.022	56.61
644.436	56.5
644.849	56.38
645.262	56.21
645.676	56.08
646.089	56.01
646.502	55.96
646.915	55.92
647.328	55.9
647.741	55.85
648.154	55.83
648.567	55.79
648.98	55.78
649.393	55.78
649.805	55.83
650.218	55.86
650.631	55.75
651.043	55.56
651.456	55.18
651.868	54.66
652.28	54.1
652.693	53.67
653.105	53.29
653.517	53.02
653.929	52.81
654.341	52.66
654.753	52.51
655.165	52.45
655.577	52.51
655.989	52.74
656.401	53.14
656.813	53.58
657.224	53.89
657.636	54.14
658.047	54.3
658.459	54.36
658.87	54.36
659.282	54.35
659.693	54.31
660.104	54.23
660.515	54.15
660.926	54.08
661.338	53.99
661.749	53.88
662.159	53.75
662.57	53.63
662.981	53.51
663.392	53.39
663.803	53.29
664.213	53.18
664.624	53.1
665.035	53
665.445	52.87
665.855	52.75
666.266	52.63
666.676	52.52
667.086	52.35
667.497	52.2
667.907	52.07
668.317	51.95
668.727	51.83
669.137	51.7
669.547	51.59
669.956	51.47
670.366	51.36
670.776	51.26
671.186	51.17
671.595	51.12
672.005	51.07
672.414	51.02
672.824	50.95
673.233	50.91
673.642	50.88
674.052	50.84
674.461	50.82
674.87	50.82
675.279	50.82
675.688	50.82
676.097	50.83
676.506	50.86
676.915	50.88
677.323	50.94
677.732	50.97
678.141	51.01
678.549	51.04
678.958	51.12
679.366	51.16
679.775	51.2
680.183	51.22
680.592	51.27
681	51.33
681.408	51.38
681.816	51.35
682.224	51.13
682.632	50.65
683.04	50
683.448	49.34
683.856	48.78
684.264	48.31
684.671	47.88
685.079	47.46
685.487	47.07
685.894	46.77
686.302	46.59
686.709	46.7
687.116	47.11
687.524	47.78
687.931	48.49
688.338	49.18
688.745	49.82
689.152	50.46
689.559	51.12
689.966	51.73
690.373	52.29
690.78	52.83
691.187	53.32
691.593	53.79
692	54.25
692.407	54.68
692.813	55.13
693.22	55.52
693.626	55.89
694.032	56.26
694.439	56.61
694.845	57
695.251	57.34
695.657	57.65
696.063	57.94
696.469	58.16
696.875	58.37
697.281	58.54
697.687	58.72
698.093	58.92
698.498	59.12
698.904	59.36
699.31	59.59
699.715	59.84
700.12	60.15
700.526	60.46
700.931	60.79
701.337	61.13
701.742	61.44
702.147	61.78
702.552	62.12
702.957	62.43
703.362	62.74
703.767	63.01
704.172	63.25
704.577	63.47
704.981	63.68
705.386	63.9
705.791	64.11
706.195	64.36
706.6	64.6
707.004	64.79
707.408	64.98
707.813	65.16
708.217	65.3
708.621	65.49
709.025	65.62
709.43	65.78
709.834	65.95
710.237	66.06
710.641	66.14
711.045	66.23
711.449	66.34
711.853	66.4
712.256	66.34
712.66	66.2
713.064	65.96
713.467	65.66
713.87	65.23
714.274	64.69
714.677	64.15
715.08	63.57
715.484	62.99
715.887	62.46
716.29	61.99
716.693	61.76
717.096	61.76
717.499	61.93
717.901	62.24
718.304	62.66
718.707	63.13
719.109	63.58
719.512	63.98
719.915	64.35
720.317	64.64
720.719	64.89
721.122	65.03
721.524	65.03
721.926	64.98
722.328	64.89
722.731	64.77
723.133	64.69
723.535	64.67
723.937	64.7
724.338	64.74
724.74	64.79
725.142	64.88
725.544	64.92
725.945	65.01
726.347	65.04
726.748	65.06
727.15	65.08
727.551	65.18
727.952	65.3
728.354	65.5
728.755	65.73
729.156	66.01
729.557	66.28
729.958	66.6
730.359	66.88
730.76	67.14
731.161	67.37
731.562	67.62
731.962	67.74
732.363	67.86
732.763	67.94
733.164	67.98
733.564	68
733.965	67.96
734.365	67.88
734.766	67.74
735.166	67.65
735.566	67.59
735.966	67.51
736.366	67.48
736.766	67.39
737.166	67.3
737.566	67.19
737.966	67.03
738.365	66.96
738.765	66.94
739.165	66.96
739.564	66.97
739.964	66.95
740.363	66.89
740.763	66.86
741.162	66.85
741.561	66.83
741.96	66.83
742.36	66.89
742.759	66.86
743.158	66.82
743.557	66.73
743.955	66.66
744.354	66.58
744.753	66.57
745.152	66.5
745.55	66.41
745.949	66.31
746.348	66.23
746.746	66.08
747.144	65.96
747.543	65.8
747.941	65.69
748.339	65.52
748.737	65.38
749.136	65.22
749.534	65.11
749.932	65.02
750.33	64.92
750.727	64.82
751.125	64.72
751.523	64.6
751.921	64.48
752.318	64.36
752.716	64.26
753.113	64.17
753.511	64.06
753.908	63.91
754.305	63.66
754.703	63.15
755.1	62.13
755.497	60.42
755.894	57.99
756.291	55.08
756.688	52.01
757.085	49.14
757.482	46.46
757.878	43.99
758.275	41.55
758.672	39.11
759.068	36.91
759.465	35.27
759.861	34.5
760.258	34.65
760.654	35.47
761.05	36.64
761.447	37.84
761.843	39
762.239	40.14
762.635	41.47
763.031	43.09
763.427	44.88
763.822	46.76
764.218	48.62
764.614	50.37
765.01	51.97
765.405	53.41
765.801	54.68
766.196	55.83
766.592	56.78
766.987	57.57
767.382	58.11
767.778	58.53
768.173	58.83
768.568	59.02
768.963	59.18
769.358	59.31
769.753	59.41
770.148	59.44
770.542	59.41
770.937	59.39
771.332	59.35
771.726	59.37
772.121	59.36
772.515	59.32
772.91	59.26
773.304	59.17
773.699	59.06
774.093	58.93
774.487	58.87
774.881	58.8
775.275	58.68
775.669	58.54
776.063	58.4
776.457	58.25
776.851	58.08
777.245	57.91
777.638	57.81
778.032	57.71
778.425	57.64
778.819	57.46
779.212	57.29
779.606	57.15
779.999	57.02
780.392	56.87
780.786	56.73
781.179	56.59
781.572	56.48
781.965	56.31
782.358	56.15
782.751	55.94
783.143	55.79
783.536	55.62
783.929	55.45
784.322	55.26
784.714	55.06
785.107	54.89
785.499	54.66
785.891	54.43
786.284	54.21
786.676	53.96
787.068	53.7
787.46	53.47
787.852	53.25
788.245	52.98
788.636	52.74
789.028	52.46
789.42	52.16
789.812	51.9
790.204	51.63
790.595	51.39
790.987	51.13
791.378	50.95
791.77	50.72
792.161	50.54
792.553	50.38
792.944	50.19
793.335	50.07
793.726	49.95
794.117	49.84
794.508	49.7
794.899	49.54
795.29	49.41
795.681	49.17
796.072	48.98
796.463	48.75
796.853	48.51
797.244	48.29
797.634	48.05
798.025	47.82
798.415	47.53
798.806	47.28
799.196	47.02
799.586	46.74
799.976	46.54
800.366	46.31
800.756	46.06
801.146	45.82
801.536	45.62
801.926	45.39
802.316	45.16
802.706	44.98
803.095	44.76
803.485	44.55
803.874	44.34
804.264	44.11
804.653	43.86
805.043	43.6
805.432	43.34
805.821	43.06
806.21	42.77
806.599	42.48
806.988	42.16
807.377	41.87
807.766	41.54
808.155	41.19
808.544	40.88
808.933	40.53
809.321	40.18
809.71	39.82
810.098	39.38
810.487	38.96
810.875	38.53
811.264	38.07
811.652	37.58
812.04	37.08
812.428	36.61
812.816	36.11
813.204	35.67
813.592	35.24
813.98	34.83
814.368	34.48
814.756	34.13
815.144	33.82
815.531	33.54
815.919	33.33
816.306	33.21
816.694	33.09
817.081	33.02
817.469	32.9
817.856	32.75
818.243	32.55
818.63	32.31
819.017	32.05
819.404	31.84
819.791	31.67
820.178	31.5
820.565	31.29
820.952	31.1
821.339	30.89
821.725	30.72
822.112	30.61
822.498	30.54
822.885	30.53
823.271	30.48
823.657	30.38
824.044	30.26
824.43	30.1
824.816	29.92
825.202	29.71
825.588	29.51
825.974	29.32
826.36	29.13
826.746	28.94
827.132	28.73
827.517	28.6
827.903	28.46
828.289	28.32
828.674	28.18
829.06	28.01
829.445	27.88
829.83	27.75
830.216	27.62
830.601	27.5
830.986	27.4
831.371	27.31
831.756	27.21
832.141	27.11
832.526	27.03
832.911	26.97
833.295	26.92
833.68	26.87
834.065	26.81
834.449	26.73
834.834	26.63
835.218	26.55
835.603	26.45
835.987	26.36
836.371	26.26
836.755	26.15
837.139	26.05
837.524	25.98
837.908	25.88
838.291	25.79
838.675	25.71
839.059	25.65
839.443	25.56
839.827	25.48
840.21	25.38
840.594	25.32
840.977	25.26
841.361	25.18
841.744	25.07
842.127	24.99
842.511	24.91
842.894	24.83
843.277	24.72
843.66	24.63
844.043	24.57
844.426	24.51
844.809	24.42
845.191	24.32
845.574	24.17
845.957	24.07
846.339	23.95
846.722	23.84
847.104	23.76
847.487	23.66
847.869	23.57
848.252	23.47
848.634	23.38
849.016	23.27
849.398	23.17
849.78	23.05
850.162	22.91
850.544	22.78
850.926	22.66
851.307	22.54
851.689	22.45
852.071	22.36
852.452	22.28
852.834	22.22
853.215	22.17
853.597	22.15
853.978	22.17
854.359	22.22
854.741	22.25
855.122	22.27
855.503	22.27
855.884	22.27
856.265	22.26
856.646	22.21
857.026	22.17
857.407	22.13
857.788	22.07
858.169	22.04
858.549	21.97
858.93	21.92
859.31	21.87
859.69	21.82
860.071	21.78
860.451	21.7
860.831	21.66
861.211	21.58
861.591	21.48
861.971	21.36
862.351	21.23
862.731	21.13
863.111	21.02
863.491	20.93
863.87	20.82
864.25	20.71
864.629	20.64
865.009	20.58
865.388	20.53
865.768	20.5
866.147	20.5
866.526	20.5
866.905	20.5
867.284	20.5
867.663	20.48
868.042	20.47
868.421	20.47
868.8	20.45
869.179	20.42
869.558	20.38
869.936	20.35
870.315	20.3
870.693	20.27
871.072	20.25
871.45	20.19
871.828	20.14
872.207	20.12
872.585	20.06
872.963	20.03
873.341	20
873.719	19.98
874.097	19.96
874.475	19.93
874.853	19.89
875.23	19.86
875.608	19.85
875.986	19.82
876.363	19.76
876.741	19.72
877.118	19.67
877.495	19.62
877.873	19.59
878.25	19.56
878.627	19.53
879.004	19.5
879.381	19.47
879.758	19.44
880.135	19.41
880.512	19.4
880.889	19.38
881.265	19.35
881.642	19.34
882.019	19.32
882.395	19.27
882.772	19.23
883.148	19.18
883.524	19.14
883.901	19.11
884.277	19.08
884.653	19.03
885.029	18.99
885.405	18.98
885.781	18.94
886.157	18.91
886.532	18.9
886.908	18.87
887.284	18.86
887.659	18.83
888.035	18.77
888.411	18.74
888.786	18.73
889.161	18.7
889.537	18.65
889.912	18.61
890.287	18.56
890.662	18.5
891.037	18.47
891.412	18.4
891.787	18.34
892.162	18.3
892.536	18.22
892.911	18.15
893.286	18.08
893.66	18.02
894.035	17.95
894.409	17.86
894.784	17.79
895.158	17.7
895.532	17.63
895.906	17.55
896.281	17.49
896.655	17.43
897.029	17.38
897.402	17.31
897.776	17.27
898.15	17.22
898.524	17.2
898.898	17.17
899.271	17.17
899.645	17.19
900.018	17.2
900.392	17.22
900.765	17.25
901.138	17.28
901.511	17.32
901.884	17.33
902.258	17.36
902.631	17.39
903.003	17.39
903.376	17.39
903.749	17.35
904.122	17.34
904.495	17.29
904.867	17.25
905.24	17.2
905.612	17.13
905.985	17.08
906.357	17.04
906.729	16.99
907.102	16.95
907.474	16.93
907.846	16.91
908.218	16.88
908.59	16.87
908.962	16.83
909.334	16.81
909.705	16.82
910.077	16.8
910.449	16.78
910.82	16.78
911.192	16.77
911.563	16.74
911.935	16.71
912.306	16.69
912.677	16.69
913.048	16.69
913.419	16.67
913.79	16.64
914.161	16.66
914.532	16.63
914.903	16.62
915.274	16.63
915.645	16.64
916.015	16.64
916.386	16.64
916.756	16.63
917.127	16.66
917.497	16.67
917.868	16.7
918.238	16.69
918.608	16.74
918.978	16.73
919.348	16.74
919.718	16.71
920.088	16.72
920.458	16.71
920.828	16.68
921.198	16.65
921.567	16.64
921.937	16.62
922.306	16.62
922.676	16.59
923.045	16.56
923.415	16.56
923.784	16.56
924.153	16.55
924.522	16.54
924.891	16.51
925.26	16.48
925.629	16.45
925.998	16.41
926.367	16.34
926.736	16.26
927.104	16.21
927.473	16.12
927.842	16.03
928.21	15.94
928.578	15.86
928.947	15.81
929.315	15.72
929.683	15.6
930.051	15.47
930.42	15.39
930.788	15.28
931.156	15.2
931.523	15.11
931.891	15.06
932.259	14.99
932.627	14.91
932.994	14.84
933.362	14.78
933.729	14.77
934.097	14.78
934.464	14.79
934.831	14.81
935.199	14.82
935.566	14.85
935.933	14.88
936.3	14.91
936.667	14.96
937.034	15.06
937.401	15.14
937.767	15.2
938.134	15.27
938.501	15.33
938.867	15.41
939.234	15.46
939.6	15.5
939.967	15.48
940.333	15.49
940.699	15.52
941.065	15.46
941.431	15.44
941.798	15.43
942.163	15.41
942.529	15.39
942.895	15.37
943.261	15.32
943.627	15.3
943.992	15.31
944.358	15.31
944.723	15.32
945.089	15.28
945.454	15.3
945.82	15.26
946.185	15.3
946.55	15.25
946.915	15.22
947.28	15.24
947.645	15.26
948.01	15.28
948.375	15.28
948.74	15.26
949.104	15.31
949.469	15.28
949.834	15.31
950.198	15.26
950.562	15.27
950.927	15.26
951.291	15.24
951.655	15.19
952.02	15.14
952.384	15.11
952.748	15.11
953.112	15.09
953.476	15.05
953.839	15
954.203	14.95
954.567	14.93
954.931	14.91
955.294	14.89
955.658	14.95
956.021	14.96
956.385	14.97
956.748	14.92
957.111	14.89
957.474	14.9
957.837	14.91
958.2	14.96
958.563	14.96
958.926	15
959.289	15.02
959.652	14.98
960.015	14.97
960.377	14.98
960.74	15.05
961.102	15.08
961.465	15.09
961.827	15.11
962.189	15.11
962.552	15.1
962.914	15.11
963.276	15.1
963.638	15.11
964	15.11
964.362	15.12
964.724	15.09
965.085	15.08
965.447	15.1
965.809	15.09
966.17	15.07
966.532	15.13
966.893	15.15
967.255	15.13
967.616	15.18
967.977	15.22
968.338	15.21
968.699	15.22
969.061	15.27
969.421	15.29
969.782	15.37
970.143	15.38
970.504	15.4
970.865	15.44
971.225	15.52
971.586	15.5
971.946	15.49
972.307	15.51
972.667	15.49
973.027	15.51
973.388	15.49
973.748	15.42
974.108	15.48
974.468	15.44
974.828	15.45
975.188	15.45
975.548	15.44
975.907	15.46
976.267	15.51
976.627	15.52
976.986	15.53
977.346	15.56
977.705	15.61
978.064	15.61
978.424	15.67
978.783	15.64
979.142	15.61
979.501	15.63
979.86	15.63
980.219	15.62
980.578	15.66
980.937	15.65
981.296	15.66
981.654	15.68
982.013	15.72
982.371	15.66
982.73	15.64
983.088	15.7
983.447	15.69
983.805	15.76
984.163	15.74
984.521	15.75
984.879	15.68
985.237	15.76
985.595	15.82
985.953	15.82
986.311	15.89
986.669	15.97
987.026	15.93
987.384	16.01
987.741	15.97
988.099	16.02
988.456	16.03
988.814	16.13
989.171	16.12
989.528	16.07
989.885	16.05
990.242	16.02
990.599	16.01
990.956	16.1
991.313	16.12
991.67	16.18
992.027	16.25
992.383	16.37
992.74	16.5
993.096	16.54
993.453	16.54
993.809	16.6
994.165	16.7
994.522	16.74
994.878	16.71
995.234	16.71
995.59	16.76
995.946	16.78
996.302	16.76
996.658	16.66
997.013	16.65
997.369	16.72
997.725	16.81
998.08	16.84
998.436	16.82
998.791	16.85
999.147	16.81
999.502	16.88
999.857	16.85
1000.212	16.76
1000.567	16.84
1000.922	16.93
1001.277	16.92
1001.632	16.78
1001.987	16.78
1002.342	16.83
1002.696	16.8
1003.051	16.94
1003.406	16.98
1003.76	17
1004.114	17.12
1004.469	17.18
1004.823	17.41
1005.177	17.4
1005.531	17.54
1005.885	17.56
1006.239	17.59
1006.593	17.73
1006.947	17.7
1007.301	17.55
1007.655	17.55
1008.008	17.55
1008.362	17.55
1008.715	17.34
1009.069	17.53
1009.422	17.51
1009.776	17.51
1010.129	17.5
1010.482	17.48
1010.835	17.62
1011.188	17.8
1011.541	17.87
1011.894	18.01
1012.247	17.98
1012.6	18.07
1012.952	17.95
1013.305	17.99
1013.657	18.11
1014.01	18.24
1014.362	18.35
1014.715	18.39
1015.067	18.3
1015.419	18.35
1015.771	18.29
1016.123	18.36
1016.475	18.27
1016.827	18.43
1017.179	18.56
1017.531	18.68
1017.883	18.76
1018.234	18.89
1018.586	18.95
1018.938	19.04
1019.289	19.17
1019.64	19.29
1019.992	19.31
1020.343	19.51
1020.694	19.56
1021.045	19.45
1021.396	19.52
1021.747	19.57
1022.098	19.67
1022.449	19.71
1022.8	20
1023.151	20.04
1023.501	20.32
1023.852	20.43
1024.202	20.26
1024.553	20.37
1024.903	20.69
1025.253	20.85
1025.604	20.93
1025.954	20.78
1026.304	20.74
1026.654	20.75
1027.004	20.94
1027.354	20.82
1027.703	20.73
1028.053	21.09
1028.403	20.99
1028.753	20.73
1029.102	20.84
1029.452	21.01
1029.801	21.3
1030.15	21.34
1030.499	21.29
897.758	980.27
901.051	985.96
904.343	985.27
907.636	1000.04
910.928	972.34
914.22	972.57
917.511	957.1
920.803	916.93
924.094	909.82
927.384	883.03
930.675	844.76
933.965	845.75
937.255	793.72
940.544	759.4
943.834	724.11
947.123	719.52
950.411	676.88
953.7	664.53
956.988	628.01
960.276	606.13
963.563	595.58
966.851	574.47
970.138	567.92
973.424	550.94
976.711	554.95
979.997	525.7
983.283	521.32
986.568	510.26
989.853	494.7
993.138	484.19
996.423	464.86
999.708	451.74
1002.992	445.41
1006.275	425.38
1009.559	420.68
1012.842	405.27
1016.125	396.3
1019.408	387.31
1022.69	382.3
1025.972	372.36
1029.254	364.62
1032.536	358.01
1035.817	349.45
1039.098	346.19
1042.379	339.62
1045.659	335.82
1048.939	326.03
1052.219	318.45
1055.498	314.4
1058.778	306.2
1062.057	300.45
1065.335	296.84
1068.614	292.38
1071.892	289.33
1075.17	280.4
1078.447	274.02
1081.724	271.43
1085.001	269.23
1088.278	264.08
1091.554	258.3
1094.83	258.11
1098.106	255.87
1101.382	253.46
1104.657	252.01
1107.932	247.46
1111.206	248.63
1114.481	242.87
1117.755	240.62
1121.029	238.49
1124.302	237.48
1127.575	233.53
1130.848	231.07
1134.121	228.87
1137.393	227.19
1140.665	222.17
1143.937	221.23
1147.208	219.25
1150.48	217.91
1153.75	216.22
1157.021	213.31
1160.291	212.87
1163.561	210.29
1166.831	210.78
1170.101	208.52
1173.37	208.73
1176.639	209.21
1179.907	206.94
1183.176	204.16
1186.444	204.64
1189.711	203.2
1192.979	202.65
1196.246	202.08
1199.513	203
1202.78	201.17
1206.046	200.96
1209.312	199.59
1212.578	199.53
1215.843	201.6
1219.108	201
1222.373	204.38
1225.638	205.86
1228.902	208.74
1232.166	209.9
1235.43	210.94
1238.693	214.12
1241.956	215.52
1245.219	218
1248.482	218.06
1251.744	217.64
1255.006	218.48
1258.268	213.11
1261.529	211.76
1264.79	210.36
1268.051	207.7
1271.312	205.68
1274.572	202.92
1277.832	200.67
1281.092	197.5
1284.351	196.29
1287.61	196.37
1290.869	192.77
1294.128	192.08
1297.386	191.39
1300.644	189.26
1303.902	189.97
1307.159	189.46
1310.416	189.02
1313.673	188.59
1316.93	190.91
1320.186	190.59
1323.442	191.32
1326.697	194.85
1329.953	195.57
1333.208	197.05
1336.463	199.92
1339.717	200.34
1342.972	202.12
1346.226	204.31
1349.479	205.45
1352.733	206.17
1355.986	207.28
1359.238	207.08
1362.491	207.86
1365.743	209.88
1368.995	209.5
1372.247	210.59
1375.498	210.22
1378.749	212.55
1382	210.7
1385.251	211.84
1388.501	210.36
1391.751	211.69
1395	211.35
1398.25	210.34
1401.499	209.29
1404.748	209.52
1407.996	206.5
1411.244	206.15
1414.492	204.5
1417.74	202.93
1420.987	200.29
1424.234	200.14
1427.481	197.43
1430.728	197.36
1433.974	195.11
1437.22	193.44
1440.465	193.12
1443.711	191.29
1446.956	189.6
1450.201	188.53
1453.445	186.08
1456.689	185.02
1459.933	181.85
1463.177	181.1
1466.42	177.51
1469.663	175.36
1472.906	174.13
1476.148	169.86
1479.391	168.07
1482.633	166.89
1485.874	163.57
1489.115	162.59
1492.356	160.4
1495.597	159.54
1498.838	156.75
1502.078	156.11
1505.318	155.83
1508.557	155.27
1511.797	154.48
1515.036	153.12
1518.274	151.65
1521.513	150.79
1524.751	150.48
1527.989	149.96
1531.227	149.61
1534.464	149.33
1537.701	147.97
1540.938	147.44
1544.174	145.79
1547.41	145.33
1550.646	144.57
1553.882	145.31
1557.117	143.16
1560.352	141.59
1563.587	141.38
1566.821	140.36
1570.055	138.76
1573.289	137.99
1576.523	137.46
1579.756	136.58
1582.989	135.76
1586.222	135.26
1589.454	134.34
1592.686	134.88
1595.918	134.77
1599.15	133.74
1602.381	134.38
1605.612	134.41
1608.843	134.17
1612.073	134.07
1615.303	134.72
1618.533	134.55
1621.762	134.9
1624.992	135.53
1628.221	135.1
1631.449	134.62
1634.678	134.63
1637.906	134.65
1641.134	135.31
1644.361	135.34
1647.588	135.19
1650.815	134.72
1654.042	134.43
1657.269	134.72
1660.495	134.1
1663.72	133.98
1666.946	135.29
1670.171	135.57
1673.396	135.05
1676.621	135.03
1679.845	135.57
1683.069	136.08
1686.293	136.81
1689.517	138.16
1692.74	138.2
1695.963	138.17
1699.185	139.52
1702.408	139.38
1705.63	140.02
1708.852	140.9
1712.073	140.4
1715.294	140.79
1718.515	141.67
1721.736	141.37
1724.956	141.89
1728.176	141.98
1731.396	143.25
1734.616	143.02
1737.835	143.6
1741.054	142.56
1744.272	143.38
1747.491	144.83
1750.709	145.3
1753.927	145.32
1757.144	145.36
1760.361	145.31
1763.578	145.92
1766.795	145.7
1770.011	146.83
1773.227	146.83
1776.443	148.54
1779.658	148.57
1782.874	148.56
1786.089	148.87
1789.303	149.42
1792.518	151.01
1795.732	151.3
1798.945	152.4
1802.159	152.83
1805.372	153.27
1808.585	155.45
1811.797	156.41
1815.01	157.13
1818.222	158.47
1821.434	160.36
1824.645	160.48
1827.856	162.97
1831.067	164.25
1834.278	163.65
1837.488	165.39
1840.698	166.33
1843.908	165.4
1847.117	165.52
1850.326	166.4
1853.535	166.03
1856.744	167.99
1859.952	168.68
1863.16	167.71
1866.368	167.15
1869.575	169.39
1872.782	167.64
1875.989	167.01
1879.196	167.09
1882.402	167.05
1885.608	167.83
1888.814	168.7
1892.019	168.01
1895.224	168.07
1898.429	167.65
1901.634	168.48
1904.838	168.86
1908.042	170.73
1911.246	171.38
1914.449	172.16
1917.652	172.33
1920.855	171.92
1924.058	172.05
1927.26	171.74
1930.462	171.93
1933.664	173.54
1936.865	172.33
1940.066	172.35
1943.267	170.29
1946.467	171.09
1949.668	171.86
1952.868	173.56
1956.067	173.77
1959.267	174.05
1962.466	174.35
1965.665	174.34
1968.863	174.36
1972.061	178.02
1975.259	178.45
1978.457	180.82
1981.654	182.22
1984.852	182.62
1988.048	182.38
1991.245	184.02
1994.441	185.63
1997.637	186.95
2000.833	190.32
2004.028	192.93
2007.223	193.09
2010.418	195.34
2013.613	198.5
2016.807	200.38
2020.001	202.72
2023.194	205.96
2026.388	209.99
2029.581	214.46
2032.774	217.27
2035.966	219.77
2039.158	220.82
2042.35	224.82
2045.542	227.19
2048.733	229.98
2051.924	232.68
2055.115	236.15
2058.306	236.45
2061.496	238.35
2064.686	238.98
2067.875	242.35
2071.065	244.44
2074.254	243.16
2077.442	245.99
2080.631	246.67
2083.819	249.8
2087.007	250.55
2090.195	252.73
2093.382	254.84
2096.569	254.09
2099.756	258.31
2102.942	258.84
2106.128	261.21
2109.314	267.01
2112.5	265.64
2115.685	271.92
2118.87	272.24
2122.055	278.11
2125.239	279.48
2128.424	284.44
2131.608	285.76
2134.791	288.99
2137.974	289.8
2141.157	290.78
2144.34	291.61
2147.523	296.01
2150.705	293.14
2153.887	296.01
2157.068	295.71
2160.25	294.98
2163.431	295.36
2166.611	299
2169.792	304.21
2172.972	307.31
2176.152	309.53
2179.331	313.16
2182.511	317.91
2185.69	321.49
2188.868	328.1
2192.047	329.34
2195.225	338.24
2198.403	346.32
2201.58	353.07
2204.758	359.83
2207.935	367.83
2211.111	373.9
2214.288	379.3
2217.464	381.15
2220.64	388.22
2223.815	392.55
2226.991	407.36
2230.166	407.76
2233.34	414.08
2236.515	419.24
2239.689	420.4
2242.863	422.81
2246.036	436.01
2249.209	432.64
2252.382	440.62
2255.555	453.26
2258.727	455.12
2261.9	458.19
2265.071	463.74
2268.243	471.58
2271.414	478.36
2274.585	488.4
2277.756	493.77
2280.926	495.97
2284.096	509.74
2287.266	518.48
2290.436	521.71
2293.605	533.44
2296.774	550.59
2299.942	566.12
2303.111	571.48
2306.279	584.26
2309.447	591.1
2312.614	607.32
2315.781	625.53
2318.948	649.8
2322.115	643.06
2325.281	680.62
2328.447	665.14
2331.613	688.56
2334.779	682.95
2337.944	711.98
2341.109	719.95
2344.274	743.2
2347.438	764.36
2350.602	762.4
2353.766	791.77
2356.929	804.35
2360.092	793.97
2363.255	854.29
2366.418	856.57
2369.58	871.76
2372.742	919.96
2375.904	946.15
2379.066	937.72
2382.227	924.55
2385.388	1003.24
2388.548	1001.6
2391.709	1011.8
2394.869	1134.78
2398.029	1084.52
2401.188	1112.94
2404.347	1107.3
2407.506	1093.12
2410.665	1122.66
2413.823	1190.65
2416.981	1263.25
2420.139	1222.23
2423.296	1213.58
2426.453	1264.18
2429.61	1212.63
2432.767	1268.92
2435.923	1255.61
2439.079	1374.7
2442.235	1393.12
2445.391	1378.86
2448.546	1365.71
2451.701	1326.72
2454.855	1327.48
2458.009	1399.71
2461.163	1463.17
2464.317	1516.56
2467.471	1555.9
2470.624	1558.26
2473.777	1514.9
2476.929	1477.31
2480.082	1431.2
2483.234	1420.54
2486.385	1492.93
2489.537	1500.6
2492.688	1554.21
2495.839	1512.5
2498.989	1476.71
2502.14	1483.54
2505.29	1499.83
2508.439	1521.69
2511.589	1516.7
2514.738	1659.35
2517.887	1617.85
2521.035	1700.71
2524.183	1719.16
2527.331	1729.73
2530.479	1715.79
2533.627	1730.97
