Data from C_1_HIR_IL_4N_Splice17_12-49-50-756.txt Node
Date: Sat Mar 07 12:49:50 EST 2020
User: sa697716
Spectrometer: NQ5500242
Trigger mode: 0
Integration Time (sec): 1.450000E-1
Scans to average: 20
Nonlinearity correction enabled: false
Boxcar width: 5
Storing dark spectrum: false
XAxis mode: Wavelengths
Number of Pixels in Spectrum: 512
>>>>>Begin Spectral Data<<<<<
187.83	65.35
188.298	90.8
188.766	80.06
189.233	89.96
189.701	74.71
190.169	76.43
190.636	71.2
191.104	3.55
191.571	-164.53
192.039	-148.65
192.506	-257.06
192.974	189.02
193.441	348.91
193.908	134.15
194.375	128.64
194.842	83.49
195.31	66.88
195.777	82.11
196.244	38.64
196.711	36.29
197.177	38.35
197.644	37.91
198.111	37.46
198.578	37.53
199.045	38.06
199.511	38.37
199.978	38.26
200.445	38.46
200.911	38.38
201.378	38.19
201.844	38.29
202.31	38.15
202.777	38.21
203.243	38.31
203.709	38.24
204.176	38.01
204.642	37.9
205.108	37.94
205.574	38.01
206.04	37.79
206.506	37.58
206.972	37.44
207.438	36.87
207.903	36.52
208.369	35.89
208.835	35.32
209.301	34.89
209.766	33.94
210.232	33.41
210.697	32.52
211.163	31.94
211.628	31.42
212.094	30.8
212.559	30.72
213.024	30.2
213.49	29.67
213.955	29.31
214.42	28.87
214.885	28.36
215.35	27.64
215.815	26.63
216.28	25.4
216.745	23.93
217.21	22.54
217.675	21.24
218.14	20.16
218.604	19.28
219.069	18.45
219.534	17.72
219.998	17.19
220.463	16.75
220.927	16.33
221.392	16
221.856	15.74
222.32	15.51
222.785	15.28
223.249	15.06
223.713	14.85
224.177	14.7
224.642	14.53
225.106	14.32
225.57	14.07
226.034	13.91
226.497	13.74
226.961	13.57
227.425	13.41
227.889	13.24
228.353	13.08
228.816	12.93
229.28	12.77
229.744	12.63
230.207	12.5
230.671	12.36
231.134	12.22
231.597	12.1
232.061	11.96
232.524	11.83
232.987	11.71
233.45	11.6
233.914	11.47
234.377	11.35
234.84	11.22
235.303	11.12
235.766	11.02
236.229	10.91
236.691	10.81
237.154	10.71
237.617	10.62
238.08	10.52
238.542	10.42
239.005	10.32
239.468	10.24
239.93	10.14
240.393	10.04
240.855	9.94
241.317	9.85
241.78	9.74
242.242	9.65
242.704	9.56
243.166	9.48
243.629	9.4
244.091	9.31
244.553	9.22
245.015	9.15
245.477	9.08
245.939	9.02
246.4	8.95
246.862	8.88
247.324	8.82
247.786	8.74
248.247	8.67
248.709	8.6
249.17	8.54
249.632	8.49
250.093	8.44
250.555	8.38
251.016	8.32
251.477	8.26
251.939	8.23
252.4	8.18
252.861	8.14
253.322	8.09
253.783	8.05
254.244	8
254.705	7.95
255.166	7.91
255.627	7.87
256.088	7.83
256.549	7.79
257.009	7.74
257.47	7.69
257.931	7.64
258.391	7.59
258.852	7.54
259.312	7.5
259.773	7.46
260.233	7.42
260.694	7.39
261.154	7.34
261.614	7.31
262.074	7.26
262.534	7.24
262.994	7.22
263.455	7.19
263.915	7.17
264.374	7.15
264.834	7.13
265.294	7.1
265.754	7.08
266.214	7.06
266.673	7.04
267.133	7.03
267.593	7.01
268.052	6.99
268.512	6.98
268.971	6.96
269.431	6.95
269.89	6.93
270.349	6.92
270.809	6.9
271.268	6.88
271.727	6.87
272.186	6.86
272.645	6.85
273.104	6.83
273.563	6.82
274.022	6.8
274.481	6.78
274.94	6.77
275.399	6.75
275.857	6.73
276.316	6.71
276.775	6.69
277.233	6.68
277.692	6.66
278.15	6.63
278.609	6.61
279.067	6.6
279.525	6.58
279.984	6.56
280.442	6.54
280.9	6.52
281.358	6.51
281.816	6.49
282.274	6.46
282.732	6.44
283.19	6.42
283.648	6.39
284.106	6.36
284.564	6.34
285.021	6.32
285.479	6.31
285.937	6.28
286.394	6.26
286.852	6.23
287.309	6.21
287.767	6.18
288.224	6.16
288.682	6.14
289.139	6.12
289.596	6.09
290.053	6.06
290.511	6.04
290.968	6.02
291.425	5.99
291.882	5.97
292.339	5.94
292.796	5.93
293.252	5.91
293.709	5.89
294.166	5.88
294.623	5.87
295.079	5.86
295.536	5.84
295.992	5.83
296.449	5.82
296.905	5.8
297.362	5.79
297.818	5.77
298.274	5.76
298.731	5.75
299.187	5.73
299.643	5.71
300.099	5.7
300.555	5.68
301.011	5.66
301.467	5.65
301.923	5.63
302.379	5.62
302.835	5.61
303.291	5.6
303.746	5.58
304.202	5.57
304.658	5.55
305.113	5.53
305.569	5.52
306.024	5.51
306.479	5.5
306.935	5.5
307.39	5.49
307.845	5.48
308.301	5.46
308.756	5.46
309.211	5.45
309.666	5.45
310.121	5.45
310.576	5.45
311.031	5.43
311.486	5.42
311.94	5.42
312.395	5.4
312.85	5.39
313.305	5.38
313.759	5.37
314.214	5.35
314.668	5.33
315.123	5.32
315.577	5.3
316.032	5.28
316.486	5.27
316.94	5.25
317.394	5.23
317.849	5.22
318.303	5.21
318.757	5.19
319.211	5.18
319.665	5.16
320.119	5.15
320.572	5.13
321.026	5.12
321.48	5.11
321.934	5.1
322.387	5.09
322.841	5.08
323.295	5.07
323.748	5.06
324.202	5.06
324.655	5.05
325.108	5.04
325.562	5.04
326.015	5.04
326.468	5.04
326.921	5.03
327.374	5.02
327.827	5.02
328.28	5
328.733	4.99
329.186	4.98
329.639	4.97
330.092	4.96
330.545	4.96
330.997	4.95
331.45	4.95
331.903	4.95
332.355	4.95
332.808	4.94
333.26	4.94
333.713	4.93
334.165	4.93
334.617	4.93
335.069	4.92
335.522	4.92
335.974	4.92
336.426	4.9
336.878	4.89
337.33	4.88
337.782	4.88
338.234	4.88
338.686	4.88
339.137	4.88
339.589	4.86
340.041	4.86
340.493	4.85
340.944	4.83
341.396	4.82
341.847	4.81
342.299	4.78
342.75	4.76
343.201	4.74
343.653	4.73
344.104	4.71
344.555	4.69
345.006	4.68
345.457	4.66
345.908	4.65
346.359	4.64
346.81	4.64
347.261	4.63
347.712	4.63
348.163	4.62
348.613	4.62
349.064	4.61
349.515	4.61
349.965	4.6
350.416	4.6
350.866	4.59
351.317	4.59
351.767	4.58
352.217	4.58
352.668	4.58
353.118	4.58
353.568	4.57
354.018	4.57
354.468	4.58
354.918	4.58
355.368	4.57
355.818	4.57
356.268	4.57
356.718	4.57
357.168	4.56
357.617	4.56
358.067	4.54
358.517	4.55
358.966	4.54
359.416	4.53
359.865	4.52
360.315	4.52
360.764	4.52
361.213	4.51
361.663	4.5
362.112	4.51
362.561	4.51
363.01	4.51
363.459	4.5
363.908	4.49
364.357	4.49
364.806	4.49
365.255	4.49
365.703	4.5
366.152	4.51
366.601	4.51
367.05	4.5
367.498	4.5
367.947	4.5
368.395	4.5
368.844	4.51
369.292	4.5
369.74	4.5
370.189	4.49
370.637	4.48
371.085	4.47
371.533	4.47
371.981	4.47
372.429	4.46
372.877	4.47
373.325	4.47
373.773	4.48
374.221	4.48
374.669	4.48
375.116	4.49
375.564	4.5
376.012	4.51
376.459	4.51
376.907	4.52
377.354	4.53
377.801	4.53
378.249	4.53
378.696	4.53
379.143	4.53
379.591	4.54
380.038	4.55
380.485	4.55
380.932	4.55
381.379	4.57
381.826	4.58
382.273	4.58
382.72	4.59
383.166	4.6
383.613	4.61
384.06	4.62
384.506	4.64
384.953	4.65
385.4	4.66
385.846	4.67
386.292	4.68
386.739	4.69
387.185	4.7
387.631	4.72
388.078	4.73
388.524	4.74
388.97	4.76
389.416	4.76
389.862	4.77
390.308	4.79
390.754	4.8
391.2	4.82
391.645	4.84
392.091	4.85
392.537	4.88
392.983	4.89
393.428	4.91
393.874	4.92
394.319	4.94
394.765	4.94
395.21	4.95
395.655	4.97
396.101	4.98
396.546	4.99
396.991	5
397.436	5.01
397.881	5.03
398.326	5.05
398.771	5.07
399.216	5.08
399.661	5.11
400.106	5.13
400.551	5.13
400.995	5.15
401.44	5.16
401.885	5.18
402.329	5.19
402.774	5.19
403.218	5.2
403.663	5.21
404.107	5.22
404.551	5.22
404.995	5.22
405.44	5.22
405.884	5.23
406.328	5.23
406.772	5.23
407.216	5.23
407.66	5.23
408.104	5.21
408.547	5.21
408.991	5.22
409.435	5.22
409.879	5.22
410.322	5.23
410.766	5.24
411.209	5.25
411.653	5.27
412.096	5.27
412.54	5.29
412.983	5.29
413.426	5.31
413.869	5.31
414.312	5.33
414.756	5.34
415.199	5.34
415.642	5.34
416.085	5.34
416.527	5.33
416.97	5.33
417.413	5.32
417.856	5.32
418.298	5.3
418.741	5.3
419.184	5.28
419.626	5.27
420.069	5.28
420.511	5.27
420.953	5.27
421.396	5.28
421.838	5.27
422.28	5.28
422.722	5.29
423.164	5.31
423.606	5.3
424.048	5.32
424.49	5.32
424.932	5.3
425.374	5.28
425.816	5.26
426.258	5.24
426.699	5.24
427.141	5.23
427.582	5.22
428.024	5.21
428.465	5.22
428.907	5.21
429.348	5.2
429.789	5.21
430.231	5.22
430.672	5.24
431.113	5.25
431.554	5.25
431.995	5.25
432.436	5.26
432.877	5.26
433.318	5.28
433.759	5.29
434.2	5.31
434.64	5.32
435.081	5.34
435.522	5.34
435.962	5.35
436.403	5.37
436.843	5.37
437.284	5.36
437.724	5.36
438.164	5.34
438.604	5.34
439.045	5.33
439.485	5.33
439.925	5.31
440.365	5.32
440.805	5.32
441.245	5.32
441.685	5.34
442.125	5.37
442.564	5.38
443.004	5.38
443.444	5.4
443.883	5.42
444.323	5.41
444.762	5.43
445.202	5.43
445.641	5.45
446.081	5.46
446.52	5.45
446.959	5.46
447.398	5.47
447.837	5.49
448.276	5.49
448.716	5.5
449.154	5.52
449.593	5.54
450.032	5.54
450.471	5.54
450.91	5.54
451.349	5.56
451.787	5.54
452.226	5.53
452.664	5.53
453.103	5.53
453.541	5.52
453.98	5.53
454.418	5.51
454.856	5.5
455.295	5.49
455.733	5.47
456.171	5.45
456.609	5.45
457.047	5.44
457.485	5.43
457.923	5.44
458.361	5.43
458.798	5.42
459.236	5.41
459.674	5.41
460.111	5.42
460.549	5.43
460.987	5.43
461.424	5.43
461.862	5.44
462.299	5.45
462.736	5.44
463.173	5.45
463.611	5.45
464.048	5.47
464.485	5.47
464.922	5.48
465.359	5.48
465.796	5.49
466.233	5.49
466.67	5.49
467.106	5.5
467.543	5.5
467.98	5.49
468.416	5.49
468.853	5.47
469.29	5.47
469.726	5.46
470.162	5.45
470.599	5.45
471.035	5.43
471.471	5.43
471.907	5.42
472.344	5.42
472.78	5.41
473.216	5.4
473.652	5.41
474.088	5.39
474.523	5.4
474.959	5.39
475.395	5.37
475.831	5.37
476.266	5.37
476.702	5.35
477.138	5.36
477.573	5.35
478.008	5.36
478.444	5.35
478.879	5.37
479.314	5.36
479.75	5.35
480.185	5.34
480.62	5.33
481.055	5.32
481.49	5.32
481.925	5.3
482.36	5.3
482.795	5.29
483.229	5.29
483.664	5.28
484.099	5.28
484.534	5.29
484.968	5.29
485.403	5.3
485.837	5.31
486.271	5.33
486.706	5.33
487.14	5.34
487.574	5.35
488.009	5.37
488.443	5.38
488.877	5.4
489.311	5.42
489.745	5.45
490.179	5.48
490.613	5.5
491.046	5.52
491.48	5.56
491.914	5.59
492.348	5.63
492.781	5.67
493.215	5.71
493.648	5.76
494.082	5.8
494.515	5.84
494.948	5.89
495.382	5.94
495.815	5.99
496.248	6.05
496.681	6.12
497.114	6.19
497.547	6.25
497.98	6.32
498.413	6.38
498.846	6.46
499.279	6.54
499.711	6.62
500.144	6.73
500.577	6.83
501.009	6.93
501.442	7.03
501.874	7.15
502.306	7.27
502.739	7.41
503.171	7.55
503.603	7.68
504.036	7.83
504.468	7.98
504.9	8.12
505.332	8.28
505.764	8.45
506.196	8.62
506.627	8.8
507.059	8.98
507.491	9.16
507.923	9.35
508.354	9.57
508.786	9.78
509.217	10.02
509.649	10.25
510.08	10.49
510.512	10.73
510.943	10.98
511.374	11.23
511.805	11.49
512.237	11.77
512.668	12.05
513.099	12.32
513.53	12.61
513.961	12.89
514.391	13.19
514.822	13.5
515.253	13.8
515.684	14.11
516.114	14.43
516.545	14.75
516.975	15.06
517.406	15.38
517.836	15.71
518.267	16.04
518.697	16.36
519.127	16.66
519.558	16.97
519.988	17.3
520.418	17.61
520.848	17.91
521.278	18.21
521.708	18.65
522.138	18.95
522.567	19.23
522.997	19.5
523.427	19.79
523.857	20.07
524.286	20.34
524.716	20.59
525.145	20.84
525.575	21.11
526.004	21.36
526.433	21.45
526.863	21.67
527.292	21.89
527.721	22.12
528.15	22.31
528.579	22.51
529.008	22.7
529.437	22.87
529.866	23.04
530.295	23.19
530.724	23.35
531.152	23.49
531.581	23.64
532.01	23.76
532.438	23.88
532.867	24
533.295	24.12
533.723	24.22
534.152	24.33
534.58	24.43
535.008	24.52
535.436	24.6
535.865	24.7
536.293	24.78
536.721	24.84
537.149	24.91
537.576	24.97
538.004	25.05
538.432	25.12
538.86	25.16
539.287	25.21
539.715	25.27
540.143	25.32
540.57	25.38
540.998	25.42
541.425	25.47
541.852	25.51
542.28	25.56
542.707	25.58
543.134	25.61
543.561	25.67
543.988	25.71
544.415	25.74
544.842	25.76
545.269	25.78
545.696	25.8
546.123	25.85
546.549	25.87
546.976	25.9
547.403	25.94
547.829	25.96
548.256	25.97
548.682	25.99
549.108	26.01
549.535	26.03
549.961	26.04
550.387	26.04
550.813	26.04
551.24	26.05
551.666	26.04
552.092	26.03
552.518	26.02
552.943	26
553.369	25.98
553.795	25.94
554.221	25.92
554.646	25.88
555.072	25.85
555.498	25.8
555.923	25.73
556.349	25.68
556.774	25.6
557.199	25.53
557.625	25.46
558.05	25.38
558.475	25.3
558.9	25.19
559.325	25.09
559.75	25
560.175	24.88
560.6	24.76
561.025	24.64
561.449	24.54
561.874	24.4
562.299	24.26
562.723	24.12
563.148	23.98
563.572	23.84
563.997	23.7
564.421	23.53
564.846	23.38
565.27	23.24
565.694	23.09
566.118	22.92
566.542	22.76
566.966	22.59
567.39	22.44
567.814	22.28
568.238	22.12
568.662	21.97
569.086	21.82
569.509	21.65
569.933	21.48
570.357	21.32
570.78	21.15
571.204	21
571.627	20.85
572.05	20.68
572.474	20.52
572.897	20.38
573.32	20.22
573.743	20.07
574.166	19.93
574.589	19.78
575.012	19.64
575.435	19.51
575.858	19.37
576.281	19.24
576.704	19.12
577.126	18.99
577.549	18.86
577.972	18.74
578.394	18.62
578.817	18.52
579.239	18.42
579.661	18.33
580.084	18.23
580.506	18.13
580.928	18.03
581.35	17.95
581.772	17.86
582.194	17.78
582.616	17.7
583.038	17.6
583.46	17.51
583.882	17.43
584.303	17.34
584.725	17.26
585.147	17.19
585.568	17.12
585.99	17.05
586.411	16.98
586.833	16.91
587.254	16.84
587.675	16.77
588.096	16.72
588.518	16.66
588.939	16.6
589.36	16.53
589.781	16.48
590.202	16.42
590.623	16.37
591.043	16.31
591.464	16.27
591.885	16.22
592.305	16.19
592.726	16.16
593.147	16.11
593.567	16.07
593.987	16.03
594.408	15.98
594.828	15.97
595.248	15.94
595.669	15.91
596.089	15.87
596.509	15.85
596.929	15.81
597.349	15.77
597.769	15.74
598.189	15.7
598.608	15.68
599.028	15.65
599.448	15.6
599.867	15.55
600.287	15.5
600.706	15.45
601.126	15.4
601.545	15.36
601.965	15.31
602.384	15.25
602.803	15.19
603.222	15.13
603.641	15.06
604.061	15.01
604.48	14.94
604.898	14.86
605.317	14.79
605.736	14.71
606.155	14.63
606.574	14.55
606.992	14.48
607.411	14.39
607.829	14.28
608.248	14.18
608.666	14.08
609.085	14
609.503	13.93
609.921	13.84
610.339	13.76
610.758	13.68
611.176	13.58
611.594	13.49
612.012	13.4
612.43	13.34
612.847	13.26
613.265	13.18
613.683	13.1
614.101	13
614.518	12.93
614.936	12.84
615.353	12.75
615.771	12.69
616.188	12.62
616.606	12.56
617.023	12.49
617.44	12.44
617.857	12.38
618.274	12.31
618.691	12.25
619.108	12.19
619.525	12.15
619.942	12.11
620.359	12.06
620.776	12.02
621.192	11.98
621.609	11.95
622.026	11.9
622.442	11.88
622.859	11.86
623.275	11.84
623.691	11.81
624.108	11.8
624.524	11.78
624.94	11.77
625.356	11.74
625.772	11.73
626.188	11.72
626.604	11.71
627.02	11.69
627.436	11.67
627.852	11.66
628.268	11.66
628.683	11.64
629.099	11.62
629.514	11.6
629.93	11.58
630.345	11.57
630.761	11.53
631.176	11.5
631.591	11.46
632.007	11.42
632.422	11.37
632.837	11.32
633.252	11.26
633.667	11.19
634.082	11.13
634.497	11.06
634.911	10.98
635.326	10.9
635.741	10.82
636.155	10.73
636.57	10.64
636.984	10.55
637.399	10.46
637.813	10.35
638.228	10.25
638.642	10.14
639.056	10.02
639.47	9.9
639.884	9.79
640.298	9.67
640.712	9.55
641.126	9.43
641.54	9.3
641.954	9.18
642.368	9.06
642.781	8.95
643.195	8.84
643.609	8.74
644.022	8.64
644.436	8.53
644.849	8.43
645.262	8.35
645.676	8.26
646.089	8.19
646.502	8.11
646.915	8.05
647.328	7.96
647.741	7.89
648.154	7.83
648.567	7.77
648.98	7.72
649.393	7.68
649.805	7.62
650.218	7.58
650.631	7.54
651.043	7.49
651.456	7.45
651.868	7.42
652.28	7.38
652.693	7.34
653.105	7.29
653.517	7.23
653.929	7.19
654.341	7.13
654.753	7.06
655.165	7
655.577	6.93
655.989	6.86
656.401	6.78
656.813	6.71
657.224	6.63
657.636	6.54
658.047	6.47
658.459	6.38
658.87	6.32
659.282	6.24
659.693	6.15
660.104	6.06
660.515	5.99
660.926	5.92
661.338	5.83
661.749	5.76
662.159	5.69
662.57	5.63
662.981	5.57
663.392	5.51
663.803	5.45
664.213	5.4
664.624	5.36
665.035	5.3
665.445	5.27
665.855	5.23
666.266	5.2
666.676	5.17
667.086	5.14
667.497	5.12
667.907	5.09
668.317	5.08
668.727	5.06
669.137	5.05
669.547	5.04
669.956	5.03
670.366	5.03
670.776	5.02
671.186	5.03
671.595	5.03
672.005	5.03
672.414	5.04
672.824	5.04
673.233	5.05
673.642	5.06
674.052	5.07
674.461	5.07
674.87	5.08
675.279	5.1
675.688	5.11
676.097	5.14
676.506	5.16
676.915	5.19
677.323	5.22
677.732	5.24
678.141	5.27
678.549	5.3
678.958	5.35
679.366	5.4
679.775	5.45
680.183	5.5
680.592	5.55
681	5.61
681.408	5.68
681.816	5.76
682.224	5.86
682.632	5.95
683.04	6.06
683.448	6.17
683.856	6.31
684.264	6.45
684.671	6.63
685.079	6.81
685.487	7.02
685.894	7.26
686.302	7.51
686.709	7.79
687.116	8.1
687.524	8.43
687.931	8.79
688.338	9.18
688.745	9.59
689.152	10.02
689.559	10.5
689.966	10.99
690.373	11.48
690.78	12.01
691.187	12.54
691.593	13.11
692	13.69
692.407	14.29
692.813	14.88
693.22	15.49
693.626	16.1
694.032	16.72
694.439	17.35
694.845	18.01
695.251	18.65
695.657	19.3
696.063	19.94
696.469	20.59
696.875	21.22
697.281	21.87
697.687	22.52
698.093	23.15
698.498	23.77
698.904	24.4
699.31	25
699.715	25.6
700.12	26.19
700.526	26.78
700.931	27.37
701.337	27.94
701.742	28.48
702.147	29.04
702.552	29.6
702.957	30.12
703.362	30.63
703.767	31.13
704.172	31.65
704.577	32.15
704.981	32.62
705.386	33.1
705.791	33.57
706.195	34.05
706.6	34.49
707.004	34.93
707.408	35.38
707.813	35.82
708.217	36.23
708.621	36.65
709.025	37.06
709.43	37.46
709.834	37.87
710.237	38.26
710.641	38.64
711.045	39.01
711.449	39.36
711.853	39.76
712.256	40.11
712.66	40.47
713.064	40.8
713.467	41.13
713.87	41.47
714.274	41.79
714.677	42.11
715.08	42.42
715.484	42.74
715.887	43.1
716.29	43.37
716.693	43.67
717.096	43.98
717.499	44.28
717.901	44.57
718.304	44.84
718.707	45.1
719.109	45.38
719.512	45.64
719.915	45.89
720.317	46.09
720.719	46.31
721.122	46.54
721.524	46.76
721.926	46.96
722.328	47.18
722.731	47.37
723.133	47.6
723.535	47.79
723.937	47.98
724.338	48.15
724.74	48.35
725.142	48.59
725.544	48.74
725.945	48.92
726.347	49.08
726.748	49.24
727.15	49.37
727.551	49.5
727.952	49.63
728.354	49.76
728.755	49.88
729.156	49.99
729.557	50.06
729.958	50.17
730.359	50.26
730.76	50.38
731.161	50.46
731.562	50.6
731.962	50.65
732.363	50.76
732.763	50.86
733.164	50.98
733.564	51.07
733.965	51.14
734.365	51.24
734.766	51.32
735.166	51.37
735.566	51.43
735.966	51.49
736.366	51.6
736.766	51.64
737.166	51.69
737.566	51.73
737.966	51.77
738.365	51.83
738.765	51.87
739.165	51.91
739.564	51.99
739.964	52.05
740.363	52.07
740.763	52.11
741.162	52.15
741.561	52.2
741.96	52.22
742.36	52.27
742.759	52.32
743.158	52.35
743.557	52.36
743.955	52.39
744.354	52.43
744.753	52.48
745.152	52.52
745.55	52.57
745.949	52.61
746.348	52.67
746.746	52.68
747.144	52.71
747.543	52.73
747.941	52.79
748.339	52.79
748.737	52.8
749.136	52.8
749.534	52.79
749.932	52.78
750.33	52.8
750.727	52.82
751.125	52.84
751.523	52.82
751.921	52.85
752.318	52.86
752.716	52.88
753.113	52.93
753.511	52.95
753.908	52.99
754.305	53.01
754.703	53
755.1	52.97
755.497	52.95
755.894	52.95
756.291	52.92
756.688	52.92
757.085	52.92
757.482	52.89
757.878	52.89
758.275	52.85
758.672	52.85
759.068	52.85
759.465	52.85
759.861	52.85
760.258	52.86
760.654	52.88
761.05	52.88
761.447	52.9
761.843	52.88
762.239	52.89
762.635	52.9
763.031	52.9
763.427	52.9
763.822	52.92
764.218	52.95
764.614	52.98
765.01	52.98
765.405	52.95
765.801	52.9
766.196	52.92
766.592	52.9
766.987	52.92
767.382	52.9
767.778	52.9
768.173	52.88
768.568	52.85
768.963	52.82
769.358	52.83
769.753	52.83
770.148	52.85
770.542	52.85
770.937	52.88
771.332	52.87
771.726	52.89
772.121	52.88
772.515	52.9
772.91	52.9
773.304	52.93
773.699	52.89
774.093	52.88
774.487	52.9
774.881	52.91
775.275	52.86
775.669	52.85
776.063	52.82
776.457	52.81
776.851	52.8
777.245	52.79
777.638	52.76
778.032	52.78
778.425	52.82
778.819	52.8
779.212	52.8
779.606	52.85
779.999	52.83
780.392	52.87
780.786	52.9
781.179	52.93
781.572	52.95
781.965	53
782.358	53.05
782.751	53.03
783.143	53.03
783.536	53.03
783.929	53.01
784.322	53.04
784.714	53.04
785.107	53.04
785.499	53.02
785.891	53.02
786.284	53.01
786.676	52.97
787.068	52.97
787.46	52.99
787.852	52.99
788.245	52.97
788.636	52.95
789.028	52.96
789.42	52.93
789.812	52.95
790.204	52.95
790.595	52.93
790.987	52.95
791.378	52.96
791.77	52.96
792.161	52.95
792.553	52.95
792.944	52.96
793.335	52.95
793.726	52.97
794.117	52.94
794.508	52.91
794.899	52.92
795.29	52.91
795.681	52.88
796.072	52.87
796.463	52.88
796.853	52.87
797.244	52.87
797.634	52.87
798.025	52.9
798.415	52.91
798.806	52.91
799.196	52.91
799.586	52.92
799.976	52.9
800.366	52.92
800.756	52.92
801.146	52.92
801.536	52.91
801.926	52.91
802.316	52.91
802.706	52.92
803.095	52.94
803.485	52.94
803.874	52.92
804.264	52.93
804.653	52.91
805.043	52.91
805.432	52.92
805.821	52.95
806.21	52.95
806.599	52.94
806.988	52.91
807.377	52.93
807.766	52.92
808.155	52.9
808.544	52.92
808.933	52.92
809.321	52.91
809.71	52.91
810.098	52.9
810.487	52.9
810.875	52.91
811.264	52.91
811.652	52.89
812.04	52.9
812.428	52.94
812.816	52.91
813.204	52.91
813.592	52.87
813.98	52.88
814.368	52.88
814.756	52.87
815.144	52.84
815.531	52.82
815.919	52.81
816.306	52.81
816.694	52.8
817.081	52.81
817.469	52.81
817.856	52.84
818.243	52.79
818.63	52.74
819.017	52.74
819.404	52.75
819.791	52.76
820.178	52.81
820.565	52.79
820.952	52.78
821.339	52.76
821.725	52.78
822.112	52.78
822.498	52.82
822.885	52.86
823.271	52.87
823.657	52.86
824.044	52.86
824.43	52.82
824.816	52.81
825.202	52.8
825.588	52.82
825.974	52.8
826.36	52.82
826.746	52.82
827.132	52.83
827.517	52.83
827.903	52.85
828.289	52.86
828.674	52.86
829.06	52.89
829.445	52.89
829.83	52.88
830.216	52.86
830.601	52.86
830.986	52.85
831.371	52.81
831.756	52.82
832.141	52.81
832.526	52.8
832.911	52.8
833.295	52.8
833.68	52.8
834.065	52.79
834.449	52.8
834.834	52.81
835.218	52.83
835.603	52.84
835.987	52.8
836.371	52.79
836.755	52.8
837.139	52.81
837.524	52.81
837.908	52.84
838.291	52.85
838.675	52.86
839.059	52.87
839.443	52.84
839.827	52.84
840.21	52.86
840.594	52.89
840.977	52.87
841.361	52.88
841.744	52.85
842.127	52.82
842.511	52.81
842.894	52.79
843.277	52.77
843.66	52.76
844.043	52.77
844.426	52.75
844.809	52.73
845.191	52.76
845.574	52.75
845.957	52.78
846.339	52.78
846.722	52.78
847.104	52.82
847.487	52.83
847.869	52.83
848.252	52.82
848.634	52.82
849.016	52.83
849.398	52.82
849.78	52.83
850.162	52.82
850.544	52.84
850.926	52.84
851.307	52.82
851.689	52.81
852.071	52.82
852.452	52.86
852.834	52.88
853.215	52.85
853.597	52.84
853.978	52.82
854.359	52.82
854.741	52.82
855.122	52.82
855.503	52.83
855.884	52.83
856.265	52.83
856.646	52.8
857.026	52.82
857.407	52.84
857.788	52.84
858.169	52.87
858.549	52.88
858.93	52.86
859.31	52.86
859.69	52.87
860.071	52.88
860.451	52.88
860.831	52.89
861.211	52.86
861.591	52.85
861.971	52.83
862.351	52.83
862.731	52.85
863.111	52.85
863.491	52.85
863.87	52.82
864.25	52.8
864.629	52.8
865.009	52.79
865.388	52.8
865.768	52.79
866.147	52.78
866.526	52.77
866.905	52.77
867.284	52.78
867.663	52.77
868.042	52.8
868.421	52.83
868.8	52.85
869.179	52.86
869.558	52.86
869.936	52.87
870.315	52.89
870.693	52.88
871.072	52.89
871.45	52.88
871.828	52.88
872.207	52.87
872.585	52.85
872.963	52.85
873.341	52.85
873.719	52.87
874.097	52.87
874.475	52.87
874.853	52.89
875.23	52.9
875.608	52.91
875.986	52.93
876.363	52.94
876.741	52.95
877.118	52.93
877.495	52.95
877.873	52.93
878.25	52.98
878.627	52.99
879.004	52.98
879.381	52.96
879.758	52.97
880.135	52.97
880.512	52.97
880.889	52.97
881.265	52.95
881.642	52.95
882.019	52.96
882.395	52.91
882.772	52.91
883.148	52.89
883.524	52.87
883.901	52.87
884.277	52.85
884.653	52.82
885.029	52.79
885.405	52.8
885.781	52.79
886.157	52.77
886.532	52.77
886.908	52.72
887.284	52.72
887.659	52.71
888.035	52.7
888.411	52.7
888.786	52.71
889.161	52.72
889.537	52.72
889.912	52.69
890.287	52.69
890.662	52.69
891.037	52.72
891.412	52.71
891.787	52.71
892.162	52.72
892.536	52.71
892.911	52.7
893.286	52.71
893.66	52.69
894.035	52.71
894.409	52.72
894.784	52.73
895.158	52.71
895.532	52.74
895.906	52.73
896.281	52.72
896.655	52.71
897.029	52.72
897.402	52.72
897.776	52.73
898.15	52.73
898.524	52.74
898.898	52.72
899.271	52.75
899.645	52.76
900.018	52.79
900.392	52.8
900.765	52.84
901.138	52.84
901.511	52.84
901.884	52.85
902.258	52.88
902.631	52.87
903.003	52.89
903.376	52.88
903.749	52.87
904.122	52.87
904.495	52.87
904.867	52.85
905.24	52.88
905.612	52.9
905.985	52.91
906.357	52.87
906.729	52.88
907.102	52.87
907.474	52.9
907.846	52.89
908.218	52.87
908.59	52.92
908.962	52.92
909.334	52.89
909.705	52.85
910.077	52.85
910.449	52.87
910.82	52.88
911.192	52.88
911.563	52.87
911.935	52.84
912.306	52.87
912.677	52.84
913.048	52.84
913.419	52.81
913.79	52.86
914.161	52.84
914.532	52.82
914.903	52.82
915.274	52.82
915.645	52.81
916.015	52.81
916.386	52.77
916.756	52.77
917.127	52.76
917.497	52.77
917.868	52.74
918.238	52.74
918.608	52.76
918.978	52.73
919.348	52.74
919.718	52.73
920.088	52.76
920.458	52.76
920.828	52.74
921.198	52.71
921.567	52.73
921.937	52.74
922.306	52.75
922.676	52.75
923.045	52.76
923.415	52.73
923.784	52.73
924.153	52.73
924.522	52.75
924.891	52.74
925.26	52.77
925.629	52.77
925.998	52.73
926.367	52.73
926.736	52.69
927.104	52.68
927.473	52.68
927.842	52.65
928.21	52.67
928.578	52.61
928.947	52.63
929.315	52.59
929.683	52.57
930.051	52.55
930.42	52.55
930.788	52.5
931.156	52.49
931.523	52.51
931.891	52.53
932.259	52.52
932.627	52.51
932.994	52.5
933.362	52.49
933.729	52.51
934.097	52.53
934.464	52.52
934.831	52.56
935.199	52.55
935.566	52.52
935.933	52.52
936.3	52.48
936.667	52.49
937.034	52.45
937.401	52.48
937.767	52.48
938.134	52.49
938.501	52.47
938.867	52.5
939.234	52.5
939.6	52.49
939.967	52.47
940.333	52.45
940.699	52.49
941.065	52.48
941.431	52.45
941.798	52.4
942.163	52.35
942.529	52.32
942.895	52.3
943.261	52.27
943.627	52.28
943.992	52.24
944.358	52.25
944.723	52.21
945.089	52.14
945.454	52.19
945.82	52.2
946.185	52.23
946.55	52.21
946.915	52.23
947.28	52.2
947.645	52.18
948.01	52.2
948.375	52.19
948.74	52.18
949.104	52.26
949.469	52.2
949.834	52.15
950.198	52.09
950.562	52.03
950.927	51.95
951.291	51.92
951.655	51.82
952.02	51.78
952.384	51.79
952.748	51.7
953.112	51.68
953.476	51.65
953.839	51.62
954.203	51.65
954.567	51.69
954.931	51.66
955.294	51.64
955.658	51.7
956.021	51.7
956.385	51.66
956.748	51.65
957.111	51.66
957.474	51.69
957.837	51.72
958.2	51.67
958.563	51.65
958.926	51.7
959.289	51.74
959.652	51.73
960.015	51.7
960.377	51.7
960.74	51.77
961.102	51.76
961.465	51.78
961.827	51.77
962.189	51.77
962.552	51.73
962.914	51.7
963.276	51.69
963.638	51.68
964	51.67
964.362	51.67
964.724	51.6
965.085	51.63
965.447	51.59
965.809	51.56
966.17	51.54
966.532	51.59
966.893	51.64
967.255	51.73
967.616	51.7
967.977	51.72
968.338	51.7
968.699	51.71
969.061	51.68
969.421	51.69
969.782	51.73
970.143	51.74
970.504	51.75
970.865	51.72
971.225	51.64
971.586	51.66
971.946	51.66
972.307	51.7
972.667	51.66
973.027	51.62
973.388	51.6
973.748	51.63
974.108	51.7
974.468	51.66
974.828	51.69
975.188	51.7
975.548	51.66
975.907	51.63
976.267	51.61
976.627	51.67
976.986	51.64
977.346	51.62
977.705	51.52
978.064	51.47
978.424	51.49
978.783	51.43
979.142	51.39
979.501	51.44
979.86	51.5
980.219	51.49
980.578	51.54
980.937	51.62
981.296	51.63
981.654	51.69
982.013	51.67
982.371	51.67
982.73	51.69
983.088	51.68
983.447	51.69
983.805	51.66
984.163	51.6
984.521	51.57
984.879	51.5
985.237	51.52
985.595	51.6
985.953	51.55
986.311	51.48
986.669	51.45
987.026	51.46
987.384	51.49
987.741	51.48
988.099	51.51
988.456	51.44
988.814	51.51
989.171	51.49
989.528	51.45
989.885	51.56
990.242	51.59
990.599	51.6
990.956	51.57
991.313	51.5
991.67	51.36
992.027	51.43
992.383	51.56
992.74	51.57
993.096	51.56
993.453	51.48
993.809	51.43
994.165	51.51
994.522	51.6
994.878	51.64
995.234	51.73
995.59	51.89
995.946	51.88
996.302	51.81
996.658	51.85
997.013	51.78
997.369	51.74
997.725	51.7
998.08	51.62
998.436	51.63
998.791	51.72
999.147	51.59
999.502	51.63
999.857	51.62
1000.212	51.48
1000.567	51.38
1000.922	51.5
1001.277	51.63
1001.632	51.59
1001.987	51.65
1002.342	51.49
1002.696	51.41
1003.051	51.69
1003.406	51.71
1003.76	51.71
1004.114	51.79
1004.469	51.8
1004.823	51.94
1005.177	51.86
1005.531	51.99
1005.885	51.96
1006.239	52.15
1006.593	52.23
1006.947	52.07
1007.301	52.02
1007.655	52.08
1008.008	52.17
1008.362	52.24
1008.715	52.05
1009.069	52.13
1009.422	52.05
1009.776	52.01
1010.129	51.9
1010.482	51.83
1010.835	51.72
1011.188	51.68
1011.541	51.68
1011.894	51.71
1012.247	51.55
1012.6	51.67
1012.952	51.55
1013.305	51.66
1013.657	51.71
1014.01	51.81
1014.362	51.85
1014.715	51.99
1015.067	52.19
1015.419	52.24
1015.771	52.15
1016.123	52.23
1016.475	52.11
1016.827	52.2
1017.179	52.14
1017.531	52.06
1017.883	52.03
1018.234	51.99
1018.586	51.96
1018.938	51.81
1019.289	51.5
1019.64	51.46
1019.992	51.51
1020.343	51.63
1020.694	51.73
1021.045	51.85
1021.396	51.95
1021.747	51.98
1022.098	52.1
1022.449	52.03
1022.8	52.14
1023.151	52.41
1023.501	52.54
1023.852	52.51
1024.202	52.28
1024.553	52.08
1024.903	52.08
1025.253	52.28
1025.604	52.29
1025.954	51.87
1026.304	51.91
1026.654	52.01
1027.004	51.62
1027.354	51.56
1027.703	51.42
1028.053	51.56
1028.403	51.62
1028.753	51.06
1029.102	50.9
1029.452	50.85
1029.801	51.19
1030.15	51.08
1030.499	50.7
897.758	1015.07
901.051	1022.07
904.343	1019.09
907.636	1037
910.928	1008.38
914.22	1011.06
917.511	1000.17
920.803	958.55
924.094	952.66
927.384	929.37
930.675	894.46
933.965	891.19
937.255	839.41
940.544	807.06
943.834	769.84
947.123	765.66
950.411	722
953.7	706.16
956.988	670.76
960.276	645.57
963.563	635.52
966.851	613.65
970.138	609.29
973.424	591.4
976.711	593.82
979.997	565.9
983.283	562.35
986.568	549.91
989.853	533.68
993.138	524.22
996.423	504.6
999.708	491.38
1002.992	486.05
1006.275	463.75
1009.559	460.5
1012.842	445.22
1016.125	434.14
1019.408	426.68
1022.69	420.8
1025.972	412.67
1029.254	403.03
1032.536	397.24
1035.817	390.08
1039.098	385.31
1042.379	378.05
1045.659	373.7
1048.939	364.31
1052.219	357.75
1055.498	352.09
1058.778	345.24
1062.057	337.85
1065.335	334.91
1068.614	331.21
1071.892	327.07
1075.17	318.58
1078.447	312.59
1081.724	310.5
1085.001	309.12
1088.278	302.5
1091.554	296.69
1094.83	296.91
1098.106	294.86
1101.382	293.18
1104.657	290.95
1107.932	286.37
1111.206	286.76
1114.481	281.16
1117.755	278.46
1121.029	276.28
1124.302	276.39
1127.575	271.98
1130.848	268.41
1134.121	266.29
1137.393	263.83
1140.665	258.54
1143.937	257.16
1147.208	255.51
1150.48	254.72
1153.75	251.92
1157.021	248.58
1160.291	248.73
1163.561	246.42
1166.831	246.38
1170.101	244.44
1173.37	244.65
1176.639	245.47
1179.907	243.79
1183.176	240.69
1186.444	240.79
1189.711	240.2
1192.979	240.37
1196.246	238
1199.513	239.55
1202.78	238.15
1206.046	237.71
1209.312	235.58
1212.578	235.78
1215.843	237.24
1219.108	236.56
1222.373	240.6
1225.638	242.06
1228.902	243.55
1232.166	245.05
1235.43	245.7
1238.693	249.54
1241.956	251.02
1245.219	254.79
1248.482	254.36
1251.744	254.14
1255.006	254.54
1258.268	248.8
1261.529	247.12
1264.79	246.49
1268.051	244.07
1271.312	241.83
1274.572	238.68
1277.832	237.22
1281.092	232.34
1284.351	231.36
1287.61	231.33
1290.869	229.08
1294.128	227.84
1297.386	227.91
1300.644	225.03
1303.902	226.12
1307.159	225.24
1310.416	224.87
1313.673	223.87
1316.93	227.62
1320.186	227.41
1323.442	227.29
1326.697	229.82
1329.953	230.7
1333.208	231.13
1336.463	234.05
1339.717	234.35
1342.972	236.36
1346.226	238.32
1349.479	239.19
1352.733	239.24
1355.986	240.68
1359.238	241.22
1362.491	242.23
1365.743	243.85
1368.995	243.35
1372.247	242.91
1375.498	242.39
1378.749	244.84
1382	241.35
1385.251	241.73
1388.501	239.63
1391.751	239.23
1395	238.11
1398.25	236.39
1401.499	234
1404.748	233.3
1407.996	230.16
1411.244	229.05
1414.492	226.31
1417.74	224.46
1420.987	221.25
1424.234	220.19
1427.481	216.95
1430.728	216.15
1433.974	213.97
1437.22	212.51
1440.465	212.33
1443.711	210.62
1446.956	208.87
1450.201	206.19
1453.445	204.28
1456.689	203.37
1459.933	200.81
1463.177	199.6
1466.42	196.44
1469.663	194.18
1472.906	192.91
1476.148	188.71
1479.391	186.12
1482.633	185.22
1485.874	182.96
1489.115	181.67
1492.356	180.54
1495.597	179.62
1498.838	177.54
1502.078	176.8
1505.318	176.68
1508.557	176.93
1511.797	176.57
1515.036	176.15
1518.274	174.91
1521.513	174.82
1524.751	174.7
1527.989	173.8
1531.227	173.7
1534.464	174.04
1537.701	172.94
1540.938	172.64
1544.174	170.85
1547.41	170.58
1550.646	170.18
1553.882	171.15
1557.117	168.49
1560.352	168.31
1563.587	167.9
1566.821	167.08
1570.055	165.95
1573.289	165.12
1576.523	164.74
1579.756	163.76
1582.989	163.41
1586.222	162.98
1589.454	161.83
1592.686	163.16
1595.918	162.17
1599.15	161.99
1602.381	162.36
1605.612	162.04
1608.843	162.81
1612.073	162.77
1615.303	163.39
1618.533	163.46
1621.762	164.19
1624.992	164.28
1628.221	163.97
1631.449	163.9
1634.678	163.59
1637.906	164.78
1641.134	164.83
1644.361	164.44
1647.588	164.56
1650.815	164.08
1654.042	163.32
1657.269	164.16
1660.495	164.61
1663.72	164.22
1666.946	165.19
1670.171	165.8
1673.396	164.96
1676.621	165.27
1679.845	165.38
1683.069	165.63
1686.293	166.77
1689.517	167.78
1692.74	167.35
1695.963	167.42
1699.185	169.15
1702.408	168.53
1705.63	169.32
1708.852	169.8
1712.073	169.68
1715.294	170.2
1718.515	171.06
1721.736	170.61
1724.956	171.29
1728.176	171.22
1731.396	172.63
1734.616	172.12
1737.835	173.02
1741.054	170.67
1744.272	171.63
1747.491	173.36
1750.709	173.16
1753.927	172.98
1757.144	172.62
1760.361	173.11
1763.578	173.46
1766.795	172.93
1770.011	173.36
1773.227	173.1
1776.443	175.75
1779.658	175.42
1782.874	175.35
1786.089	176.31
1789.303	176.68
1792.518	178.66
1795.732	177.89
1798.945	179.18
1802.159	179.55
1805.372	180.71
1808.585	183.13
1811.797	183.49
1815.01	183.86
1818.222	184.68
1821.434	186.23
1824.645	186.85
1827.856	189.33
1831.067	191.2
1834.278	190.98
1837.488	192.1
1840.698	192.8
1843.908	191.63
1847.117	192.37
1850.326	193.38
1853.535	192.05
1856.744	194.39
1859.952	193.63
1863.16	191.87
1866.368	190.14
1869.575	190.63
1872.782	187.56
1875.989	185.49
1879.196	184.49
1882.402	182.71
1885.608	182.67
1888.814	182.54
1892.019	180.64
1895.224	180.04
1898.429	179.15
1901.634	179.31
1904.838	179.17
1908.042	180.97
1911.246	181.13
1914.449	181.89
1917.652	181.66
1920.855	181
1924.058	180.75
1927.26	179.97
1930.462	180.2
1933.664	182.2
1936.865	181.53
1940.066	180.85
1943.267	178.4
1946.467	179.14
1949.668	180.22
1952.868	182.33
1956.067	182.79
1959.267	183.6
1962.466	183.8
1965.665	183.55
1968.863	183.15
1972.061	186.15
1975.259	187.63
1978.457	190.35
1981.654	191.69
1984.852	192.21
1988.048	191.68
1991.245	193.29
1994.441	195.93
1997.637	197.05
2000.833	200.75
2004.028	204.5
2007.223	205.21
2010.418	207.6
2013.613	211.48
2016.807	214.33
2020.001	216
2023.194	219.44
2026.388	224.43
2029.581	228.34
2032.774	231.55
2035.966	234.93
2039.158	235.32
2042.35	239.67
2045.542	241.96
2048.733	244.42
2051.924	247.19
2055.115	252.12
2058.306	252.57
2061.496	255.23
2064.686	255.2
2067.875	259.45
2071.065	261.63
2074.254	260.16
2077.442	262.61
2080.631	262.94
2083.819	266.14
2087.007	267.23
2090.195	269.52
2093.382	272.2
2096.569	270.57
2099.756	275.94
2102.942	276.84
2106.128	279.05
2109.314	284.69
2112.5	284.13
2115.685	291.93
2118.87	292.59
2122.055	298.51
2125.239	300.07
2128.424	304.55
2131.608	305.11
2134.791	308.81
2137.974	310.11
2141.157	311.28
2144.34	312.76
2147.523	316.91
2150.705	313.96
2153.887	316.9
2157.068	317.31
2160.25	314.61
2163.431	315.29
2166.611	320.92
2169.792	324.72
2172.972	328.61
2176.152	330.8
2179.331	335.25
2182.511	340.29
2185.69	343.68
2188.868	350.6
2192.047	350.78
2195.225	361.44
2198.403	370.23
2201.58	375.91
2204.758	384.73
2207.935	391.4
2211.111	398.3
2214.288	403.26
2217.464	405.19
2220.64	412.03
2223.815	416.7
2226.991	433.46
2230.166	433.42
2233.34	439.54
2236.515	446.95
2239.689	446.76
2242.863	448.02
2246.036	460.38
2249.209	456.49
2252.382	463.34
2255.555	476.44
2258.727	478.16
2261.9	481.9
2265.071	487.69
2268.243	496.19
2271.414	501.83
2274.585	511.96
2277.756	517.61
2280.926	521.22
2284.096	533.99
2287.266	544.29
2290.436	547.59
2293.605	559.93
2296.774	575.2
2299.942	589.85
2303.111	593.24
2306.279	605.9
2309.447	613.73
2312.614	631.77
2315.781	649.06
2318.948	676.02
2322.115	668.3
2325.281	706.65
2328.447	690.74
2331.613	716.34
2334.779	711.32
2337.944	743.47
2341.109	749.28
2344.274	771.08
2347.438	794.17
2350.602	792.14
2353.766	819.61
2356.929	832.83
2360.092	820.51
2363.255	880.57
2366.418	880.41
2369.58	897.41
2372.742	947.12
2375.904	974.11
2379.066	969.24
2382.227	953.3
2385.388	1034.5
2388.548	1028.86
2391.709	1041.03
2394.869	1166.64
2398.029	1119.59
2401.188	1148.24
2404.347	1142.79
2407.506	1126.76
2410.665	1155.28
2413.823	1221.74
2416.981	1293.57
2420.139	1253.91
2423.296	1247.25
2426.453	1298.93
2429.61	1252.45
2432.767	1305.26
2435.923	1294.74
2439.079	1409.61
2442.235	1429.22
2445.391	1417.3
2448.546	1411.11
2451.701	1367.49
2454.855	1365.79
2458.009	1439.81
2461.163	1504.67
2464.317	1551.46
2467.471	1595.5
2470.624	1593.21
2473.777	1556.33
2476.929	1517.96
2480.082	1473.06
2483.234	1454.57
2486.385	1530.95
2489.537	1534.45
2492.688	1592.15
2495.839	1545.66
2498.989	1514.58
2502.14	1520.35
2505.29	1534.13
2508.439	1560.95
2511.589	1554.26
2514.738	1699.19
2517.887	1663.1
2521.035	1750.32
2524.183	1766.69
2527.331	1781.52
2530.479	1772.01
2533.627	1781.26
