Data from C_1_HIR_IL_4N_Splice17_12-47-35-638.txt Node
Date: Sat Mar 07 12:47:35 EST 2020
User: sa697716
Spectrometer: NQ5500242
Trigger mode: 0
Integration Time (sec): 1.450000E-1
Scans to average: 20
Nonlinearity correction enabled: false
Boxcar width: 5
Storing dark spectrum: false
XAxis mode: Wavelengths
Number of Pixels in Spectrum: 512
>>>>>Begin Spectral Data<<<<<
187.83	128.27
188.298	149.28
188.766	125.48
189.233	92.94
189.701	95.35
190.169	107.01
190.636	89.34
191.104	27.8
191.571	-99.58
192.039	-116.27
192.506	-363.1
192.974	189.39
193.441	280.3
193.908	93.32
194.375	39
194.842	-15.12
195.31	-78.4
195.777	-412.87
196.244	-2.74
196.711	27.73
197.177	33.81
197.644	33.78
198.111	33.48
198.578	34.64
199.045	34.91
199.511	35.05
199.978	35.35
200.445	35.85
200.911	36.05
201.378	36.08
201.844	35.98
202.31	35.47
202.777	35.89
203.243	36.07
203.709	35.94
204.176	36.17
204.642	36.19
205.108	36.14
205.574	35.93
206.04	35.53
206.506	35.23
206.972	35.6
207.438	35.53
207.903	35.14
208.369	34.43
208.835	33.66
209.301	32.93
209.766	32.15
210.232	31.58
210.697	31.18
211.163	30.8
211.628	30.33
212.094	29.54
212.559	28.95
213.024	28.26
213.49	27.86
213.955	27.46
214.42	26.91
214.885	26.36
215.35	25.59
215.815	24.34
216.28	22.95
216.745	21.55
217.21	20.11
217.675	18.94
218.14	17.98
218.604	17.04
219.069	16.27
219.534	15.62
219.998	15.05
220.463	14.59
220.927	14.18
221.392	13.9
221.856	13.61
222.32	13.35
222.785	13.14
223.249	12.92
223.713	12.71
224.177	12.54
224.642	12.39
225.106	12.24
225.57	12.08
226.034	11.94
226.497	11.78
226.961	11.64
227.425	11.51
227.889	11.36
228.353	11.22
228.816	11.09
229.28	10.94
229.744	10.83
230.207	10.69
230.671	10.57
231.134	10.44
231.597	10.33
232.061	10.22
232.524	10.11
232.987	10.01
233.45	9.92
233.914	9.82
234.377	9.72
234.84	9.6
235.303	9.52
235.766	9.43
236.229	9.34
236.691	9.25
237.154	9.17
237.617	9.08
238.08	8.99
238.542	8.9
239.005	8.83
239.468	8.73
239.93	8.66
240.393	8.58
240.855	8.5
241.317	8.42
241.78	8.34
242.242	8.26
242.704	8.2
243.166	8.14
243.629	8.08
244.091	8
244.553	7.94
245.015	7.89
245.477	7.82
245.939	7.75
246.4	7.69
246.862	7.64
247.324	7.6
247.786	7.53
248.247	7.47
248.709	7.41
249.17	7.35
249.632	7.31
250.093	7.26
250.555	7.22
251.016	7.17
251.477	7.13
251.939	7.09
252.4	7.04
252.861	7
253.322	6.96
253.783	6.93
254.244	6.9
254.705	6.85
255.166	6.82
255.627	6.78
256.088	6.75
256.549	6.72
257.009	6.69
257.47	6.65
257.931	6.61
258.391	6.57
258.852	6.53
259.312	6.51
259.773	6.48
260.233	6.45
260.694	6.42
261.154	6.38
261.614	6.35
262.074	6.32
262.534	6.29
262.994	6.26
263.455	6.24
263.915	6.22
264.374	6.19
264.834	6.17
265.294	6.15
265.754	6.14
266.214	6.12
266.673	6.1
267.133	6.09
267.593	6.08
268.052	6.07
268.512	6.06
268.971	6.05
269.431	6.04
269.89	6.02
270.349	6.02
270.809	6
271.268	5.99
271.727	5.98
272.186	5.97
272.645	5.96
273.104	5.94
273.563	5.92
274.022	5.91
274.481	5.9
274.94	5.89
275.399	5.87
275.857	5.85
276.316	5.84
276.775	5.82
277.233	5.8
277.692	5.79
278.15	5.77
278.609	5.76
279.067	5.74
279.525	5.72
279.984	5.7
280.442	5.69
280.9	5.67
281.358	5.65
281.816	5.64
282.274	5.62
282.732	5.6
283.19	5.58
283.648	5.56
284.106	5.53
284.564	5.51
285.021	5.5
285.479	5.48
285.937	5.46
286.394	5.44
286.852	5.41
287.309	5.38
287.767	5.37
288.224	5.34
288.682	5.32
289.139	5.31
289.596	5.29
290.053	5.26
290.511	5.24
290.968	5.22
291.425	5.2
291.882	5.19
292.339	5.17
292.796	5.16
293.252	5.15
293.709	5.14
294.166	5.12
294.623	5.11
295.079	5.09
295.536	5.08
295.992	5.07
296.449	5.06
296.905	5.04
297.362	5.03
297.818	5.01
298.274	5
298.731	4.98
299.187	4.96
299.643	4.95
300.099	4.94
300.555	4.92
301.011	4.91
301.467	4.9
301.923	4.88
302.379	4.87
302.835	4.86
303.291	4.85
303.746	4.84
304.202	4.83
304.658	4.82
305.113	4.8
305.569	4.8
306.024	4.79
306.479	4.78
306.935	4.77
307.39	4.77
307.845	4.75
308.301	4.75
308.756	4.74
309.211	4.73
309.666	4.73
310.121	4.72
310.576	4.71
311.031	4.7
311.486	4.7
311.94	4.68
312.395	4.67
312.85	4.67
313.305	4.66
313.759	4.66
314.214	4.65
314.668	4.63
315.123	4.62
315.577	4.62
316.032	4.6
316.486	4.59
316.94	4.58
317.394	4.57
317.849	4.55
318.303	4.53
318.757	4.52
319.211	4.5
319.665	4.48
320.119	4.47
320.572	4.46
321.026	4.46
321.48	4.45
321.934	4.43
322.387	4.41
322.841	4.4
323.295	4.4
323.748	4.4
324.202	4.39
324.655	4.38
325.108	4.38
325.562	4.37
326.015	4.36
326.468	4.36
326.921	4.36
327.374	4.36
327.827	4.35
328.28	4.34
328.733	4.33
329.186	4.33
329.639	4.33
330.092	4.33
330.545	4.32
330.997	4.31
331.45	4.31
331.903	4.3
332.355	4.3
332.808	4.3
333.26	4.3
333.713	4.29
334.165	4.28
334.617	4.27
335.069	4.27
335.522	4.27
335.974	4.28
336.426	4.27
336.878	4.26
337.33	4.25
337.782	4.25
338.234	4.25
338.686	4.25
339.137	4.25
339.589	4.23
340.041	4.22
340.493	4.21
340.944	4.19
341.396	4.18
341.847	4.18
342.299	4.15
342.75	4.13
343.201	4.12
343.653	4.11
344.104	4.09
344.555	4.09
345.006	4.08
345.457	4.08
345.908	4.07
346.359	4.07
346.81	4.06
347.261	4.06
347.712	4.06
348.163	4.05
348.613	4.06
349.064	4.05
349.515	4.05
349.965	4.04
350.416	4.02
350.866	4.02
351.317	4.01
351.767	4.01
352.217	4
352.668	4
353.118	3.99
353.568	3.98
354.018	3.97
354.468	3.97
354.918	3.97
355.368	3.97
355.818	3.97
356.268	3.97
356.718	3.97
357.168	3.96
357.617	3.95
358.067	3.94
358.517	3.96
358.966	3.96
359.416	3.96
359.865	3.95
360.315	3.96
360.764	3.96
361.213	3.95
361.663	3.94
362.112	3.95
362.561	3.96
363.01	3.96
363.459	3.93
363.908	3.94
364.357	3.94
364.806	3.93
365.255	3.92
365.703	3.92
366.152	3.93
366.601	3.93
367.05	3.92
367.498	3.92
367.947	3.92
368.395	3.93
368.844	3.92
369.292	3.92
369.74	3.93
370.189	3.93
370.637	3.93
371.085	3.92
371.533	3.93
371.981	3.93
372.429	3.94
372.877	3.94
373.325	3.94
373.773	3.94
374.221	3.94
374.669	3.94
375.116	3.94
375.564	3.95
376.012	3.96
376.459	3.96
376.907	3.97
377.354	3.98
377.801	3.99
378.249	3.99
378.696	3.99
379.143	4
379.591	4.01
380.038	4.02
380.485	4.03
380.932	4.04
381.379	4.05
381.826	4.06
382.273	4.07
382.72	4.08
383.166	4.08
383.613	4.1
384.06	4.11
384.506	4.12
384.953	4.13
385.4	4.16
385.846	4.18
386.292	4.18
386.739	4.2
387.185	4.21
387.631	4.23
388.078	4.26
388.524	4.27
388.97	4.29
389.416	4.31
389.862	4.33
390.308	4.33
390.754	4.36
391.2	4.37
391.645	4.39
392.091	4.41
392.537	4.42
392.983	4.44
393.428	4.46
393.874	4.47
394.319	4.48
394.765	4.5
395.21	4.51
395.655	4.53
396.101	4.55
396.546	4.55
396.991	4.57
397.436	4.58
397.881	4.6
398.326	4.62
398.771	4.63
399.216	4.65
399.661	4.66
400.106	4.67
400.551	4.67
400.995	4.67
401.44	4.68
401.885	4.68
402.329	4.68
402.774	4.68
403.218	4.7
403.663	4.7
404.107	4.7
404.551	4.7
404.995	4.71
405.44	4.71
405.884	4.71
406.328	4.72
406.772	4.72
407.216	4.72
407.66	4.72
408.104	4.71
408.547	4.7
408.991	4.7
409.435	4.7
409.879	4.71
410.322	4.72
410.766	4.73
411.209	4.74
411.653	4.76
412.096	4.77
412.54	4.76
412.983	4.77
413.426	4.8
413.869	4.79
414.312	4.81
414.756	4.81
415.199	4.8
415.642	4.8
416.085	4.79
416.527	4.76
416.97	4.75
417.413	4.75
417.856	4.76
418.298	4.74
418.741	4.74
419.184	4.73
419.626	4.73
420.069	4.74
420.511	4.72
420.953	4.72
421.396	4.74
421.838	4.74
422.28	4.73
422.722	4.74
423.164	4.74
423.606	4.73
424.048	4.74
424.49	4.74
424.932	4.74
425.374	4.74
425.816	4.71
426.258	4.69
426.699	4.68
427.141	4.67
427.582	4.67
428.024	4.67
428.465	4.67
428.907	4.65
429.348	4.62
429.789	4.61
430.231	4.63
430.672	4.64
431.113	4.67
431.554	4.67
431.995	4.68
432.436	4.68
432.877	4.69
433.318	4.7
433.759	4.72
434.2	4.74
434.64	4.76
435.081	4.76
435.522	4.77
435.962	4.77
436.403	4.8
436.843	4.82
437.284	4.81
437.724	4.81
438.164	4.81
438.604	4.81
439.045	4.8
439.485	4.79
439.925	4.79
440.365	4.79
440.805	4.78
441.245	4.78
441.685	4.78
442.125	4.8
442.564	4.82
443.004	4.82
443.444	4.82
443.883	4.82
444.323	4.84
444.762	4.85
445.202	4.84
445.641	4.86
446.081	4.87
446.52	4.86
446.959	4.88
447.398	4.88
447.837	4.88
448.276	4.9
448.716	4.91
449.154	4.92
449.593	4.93
450.032	4.92
450.471	4.91
450.91	4.91
451.349	4.91
451.787	4.91
452.226	4.9
452.664	4.9
453.103	4.9
453.541	4.9
453.98	4.9
454.418	4.89
454.856	4.9
455.295	4.89
455.733	4.86
456.171	4.84
456.609	4.83
457.047	4.82
457.485	4.8
457.923	4.81
458.361	4.8
458.798	4.8
459.236	4.79
459.674	4.79
460.111	4.8
460.549	4.81
460.987	4.82
461.424	4.82
461.862	4.83
462.299	4.84
462.736	4.82
463.173	4.82
463.611	4.82
464.048	4.83
464.485	4.82
464.922	4.82
465.359	4.83
465.796	4.84
466.233	4.85
466.67	4.87
467.106	4.87
467.543	4.88
467.98	4.86
468.416	4.86
468.853	4.84
469.29	4.85
469.726	4.85
470.162	4.84
470.599	4.84
471.035	4.83
471.471	4.82
471.907	4.81
472.344	4.8
472.78	4.81
473.216	4.8
473.652	4.8
474.088	4.79
474.523	4.79
474.959	4.78
475.395	4.76
475.831	4.76
476.266	4.77
476.702	4.75
477.138	4.75
477.573	4.75
478.008	4.76
478.444	4.75
478.879	4.76
479.314	4.74
479.75	4.75
480.185	4.73
480.62	4.72
481.055	4.7
481.49	4.7
481.925	4.7
482.36	4.7
482.795	4.69
483.229	4.69
483.664	4.7
484.099	4.7
484.534	4.7
484.968	4.71
485.403	4.72
485.837	4.72
486.271	4.73
486.706	4.74
487.14	4.74
487.574	4.76
488.009	4.76
488.443	4.77
488.877	4.79
489.311	4.81
489.745	4.84
490.179	4.87
490.613	4.89
491.046	4.92
491.48	4.95
491.914	4.98
492.348	5.02
492.781	5.06
493.215	5.11
493.648	5.15
494.082	5.19
494.515	5.23
494.948	5.28
495.382	5.33
495.815	5.39
496.248	5.45
496.681	5.52
497.114	5.59
497.547	5.65
497.98	5.71
498.413	5.78
498.846	5.86
499.279	5.94
499.711	6.02
500.144	6.11
500.577	6.2
501.009	6.31
501.442	6.41
501.874	6.52
502.306	6.63
502.739	6.77
503.171	6.89
503.603	7.03
504.036	7.18
504.468	7.33
504.9	7.47
505.332	7.62
505.764	7.78
506.196	7.95
506.627	8.13
507.059	8.31
507.491	8.49
507.923	8.7
508.354	8.91
508.786	9.12
509.217	9.35
509.649	9.58
510.08	9.81
510.512	10.05
510.943	10.29
511.374	10.54
511.805	10.79
512.237	11.04
512.668	11.3
513.099	11.56
513.53	11.82
513.961	12.09
514.391	12.36
514.822	12.64
515.253	12.92
515.684	13.21
516.114	13.5
516.545	13.79
516.975	14.1
517.406	14.42
517.836	14.72
518.267	15.04
518.697	15.34
519.127	15.63
519.558	15.94
519.988	16.24
520.418	16.52
520.848	16.81
521.278	17.1
521.708	17.51
522.138	17.78
522.567	18.05
522.997	18.3
523.427	18.57
523.857	18.83
524.286	19.08
524.716	19.33
525.145	19.58
525.575	19.81
526.004	20.05
526.433	20.14
526.863	20.34
527.292	20.56
527.721	20.75
528.15	20.93
528.579	21.1
529.008	21.26
529.437	21.41
529.866	21.57
530.295	21.72
530.724	21.85
531.152	21.98
531.581	22.12
532.01	22.24
532.438	22.35
532.867	22.47
533.295	22.58
533.723	22.69
534.152	22.78
534.58	22.86
535.008	22.92
535.436	22.99
535.865	23.05
536.293	23.11
536.721	23.16
537.149	23.22
537.576	23.28
538.004	23.32
538.432	23.38
538.86	23.42
539.287	23.46
539.715	23.53
540.143	23.58
540.57	23.63
540.998	23.67
541.425	23.71
541.852	23.73
542.28	23.78
542.707	23.82
543.134	23.85
543.561	23.89
543.988	23.93
544.415	23.93
544.842	23.96
545.269	23.99
545.696	24.02
546.123	24.04
546.549	24.07
546.976	24.09
547.403	24.11
547.829	24.12
548.256	24.14
548.682	24.15
549.108	24.19
549.535	24.2
549.961	24.2
550.387	24.19
550.813	24.21
551.24	24.21
551.666	24.18
552.092	24.18
552.518	24.17
552.943	24.15
553.369	24.13
553.795	24.09
554.221	24.06
554.646	24.02
555.072	23.98
555.498	23.91
555.923	23.85
556.349	23.79
556.774	23.72
557.199	23.65
557.625	23.57
558.05	23.49
558.475	23.4
558.9	23.31
559.325	23.24
559.75	23.15
560.175	23.06
560.6	22.95
561.025	22.85
561.449	22.74
561.874	22.63
562.299	22.52
562.723	22.4
563.148	22.27
563.572	22.13
563.997	21.97
564.421	21.83
564.846	21.68
565.27	21.53
565.694	21.38
566.118	21.23
566.542	21.08
566.966	20.92
567.39	20.77
567.814	20.61
568.238	20.46
568.662	20.32
569.086	20.17
569.509	20.02
569.933	19.87
570.357	19.73
570.78	19.57
571.204	19.42
571.627	19.27
572.05	19.12
572.474	18.97
572.897	18.83
573.32	18.69
573.743	18.54
574.166	18.42
574.589	18.29
575.012	18.16
575.435	18.05
575.858	17.92
576.281	17.8
576.704	17.69
577.126	17.59
577.549	17.47
577.972	17.36
578.394	17.26
578.817	17.16
579.239	17.05
579.661	16.96
580.084	16.86
580.506	16.77
580.928	16.69
581.35	16.6
581.772	16.5
582.194	16.43
582.616	16.34
583.038	16.26
583.46	16.18
583.882	16.11
584.303	16.03
584.725	15.94
585.147	15.87
585.568	15.8
585.99	15.73
586.411	15.65
586.833	15.59
587.254	15.52
587.675	15.46
588.096	15.4
588.518	15.33
588.939	15.27
589.36	15.22
589.781	15.18
590.202	15.14
590.623	15.09
591.043	15.04
591.464	15
591.885	14.97
592.305	14.93
592.726	14.91
593.147	14.87
593.567	14.84
593.987	14.8
594.408	14.76
594.828	14.73
595.248	14.7
595.669	14.67
596.089	14.65
596.509	14.62
596.929	14.58
597.349	14.53
597.769	14.51
598.189	14.46
598.608	14.44
599.028	14.41
599.448	14.36
599.867	14.31
600.287	14.28
600.706	14.23
601.126	14.18
601.545	14.14
601.965	14.1
602.384	14.05
602.803	13.99
603.222	13.92
603.641	13.87
604.061	13.81
604.48	13.74
604.898	13.67
605.317	13.59
605.736	13.53
606.155	13.45
606.574	13.36
606.992	13.28
607.411	13.21
607.829	13.11
608.248	13.03
608.666	12.95
609.085	12.88
609.503	12.8
609.921	12.74
610.339	12.64
610.758	12.56
611.176	12.48
611.594	12.41
612.012	12.32
612.43	12.26
612.847	12.18
613.265	12.09
613.683	12
614.101	11.92
614.518	11.84
614.936	11.76
615.353	11.69
615.771	11.61
616.188	11.54
616.606	11.48
617.023	11.41
617.44	11.35
617.857	11.3
618.274	11.24
618.691	11.18
619.108	11.13
619.525	11.09
619.942	11.05
620.359	11.02
620.776	10.98
621.192	10.95
621.609	10.92
622.026	10.89
622.442	10.87
622.859	10.85
623.275	10.83
623.691	10.81
624.108	10.79
624.524	10.78
624.94	10.76
625.356	10.75
625.772	10.74
626.188	10.72
626.604	10.71
627.02	10.69
627.436	10.67
627.852	10.66
628.268	10.64
628.683	10.63
629.099	10.62
629.514	10.6
629.93	10.57
630.345	10.55
630.761	10.52
631.176	10.5
631.591	10.46
632.007	10.43
632.422	10.39
632.837	10.35
633.252	10.29
633.667	10.23
634.082	10.16
634.497	10.1
634.911	10.02
635.326	9.94
635.741	9.86
636.155	9.76
636.57	9.68
636.984	9.6
637.399	9.5
637.813	9.39
638.228	9.29
638.642	9.19
639.056	9.08
639.47	8.98
639.884	8.89
640.298	8.77
640.712	8.67
641.126	8.56
641.54	8.45
641.954	8.33
642.368	8.23
642.781	8.13
643.195	8.03
643.609	7.92
644.022	7.82
644.436	7.71
644.849	7.62
645.262	7.53
645.676	7.45
646.089	7.37
646.502	7.3
646.915	7.23
647.328	7.17
647.741	7.11
648.154	7.05
648.567	7.01
648.98	6.95
649.393	6.91
649.805	6.87
650.218	6.82
650.631	6.78
651.043	6.74
651.456	6.7
651.868	6.66
652.28	6.62
652.693	6.58
653.105	6.54
653.517	6.5
653.929	6.44
654.341	6.38
654.753	6.32
655.165	6.26
655.577	6.2
655.989	6.13
656.401	6.06
656.813	6
657.224	5.93
657.636	5.84
658.047	5.79
658.459	5.71
658.87	5.64
659.282	5.56
659.693	5.49
660.104	5.42
660.515	5.35
660.926	5.27
661.338	5.2
661.749	5.13
662.159	5.07
662.57	5.01
662.981	4.96
663.392	4.91
663.803	4.86
664.213	4.8
664.624	4.75
665.035	4.7
665.445	4.67
665.855	4.64
666.266	4.61
666.676	4.59
667.086	4.55
667.497	4.53
667.907	4.5
668.317	4.49
668.727	4.48
669.137	4.47
669.547	4.47
669.956	4.46
670.366	4.45
670.776	4.44
671.186	4.43
671.595	4.43
672.005	4.45
672.414	4.46
672.824	4.47
673.233	4.48
673.642	4.49
674.052	4.5
674.461	4.51
674.87	4.52
675.279	4.55
675.688	4.58
676.097	4.61
676.506	4.63
676.915	4.64
677.323	4.67
677.732	4.7
678.141	4.74
678.549	4.78
678.958	4.83
679.366	4.88
679.775	4.91
680.183	4.96
680.592	5.02
681	5.09
681.408	5.16
681.816	5.24
682.224	5.33
682.632	5.43
683.04	5.53
683.448	5.64
683.856	5.78
684.264	5.93
684.671	6.08
685.079	6.25
685.487	6.45
685.894	6.67
686.302	6.92
686.709	7.2
687.116	7.49
687.524	7.8
687.931	8.14
688.338	8.5
688.745	8.9
689.152	9.31
689.559	9.76
689.966	10.21
690.373	10.7
690.78	11.2
691.187	11.71
691.593	12.24
692	12.79
692.407	13.34
692.813	13.93
693.22	14.5
693.626	15.07
694.032	15.65
694.439	16.25
694.845	16.85
695.251	17.43
695.657	18.01
696.063	18.61
696.469	19.2
696.875	19.79
697.281	20.38
697.687	20.97
698.093	21.56
698.498	22.13
698.904	22.71
699.31	23.26
699.715	23.8
700.12	24.36
700.526	24.91
700.931	25.45
701.337	25.97
701.742	26.47
702.147	26.97
702.552	27.46
702.957	27.93
703.362	28.41
703.767	28.87
704.172	29.34
704.577	29.79
704.981	30.23
705.386	30.65
705.791	31.07
706.195	31.49
706.6	31.91
707.004	32.31
707.408	32.73
707.813	33.13
708.217	33.52
708.621	33.92
709.025	34.29
709.43	34.65
709.834	35.04
710.237	35.38
710.641	35.75
711.045	36.08
711.449	36.41
711.853	36.77
712.256	37.09
712.66	37.41
713.064	37.7
713.467	38
713.87	38.29
714.274	38.57
714.677	38.87
715.08	39.14
715.484	39.44
715.887	39.72
716.29	39.95
716.693	40.21
717.096	40.49
717.499	40.77
717.901	41.04
718.304	41.3
718.707	41.56
719.109	41.8
719.512	42.05
719.915	42.27
720.317	42.47
720.719	42.68
721.122	42.89
721.524	43.1
721.926	43.3
722.328	43.48
722.731	43.68
723.133	43.87
723.535	44.06
723.937	44.21
724.338	44.38
724.74	44.58
725.142	44.82
725.544	44.97
725.945	45.14
726.347	45.27
726.748	45.41
727.15	45.56
727.551	45.69
727.952	45.8
728.354	45.93
728.755	46.06
729.156	46.16
729.557	46.21
729.958	46.33
730.359	46.41
730.76	46.52
731.161	46.62
731.562	46.73
731.962	46.8
732.363	46.91
732.763	47
733.164	47.08
733.564	47.17
733.965	47.23
734.365	47.29
734.766	47.35
735.166	47.4
735.566	47.46
735.966	47.5
736.366	47.55
736.766	47.59
737.166	47.64
737.566	47.69
737.966	47.73
738.365	47.79
738.765	47.86
739.165	47.9
739.564	47.96
739.964	47.99
740.363	48.03
740.763	48.08
741.162	48.12
741.561	48.15
741.96	48.18
742.36	48.2
742.759	48.24
743.158	48.26
743.557	48.3
743.955	48.34
744.354	48.38
744.753	48.43
745.152	48.46
745.55	48.5
745.949	48.52
746.348	48.54
746.746	48.57
747.144	48.6
747.543	48.63
747.941	48.66
748.339	48.64
748.737	48.65
749.136	48.63
749.534	48.62
749.932	48.61
750.33	48.6
750.727	48.6
751.125	48.62
751.523	48.6
751.921	48.61
752.318	48.62
752.716	48.64
753.113	48.67
753.511	48.71
753.908	48.75
754.305	48.78
754.703	48.8
755.1	48.82
755.497	48.81
755.894	48.81
756.291	48.78
756.688	48.77
757.085	48.76
757.482	48.74
757.878	48.69
758.275	48.66
758.672	48.64
759.068	48.64
759.465	48.63
759.861	48.62
760.258	48.61
760.654	48.64
761.05	48.66
761.447	48.66
761.843	48.66
762.239	48.68
762.635	48.7
763.031	48.72
763.427	48.7
763.822	48.72
764.218	48.75
764.614	48.79
765.01	48.78
765.405	48.77
765.801	48.76
766.196	48.78
766.592	48.79
766.987	48.78
767.382	48.76
767.778	48.79
768.173	48.79
768.568	48.76
768.963	48.74
769.358	48.76
769.753	48.74
770.148	48.74
770.542	48.71
770.937	48.73
771.332	48.74
771.726	48.74
772.121	48.73
772.515	48.75
772.91	48.75
773.304	48.78
773.699	48.76
774.093	48.77
774.487	48.78
774.881	48.81
775.275	48.79
775.669	48.75
776.063	48.74
776.457	48.74
776.851	48.72
777.245	48.69
777.638	48.67
778.032	48.68
778.425	48.71
778.819	48.7
779.212	48.71
779.606	48.71
779.999	48.72
780.392	48.77
780.786	48.77
781.179	48.78
781.572	48.84
781.965	48.84
782.358	48.85
782.751	48.83
783.143	48.85
783.536	48.84
783.929	48.84
784.322	48.84
784.714	48.82
785.107	48.81
785.499	48.8
785.891	48.78
786.284	48.8
786.676	48.8
787.068	48.79
787.46	48.81
787.852	48.81
788.245	48.78
788.636	48.81
789.028	48.81
789.42	48.82
789.812	48.82
790.204	48.84
790.595	48.84
790.987	48.84
791.378	48.9
791.77	48.89
792.161	48.88
792.553	48.91
792.944	48.87
793.335	48.89
793.726	48.89
794.117	48.89
794.508	48.86
794.899	48.84
795.29	48.84
795.681	48.79
796.072	48.79
796.463	48.79
796.853	48.76
797.244	48.8
797.634	48.81
798.025	48.81
798.415	48.78
798.806	48.79
799.196	48.78
799.586	48.77
799.976	48.77
800.366	48.77
800.756	48.8
801.146	48.84
801.536	48.83
801.926	48.8
802.316	48.82
802.706	48.85
803.095	48.86
803.485	48.86
803.874	48.86
804.264	48.85
804.653	48.82
805.043	48.81
805.432	48.78
805.821	48.79
806.21	48.8
806.599	48.82
806.988	48.82
807.377	48.81
807.766	48.8
808.155	48.8
808.544	48.85
808.933	48.86
809.321	48.83
809.71	48.85
810.098	48.82
810.487	48.8
810.875	48.8
811.264	48.77
811.652	48.77
812.04	48.79
812.428	48.8
812.816	48.75
813.204	48.74
813.592	48.73
813.98	48.73
814.368	48.75
814.756	48.72
815.144	48.7
815.531	48.72
815.919	48.71
816.306	48.7
816.694	48.7
817.081	48.71
817.469	48.73
817.856	48.72
818.243	48.72
818.63	48.71
819.017	48.71
819.404	48.69
819.791	48.66
820.178	48.7
820.565	48.68
820.952	48.66
821.339	48.66
821.725	48.66
822.112	48.7
822.498	48.73
822.885	48.75
823.271	48.77
823.657	48.75
824.044	48.78
824.43	48.77
824.816	48.8
825.202	48.78
825.588	48.8
825.974	48.78
826.36	48.76
826.746	48.73
827.132	48.71
827.517	48.72
827.903	48.75
828.289	48.77
828.674	48.75
829.06	48.73
829.445	48.75
829.83	48.75
830.216	48.76
830.601	48.77
830.986	48.78
831.371	48.79
831.756	48.79
832.141	48.82
832.526	48.79
832.911	48.81
833.295	48.82
833.68	48.85
834.065	48.84
834.449	48.86
834.834	48.84
835.218	48.84
835.603	48.83
835.987	48.81
836.371	48.79
836.755	48.82
837.139	48.8
837.524	48.79
837.908	48.78
838.291	48.8
838.675	48.8
839.059	48.83
839.443	48.83
839.827	48.85
840.21	48.87
840.594	48.87
840.977	48.86
841.361	48.89
841.744	48.87
842.127	48.85
842.511	48.84
842.894	48.82
843.277	48.8
843.66	48.79
844.043	48.79
844.426	48.79
844.809	48.79
845.191	48.79
845.574	48.75
845.957	48.77
846.339	48.78
846.722	48.79
847.104	48.82
847.487	48.82
847.869	48.82
848.252	48.8
848.634	48.82
849.016	48.83
849.398	48.84
849.78	48.86
850.162	48.87
850.544	48.88
850.926	48.87
851.307	48.87
851.689	48.89
852.071	48.9
852.452	48.91
852.834	48.89
853.215	48.9
853.597	48.89
853.978	48.9
854.359	48.9
854.741	48.9
855.122	48.9
855.503	48.89
855.884	48.86
856.265	48.87
856.646	48.87
857.026	48.88
857.407	48.87
857.788	48.87
858.169	48.89
858.549	48.88
858.93	48.88
859.31	48.89
859.69	48.88
860.071	48.92
860.451	48.93
860.831	48.93
861.211	48.9
861.591	48.92
861.971	48.91
862.351	48.91
862.731	48.92
863.111	48.91
863.491	48.89
863.87	48.89
864.25	48.89
864.629	48.89
865.009	48.88
865.388	48.88
865.768	48.86
866.147	48.86
866.526	48.84
866.905	48.83
867.284	48.83
867.663	48.85
868.042	48.86
868.421	48.84
868.8	48.85
869.179	48.87
869.558	48.89
869.936	48.9
870.315	48.88
870.693	48.9
871.072	48.89
871.45	48.91
871.828	48.91
872.207	48.92
872.585	48.91
872.963	48.9
873.341	48.89
873.719	48.88
874.097	48.87
874.475	48.9
874.853	48.89
875.23	48.92
875.608	48.89
875.986	48.92
876.363	48.91
876.741	48.91
877.118	48.91
877.495	48.93
877.873	48.94
878.25	48.95
878.627	48.96
879.004	48.99
879.381	48.98
879.758	48.97
880.135	48.96
880.512	48.96
880.889	48.97
881.265	48.96
881.642	48.97
882.019	48.97
882.395	48.99
882.772	48.99
883.148	48.95
883.524	48.96
883.901	48.98
884.277	48.95
884.653	48.91
885.029	48.9
885.405	48.91
885.781	48.91
886.157	48.88
886.532	48.86
886.908	48.82
887.284	48.83
887.659	48.79
888.035	48.76
888.411	48.76
888.786	48.78
889.161	48.78
889.537	48.77
889.912	48.75
890.287	48.76
890.662	48.75
891.037	48.77
891.412	48.75
891.787	48.76
892.162	48.78
892.536	48.8
892.911	48.79
893.286	48.81
893.66	48.81
894.035	48.84
894.409	48.82
894.784	48.81
895.158	48.81
895.532	48.84
895.906	48.83
896.281	48.85
896.655	48.82
897.029	48.83
897.402	48.8
897.776	48.79
898.15	48.8
898.524	48.82
898.898	48.85
899.271	48.86
899.645	48.87
900.018	48.88
900.392	48.89
900.765	48.9
901.138	48.9
901.511	48.93
901.884	48.95
902.258	48.94
902.631	48.92
903.003	48.91
903.376	48.89
903.749	48.85
904.122	48.86
904.495	48.84
904.867	48.85
905.24	48.87
905.612	48.88
905.985	48.85
906.357	48.85
906.729	48.89
907.102	48.9
907.474	48.92
907.846	48.93
908.218	48.93
908.59	48.93
908.962	48.95
909.334	48.93
909.705	48.91
910.077	48.91
910.449	48.9
910.82	48.87
911.192	48.89
911.563	48.86
911.935	48.86
912.306	48.85
912.677	48.86
913.048	48.86
913.419	48.85
913.79	48.86
914.161	48.89
914.532	48.88
914.903	48.91
915.274	48.89
915.645	48.91
916.015	48.92
916.386	48.93
916.756	48.92
917.127	48.9
917.497	48.91
917.868	48.89
918.238	48.86
918.608	48.87
918.978	48.84
919.348	48.84
919.718	48.82
920.088	48.82
920.458	48.82
920.828	48.78
921.198	48.79
921.567	48.79
921.937	48.82
922.306	48.82
922.676	48.82
923.045	48.8
923.415	48.78
923.784	48.81
924.153	48.83
924.522	48.81
924.891	48.79
925.26	48.79
925.629	48.76
925.998	48.74
926.367	48.75
926.736	48.74
927.104	48.76
927.473	48.75
927.842	48.73
928.21	48.72
928.578	48.67
928.947	48.69
929.315	48.64
929.683	48.63
930.051	48.59
930.42	48.56
930.788	48.53
931.156	48.48
931.523	48.46
931.891	48.47
932.259	48.44
932.627	48.47
932.994	48.45
933.362	48.48
933.729	48.48
934.097	48.5
934.464	48.5
934.831	48.52
935.199	48.52
935.566	48.5
935.933	48.52
936.3	48.49
936.667	48.49
937.034	48.53
937.401	48.52
937.767	48.53
938.134	48.5
938.501	48.51
938.867	48.51
939.234	48.5
939.6	48.52
939.967	48.45
940.333	48.49
940.699	48.55
941.065	48.48
941.431	48.52
941.798	48.51
942.163	48.52
942.529	48.5
942.895	48.5
943.261	48.53
943.627	48.53
943.992	48.52
944.358	48.49
944.723	48.44
945.089	48.44
945.454	48.44
945.82	48.43
946.185	48.47
946.55	48.42
946.915	48.43
947.28	48.41
947.645	48.45
948.01	48.46
948.375	48.45
948.74	48.46
949.104	48.45
949.469	48.45
949.834	48.41
950.198	48.38
950.562	48.38
950.927	48.31
951.291	48.24
951.655	48.15
952.02	48.15
952.384	48.12
952.748	48.07
953.112	48.05
953.476	47.97
953.839	47.93
954.203	47.86
954.567	47.82
954.931	47.83
955.294	47.81
955.658	47.85
956.021	47.83
956.385	47.79
956.748	47.77
957.111	47.75
957.474	47.74
957.837	47.72
958.2	47.74
958.563	47.76
958.926	47.75
959.289	47.8
959.652	47.76
960.015	47.72
960.377	47.75
960.74	47.79
961.102	47.82
961.465	47.84
961.827	47.88
962.189	47.85
962.552	47.81
962.914	47.8
963.276	47.82
963.638	47.81
964	47.75
964.362	47.75
964.724	47.66
965.085	47.59
965.447	47.62
965.809	47.61
966.17	47.63
966.532	47.61
966.893	47.63
967.255	47.59
967.616	47.59
967.977	47.63
968.338	47.61
968.699	47.65
969.061	47.65
969.421	47.63
969.782	47.63
970.143	47.67
970.504	47.68
970.865	47.66
971.225	47.64
971.586	47.64
971.946	47.64
972.307	47.63
972.667	47.65
973.027	47.69
973.388	47.65
973.748	47.62
974.108	47.66
974.468	47.67
974.828	47.74
975.188	47.74
975.548	47.69
975.907	47.67
976.267	47.58
976.627	47.55
976.986	47.53
977.346	47.49
977.705	47.48
978.064	47.41
978.424	47.39
978.783	47.32
979.142	47.31
979.501	47.36
979.86	47.39
980.219	47.43
980.578	47.44
980.937	47.45
981.296	47.46
981.654	47.49
982.013	47.52
982.371	47.54
982.73	47.57
983.088	47.56
983.447	47.51
983.805	47.5
984.163	47.5
984.521	47.48
984.879	47.44
985.237	47.51
985.595	47.48
985.953	47.4
986.311	47.35
986.669	47.29
987.026	47.25
987.384	47.32
987.741	47.27
988.099	47.27
988.456	47.29
988.814	47.33
989.171	47.23
989.528	47.24
989.885	47.26
990.242	47.27
990.599	47.3
990.956	47.36
991.313	47.34
991.67	47.38
992.027	47.43
992.383	47.46
992.74	47.51
993.096	47.57
993.453	47.51
993.809	47.55
994.165	47.65
994.522	47.62
994.878	47.62
995.234	47.68
995.59	47.67
995.946	47.62
996.302	47.62
996.658	47.62
997.013	47.6
997.369	47.7
997.725	47.7
998.08	47.69
998.436	47.65
998.791	47.67
999.147	47.63
999.502	47.64
999.857	47.58
1000.212	47.5
1000.567	47.4
1000.922	47.39
1001.277	47.38
1001.632	47.29
1001.987	47.24
1002.342	47.35
1002.696	47.43
1003.051	47.45
1003.406	47.56
1003.76	47.68
1004.114	47.69
1004.469	47.73
1004.823	48.01
1005.177	47.97
1005.531	48.14
1005.885	48.13
1006.239	48.13
1006.593	48.08
1006.947	48.07
1007.301	47.85
1007.655	47.86
1008.008	47.94
1008.362	47.97
1008.715	47.65
1009.069	47.65
1009.422	47.55
1009.776	47.54
1010.129	47.54
1010.482	47.51
1010.835	47.45
1011.188	47.66
1011.541	47.62
1011.894	47.52
1012.247	47.48
1012.6	47.51
1012.952	47.52
1013.305	47.57
1013.657	47.78
1014.01	47.75
1014.362	47.76
1014.715	47.79
1015.067	47.61
1015.419	47.8
1015.771	47.81
1016.123	47.92
1016.475	47.97
1016.827	48.04
1017.179	47.93
1017.531	47.73
1017.883	47.75
1018.234	47.78
1018.586	47.9
1018.938	48.05
1019.289	47.68
1019.64	47.71
1019.992	47.6
1020.343	47.49
1020.694	47.45
1021.045	47.61
1021.396	47.72
1021.747	47.73
1022.098	47.7
1022.449	47.64
1022.8	47.73
1023.151	47.89
1023.501	47.93
1023.852	48.14
1024.202	47.95
1024.553	47.92
1024.903	47.93
1025.253	47.9
1025.604	47.85
1025.954	47.65
1026.304	47.74
1026.654	47.63
1027.004	47.67
1027.354	47.62
1027.703	47.35
1028.053	47.67
1028.403	47.52
1028.753	47.15
1029.102	47.26
1029.452	47.46
1029.801	47.82
1030.15	47.65
1030.499	47.6
897.758	985.55
901.051	990.36
904.343	993.02
907.636	1010.38
910.928	983.01
914.22	985.92
917.511	971.67
920.803	929.49
924.094	926.15
927.384	904.07
930.675	866.65
933.965	867.29
937.255	817.28
940.544	781.98
943.834	746.44
947.123	741.18
950.411	697.74
953.7	685.65
956.988	651.92
960.276	627.02
963.563	615.02
966.851	593.35
970.138	588.67
973.424	571.02
976.711	575.58
979.997	547.28
983.283	542.74
986.568	531.23
989.853	517.52
993.138	507.3
996.423	487.42
999.708	475.24
1002.992	469.08
1006.275	448.48
1009.559	444.34
1012.842	428.31
1016.125	418.9
1019.408	411.31
1022.69	406.34
1025.972	396.17
1029.254	387.79
1032.536	382.44
1035.817	373.96
1039.098	371.11
1042.379	363.84
1045.659	360.36
1048.939	351.72
1052.219	344.5
1055.498	339.62
1058.778	331.78
1062.057	325.52
1065.335	322.43
1068.614	318.24
1071.892	315.85
1075.17	305.96
1078.447	299.86
1081.724	297.65
1085.001	295.36
1088.278	289.3
1091.554	284.5
1094.83	284.28
1098.106	282.56
1101.382	280.46
1104.657	278.41
1107.932	274.27
1111.206	276.17
1114.481	269.87
1117.755	267.2
1121.029	264.99
1124.302	264.63
1127.575	260.48
1130.848	257.97
1134.121	255.46
1137.393	253.66
1140.665	248.79
1143.937	247.33
1147.208	245.21
1150.48	244.7
1153.75	242.62
1157.021	239.98
1160.291	239.88
1163.561	237.09
1166.831	237.2
1170.101	235.03
1173.37	235.49
1176.639	236.3
1179.907	233.44
1183.176	231.03
1186.444	231.04
1189.711	230.06
1192.979	228.72
1196.246	227.83
1199.513	229.22
1202.78	227.16
1206.046	226.88
1209.312	224.52
1212.578	224.62
1215.843	227.15
1219.108	225.48
1222.373	229.58
1225.638	230.9
1228.902	234.29
1232.166	234.6
1235.43	235.35
1238.693	238.8
1241.956	239.88
1245.219	243.16
1248.482	242.65
1251.744	242.09
1255.006	243.65
1258.268	238.09
1261.529	236.54
1264.79	234.95
1268.051	233.62
1271.312	230.76
1274.572	228.47
1277.832	226.85
1281.092	222.87
1284.351	222.03
1287.61	221.99
1290.869	218.32
1294.128	217.25
1297.386	217.2
1300.644	214.84
1303.902	215.45
1307.159	215.5
1310.416	214.91
1313.673	214.14
1316.93	216.91
1320.186	216.1
1323.442	216.62
1326.697	220.13
1329.953	220.49
1333.208	221.24
1336.463	223.84
1339.717	223.7
1342.972	225.22
1346.226	227.56
1349.479	228.54
1352.733	229.03
1355.986	230.48
1359.238	230.26
1362.491	230.76
1365.743	232.95
1368.995	232.58
1372.247	232.47
1375.498	232.03
1378.749	234.1
1382	230.64
1385.251	231.25
1388.501	228.78
1391.751	229.08
1395	228.17
1398.25	226.98
1401.499	224.74
1404.748	224.15
1407.996	221.4
1411.244	220.34
1414.492	218
1417.74	215.84
1420.987	212.91
1424.234	212.52
1427.481	209.09
1430.728	208.84
1433.974	206.68
1437.22	204.68
1440.465	204.15
1443.711	201.89
1446.956	200.51
1450.201	199.35
1453.445	197.14
1456.689	196.04
1459.933	193.44
1463.177	193.08
1466.42	189.13
1469.663	186.95
1472.906	186.27
1476.148	182.02
1479.391	180.39
1482.633	178.98
1485.874	175.74
1489.115	175.02
1492.356	173
1495.597	172.18
1498.838	169.69
1502.078	169.49
1505.318	169.21
1508.557	169.02
1511.797	168.66
1515.036	167.94
1518.274	166.82
1521.513	166.72
1524.751	166.34
1527.989	166.22
1531.227	165.99
1534.464	166.15
1537.701	165
1540.938	164.6
1544.174	162.87
1547.41	163.13
1550.646	162.19
1553.882	163.32
1557.117	160.87
1560.352	160.16
1563.587	160.2
1566.821	159.35
1570.055	158.09
1573.289	157.44
1576.523	157.07
1579.756	156.47
1582.989	155.35
1586.222	155.03
1589.454	153.8
1592.686	155.31
1595.918	154.89
1599.15	154.04
1602.381	154.38
1605.612	154.4
1608.843	154.49
1612.073	154.45
1615.303	155.18
1618.533	155.42
1621.762	156
1624.992	156.58
1628.221	155.74
1631.449	155.35
1634.678	155.58
1637.906	156.35
1641.134	156.5
1644.361	156.52
1647.588	156.32
1650.815	155.79
1654.042	155.38
1657.269	155.83
1660.495	155.59
1663.72	155.7
1666.946	156.87
1670.171	157.16
1673.396	156.27
1676.621	156.48
1679.845	156.95
1683.069	157.37
1686.293	158.37
1689.517	159.33
1692.74	159.28
1695.963	159.23
1699.185	160.21
1702.408	160.08
1705.63	160.74
1708.852	161.55
1712.073	161.13
1715.294	161.41
1718.515	162.48
1721.736	161.91
1724.956	162.32
1728.176	162.41
1731.396	163.65
1734.616	163.43
1737.835	164.03
1741.054	162.47
1744.272	163.3
1747.491	164.57
1750.709	165.36
1753.927	165.14
1757.144	164.67
1760.361	164.97
1763.578	165.25
1766.795	165.15
1770.011	165.66
1773.227	165.71
1776.443	167.58
1779.658	167.52
1782.874	167.8
1786.089	167.64
1789.303	168.06
1792.518	169.85
1795.732	169.91
1798.945	171.01
1802.159	171.48
1805.372	172
1808.585	174.12
1811.797	175.18
1815.01	175.14
1818.222	176.19
1821.434	178.03
1824.645	178.28
1827.856	180.81
1831.067	181.94
1834.278	181.13
1837.488	182.41
1840.698	183.56
1843.908	182.34
1847.117	182.25
1850.326	183.51
1853.535	181.84
1856.744	183.21
1859.952	183.14
1863.16	181.75
1866.368	180.77
1869.575	182.61
1872.782	179.15
1875.989	177.67
1879.196	176.58
1882.402	175.34
1885.608	175.4
1888.814	176.02
1892.019	174.14
1895.224	173.28
1898.429	172.52
1901.634	172.78
1904.838	171.79
1908.042	173.66
1911.246	173.87
1914.449	174.78
1917.652	173.76
1920.855	173.49
1924.058	173.85
1927.26	173.34
1930.462	173.47
1933.664	175.1
1936.865	173.49
1940.066	173.41
1943.267	171.44
1946.467	172.25
1949.668	173
1952.868	176.16
1956.067	176.2
1959.267	176.38
1962.466	176.79
1965.665	176.57
1968.863	176.79
1972.061	180.02
1975.259	181.6
1978.457	184.09
1981.654	185.44
1984.852	186.04
1988.048	185.2
1991.245	187.16
1994.441	189.54
1997.637	190.33
2000.833	194.58
2004.028	197.03
2007.223	197.84
2010.418	200.09
2013.613	203.26
2016.807	205.51
2020.001	207.75
2023.194	211.74
2026.388	215.76
2029.581	220.12
2032.774	224.07
2035.966	226.51
2039.158	227.31
2042.35	231.59
2045.542	233.55
2048.733	236.59
2051.924	239.5
2055.115	243.77
2058.306	243.41
2061.496	246.07
2064.686	246.18
2067.875	249.88
2071.065	252.04
2074.254	250.89
2077.442	253.85
2080.631	254.72
2083.819	258.19
2087.007	258.43
2090.195	260.29
2093.382	262.51
2096.569	261.18
2099.756	266.07
2102.942	266.46
2106.128	268.52
2109.314	274.52
2112.5	273.77
2115.685	280.21
2118.87	280.35
2122.055	287.28
2125.239	288.85
2128.424	293.81
2131.608	295.38
2134.791	297.96
2137.974	299.51
2141.157	301.2
2144.34	302.01
2147.523	305.48
2150.705	302.96
2153.887	306.05
2157.068	305.6
2160.25	304.04
2163.431	304.76
2166.611	308.49
2169.792	314.62
2172.972	317.45
2176.152	319.75
2179.331	323.42
2182.511	329.25
2185.69	332.36
2188.868	338.84
2192.047	340.25
2195.225	350.29
2198.403	358.02
2201.58	364.89
2204.758	371.19
2207.935	378.54
2211.111	384.89
2214.288	389.97
2217.464	390.26
2220.64	398.85
2223.815	403.25
2226.991	418.21
2230.166	417.63
2233.34	425.06
2236.515	429.96
2239.689	431.77
2242.863	433.18
2246.036	445.11
2249.209	442.86
2252.382	450.42
2255.555	460.71
2258.727	462.43
2261.9	465.11
2265.071	470.87
2268.243	478.49
2271.414	485.14
2274.585	494.1
2277.756	499.64
2280.926	503.59
2284.096	514.96
2287.266	525.81
2290.436	529.73
2293.605	543
2296.774	559.19
2299.942	575.15
2303.111	581.21
2306.279	591.98
2309.447	598.95
2312.614	614.05
2315.781	631.48
2318.948	657.31
2322.115	649.7
2325.281	688.91
2328.447	669.62
2331.613	694.2
2334.779	687.92
2337.944	714.48
2341.109	723.59
2344.274	747.39
2347.438	770.24
2350.602	767.73
2353.766	795.21
2356.929	807.82
2360.092	797.63
2363.255	860.64
2366.418	861.4
2369.58	879.18
2372.742	926.19
2375.904	952.44
2379.066	943.61
2382.227	929.06
2385.388	1010.39
2388.548	1007.13
2391.709	1017.64
2394.869	1135.86
2398.029	1089.17
2401.188	1119.38
2404.347	1109.83
2407.506	1099.56
2410.665	1128.66
2413.823	1193.51
2416.981	1267.88
2420.139	1223
2423.296	1217.66
2426.453	1268.1
2429.61	1214.54
2432.767	1270.38
2435.923	1253.77
2439.079	1371.74
2442.235	1391.28
2445.391	1379.21
2448.546	1366.9
2451.701	1332.23
2454.855	1332.7
2458.009	1403.71
2461.163	1466.95
2464.317	1521.43
2467.471	1559.17
2470.624	1563.57
2473.777	1521.37
2476.929	1482.41
2480.082	1435.52
2483.234	1424.84
2486.385	1490.28
2489.537	1498.84
2492.688	1554.64
2495.839	1511.78
2498.989	1481.25
2502.14	1485.69
2505.29	1497.61
2508.439	1525.53
2511.589	1518.77
2514.738	1658.66
2517.887	1617.09
2521.035	1706.97
2524.183	1722.25
2527.331	1730.98
2530.479	1718.52
2533.627	1729.76
