Data from C_1_DEC_CT_2N_Splice17_12-56-13-660.txt Node
Date: Sat Mar 07 12:56:13 EST 2020
User: sa697716
Spectrometer: NQ5500242
Trigger mode: 0
Integration Time (sec): 1.450000E-1
Scans to average: 20
Nonlinearity correction enabled: false
Boxcar width: 5
Storing dark spectrum: false
XAxis mode: Wavelengths
Number of Pixels in Spectrum: 512
>>>>>Begin Spectral Data<<<<<
187.83	192.35
188.298	212.4
188.766	194.08
189.233	150.26
189.701	151.18
190.169	170.68
190.636	159.12
191.104	155.81
191.571	184.42
192.039	50.07
192.506	-184.12
192.974	172.07
193.441	148.75
193.908	68.76
194.375	49.59
194.842	13.07
195.31	-7.09
195.777	-311.22
196.244	19.45
196.711	44.63
197.177	47.44
197.644	48.61
198.111	47.66
198.578	48.4
199.045	48.97
199.511	48.74
199.978	48.59
200.445	48.85
200.911	48.98
201.378	49.16
201.844	49.36
202.31	49.16
202.777	49.15
203.243	49.42
203.709	49.43
204.176	49.24
204.642	49.31
205.108	49.44
205.574	49.29
206.04	48.73
206.506	48.35
206.972	47.74
207.438	47.31
207.903	46.9
208.369	46.01
208.835	45.06
209.301	44.24
209.766	42.94
210.232	41.69
210.697	40.72
211.163	40
211.628	39.23
212.094	38.61
212.559	37.93
213.024	36.87
213.49	36.17
213.955	35.38
214.42	34.52
214.885	33.59
215.35	32.76
215.815	31.34
216.28	29.49
216.745	27.3
217.21	25.21
217.675	23.31
218.14	21.79
218.604	20.34
219.069	19.18
219.534	18.16
219.998	17.38
220.463	16.63
220.927	15.98
221.392	15.49
221.856	15.1
222.32	14.74
222.785	14.44
223.249	14.14
223.713	13.88
224.177	13.67
224.642	13.45
225.106	13.2
225.57	12.97
226.034	12.76
226.497	12.58
226.961	12.37
227.425	12.18
227.889	12
228.353	11.81
228.816	11.63
229.28	11.44
229.744	11.27
230.207	11.12
230.671	10.98
231.134	10.84
231.597	10.7
232.061	10.57
232.524	10.43
232.987	10.29
233.45	10.19
233.914	10.09
234.377	9.97
234.84	9.86
235.303	9.76
235.766	9.66
236.229	9.56
236.691	9.46
237.154	9.38
237.617	9.3
238.08	9.23
238.542	9.13
239.005	9.04
239.468	8.96
239.93	8.87
240.393	8.8
240.855	8.7
241.317	8.62
241.78	8.53
242.242	8.45
242.704	8.37
243.166	8.29
243.629	8.22
244.091	8.14
244.553	8.05
245.015	7.98
245.477	7.9
245.939	7.84
246.4	7.78
246.862	7.72
247.324	7.65
247.786	7.57
248.247	7.51
248.709	7.43
249.17	7.36
249.632	7.32
250.093	7.27
250.555	7.2
251.016	7.14
251.477	7.08
251.939	7.03
252.4	6.99
252.861	6.94
253.322	6.9
253.783	6.86
254.244	6.82
254.705	6.77
255.166	6.73
255.627	6.69
256.088	6.65
256.549	6.61
257.009	6.56
257.47	6.51
257.931	6.45
258.391	6.4
258.852	6.36
259.312	6.31
259.773	6.27
260.233	6.22
260.694	6.17
261.154	6.13
261.614	6.1
262.074	6.04
262.534	6.01
262.994	5.98
263.455	5.94
263.915	5.91
264.374	5.88
264.834	5.85
265.294	5.82
265.754	5.8
266.214	5.77
266.673	5.75
267.133	5.73
267.593	5.71
268.052	5.7
268.512	5.68
268.971	5.66
269.431	5.64
269.89	5.63
270.349	5.61
270.809	5.59
271.268	5.58
271.727	5.56
272.186	5.54
272.645	5.53
273.104	5.51
273.563	5.49
274.022	5.48
274.481	5.46
274.94	5.44
275.399	5.42
275.857	5.41
276.316	5.39
276.775	5.38
277.233	5.37
277.692	5.35
278.15	5.34
278.609	5.32
279.067	5.31
279.525	5.29
279.984	5.28
280.442	5.27
280.9	5.26
281.358	5.24
281.816	5.23
282.274	5.22
282.732	5.21
283.19	5.2
283.648	5.19
284.106	5.17
284.564	5.17
285.021	5.17
285.479	5.16
285.937	5.14
286.394	5.14
286.852	5.13
287.309	5.11
287.767	5.09
288.224	5.07
288.682	5.05
289.139	5.03
289.596	5.01
290.053	4.98
290.511	4.96
290.968	4.94
291.425	4.92
291.882	4.91
292.339	4.89
292.796	4.88
293.252	4.86
293.709	4.84
294.166	4.83
294.623	4.82
295.079	4.81
295.536	4.8
295.992	4.79
296.449	4.77
296.905	4.76
297.362	4.75
297.818	4.74
298.274	4.74
298.731	4.73
299.187	4.72
299.643	4.7
300.099	4.7
300.555	4.69
301.011	4.68
301.467	4.68
301.923	4.67
302.379	4.66
302.835	4.65
303.291	4.64
303.746	4.63
304.202	4.64
304.658	4.64
305.113	4.62
305.569	4.62
306.024	4.62
306.479	4.61
306.935	4.6
307.39	4.6
307.845	4.6
308.301	4.6
308.756	4.6
309.211	4.59
309.666	4.6
310.121	4.6
310.576	4.59
311.031	4.59
311.486	4.59
311.94	4.59
312.395	4.58
312.85	4.58
313.305	4.57
313.759	4.57
314.214	4.56
314.668	4.55
315.123	4.54
315.577	4.53
316.032	4.52
316.486	4.51
316.94	4.5
317.394	4.49
317.849	4.47
318.303	4.46
318.757	4.45
319.211	4.44
319.665	4.42
320.119	4.41
320.572	4.39
321.026	4.37
321.48	4.36
321.934	4.34
322.387	4.33
322.841	4.32
323.295	4.32
323.748	4.32
324.202	4.31
324.655	4.3
325.108	4.3
325.562	4.3
326.015	4.29
326.468	4.29
326.921	4.29
327.374	4.28
327.827	4.29
328.28	4.27
328.733	4.26
329.186	4.26
329.639	4.25
330.092	4.25
330.545	4.24
330.997	4.25
331.45	4.25
331.903	4.25
332.355	4.26
332.808	4.26
333.26	4.26
333.713	4.26
334.165	4.26
334.617	4.26
335.069	4.24
335.522	4.25
335.974	4.24
336.426	4.23
336.878	4.22
337.33	4.21
337.782	4.2
338.234	4.2
338.686	4.2
339.137	4.2
339.589	4.19
340.041	4.2
340.493	4.18
340.944	4.15
341.396	4.15
341.847	4.13
342.299	4.12
342.75	4.11
343.201	4.09
343.653	4.07
344.104	4.05
344.555	4.04
345.006	4.02
345.457	4.01
345.908	4
346.359	4
346.81	4
347.261	3.99
347.712	3.99
348.163	3.98
348.613	3.98
349.064	3.99
349.515	3.99
349.965	3.99
350.416	3.98
350.866	3.98
351.317	3.98
351.767	3.98
352.217	3.98
352.668	3.98
353.118	3.99
353.568	3.97
354.018	3.97
354.468	3.97
354.918	3.98
355.368	3.98
355.818	3.98
356.268	3.98
356.718	3.98
357.168	3.97
357.617	3.96
358.067	3.96
358.517	3.98
358.966	3.98
359.416	3.98
359.865	3.98
360.315	3.98
360.764	3.98
361.213	3.98
361.663	3.96
362.112	3.98
362.561	3.98
363.01	3.97
363.459	3.95
363.908	3.94
364.357	3.94
364.806	3.93
365.255	3.93
365.703	3.93
366.152	3.94
366.601	3.96
367.05	3.95
367.498	3.95
367.947	3.95
368.395	3.96
368.844	3.96
369.292	3.95
369.74	3.95
370.189	3.95
370.637	3.94
371.085	3.93
371.533	3.92
371.981	3.91
372.429	3.91
372.877	3.91
373.325	3.91
373.773	3.91
374.221	3.91
374.669	3.9
375.116	3.9
375.564	3.89
376.012	3.88
376.459	3.88
376.907	3.89
377.354	3.9
377.801	3.89
378.249	3.88
378.696	3.89
379.143	3.88
379.591	3.89
380.038	3.88
380.485	3.89
380.932	3.89
381.379	3.88
381.826	3.88
382.273	3.87
382.72	3.86
383.166	3.87
383.613	3.86
384.06	3.85
384.506	3.84
384.953	3.84
385.4	3.84
385.846	3.85
386.292	3.85
386.739	3.85
387.185	3.84
387.631	3.84
388.078	3.83
388.524	3.83
388.97	3.84
389.416	3.84
389.862	3.85
390.308	3.86
390.754	3.86
391.2	3.87
391.645	3.89
392.091	3.9
392.537	3.92
392.983	3.93
393.428	3.95
393.874	3.96
394.319	3.97
394.765	3.98
395.21	3.98
395.655	3.99
396.101	4.01
396.546	4.01
396.991	4.02
397.436	4.03
397.881	4.05
398.326	4.06
398.771	4.07
399.216	4.08
399.661	4.09
400.106	4.11
400.551	4.12
400.995	4.11
401.44	4.13
401.885	4.15
402.329	4.17
402.774	4.18
403.218	4.21
403.663	4.23
404.107	4.25
404.551	4.27
404.995	4.28
405.44	4.29
405.884	4.31
406.328	4.33
406.772	4.33
407.216	4.35
407.66	4.36
408.104	4.35
408.547	4.37
408.991	4.38
409.435	4.39
409.879	4.42
410.322	4.44
410.766	4.46
411.209	4.47
411.653	4.5
412.096	4.5
412.54	4.52
412.983	4.54
413.426	4.57
413.869	4.59
414.312	4.62
414.756	4.64
415.199	4.65
415.642	4.66
416.085	4.67
416.527	4.67
416.97	4.66
417.413	4.66
417.856	4.65
418.298	4.63
418.741	4.63
419.184	4.63
419.626	4.63
420.069	4.64
420.511	4.64
420.953	4.64
421.396	4.66
421.838	4.67
422.28	4.69
422.722	4.71
423.164	4.72
423.606	4.72
424.048	4.73
424.49	4.72
424.932	4.71
425.374	4.69
425.816	4.68
426.258	4.67
426.699	4.65
427.141	4.64
427.582	4.65
428.024	4.67
428.465	4.67
428.907	4.67
429.348	4.68
429.789	4.68
430.231	4.72
430.672	4.75
431.113	4.76
431.554	4.79
431.995	4.8
432.436	4.81
432.877	4.82
433.318	4.84
433.759	4.87
434.2	4.9
434.64	4.93
435.081	4.94
435.522	4.95
435.962	4.97
436.403	5.01
436.843	5.01
437.284	5.01
437.724	5.01
438.164	5
438.604	5.01
439.045	5.02
439.485	5.03
439.925	5.01
440.365	5
440.805	5.01
441.245	5.02
441.685	5.04
442.125	5.06
442.564	5.07
443.004	5.08
443.444	5.09
443.883	5.1
444.323	5.08
444.762	5.09
445.202	5.1
445.641	5.12
446.081	5.13
446.52	5.13
446.959	5.14
447.398	5.16
447.837	5.16
448.276	5.15
448.716	5.17
449.154	5.2
449.593	5.22
450.032	5.22
450.471	5.21
450.91	5.21
451.349	5.21
451.787	5.2
452.226	5.19
452.664	5.19
453.103	5.19
453.541	5.19
453.98	5.19
454.418	5.17
454.856	5.17
455.295	5.16
455.733	5.14
456.171	5.13
456.609	5.13
457.047	5.1
457.485	5.09
457.923	5.1
458.361	5.08
458.798	5.08
459.236	5.06
459.674	5.06
460.111	5.06
460.549	5.08
460.987	5.1
461.424	5.1
461.862	5.12
462.299	5.13
462.736	5.13
463.173	5.13
463.611	5.13
464.048	5.15
464.485	5.15
464.922	5.16
465.359	5.17
465.796	5.17
466.233	5.18
466.67	5.19
467.106	5.2
467.543	5.2
467.98	5.19
468.416	5.18
468.853	5.18
469.29	5.17
469.726	5.17
470.162	5.16
470.599	5.14
471.035	5.11
471.471	5.1
471.907	5.08
472.344	5.07
472.78	5.08
473.216	5.06
473.652	5.08
474.088	5.06
474.523	5.06
474.959	5.05
475.395	5.04
475.831	5.04
476.266	5.04
476.702	5.03
477.138	5.04
477.573	5.02
478.008	5.02
478.444	4.99
478.879	4.99
479.314	4.98
479.75	4.97
480.185	4.96
480.62	4.94
481.055	4.93
481.49	4.91
481.925	4.91
482.36	4.91
482.795	4.9
483.229	4.9
483.664	4.91
484.099	4.89
484.534	4.89
484.968	4.89
485.403	4.9
485.837	4.91
486.271	4.92
486.706	4.92
487.14	4.92
487.574	4.93
488.009	4.95
488.443	4.95
488.877	4.97
489.311	4.99
489.745	5
490.179	5.03
490.613	5.05
491.046	5.06
491.48	5.09
491.914	5.12
492.348	5.15
492.781	5.18
493.215	5.22
493.648	5.25
494.082	5.28
494.515	5.33
494.948	5.36
495.382	5.4
495.815	5.46
496.248	5.52
496.681	5.57
497.114	5.62
497.547	5.68
497.98	5.74
498.413	5.82
498.846	5.9
499.279	5.98
499.711	6.06
500.144	6.15
500.577	6.23
501.009	6.31
501.442	6.41
501.874	6.53
502.306	6.64
502.739	6.76
503.171	6.88
503.603	7
504.036	7.14
504.468	7.28
504.9	7.41
505.332	7.56
505.764	7.73
506.196	7.89
506.627	8.07
507.059	8.26
507.491	8.44
507.923	8.64
508.354	8.84
508.786	9.06
509.217	9.28
509.649	9.51
510.08	9.76
510.512	10
510.943	10.25
511.374	10.51
511.805	10.77
512.237	11.03
512.668	11.3
513.099	11.6
513.53	11.89
513.961	12.18
514.391	12.49
514.822	12.81
515.253	13.12
515.684	13.43
516.114	13.76
516.545	14.09
516.975	14.43
517.406	14.78
517.836	15.1
518.267	15.44
518.697	15.77
519.127	16.1
519.558	16.43
519.988	16.77
520.418	17.1
520.848	17.42
521.278	17.74
521.708	18.22
522.138	18.53
522.567	18.85
522.997	19.15
523.427	19.46
523.857	19.76
524.286	20.06
524.716	20.35
525.145	20.63
525.575	20.9
526.004	21.16
526.433	21.27
526.863	21.51
527.292	21.74
527.721	21.98
528.15	22.2
528.579	22.41
529.008	22.62
529.437	22.81
529.866	23
530.295	23.18
530.724	23.35
531.152	23.52
531.581	23.67
532.01	23.83
532.438	23.97
532.867	24.11
533.295	24.23
533.723	24.34
534.152	24.45
534.58	24.56
535.008	24.65
535.436	24.76
535.865	24.84
536.293	24.92
536.721	25.02
537.149	25.09
537.576	25.15
538.004	25.23
538.432	25.28
538.86	25.34
539.287	25.38
539.715	25.44
540.143	25.49
540.57	25.54
540.998	25.58
541.425	25.61
541.852	25.65
542.28	25.7
542.707	25.75
543.134	25.8
543.561	25.85
543.988	25.9
544.415	25.95
544.842	25.97
545.269	26.02
545.696	26.07
546.123	26.11
546.549	26.15
546.976	26.18
547.403	26.2
547.829	26.24
548.256	26.26
548.682	26.28
549.108	26.3
549.535	26.32
549.961	26.32
550.387	26.32
550.813	26.32
551.24	26.29
551.666	26.29
552.092	26.27
552.518	26.25
552.943	26.22
553.369	26.19
553.795	26.14
554.221	26.11
554.646	26.06
555.072	26.02
555.498	25.95
555.923	25.89
556.349	25.8
556.774	25.73
557.199	25.63
557.625	25.54
558.05	25.46
558.475	25.38
558.9	25.28
559.325	25.19
559.75	25.08
560.175	24.97
560.6	24.85
561.025	24.75
561.449	24.62
561.874	24.49
562.299	24.35
562.723	24.2
563.148	24.05
563.572	23.88
563.997	23.72
564.421	23.54
564.846	23.38
565.27	23.22
565.694	23.04
566.118	22.86
566.542	22.69
566.966	22.51
567.39	22.34
567.814	22.16
568.238	21.98
568.662	21.8
569.086	21.64
569.509	21.45
569.933	21.28
570.357	21.11
570.78	20.92
571.204	20.74
571.627	20.58
572.05	20.41
572.474	20.26
572.897	20.1
573.32	19.95
573.743	19.77
574.166	19.62
574.589	19.47
575.012	19.32
575.435	19.19
575.858	19.05
576.281	18.91
576.704	18.77
577.126	18.64
577.549	18.51
577.972	18.37
578.394	18.25
578.817	18.13
579.239	18.01
579.661	17.91
580.084	17.8
580.506	17.7
580.928	17.6
581.35	17.51
581.772	17.41
582.194	17.31
582.616	17.22
583.038	17.13
583.46	17.04
583.882	16.95
584.303	16.86
584.725	16.79
585.147	16.72
585.568	16.64
585.99	16.56
586.411	16.49
586.833	16.42
587.254	16.35
587.675	16.28
588.096	16.21
588.518	16.14
588.939	16.09
589.36	16.02
589.781	15.95
590.202	15.89
590.623	15.85
591.043	15.79
591.464	15.75
591.885	15.7
592.305	15.65
592.726	15.6
593.147	15.56
593.567	15.51
593.987	15.46
594.408	15.43
594.828	15.39
595.248	15.35
595.669	15.33
596.089	15.28
596.509	15.24
596.929	15.22
597.349	15.18
597.769	15.15
598.189	15.11
598.608	15.09
599.028	15.06
599.448	15.02
599.867	14.97
600.287	14.91
600.706	14.87
601.126	14.82
601.545	14.77
601.965	14.72
602.384	14.67
602.803	14.61
603.222	14.53
603.641	14.46
604.061	14.38
604.48	14.3
604.898	14.23
605.317	14.15
605.736	14.08
606.155	14
606.574	13.92
606.992	13.83
607.411	13.75
607.829	13.65
608.248	13.56
608.666	13.48
609.085	13.4
609.503	13.33
609.921	13.24
610.339	13.15
610.758	13.07
611.176	12.97
611.594	12.89
612.012	12.79
612.43	12.73
612.847	12.64
613.265	12.55
613.683	12.47
614.101	12.38
614.518	12.3
614.936	12.21
615.353	12.13
615.771	12.06
616.188	11.98
616.606	11.92
617.023	11.85
617.44	11.79
617.857	11.72
618.274	11.66
618.691	11.61
619.108	11.55
619.525	11.49
619.942	11.44
620.359	11.4
620.776	11.36
621.192	11.32
621.609	11.29
622.026	11.26
622.442	11.24
622.859	11.21
623.275	11.17
623.691	11.16
624.108	11.15
624.524	11.14
624.94	11.12
625.356	11.11
625.772	11.09
626.188	11.08
626.604	11.06
627.02	11.04
627.436	11.03
627.852	11.02
628.268	11
628.683	10.99
629.099	10.97
629.514	10.95
629.93	10.92
630.345	10.9
630.761	10.86
631.176	10.84
631.591	10.8
632.007	10.76
632.422	10.72
632.837	10.67
633.252	10.62
633.667	10.56
634.082	10.49
634.497	10.42
634.911	10.35
635.326	10.27
635.741	10.17
636.155	10.09
636.57	10
636.984	9.9
637.399	9.8
637.813	9.69
638.228	9.58
638.642	9.47
639.056	9.35
639.47	9.25
639.884	9.14
640.298	9.03
640.712	8.92
641.126	8.8
641.54	8.68
641.954	8.56
642.368	8.45
642.781	8.34
643.195	8.24
643.609	8.13
644.022	8.02
644.436	7.92
644.849	7.82
645.262	7.73
645.676	7.64
646.089	7.55
646.502	7.49
646.915	7.42
647.328	7.35
647.741	7.29
648.154	7.23
648.567	7.18
648.98	7.13
649.393	7.09
649.805	7.05
650.218	7
650.631	6.96
651.043	6.91
651.456	6.88
651.868	6.84
652.28	6.79
652.693	6.75
653.105	6.7
653.517	6.65
653.929	6.61
654.341	6.56
654.753	6.51
655.165	6.46
655.577	6.41
655.989	6.35
656.401	6.28
656.813	6.22
657.224	6.16
657.636	6.08
658.047	6.02
658.459	5.94
658.87	5.86
659.282	5.78
659.693	5.7
660.104	5.61
660.515	5.54
660.926	5.47
661.338	5.41
661.749	5.34
662.159	5.28
662.57	5.22
662.981	5.17
663.392	5.13
663.803	5.09
664.213	5.05
664.624	5.01
665.035	4.97
665.445	4.93
665.855	4.89
666.266	4.87
666.676	4.85
667.086	4.82
667.497	4.8
667.907	4.79
668.317	4.77
668.727	4.76
669.137	4.75
669.547	4.75
669.956	4.74
670.366	4.74
670.776	4.74
671.186	4.73
671.595	4.73
672.005	4.72
672.414	4.71
672.824	4.71
673.233	4.72
673.642	4.73
674.052	4.73
674.461	4.74
674.87	4.75
675.279	4.78
675.688	4.79
676.097	4.82
676.506	4.85
676.915	4.88
677.323	4.91
677.732	4.92
678.141	4.95
678.549	4.99
678.958	5.02
679.366	5.06
679.775	5.09
680.183	5.14
680.592	5.19
681	5.25
681.408	5.32
681.816	5.39
682.224	5.48
682.632	5.57
683.04	5.68
683.448	5.79
683.856	5.91
684.264	6.05
684.671	6.21
685.079	6.38
685.487	6.57
685.894	6.8
686.302	7.03
686.709	7.3
687.116	7.59
687.524	7.91
687.931	8.27
688.338	8.65
688.745	9.04
689.152	9.46
689.559	9.94
689.966	10.43
690.373	10.94
690.78	11.48
691.187	12.03
691.593	12.6
692	13.19
692.407	13.78
692.813	14.41
693.22	15.04
693.626	15.7
694.032	16.35
694.439	17.01
694.845	17.68
695.251	18.37
695.657	19.04
696.063	19.75
696.469	20.45
696.875	21.17
697.281	21.86
697.687	22.56
698.093	23.24
698.498	23.92
698.904	24.6
699.31	25.27
699.715	25.93
700.12	26.61
700.526	27.26
700.931	27.9
701.337	28.54
701.742	29.15
702.147	29.75
702.552	30.36
702.957	30.94
703.362	31.53
703.767	32.09
704.172	32.64
704.577	33.18
704.981	33.72
705.386	34.24
705.791	34.76
706.195	35.3
706.6	35.84
707.004	36.34
707.408	36.86
707.813	37.35
708.217	37.84
708.621	38.34
709.025	38.82
709.43	39.25
709.834	39.71
710.237	40.15
710.641	40.59
711.045	41.01
711.449	41.46
711.853	41.88
712.256	42.27
712.66	42.69
713.064	43.07
713.467	43.47
713.87	43.88
714.274	44.25
714.677	44.61
715.08	44.96
715.484	45.32
715.887	45.7
716.29	46.04
716.693	46.38
717.096	46.74
717.499	47.07
717.901	47.36
718.304	47.68
718.707	48.01
719.109	48.34
719.512	48.65
719.915	48.96
720.317	49.2
720.719	49.46
721.122	49.73
721.524	49.99
721.926	50.26
722.328	50.55
722.731	50.79
723.133	51.04
723.535	51.27
723.937	51.5
724.338	51.69
724.74	51.92
725.142	52.23
725.544	52.44
725.945	52.64
726.347	52.79
726.748	52.94
727.15	53.09
727.551	53.26
727.952	53.43
728.354	53.59
728.755	53.75
729.156	53.87
729.557	53.92
729.958	54.06
730.359	54.21
730.76	54.38
731.161	54.53
731.562	54.7
731.962	54.8
732.363	54.89
732.763	55
733.164	55.09
733.564	55.22
733.965	55.34
734.365	55.42
734.766	55.51
735.166	55.57
735.566	55.62
735.966	55.68
736.366	55.75
736.766	55.85
737.166	55.96
737.566	56.04
737.966	56.1
738.365	56.16
738.765	56.23
739.165	56.28
739.564	56.37
739.964	56.44
740.363	56.47
740.763	56.54
741.162	56.58
741.561	56.58
741.96	56.62
742.36	56.66
742.759	56.68
743.158	56.71
743.557	56.73
743.955	56.77
744.354	56.82
744.753	56.88
745.152	56.92
745.55	56.93
745.949	56.98
746.348	57.02
746.746	57.07
747.144	57.12
747.543	57.11
747.941	57.14
748.339	57.13
748.737	57.13
749.136	57.14
749.534	57.12
749.932	57.14
750.33	57.16
750.727	57.17
751.125	57.2
751.523	57.2
751.921	57.23
752.318	57.26
752.716	57.3
753.113	57.33
753.511	57.34
753.908	57.4
754.305	57.42
754.703	57.41
755.1	57.42
755.497	57.42
755.894	57.42
756.291	57.44
756.688	57.45
757.085	57.46
757.482	57.46
757.878	57.48
758.275	57.46
758.672	57.45
759.068	57.48
759.465	57.49
759.861	57.5
760.258	57.52
760.654	57.53
761.05	57.54
761.447	57.55
761.843	57.54
762.239	57.55
762.635	57.54
763.031	57.53
763.427	57.52
763.822	57.55
764.218	57.56
764.614	57.56
765.01	57.53
765.405	57.55
765.801	57.51
766.196	57.53
766.592	57.53
766.987	57.52
767.382	57.53
767.778	57.51
768.173	57.51
768.568	57.48
768.963	57.47
769.358	57.49
769.753	57.46
770.148	57.5
770.542	57.49
770.937	57.49
771.332	57.52
771.726	57.53
772.121	57.53
772.515	57.51
772.91	57.51
773.304	57.5
773.699	57.52
774.093	57.52
774.487	57.48
774.881	57.49
775.275	57.48
775.669	57.46
776.063	57.45
776.457	57.44
776.851	57.41
777.245	57.39
777.638	57.38
778.032	57.36
778.425	57.39
778.819	57.42
779.212	57.44
779.606	57.45
779.999	57.44
780.392	57.48
780.786	57.49
781.179	57.53
781.572	57.57
781.965	57.57
782.358	57.58
782.751	57.56
783.143	57.54
783.536	57.53
783.929	57.51
784.322	57.57
784.714	57.54
785.107	57.57
785.499	57.56
785.891	57.51
786.284	57.55
786.676	57.54
787.068	57.52
787.46	57.53
787.852	57.52
788.245	57.53
788.636	57.47
789.028	57.49
789.42	57.45
789.812	57.46
790.204	57.48
790.595	57.48
790.987	57.48
791.378	57.5
791.77	57.49
792.161	57.48
792.553	57.48
792.944	57.5
793.335	57.5
793.726	57.52
794.117	57.47
794.508	57.47
794.899	57.5
795.29	57.51
795.681	57.47
796.072	57.51
796.463	57.52
796.853	57.53
797.244	57.54
797.634	57.54
798.025	57.56
798.415	57.57
798.806	57.57
799.196	57.54
799.586	57.56
799.976	57.58
800.366	57.56
800.756	57.55
801.146	57.55
801.536	57.56
801.926	57.51
802.316	57.5
802.706	57.52
803.095	57.52
803.485	57.52
803.874	57.51
804.264	57.5
804.653	57.48
805.043	57.48
805.432	57.47
805.821	57.47
806.21	57.49
806.599	57.48
806.988	57.49
807.377	57.47
807.766	57.47
808.155	57.43
808.544	57.45
808.933	57.45
809.321	57.44
809.71	57.45
810.098	57.45
810.487	57.43
810.875	57.42
811.264	57.4
811.652	57.4
812.04	57.38
812.428	57.43
812.816	57.41
813.204	57.38
813.592	57.37
813.98	57.4
814.368	57.4
814.756	57.43
815.144	57.44
815.531	57.43
815.919	57.44
816.306	57.43
816.694	57.4
817.081	57.42
817.469	57.44
817.856	57.41
818.243	57.35
818.63	57.33
819.017	57.3
819.404	57.3
819.791	57.27
820.178	57.3
820.565	57.27
820.952	57.26
821.339	57.24
821.725	57.25
822.112	57.27
822.498	57.3
822.885	57.33
823.271	57.33
823.657	57.29
824.044	57.32
824.43	57.32
824.816	57.35
825.202	57.36
825.588	57.37
825.974	57.35
826.36	57.35
826.746	57.34
827.132	57.32
827.517	57.35
827.903	57.39
828.289	57.41
828.674	57.39
829.06	57.4
829.445	57.38
829.83	57.38
830.216	57.4
830.601	57.41
830.986	57.42
831.371	57.41
831.756	57.42
832.141	57.41
832.526	57.4
832.911	57.39
833.295	57.38
833.68	57.4
834.065	57.41
834.449	57.38
834.834	57.38
835.218	57.35
835.603	57.36
835.987	57.34
836.371	57.33
836.755	57.31
837.139	57.3
837.524	57.32
837.908	57.34
838.291	57.33
838.675	57.35
839.059	57.34
839.443	57.35
839.827	57.34
840.21	57.34
840.594	57.36
840.977	57.38
841.361	57.38
841.744	57.35
842.127	57.32
842.511	57.28
842.894	57.27
843.277	57.27
843.66	57.26
844.043	57.23
844.426	57.24
844.809	57.23
845.191	57.23
845.574	57.24
845.957	57.26
846.339	57.26
846.722	57.29
847.104	57.32
847.487	57.34
847.869	57.37
848.252	57.4
848.634	57.39
849.016	57.38
849.398	57.41
849.78	57.42
850.162	57.42
850.544	57.41
850.926	57.42
851.307	57.41
851.689	57.4
852.071	57.39
852.452	57.4
852.834	57.41
853.215	57.43
853.597	57.42
853.978	57.41
854.359	57.41
854.741	57.42
855.122	57.41
855.503	57.42
855.884	57.4
856.265	57.4
856.646	57.4
857.026	57.42
857.407	57.4
857.788	57.38
858.169	57.4
858.549	57.41
858.93	57.41
859.31	57.43
859.69	57.43
860.071	57.46
860.451	57.45
860.831	57.45
861.211	57.41
861.591	57.42
861.971	57.42
862.351	57.42
862.731	57.4
863.111	57.37
863.491	57.35
863.87	57.33
864.25	57.32
864.629	57.36
865.009	57.36
865.388	57.35
865.768	57.36
866.147	57.35
866.526	57.33
866.905	57.34
867.284	57.39
867.663	57.39
868.042	57.41
868.421	57.43
868.8	57.39
869.179	57.36
869.558	57.39
869.936	57.35
870.315	57.35
870.693	57.38
871.072	57.4
871.45	57.39
871.828	57.39
872.207	57.37
872.585	57.35
872.963	57.37
873.341	57.39
873.719	57.38
874.097	57.4
874.475	57.43
874.853	57.4
875.23	57.4
875.608	57.39
875.986	57.47
876.363	57.44
876.741	57.46
877.118	57.47
877.495	57.48
877.873	57.49
878.25	57.54
878.627	57.54
879.004	57.57
879.381	57.56
879.758	57.54
880.135	57.52
880.512	57.55
880.889	57.54
881.265	57.51
881.642	57.51
882.019	57.51
882.395	57.46
882.772	57.47
883.148	57.45
883.524	57.43
883.901	57.47
884.277	57.43
884.653	57.39
885.029	57.39
885.405	57.4
885.781	57.38
886.157	57.4
886.532	57.41
886.908	57.38
887.284	57.38
887.659	57.37
888.035	57.34
888.411	57.34
888.786	57.37
889.161	57.38
889.537	57.36
889.912	57.34
890.287	57.34
890.662	57.33
891.037	57.36
891.412	57.33
891.787	57.34
892.162	57.34
892.536	57.33
892.911	57.34
893.286	57.35
893.66	57.37
894.035	57.4
894.409	57.36
894.784	57.37
895.158	57.35
895.532	57.4
895.906	57.39
896.281	57.4
896.655	57.39
897.029	57.39
897.402	57.39
897.776	57.38
898.15	57.39
898.524	57.44
898.898	57.43
899.271	57.44
899.645	57.41
900.018	57.42
900.392	57.46
900.765	57.48
901.138	57.48
901.511	57.48
901.884	57.5
902.258	57.49
902.631	57.49
903.003	57.51
903.376	57.51
903.749	57.53
904.122	57.54
904.495	57.55
904.867	57.57
905.24	57.59
905.612	57.62
905.985	57.59
906.357	57.58
906.729	57.56
907.102	57.57
907.474	57.59
907.846	57.61
908.218	57.6
908.59	57.59
908.962	57.58
909.334	57.57
909.705	57.51
910.077	57.54
910.449	57.56
910.82	57.55
911.192	57.54
911.563	57.49
911.935	57.46
912.306	57.47
912.677	57.45
913.048	57.48
913.419	57.46
913.79	57.5
914.161	57.51
914.532	57.49
914.903	57.52
915.274	57.52
915.645	57.55
916.015	57.57
916.386	57.56
916.756	57.57
917.127	57.56
917.497	57.57
917.868	57.55
918.238	57.54
918.608	57.56
918.978	57.54
919.348	57.54
919.718	57.53
920.088	57.52
920.458	57.52
920.828	57.54
921.198	57.5
921.567	57.49
921.937	57.53
922.306	57.51
922.676	57.49
923.045	57.48
923.415	57.46
923.784	57.47
924.153	57.48
924.522	57.5
924.891	57.45
925.26	57.46
925.629	57.48
925.998	57.47
926.367	57.48
926.736	57.49
927.104	57.52
927.473	57.51
927.842	57.48
928.21	57.5
928.578	57.44
928.947	57.52
929.315	57.51
929.683	57.48
930.051	57.45
930.42	57.41
930.788	57.35
931.156	57.33
931.523	57.35
931.891	57.38
932.259	57.37
932.627	57.41
932.994	57.34
933.362	57.33
933.729	57.37
934.097	57.37
934.464	57.39
934.831	57.42
935.199	57.42
935.566	57.4
935.933	57.33
936.3	57.31
936.667	57.28
937.034	57.3
937.401	57.3
937.767	57.27
938.134	57.27
938.501	57.28
938.867	57.31
939.234	57.26
939.6	57.27
939.967	57.31
940.333	57.26
940.699	57.29
941.065	57.22
941.431	57.18
941.798	57.14
942.163	57.11
942.529	57.05
942.895	56.99
943.261	57.02
943.627	57.01
943.992	56.98
944.358	56.98
944.723	56.92
945.089	56.88
945.454	56.89
945.82	56.93
946.185	56.93
946.55	56.88
946.915	56.85
947.28	56.8
947.645	56.78
948.01	56.74
948.375	56.72
948.74	56.75
949.104	56.79
949.469	56.77
949.834	56.73
950.198	56.71
950.562	56.73
950.927	56.73
951.291	56.63
951.655	56.54
952.02	56.54
952.384	56.52
952.748	56.48
953.112	56.47
953.476	56.44
953.839	56.38
954.203	56.34
954.567	56.31
954.931	56.3
955.294	56.31
955.658	56.4
956.021	56.39
956.385	56.34
956.748	56.3
957.111	56.3
957.474	56.35
957.837	56.4
958.2	56.41
958.563	56.42
958.926	56.43
959.289	56.48
959.652	56.46
960.015	56.46
960.377	56.53
960.74	56.59
961.102	56.6
961.465	56.62
961.827	56.68
962.189	56.72
962.552	56.73
962.914	56.75
963.276	56.79
963.638	56.77
964	56.76
964.362	56.76
964.724	56.73
965.085	56.76
965.447	56.71
965.809	56.68
966.17	56.62
966.532	56.6
966.893	56.6
967.255	56.62
967.616	56.62
967.977	56.71
968.338	56.73
968.699	56.76
969.061	56.7
969.421	56.69
969.782	56.7
970.143	56.75
970.504	56.8
970.865	56.84
971.225	56.78
971.586	56.77
971.946	56.69
972.307	56.71
972.667	56.67
973.027	56.7
973.388	56.76
973.748	56.77
974.108	56.81
974.468	56.79
974.828	56.78
975.188	56.83
975.548	56.83
975.907	56.89
976.267	56.87
976.627	56.88
976.986	56.81
977.346	56.77
977.705	56.73
978.064	56.72
978.424	56.68
978.783	56.65
979.142	56.67
979.501	56.73
979.86	56.78
980.219	56.77
980.578	56.76
980.937	56.85
981.296	56.77
981.654	56.76
982.013	56.74
982.371	56.78
982.73	56.79
983.088	56.71
983.447	56.73
983.805	56.64
984.163	56.62
984.521	56.65
984.879	56.49
985.237	56.53
985.595	56.64
985.953	56.66
986.311	56.72
986.669	56.72
987.026	56.74
987.384	56.7
987.741	56.63
988.099	56.66
988.456	56.62
988.814	56.81
989.171	56.84
989.528	56.84
989.885	56.79
990.242	56.72
990.599	56.74
990.956	56.81
991.313	56.81
991.67	56.89
992.027	56.93
992.383	57.03
992.74	57.01
993.096	56.98
993.453	56.85
993.809	56.79
994.165	56.88
994.522	56.81
994.878	56.76
995.234	56.8
995.59	56.8
995.946	56.77
996.302	56.75
996.658	56.83
997.013	56.82
997.369	56.86
997.725	57
998.08	57
998.436	57.15
998.791	57.26
999.147	57.17
999.502	57.15
999.857	57.17
1000.212	57.17
1000.567	57.13
1000.922	57.15
1001.277	57.17
1001.632	57.14
1001.987	57.06
1002.342	56.98
1002.696	56.93
1003.051	57.11
1003.406	57.29
1003.76	57.26
1004.114	57.2
1004.469	57.26
1004.823	57.55
1005.177	57.56
1005.531	57.66
1005.885	57.73
1006.239	57.76
1006.593	57.88
1006.947	57.77
1007.301	57.56
1007.655	57.51
1008.008	57.63
1008.362	57.71
1008.715	57.54
1009.069	57.67
1009.422	57.7
1009.776	57.54
1010.129	57.42
1010.482	57.34
1010.835	57.31
1011.188	57.4
1011.541	57.5
1011.894	57.48
1012.247	57.41
1012.6	57.44
1012.952	57.36
1013.305	57.34
1013.657	57.46
1014.01	57.66
1014.362	57.65
1014.715	57.93
1015.067	58.07
1015.419	58.2
1015.771	58.14
1016.123	58.28
1016.475	58.23
1016.827	58.17
1017.179	58.22
1017.531	58.3
1017.883	58.27
1018.234	58.51
1018.586	58.5
1018.938	58.61
1019.289	58.5
1019.64	58.47
1019.992	58.16
1020.343	58.15
1020.694	58.2
1021.045	58.2
1021.396	58.45
1021.747	58.66
1022.098	58.5
1022.449	58.39
1022.8	58.35
1023.151	58.45
1023.501	58.76
1023.852	58.95
1024.202	58.9
1024.553	58.83
1024.903	58.77
1025.253	58.81
1025.604	58.61
1025.954	58.31
1026.304	58.31
1026.654	58.28
1027.004	58.22
1027.354	57.99
1027.703	57.81
1028.053	57.89
1028.403	58.01
1028.753	58.06
1029.102	58
1029.452	58.12
1029.801	58.54
1030.15	58.52
1030.499	58.48
897.758	1109.79
901.051	1115.31
904.343	1113.29
907.636	1131.71
910.928	1102.33
914.22	1105.03
917.511	1091.79
920.803	1040.53
924.094	1036.99
927.384	1013.76
930.675	971.6
933.965	965.95
937.255	911.27
940.544	875.55
943.834	832.86
947.123	826.73
950.411	778.67
953.7	763.57
956.988	727.55
960.276	699.38
963.563	685.77
966.851	663.87
970.138	659.01
973.424	638.39
976.711	640.74
979.997	610.36
983.283	605.51
986.568	592.08
989.853	575.17
993.138	563.25
996.423	541
999.708	527.55
1002.992	521.24
1006.275	496.69
1009.559	492.46
1012.842	474.93
1016.125	463.66
1019.408	456.17
1022.69	449.84
1025.972	440.12
1029.254	430.84
1032.536	424.9
1035.817	415.44
1039.098	410.96
1042.379	402.94
1045.659	398.43
1048.939	388.59
1052.219	380.66
1055.498	375.29
1058.778	366.47
1062.057	358.86
1065.335	355.1
1068.614	349.68
1071.892	346.65
1075.17	335.28
1078.447	329.99
1081.724	326.81
1085.001	325.69
1088.278	319.47
1091.554	313.02
1094.83	313.77
1098.106	311.32
1101.382	308.85
1104.657	307.9
1107.932	301.85
1111.206	304.64
1114.481	296.55
1117.755	294.33
1121.029	290.71
1124.302	290.44
1127.575	284.75
1130.848	281.59
1134.121	277.36
1137.393	275.66
1140.665	269.49
1143.937	268.74
1147.208	266.29
1150.48	265.89
1153.75	262.21
1157.021	260.32
1160.291	259.66
1163.561	257.29
1166.831	256.71
1170.101	255.58
1173.37	255.45
1176.639	256.64
1179.907	253.86
1183.176	250.52
1186.444	250.76
1189.711	250.43
1192.979	248.57
1196.246	247.6
1199.513	248.04
1202.78	246.87
1206.046	247.03
1209.312	244.03
1212.578	243.97
1215.843	246.67
1219.108	245.03
1222.373	249.45
1225.638	251.64
1228.902	254.8
1232.166	255.35
1235.43	258.09
1238.693	261.1
1241.956	262.22
1245.219	266.83
1248.482	266.71
1251.744	266.04
1255.006	267.6
1258.268	261.39
1261.529	259.1
1264.79	257.55
1268.051	255.74
1271.312	252.29
1274.572	249.76
1277.832	247.64
1281.092	243.17
1284.351	241.44
1287.61	241.2
1290.869	237.86
1294.128	236.44
1297.386	236.15
1300.644	233.46
1303.902	234.46
1307.159	233.5
1310.416	233.27
1313.673	232.54
1316.93	235.79
1320.186	235.01
1323.442	235.95
1326.697	239.33
1329.953	240.14
1333.208	240.36
1336.463	243.3
1339.717	243.15
1342.972	246.59
1346.226	248.08
1349.479	249.21
1352.733	249.85
1355.986	251.79
1359.238	251.28
1362.491	252.93
1365.743	255.31
1368.995	255.7
1372.247	256.52
1375.498	256.27
1378.749	257.76
1382	255.43
1385.251	256.38
1388.501	253.92
1391.751	254.86
1395	253.76
1398.25	251.42
1401.499	249.24
1404.748	249.4
1407.996	246.1
1411.244	244.97
1414.492	242.97
1417.74	240.85
1420.987	236.52
1424.234	236.31
1427.481	233.26
1430.728	232.94
1433.974	231.1
1437.22	228.53
1440.465	227.54
1443.711	225.13
1446.956	223.68
1450.201	220.98
1453.445	218.93
1456.689	218.76
1459.933	215.06
1463.177	213.45
1466.42	209.65
1469.663	207.55
1472.906	206.69
1476.148	202.42
1479.391	200.04
1482.633	198.51
1485.874	195.91
1489.115	194.37
1492.356	192.38
1495.597	192.14
1498.838	189.4
1502.078	189.17
1505.318	188.21
1508.557	188.05
1511.797	187.64
1515.036	187.09
1518.274	186.27
1521.513	184.86
1524.751	184.94
1527.989	183.85
1531.227	183.36
1534.464	183.54
1537.701	182.18
1540.938	181.78
1544.174	179.72
1547.41	179.45
1550.646	178.45
1553.882	178.52
1557.117	176.86
1560.352	175.94
1563.587	175.5
1566.821	174.1
1570.055	172.82
1573.289	171.62
1576.523	171.57
1579.756	170.66
1582.989	169.42
1586.222	168.68
1589.454	168.15
1592.686	169.4
1595.918	167.93
1599.15	167.53
1602.381	168.15
1605.612	167.85
1608.843	168.38
1612.073	168.02
1615.303	168.88
1618.533	168.73
1621.762	169.31
1624.992	169.31
1628.221	168.47
1631.449	169.18
1634.678	168.94
1637.906	169.64
1641.134	169.72
1644.361	169.43
1647.588	169.66
1650.815	168.84
1654.042	168.78
1657.269	169.44
1660.495	169.31
1663.72	168.96
1666.946	169.63
1670.171	170.17
1673.396	169.21
1676.621	169.4
1679.845	169.48
1683.069	169.69
1686.293	170.71
1689.517	171.67
1692.74	171.54
1695.963	172.05
1699.185	173.45
1702.408	173.6
1705.63	174.09
1708.852	175.12
1712.073	174.97
1715.294	175.87
1718.515	176.17
1721.736	175.9
1724.956	176.45
1728.176	176.5
1731.396	177.72
1734.616	176.9
1737.835	177.2
1741.054	175.92
1744.272	176.36
1747.491	177.97
1750.709	177.89
1753.927	177.97
1757.144	178.36
1760.361	178.13
1763.578	179.01
1766.795	178.41
1770.011	179.74
1773.227	179.73
1776.443	182.3
1779.658	182.52
1782.874	182.05
1786.089	182.92
1789.303	183.3
1792.518	184.72
1795.732	185.42
1798.945	186.22
1802.159	186.43
1805.372	187.35
1808.585	190.13
1811.797	190.6
1815.01	190.88
1818.222	192.56
1821.434	193.96
1824.645	194.68
1827.856	197.76
1831.067	199.21
1834.278	197.94
1837.488	199.97
1840.698	200.91
1843.908	199.23
1847.117	199.58
1850.326	201.2
1853.535	200.08
1856.744	202.44
1859.952	202.37
1863.16	200.53
1866.368	199.21
1869.575	201.63
1872.782	198.37
1875.989	196.64
1879.196	195.56
1882.402	194.36
1885.608	194.33
1888.814	194.91
1892.019	193.64
1895.224	192.76
1898.429	192.14
1901.634	191.94
1904.838	192.49
1908.042	193.97
1911.246	195.15
1914.449	196.4
1917.652	195.73
1920.855	196.11
1924.058	195.57
1927.26	194.74
1930.462	195.18
1933.664	197.41
1936.865	195.93
1940.066	195.51
1943.267	194.31
1946.467	193.44
1949.668	194.98
1952.868	197.69
1956.067	197.16
1959.267	197.85
1962.466	198.6
1965.665	198.01
1968.863	198.14
1972.061	201.7
1975.259	202.88
1978.457	205.07
1981.654	207.47
1984.852	207.67
1988.048	207.08
1991.245	209.09
1994.441	211.86
1997.637	213.21
2000.833	217.13
2004.028	220.03
2007.223	221.17
2010.418	223.2
2013.613	226.73
2016.807	229.48
2020.001	231.52
2023.194	235.27
2026.388	240.1
2029.581	244.98
2032.774	247.46
2035.966	252.42
2039.158	252.6
2042.35	257.73
2045.542	259.81
2048.733	263.28
2051.924	265.99
2055.115	270.74
2058.306	271.22
2061.496	274.08
2064.686	274.19
2067.875	278.48
2071.065	279.94
2074.254	278.75
2077.442	281.86
2080.631	283.74
2083.819	286.56
2087.007	288.02
2090.195	291.25
2093.382	293.13
2096.569	291.51
2099.756	295.65
2102.942	297.05
2106.128	299.61
2109.314	306.27
2112.5	305.1
2115.685	311.54
2118.87	312.17
2122.055	319
2125.239	320.32
2128.424	325.39
2131.608	327.66
2134.791	332.01
2137.974	333.16
2141.157	333.29
2144.34	334.25
2147.523	339.86
2150.705	337.27
2153.887	341.81
2157.068	341.17
2160.25	338.04
2163.431	339.51
2166.611	343.42
2169.792	349.19
2172.972	353.71
2176.152	355.98
2179.331	360.86
2182.511	365.35
2185.69	369.11
2188.868	375.45
2192.047	376.29
2195.225	387.88
2198.403	396.41
2201.58	403.2
2204.758	412.07
2207.935	419.5
2211.111	427.71
2214.288	432.59
2217.464	434.65
2220.64	442.02
2223.815	446.48
2226.991	464.8
2230.166	465.01
2233.34	473.95
2236.515	482.51
2239.689	481.31
2242.863	484.31
2246.036	497.34
2249.209	494.03
2252.382	502.88
2255.555	518.73
2258.727	520.25
2261.9	524.51
2265.071	529.9
2268.243	537.79
2271.414	543.18
2274.585	555.81
2277.756	561.67
2280.926	564.91
2284.096	579.68
2287.266	590.78
2290.436	594.73
2293.605	609.47
2296.774	624.22
2299.942	646.3
2303.111	651.18
2306.279	666.12
2309.447	674.89
2312.614	692.78
2315.781	713.85
2318.948	742.58
2322.115	732.89
2325.281	770.96
2328.447	754.43
2331.613	785.47
2334.779	775.44
2337.944	806.79
2341.109	813.79
2344.274	836.53
2347.438	864.4
2350.602	864.01
2353.766	891.61
2356.929	906.67
2360.092	900.35
2363.255	965.26
2366.418	964.1
2369.58	981.9
2372.742	1038.93
2375.904	1066.79
2379.066	1061.66
2382.227	1039.48
2385.388	1130.76
2388.548	1129.66
2391.709	1140.45
2394.869	1270.07
2398.029	1217
2401.188	1249.12
2404.347	1243.04
2407.506	1229.72
2410.665	1260.59
2413.823	1334.55
2416.981	1414.94
2420.139	1367.94
2423.296	1355.02
2426.453	1414.58
2429.61	1359.16
2432.767	1423.2
2435.923	1411.52
2439.079	1539.71
2442.235	1558.24
2445.391	1545.45
2448.546	1533.98
2451.701	1491.8
2454.855	1488.48
2458.009	1580.49
2461.163	1642.16
2464.317	1707.97
2467.471	1748.25
2470.624	1750.97
2473.777	1705.5
2476.929	1664.02
2480.082	1618.63
2483.234	1603.08
2486.385	1678.54
2489.537	1684.59
2492.688	1741.48
2495.839	1696.65
2498.989	1654.31
2502.14	1666.05
2505.29	1680.97
2508.439	1709.15
2511.589	1702.38
2514.738	1860.05
2517.887	1813.27
2521.035	1915.62
2524.183	1935.73
2527.331	1954.76
2530.479	1947.44
2533.627	1963.43
