Data from C_1_DIV_IL_4n_Splice17_12-39-27-411.txt Node
Date: Sat Mar 07 12:39:27 EST 2020
User: sa697716
Spectrometer: NQ5500242
Trigger mode: 0
Integration Time (sec): 1.450000E-1
Scans to average: 20
Nonlinearity correction enabled: false
Boxcar width: 5
Storing dark spectrum: false
XAxis mode: Wavelengths
Number of Pixels in Spectrum: 512
>>>>>Begin Spectral Data<<<<<
187.83	157.53
188.298	191.12
188.766	149.66
189.233	124.19
189.701	128.79
190.169	145.04
190.636	162.69
191.104	260.41
191.571	223.71
192.039	341.97
192.506	443.4
192.974	10.96
193.441	100.28
193.908	-44.31
194.375	6.66
194.842	-0.61
195.31	-6.04
195.777	-190.06
196.244	28.36
196.711	37.41
197.177	40.91
197.644	40.59
198.111	40.27
198.578	41.26
199.045	41.87
199.511	41.67
199.978	41.64
200.445	41.91
200.911	42.11
201.378	42.09
201.844	42.23
202.31	42.03
202.777	42.28
203.243	42.29
203.709	42.05
204.176	41.49
204.642	41.27
205.108	41.16
205.574	41.2
206.04	41.09
206.506	40.77
206.972	40.66
207.438	40.43
207.903	40.02
208.369	39.49
208.835	38.91
209.301	38.63
209.766	37.91
210.232	37.19
210.697	36.2
211.163	35.37
211.628	34.82
212.094	34.1
212.559	33.6
213.024	32.88
213.49	32.32
213.955	31.54
214.42	31.04
214.885	30.61
215.35	29.75
215.815	28.67
216.28	27.39
216.745	26.03
217.21	24.67
217.675	23.45
218.14	22.4
218.604	21.39
219.069	20.56
219.534	19.77
219.998	19.11
220.463	18.66
220.927	18.21
221.392	17.85
221.856	17.51
222.32	17.22
222.785	16.95
223.249	16.71
223.713	16.49
224.177	16.33
224.642	16.14
225.106	15.92
225.57	15.67
226.034	15.48
226.497	15.29
226.961	15.13
227.425	14.96
227.889	14.79
228.353	14.6
228.816	14.44
229.28	14.27
229.744	14.11
230.207	13.95
230.671	13.83
231.134	13.68
231.597	13.56
232.061	13.4
232.524	13.27
232.987	13.13
233.45	13.01
233.914	12.87
234.377	12.73
234.84	12.61
235.303	12.51
235.766	12.4
236.229	12.29
236.691	12.17
237.154	12.08
237.617	11.96
238.08	11.85
238.542	11.73
239.005	11.64
239.468	11.55
239.93	11.46
240.393	11.37
240.855	11.26
241.317	11.16
241.78	11.06
242.242	10.96
242.704	10.88
243.166	10.79
243.629	10.72
244.091	10.62
244.553	10.52
245.015	10.43
245.477	10.34
245.939	10.26
246.4	10.18
246.862	10.11
247.324	10.03
247.786	9.96
248.247	9.89
248.709	9.81
249.17	9.74
249.632	9.68
250.093	9.62
250.555	9.56
251.016	9.51
251.477	9.44
251.939	9.38
252.4	9.34
252.861	9.28
253.322	9.24
253.783	9.18
254.244	9.15
254.705	9.1
255.166	9.05
255.627	8.99
256.088	8.95
256.549	8.92
257.009	8.87
257.47	8.83
257.931	8.78
258.391	8.73
258.852	8.69
259.312	8.65
259.773	8.61
260.233	8.58
260.694	8.54
261.154	8.5
261.614	8.47
262.074	8.43
262.534	8.4
262.994	8.37
263.455	8.36
263.915	8.34
264.374	8.32
264.834	8.3
265.294	8.27
265.754	8.27
266.214	8.25
266.673	8.24
267.133	8.23
267.593	8.21
268.052	8.19
268.512	8.18
268.971	8.17
269.431	8.15
269.89	8.14
270.349	8.13
270.809	8.1
271.268	8.09
271.727	8.07
272.186	8.05
272.645	8.06
273.104	8.04
273.563	8.03
274.022	8.01
274.481	8
274.94	7.98
275.399	7.96
275.857	7.95
276.316	7.93
276.775	7.92
277.233	7.91
277.692	7.88
278.15	7.86
278.609	7.84
279.067	7.83
279.525	7.81
279.984	7.79
280.442	7.76
280.9	7.74
281.358	7.72
281.816	7.7
282.274	7.68
282.732	7.67
283.19	7.65
283.648	7.62
284.106	7.59
284.564	7.57
285.021	7.55
285.479	7.54
285.937	7.51
286.394	7.5
286.852	7.46
287.309	7.43
287.767	7.4
288.224	7.37
288.682	7.35
289.139	7.32
289.596	7.29
290.053	7.27
290.511	7.24
290.968	7.22
291.425	7.2
291.882	7.18
292.339	7.16
292.796	7.15
293.252	7.13
293.709	7.11
294.166	7.09
294.623	7.08
295.079	7.06
295.536	7.04
295.992	7.03
296.449	7.01
296.905	6.99
297.362	6.98
297.818	6.96
298.274	6.94
298.731	6.92
299.187	6.91
299.643	6.89
300.099	6.88
300.555	6.86
301.011	6.84
301.467	6.83
301.923	6.8
302.379	6.78
302.835	6.77
303.291	6.76
303.746	6.74
304.202	6.73
304.658	6.71
305.113	6.7
305.569	6.69
306.024	6.68
306.479	6.66
306.935	6.65
307.39	6.64
307.845	6.63
308.301	6.62
308.756	6.61
309.211	6.6
309.666	6.6
310.121	6.58
310.576	6.57
311.031	6.56
311.486	6.56
311.94	6.55
312.395	6.54
312.85	6.53
313.305	6.51
313.759	6.51
314.214	6.49
314.668	6.48
315.123	6.46
315.577	6.45
316.032	6.43
316.486	6.41
316.94	6.39
317.394	6.38
317.849	6.36
318.303	6.35
318.757	6.33
319.211	6.32
319.665	6.3
320.119	6.28
320.572	6.27
321.026	6.26
321.48	6.25
321.934	6.23
322.387	6.21
322.841	6.2
323.295	6.19
323.748	6.19
324.202	6.18
324.655	6.17
325.108	6.16
325.562	6.15
326.015	6.14
326.468	6.13
326.921	6.12
327.374	6.11
327.827	6.11
328.28	6.1
328.733	6.08
329.186	6.08
329.639	6.07
330.092	6.06
330.545	6.05
330.997	6.05
331.45	6.04
331.903	6.04
332.355	6.04
332.808	6.03
333.26	6.03
333.713	6.03
334.165	6.01
334.617	6.02
335.069	6.01
335.522	6.01
335.974	6.01
336.426	6
336.878	5.98
337.33	5.98
337.782	5.97
338.234	5.96
338.686	5.95
339.137	5.94
339.589	5.92
340.041	5.92
340.493	5.9
340.944	5.88
341.396	5.87
341.847	5.86
342.299	5.83
342.75	5.81
343.201	5.8
343.653	5.79
344.104	5.77
344.555	5.75
345.006	5.74
345.457	5.74
345.908	5.72
346.359	5.71
346.81	5.7
347.261	5.71
347.712	5.7
348.163	5.69
348.613	5.7
349.064	5.7
349.515	5.7
349.965	5.69
350.416	5.68
350.866	5.68
351.317	5.67
351.767	5.67
352.217	5.66
352.668	5.65
353.118	5.65
353.568	5.64
354.018	5.64
354.468	5.65
354.918	5.64
355.368	5.64
355.818	5.64
356.268	5.64
356.718	5.64
357.168	5.63
357.617	5.63
358.067	5.63
358.517	5.64
358.966	5.64
359.416	5.63
359.865	5.63
360.315	5.63
360.764	5.64
361.213	5.64
361.663	5.64
362.112	5.65
362.561	5.65
363.01	5.65
363.459	5.64
363.908	5.63
364.357	5.64
364.806	5.64
365.255	5.64
365.703	5.63
366.152	5.65
366.601	5.65
367.05	5.65
367.498	5.65
367.947	5.66
368.395	5.67
368.844	5.68
369.292	5.69
369.74	5.7
370.189	5.71
370.637	5.72
371.085	5.73
371.533	5.75
371.981	5.77
372.429	5.78
372.877	5.8
373.325	5.81
373.773	5.84
374.221	5.85
374.669	5.86
375.116	5.89
375.564	5.92
376.012	5.95
376.459	5.98
376.907	6.01
377.354	6.04
377.801	6.09
378.249	6.12
378.696	6.17
379.143	6.2
379.591	6.25
380.038	6.28
380.485	6.32
380.932	6.36
381.379	6.4
381.826	6.44
382.273	6.48
382.72	6.51
383.166	6.55
383.613	6.58
384.06	6.62
384.506	6.66
384.953	6.72
385.4	6.77
385.846	6.82
386.292	6.87
386.739	6.91
387.185	6.95
387.631	6.99
388.078	7.03
388.524	7.08
388.97	7.13
389.416	7.18
389.862	7.22
390.308	7.25
390.754	7.29
391.2	7.33
391.645	7.37
392.091	7.42
392.537	7.46
392.983	7.5
393.428	7.53
393.874	7.55
394.319	7.57
394.765	7.59
395.21	7.62
395.655	7.63
396.101	7.65
396.546	7.67
396.991	7.69
397.436	7.7
397.881	7.72
398.326	7.74
398.771	7.75
399.216	7.76
399.661	7.78
400.106	7.79
400.551	7.8
400.995	7.8
401.44	7.79
401.885	7.79
402.329	7.8
402.774	7.78
403.218	7.79
403.663	7.8
404.107	7.79
404.551	7.78
404.995	7.76
405.44	7.74
405.884	7.73
406.328	7.73
406.772	7.7
407.216	7.69
407.66	7.69
408.104	7.65
408.547	7.64
408.991	7.64
409.435	7.62
409.879	7.62
410.322	7.63
410.766	7.63
411.209	7.62
411.653	7.64
412.096	7.63
412.54	7.63
412.983	7.63
413.426	7.64
413.869	7.63
414.312	7.65
414.756	7.64
415.199	7.62
415.642	7.63
416.085	7.64
416.527	7.62
416.97	7.6
417.413	7.6
417.856	7.58
418.298	7.56
418.741	7.57
419.184	7.55
419.626	7.55
420.069	7.56
420.511	7.55
420.953	7.53
421.396	7.53
421.838	7.53
422.28	7.52
422.722	7.54
423.164	7.54
423.606	7.53
424.048	7.53
424.49	7.53
424.932	7.51
425.374	7.49
425.816	7.48
426.258	7.46
426.699	7.45
427.141	7.43
427.582	7.41
428.024	7.41
428.465	7.41
428.907	7.39
429.348	7.37
429.789	7.36
430.231	7.36
430.672	7.35
431.113	7.36
431.554	7.36
431.995	7.38
432.436	7.37
432.877	7.38
433.318	7.38
433.759	7.39
434.2	7.41
434.64	7.42
435.081	7.43
435.522	7.44
435.962	7.47
436.403	7.49
436.843	7.49
437.284	7.5
437.724	7.51
438.164	7.51
438.604	7.52
439.045	7.53
439.485	7.55
439.925	7.55
440.365	7.57
440.805	7.58
441.245	7.6
441.685	7.64
442.125	7.67
442.564	7.69
443.004	7.7
443.444	7.73
443.883	7.76
444.323	7.76
444.762	7.79
445.202	7.8
445.641	7.82
446.081	7.83
446.52	7.84
446.959	7.88
447.398	7.92
447.837	7.94
448.276	7.96
448.716	7.96
449.154	8.02
449.593	8.05
450.032	8.07
450.471	8.07
450.91	8.07
451.349	8.09
451.787	8.08
452.226	8.08
452.664	8.11
453.103	8.11
453.541	8.12
453.98	8.11
454.418	8.11
454.856	8.12
455.295	8.12
455.733	8.11
456.171	8.1
456.609	8.09
457.047	8.08
457.485	8.06
457.923	8.06
458.361	8.05
458.798	8.05
459.236	8.03
459.674	8.02
460.111	8.02
460.549	8.03
460.987	8.04
461.424	8.05
461.862	8.06
462.299	8.08
462.736	8.09
463.173	8.1
463.611	8.1
464.048	8.11
464.485	8.12
464.922	8.12
465.359	8.13
465.796	8.13
466.233	8.13
466.67	8.13
467.106	8.12
467.543	8.1
467.98	8.1
468.416	8.1
468.853	8.1
469.29	8.11
469.726	8.11
470.162	8.1
470.599	8.1
471.035	8.1
471.471	8.08
471.907	8.08
472.344	8.1
472.78	8.11
473.216	8.09
473.652	8.09
474.088	8.07
474.523	8.08
474.959	8.07
475.395	8.05
475.831	8.05
476.266	8.07
476.702	8.06
477.138	8.06
477.573	8.05
478.008	8.07
478.444	8.07
478.879	8.08
479.314	8.07
479.75	8.08
480.185	8.07
480.62	8.07
481.055	8.06
481.49	8.06
481.925	8.07
482.36	8.07
482.795	8.07
483.229	8.08
483.664	8.1
484.099	8.11
484.534	8.12
484.968	8.16
485.403	8.18
485.837	8.2
486.271	8.23
486.706	8.26
487.14	8.28
487.574	8.32
488.009	8.34
488.443	8.37
488.877	8.41
489.311	8.46
489.745	8.5
490.179	8.54
490.613	8.6
491.046	8.65
491.48	8.71
491.914	8.78
492.348	8.85
492.781	8.93
493.215	9
493.648	9.09
494.082	9.17
494.515	9.26
494.948	9.35
495.382	9.44
495.815	9.55
496.248	9.66
496.681	9.79
497.114	9.89
497.547	10.02
497.98	10.16
498.413	10.28
498.846	10.43
499.279	10.58
499.711	10.73
500.144	10.91
500.577	11.06
501.009	11.23
501.442	11.41
501.874	11.6
502.306	11.78
502.739	11.99
503.171	12.2
503.603	12.41
504.036	12.64
504.468	12.88
504.9	13.09
505.332	13.34
505.764	13.59
506.196	13.84
506.627	14.1
507.059	14.38
507.491	14.64
507.923	14.92
508.354	15.21
508.786	15.5
509.217	15.8
509.649	16.12
510.08	16.44
510.512	16.77
510.943	17.1
511.374	17.42
511.805	17.75
512.237	18.09
512.668	18.44
513.099	18.79
513.53	19.15
513.961	19.51
514.391	19.86
514.822	20.24
515.253	20.6
515.684	20.95
516.114	21.31
516.545	21.68
516.975	22.05
517.406	22.41
517.836	22.78
518.267	23.13
518.697	23.48
519.127	23.83
519.558	24.17
519.988	24.52
520.418	24.84
520.848	25.18
521.278	25.49
521.708	25.92
522.138	26.23
522.567	26.51
522.997	26.8
523.427	27.09
523.857	27.35
524.286	27.6
524.716	27.86
525.145	28.11
525.575	28.36
526.004	28.6
526.433	28.72
526.863	28.93
527.292	29.15
527.721	29.36
528.15	29.54
528.579	29.73
529.008	29.92
529.437	30.07
529.866	30.24
530.295	30.38
530.724	30.53
531.152	30.67
531.581	30.8
532.01	30.93
532.438	31.05
532.867	31.18
533.295	31.29
533.723	31.38
534.152	31.48
534.58	31.58
535.008	31.65
535.436	31.75
535.865	31.82
536.293	31.89
536.721	31.95
537.149	32.01
537.576	32.05
538.004	32.11
538.432	32.18
538.86	32.22
539.287	32.25
539.715	32.31
540.143	32.33
540.57	32.36
540.998	32.4
541.425	32.45
541.852	32.49
542.28	32.52
542.707	32.56
543.134	32.58
543.561	32.61
543.988	32.66
544.415	32.67
544.842	32.69
545.269	32.71
545.696	32.73
546.123	32.74
546.549	32.75
546.976	32.76
547.403	32.77
547.829	32.79
548.256	32.8
548.682	32.78
549.108	32.81
549.535	32.83
549.961	32.85
550.387	32.85
550.813	32.85
551.24	32.86
551.666	32.85
552.092	32.84
552.518	32.82
552.943	32.78
553.369	32.77
553.795	32.74
554.221	32.7
554.646	32.64
555.072	32.59
555.498	32.53
555.923	32.46
556.349	32.38
556.774	32.3
557.199	32.23
557.625	32.16
558.05	32.08
558.475	31.99
558.9	31.9
559.325	31.82
559.75	31.72
560.175	31.61
560.6	31.49
561.025	31.4
561.449	31.27
561.874	31.13
562.299	30.99
562.723	30.86
563.148	30.71
563.572	30.55
563.997	30.38
564.421	30.2
564.846	30.05
565.27	29.88
565.694	29.73
566.118	29.57
566.542	29.4
566.966	29.24
567.39	29.05
567.814	28.88
568.238	28.71
568.662	28.54
569.086	28.38
569.509	28.21
569.933	28.06
570.357	27.87
570.78	27.68
571.204	27.5
571.627	27.34
572.05	27.18
572.474	27.02
572.897	26.87
573.32	26.71
573.743	26.55
574.166	26.41
574.589	26.25
575.012	26.12
575.435	25.99
575.858	25.85
576.281	25.7
576.704	25.56
577.126	25.43
577.549	25.29
577.972	25.16
578.394	25.04
578.817	24.91
579.239	24.8
579.661	24.68
580.084	24.58
580.506	24.48
580.928	24.38
581.35	24.28
581.772	24.17
582.194	24.08
582.616	23.99
583.038	23.88
583.46	23.79
583.882	23.69
584.303	23.59
584.725	23.49
585.147	23.41
585.568	23.33
585.99	23.25
586.411	23.17
586.833	23.09
587.254	23.01
587.675	22.94
588.096	22.88
588.518	22.8
588.939	22.76
589.36	22.68
589.781	22.61
590.202	22.56
590.623	22.5
591.043	22.44
591.464	22.4
591.885	22.33
592.305	22.27
592.726	22.23
593.147	22.2
593.567	22.15
593.987	22.11
594.408	22.06
594.828	22.02
595.248	21.99
595.669	21.96
596.089	21.92
596.509	21.9
596.929	21.87
597.349	21.81
597.769	21.78
598.189	21.73
598.608	21.71
599.028	21.68
599.448	21.63
599.867	21.56
600.287	21.51
600.706	21.46
601.126	21.41
601.545	21.36
601.965	21.31
602.384	21.24
602.803	21.17
603.222	21.09
603.641	21.02
604.061	20.95
604.48	20.88
604.898	20.79
605.317	20.71
605.736	20.63
606.155	20.54
606.574	20.46
606.992	20.38
607.411	20.31
607.829	20.19
608.248	20.08
608.666	19.99
609.085	19.9
609.503	19.8
609.921	19.7
610.339	19.62
610.758	19.52
611.176	19.41
611.594	19.32
612.012	19.2
612.43	19.12
612.847	19.04
613.265	18.93
613.683	18.83
614.101	18.75
614.518	18.64
614.936	18.54
615.353	18.44
615.771	18.36
616.188	18.26
616.606	18.18
617.023	18.11
617.44	18.04
617.857	17.97
618.274	17.91
618.691	17.84
619.108	17.79
619.525	17.74
619.942	17.69
620.359	17.64
620.776	17.59
621.192	17.55
621.609	17.51
622.026	17.46
622.442	17.43
622.859	17.4
623.275	17.37
623.691	17.35
624.108	17.32
624.524	17.3
624.94	17.28
625.356	17.27
625.772	17.25
626.188	17.24
626.604	17.24
627.02	17.2
627.436	17.19
627.852	17.19
628.268	17.17
628.683	17.16
629.099	17.15
629.514	17.13
629.93	17.1
630.345	17.07
630.761	17.02
631.176	16.97
631.591	16.95
632.007	16.89
632.422	16.82
632.837	16.76
633.252	16.68
633.667	16.6
634.082	16.51
634.497	16.43
634.911	16.33
635.326	16.24
635.741	16.14
636.155	16.01
636.57	15.88
636.984	15.76
637.399	15.62
637.813	15.47
638.228	15.32
638.642	15.17
639.056	15.02
639.47	14.86
639.884	14.71
640.298	14.54
640.712	14.38
641.126	14.22
641.54	14.05
641.954	13.9
642.368	13.74
642.781	13.59
643.195	13.45
643.609	13.3
644.022	13.15
644.436	13.01
644.849	12.88
645.262	12.75
645.676	12.63
646.089	12.52
646.502	12.41
646.915	12.32
647.328	12.23
647.741	12.15
648.154	12.06
648.567	11.99
648.98	11.91
649.393	11.84
649.805	11.79
650.218	11.73
650.631	11.67
651.043	11.62
651.456	11.55
651.868	11.49
652.28	11.42
652.693	11.37
653.105	11.32
653.517	11.26
653.929	11.21
654.341	11.13
654.753	11.05
655.165	10.96
655.577	10.88
655.989	10.78
656.401	10.69
656.813	10.6
657.224	10.49
657.636	10.37
658.047	10.26
658.459	10.14
658.87	10.03
659.282	9.92
659.693	9.8
660.104	9.67
660.515	9.56
660.926	9.44
661.338	9.32
661.749	9.21
662.159	9.11
662.57	9.01
662.981	8.9
663.392	8.81
663.803	8.72
664.213	8.64
664.624	8.56
665.035	8.49
665.445	8.42
665.855	8.37
666.266	8.3
666.676	8.25
667.086	8.19
667.497	8.15
667.907	8.11
668.317	8.07
668.727	8.04
669.137	8.01
669.547	7.99
669.956	7.96
670.366	7.95
670.776	7.93
671.186	7.92
671.595	7.92
672.005	7.91
672.414	7.91
672.824	7.91
673.233	7.93
673.642	7.94
674.052	7.95
674.461	7.96
674.87	7.98
675.279	8.01
675.688	8.04
676.097	8.07
676.506	8.1
676.915	8.14
677.323	8.19
677.732	8.22
678.141	8.27
678.549	8.32
678.958	8.38
679.366	8.46
679.775	8.52
680.183	8.61
680.592	8.72
681	8.84
681.408	8.96
681.816	9.1
682.224	9.26
682.632	9.43
683.04	9.62
683.448	9.84
683.856	10.06
684.264	10.31
684.671	10.58
685.079	10.87
685.487	11.19
685.894	11.55
686.302	11.93
686.709	12.34
687.116	12.78
687.524	13.24
687.931	13.74
688.338	14.27
688.745	14.82
689.152	15.39
689.559	16
689.966	16.63
690.373	17.26
690.78	17.91
691.187	18.59
691.593	19.28
692	19.97
692.407	20.66
692.813	21.38
693.22	22.09
693.626	22.81
694.032	23.52
694.439	24.23
694.845	24.94
695.251	25.67
695.657	26.36
696.063	27.07
696.469	27.78
696.875	28.49
697.281	29.16
697.687	29.85
698.093	30.52
698.498	31.17
698.904	31.82
699.31	32.45
699.715	33.07
700.12	33.69
700.526	34.28
700.931	34.85
701.337	35.41
701.742	35.95
702.147	36.48
702.552	37.02
702.957	37.51
703.362	37.99
703.767	38.45
704.172	38.93
704.577	39.38
704.981	39.83
705.386	40.28
705.791	40.69
706.195	41.14
706.6	41.57
707.004	41.96
707.408	42.39
707.813	42.82
708.217	43.23
708.621	43.61
709.025	43.99
709.43	44.35
709.834	44.74
710.237	45.09
710.641	45.43
711.045	45.76
711.449	46.11
711.853	46.43
712.256	46.74
712.66	47.06
713.064	47.37
713.467	47.66
713.87	47.98
714.274	48.26
714.677	48.58
715.08	48.87
715.484	49.16
715.887	49.44
716.29	49.69
716.693	49.95
717.096	50.21
717.499	50.46
717.901	50.71
718.304	50.94
718.707	51.18
719.109	51.41
719.512	51.65
719.915	51.88
720.317	52.08
720.719	52.26
721.122	52.46
721.524	52.64
721.926	52.85
722.328	53.04
722.731	53.24
723.133	53.42
723.535	53.57
723.937	53.72
724.338	53.86
724.74	54.02
725.142	54.28
725.544	54.42
725.945	54.59
726.347	54.7
726.748	54.82
727.15	54.93
727.551	55.06
727.952	55.15
728.354	55.27
728.755	55.37
729.156	55.47
729.557	55.5
729.958	55.57
730.359	55.65
730.76	55.75
731.161	55.86
731.562	55.96
731.962	56.01
732.363	56.11
732.763	56.18
733.164	56.26
733.564	56.31
733.965	56.38
734.365	56.46
734.766	56.51
735.166	56.58
735.566	56.63
735.966	56.69
736.366	56.76
736.766	56.79
737.166	56.85
737.566	56.9
737.966	56.94
738.365	56.97
738.765	57.03
739.165	57.08
739.564	57.1
739.964	57.12
740.363	57.14
740.763	57.15
741.162	57.19
741.561	57.19
741.96	57.2
742.36	57.23
742.759	57.25
743.158	57.25
743.557	57.25
743.955	57.26
744.354	57.3
744.753	57.32
745.152	57.36
745.55	57.42
745.949	57.44
746.348	57.46
746.746	57.5
747.144	57.54
747.543	57.56
747.941	57.63
748.339	57.63
748.737	57.64
749.136	57.65
749.534	57.66
749.932	57.63
750.33	57.67
750.727	57.69
751.125	57.68
751.523	57.7
751.921	57.7
752.318	57.69
752.716	57.72
753.113	57.71
753.511	57.72
753.908	57.75
754.305	57.78
754.703	57.76
755.1	57.77
755.497	57.78
755.894	57.77
756.291	57.79
756.688	57.73
757.085	57.72
757.482	57.73
757.878	57.73
758.275	57.68
758.672	57.67
759.068	57.71
759.465	57.69
759.861	57.67
760.258	57.69
760.654	57.69
761.05	57.72
761.447	57.75
761.843	57.73
762.239	57.75
762.635	57.75
763.031	57.75
763.427	57.71
763.822	57.71
764.218	57.74
764.614	57.74
765.01	57.71
765.405	57.7
765.801	57.65
766.196	57.66
766.592	57.62
766.987	57.63
767.382	57.6
767.778	57.6
768.173	57.59
768.568	57.55
768.963	57.52
769.358	57.53
769.753	57.54
770.148	57.57
770.542	57.56
770.937	57.6
771.332	57.58
771.726	57.59
772.121	57.57
772.515	57.58
772.91	57.57
773.304	57.57
773.699	57.58
774.093	57.57
774.487	57.56
774.881	57.59
775.275	57.54
775.669	57.5
776.063	57.49
776.457	57.49
776.851	57.45
777.245	57.44
777.638	57.41
778.032	57.39
778.425	57.39
778.819	57.4
779.212	57.36
779.606	57.41
779.999	57.43
780.392	57.46
780.786	57.46
781.179	57.52
781.572	57.55
781.965	57.58
782.358	57.58
782.751	57.56
783.143	57.57
783.536	57.59
783.929	57.55
784.322	57.57
784.714	57.58
785.107	57.58
785.499	57.55
785.891	57.52
786.284	57.53
786.676	57.53
787.068	57.53
787.46	57.51
787.852	57.51
788.245	57.52
788.636	57.48
789.028	57.46
789.42	57.44
789.812	57.45
790.204	57.48
790.595	57.47
790.987	57.48
791.378	57.52
791.77	57.5
792.161	57.49
792.553	57.49
792.944	57.49
793.335	57.5
793.726	57.52
794.117	57.5
794.508	57.49
794.899	57.49
795.29	57.46
795.681	57.39
796.072	57.41
796.463	57.4
796.853	57.4
797.244	57.43
797.634	57.44
798.025	57.43
798.415	57.43
798.806	57.42
799.196	57.4
799.586	57.39
799.976	57.44
800.366	57.45
800.756	57.46
801.146	57.48
801.536	57.45
801.926	57.42
802.316	57.41
802.706	57.45
803.095	57.46
803.485	57.46
803.874	57.48
804.264	57.47
804.653	57.48
805.043	57.48
805.432	57.46
805.821	57.48
806.21	57.48
806.599	57.48
806.988	57.42
807.377	57.41
807.766	57.4
808.155	57.35
808.544	57.34
808.933	57.3
809.321	57.28
809.71	57.24
810.098	57.21
810.487	57.18
810.875	57.19
811.264	57.2
811.652	57.19
812.04	57.19
812.428	57.23
812.816	57.24
813.204	57.24
813.592	57.24
813.98	57.25
814.368	57.27
814.756	57.3
815.144	57.26
815.531	57.25
815.919	57.26
816.306	57.25
816.694	57.21
817.081	57.21
817.469	57.22
817.856	57.21
818.243	57.2
818.63	57.17
819.017	57.14
819.404	57.14
819.791	57.16
820.178	57.14
820.565	57.13
820.952	57.15
821.339	57.13
821.725	57.12
822.112	57.14
822.498	57.17
822.885	57.18
823.271	57.19
823.657	57.17
824.044	57.15
824.43	57.17
824.816	57.17
825.202	57.14
825.588	57.13
825.974	57.14
826.36	57.14
826.746	57.11
827.132	57.12
827.517	57.13
827.903	57.18
828.289	57.18
828.674	57.18
829.06	57.17
829.445	57.17
829.83	57.17
830.216	57.14
830.601	57.12
830.986	57.14
831.371	57.11
831.756	57.12
832.141	57.1
832.526	57.11
832.911	57.1
833.295	57.12
833.68	57.14
834.065	57.14
834.449	57.12
834.834	57.1
835.218	57.1
835.603	57.09
835.987	57.07
836.371	57.04
836.755	57.02
837.139	56.98
837.524	56.98
837.908	57.01
838.291	57.02
838.675	57.03
839.059	57.05
839.443	57.03
839.827	57.03
840.21	57.03
840.594	57.07
840.977	57.09
841.361	57.1
841.744	57.06
842.127	57.02
842.511	56.99
842.894	56.98
843.277	56.97
843.66	56.94
844.043	56.96
844.426	56.96
844.809	56.95
845.191	56.94
845.574	56.95
845.957	56.99
846.339	56.98
846.722	57.02
847.104	57.04
847.487	57.04
847.869	57.06
848.252	57.05
848.634	57.05
849.016	57.06
849.398	57.07
849.78	57.07
850.162	57.05
850.544	57.04
850.926	57.03
851.307	57.02
851.689	57.04
852.071	57.05
852.452	57.04
852.834	57.05
853.215	57.03
853.597	57.03
853.978	57.02
854.359	57.02
854.741	57.03
855.122	57.02
855.503	57.02
855.884	56.99
856.265	56.96
856.646	56.98
857.026	56.99
857.407	56.99
857.788	56.98
858.169	56.99
858.549	56.99
858.93	56.99
859.31	56.98
859.69	56.98
860.071	57.01
860.451	57.02
860.831	57
861.211	56.97
861.591	56.97
861.971	56.97
862.351	56.95
862.731	56.95
863.111	56.93
863.491	56.94
863.87	56.92
864.25	56.92
864.629	56.9
865.009	56.92
865.388	56.91
865.768	56.89
866.147	56.91
866.526	56.94
866.905	56.93
867.284	56.94
867.663	56.93
868.042	56.93
868.421	56.94
868.8	56.95
869.179	56.94
869.558	56.94
869.936	56.95
870.315	56.91
870.693	56.89
871.072	56.89
871.45	56.93
871.828	56.91
872.207	56.95
872.585	56.91
872.963	56.9
873.341	56.89
873.719	56.9
874.097	56.91
874.475	56.94
874.853	56.94
875.23	56.95
875.608	56.94
875.986	56.98
876.363	56.99
876.741	57.01
877.118	57.04
877.495	57.06
877.873	57.08
878.25	57.11
878.627	57.11
879.004	57.11
879.381	57.12
879.758	57.1
880.135	57.08
880.512	57.06
880.889	57.07
881.265	57.06
881.642	57.03
882.019	57.02
882.395	56.98
882.772	56.95
883.148	56.95
883.524	56.93
883.901	56.94
884.277	56.92
884.653	56.91
885.029	56.87
885.405	56.87
885.781	56.88
886.157	56.89
886.532	56.91
886.908	56.91
887.284	56.9
887.659	56.88
888.035	56.86
888.411	56.86
888.786	56.84
889.161	56.87
889.537	56.86
889.912	56.87
890.287	56.86
890.662	56.84
891.037	56.86
891.412	56.86
891.787	56.85
892.162	56.84
892.536	56.85
892.911	56.85
893.286	56.84
893.66	56.86
894.035	56.85
894.409	56.83
894.784	56.83
895.158	56.8
895.532	56.8
895.906	56.8
896.281	56.8
896.655	56.8
897.029	56.81
897.402	56.81
897.776	56.78
898.15	56.78
898.524	56.79
898.898	56.78
899.271	56.79
899.645	56.81
900.018	56.83
900.392	56.84
900.765	56.84
901.138	56.84
901.511	56.85
901.884	56.87
902.258	56.86
902.631	56.86
903.003	56.89
903.376	56.91
903.749	56.88
904.122	56.89
904.495	56.89
904.867	56.91
905.24	56.93
905.612	56.96
905.985	56.92
906.357	56.9
906.729	56.91
907.102	56.91
907.474	56.92
907.846	56.94
908.218	56.91
908.59	56.93
908.962	56.93
909.334	56.92
909.705	56.9
910.077	56.93
910.449	56.93
910.82	56.94
911.192	56.9
911.563	56.87
911.935	56.86
912.306	56.87
912.677	56.88
913.048	56.88
913.419	56.85
913.79	56.86
914.161	56.85
914.532	56.83
914.903	56.83
915.274	56.84
915.645	56.87
916.015	56.88
916.386	56.9
916.756	56.88
917.127	56.89
917.497	56.91
917.868	56.91
918.238	56.89
918.608	56.93
918.978	56.93
919.348	56.96
919.718	56.93
920.088	56.94
920.458	56.92
920.828	56.9
921.198	56.88
921.567	56.86
921.937	56.83
922.306	56.84
922.676	56.82
923.045	56.8
923.415	56.78
923.784	56.75
924.153	56.75
924.522	56.74
924.891	56.74
925.26	56.75
925.629	56.77
925.998	56.78
926.367	56.79
926.736	56.82
927.104	56.8
927.473	56.78
927.842	56.76
928.21	56.74
928.578	56.73
928.947	56.78
929.315	56.74
929.683	56.71
930.051	56.65
930.42	56.6
930.788	56.52
931.156	56.5
931.523	56.48
931.891	56.53
932.259	56.51
932.627	56.48
932.994	56.45
933.362	56.41
933.729	56.44
934.097	56.47
934.464	56.48
934.831	56.46
935.199	56.53
935.566	56.54
935.933	56.4
936.3	56.35
936.667	56.34
937.034	56.33
937.401	56.33
937.767	56.29
938.134	56.24
938.501	56.26
938.867	56.31
939.234	56.25
939.6	56.27
939.967	56.38
940.333	56.42
940.699	56.45
941.065	56.41
941.431	56.42
941.798	56.38
942.163	56.44
942.529	56.46
942.895	56.4
943.261	56.39
943.627	56.34
943.992	56.36
944.358	56.33
944.723	56.31
945.089	56.3
945.454	56.32
945.82	56.31
946.185	56.32
946.55	56.25
946.915	56.31
947.28	56.3
947.645	56.32
948.01	56.31
948.375	56.32
948.74	56.31
949.104	56.3
949.469	56.26
949.834	56.21
950.198	56.13
950.562	56.11
950.927	56.05
951.291	55.99
951.655	55.93
952.02	55.96
952.384	55.91
952.748	55.86
953.112	55.83
953.476	55.77
953.839	55.76
954.203	55.8
954.567	55.76
954.931	55.74
955.294	55.7
955.658	55.75
956.021	55.65
956.385	55.66
956.748	55.65
957.111	55.64
957.474	55.68
957.837	55.65
958.2	55.56
958.563	55.55
958.926	55.56
959.289	55.61
959.652	55.6
960.015	55.64
960.377	55.61
960.74	55.62
961.102	55.64
961.465	55.64
961.827	55.66
962.189	55.7
962.552	55.71
962.914	55.71
963.276	55.74
963.638	55.71
964	55.67
964.362	55.69
964.724	55.69
965.085	55.63
965.447	55.65
965.809	55.61
966.17	55.61
966.532	55.61
966.893	55.67
967.255	55.65
967.616	55.65
967.977	55.63
968.338	55.61
968.699	55.64
969.061	55.7
969.421	55.71
969.782	55.75
970.143	55.8
970.504	55.75
970.865	55.7
971.225	55.67
971.586	55.64
971.946	55.68
972.307	55.66
972.667	55.63
973.027	55.6
973.388	55.53
973.748	55.53
974.108	55.53
974.468	55.52
974.828	55.49
975.188	55.47
975.548	55.46
975.907	55.44
976.267	55.44
976.627	55.43
976.986	55.37
977.346	55.34
977.705	55.31
978.064	55.28
978.424	55.36
978.783	55.38
979.142	55.34
979.501	55.34
979.86	55.42
980.219	55.43
980.578	55.45
980.937	55.57
981.296	55.59
981.654	55.58
982.013	55.6
982.371	55.55
982.73	55.51
983.088	55.47
983.447	55.41
983.805	55.33
984.163	55.33
984.521	55.31
984.879	55.12
985.237	55.13
985.595	55.16
985.953	55.12
986.311	55.05
986.669	55.09
987.026	55.23
987.384	55.31
987.741	55.25
988.099	55.29
988.456	55.3
988.814	55.35
989.171	55.34
989.528	55.33
989.885	55.31
990.242	55.44
990.599	55.45
990.956	55.38
991.313	55.39
991.67	55.45
992.027	55.39
992.383	55.4
992.74	55.54
993.096	55.5
993.453	55.49
993.809	55.46
994.165	55.47
994.522	55.38
994.878	55.44
995.234	55.34
995.59	55.34
995.946	55.39
996.302	55.38
996.658	55.38
997.013	55.36
997.369	55.35
997.725	55.36
998.08	55.23
998.436	55.35
998.791	55.34
999.147	55.4
999.502	55.42
999.857	55.39
1000.212	55.32
1000.567	55.27
1000.922	55.28
1001.277	55.35
1001.632	55.33
1001.987	55.35
1002.342	55.29
1002.696	55.22
1003.051	55.38
1003.406	55.37
1003.76	55.48
1004.114	55.54
1004.469	55.57
1004.823	55.79
1005.177	55.63
1005.531	55.67
1005.885	55.75
1006.239	55.71
1006.593	55.79
1006.947	55.61
1007.301	55.55
1007.655	55.46
1008.008	55.42
1008.362	55.48
1008.715	55.46
1009.069	55.62
1009.422	55.56
1009.776	55.5
1010.129	55.65
1010.482	55.58
1010.835	55.55
1011.188	55.66
1011.541	55.69
1011.894	55.78
1012.247	55.75
1012.6	55.59
1012.952	55.39
1013.305	55.6
1013.657	55.77
1014.01	55.74
1014.362	55.78
1014.715	55.9
1015.067	55.91
1015.419	55.95
1015.771	55.78
1016.123	55.79
1016.475	55.92
1016.827	56.03
1017.179	56
1017.531	56
1017.883	55.85
1018.234	55.74
1018.586	55.79
1018.938	55.79
1019.289	55.5
1019.64	55.62
1019.992	55.49
1020.343	55.4
1020.694	55.51
1021.045	55.38
1021.396	55.19
1021.747	55.39
1022.098	55.54
1022.449	55.55
1022.8	55.79
1023.151	55.81
1023.501	55.86
1023.852	55.94
1024.202	55.82
1024.553	55.57
1024.903	55.85
1025.253	55.84
1025.604	55.74
1025.954	55.45
1026.304	55.34
1026.654	54.97
1027.004	55.04
1027.354	54.85
1027.703	54.63
1028.053	54.64
1028.403	55.16
1028.753	54.81
1029.102	54.99
1029.452	55
1029.801	55.3
1030.15	55.25
1030.499	55.24
897.758	816.59
901.051	822.02
904.343	821.06
907.636	836.35
910.928	811.51
914.22	815.84
917.511	809.58
920.803	769.04
924.094	771.05
927.384	754.11
930.675	722.06
933.965	720.28
937.255	679.59
940.544	652.11
943.834	623.59
947.123	619.52
950.411	582.28
953.7	569.75
956.988	543.44
960.276	524.11
963.563	514.84
966.851	499.35
970.138	495.43
973.424	481.56
976.711	485.84
979.997	461.31
983.283	457.73
986.568	449.68
989.853	438.13
993.138	430.48
996.423	411.61
999.708	402.19
1002.992	397.35
1006.275	380.09
1009.559	376.62
1012.842	363.09
1016.125	356.26
1019.408	351.19
1022.69	346.33
1025.972	339.29
1029.254	330.66
1032.536	326.69
1035.817	320.44
1039.098	317.69
1042.379	312.15
1045.659	308.58
1048.939	302.14
1052.219	295.91
1055.498	292.29
1058.778	285.61
1062.057	279.55
1065.335	278.13
1068.614	274.17
1071.892	272.04
1075.17	264.17
1078.447	259.77
1081.724	257.53
1085.001	255.84
1088.278	251.23
1091.554	247.95
1094.83	248.08
1098.106	246.56
1101.382	245.02
1104.657	244.04
1107.932	239.68
1111.206	240.53
1114.481	235.96
1117.755	235.06
1121.029	232.79
1124.302	232.34
1127.575	227.68
1130.848	225.79
1134.121	223.68
1137.393	222.2
1140.665	216.74
1143.937	215.77
1147.208	215.63
1150.48	213.99
1153.75	211.44
1157.021	209.06
1160.291	208.97
1163.561	206.76
1166.831	206.77
1170.101	205.09
1173.37	205.27
1176.639	207.04
1179.907	205.08
1183.176	201.85
1186.444	202.16
1189.711	201.24
1192.979	200.5
1196.246	199.79
1199.513	200.36
1202.78	198.9
1206.046	199.45
1209.312	197.4
1212.578	196.97
1215.843	198.27
1219.108	197.76
1222.373	201.11
1225.638	202.85
1228.902	205.04
1232.166	205.75
1235.43	206.84
1238.693	209.67
1241.956	210.35
1245.219	212.69
1248.482	214.36
1251.744	214.05
1255.006	214.31
1258.268	209.66
1261.529	208.18
1264.79	207.25
1268.051	205.55
1271.312	203.38
1274.572	201.36
1277.832	199.83
1281.092	196.97
1284.351	194.56
1287.61	195.03
1290.869	192.83
1294.128	191.84
1297.386	191.72
1300.644	190.02
1303.902	190.1
1307.159	189.74
1310.416	189.13
1313.673	188.71
1316.93	190.1
1320.186	190.16
1323.442	190.43
1326.697	193.05
1329.953	193.57
1333.208	193.19
1336.463	195.74
1339.717	195.89
1342.972	197.47
1346.226	198.9
1349.479	199.18
1352.733	200.05
1355.986	201.61
1359.238	200.9
1362.491	201.35
1365.743	202.17
1368.995	202.21
1372.247	200.73
1375.498	199.9
1378.749	200.97
1382	198.15
1385.251	197.93
1388.501	196.99
1391.751	195.26
1395	194.02
1398.25	192.19
1401.499	190.19
1404.748	189.32
1407.996	187.04
1411.244	186.74
1414.492	184.43
1417.74	182.48
1420.987	180.69
1424.234	178.9
1427.481	176.86
1430.728	176.91
1433.974	175.58
1437.22	173.67
1440.465	173.75
1443.711	171.78
1446.956	169.65
1450.201	168.56
1453.445	167.1
1456.689	166.02
1459.933	163.78
1463.177	162.91
1466.42	159.99
1469.663	158.04
1472.906	157.36
1476.148	153.71
1479.391	152.56
1482.633	152.07
1485.874	149.98
1489.115	148.88
1492.356	147.46
1495.597	147.17
1498.838	145.42
1502.078	145.27
1505.318	144.82
1508.557	144.77
1511.797	144.63
1515.036	144.3
1518.274	143.62
1521.513	143.17
1524.751	143.12
1527.989	143.17
1531.227	143.19
1534.464	143.08
1537.701	142.9
1540.938	142.59
1544.174	141.87
1547.41	142.4
1550.646	141.44
1553.882	142.35
1557.117	140.93
1560.352	140.1
1563.587	140.11
1566.821	139.38
1570.055	139.04
1573.289	137.9
1576.523	138.01
1579.756	137.12
1582.989	136.52
1586.222	136.57
1589.454	135.68
1592.686	137.1
1595.918	136.74
1599.15	136.3
1602.381	136.33
1605.612	136.09
1608.843	136.9
1612.073	136.59
1615.303	137.37
1618.533	137.27
1621.762	137.78
1624.992	138.67
1628.221	137.84
1631.449	138.2
1634.678	138
1637.906	139.11
1641.134	138.92
1644.361	138.6
1647.588	139.09
1650.815	138.9
1654.042	138.69
1657.269	139.08
1660.495	138.81
1663.72	138.68
1666.946	139.16
1670.171	139.68
1673.396	139.62
1676.621	140.3
1679.845	140.15
1683.069	140.16
1686.293	141.16
1689.517	141.11
1692.74	141.16
1695.963	141.21
1699.185	142.14
1702.408	142.32
1705.63	142.61
1708.852	142.9
1712.073	142.38
1715.294	142.98
1718.515	144.11
1721.736	143.49
1724.956	143.95
1728.176	143.86
1731.396	144.46
1734.616	144.11
1737.835	144.36
1741.054	143.37
1744.272	143.6
1747.491	144.84
1750.709	144.89
1753.927	144.17
1757.144	143.6
1760.361	144.28
1763.578	144.4
1766.795	144.23
1770.011	145.01
1773.227	144.72
1776.443	145.86
1779.658	145.29
1782.874	145.38
1786.089	145.82
1789.303	146.14
1792.518	147.49
1795.732	147.51
1798.945	148.44
1802.159	148.96
1805.372	149.09
1808.585	151.3
1811.797	151.87
1815.01	153.14
1818.222	153.8
1821.434	155.07
1824.645	155.34
1827.856	158.2
1831.067	158.56
1834.278	158.64
1837.488	159.32
1840.698	160.31
1843.908	159.08
1847.117	159.48
1850.326	159.28
1853.535	158.75
1856.744	160.24
1859.952	159.38
1863.16	157.37
1866.368	156.65
1869.575	156.52
1872.782	153.55
1875.989	151.65
1879.196	150.56
1882.402	148.77
1885.608	148.68
1888.814	147.46
1892.019	144.96
1895.224	144.3
1898.429	143.45
1901.634	142.81
1904.838	142.21
1908.042	143.32
1911.246	143.44
1914.449	144.05
1917.652	143.05
1920.855	142.76
1924.058	142.65
1927.26	142.04
1930.462	142.76
1933.664	143.81
1936.865	143.25
1940.066	143.43
1943.267	142.01
1946.467	142.06
1949.668	142.55
1952.868	145.31
1956.067	145.17
1959.267	145.79
1962.466	146.58
1965.665	145.74
1968.863	146.51
1972.061	147.95
1975.259	149.44
1978.457	151.57
1981.654	153.55
1984.852	153.88
1988.048	153.69
1991.245	154.5
1994.441	156.42
1997.637	158.03
2000.833	161.18
2004.028	162.69
2007.223	164.49
2010.418	165.6
2013.613	168.17
2016.807	169.71
2020.001	171.83
2023.194	174.3
2026.388	178.45
2029.581	183.1
2032.774	184.46
2035.966	187.32
2039.158	188.5
2042.35	192.31
2045.542	193.55
2048.733	197.01
2051.924	199.35
2055.115	203.33
2058.306	203.87
2061.496	206.11
2064.686	204.61
2067.875	208.34
2071.065	209.6
2074.254	208.49
2077.442	211.21
2080.631	213.1
2083.819	214.73
2087.007	215.56
2090.195	217.94
2093.382	219.9
2096.569	219.34
2099.756	223.37
2102.942	223.95
2106.128	226.37
2109.314	231.28
2112.5	230.42
2115.685	234.78
2118.87	235.25
2122.055	239.89
2125.239	240.35
2128.424	243.33
2131.608	244.45
2134.791	248.38
2137.974	250.28
2141.157	250.76
2144.34	251.67
2147.523	254.52
2150.705	253.18
2153.887	256.62
2157.068	256.86
2160.25	254.76
2163.431	256.64
2166.611	259.05
2169.792	264.01
2172.972	266.56
2176.152	267.72
2179.331	271.03
2182.511	276.28
2185.69	277.84
2188.868	282.18
2192.047	283.65
2195.225	292.43
2198.403	296.99
2201.58	303.47
2204.758	307.4
2207.935	313.36
2211.111	320.11
2214.288	323.85
2217.464	323.81
2220.64	332.59
2223.815	336.05
2226.991	347.31
2230.166	347.4
2233.34	353.86
2236.515	360.46
2239.689	359.46
2242.863	361.19
2246.036	371.95
2249.209	369.84
2252.382	375.93
2255.555	384.11
2258.727	385.83
2261.9	389.58
2265.071	393.52
2268.243	400.92
2271.414	403.21
2274.585	414.34
2277.756	417.07
2280.926	420.49
2284.096	430.74
2287.266	439.61
2290.436	442.53
2293.605	452.03
2296.774	463.73
2299.942	478.36
2303.111	480.56
2306.279	493.63
2309.447	496.52
2312.614	508.96
2315.781	521.72
2318.948	542.54
2322.115	536.3
2325.281	566.72
2328.447	553.08
2331.613	574.5
2334.779	568.12
2337.944	592.39
2341.109	596.09
2344.274	614.41
2347.438	634.68
2350.602	632.47
2353.766	655.05
2356.929	664.8
2360.092	657.41
2363.255	707.05
2366.418	706.57
2369.58	716.13
2372.742	760.75
2375.904	780.69
2379.066	777.64
2382.227	765.95
2385.388	828.42
2388.548	823.84
2391.709	834.25
2394.869	929.94
2398.029	892.63
2401.188	917.39
2404.347	914.35
2407.506	898.39
2410.665	920.96
2413.823	976.78
2416.981	1032.91
2420.139	1003.48
2423.296	994.63
2426.453	1034.61
2429.61	991.08
2432.767	1034.64
2435.923	1025.73
2439.079	1122.14
2442.235	1136.83
2445.391	1133.14
2448.546	1119.39
2451.701	1093.94
2454.855	1089.02
2458.009	1155.37
2461.163	1203.33
2464.317	1251.53
2467.471	1285.23
2470.624	1285.41
2473.777	1251.75
2476.929	1220.58
2480.082	1176.87
2483.234	1168.89
2486.385	1221.65
2489.537	1231.73
2492.688	1274.25
2495.839	1242.74
2498.989	1217.55
2502.14	1221.67
2505.29	1233.62
2508.439	1248.86
2511.589	1247.81
2514.738	1360.92
2517.887	1328.05
2521.035	1403.09
2524.183	1414.57
2527.331	1427.4
2530.479	1418.29
2533.627	1426.11
