Data from C_1_DIV_WI_4N_Splice17_12-54-11-970.txt Node
Date: Sat Mar 07 12:54:11 EST 2020
User: sa697716
Spectrometer: NQ5500242
Trigger mode: 0
Integration Time (sec): 1.450000E-1
Scans to average: 20
Nonlinearity correction enabled: false
Boxcar width: 5
Storing dark spectrum: false
XAxis mode: Wavelengths
Number of Pixels in Spectrum: 512
>>>>>Begin Spectral Data<<<<<
187.83	91.67
188.298	113.23
188.766	108.09
189.233	81.08
189.701	71.74
190.169	98.63
190.636	90.34
191.104	68.71
191.571	-62.17
192.039	-167.38
192.506	-516.21
192.974	200.59
193.441	365.14
193.908	175.76
194.375	66.48
194.842	9.83
195.31	62.06
195.777	12.09
196.244	27.04
196.711	34.43
197.177	37.55
197.644	37.44
198.111	37.35
198.578	37.46
199.045	38.09
199.511	38.51
199.978	38.52
200.445	38.45
200.911	38.54
201.378	38.72
201.844	38.58
202.31	38.43
202.777	38.32
203.243	38.4
203.709	38.29
204.176	37.94
204.642	37.54
205.108	37.62
205.574	37.61
206.04	37.29
206.506	36.96
206.972	37.35
207.438	36.99
207.903	36.82
208.369	36.36
208.835	36.06
209.301	35.34
209.766	34.8
210.232	33.8
210.697	33.27
211.163	32.78
211.628	32.32
212.094	31.56
212.559	31.28
213.024	30.81
213.49	30.16
213.955	29.45
214.42	29.24
214.885	28.81
215.35	28.46
215.815	27.5
216.28	26.2
216.745	24.78
217.21	23.45
217.675	22.11
218.14	21.07
218.604	20.19
219.069	19.44
219.534	18.82
219.998	18.23
220.463	17.73
220.927	17.28
221.392	16.94
221.856	16.68
222.32	16.43
222.785	16.2
223.249	15.94
223.713	15.71
224.177	15.52
224.642	15.3
225.106	15.08
225.57	14.84
226.034	14.64
226.497	14.46
226.961	14.26
227.425	14.07
227.889	13.9
228.353	13.74
228.816	13.55
229.28	13.37
229.744	13.19
230.207	13.02
230.671	12.84
231.134	12.69
231.597	12.54
232.061	12.38
232.524	12.23
232.987	12.07
233.45	11.93
233.914	11.8
234.377	11.64
234.84	11.51
235.303	11.4
235.766	11.29
236.229	11.16
236.691	11.04
237.154	10.93
237.617	10.83
238.08	10.71
238.542	10.59
239.005	10.49
239.468	10.39
239.93	10.28
240.393	10.18
240.855	10.06
241.317	9.95
241.78	9.85
242.242	9.75
242.704	9.64
243.166	9.54
243.629	9.45
244.091	9.35
244.553	9.25
245.015	9.16
245.477	9.06
245.939	8.98
246.4	8.89
246.862	8.81
247.324	8.72
247.786	8.64
248.247	8.55
248.709	8.46
249.17	8.38
249.632	8.3
250.093	8.23
250.555	8.15
251.016	8.07
251.477	8
251.939	7.93
252.4	7.86
252.861	7.79
253.322	7.74
253.783	7.69
254.244	7.64
254.705	7.58
255.166	7.53
255.627	7.47
256.088	7.42
256.549	7.38
257.009	7.32
257.47	7.26
257.931	7.2
258.391	7.13
258.852	7.07
259.312	7.01
259.773	6.95
260.233	6.91
260.694	6.86
261.154	6.81
261.614	6.75
262.074	6.71
262.534	6.66
262.994	6.62
263.455	6.58
263.915	6.54
264.374	6.51
264.834	6.47
265.294	6.43
265.754	6.4
266.214	6.38
266.673	6.35
267.133	6.32
267.593	6.29
268.052	6.27
268.512	6.25
268.971	6.23
269.431	6.2
269.89	6.18
270.349	6.16
270.809	6.13
271.268	6.11
271.727	6.08
272.186	6.06
272.645	6.05
273.104	6.02
273.563	5.99
274.022	5.97
274.481	5.94
274.94	5.92
275.399	5.89
275.857	5.86
276.316	5.83
276.775	5.8
277.233	5.78
277.692	5.75
278.15	5.72
278.609	5.7
279.067	5.67
279.525	5.66
279.984	5.63
280.442	5.62
280.9	5.61
281.358	5.59
281.816	5.58
282.274	5.55
282.732	5.53
283.19	5.51
283.648	5.48
284.106	5.46
284.564	5.44
285.021	5.42
285.479	5.4
285.937	5.37
286.394	5.35
286.852	5.32
287.309	5.31
287.767	5.29
288.224	5.26
288.682	5.23
289.139	5.21
289.596	5.18
290.053	5.14
290.511	5.1
290.968	5.08
291.425	5.04
291.882	5.02
292.339	4.99
292.796	4.97
293.252	4.94
293.709	4.93
294.166	4.91
294.623	4.89
295.079	4.88
295.536	4.86
295.992	4.85
296.449	4.83
296.905	4.81
297.362	4.8
297.818	4.77
298.274	4.76
298.731	4.74
299.187	4.72
299.643	4.7
300.099	4.68
300.555	4.65
301.011	4.63
301.467	4.62
301.923	4.6
302.379	4.58
302.835	4.57
303.291	4.55
303.746	4.53
304.202	4.52
304.658	4.51
305.113	4.5
305.569	4.49
306.024	4.48
306.479	4.47
306.935	4.46
307.39	4.46
307.845	4.44
308.301	4.44
308.756	4.43
309.211	4.41
309.666	4.41
310.121	4.39
310.576	4.38
311.031	4.38
311.486	4.36
311.94	4.35
312.395	4.33
312.85	4.32
313.305	4.31
313.759	4.3
314.214	4.29
314.668	4.28
315.123	4.27
315.577	4.25
316.032	4.24
316.486	4.23
316.94	4.22
317.394	4.2
317.849	4.18
318.303	4.17
318.757	4.15
319.211	4.14
319.665	4.11
320.119	4.09
320.572	4.08
321.026	4.07
321.48	4.05
321.934	4.03
322.387	4.03
322.841	4.02
323.295	4.01
323.748	4
324.202	3.99
324.655	3.98
325.108	3.98
325.562	3.96
326.015	3.95
326.468	3.94
326.921	3.93
327.374	3.92
327.827	3.9
328.28	3.89
328.733	3.88
329.186	3.87
329.639	3.86
330.092	3.85
330.545	3.84
330.997	3.84
331.45	3.84
331.903	3.83
332.355	3.83
332.808	3.82
333.26	3.82
333.713	3.81
334.165	3.8
334.617	3.81
335.069	3.8
335.522	3.79
335.974	3.78
336.426	3.77
336.878	3.76
337.33	3.75
337.782	3.75
338.234	3.75
338.686	3.75
339.137	3.74
339.589	3.73
340.041	3.73
340.493	3.71
340.944	3.7
341.396	3.69
341.847	3.68
342.299	3.67
342.75	3.65
343.201	3.63
343.653	3.62
344.104	3.59
344.555	3.58
345.006	3.56
345.457	3.55
345.908	3.54
346.359	3.54
346.81	3.53
347.261	3.51
347.712	3.51
348.163	3.5
348.613	3.5
349.064	3.5
349.515	3.49
349.965	3.49
350.416	3.47
350.866	3.46
351.317	3.45
351.767	3.44
352.217	3.43
352.668	3.43
353.118	3.43
353.568	3.42
354.018	3.42
354.468	3.42
354.918	3.41
355.368	3.42
355.818	3.42
356.268	3.41
356.718	3.4
357.168	3.39
357.617	3.38
358.067	3.37
358.517	3.39
358.966	3.38
359.416	3.38
359.865	3.38
360.315	3.38
360.764	3.37
361.213	3.37
361.663	3.36
362.112	3.37
362.561	3.37
363.01	3.36
363.459	3.33
363.908	3.32
364.357	3.31
364.806	3.3
365.255	3.3
365.703	3.3
366.152	3.3
366.601	3.3
367.05	3.31
367.498	3.3
367.947	3.3
368.395	3.31
368.844	3.31
369.292	3.3
369.74	3.3
370.189	3.29
370.637	3.28
371.085	3.26
371.533	3.25
371.981	3.24
372.429	3.23
372.877	3.23
373.325	3.21
373.773	3.21
374.221	3.21
374.669	3.2
375.116	3.19
375.564	3.19
376.012	3.2
376.459	3.19
376.907	3.2
377.354	3.19
377.801	3.2
378.249	3.19
378.696	3.19
379.143	3.19
379.591	3.19
380.038	3.19
380.485	3.19
380.932	3.17
381.379	3.18
381.826	3.18
382.273	3.18
382.72	3.16
383.166	3.16
383.613	3.15
384.06	3.14
384.506	3.13
384.953	3.14
385.4	3.13
385.846	3.15
386.292	3.14
386.739	3.12
387.185	3.13
387.631	3.14
388.078	3.15
388.524	3.15
388.97	3.16
389.416	3.17
389.862	3.18
390.308	3.19
390.754	3.2
391.2	3.22
391.645	3.23
392.091	3.25
392.537	3.27
392.983	3.27
393.428	3.29
393.874	3.3
394.319	3.3
394.765	3.29
395.21	3.3
395.655	3.3
396.101	3.31
396.546	3.32
396.991	3.32
397.436	3.33
397.881	3.36
398.326	3.36
398.771	3.38
399.216	3.39
399.661	3.42
400.106	3.43
400.551	3.44
400.995	3.43
401.44	3.44
401.885	3.45
402.329	3.46
402.774	3.46
403.218	3.49
403.663	3.5
404.107	3.51
404.551	3.51
404.995	3.52
405.44	3.52
405.884	3.53
406.328	3.55
406.772	3.55
407.216	3.56
407.66	3.57
408.104	3.57
408.547	3.57
408.991	3.58
409.435	3.58
409.879	3.59
410.322	3.62
410.766	3.63
411.209	3.64
411.653	3.66
412.096	3.67
412.54	3.68
412.983	3.68
413.426	3.72
413.869	3.74
414.312	3.76
414.756	3.77
415.199	3.77
415.642	3.78
416.085	3.78
416.527	3.77
416.97	3.76
417.413	3.76
417.856	3.76
418.298	3.74
418.741	3.74
419.184	3.72
419.626	3.73
420.069	3.73
420.511	3.73
420.953	3.73
421.396	3.75
421.838	3.75
422.28	3.76
422.722	3.77
423.164	3.78
423.606	3.78
424.048	3.78
424.49	3.78
424.932	3.78
425.374	3.76
425.816	3.74
426.258	3.73
426.699	3.72
427.141	3.72
427.582	3.72
428.024	3.73
428.465	3.73
428.907	3.73
429.348	3.73
429.789	3.73
430.231	3.75
430.672	3.78
431.113	3.8
431.554	3.81
431.995	3.82
432.436	3.82
432.877	3.83
433.318	3.84
433.759	3.87
434.2	3.89
434.64	3.91
435.081	3.92
435.522	3.93
435.962	3.95
436.403	3.96
436.843	3.98
437.284	3.99
437.724	3.98
438.164	3.97
438.604	3.98
439.045	3.97
439.485	3.96
439.925	3.95
440.365	3.95
440.805	3.96
441.245	3.96
441.685	3.96
442.125	3.98
442.564	3.99
443.004	4
443.444	4.01
443.883	4.03
444.323	4.03
444.762	4.04
445.202	4.06
445.641	4.06
446.081	4.08
446.52	4.08
446.959	4.1
447.398	4.1
447.837	4.1
448.276	4.1
448.716	4.09
449.154	4.12
449.593	4.12
450.032	4.11
450.471	4.11
450.91	4.1
451.349	4.09
451.787	4.07
452.226	4.05
452.664	4.05
453.103	4.04
453.541	4.04
453.98	4.04
454.418	4.03
454.856	4.02
455.295	4.01
455.733	4
456.171	4.01
456.609	4
457.047	4
457.485	4
457.923	4.01
458.361	4
458.798	3.99
459.236	3.99
459.674	3.97
460.111	3.96
460.549	3.96
460.987	3.95
461.424	3.96
461.862	3.96
462.299	3.96
462.736	3.94
463.173	3.93
463.611	3.94
464.048	3.94
464.485	3.96
464.922	3.97
465.359	3.98
465.796	4
466.233	4
466.67	3.99
467.106	3.99
467.543	3.99
467.98	3.99
468.416	3.98
468.853	3.97
469.29	3.97
469.726	3.97
470.162	3.96
470.599	3.93
471.035	3.92
471.471	3.92
471.907	3.91
472.344	3.91
472.78	3.9
473.216	3.9
473.652	3.9
474.088	3.87
474.523	3.87
474.959	3.86
475.395	3.85
475.831	3.86
476.266	3.86
476.702	3.85
477.138	3.85
477.573	3.85
478.008	3.85
478.444	3.83
478.879	3.84
479.314	3.83
479.75	3.82
480.185	3.8
480.62	3.79
481.055	3.77
481.49	3.76
481.925	3.76
482.36	3.75
482.795	3.74
483.229	3.73
483.664	3.73
484.099	3.73
484.534	3.73
484.968	3.74
485.403	3.73
485.837	3.74
486.271	3.75
486.706	3.74
487.14	3.74
487.574	3.75
488.009	3.76
488.443	3.77
488.877	3.77
489.311	3.79
489.745	3.8
490.179	3.83
490.613	3.84
491.046	3.85
491.48	3.87
491.914	3.89
492.348	3.91
492.781	3.93
493.215	3.97
493.648	4
494.082	4.02
494.515	4.04
494.948	4.07
495.382	4.1
495.815	4.14
496.248	4.18
496.681	4.22
497.114	4.26
497.547	4.31
497.98	4.35
498.413	4.4
498.846	4.45
499.279	4.51
499.711	4.56
500.144	4.63
500.577	4.7
501.009	4.76
501.442	4.83
501.874	4.91
502.306	4.97
502.739	5.06
503.171	5.15
503.603	5.23
504.036	5.33
504.468	5.44
504.9	5.53
505.332	5.64
505.764	5.76
506.196	5.88
506.627	6.01
507.059	6.14
507.491	6.27
507.923	6.41
508.354	6.56
508.786	6.71
509.217	6.86
509.649	7.03
510.08	7.2
510.512	7.36
510.943	7.53
511.374	7.71
511.805	7.9
512.237	8.09
512.668	8.28
513.099	8.49
513.53	8.7
513.961	8.91
514.391	9.12
514.822	9.33
515.253	9.55
515.684	9.78
516.114	10
516.545	10.23
516.975	10.47
517.406	10.7
517.836	10.93
518.267	11.18
518.697	11.41
519.127	11.64
519.558	11.88
519.988	12.13
520.418	12.36
520.848	12.61
521.278	12.84
521.708	13.2
522.138	13.43
522.567	13.66
522.997	13.87
523.427	14.08
523.857	14.29
524.286	14.49
524.716	14.69
525.145	14.88
525.575	15.06
526.004	15.24
526.433	15.28
526.863	15.45
527.292	15.62
527.721	15.77
528.15	15.92
528.579	16.08
529.008	16.22
529.437	16.35
529.866	16.47
530.295	16.61
530.724	16.72
531.152	16.83
531.581	16.95
532.01	17.04
532.438	17.14
532.867	17.25
533.295	17.34
533.723	17.43
534.152	17.49
534.58	17.58
535.008	17.63
535.436	17.7
535.865	17.76
536.293	17.8
536.721	17.87
537.149	17.93
537.576	17.96
538.004	18.01
538.432	18.05
538.86	18.09
539.287	18.12
539.715	18.16
540.143	18.19
540.57	18.21
540.998	18.24
541.425	18.26
541.852	18.28
542.28	18.31
542.707	18.33
543.134	18.36
543.561	18.38
543.988	18.43
544.415	18.44
544.842	18.45
545.269	18.49
545.696	18.5
546.123	18.52
546.549	18.53
546.976	18.56
547.403	18.59
547.829	18.59
548.256	18.6
548.682	18.58
549.108	18.62
549.535	18.64
549.961	18.64
550.387	18.65
550.813	18.64
551.24	18.63
551.666	18.62
552.092	18.6
552.518	18.59
552.943	18.57
553.369	18.57
553.795	18.53
554.221	18.49
554.646	18.45
555.072	18.41
555.498	18.36
555.923	18.32
556.349	18.26
556.774	18.19
557.199	18.13
557.625	18.06
558.05	17.98
558.475	17.91
558.9	17.85
559.325	17.78
559.75	17.69
560.175	17.62
560.6	17.53
561.025	17.44
561.449	17.35
561.874	17.24
562.299	17.14
562.723	17.03
563.148	16.9
563.572	16.77
563.997	16.65
564.421	16.52
564.846	16.38
565.27	16.26
565.694	16.14
566.118	15.99
566.542	15.87
566.966	15.73
567.39	15.61
567.814	15.48
568.238	15.35
568.662	15.22
569.086	15.09
569.509	14.97
569.933	14.85
570.357	14.73
570.78	14.62
571.204	14.5
571.627	14.38
572.05	14.26
572.474	14.14
572.897	14.03
573.32	13.91
573.743	13.79
574.166	13.68
574.589	13.57
575.012	13.46
575.435	13.35
575.858	13.24
576.281	13.14
576.704	13.05
577.126	12.96
577.549	12.87
577.972	12.78
578.394	12.7
578.817	12.63
579.239	12.55
579.661	12.46
580.084	12.39
580.506	12.32
580.928	12.25
581.35	12.18
581.772	12.11
582.194	12.04
582.616	11.97
583.038	11.9
583.46	11.83
583.882	11.77
584.303	11.7
584.725	11.63
585.147	11.56
585.568	11.51
585.99	11.45
586.411	11.38
586.833	11.32
587.254	11.26
587.675	11.21
588.096	11.15
588.518	11.08
588.939	11.05
589.36	11.01
589.781	10.97
590.202	10.93
590.623	10.89
591.043	10.86
591.464	10.83
591.885	10.79
592.305	10.76
592.726	10.74
593.147	10.7
593.567	10.68
593.987	10.63
594.408	10.6
594.828	10.56
595.248	10.53
595.669	10.5
596.089	10.47
596.509	10.44
596.929	10.42
597.349	10.39
597.769	10.36
598.189	10.32
598.608	10.3
599.028	10.29
599.448	10.25
599.867	10.22
600.287	10.18
600.706	10.16
601.126	10.13
601.545	10.1
601.965	10.07
602.384	10.04
602.803	9.99
603.222	9.95
603.641	9.89
604.061	9.86
604.48	9.82
604.898	9.77
605.317	9.71
605.736	9.66
606.155	9.61
606.574	9.55
606.992	9.49
607.411	9.44
607.829	9.36
608.248	9.3
608.666	9.23
609.085	9.17
609.503	9.12
609.921	9.07
610.339	9.02
610.758	8.96
611.176	8.89
611.594	8.83
612.012	8.77
612.43	8.75
612.847	8.69
613.265	8.64
613.683	8.58
614.101	8.52
614.518	8.46
614.936	8.4
615.353	8.34
615.771	8.29
616.188	8.23
616.606	8.18
617.023	8.12
617.44	8.08
617.857	8.03
618.274	7.99
618.691	7.94
619.108	7.9
619.525	7.86
619.942	7.84
620.359	7.81
620.776	7.79
621.192	7.77
621.609	7.75
622.026	7.72
622.442	7.7
622.859	7.67
623.275	7.66
623.691	7.64
624.108	7.63
624.524	7.61
624.94	7.59
625.356	7.58
625.772	7.57
626.188	7.56
626.604	7.55
627.02	7.54
627.436	7.53
627.852	7.52
628.268	7.5
628.683	7.49
629.099	7.47
629.514	7.46
629.93	7.43
630.345	7.41
630.761	7.37
631.176	7.35
631.591	7.32
632.007	7.29
632.422	7.25
632.837	7.22
633.252	7.17
633.667	7.12
634.082	7.07
634.497	7.01
634.911	6.95
635.326	6.88
635.741	6.81
636.155	6.75
636.57	6.68
636.984	6.61
637.399	6.53
637.813	6.45
638.228	6.37
638.642	6.28
639.056	6.2
639.47	6.13
639.884	6.07
640.298	5.99
640.712	5.91
641.126	5.83
641.54	5.74
641.954	5.66
642.368	5.59
642.781	5.52
643.195	5.46
643.609	5.39
644.022	5.31
644.436	5.24
644.849	5.18
645.262	5.12
645.676	5.07
646.089	5.03
646.502	4.98
646.915	4.94
647.328	4.9
647.741	4.85
648.154	4.82
648.567	4.79
648.98	4.75
649.393	4.73
649.805	4.71
650.218	4.67
650.631	4.65
651.043	4.62
651.456	4.6
651.868	4.56
652.28	4.55
652.693	4.53
653.105	4.51
653.517	4.48
653.929	4.46
654.341	4.42
654.753	4.39
655.165	4.36
655.577	4.32
655.989	4.29
656.401	4.25
656.813	4.21
657.224	4.15
657.636	4.1
658.047	4.07
658.459	4.02
658.87	3.98
659.282	3.93
659.693	3.88
660.104	3.83
660.515	3.78
660.926	3.75
661.338	3.7
661.749	3.67
662.159	3.63
662.57	3.6
662.981	3.57
663.392	3.53
663.803	3.5
664.213	3.47
664.624	3.45
665.035	3.42
665.445	3.4
665.855	3.38
666.266	3.36
666.676	3.35
667.086	3.32
667.497	3.31
667.907	3.29
668.317	3.28
668.727	3.26
669.137	3.26
669.547	3.27
669.956	3.26
670.366	3.27
670.776	3.27
671.186	3.27
671.595	3.27
672.005	3.27
672.414	3.29
672.824	3.29
673.233	3.3
673.642	3.3
674.052	3.31
674.461	3.33
674.87	3.34
675.279	3.36
675.688	3.38
676.097	3.41
676.506	3.43
676.915	3.45
677.323	3.49
677.732	3.52
678.141	3.55
678.549	3.57
678.958	3.6
679.366	3.64
679.775	3.67
680.183	3.71
680.592	3.76
681	3.81
681.408	3.86
681.816	3.92
682.224	3.98
682.632	4.06
683.04	4.13
683.448	4.21
683.856	4.29
684.264	4.39
684.671	4.49
685.079	4.61
685.487	4.73
685.894	4.88
686.302	5.04
686.709	5.21
687.116	5.41
687.524	5.63
687.931	5.87
688.338	6.13
688.745	6.4
689.152	6.7
689.559	7.01
689.966	7.34
690.373	7.69
690.78	8.07
691.187	8.46
691.593	8.86
692	9.27
692.407	9.69
692.813	10.13
693.22	10.58
693.626	11.03
694.032	11.5
694.439	11.98
694.845	12.48
695.251	12.96
695.657	13.44
696.063	13.93
696.469	14.43
696.875	14.94
697.281	15.44
697.687	15.97
698.093	16.49
698.498	17
698.904	17.52
699.31	18
699.715	18.51
700.12	19.02
700.526	19.52
700.931	20.02
701.337	20.49
701.742	20.97
702.147	21.41
702.552	21.86
702.957	22.3
703.362	22.75
703.767	23.19
704.172	23.62
704.577	24.04
704.981	24.47
705.386	24.91
705.791	25.33
706.195	25.75
706.6	26.19
707.004	26.62
707.408	27.06
707.813	27.48
708.217	27.89
708.621	28.31
709.025	28.71
709.43	29.08
709.834	29.46
710.237	29.84
710.641	30.22
711.045	30.59
711.449	30.94
711.853	31.31
712.256	31.66
712.66	32.01
713.064	32.34
713.467	32.69
713.87	33.04
714.274	33.37
714.677	33.72
715.08	34.04
715.484	34.38
715.887	34.7
716.29	34.98
716.693	35.28
717.096	35.58
717.499	35.89
717.901	36.17
718.304	36.46
718.707	36.75
719.109	37.01
719.512	37.28
719.915	37.53
720.317	37.78
720.719	38.01
721.122	38.25
721.524	38.5
721.926	38.73
722.328	38.98
722.731	39.21
723.133	39.42
723.535	39.62
723.937	39.84
724.338	40.02
724.74	40.22
725.142	40.52
725.544	40.7
725.945	40.9
726.347	41.06
726.748	41.2
727.15	41.34
727.551	41.5
727.952	41.66
728.354	41.78
728.755	41.93
729.156	42.05
729.557	42.08
729.958	42.21
730.359	42.31
730.76	42.45
731.161	42.57
731.562	42.7
731.962	42.79
732.363	42.89
732.763	42.99
733.164	43.1
733.564	43.2
733.965	43.29
734.365	43.41
734.766	43.49
735.166	43.56
735.566	43.65
735.966	43.74
736.366	43.84
736.766	43.91
737.166	44
737.566	44.09
737.966	44.16
738.365	44.23
738.765	44.28
739.165	44.34
739.564	44.39
739.964	44.45
740.363	44.49
740.763	44.53
741.162	44.58
741.561	44.6
741.96	44.62
742.36	44.65
742.759	44.71
743.158	44.74
743.557	44.74
743.955	44.79
744.354	44.8
744.753	44.83
745.152	44.88
745.55	44.92
745.949	44.95
746.348	44.97
746.746	45
747.144	45.01
747.543	45.03
747.941	45.06
748.339	45.08
748.737	45.09
749.136	45.1
749.534	45.09
749.932	45.09
750.33	45.11
750.727	45.13
751.125	45.13
751.523	45.14
751.921	45.14
752.318	45.16
752.716	45.15
753.113	45.16
753.511	45.16
753.908	45.2
754.305	45.21
754.703	45.18
755.1	45.2
755.497	45.24
755.894	45.24
756.291	45.24
756.688	45.24
757.085	45.27
757.482	45.3
757.878	45.31
758.275	45.31
758.672	45.31
759.068	45.36
759.465	45.36
759.861	45.36
760.258	45.37
760.654	45.38
761.05	45.4
761.447	45.4
761.843	45.38
762.239	45.38
762.635	45.38
763.031	45.38
763.427	45.36
763.822	45.35
764.218	45.35
764.614	45.36
765.01	45.37
765.405	45.36
765.801	45.33
766.196	45.33
766.592	45.32
766.987	45.31
767.382	45.29
767.778	45.3
768.173	45.31
768.568	45.29
768.963	45.25
769.358	45.25
769.753	45.25
770.148	45.28
770.542	45.3
770.937	45.31
771.332	45.31
771.726	45.33
772.121	45.32
772.515	45.32
772.91	45.31
773.304	45.34
773.699	45.32
774.093	45.32
774.487	45.3
774.881	45.28
775.275	45.28
775.669	45.28
776.063	45.26
776.457	45.26
776.851	45.24
777.245	45.24
777.638	45.22
778.032	45.24
778.425	45.26
778.819	45.25
779.212	45.25
779.606	45.28
779.999	45.28
780.392	45.32
780.786	45.32
781.179	45.34
781.572	45.37
781.965	45.38
782.358	45.38
782.751	45.37
783.143	45.39
783.536	45.39
783.929	45.36
784.322	45.35
784.714	45.35
785.107	45.38
785.499	45.36
785.891	45.34
786.284	45.33
786.676	45.31
787.068	45.33
787.46	45.32
787.852	45.32
788.245	45.34
788.636	45.33
789.028	45.32
789.42	45.28
789.812	45.3
790.204	45.33
790.595	45.34
790.987	45.34
791.378	45.36
791.77	45.38
792.161	45.37
792.553	45.37
792.944	45.37
793.335	45.39
793.726	45.39
794.117	45.37
794.508	45.34
794.899	45.34
795.29	45.33
795.681	45.31
796.072	45.3
796.463	45.33
796.853	45.34
797.244	45.33
797.634	45.32
798.025	45.33
798.415	45.34
798.806	45.32
799.196	45.33
799.586	45.36
799.976	45.37
800.366	45.36
800.756	45.33
801.146	45.34
801.536	45.34
801.926	45.34
802.316	45.33
802.706	45.33
803.095	45.36
803.485	45.35
803.874	45.34
804.264	45.31
804.653	45.33
805.043	45.35
805.432	45.34
805.821	45.35
806.21	45.38
806.599	45.37
806.988	45.39
807.377	45.37
807.766	45.39
808.155	45.35
808.544	45.35
808.933	45.32
809.321	45.33
809.71	45.32
810.098	45.31
810.487	45.26
810.875	45.25
811.264	45.23
811.652	45.24
812.04	45.24
812.428	45.31
812.816	45.32
813.204	45.32
813.592	45.27
813.98	45.29
814.368	45.29
814.756	45.29
815.144	45.3
815.531	45.3
815.919	45.29
816.306	45.28
816.694	45.24
817.081	45.24
817.469	45.25
817.856	45.27
818.243	45.25
818.63	45.24
819.017	45.24
819.404	45.25
819.791	45.22
820.178	45.22
820.565	45.2
820.952	45.19
821.339	45.19
821.725	45.17
822.112	45.18
822.498	45.17
822.885	45.19
823.271	45.18
823.657	45.16
824.044	45.17
824.43	45.19
824.816	45.2
825.202	45.19
825.588	45.16
825.974	45.16
826.36	45.14
826.746	45.16
827.132	45.14
827.517	45.14
827.903	45.17
828.289	45.19
828.674	45.19
829.06	45.19
829.445	45.17
829.83	45.19
830.216	45.21
830.601	45.21
830.986	45.21
831.371	45.2
831.756	45.22
832.141	45.21
832.526	45.22
832.911	45.2
833.295	45.21
833.68	45.22
834.065	45.22
834.449	45.21
834.834	45.21
835.218	45.23
835.603	45.22
835.987	45.21
836.371	45.19
836.755	45.18
837.139	45.17
837.524	45.17
837.908	45.19
838.291	45.21
838.675	45.22
839.059	45.23
839.443	45.19
839.827	45.2
840.21	45.21
840.594	45.22
840.977	45.21
841.361	45.23
841.744	45.21
842.127	45.19
842.511	45.15
842.894	45.15
843.277	45.15
843.66	45.17
844.043	45.2
844.426	45.2
844.809	45.2
845.191	45.22
845.574	45.22
845.957	45.27
846.339	45.27
846.722	45.3
847.104	45.31
847.487	45.34
847.869	45.33
848.252	45.34
848.634	45.33
849.016	45.33
849.398	45.33
849.78	45.32
850.162	45.3
850.544	45.32
850.926	45.31
851.307	45.3
851.689	45.27
852.071	45.29
852.452	45.28
852.834	45.31
853.215	45.31
853.597	45.3
853.978	45.3
854.359	45.29
854.741	45.3
855.122	45.3
855.503	45.29
855.884	45.29
856.265	45.28
856.646	45.24
857.026	45.22
857.407	45.22
857.788	45.22
858.169	45.23
858.549	45.23
858.93	45.24
859.31	45.24
859.69	45.26
860.071	45.27
860.451	45.27
860.831	45.31
861.211	45.31
861.591	45.3
861.971	45.3
862.351	45.29
862.731	45.31
863.111	45.28
863.491	45.25
863.87	45.24
864.25	45.22
864.629	45.2
865.009	45.2
865.388	45.18
865.768	45.18
866.147	45.19
866.526	45.19
866.905	45.18
867.284	45.2
867.663	45.21
868.042	45.23
868.421	45.25
868.8	45.25
869.179	45.24
869.558	45.25
869.936	45.24
870.315	45.23
870.693	45.22
871.072	45.23
871.45	45.24
871.828	45.25
872.207	45.24
872.585	45.24
872.963	45.24
873.341	45.23
873.719	45.22
874.097	45.24
874.475	45.26
874.853	45.28
875.23	45.28
875.608	45.26
875.986	45.27
876.363	45.27
876.741	45.28
877.118	45.3
877.495	45.32
877.873	45.33
878.25	45.33
878.627	45.34
879.004	45.31
879.381	45.32
879.758	45.32
880.135	45.3
880.512	45.3
880.889	45.28
881.265	45.26
881.642	45.27
882.019	45.25
882.395	45.24
882.772	45.25
883.148	45.23
883.524	45.26
883.901	45.27
884.277	45.26
884.653	45.26
885.029	45.25
885.405	45.25
885.781	45.25
886.157	45.26
886.532	45.27
886.908	45.23
887.284	45.25
887.659	45.2
888.035	45.17
888.411	45.16
888.786	45.16
889.161	45.18
889.537	45.18
889.912	45.15
890.287	45.16
890.662	45.17
891.037	45.2
891.412	45.19
891.787	45.2
892.162	45.21
892.536	45.22
892.911	45.22
893.286	45.23
893.66	45.23
894.035	45.25
894.409	45.25
894.784	45.24
895.158	45.23
895.532	45.25
895.906	45.26
896.281	45.25
896.655	45.25
897.029	45.27
897.402	45.25
897.776	45.25
898.15	45.25
898.524	45.26
898.898	45.26
899.271	45.26
899.645	45.25
900.018	45.26
900.392	45.26
900.765	45.27
901.138	45.24
901.511	45.23
901.884	45.23
902.258	45.23
902.631	45.24
903.003	45.22
903.376	45.23
903.749	45.21
904.122	45.22
904.495	45.22
904.867	45.23
905.24	45.26
905.612	45.29
905.985	45.27
906.357	45.27
906.729	45.28
907.102	45.31
907.474	45.3
907.846	45.31
908.218	45.3
908.59	45.33
908.962	45.33
909.334	45.32
909.705	45.31
910.077	45.33
910.449	45.33
910.82	45.31
911.192	45.3
911.563	45.29
911.935	45.28
912.306	45.28
912.677	45.28
913.048	45.28
913.419	45.26
913.79	45.27
914.161	45.27
914.532	45.25
914.903	45.28
915.274	45.27
915.645	45.27
916.015	45.3
916.386	45.31
916.756	45.28
917.127	45.3
917.497	45.33
917.868	45.33
918.238	45.33
918.608	45.35
918.978	45.3
919.348	45.33
919.718	45.32
920.088	45.33
920.458	45.31
920.828	45.31
921.198	45.26
921.567	45.25
921.937	45.25
922.306	45.23
922.676	45.22
923.045	45.23
923.415	45.21
923.784	45.21
924.153	45.2
924.522	45.19
924.891	45.19
925.26	45.2
925.629	45.2
925.998	45.13
926.367	45.13
926.736	45.14
927.104	45.14
927.473	45.13
927.842	45.12
928.21	45.09
928.578	45.1
928.947	45.09
929.315	45.08
929.683	45.09
930.051	45.08
930.42	45.08
930.788	45.03
931.156	45.03
931.523	45.03
931.891	45.02
932.259	45.07
932.627	45.05
932.994	45.05
933.362	45.06
933.729	45.05
934.097	45.07
934.464	45.08
934.831	45.08
935.199	45.09
935.566	45.07
935.933	45.06
936.3	44.99
936.667	44.96
937.034	44.97
937.401	44.93
937.767	44.9
938.134	44.91
938.501	44.88
938.867	44.9
939.234	44.88
939.6	44.86
939.967	44.85
940.333	44.82
940.699	44.88
941.065	44.77
941.431	44.78
941.798	44.76
942.163	44.75
942.529	44.74
942.895	44.73
943.261	44.64
943.627	44.62
943.992	44.62
944.358	44.67
944.723	44.61
945.089	44.6
945.454	44.53
945.82	44.53
946.185	44.54
946.55	44.49
946.915	44.49
947.28	44.49
947.645	44.51
948.01	44.51
948.375	44.46
948.74	44.44
949.104	44.52
949.469	44.53
949.834	44.53
950.198	44.46
950.562	44.48
950.927	44.42
951.291	44.4
951.655	44.37
952.02	44.35
952.384	44.35
952.748	44.36
953.112	44.34
953.476	44.33
953.839	44.27
954.203	44.31
954.567	44.28
954.931	44.29
955.294	44.3
955.658	44.36
956.021	44.34
956.385	44.29
956.748	44.25
957.111	44.21
957.474	44.21
957.837	44.19
958.2	44.19
958.563	44.18
958.926	44.19
959.289	44.16
959.652	44.14
960.015	44.15
960.377	44.18
960.74	44.25
961.102	44.25
961.465	44.29
961.827	44.39
962.189	44.42
962.552	44.46
962.914	44.46
963.276	44.52
963.638	44.53
964	44.54
964.362	44.55
964.724	44.46
965.085	44.48
965.447	44.46
965.809	44.37
966.17	44.31
966.532	44.28
966.893	44.29
967.255	44.26
967.616	44.26
967.977	44.23
968.338	44.21
968.699	44.3
969.061	44.3
969.421	44.31
969.782	44.37
970.143	44.4
970.504	44.44
970.865	44.5
971.225	44.49
971.586	44.48
971.946	44.5
972.307	44.47
972.667	44.45
973.027	44.47
973.388	44.46
973.748	44.44
974.108	44.45
974.468	44.41
974.828	44.36
975.188	44.36
975.548	44.28
975.907	44.24
976.267	44.27
976.627	44.25
976.986	44.21
977.346	44.19
977.705	44.17
978.064	44.15
978.424	44.23
978.783	44.16
979.142	44.16
979.501	44.21
979.86	44.28
980.219	44.28
980.578	44.34
980.937	44.38
981.296	44.38
981.654	44.38
982.013	44.34
982.371	44.27
982.73	44.35
983.088	44.34
983.447	44.36
983.805	44.33
984.163	44.36
984.521	44.33
984.879	44.26
985.237	44.28
985.595	44.39
985.953	44.4
986.311	44.36
986.669	44.3
987.026	44.34
987.384	44.37
987.741	44.31
988.099	44.36
988.456	44.3
988.814	44.31
989.171	44.28
989.528	44.21
989.885	44.2
990.242	44.26
990.599	44.32
990.956	44.35
991.313	44.33
991.67	44.39
992.027	44.4
992.383	44.42
992.74	44.49
993.096	44.46
993.453	44.49
993.809	44.51
994.165	44.52
994.522	44.63
994.878	44.65
995.234	44.65
995.59	44.61
995.946	44.52
996.302	44.57
996.658	44.61
997.013	44.69
997.369	44.69
997.725	44.77
998.08	44.76
998.436	44.67
998.791	44.68
999.147	44.65
999.502	44.68
999.857	44.75
1000.212	44.71
1000.567	44.7
1000.922	44.67
1001.277	44.64
1001.632	44.57
1001.987	44.6
1002.342	44.45
1002.696	44.34
1003.051	44.54
1003.406	44.64
1003.76	44.69
1004.114	44.63
1004.469	44.66
1004.823	44.87
1005.177	44.92
1005.531	45
1005.885	44.94
1006.239	45.06
1006.593	45.2
1006.947	45.19
1007.301	45.1
1007.655	44.93
1008.008	44.97
1008.362	44.97
1008.715	44.71
1009.069	44.66
1009.422	44.71
1009.776	44.85
1010.129	44.84
1010.482	44.8
1010.835	44.76
1011.188	44.67
1011.541	44.78
1011.894	44.83
1012.247	44.83
1012.6	44.73
1012.952	44.75
1013.305	44.65
1013.657	44.6
1014.01	44.58
1014.362	44.56
1014.715	44.53
1015.067	44.92
1015.419	44.99
1015.771	44.9
1016.123	44.96
1016.475	45.31
1016.827	45.19
1017.179	45.26
1017.531	45.26
1017.883	45.29
1018.234	45.47
1018.586	45.53
1018.938	45.24
1019.289	45.03
1019.64	45.1
1019.992	45.05
1020.343	44.98
1020.694	45.09
1021.045	45.08
1021.396	45.32
1021.747	45.52
1022.098	45.46
1022.449	45.26
1022.8	45.46
1023.151	45.78
1023.501	45.97
1023.852	46.2
1024.202	46.09
1024.553	46.06
1024.903	46.15
1025.253	46.01
1025.604	45.91
1025.954	45.74
1026.304	45.76
1026.654	45.7
1027.004	45.6
1027.354	45.66
1027.703	45.32
1028.053	45.38
1028.403	45.88
1028.753	45.7
1029.102	45.72
1029.452	45.77
1029.801	45.91
1030.15	46.09
1030.499	45.99
897.758	1041.73
901.051	1051.05
904.343	1050.35
907.636	1070.38
910.928	1042.37
914.22	1042.37
917.511	1028.18
920.803	983.71
924.094	978.9
927.384	958.16
930.675	920.18
933.965	916.48
937.255	862.79
940.544	827.64
943.834	787.2
947.123	781.36
950.411	737.21
953.7	722.26
956.988	685.67
960.276	658.69
963.563	646.74
966.851	625.19
970.138	619.36
973.424	599.54
976.711	602.46
979.997	572.78
983.283	569.09
986.568	556.81
989.853	540.28
993.138	528.38
996.423	509.62
999.708	496.39
1002.992	489.28
1006.275	466.98
1009.559	462.86
1012.842	446.56
1016.125	435.52
1019.408	426.71
1022.69	421.05
1025.972	413.06
1029.254	404.88
1032.536	397.31
1035.817	388.81
1039.098	385.31
1042.379	377.52
1045.659	373.66
1048.939	364.25
1052.219	357.13
1055.498	353.23
1058.778	344.81
1062.057	337.59
1065.335	333.66
1068.614	330.23
1071.892	326.98
1075.17	316.64
1078.447	310.44
1081.724	308.17
1085.001	306.83
1088.278	300.19
1091.554	294.21
1094.83	293.9
1098.106	290.18
1101.382	289.03
1104.657	286.84
1107.932	281.73
1111.206	284.23
1114.481	277.59
1117.755	274.27
1121.029	271.41
1124.302	271.49
1127.575	265.89
1130.848	263.35
1134.121	261.53
1137.393	259.06
1140.665	253.55
1143.937	252.61
1147.208	249.79
1150.48	249.54
1153.75	247.65
1157.021	244.37
1160.291	244.52
1163.561	242.51
1166.831	241.61
1170.101	239.42
1173.37	238.89
1176.639	239.66
1179.907	237.4
1183.176	234.4
1186.444	234.55
1189.711	233.78
1192.979	232.96
1196.246	231.54
1199.513	231.89
1202.78	231.23
1206.046	231.15
1209.312	229.32
1212.578	229.13
1215.843	231.67
1219.108	230.34
1222.373	235
1225.638	235.86
1228.902	238.63
1232.166	239.6
1235.43	241.2
1238.693	244.57
1241.956	245.42
1245.219	249.54
1248.482	249.65
1251.744	249
1255.006	249.32
1258.268	243.55
1261.529	242.03
1264.79	240.53
1268.051	239.07
1271.312	236.14
1274.572	233.53
1277.832	231.79
1281.092	227.41
1284.351	226.12
1287.61	225.75
1290.869	223.25
1294.128	221.57
1297.386	221.78
1300.644	219.58
1303.902	219.4
1307.159	219.17
1310.416	218.81
1313.673	218.19
1316.93	220.22
1320.186	220.04
1323.442	221.05
1326.697	223.84
1329.953	224.5
1333.208	224.7
1336.463	227.67
1339.717	227.99
1342.972	230.24
1346.226	232.06
1349.479	233.34
1352.733	234.63
1355.986	235.52
1359.238	234.61
1362.491	236.81
1365.743	238.57
1368.995	238.57
1372.247	237.66
1375.498	237.4
1378.749	239.49
1382	236.34
1385.251	236.47
1388.501	234.87
1391.751	235.47
1395	234.7
1398.25	232.67
1401.499	230.93
1404.748	230.79
1407.996	229.68
1411.244	228.38
1414.492	225.77
1417.74	224.02
1420.987	220.76
1424.234	220.45
1427.481	217.43
1430.728	217.73
1433.974	215.56
1437.22	213.6
1440.465	212.58
1443.711	209.99
1446.956	208.27
1450.201	206.92
1453.445	204.75
1456.689	204.1
1459.933	200.55
1463.177	198.35
1466.42	195.22
1469.663	192.38
1472.906	191.37
1476.148	187.63
1479.391	185.01
1482.633	183.89
1485.874	180.9
1489.115	179.65
1492.356	177.72
1495.597	176.79
1498.838	174.79
1502.078	173.77
1505.318	173.61
1508.557	173.66
1511.797	173.26
1515.036	172.59
1518.274	171.67
1521.513	170.79
1524.751	170.4
1527.989	169.77
1531.227	169.61
1534.464	169.97
1537.701	168.58
1540.938	168.3
1544.174	166.59
1547.41	166.22
1550.646	165.23
1553.882	166.05
1557.117	163.46
1560.352	162.99
1563.587	162.81
1566.821	161.79
1570.055	160.43
1573.289	159.63
1576.523	159.21
1579.756	157.79
1582.989	156.98
1586.222	156.93
1589.454	155.58
1592.686	156.71
1595.918	155.51
1599.15	154.81
1602.381	155.11
1605.612	155.2
1608.843	155.53
1612.073	155.4
1615.303	156.57
1618.533	156.32
1621.762	157.16
1624.992	157.38
1628.221	157.29
1631.449	157.39
1634.678	157.55
1637.906	158.41
1641.134	157.91
1644.361	158.01
1647.588	158.11
1650.815	157.45
1654.042	156.82
1657.269	156.94
1660.495	157.18
1663.72	156.71
1666.946	157.76
1670.171	157.83
1673.396	157.36
1676.621	157.91
1679.845	157.5
1683.069	157.93
1686.293	158.97
1689.517	160.46
1692.74	160.15
1695.963	160.12
1699.185	161.71
1702.408	161.42
1705.63	162.13
1708.852	162.54
1712.073	162.34
1715.294	163.14
1718.515	163.44
1721.736	162.93
1724.956	163.1
1728.176	163.39
1731.396	164.74
1734.616	164.35
1737.835	165.09
1741.054	163.51
1744.272	164.33
1747.491	165.67
1750.709	166.13
1753.927	166.29
1757.144	165.7
1760.361	165.87
1763.578	166.51
1766.795	165.92
1770.011	167.15
1773.227	166.8
1776.443	169.22
1779.658	169.31
1782.874	168.89
1786.089	169.17
1789.303	169.43
1792.518	172.28
1795.732	172.05
1798.945	172.74
1802.159	173.61
1805.372	173.62
1808.585	176.64
1811.797	176.72
1815.01	177.56
1818.222	179.04
1821.434	180.37
1824.645	181.47
1827.856	183.84
1831.067	185.29
1834.278	185.72
1837.488	186.87
1840.698	187.78
1843.908	186.39
1847.117	187.36
1850.326	187.89
1853.535	187.32
1856.744	189.77
1859.952	188.63
1863.16	187.14
1866.368	186.42
1869.575	187.04
1872.782	184
1875.989	183.27
1879.196	182.23
1882.402	180.63
1885.608	181.23
1888.814	181.68
1892.019	180.72
1895.224	180.77
1898.429	179.79
1901.634	179.86
1904.838	180.22
1908.042	182.36
1911.246	182.94
1914.449	184.24
1917.652	184.29
1920.855	184.07
1924.058	183.9
1927.26	183.42
1930.462	183.88
1933.664	185.73
1936.865	184.48
1940.066	184.3
1943.267	183.25
1946.467	182.06
1949.668	183.71
1952.868	185.78
1956.067	185.62
1959.267	185.85
1962.466	186.14
1965.665	185.02
1968.863	185.25
1972.061	188.01
1975.259	189.78
1978.457	191.53
1981.654	194.38
1984.852	194.13
1988.048	193.96
1991.245	195.5
1994.441	197.92
1997.637	199.12
2000.833	203.2
2004.028	206.21
2007.223	207.52
2010.418	208.9
2013.613	211.73
2016.807	213.97
2020.001	216.19
2023.194	219.57
2026.388	224.75
2029.581	229.03
2032.774	231.77
2035.966	236.74
2039.158	237
2042.35	241.91
2045.542	243.57
2048.733	247.17
2051.924	250.05
2055.115	254.72
2058.306	255.56
2061.496	257.65
2064.686	258.2
2067.875	261.45
2071.065	263
2074.254	261.91
2077.442	264.49
2080.631	266.25
2083.819	269.47
2087.007	268.9
2090.195	271.07
2093.382	273.93
2096.569	272.36
2099.756	277.31
2102.942	278.63
2106.128	280.2
2109.314	286.15
2112.5	285.63
2115.685	291.91
2118.87	291.98
2122.055	298.77
2125.239	300.47
2128.424	304.62
2131.608	306.64
2134.791	310.1
2137.974	311.4
2141.157	312.82
2144.34	313.97
2147.523	317.82
2150.705	315.59
2153.887	319.65
2157.068	320.84
2160.25	317.66
2163.431	318.14
2166.611	322.36
2169.792	326.99
2172.972	330.6
2176.152	332.51
2179.331	337.02
2182.511	342.68
2185.69	346.25
2188.868	352.25
2192.047	352.55
2195.225	363.79
2198.403	370.87
2201.58	378.12
2204.758	384.91
2207.935	393.15
2211.111	399.73
2214.288	404.62
2217.464	406.53
2220.64	414.02
2223.815	418.78
2226.991	435.21
2230.166	435.82
2233.34	444.55
2236.515	451.92
2239.689	453.05
2242.863	454.31
2246.036	467.87
2249.209	465.73
2252.382	472.54
2255.555	485.95
2258.727	487.41
2261.9	493.69
2265.071	498.56
2268.243	506.11
2271.414	510.82
2274.585	523.3
2277.756	528.81
2280.926	531.46
2284.096	543.14
2287.266	554.87
2290.436	558.88
2293.605	571.5
2296.774	585.82
2299.942	604.3
2303.111	611.4
2306.279	625.75
2309.447	631.1
2312.614	650.21
2315.781	668.9
2318.948	698.43
2322.115	689.97
2325.281	724.8
2328.447	711.37
2331.613	739.24
2334.779	731.31
2337.944	762.56
2341.109	768.63
2344.274	793.09
2347.438	817.58
2350.602	817.53
2353.766	841.38
2356.929	855.74
2360.092	848.12
2363.255	907.59
2366.418	905.91
2369.58	925.27
2372.742	974.63
2375.904	1000.96
2379.066	996.03
2382.227	978.77
2385.388	1064.69
2388.548	1063.39
2391.709	1074.74
2394.869	1203
2398.029	1149.03
2401.188	1180.27
2404.347	1174
2407.506	1160.58
2410.665	1192.29
2413.823	1259.73
2416.981	1336.46
2420.139	1287.97
2423.296	1280.56
2426.453	1332.4
2429.61	1288.03
2432.767	1352.26
2435.923	1339.14
2439.079	1457.78
2442.235	1478.13
2445.391	1463.71
2448.546	1454.62
2451.701	1411.68
2454.855	1413.27
2458.009	1498.16
2461.163	1560.08
2464.317	1610.43
2467.471	1651.1
2470.624	1648.54
2473.777	1613.99
2476.929	1573.19
2480.082	1527.11
2483.234	1511.81
2486.385	1585.03
2489.537	1594.15
2492.688	1647.56
2495.839	1599.68
2498.989	1562.86
2502.14	1572.94
2505.29	1587.69
2508.439	1610.53
2511.589	1606.38
2514.738	1751.99
2517.887	1713.18
2521.035	1804.33
2524.183	1820.46
2527.331	1835.56
2530.479	1833.17
2533.627	1845.02
