Data from C_1_HIR_IL_4N_Splice17_12-48-03-856.txt Node
Date: Sat Mar 07 12:48:03 EST 2020
User: sa697716
Spectrometer: NQ5500242
Trigger mode: 0
Integration Time (sec): 1.450000E-1
Scans to average: 20
Nonlinearity correction enabled: false
Boxcar width: 5
Storing dark spectrum: false
XAxis mode: Wavelengths
Number of Pixels in Spectrum: 512
>>>>>Begin Spectral Data<<<<<
187.83	137.63
188.298	177.4
188.766	147.56
189.233	131.35
189.701	130.48
190.169	136.2
190.636	133.96
191.104	190.36
191.571	221.38
192.039	231.29
192.506	343.18
192.974	134.27
193.441	277.13
193.908	148.1
194.375	146.33
194.842	108.65
195.31	122.22
195.777	204.36
196.244	27.57
196.711	26.1
197.177	27.46
197.644	27.64
198.111	26.98
198.578	27.52
199.045	27.53
199.511	27.22
199.978	27.55
200.445	27.7
200.911	27.74
201.378	28
201.844	28.05
202.31	28.05
202.777	28.47
203.243	28.52
203.709	28.24
204.176	27.86
204.642	27.94
205.108	27.82
205.574	27.64
206.04	27.3
206.506	27.04
206.972	27.2
207.438	27.01
207.903	26.52
208.369	26.07
208.835	26.04
209.301	25.75
209.766	25.33
210.232	24.82
210.697	24.36
211.163	24.04
211.628	23.82
212.094	23.11
212.559	22.77
213.024	22.33
213.49	22.06
213.955	21.58
214.42	21.35
214.885	20.89
215.35	20.44
215.815	19.65
216.28	18.64
216.745	17.62
217.21	16.91
217.675	16.12
218.14	15.43
218.604	14.89
219.069	14.46
219.534	14.11
219.998	13.76
220.463	13.53
220.927	13.28
221.392	13.11
221.856	12.94
222.32	12.78
222.785	12.67
223.249	12.57
223.713	12.43
224.177	12.28
224.642	12.14
225.106	12.02
225.57	11.86
226.034	11.78
226.497	11.69
226.961	11.59
227.425	11.48
227.889	11.37
228.353	11.26
228.816	11.14
229.28	11.05
229.744	10.97
230.207	10.87
230.671	10.79
231.134	10.69
231.597	10.62
232.061	10.52
232.524	10.43
232.987	10.36
233.45	10.29
233.914	10.24
234.377	10.16
234.84	10.09
235.303	10.04
235.766	9.99
236.229	9.92
236.691	9.84
237.154	9.78
237.617	9.73
238.08	9.66
238.542	9.58
239.005	9.52
239.468	9.45
239.93	9.37
240.393	9.31
240.855	9.23
241.317	9.17
241.78	9.11
242.242	9.05
242.704	9.01
243.166	8.96
243.629	8.92
244.091	8.86
244.553	8.84
245.015	8.79
245.477	8.75
245.939	8.72
246.4	8.68
246.862	8.64
247.324	8.6
247.786	8.55
248.247	8.5
248.709	8.45
249.17	8.41
249.632	8.37
250.093	8.34
250.555	8.3
251.016	8.27
251.477	8.24
251.939	8.21
252.4	8.19
252.861	8.17
253.322	8.15
253.783	8.13
254.244	8.12
254.705	8.08
255.166	8.04
255.627	8.01
256.088	7.99
256.549	7.95
257.009	7.91
257.47	7.87
257.931	7.82
258.391	7.78
258.852	7.74
259.312	7.71
259.773	7.67
260.233	7.66
260.694	7.63
261.154	7.59
261.614	7.57
262.074	7.55
262.534	7.52
262.994	7.51
263.455	7.49
263.915	7.48
264.374	7.47
264.834	7.45
265.294	7.43
265.754	7.43
266.214	7.42
266.673	7.4
267.133	7.39
267.593	7.39
268.052	7.39
268.512	7.38
268.971	7.37
269.431	7.35
269.89	7.34
270.349	7.33
270.809	7.31
271.268	7.3
271.727	7.28
272.186	7.27
272.645	7.25
273.104	7.23
273.563	7.21
274.022	7.19
274.481	7.18
274.94	7.18
275.399	7.16
275.857	7.15
276.316	7.14
276.775	7.12
277.233	7.11
277.692	7.09
278.15	7.07
278.609	7.05
279.067	7.03
279.525	7.01
279.984	6.99
280.442	6.97
280.9	6.94
281.358	6.91
281.816	6.9
282.274	6.88
282.732	6.86
283.19	6.83
283.648	6.8
284.106	6.76
284.564	6.73
285.021	6.71
285.479	6.68
285.937	6.66
286.394	6.64
286.852	6.62
287.309	6.59
287.767	6.57
288.224	6.55
288.682	6.54
289.139	6.53
289.596	6.51
290.053	6.5
290.511	6.49
290.968	6.47
291.425	6.45
291.882	6.44
292.339	6.42
292.796	6.42
293.252	6.41
293.709	6.39
294.166	6.38
294.623	6.36
295.079	6.34
295.536	6.33
295.992	6.31
296.449	6.3
296.905	6.28
297.362	6.27
297.818	6.25
298.274	6.25
298.731	6.23
299.187	6.21
299.643	6.2
300.099	6.19
300.555	6.18
301.011	6.17
301.467	6.15
301.923	6.14
302.379	6.13
302.835	6.12
303.291	6.1
303.746	6.09
304.202	6.09
304.658	6.07
305.113	6.06
305.569	6.04
306.024	6.03
306.479	6.01
306.935	6.01
307.39	6
307.845	5.98
308.301	5.96
308.756	5.95
309.211	5.93
309.666	5.93
310.121	5.92
310.576	5.91
311.031	5.89
311.486	5.89
311.94	5.87
312.395	5.85
312.85	5.85
313.305	5.84
313.759	5.84
314.214	5.83
314.668	5.82
315.123	5.81
315.577	5.79
316.032	5.77
316.486	5.76
316.94	5.76
317.394	5.75
317.849	5.73
318.303	5.72
318.757	5.7
319.211	5.69
319.665	5.67
320.119	5.66
320.572	5.66
321.026	5.66
321.48	5.65
321.934	5.63
322.387	5.62
322.841	5.61
323.295	5.61
323.748	5.6
324.202	5.59
324.655	5.58
325.108	5.57
325.562	5.56
326.015	5.55
326.468	5.54
326.921	5.53
327.374	5.53
327.827	5.52
328.28	5.51
328.733	5.51
329.186	5.51
329.639	5.5
330.092	5.5
330.545	5.49
330.997	5.49
331.45	5.49
331.903	5.48
332.355	5.48
332.808	5.46
333.26	5.46
333.713	5.44
334.165	5.43
334.617	5.43
335.069	5.41
335.522	5.4
335.974	5.4
336.426	5.39
336.878	5.38
337.33	5.37
337.782	5.37
338.234	5.37
338.686	5.36
339.137	5.36
339.589	5.34
340.041	5.34
340.493	5.34
340.944	5.32
341.396	5.31
341.847	5.31
342.299	5.29
342.75	5.28
343.201	5.27
343.653	5.26
344.104	5.25
344.555	5.24
345.006	5.24
345.457	5.23
345.908	5.23
346.359	5.22
346.81	5.21
347.261	5.2
347.712	5.19
348.163	5.18
348.613	5.18
349.064	5.17
349.515	5.16
349.965	5.15
350.416	5.14
350.866	5.13
351.317	5.12
351.767	5.12
352.217	5.12
352.668	5.11
353.118	5.12
353.568	5.11
354.018	5.11
354.468	5.11
354.918	5.12
355.368	5.12
355.818	5.13
356.268	5.13
356.718	5.12
357.168	5.11
357.617	5.11
358.067	5.1
358.517	5.11
358.966	5.11
359.416	5.1
359.865	5.09
360.315	5.09
360.764	5.09
361.213	5.08
361.663	5.08
362.112	5.08
362.561	5.08
363.01	5.08
363.459	5.06
363.908	5.06
364.357	5.06
364.806	5.06
365.255	5.05
365.703	5.05
366.152	5.05
366.601	5.05
367.05	5.05
367.498	5.04
367.947	5.04
368.395	5.04
368.844	5.04
369.292	5.03
369.74	5.03
370.189	5.02
370.637	5.02
371.085	5.01
371.533	5.01
371.981	5.01
372.429	5.01
372.877	5.01
373.325	5.02
373.773	5.02
374.221	5.03
374.669	5.03
375.116	5.03
375.564	5.03
376.012	5.03
376.459	5.04
376.907	5.05
377.354	5.06
377.801	5.06
378.249	5.07
378.696	5.06
379.143	5.07
379.591	5.09
380.038	5.09
380.485	5.09
380.932	5.1
381.379	5.11
381.826	5.11
382.273	5.12
382.72	5.12
383.166	5.12
383.613	5.13
384.06	5.13
384.506	5.14
384.953	5.14
385.4	5.15
385.846	5.16
386.292	5.17
386.739	5.17
387.185	5.18
387.631	5.19
388.078	5.19
388.524	5.2
388.97	5.21
389.416	5.22
389.862	5.24
390.308	5.26
390.754	5.27
391.2	5.29
391.645	5.29
392.091	5.31
392.537	5.32
392.983	5.33
393.428	5.35
393.874	5.37
394.319	5.37
394.765	5.37
395.21	5.38
395.655	5.38
396.101	5.4
396.546	5.42
396.991	5.44
397.436	5.45
397.881	5.48
398.326	5.48
398.771	5.5
399.216	5.52
399.661	5.54
400.106	5.56
400.551	5.57
400.995	5.57
401.44	5.58
401.885	5.58
402.329	5.6
402.774	5.61
403.218	5.63
403.663	5.64
404.107	5.66
404.551	5.67
404.995	5.67
405.44	5.68
405.884	5.69
406.328	5.71
406.772	5.71
407.216	5.72
407.66	5.72
408.104	5.71
408.547	5.72
408.991	5.73
409.435	5.73
409.879	5.75
410.322	5.76
410.766	5.78
411.209	5.8
411.653	5.83
412.096	5.84
412.54	5.85
412.983	5.87
413.426	5.89
413.869	5.9
414.312	5.91
414.756	5.92
415.199	5.92
415.642	5.92
416.085	5.92
416.527	5.91
416.97	5.9
417.413	5.91
417.856	5.91
418.298	5.89
418.741	5.9
419.184	5.9
419.626	5.9
420.069	5.92
420.511	5.93
420.953	5.94
421.396	5.95
421.838	5.95
422.28	5.95
422.722	5.97
423.164	5.98
423.606	5.98
424.048	5.99
424.49	5.98
424.932	5.98
425.374	5.96
425.816	5.93
426.258	5.92
426.699	5.91
427.141	5.9
427.582	5.9
428.024	5.91
428.465	5.91
428.907	5.9
429.348	5.88
429.789	5.88
430.231	5.9
430.672	5.92
431.113	5.93
431.554	5.95
431.995	5.97
432.436	5.97
432.877	5.96
433.318	5.96
433.759	5.98
434.2	6.01
434.64	6.02
435.081	6.01
435.522	6.02
435.962	6.04
436.403	6.06
436.843	6.07
437.284	6.07
437.724	6.07
438.164	6.05
438.604	6.06
439.045	6.06
439.485	6.07
439.925	6.08
440.365	6.08
440.805	6.07
441.245	6.07
441.685	6.08
442.125	6.09
442.564	6.11
443.004	6.12
443.444	6.13
443.883	6.14
444.323	6.14
444.762	6.15
445.202	6.15
445.641	6.17
446.081	6.18
446.52	6.18
446.959	6.19
447.398	6.2
447.837	6.21
448.276	6.21
448.716	6.22
449.154	6.24
449.593	6.25
450.032	6.25
450.471	6.24
450.91	6.24
451.349	6.24
451.787	6.23
452.226	6.21
452.664	6.19
453.103	6.19
453.541	6.18
453.98	6.17
454.418	6.14
454.856	6.15
455.295	6.13
455.733	6.11
456.171	6.11
456.609	6.1
457.047	6.09
457.485	6.08
457.923	6.07
458.361	6.07
458.798	6.07
459.236	6.07
459.674	6.06
460.111	6.06
460.549	6.07
460.987	6.07
461.424	6.08
461.862	6.1
462.299	6.12
462.736	6.12
463.173	6.12
463.611	6.11
464.048	6.13
464.485	6.15
464.922	6.15
465.359	6.17
465.796	6.18
466.233	6.19
466.67	6.18
467.106	6.2
467.543	6.21
467.98	6.22
468.416	6.22
468.853	6.22
469.29	6.21
469.726	6.22
470.162	6.22
470.599	6.23
471.035	6.23
471.471	6.22
471.907	6.21
472.344	6.22
472.78	6.22
473.216	6.22
473.652	6.23
474.088	6.23
474.523	6.22
474.959	6.22
475.395	6.2
475.831	6.2
476.266	6.2
476.702	6.19
477.138	6.19
477.573	6.19
478.008	6.18
478.444	6.17
478.879	6.17
479.314	6.16
479.75	6.15
480.185	6.14
480.62	6.12
481.055	6.1
481.49	6.09
481.925	6.07
482.36	6.06
482.795	6.04
483.229	6.02
483.664	6.02
484.099	6.01
484.534	5.99
484.968	6
485.403	6
485.837	6.02
486.271	6.03
486.706	6.04
487.14	6.05
487.574	6.06
488.009	6.07
488.443	6.08
488.877	6.1
489.311	6.13
489.745	6.15
490.179	6.18
490.613	6.2
491.046	6.23
491.48	6.26
491.914	6.29
492.348	6.32
492.781	6.37
493.215	6.4
493.648	6.44
494.082	6.47
494.515	6.5
494.948	6.54
495.382	6.57
495.815	6.62
496.248	6.67
496.681	6.72
497.114	6.77
497.547	6.81
497.98	6.85
498.413	6.9
498.846	6.97
499.279	7.03
499.711	7.1
500.144	7.18
500.577	7.25
501.009	7.33
501.442	7.41
501.874	7.5
502.306	7.6
502.739	7.71
503.171	7.83
503.603	7.92
504.036	8.04
504.468	8.15
504.9	8.26
505.332	8.37
505.764	8.5
506.196	8.63
506.627	8.76
507.059	8.9
507.491	9.04
507.923	9.18
508.354	9.34
508.786	9.5
509.217	9.67
509.649	9.83
510.08	10.01
510.512	10.19
510.943	10.37
511.374	10.55
511.805	10.73
512.237	10.9
512.668	11.06
513.099	11.24
513.53	11.42
513.961	11.62
514.391	11.81
514.822	12
515.253	12.21
515.684	12.42
516.114	12.64
516.545	12.87
516.975	13.11
517.406	13.36
517.836	13.61
518.267	13.85
518.697	14.08
519.127	14.32
519.558	14.56
519.988	14.79
520.418	15.01
520.848	15.23
521.278	15.45
521.708	15.77
522.138	15.96
522.567	16.14
522.997	16.32
523.427	16.51
523.857	16.7
524.286	16.87
524.716	17.06
525.145	17.24
525.575	17.41
526.004	17.56
526.433	17.61
526.863	17.77
527.292	17.96
527.721	18.11
528.15	18.25
528.579	18.38
529.008	18.49
529.437	18.59
529.866	18.68
530.295	18.79
530.724	18.88
531.152	18.97
531.581	19.06
532.01	19.13
532.438	19.21
532.867	19.28
533.295	19.36
533.723	19.43
534.152	19.49
534.58	19.55
535.008	19.59
535.436	19.64
535.865	19.66
536.293	19.69
536.721	19.72
537.149	19.76
537.576	19.79
538.004	19.81
538.432	19.84
538.86	19.87
539.287	19.89
539.715	19.94
540.143	19.97
540.57	20.02
540.998	20.05
541.425	20.1
541.852	20.12
542.28	20.17
542.707	20.22
543.134	20.26
543.561	20.3
543.988	20.35
544.415	20.35
544.842	20.39
545.269	20.43
545.696	20.47
546.123	20.48
546.549	20.51
546.976	20.51
547.403	20.53
547.829	20.54
548.256	20.56
548.682	20.56
549.108	20.58
549.535	20.59
549.961	20.58
550.387	20.58
550.813	20.59
551.24	20.59
551.666	20.59
552.092	20.57
552.518	20.56
552.943	20.55
553.369	20.54
553.795	20.5
554.221	20.45
554.646	20.42
555.072	20.35
555.498	20.3
555.923	20.24
556.349	20.18
556.774	20.13
557.199	20.07
557.625	19.99
558.05	19.92
558.475	19.86
558.9	19.81
559.325	19.74
559.75	19.68
560.175	19.61
560.6	19.54
561.025	19.45
561.449	19.34
561.874	19.23
562.299	19.13
562.723	19.02
563.148	18.9
563.572	18.78
563.997	18.65
564.421	18.53
564.846	18.41
565.27	18.28
565.694	18.16
566.118	18.02
566.542	17.9
566.966	17.78
567.39	17.65
567.814	17.53
568.238	17.41
568.662	17.3
569.086	17.18
569.509	17.07
569.933	16.96
570.357	16.84
570.78	16.74
571.204	16.63
571.627	16.52
572.05	16.42
572.474	16.32
572.897	16.22
573.32	16.12
573.743	16.01
574.166	15.91
574.589	15.81
575.012	15.73
575.435	15.63
575.858	15.55
576.281	15.46
576.704	15.39
577.126	15.31
577.549	15.22
577.972	15.16
578.394	15.09
578.817	15.02
579.239	14.96
579.661	14.89
580.084	14.83
580.506	14.77
580.928	14.71
581.35	14.64
581.772	14.57
582.194	14.51
582.616	14.45
583.038	14.39
583.46	14.32
583.882	14.25
584.303	14.17
584.725	14.1
585.147	14.03
585.568	13.97
585.99	13.91
586.411	13.85
586.833	13.79
587.254	13.72
587.675	13.66
588.096	13.61
588.518	13.57
588.939	13.54
589.36	13.5
589.781	13.48
590.202	13.45
590.623	13.42
591.043	13.37
591.464	13.34
591.885	13.31
592.305	13.28
592.726	13.26
593.147	13.25
593.567	13.22
593.987	13.2
594.408	13.16
594.828	13.13
595.248	13.11
595.669	13.1
596.089	13.08
596.509	13.05
596.929	13.03
597.349	12.99
597.769	12.96
598.189	12.92
598.608	12.89
599.028	12.87
599.448	12.85
599.867	12.81
600.287	12.78
600.706	12.75
601.126	12.7
601.545	12.67
601.965	12.65
602.384	12.61
602.803	12.57
603.222	12.53
603.641	12.48
604.061	12.44
604.48	12.39
604.898	12.33
605.317	12.28
605.736	12.24
606.155	12.18
606.574	12.11
606.992	12.05
607.411	11.98
607.829	11.89
608.248	11.82
608.666	11.75
609.085	11.68
609.503	11.63
609.921	11.57
610.339	11.5
610.758	11.43
611.176	11.37
611.594	11.3
612.012	11.24
612.43	11.2
612.847	11.14
613.265	11.08
613.683	11.03
614.101	10.97
614.518	10.92
614.936	10.86
615.353	10.81
615.771	10.76
616.188	10.72
616.606	10.68
617.023	10.63
617.44	10.6
617.857	10.56
618.274	10.51
618.691	10.46
619.108	10.42
619.525	10.39
619.942	10.35
620.359	10.32
620.776	10.28
621.192	10.24
621.609	10.22
622.026	10.18
622.442	10.16
622.859	10.14
623.275	10.11
623.691	10.09
624.108	10.06
624.524	10.05
624.94	10.03
625.356	10.02
625.772	10
626.188	9.99
626.604	9.97
627.02	9.96
627.436	9.95
627.852	9.94
628.268	9.93
628.683	9.93
629.099	9.91
629.514	9.89
629.93	9.88
630.345	9.87
630.761	9.86
631.176	9.84
631.591	9.81
632.007	9.78
632.422	9.76
632.837	9.73
633.252	9.69
633.667	9.65
634.082	9.62
634.497	9.57
634.911	9.52
635.326	9.47
635.741	9.41
636.155	9.36
636.57	9.3
636.984	9.24
637.399	9.16
637.813	9.1
638.228	9.02
638.642	8.93
639.056	8.85
639.47	8.78
639.884	8.72
640.298	8.64
640.712	8.55
641.126	8.47
641.54	8.4
641.954	8.32
642.368	8.24
642.781	8.17
643.195	8.1
643.609	8.03
644.022	7.96
644.436	7.89
644.849	7.83
645.262	7.77
645.676	7.71
646.089	7.65
646.502	7.61
646.915	7.56
647.328	7.51
647.741	7.47
648.154	7.44
648.567	7.4
648.98	7.36
649.393	7.33
649.805	7.31
650.218	7.28
650.631	7.25
651.043	7.22
651.456	7.18
651.868	7.14
652.28	7.11
652.693	7.08
653.105	7.04
653.517	6.99
653.929	6.96
654.341	6.91
654.753	6.87
655.165	6.83
655.577	6.79
655.989	6.74
656.401	6.7
656.813	6.66
657.224	6.61
657.636	6.56
658.047	6.51
658.459	6.45
658.87	6.4
659.282	6.35
659.693	6.29
660.104	6.24
660.515	6.18
660.926	6.14
661.338	6.08
661.749	6.04
662.159	5.98
662.57	5.94
662.981	5.91
663.392	5.86
663.803	5.83
664.213	5.8
664.624	5.76
665.035	5.73
665.445	5.69
665.855	5.67
666.266	5.65
666.676	5.64
667.086	5.61
667.497	5.59
667.907	5.58
668.317	5.55
668.727	5.54
669.137	5.53
669.547	5.53
669.956	5.52
670.366	5.51
670.776	5.5
671.186	5.49
671.595	5.49
672.005	5.49
672.414	5.49
672.824	5.49
673.233	5.5
673.642	5.51
674.052	5.51
674.461	5.51
674.87	5.54
675.279	5.56
675.688	5.58
676.097	5.6
676.506	5.61
676.915	5.63
677.323	5.65
677.732	5.67
678.141	5.69
678.549	5.72
678.958	5.74
679.366	5.77
679.775	5.79
680.183	5.82
680.592	5.87
681	5.92
681.408	5.97
681.816	6.03
682.224	6.09
682.632	6.14
683.04	6.2
683.448	6.27
683.856	6.34
684.264	6.44
684.671	6.54
685.079	6.65
685.487	6.78
685.894	6.93
686.302	7.09
686.709	7.26
687.116	7.46
687.524	7.67
687.931	7.9
688.338	8.16
688.745	8.41
689.152	8.69
689.559	8.99
689.966	9.31
690.373	9.63
690.78	9.96
691.187	10.31
691.593	10.67
692	11.04
692.407	11.4
692.813	11.78
693.22	12.17
693.626	12.56
694.032	12.95
694.439	13.34
694.845	13.75
695.251	14.14
695.657	14.54
696.063	14.94
696.469	15.36
696.875	15.77
697.281	16.17
697.687	16.57
698.093	16.96
698.498	17.35
698.904	17.74
699.31	18.11
699.715	18.5
700.12	18.87
700.526	19.25
700.931	19.6
701.337	19.96
701.742	20.31
702.147	20.66
702.552	21.01
702.957	21.34
703.362	21.67
703.767	21.96
704.172	22.29
704.577	22.6
704.981	22.91
705.386	23.23
705.791	23.51
706.195	23.81
706.6	24.11
707.004	24.39
707.408	24.7
707.813	24.98
708.217	25.28
708.621	25.55
709.025	25.8
709.43	26.06
709.834	26.32
710.237	26.6
710.641	26.85
711.045	27.08
711.449	27.33
711.853	27.57
712.256	27.79
712.66	28
713.064	28.2
713.467	28.42
713.87	28.61
714.274	28.79
714.677	28.97
715.08	29.15
715.484	29.34
715.887	29.51
716.29	29.65
716.693	29.86
717.096	30.06
717.499	30.27
717.901	30.47
718.304	30.67
718.707	30.86
719.109	31.05
719.512	31.23
719.915	31.39
720.317	31.55
720.719	31.71
721.122	31.85
721.524	31.99
721.926	32.12
722.328	32.24
722.731	32.37
723.133	32.51
723.535	32.6
723.937	32.73
724.338	32.86
724.74	32.99
725.142	33.18
725.544	33.26
725.945	33.38
726.347	33.47
726.748	33.58
727.15	33.66
727.551	33.76
727.952	33.86
728.354	33.95
728.755	34.04
729.156	34.12
729.557	34.16
729.958	34.26
730.359	34.33
730.76	34.43
731.161	34.5
731.562	34.6
731.962	34.65
732.363	34.73
732.763	34.8
733.164	34.87
733.564	34.93
733.965	34.98
734.365	35.05
734.766	35.1
735.166	35.14
735.566	35.19
735.966	35.25
736.366	35.3
736.766	35.34
737.166	35.37
737.566	35.41
737.966	35.44
738.365	35.45
738.765	35.48
739.165	35.52
739.564	35.55
739.964	35.56
740.363	35.58
740.763	35.61
741.162	35.63
741.561	35.65
741.96	35.68
742.36	35.69
742.759	35.72
743.158	35.73
743.557	35.72
743.955	35.76
744.354	35.79
744.753	35.81
745.152	35.84
745.55	35.88
745.949	35.9
746.348	35.93
746.746	35.95
747.144	35.98
747.543	36.01
747.941	36.05
748.339	36.04
748.737	36.04
749.136	36.02
749.534	36.02
749.932	36.02
750.33	36.03
750.727	36.03
751.125	36.04
751.523	36.05
751.921	36.04
752.318	36.03
752.716	36.03
753.113	36.06
753.511	36.06
753.908	36.08
754.305	36.07
754.703	36.03
755.1	35.99
755.497	35.92
755.894	35.79
756.291	35.69
756.688	35.57
757.085	35.46
757.482	35.33
757.878	35.23
758.275	35.11
758.672	35.01
759.068	34.92
759.465	34.84
759.861	34.82
760.258	34.85
760.654	34.88
761.05	34.95
761.447	34.97
761.843	35.03
762.239	35.06
762.635	35.1
763.031	35.15
763.427	35.22
763.822	35.3
764.218	35.36
764.614	35.44
765.01	35.47
765.405	35.51
765.801	35.57
766.196	35.63
766.592	35.67
766.987	35.73
767.382	35.76
767.778	35.8
768.173	35.82
768.568	35.83
768.963	35.81
769.358	35.84
769.753	35.85
770.148	35.84
770.542	35.82
770.937	35.81
771.332	35.79
771.726	35.8
772.121	35.79
772.515	35.77
772.91	35.78
773.304	35.8
773.699	35.79
774.093	35.76
774.487	35.76
774.881	35.77
775.275	35.75
775.669	35.72
776.063	35.68
776.457	35.65
776.851	35.62
777.245	35.58
777.638	35.54
778.032	35.54
778.425	35.58
778.819	35.58
779.212	35.58
779.606	35.59
779.999	35.58
780.392	35.62
780.786	35.64
781.179	35.65
781.572	35.68
781.965	35.68
782.358	35.67
782.751	35.63
783.143	35.61
783.536	35.6
783.929	35.59
784.322	35.6
784.714	35.58
785.107	35.58
785.499	35.59
785.891	35.59
786.284	35.57
786.676	35.57
787.068	35.56
787.46	35.56
787.852	35.55
788.245	35.54
788.636	35.51
789.028	35.5
789.42	35.48
789.812	35.47
790.204	35.45
790.595	35.43
790.987	35.43
791.378	35.46
791.77	35.47
792.161	35.46
792.553	35.47
792.944	35.47
793.335	35.48
793.726	35.47
794.117	35.45
794.508	35.41
794.899	35.41
795.29	35.39
795.681	35.34
796.072	35.32
796.463	35.3
796.853	35.26
797.244	35.25
797.634	35.24
798.025	35.23
798.415	35.21
798.806	35.19
799.196	35.18
799.586	35.18
799.976	35.19
800.366	35.17
800.756	35.18
801.146	35.19
801.536	35.16
801.926	35.15
802.316	35.13
802.706	35.15
803.095	35.19
803.485	35.19
803.874	35.15
804.264	35.15
804.653	35.14
805.043	35.13
805.432	35.12
805.821	35.16
806.21	35.16
806.599	35.15
806.988	35.14
807.377	35.1
807.766	35.09
808.155	35.06
808.544	35.04
808.933	35.02
809.321	35
809.71	34.99
810.098	34.95
810.487	34.91
810.875	34.9
811.264	34.88
811.652	34.88
812.04	34.85
812.428	34.88
812.816	34.83
813.204	34.8
813.592	34.77
813.98	34.75
814.368	34.74
814.756	34.73
815.144	34.71
815.531	34.69
815.919	34.66
816.306	34.67
816.694	34.64
817.081	34.68
817.469	34.71
817.856	34.71
818.243	34.69
818.63	34.69
819.017	34.69
819.404	34.67
819.791	34.68
820.178	34.7
820.565	34.68
820.952	34.69
821.339	34.66
821.725	34.64
822.112	34.67
822.498	34.66
822.885	34.67
823.271	34.68
823.657	34.68
824.044	34.67
824.43	34.66
824.816	34.66
825.202	34.65
825.588	34.65
825.974	34.64
826.36	34.64
826.746	34.63
827.132	34.61
827.517	34.61
827.903	34.62
828.289	34.63
828.674	34.61
829.06	34.6
829.445	34.58
829.83	34.59
830.216	34.58
830.601	34.56
830.986	34.56
831.371	34.56
831.756	34.55
832.141	34.55
832.526	34.54
832.911	34.53
833.295	34.52
833.68	34.54
834.065	34.53
834.449	34.54
834.834	34.54
835.218	34.55
835.603	34.55
835.987	34.54
836.371	34.53
836.755	34.53
837.139	34.55
837.524	34.57
837.908	34.57
838.291	34.6
838.675	34.6
839.059	34.6
839.443	34.58
839.827	34.58
840.21	34.59
840.594	34.61
840.977	34.6
841.361	34.59
841.744	34.56
842.127	34.53
842.511	34.5
842.894	34.49
843.277	34.48
843.66	34.47
844.043	34.49
844.426	34.48
844.809	34.48
845.191	34.51
845.574	34.51
845.957	34.51
846.339	34.53
846.722	34.54
847.104	34.55
847.487	34.55
847.869	34.56
848.252	34.57
848.634	34.57
849.016	34.58
849.398	34.57
849.78	34.59
850.162	34.6
850.544	34.61
850.926	34.6
851.307	34.6
851.689	34.6
852.071	34.61
852.452	34.59
852.834	34.6
853.215	34.58
853.597	34.57
853.978	34.54
854.359	34.53
854.741	34.52
855.122	34.51
855.503	34.5
855.884	34.49
856.265	34.47
856.646	34.45
857.026	34.43
857.407	34.44
857.788	34.43
858.169	34.45
858.549	34.46
858.93	34.45
859.31	34.44
859.69	34.45
860.071	34.46
860.451	34.46
860.831	34.48
861.211	34.47
861.591	34.47
861.971	34.48
862.351	34.47
862.731	34.47
863.111	34.47
863.491	34.48
863.87	34.48
864.25	34.47
864.629	34.48
865.009	34.49
865.388	34.47
865.768	34.47
866.147	34.43
866.526	34.44
866.905	34.44
867.284	34.45
867.663	34.45
868.042	34.45
868.421	34.46
868.8	34.45
869.179	34.44
869.558	34.46
869.936	34.46
870.315	34.47
870.693	34.47
871.072	34.45
871.45	34.44
871.828	34.44
872.207	34.45
872.585	34.45
872.963	34.46
873.341	34.47
873.719	34.47
874.097	34.47
874.475	34.49
874.853	34.51
875.23	34.53
875.608	34.53
875.986	34.56
876.363	34.55
876.741	34.55
877.118	34.54
877.495	34.55
877.873	34.55
878.25	34.56
878.627	34.55
879.004	34.54
879.381	34.53
879.758	34.52
880.135	34.49
880.512	34.49
880.889	34.47
881.265	34.47
881.642	34.46
882.019	34.46
882.395	34.44
882.772	34.42
883.148	34.41
883.524	34.39
883.901	34.4
884.277	34.39
884.653	34.39
885.029	34.39
885.405	34.38
885.781	34.4
886.157	34.4
886.532	34.42
886.908	34.43
887.284	34.46
887.659	34.46
888.035	34.46
888.411	34.44
888.786	34.44
889.161	34.45
889.537	34.47
889.912	34.45
890.287	34.47
890.662	34.47
891.037	34.46
891.412	34.46
891.787	34.45
892.162	34.44
892.536	34.46
892.911	34.45
893.286	34.45
893.66	34.42
894.035	34.42
894.409	34.41
894.784	34.41
895.158	34.42
895.532	34.42
895.906	34.42
896.281	34.42
896.655	34.41
897.029	34.42
897.402	34.41
897.776	34.42
898.15	34.42
898.524	34.4
898.898	34.38
899.271	34.36
899.645	34.35
900.018	34.36
900.392	34.37
900.765	34.37
901.138	34.37
901.511	34.37
901.884	34.38
902.258	34.38
902.631	34.39
903.003	34.39
903.376	34.39
903.749	34.39
904.122	34.4
904.495	34.4
904.867	34.39
905.24	34.41
905.612	34.42
905.985	34.39
906.357	34.39
906.729	34.41
907.102	34.4
907.474	34.42
907.846	34.39
908.218	34.37
908.59	34.36
908.962	34.37
909.334	34.36
909.705	34.33
910.077	34.35
910.449	34.33
910.82	34.3
911.192	34.32
911.563	34.3
911.935	34.28
912.306	34.29
912.677	34.31
913.048	34.31
913.419	34.3
913.79	34.3
914.161	34.29
914.532	34.29
914.903	34.27
915.274	34.26
915.645	34.26
916.015	34.29
916.386	34.28
916.756	34.28
917.127	34.29
917.497	34.32
917.868	34.32
918.238	34.31
918.608	34.33
918.978	34.35
919.348	34.35
919.718	34.34
920.088	34.34
920.458	34.35
920.828	34.32
921.198	34.28
921.567	34.28
921.937	34.3
922.306	34.31
922.676	34.31
923.045	34.3
923.415	34.28
923.784	34.28
924.153	34.27
924.522	34.28
924.891	34.3
925.26	34.3
925.629	34.29
925.998	34.27
926.367	34.26
926.736	34.23
927.104	34.25
927.473	34.25
927.842	34.25
928.21	34.29
928.578	34.28
928.947	34.27
929.315	34.24
929.683	34.23
930.051	34.23
930.42	34.23
930.788	34.24
931.156	34.2
931.523	34.2
931.891	34.21
932.259	34.18
932.627	34.13
932.994	34.13
933.362	34.17
933.729	34.13
934.097	34.16
934.464	34.17
934.831	34.17
935.199	34.19
935.566	34.2
935.933	34.18
936.3	34.17
936.667	34.18
937.034	34.21
937.401	34.21
937.767	34.27
938.134	34.21
938.501	34.17
938.867	34.21
939.234	34.22
939.6	34.24
939.967	34.25
940.333	34.22
940.699	34.28
941.065	34.21
941.431	34.16
941.798	34.09
942.163	34.1
942.529	34.16
942.895	34.13
943.261	34.11
943.627	34.07
943.992	34.05
944.358	34.1
944.723	34.09
945.089	34.09
945.454	34.11
945.82	34.15
946.185	34.21
946.55	34.14
946.915	34.1
947.28	34.08
947.645	34.08
948.01	34.1
948.375	34.02
948.74	34.02
949.104	34.04
949.469	34.06
949.834	34.04
950.198	33.98
950.562	33.99
950.927	33.99
951.291	33.93
951.655	33.87
952.02	33.88
952.384	33.85
952.748	33.82
953.112	33.8
953.476	33.72
953.839	33.69
954.203	33.64
954.567	33.6
954.931	33.56
955.294	33.57
955.658	33.61
956.021	33.53
956.385	33.52
956.748	33.49
957.111	33.45
957.474	33.49
957.837	33.44
958.2	33.47
958.563	33.5
958.926	33.52
959.289	33.52
959.652	33.47
960.015	33.46
960.377	33.46
960.74	33.47
961.102	33.46
961.465	33.46
961.827	33.49
962.189	33.49
962.552	33.45
962.914	33.43
963.276	33.46
963.638	33.46
964	33.44
964.362	33.43
964.724	33.39
965.085	33.38
965.447	33.35
965.809	33.32
966.17	33.29
966.532	33.29
966.893	33.28
967.255	33.26
967.616	33.25
967.977	33.3
968.338	33.32
968.699	33.27
969.061	33.29
969.421	33.29
969.782	33.33
970.143	33.33
970.504	33.33
970.865	33.34
971.225	33.32
971.586	33.34
971.946	33.31
972.307	33.31
972.667	33.37
973.027	33.35
973.388	33.37
973.748	33.37
974.108	33.41
974.468	33.42
974.828	33.38
975.188	33.4
975.548	33.38
975.907	33.4
976.267	33.35
976.627	33.33
976.986	33.3
977.346	33.28
977.705	33.26
978.064	33.24
978.424	33.25
978.783	33.23
979.142	33.21
979.501	33.27
979.86	33.27
980.219	33.31
980.578	33.31
980.937	33.37
981.296	33.34
981.654	33.31
982.013	33.29
982.371	33.28
982.73	33.3
983.088	33.3
983.447	33.25
983.805	33.23
984.163	33.14
984.521	33.17
984.879	33.09
985.237	33.1
985.595	33.13
985.953	33.15
986.311	33.09
986.669	33.08
987.026	33.05
987.384	33.03
987.741	33.02
988.099	33.08
988.456	32.97
988.814	33.03
989.171	33.01
989.528	33.05
989.885	32.92
990.242	32.95
990.599	32.97
990.956	33.04
991.313	33.1
991.67	33.16
992.027	33.29
992.383	33.45
992.74	33.52
993.096	33.53
993.453	33.46
993.809	33.57
994.165	33.6
994.522	33.62
994.878	33.56
995.234	33.53
995.59	33.51
995.946	33.41
996.302	33.39
996.658	33.34
997.013	33.35
997.369	33.43
997.725	33.51
998.08	33.6
998.436	33.66
998.791	33.78
999.147	33.62
999.502	33.64
999.857	33.6
1000.212	33.39
1000.567	33.38
1000.922	33.32
1001.277	33.29
1001.632	33.21
1001.987	33.16
1002.342	33.14
1002.696	33.02
1003.051	33.24
1003.406	33.31
1003.76	33.31
1004.114	33.42
1004.469	33.46
1004.823	33.74
1005.177	33.72
1005.531	33.71
1005.885	33.73
1006.239	33.7
1006.593	33.78
1006.947	33.7
1007.301	33.5
1007.655	33.55
1008.008	33.64
1008.362	33.59
1008.715	33.32
1009.069	33.44
1009.422	33.47
1009.776	33.43
1010.129	33.37
1010.482	33.35
1010.835	33.43
1011.188	33.53
1011.541	33.5
1011.894	33.51
1012.247	33.49
1012.6	33.53
1012.952	33.35
1013.305	33.37
1013.657	33.39
1014.01	33.44
1014.362	33.37
1014.715	33.31
1015.067	33.39
1015.419	33.56
1015.771	33.47
1016.123	33.5
1016.475	33.4
1016.827	33.56
1017.179	33.63
1017.531	33.76
1017.883	33.86
1018.234	33.96
1018.586	33.98
1018.938	34.03
1019.289	33.82
1019.64	33.8
1019.992	33.79
1020.343	33.92
1020.694	33.81
1021.045	33.65
1021.396	33.49
1021.747	33.44
1022.098	33.37
1022.449	33.36
1022.8	33.19
1023.151	33.26
1023.501	33.33
1023.852	33.56
1024.202	33.33
1024.553	33.35
1024.903	33.36
1025.253	33.35
1025.604	33.34
1025.954	33.23
1026.304	33.27
1026.654	33.47
1027.004	33.39
1027.354	33.21
1027.703	32.88
1028.053	33.25
1028.403	33.32
1028.753	33.09
1029.102	33.43
1029.452	33.78
1029.801	34.32
1030.15	34.3
1030.499	34.12
897.758	989.29
901.051	997
904.343	994.83
907.636	1012.9
910.928	982.38
914.22	984.87
917.511	968.89
920.803	930.02
924.094	925.4
927.384	901.99
930.675	863.31
933.965	862.47
937.255	812.06
940.544	779.82
943.834	741.98
947.123	737.08
950.411	693.66
953.7	681.65
956.988	645.59
960.276	618.96
963.563	608.29
966.851	587.02
970.138	582.27
973.424	563.98
976.711	567
979.997	539.13
983.283	534.82
986.568	522.68
989.853	507.84
993.138	498.08
996.423	478.32
999.708	465.47
1002.992	459.87
1006.275	438.17
1009.559	434.55
1012.842	418.61
1016.125	408.39
1019.408	400.63
1022.69	395.91
1025.972	386.5
1029.254	377.46
1032.536	372.13
1035.817	363.89
1039.098	360.16
1042.379	354.17
1045.659	348.88
1048.939	340.05
1052.219	332.76
1055.498	328.93
1058.778	320.63
1062.057	313.97
1065.335	310.53
1068.614	306.63
1071.892	303.73
1075.17	294.07
1078.447	287.57
1081.724	285.77
1085.001	283.94
1088.278	277.91
1091.554	272.85
1094.83	273.23
1098.106	270.51
1101.382	268.45
1104.657	267.13
1107.932	262.44
1111.206	263.59
1114.481	257.45
1117.755	254.53
1121.029	252.44
1124.302	251.74
1127.575	247.03
1130.848	244.21
1134.121	242.12
1137.393	239.98
1140.665	234.79
1143.937	233.15
1147.208	231.82
1150.48	230.79
1153.75	229.13
1157.021	226.1
1160.291	226.51
1163.561	224.37
1166.831	223.69
1170.101	221.93
1173.37	222.18
1176.639	222.52
1179.907	220.84
1183.176	218.55
1186.444	218.71
1189.711	217.7
1192.979	217.28
1196.246	215.67
1199.513	216.74
1202.78	215.59
1206.046	215.46
1209.312	212.75
1212.578	212.84
1215.843	214.18
1219.108	213.12
1222.373	216.89
1225.638	218.27
1228.902	220.36
1232.166	221.57
1235.43	222.08
1238.693	225.5
1241.956	226.37
1245.219	229.68
1248.482	229.82
1251.744	229.82
1255.006	230.5
1258.268	224.94
1261.529	223.21
1264.79	221.74
1268.051	220
1271.312	217.37
1274.572	214.56
1277.832	213.01
1281.092	209.9
1284.351	208.6
1287.61	208.66
1290.869	205.37
1294.128	204.64
1297.386	204.19
1300.644	202.41
1303.902	203.08
1307.159	203.01
1310.416	202.81
1313.673	201.66
1316.93	204.38
1320.186	204.1
1323.442	204.47
1326.697	207.45
1329.953	208.45
1333.208	209.32
1336.463	212.02
1339.717	212.06
1342.972	214.03
1346.226	215.86
1349.479	217.34
1352.733	218.11
1355.986	218.9
1359.238	218.91
1362.491	219.95
1365.743	221.55
1368.995	221.86
1372.247	222.5
1375.498	222.15
1378.749	223.92
1382	221.88
1385.251	221.89
1388.501	220.18
1391.751	221.23
1395	220.77
1398.25	219.37
1401.499	218.22
1404.748	217.71
1407.996	214.47
1411.244	213.64
1414.492	211.89
1417.74	209.83
1420.987	207.91
1424.234	207.2
1427.481	204.56
1430.728	204.09
1433.974	202.67
1437.22	199.91
1440.465	199.72
1443.711	197.97
1446.956	196.12
1450.201	194.28
1453.445	192.42
1456.689	191.45
1459.933	188.1
1463.177	187.03
1466.42	183.79
1469.663	181.38
1472.906	180.68
1476.148	176.73
1479.391	174.9
1482.633	173.99
1485.874	171.02
1489.115	169.65
1492.356	168.16
1495.597	167.86
1498.838	165.06
1502.078	164.45
1505.318	164.05
1508.557	163.39
1511.797	162.57
1515.036	161.66
1518.274	160.06
1521.513	159.42
1524.751	159.07
1527.989	157.92
1531.227	157.62
1534.464	157.62
1537.701	156.29
1540.938	155.57
1544.174	154.42
1547.41	154.43
1550.646	153.4
1553.882	154.25
1557.117	152.53
1560.352	151.72
1563.587	151.41
1566.821	150.44
1570.055	149.05
1573.289	148.19
1576.523	148.03
1579.756	146.99
1582.989	146.22
1586.222	145.66
1589.454	144.99
1592.686	145.68
1595.918	145.27
1599.15	144.69
1602.381	144.92
1605.612	144.93
1608.843	145.43
1612.073	145.22
1615.303	145.93
1618.533	145.44
1621.762	145.97
1624.992	146.21
1628.221	145.57
1631.449	145.01
1634.678	145.04
1637.906	145.77
1641.134	146.12
1644.361	145.81
1647.588	145.42
1650.815	144.93
1654.042	145.06
1657.269	145.3
1660.495	145.01
1663.72	144.95
1666.946	146.01
1670.171	146.4
1673.396	145.6
1676.621	145.57
1679.845	145.7
1683.069	146.54
1686.293	147.6
1689.517	148.21
1692.74	148.35
1695.963	148.61
1699.185	149.77
1702.408	149.96
1705.63	150.64
1708.852	151.52
1712.073	151.39
1715.294	152.11
1718.515	152.99
1721.736	152.48
1724.956	153.07
1728.176	153.16
1731.396	154.33
1734.616	154.1
1737.835	154.43
1741.054	152.52
1744.272	153.29
1747.491	154.83
1750.709	155.17
1753.927	155.02
1757.144	154.5
1760.361	154.82
1763.578	155.5
1766.795	154.97
1770.011	156.16
1773.227	156.17
1776.443	158.37
1779.658	158.34
1782.874	158.18
1786.089	158.64
1789.303	159.07
1792.518	161.18
1795.732	161.34
1798.945	162.16
1802.159	162.96
1805.372	163.17
1808.585	165.53
1811.797	166.24
1815.01	166.68
1818.222	167.77
1821.434	169.66
1824.645	170.05
1827.856	172.63
1831.067	174.13
1834.278	173.58
1837.488	174.85
1840.698	175.82
1843.908	174.95
1847.117	175.39
1850.326	176.36
1853.535	175.39
1856.744	177.01
1859.952	177.5
1863.16	176.45
1866.368	174.95
1869.575	177.45
1872.782	174.99
1875.989	174.16
1879.196	173.52
1882.402	172.9
1885.608	173.6
1888.814	174.48
1892.019	173.25
1895.224	172.53
1898.429	172.42
1901.634	173.15
1904.838	172.46
1908.042	174.69
1911.246	175.22
1914.449	176.33
1917.652	175.94
1920.855	175.43
1924.058	175.24
1927.26	175.16
1930.462	175.49
1933.664	176.46
1936.865	175.45
1940.066	175.68
1943.267	173.51
1946.467	173.88
1949.668	174.75
1952.868	177.15
1956.067	177.17
1959.267	178.63
1962.466	178.89
1965.665	178.28
1968.863	178.61
1972.061	181.74
1975.259	183.11
1978.457	185.07
1981.654	186.38
1984.852	186.56
1988.048	186.19
1991.245	187.9
1994.441	189.27
1997.637	190.37
2000.833	194.67
2004.028	197.08
2007.223	197.88
2010.418	199.71
2013.613	203.6
2016.807	206.26
2020.001	208.18
2023.194	211.01
2026.388	215.45
2029.581	220.21
2032.774	223.05
2035.966	225.7
2039.158	226.49
2042.35	230.75
2045.542	231.83
2048.733	235.26
2051.924	238.06
2055.115	241.83
2058.306	242.56
2061.496	244.97
2064.686	244.37
2067.875	249.34
2071.065	250.76
2074.254	249.8
2077.442	252.42
2080.631	254.08
2083.819	256.37
2087.007	256.43
2090.195	259.9
2093.382	262.11
2096.569	260.98
2099.756	265.42
2102.942	265.52
2106.128	267.47
2109.314	273.28
2112.5	271.94
2115.685	278.77
2118.87	278.7
2122.055	285.94
2125.239	286.84
2128.424	290.91
2131.608	291.94
2134.791	294.99
2137.974	296.54
2141.157	297.8
2144.34	299.07
2147.523	303.6
2150.705	300.72
2153.887	304.44
2157.068	304.06
2160.25	301.03
2163.431	302.47
2166.611	306.94
2169.792	313.14
2172.972	315.66
2176.152	318.98
2179.331	322.26
2182.511	327.14
2185.69	330.6
2188.868	337.61
2192.047	337.5
2195.225	348.74
2198.403	356.99
2201.58	364.12
2204.758	369.89
2207.935	377.58
2211.111	383.98
2214.288	389.14
2217.464	390.37
2220.64	396.83
2223.815	400.77
2226.991	417.44
2230.166	417.8
2233.34	423.55
2236.515	428.41
2239.689	430.67
2242.863	431.85
2246.036	444.17
2249.209	440.5
2252.382	447.4
2255.555	461.73
2258.727	463.28
2261.9	465.91
2265.071	471.28
2268.243	479.59
2271.414	485.11
2274.585	493.93
2277.756	499.74
2280.926	503.74
2284.096	516.69
2287.266	526.4
2290.436	528.7
2293.605	541.52
2296.774	556.65
2299.942	572.45
2303.111	578.88
2306.279	592.94
2309.447	599.34
2312.614	615.47
2315.781	631.53
2318.948	657.75
2322.115	652.48
2325.281	689.23
2328.447	671.4
2331.613	698.91
2334.779	692.9
2337.944	720.86
2341.109	727.92
2344.274	752.34
2347.438	774.31
2350.602	773.25
2353.766	800.8
2356.929	813.47
2360.092	803.14
2363.255	864.75
2366.418	863.52
2369.58	880.43
2372.742	931.34
2375.904	956.33
2379.066	948.34
2382.227	934.68
2385.388	1013.99
2388.548	1014.53
2391.709	1024.47
2394.869	1144.37
2398.029	1099.3
2401.188	1129.79
2404.347	1121.46
2407.506	1103.28
2410.665	1136.78
2413.823	1200.66
2416.981	1274.15
2420.139	1232.95
2423.296	1219.95
2426.453	1273.74
2429.61	1225.26
2432.767	1278.61
2435.923	1263.62
2439.079	1383.18
2442.235	1406.23
2445.391	1385.47
2448.546	1377.99
2451.701	1338.06
2454.855	1335.75
2458.009	1416.37
2461.163	1476.71
2464.317	1531.01
2467.471	1566.17
2470.624	1570.04
2473.777	1525.87
2476.929	1483.42
2480.082	1444.77
2483.234	1432.98
2486.385	1501.7
2489.537	1509.48
2492.688	1557.54
2495.839	1519.37
2498.989	1483.3
2502.14	1495.87
2505.29	1505.62
2508.439	1531.29
2511.589	1529.3
2514.738	1666.18
2517.887	1623.79
2521.035	1717.49
2524.183	1730.37
2527.331	1746.92
2530.479	1729.54
2533.627	1745.06
