Data from C_1_DEC_NC_4N_Splice17_12-57-45-669.txt Node
Date: Sat Mar 07 12:57:45 EST 2020
User: sa697716
Spectrometer: NQ5500242
Trigger mode: 0
Integration Time (sec): 1.450000E-1
Scans to average: 20
Nonlinearity correction enabled: false
Boxcar width: 5
Storing dark spectrum: false
XAxis mode: Wavelengths
Number of Pixels in Spectrum: 512
>>>>>Begin Spectral Data<<<<<
187.83	139.98
188.298	165.46
188.766	147.2
189.233	128.96
189.701	141.26
190.169	167.99
190.636	202.26
191.104	336.66
191.571	249.89
192.039	203.75
192.506	-150.66
192.974	19.35
193.441	101.46
193.908	44.55
194.375	63.79
194.842	60.21
195.31	74.43
195.777	109.85
196.244	46.9
196.711	34.6
197.177	33.87
197.644	34
198.111	34.28
198.578	34.55
199.045	34.76
199.511	34.84
199.978	34.58
200.445	34.87
200.911	34.57
201.378	34.34
201.844	34.53
202.31	34.66
202.777	34.42
203.243	34.53
203.709	34.36
204.176	34.09
204.642	33.73
205.108	33.71
205.574	33.58
206.04	33.57
206.506	33.39
206.972	33.14
207.438	32.83
207.903	32.46
208.369	31.76
208.835	31.42
209.301	30.9
209.766	30.16
210.232	29.39
210.697	28.68
211.163	28.11
211.628	27.52
212.094	26.85
212.559	26.33
213.024	25.69
213.49	25.12
213.955	24.25
214.42	23.68
214.885	23.17
215.35	22.45
215.815	21.34
216.28	19.92
216.745	18.29
217.21	16.8
217.675	15.31
218.14	14.22
218.604	13.23
219.069	12.43
219.534	11.77
219.998	11.16
220.463	10.69
220.927	10.24
221.392	9.9
221.856	9.64
222.32	9.38
222.785	9.23
223.249	8.99
223.713	8.81
224.177	8.64
224.642	8.46
225.106	8.3
225.57	8.16
226.034	8.05
226.497	7.94
226.961	7.81
227.425	7.7
227.889	7.58
228.353	7.48
228.816	7.36
229.28	7.26
229.744	7.17
230.207	7.07
230.671	6.96
231.134	6.86
231.597	6.77
232.061	6.69
232.524	6.61
232.987	6.51
233.45	6.46
233.914	6.39
234.377	6.31
234.84	6.23
235.303	6.18
235.766	6.12
236.229	6.06
236.691	5.99
237.154	5.93
237.617	5.88
238.08	5.83
238.542	5.76
239.005	5.71
239.468	5.65
239.93	5.6
240.393	5.55
240.855	5.48
241.317	5.43
241.78	5.37
242.242	5.33
242.704	5.29
243.166	5.24
243.629	5.21
244.091	5.15
244.553	5.11
245.015	5.06
245.477	5.02
245.939	4.98
246.4	4.94
246.862	4.9
247.324	4.86
247.786	4.82
248.247	4.78
248.709	4.73
249.17	4.69
249.632	4.67
250.093	4.64
250.555	4.62
251.016	4.59
251.477	4.57
251.939	4.56
252.4	4.54
252.861	4.51
253.322	4.5
253.783	4.48
254.244	4.47
254.705	4.44
255.166	4.42
255.627	4.39
256.088	4.37
256.549	4.34
257.009	4.3
257.47	4.26
257.931	4.23
258.391	4.19
258.852	4.16
259.312	4.14
259.773	4.11
260.233	4.09
260.694	4.07
261.154	4.05
261.614	4.03
262.074	4.01
262.534	4
262.994	3.99
263.455	3.97
263.915	3.96
264.374	3.95
264.834	3.94
265.294	3.93
265.754	3.92
266.214	3.91
266.673	3.9
267.133	3.89
267.593	3.88
268.052	3.87
268.512	3.87
268.971	3.86
269.431	3.85
269.89	3.83
270.349	3.83
270.809	3.81
271.268	3.81
271.727	3.8
272.186	3.8
272.645	3.79
273.104	3.78
273.563	3.77
274.022	3.76
274.481	3.76
274.94	3.76
275.399	3.75
275.857	3.74
276.316	3.73
276.775	3.72
277.233	3.71
277.692	3.71
278.15	3.7
278.609	3.69
279.067	3.68
279.525	3.67
279.984	3.66
280.442	3.65
280.9	3.65
281.358	3.64
281.816	3.64
282.274	3.63
282.732	3.61
283.19	3.6
283.648	3.59
284.106	3.57
284.564	3.57
285.021	3.56
285.479	3.54
285.937	3.52
286.394	3.51
286.852	3.5
287.309	3.49
287.767	3.48
288.224	3.47
288.682	3.46
289.139	3.44
289.596	3.43
290.053	3.42
290.511	3.41
290.968	3.4
291.425	3.39
291.882	3.38
292.339	3.37
292.796	3.36
293.252	3.35
293.709	3.34
294.166	3.33
294.623	3.32
295.079	3.31
295.536	3.3
295.992	3.29
296.449	3.28
296.905	3.28
297.362	3.27
297.818	3.26
298.274	3.26
298.731	3.24
299.187	3.23
299.643	3.22
300.099	3.22
300.555	3.21
301.011	3.2
301.467	3.2
301.923	3.18
302.379	3.18
302.835	3.18
303.291	3.17
303.746	3.17
304.202	3.17
304.658	3.17
305.113	3.16
305.569	3.17
306.024	3.17
306.479	3.16
306.935	3.15
307.39	3.15
307.845	3.14
308.301	3.15
308.756	3.14
309.211	3.14
309.666	3.14
310.121	3.14
310.576	3.13
311.031	3.13
311.486	3.13
311.94	3.13
312.395	3.12
312.85	3.12
313.305	3.11
313.759	3.11
314.214	3.11
314.668	3.09
315.123	3.09
315.577	3.09
316.032	3.08
316.486	3.07
316.94	3.07
317.394	3.06
317.849	3.05
318.303	3.03
318.757	3.02
319.211	3.01
319.665	3
320.119	2.98
320.572	2.97
321.026	2.96
321.48	2.95
321.934	2.94
322.387	2.93
322.841	2.93
323.295	2.93
323.748	2.93
324.202	2.93
324.655	2.93
325.108	2.94
325.562	2.94
326.015	2.94
326.468	2.94
326.921	2.93
327.374	2.93
327.827	2.93
328.28	2.92
328.733	2.92
329.186	2.92
329.639	2.91
330.092	2.9
330.545	2.9
330.997	2.9
331.45	2.9
331.903	2.91
332.355	2.92
332.808	2.91
333.26	2.91
333.713	2.9
334.165	2.9
334.617	2.9
335.069	2.9
335.522	2.9
335.974	2.9
336.426	2.89
336.878	2.88
337.33	2.87
337.782	2.87
338.234	2.87
338.686	2.86
339.137	2.86
339.589	2.85
340.041	2.85
340.493	2.83
340.944	2.82
341.396	2.82
341.847	2.81
342.299	2.8
342.75	2.8
343.201	2.78
343.653	2.78
344.104	2.76
344.555	2.76
345.006	2.76
345.457	2.76
345.908	2.75
346.359	2.76
346.81	2.76
347.261	2.75
347.712	2.75
348.163	2.74
348.613	2.75
349.064	2.75
349.515	2.75
349.965	2.75
350.416	2.75
350.866	2.74
351.317	2.73
351.767	2.72
352.217	2.72
352.668	2.72
353.118	2.73
353.568	2.72
354.018	2.72
354.468	2.72
354.918	2.73
355.368	2.73
355.818	2.73
356.268	2.73
356.718	2.74
357.168	2.73
357.617	2.73
358.067	2.73
358.517	2.73
358.966	2.73
359.416	2.73
359.865	2.73
360.315	2.73
360.764	2.73
361.213	2.73
361.663	2.72
362.112	2.73
362.561	2.73
363.01	2.74
363.459	2.72
363.908	2.72
364.357	2.72
364.806	2.71
365.255	2.71
365.703	2.71
366.152	2.73
366.601	2.74
367.05	2.74
367.498	2.72
367.947	2.73
368.395	2.73
368.844	2.74
369.292	2.74
369.74	2.75
370.189	2.74
370.637	2.74
371.085	2.72
371.533	2.72
371.981	2.72
372.429	2.72
372.877	2.73
373.325	2.72
373.773	2.71
374.221	2.71
374.669	2.71
375.116	2.7
375.564	2.71
376.012	2.73
376.459	2.73
376.907	2.72
377.354	2.73
377.801	2.74
378.249	2.74
378.696	2.74
379.143	2.75
379.591	2.76
380.038	2.77
380.485	2.79
380.932	2.79
381.379	2.8
381.826	2.82
382.273	2.83
382.72	2.83
383.166	2.86
383.613	2.87
384.06	2.87
384.506	2.88
384.953	2.89
385.4	2.89
385.846	2.92
386.292	2.93
386.739	2.94
387.185	2.95
387.631	2.97
388.078	2.98
388.524	3
388.97	3.03
389.416	3.07
389.862	3.09
390.308	3.13
390.754	3.15
391.2	3.19
391.645	3.22
392.091	3.25
392.537	3.29
392.983	3.32
393.428	3.35
393.874	3.38
394.319	3.41
394.765	3.45
395.21	3.47
395.655	3.5
396.101	3.53
396.546	3.56
396.991	3.61
397.436	3.63
397.881	3.68
398.326	3.72
398.771	3.76
399.216	3.78
399.661	3.81
400.106	3.84
400.551	3.87
400.995	3.9
401.44	3.92
401.885	3.94
402.329	3.98
402.774	4.01
403.218	4.04
403.663	4.07
404.107	4.1
404.551	4.13
404.995	4.15
405.44	4.18
405.884	4.2
406.328	4.23
406.772	4.25
407.216	4.26
407.66	4.28
408.104	4.28
408.547	4.3
408.991	4.32
409.435	4.33
409.879	4.35
410.322	4.38
410.766	4.4
411.209	4.42
411.653	4.44
412.096	4.47
412.54	4.48
412.983	4.51
413.426	4.55
413.869	4.56
414.312	4.59
414.756	4.61
415.199	4.62
415.642	4.63
416.085	4.64
416.527	4.64
416.97	4.62
417.413	4.63
417.856	4.64
418.298	4.62
418.741	4.63
419.184	4.62
419.626	4.63
420.069	4.64
420.511	4.65
420.953	4.66
421.396	4.67
421.838	4.69
422.28	4.7
422.722	4.71
423.164	4.72
423.606	4.73
424.048	4.74
424.49	4.73
424.932	4.72
425.374	4.68
425.816	4.64
426.258	4.62
426.699	4.59
427.141	4.58
427.582	4.57
428.024	4.57
428.465	4.56
428.907	4.55
429.348	4.54
429.789	4.54
430.231	4.57
430.672	4.61
431.113	4.64
431.554	4.68
431.995	4.71
432.436	4.72
432.877	4.74
433.318	4.77
433.759	4.8
434.2	4.83
434.64	4.85
435.081	4.87
435.522	4.9
435.962	4.92
436.403	4.95
436.843	4.96
437.284	4.97
437.724	4.99
438.164	4.99
438.604	5.01
439.045	5.02
439.485	5.04
439.925	5.05
440.365	5.07
440.805	5.08
441.245	5.09
441.685	5.12
442.125	5.15
442.564	5.16
443.004	5.18
443.444	5.2
443.883	5.24
444.323	5.27
444.762	5.3
445.202	5.34
445.641	5.38
446.081	5.43
446.52	5.46
446.959	5.51
447.398	5.56
447.837	5.6
448.276	5.63
448.716	5.65
449.154	5.68
449.593	5.72
450.032	5.72
450.471	5.72
450.91	5.71
451.349	5.73
451.787	5.71
452.226	5.71
452.664	5.71
453.103	5.71
453.541	5.71
453.98	5.71
454.418	5.69
454.856	5.69
455.295	5.68
455.733	5.67
456.171	5.65
456.609	5.64
457.047	5.62
457.485	5.63
457.923	5.63
458.361	5.63
458.798	5.63
459.236	5.64
459.674	5.65
460.111	5.65
460.549	5.67
460.987	5.69
461.424	5.7
461.862	5.72
462.299	5.73
462.736	5.73
463.173	5.74
463.611	5.74
464.048	5.76
464.485	5.77
464.922	5.79
465.359	5.8
465.796	5.82
466.233	5.83
466.67	5.84
467.106	5.87
467.543	5.89
467.98	5.91
468.416	5.92
468.853	5.92
469.29	5.94
469.726	5.95
470.162	5.98
470.599	5.99
471.035	6
471.471	6
471.907	5.99
472.344	6
472.78	6.01
473.216	6.02
473.652	6.03
474.088	6.03
474.523	6.05
474.959	6.04
475.395	6.04
475.831	6.05
476.266	6.06
476.702	6.05
477.138	6.07
477.573	6.07
478.008	6.08
478.444	6.06
478.879	6.07
479.314	6.06
479.75	6.06
480.185	6.04
480.62	6.03
481.055	6.01
481.49	5.99
481.925	5.97
482.36	5.94
482.795	5.93
483.229	5.91
483.664	5.92
484.099	5.91
484.534	5.91
484.968	5.92
485.403	5.94
485.837	5.97
486.271	6
486.706	6.02
487.14	6.05
487.574	6.07
488.009	6.1
488.443	6.13
488.877	6.17
489.311	6.21
489.745	6.25
490.179	6.29
490.613	6.35
491.046	6.39
491.48	6.44
491.914	6.51
492.348	6.57
492.781	6.64
493.215	6.7
493.648	6.77
494.082	6.83
494.515	6.9
494.948	6.97
495.382	7.02
495.815	7.11
496.248	7.2
496.681	7.28
497.114	7.36
497.547	7.45
497.98	7.55
498.413	7.64
498.846	7.75
499.279	7.86
499.711	7.97
500.144	8.1
500.577	8.24
501.009	8.36
501.442	8.51
501.874	8.67
502.306	8.83
502.739	9
503.171	9.17
503.603	9.33
504.036	9.51
504.468	9.69
504.9	9.87
505.332	10.06
505.764	10.25
506.196	10.44
506.627	10.65
507.059	10.85
507.491	11.05
507.923	11.26
508.354	11.49
508.786	11.71
509.217	11.95
509.649	12.18
510.08	12.42
510.512	12.67
510.943	12.92
511.374	13.17
511.805	13.42
512.237	13.65
512.668	13.89
513.099	14.13
513.53	14.38
513.961	14.62
514.391	14.87
514.822	15.14
515.253	15.41
515.684	15.68
516.114	15.96
516.545	16.24
516.975	16.55
517.406	16.86
517.836	17.16
518.267	17.47
518.697	17.76
519.127	18.04
519.558	18.33
519.988	18.6
520.418	18.87
520.848	19.12
521.278	19.38
521.708	19.69
522.138	19.91
522.567	20.13
522.997	20.33
523.427	20.55
523.857	20.78
524.286	20.99
524.716	21.2
525.145	21.42
525.575	21.62
526.004	21.83
526.433	21.96
526.863	22.16
527.292	22.36
527.721	22.56
528.15	22.74
528.579	22.88
529.008	23.02
529.437	23.14
529.866	23.26
530.295	23.37
530.724	23.49
531.152	23.6
531.581	23.72
532.01	23.81
532.438	23.91
532.867	24
533.295	24.1
533.723	24.19
534.152	24.27
534.58	24.35
535.008	24.4
535.436	24.46
535.865	24.49
536.293	24.53
536.721	24.57
537.149	24.61
537.576	24.67
538.004	24.72
538.432	24.75
538.86	24.81
539.287	24.85
539.715	24.93
540.143	24.98
540.57	25.03
540.998	25.09
541.425	25.15
541.852	25.2
542.28	25.25
542.707	25.3
543.134	25.35
543.561	25.4
543.988	25.45
544.415	25.47
544.842	25.51
545.269	25.56
545.696	25.59
546.123	25.63
546.549	25.68
546.976	25.7
547.403	25.73
547.829	25.75
548.256	25.77
548.682	25.79
549.108	25.83
549.535	25.86
549.961	25.88
550.387	25.9
550.813	25.92
551.24	25.91
551.666	25.92
552.092	25.91
552.518	25.92
552.943	25.89
553.369	25.87
553.795	25.83
554.221	25.77
554.646	25.72
555.072	25.66
555.498	25.58
555.923	25.53
556.349	25.48
556.774	25.43
557.199	25.38
557.625	25.33
558.05	25.26
558.475	25.21
558.9	25.16
559.325	25.11
559.75	25.05
560.175	24.98
560.6	24.9
561.025	24.81
561.449	24.72
561.874	24.61
562.299	24.51
562.723	24.41
563.148	24.3
563.572	24.17
563.997	24.05
564.421	23.92
564.846	23.8
565.27	23.67
565.694	23.55
566.118	23.42
566.542	23.29
566.966	23.16
567.39	23.04
567.814	22.92
568.238	22.82
568.662	22.7
569.086	22.6
569.509	22.5
569.933	22.39
570.357	22.28
570.78	22.18
571.204	22.08
571.627	21.98
572.05	21.87
572.474	21.77
572.897	21.67
573.32	21.56
573.743	21.44
574.166	21.33
574.589	21.22
575.012	21.11
575.435	21
575.858	20.9
576.281	20.8
576.704	20.7
577.126	20.6
577.549	20.51
577.972	20.42
578.394	20.34
578.817	20.27
579.239	20.2
579.661	20.15
580.084	20.08
580.506	20.02
580.928	19.96
581.35	19.91
581.772	19.83
582.194	19.76
582.616	19.71
583.038	19.64
583.46	19.55
583.882	19.47
584.303	19.38
584.725	19.29
585.147	19.2
585.568	19.12
585.99	19.02
586.411	18.94
586.833	18.88
587.254	18.8
587.675	18.75
588.096	18.7
588.518	18.64
588.939	18.61
589.36	18.57
589.781	18.53
590.202	18.5
590.623	18.48
591.043	18.45
591.464	18.42
591.885	18.37
592.305	18.32
592.726	18.29
593.147	18.25
593.567	18.21
593.987	18.17
594.408	18.13
594.828	18.08
595.248	18.04
595.669	18
596.089	17.95
596.509	17.91
596.929	17.87
597.349	17.82
597.769	17.77
598.189	17.73
598.608	17.69
599.028	17.66
599.448	17.63
599.867	17.58
600.287	17.55
600.706	17.51
601.126	17.48
601.545	17.43
601.965	17.39
602.384	17.36
602.803	17.31
603.222	17.27
603.641	17.21
604.061	17.15
604.48	17.08
604.898	17.01
605.317	16.95
605.736	16.89
606.155	16.83
606.574	16.76
606.992	16.69
607.411	16.62
607.829	16.5
608.248	16.43
608.666	16.35
609.085	16.27
609.503	16.2
609.921	16.12
610.339	16.03
610.758	15.95
611.176	15.86
611.594	15.78
612.012	15.7
612.43	15.65
612.847	15.57
613.265	15.49
613.683	15.43
614.101	15.36
614.518	15.27
614.936	15.21
615.353	15.13
615.771	15.08
616.188	15.01
616.606	14.96
617.023	14.91
617.44	14.85
617.857	14.81
618.274	14.74
618.691	14.67
619.108	14.63
619.525	14.59
619.942	14.54
620.359	14.5
620.776	14.45
621.192	14.4
621.609	14.35
622.026	14.31
622.442	14.28
622.859	14.26
623.275	14.25
623.691	14.21
624.108	14.2
624.524	14.17
624.94	14.15
625.356	14.13
625.772	14.13
626.188	14.12
626.604	14.1
627.02	14.07
627.436	14.07
627.852	14.05
628.268	14.04
628.683	14.03
629.099	14.03
629.514	14.02
629.93	14
630.345	13.97
630.761	13.93
631.176	13.91
631.591	13.87
632.007	13.82
632.422	13.78
632.837	13.73
633.252	13.67
633.667	13.58
634.082	13.52
634.497	13.46
634.911	13.39
635.326	13.32
635.741	13.23
636.155	13.13
636.57	13.04
636.984	12.93
637.399	12.82
637.813	12.71
638.228	12.6
638.642	12.45
639.056	12.31
639.47	12.18
639.884	12.04
640.298	11.9
640.712	11.77
641.126	11.63
641.54	11.49
641.954	11.35
642.368	11.21
642.781	11.08
643.195	10.95
643.609	10.82
644.022	10.69
644.436	10.57
644.849	10.44
645.262	10.33
645.676	10.21
646.089	10.11
646.502	10.02
646.915	9.94
647.328	9.86
647.741	9.78
648.154	9.7
648.567	9.64
648.98	9.57
649.393	9.52
649.805	9.47
650.218	9.42
650.631	9.37
651.043	9.3
651.456	9.24
651.868	9.17
652.28	9.11
652.693	9.06
653.105	9
653.517	8.92
653.929	8.86
654.341	8.79
654.753	8.72
655.165	8.64
655.577	8.57
655.989	8.48
656.401	8.41
656.813	8.33
657.224	8.24
657.636	8.14
658.047	8.06
658.459	7.96
658.87	7.85
659.282	7.73
659.693	7.62
660.104	7.5
660.515	7.39
660.926	7.26
661.338	7.14
661.749	7.04
662.159	6.93
662.57	6.81
662.981	6.7
663.392	6.6
663.803	6.5
664.213	6.39
664.624	6.31
665.035	6.21
665.445	6.14
665.855	6.07
666.266	6
666.676	5.94
667.086	5.87
667.497	5.81
667.907	5.75
668.317	5.7
668.727	5.66
669.137	5.61
669.547	5.57
669.956	5.53
670.366	5.5
670.776	5.46
671.186	5.43
671.595	5.41
672.005	5.39
672.414	5.37
672.824	5.36
673.233	5.35
673.642	5.35
674.052	5.34
674.461	5.33
674.87	5.34
675.279	5.36
675.688	5.37
676.097	5.4
676.506	5.42
676.915	5.44
677.323	5.47
677.732	5.51
678.141	5.55
678.549	5.59
678.958	5.66
679.366	5.73
679.775	5.79
680.183	5.89
680.592	5.99
681	6.12
681.408	6.26
681.816	6.41
682.224	6.58
682.632	6.76
683.04	6.96
683.448	7.17
683.856	7.4
684.264	7.65
684.671	7.93
685.079	8.22
685.487	8.54
685.894	8.87
686.302	9.23
686.709	9.62
687.116	10.03
687.524	10.48
687.931	10.93
688.338	11.4
688.745	11.87
689.152	12.36
689.559	12.88
689.966	13.39
690.373	13.91
690.78	14.44
691.187	14.95
691.593	15.47
692	15.98
692.407	16.49
692.813	17.01
693.22	17.52
693.626	18.01
694.032	18.5
694.439	18.98
694.845	19.45
695.251	19.92
695.657	20.4
696.063	20.85
696.469	21.28
696.875	21.71
697.281	22.13
697.687	22.56
698.093	22.97
698.498	23.34
698.904	23.73
699.31	24.1
699.715	24.47
700.12	24.82
700.526	25.16
700.931	25.52
701.337	25.84
701.742	26.15
702.147	26.44
702.552	26.73
702.957	27.02
703.362	27.3
703.767	27.55
704.172	27.8
704.577	28.03
704.981	28.28
705.386	28.53
705.791	28.76
706.195	28.98
706.6	29.21
707.004	29.42
707.408	29.65
707.813	29.86
708.217	30.08
708.621	30.29
709.025	30.49
709.43	30.68
709.834	30.85
710.237	31.04
710.641	31.22
711.045	31.37
711.449	31.56
711.853	31.74
712.256	31.89
712.66	32.02
713.064	32.14
713.467	32.27
713.87	32.4
714.274	32.5
714.677	32.62
715.08	32.71
715.484	32.82
715.887	32.92
716.29	32.98
716.693	33.08
717.096	33.21
717.499	33.35
717.901	33.49
718.304	33.6
718.707	33.72
719.109	33.82
719.512	33.95
719.915	34.07
720.317	34.18
720.719	34.29
721.122	34.4
721.524	34.49
721.926	34.56
722.328	34.63
722.731	34.71
723.133	34.81
723.535	34.9
723.937	34.96
724.338	35.01
724.74	35.07
725.142	35.22
725.544	35.26
725.945	35.36
726.347	35.42
726.748	35.48
727.15	35.53
727.551	35.59
727.952	35.63
728.354	35.7
728.755	35.77
729.156	35.82
729.557	35.8
729.958	35.84
730.359	35.87
730.76	35.92
731.161	35.97
731.562	36.03
731.962	36.06
732.363	36.13
732.763	36.15
733.164	36.18
733.564	36.23
733.965	36.27
734.365	36.33
734.766	36.33
735.166	36.36
735.566	36.37
735.966	36.41
736.366	36.45
736.766	36.45
737.166	36.49
737.566	36.52
737.966	36.54
738.365	36.56
738.765	36.58
739.165	36.62
739.564	36.64
739.964	36.66
740.363	36.65
740.763	36.67
741.162	36.69
741.561	36.67
741.96	36.65
742.36	36.67
742.759	36.68
743.158	36.67
743.557	36.67
743.955	36.67
744.354	36.69
744.753	36.7
745.152	36.71
745.55	36.72
745.949	36.75
746.348	36.79
746.746	36.79
747.144	36.8
747.543	36.81
747.941	36.81
748.339	36.78
748.737	36.77
749.136	36.76
749.534	36.73
749.932	36.71
750.33	36.7
750.727	36.71
751.125	36.69
751.523	36.67
751.921	36.66
752.318	36.67
752.716	36.68
753.113	36.67
753.511	36.68
753.908	36.72
754.305	36.74
754.703	36.73
755.1	36.67
755.497	36.58
755.894	36.48
756.291	36.33
756.688	36.16
757.085	36.03
757.482	35.89
757.878	35.75
758.275	35.6
758.672	35.44
759.068	35.34
759.465	35.23
759.861	35.19
760.258	35.18
760.654	35.23
761.05	35.3
761.447	35.36
761.843	35.4
762.239	35.48
762.635	35.54
763.031	35.65
763.427	35.72
763.822	35.84
764.218	35.98
764.614	36.09
765.01	36.17
765.405	36.26
765.801	36.31
766.196	36.4
766.592	36.45
766.987	36.51
767.382	36.53
767.778	36.56
768.173	36.59
768.568	36.57
768.963	36.56
769.358	36.58
769.753	36.58
770.148	36.59
770.542	36.57
770.937	36.58
771.332	36.57
771.726	36.56
772.121	36.55
772.515	36.55
772.91	36.54
773.304	36.56
773.699	36.55
774.093	36.55
774.487	36.56
774.881	36.57
775.275	36.53
775.669	36.54
776.063	36.55
776.457	36.55
776.851	36.52
777.245	36.5
777.638	36.49
778.032	36.51
778.425	36.53
778.819	36.51
779.212	36.52
779.606	36.53
779.999	36.51
780.392	36.47
780.786	36.43
781.179	36.44
781.572	36.46
781.965	36.45
782.358	36.41
782.751	36.39
783.143	36.37
783.536	36.35
783.929	36.33
784.322	36.34
784.714	36.38
785.107	36.41
785.499	36.38
785.891	36.37
786.284	36.35
786.676	36.34
787.068	36.31
787.46	36.31
787.852	36.29
788.245	36.3
788.636	36.25
789.028	36.22
789.42	36.19
789.812	36.18
790.204	36.15
790.595	36.14
790.987	36.12
791.378	36.13
791.77	36.12
792.161	36.09
792.553	36.08
792.944	36.07
793.335	36.09
793.726	36.09
794.117	36.09
794.508	36.09
794.899	36.08
795.29	36.08
795.681	36.04
796.072	36
796.463	36.02
796.853	36
797.244	35.99
797.634	35.94
798.025	35.93
798.415	35.9
798.806	35.87
799.196	35.85
799.586	35.84
799.976	35.83
800.366	35.85
800.756	35.82
801.146	35.82
801.536	35.83
801.926	35.82
802.316	35.8
802.706	35.8
803.095	35.8
803.485	35.8
803.874	35.79
804.264	35.77
804.653	35.78
805.043	35.77
805.432	35.75
805.821	35.74
806.21	35.71
806.599	35.69
806.988	35.68
807.377	35.66
807.766	35.63
808.155	35.6
808.544	35.6
808.933	35.56
809.321	35.54
809.71	35.52
810.098	35.48
810.487	35.46
810.875	35.44
811.264	35.42
811.652	35.42
812.04	35.39
812.428	35.38
812.816	35.33
813.204	35.3
813.592	35.25
813.98	35.22
814.368	35.2
814.756	35.18
815.144	35.15
815.531	35.1
815.919	35.06
816.306	35.04
816.694	35.01
817.081	35.03
817.469	35.04
817.856	35.03
818.243	35.01
818.63	34.99
819.017	34.98
819.404	34.96
819.791	34.96
820.178	34.99
820.565	34.98
820.952	34.96
821.339	34.92
821.725	34.92
822.112	34.94
822.498	34.95
822.885	34.99
823.271	34.98
823.657	34.96
824.044	34.96
824.43	34.93
824.816	34.93
825.202	34.92
825.588	34.91
825.974	34.89
826.36	34.87
826.746	34.84
827.132	34.8
827.517	34.81
827.903	34.84
828.289	34.85
828.674	34.83
829.06	34.84
829.445	34.83
829.83	34.84
830.216	34.84
830.601	34.83
830.986	34.85
831.371	34.85
831.756	34.84
832.141	34.81
832.526	34.8
832.911	34.8
833.295	34.78
833.68	34.78
834.065	34.79
834.449	34.79
834.834	34.77
835.218	34.77
835.603	34.76
835.987	34.75
836.371	34.75
836.755	34.75
837.139	34.74
837.524	34.75
837.908	34.76
838.291	34.75
838.675	34.75
839.059	34.76
839.443	34.74
839.827	34.74
840.21	34.73
840.594	34.76
840.977	34.74
841.361	34.75
841.744	34.73
842.127	34.7
842.511	34.7
842.894	34.69
843.277	34.66
843.66	34.65
844.043	34.66
844.426	34.64
844.809	34.6
845.191	34.62
845.574	34.61
845.957	34.61
846.339	34.62
846.722	34.61
847.104	34.62
847.487	34.63
847.869	34.63
848.252	34.61
848.634	34.63
849.016	34.64
849.398	34.63
849.78	34.64
850.162	34.61
850.544	34.58
850.926	34.59
851.307	34.59
851.689	34.58
852.071	34.57
852.452	34.56
852.834	34.55
853.215	34.55
853.597	34.54
853.978	34.55
854.359	34.57
854.741	34.57
855.122	34.56
855.503	34.53
855.884	34.55
856.265	34.57
856.646	34.57
857.026	34.57
857.407	34.58
857.788	34.56
858.169	34.56
858.549	34.54
858.93	34.55
859.31	34.56
859.69	34.57
860.071	34.57
860.451	34.55
860.831	34.56
861.211	34.55
861.591	34.53
861.971	34.54
862.351	34.55
862.731	34.56
863.111	34.54
863.491	34.53
863.87	34.51
864.25	34.49
864.629	34.5
865.009	34.49
865.388	34.49
865.768	34.49
866.147	34.47
866.526	34.46
866.905	34.45
867.284	34.46
867.663	34.46
868.042	34.48
868.421	34.5
868.8	34.48
869.179	34.48
869.558	34.47
869.936	34.47
870.315	34.48
870.693	34.49
871.072	34.5
871.45	34.51
871.828	34.51
872.207	34.51
872.585	34.51
872.963	34.5
873.341	34.49
873.719	34.49
874.097	34.49
874.475	34.49
874.853	34.47
875.23	34.47
875.608	34.46
875.986	34.5
876.363	34.49
876.741	34.51
877.118	34.54
877.495	34.54
877.873	34.55
878.25	34.55
878.627	34.58
879.004	34.58
879.381	34.58
879.758	34.54
880.135	34.51
880.512	34.5
880.889	34.49
881.265	34.46
881.642	34.47
882.019	34.48
882.395	34.46
882.772	34.45
883.148	34.43
883.524	34.42
883.901	34.45
884.277	34.43
884.653	34.42
885.029	34.4
885.405	34.41
885.781	34.4
886.157	34.4
886.532	34.41
886.908	34.39
887.284	34.4
887.659	34.39
888.035	34.37
888.411	34.37
888.786	34.38
889.161	34.39
889.537	34.39
889.912	34.39
890.287	34.36
890.662	34.34
891.037	34.35
891.412	34.34
891.787	34.34
892.162	34.35
892.536	34.35
892.911	34.34
893.286	34.34
893.66	34.34
894.035	34.33
894.409	34.34
894.784	34.34
895.158	34.32
895.532	34.34
895.906	34.32
896.281	34.3
896.655	34.29
897.029	34.28
897.402	34.28
897.776	34.27
898.15	34.26
898.524	34.28
898.898	34.28
899.271	34.29
899.645	34.31
900.018	34.34
900.392	34.35
900.765	34.37
901.138	34.37
901.511	34.37
901.884	34.38
902.258	34.4
902.631	34.4
903.003	34.42
903.376	34.42
903.749	34.4
904.122	34.4
904.495	34.41
904.867	34.4
905.24	34.4
905.612	34.42
905.985	34.41
906.357	34.39
906.729	34.4
907.102	34.37
907.474	34.36
907.846	34.36
908.218	34.36
908.59	34.35
908.962	34.37
909.334	34.39
909.705	34.36
910.077	34.36
910.449	34.36
910.82	34.33
911.192	34.33
911.563	34.33
911.935	34.33
912.306	34.34
912.677	34.33
913.048	34.31
913.419	34.26
913.79	34.28
914.161	34.28
914.532	34.26
914.903	34.28
915.274	34.28
915.645	34.3
916.015	34.31
916.386	34.3
916.756	34.29
917.127	34.28
917.497	34.31
917.868	34.32
918.238	34.3
918.608	34.33
918.978	34.33
919.348	34.33
919.718	34.31
920.088	34.3
920.458	34.29
920.828	34.31
921.198	34.33
921.567	34.32
921.937	34.32
922.306	34.33
922.676	34.33
923.045	34.32
923.415	34.31
923.784	34.32
924.153	34.34
924.522	34.33
924.891	34.31
925.26	34.31
925.629	34.33
925.998	34.31
926.367	34.31
926.736	34.31
927.104	34.32
927.473	34.28
927.842	34.25
928.21	34.29
928.578	34.29
928.947	34.3
929.315	34.3
929.683	34.27
930.051	34.24
930.42	34.24
930.788	34.21
931.156	34.19
931.523	34.2
931.891	34.24
932.259	34.18
932.627	34.19
932.994	34.18
933.362	34.16
933.729	34.2
934.097	34.23
934.464	34.27
934.831	34.27
935.199	34.31
935.566	34.37
935.933	34.31
936.3	34.33
936.667	34.32
937.034	34.36
937.401	34.39
937.767	34.38
938.134	34.37
938.501	34.39
938.867	34.43
939.234	34.41
939.6	34.4
939.967	34.44
940.333	34.41
940.699	34.46
941.065	34.37
941.431	34.35
941.798	34.35
942.163	34.31
942.529	34.26
942.895	34.26
943.261	34.21
943.627	34.18
943.992	34.15
944.358	34.17
944.723	34.11
945.089	34.08
945.454	34.07
945.82	34.06
946.185	34.05
946.55	34
946.915	33.97
947.28	33.97
947.645	33.97
948.01	33.97
948.375	33.92
948.74	33.92
949.104	33.98
949.469	33.98
949.834	33.9
950.198	33.93
950.562	33.95
950.927	33.92
951.291	33.9
951.655	33.89
952.02	33.9
952.384	33.89
952.748	33.9
953.112	33.9
953.476	33.85
953.839	33.85
954.203	33.84
954.567	33.77
954.931	33.72
955.294	33.72
955.658	33.77
956.021	33.75
956.385	33.71
956.748	33.7
957.111	33.67
957.474	33.67
957.837	33.64
958.2	33.62
958.563	33.67
958.926	33.68
959.289	33.69
959.652	33.67
960.015	33.69
960.377	33.72
960.74	33.72
961.102	33.72
961.465	33.8
961.827	33.87
962.189	33.87
962.552	33.84
962.914	33.85
963.276	33.85
963.638	33.79
964	33.78
964.362	33.8
964.724	33.79
965.085	33.83
965.447	33.76
965.809	33.72
966.17	33.72
966.532	33.7
966.893	33.75
967.255	33.73
967.616	33.75
967.977	33.73
968.338	33.69
968.699	33.71
969.061	33.72
969.421	33.75
969.782	33.8
970.143	33.81
970.504	33.89
970.865	33.88
971.225	33.88
971.586	33.87
971.946	33.89
972.307	33.88
972.667	33.85
973.027	33.81
973.388	33.78
973.748	33.76
974.108	33.84
974.468	33.78
974.828	33.83
975.188	33.84
975.548	33.84
975.907	33.81
976.267	33.81
976.627	33.84
976.986	33.79
977.346	33.82
977.705	33.83
978.064	33.8
978.424	33.84
978.783	33.71
979.142	33.72
979.501	33.77
979.86	33.85
980.219	33.87
980.578	33.83
980.937	33.89
981.296	33.84
981.654	33.83
982.013	33.82
982.371	33.83
982.73	33.94
983.088	33.94
983.447	33.9
983.805	33.86
984.163	33.87
984.521	33.88
984.879	33.78
985.237	33.8
985.595	33.81
985.953	33.8
986.311	33.75
986.669	33.71
987.026	33.73
987.384	33.79
987.741	33.71
988.099	33.74
988.456	33.72
988.814	33.88
989.171	33.89
989.528	33.89
989.885	33.91
990.242	33.93
990.599	33.96
990.956	33.96
991.313	33.97
991.67	34.08
992.027	34.21
992.383	34.25
992.74	34.32
993.096	34.34
993.453	34.34
993.809	34.35
994.165	34.42
994.522	34.4
994.878	34.42
995.234	34.32
995.59	34.29
995.946	34.11
996.302	34.13
996.658	34.07
997.013	34.02
997.369	34.11
997.725	34.1
998.08	34.13
998.436	34.21
998.791	34.21
999.147	34.29
999.502	34.39
999.857	34.52
1000.212	34.45
1000.567	34.47
1000.922	34.47
1001.277	34.49
1001.632	34.37
1001.987	34.26
1002.342	34.16
1002.696	34.22
1003.051	34.31
1003.406	34.37
1003.76	34.37
1004.114	34.44
1004.469	34.35
1004.823	34.6
1005.177	34.47
1005.531	34.53
1005.885	34.64
1006.239	34.72
1006.593	34.73
1006.947	34.66
1007.301	34.46
1007.655	34.26
1008.008	34.41
1008.362	34.64
1008.715	34.57
1009.069	34.73
1009.422	34.98
1009.776	34.91
1010.129	34.96
1010.482	34.99
1010.835	34.97
1011.188	35.22
1011.541	35.5
1011.894	35.46
1012.247	35.42
1012.6	35.32
1012.952	35.28
1013.305	35.28
1013.657	35.47
1014.01	35.52
1014.362	35.43
1014.715	35.61
1015.067	35.51
1015.419	35.51
1015.771	35.46
1016.123	35.5
1016.475	35.52
1016.827	35.57
1017.179	35.57
1017.531	35.66
1017.883	35.7
1018.234	35.85
1018.586	35.97
1018.938	36.19
1019.289	36.22
1019.64	36.22
1019.992	36.38
1020.343	36.38
1020.694	36.37
1021.045	36.27
1021.396	36.2
1021.747	36.39
1022.098	36.4
1022.449	36.19
1022.8	36.12
1023.151	36.06
1023.501	36.27
1023.852	36.09
1024.202	36.01
1024.553	35.92
1024.903	35.97
1025.253	36.09
1025.604	35.92
1025.954	35.84
1026.304	35.94
1026.654	35.95
1027.004	36.22
1027.354	36.09
1027.703	36.05
1028.053	36.33
1028.403	36.69
1028.753	36.63
1029.102	36.54
1029.452	36.43
1029.801	36.45
1030.15	36.42
1030.499	36.36
897.758	1187.88
901.051	1193.8
904.343	1188.35
907.636	1210.45
910.928	1178.51
914.22	1180.86
917.511	1165.09
920.803	1110.38
924.094	1104.77
927.384	1079.21
930.675	1032.58
933.965	1027.71
937.255	966.93
940.544	929.16
943.834	886.36
947.123	879.6
950.411	826.58
953.7	812.23
956.988	772.93
960.276	742.1
963.563	731.04
966.851	708.86
970.138	701.8
973.424	681.49
976.711	683.99
979.997	649.13
983.283	644.29
986.568	631.49
989.853	611.65
993.138	598.21
996.423	578.37
999.708	560.23
1002.992	551.76
1006.275	528.48
1009.559	523.39
1012.842	505.98
1016.125	493.24
1019.408	484.76
1022.69	477.1
1025.972	467.8
1029.254	458.62
1032.536	450.09
1035.817	441.38
1039.098	437.34
1042.379	426.98
1045.659	422.93
1048.939	412.9
1052.219	404.67
1055.498	398.1
1058.778	389.78
1062.057	381.44
1065.335	376.65
1068.614	371.79
1071.892	368.36
1075.17	356.19
1078.447	350.64
1081.724	347.46
1085.001	344.63
1088.278	337.61
1091.554	331.31
1094.83	331.47
1098.106	329.12
1101.382	326.73
1104.657	325.15
1107.932	319.3
1111.206	321.54
1114.481	313.08
1117.755	310.4
1121.029	307.5
1124.302	308.16
1127.575	301.79
1130.848	298.49
1134.121	295.09
1137.393	293.08
1140.665	286.72
1143.937	285.35
1147.208	283.28
1150.48	283.1
1153.75	279.72
1157.021	275.32
1160.291	274.72
1163.561	272.85
1166.831	272.24
1170.101	269.61
1173.37	269.44
1176.639	270.35
1179.907	266.82
1183.176	263.4
1186.444	263.67
1189.711	262.75
1192.979	262.82
1196.246	260.62
1199.513	261.73
1202.78	260.44
1206.046	260.72
1209.312	258.39
1212.578	258.37
1215.843	261.73
1219.108	260.27
1222.373	264.8
1225.638	266.88
1228.902	271.15
1232.166	270.85
1235.43	272.72
1238.693	276.1
1241.956	277.67
1245.219	281.88
1248.482	281.7
1251.744	281.35
1255.006	281.39
1258.268	274.93
1261.529	272.73
1264.79	270.47
1268.051	270.26
1271.312	266.1
1274.572	263.86
1277.832	260.9
1281.092	256.35
1284.351	254.65
1287.61	254.56
1290.869	251.87
1294.128	250.82
1297.386	249.67
1300.644	246.47
1303.902	247.09
1307.159	246.97
1310.416	246.29
1313.673	245.98
1316.93	249.2
1320.186	248.63
1323.442	249.18
1326.697	252.87
1329.953	253.69
1333.208	255.27
1336.463	258.23
1339.717	258.18
1342.972	261.26
1346.226	263.25
1349.479	264.45
1352.733	265.64
1355.986	266.71
1359.238	266.26
1362.491	267.93
1365.743	270.19
1368.995	269.58
1372.247	268.22
1375.498	268.25
1378.749	269.96
1382	266.82
1385.251	267.72
1388.501	264.79
1391.751	265.77
1395	264.88
1398.25	262.77
1401.499	260.08
1404.748	260.11
1407.996	259.23
1411.244	258.13
1414.492	256.08
1417.74	253.24
1420.987	248.99
1424.234	249.06
1427.481	246.24
1430.728	245.45
1433.974	243.62
1437.22	241.31
1440.465	240.54
1443.711	238.1
1446.956	236.07
1450.201	233.44
1453.445	231.81
1456.689	231.27
1459.933	227.43
1463.177	225.07
1466.42	221.49
1469.663	218.47
1472.906	217.82
1476.148	212.47
1479.391	209.98
1482.633	208.42
1485.874	205.19
1489.115	203.63
1492.356	201.37
1495.597	201.04
1498.838	198.32
1502.078	198.13
1505.318	197.29
1508.557	197.04
1511.797	196.96
1515.036	195.6
1518.274	194.85
1521.513	193.22
1524.751	193.06
1527.989	192.44
1531.227	191.8
1534.464	192.27
1537.701	190.45
1540.938	190.11
1544.174	187.81
1547.41	187.78
1550.646	186.75
1553.882	187.09
1557.117	185.02
1560.352	184.46
1563.587	183.9
1566.821	182.52
1570.055	181.48
1573.289	180.65
1576.523	180.28
1579.756	179.25
1582.989	178.18
1586.222	178.07
1589.454	177.43
1592.686	178.71
1595.918	177.31
1599.15	176.97
1602.381	177.9
1605.612	177.3
1608.843	177.48
1612.073	177.52
1615.303	178.61
1618.533	178.58
1621.762	178.44
1624.992	178.31
1628.221	178.18
1631.449	178.53
1634.678	178.39
1637.906	178.51
1641.134	178.84
1644.361	178.84
1647.588	179.43
1650.815	178.54
1654.042	177.84
1657.269	179.25
1660.495	179.23
1663.72	178.57
1666.946	179.35
1670.171	179.67
1673.396	179.05
1676.621	179.15
1679.845	179.51
1683.069	179.05
1686.293	180.23
1689.517	181.64
1692.74	181.29
1695.963	181.92
1699.185	183.8
1702.408	183.62
1705.63	184.56
1708.852	185.24
1712.073	185.26
1715.294	185.76
1718.515	186.72
1721.736	186.52
1724.956	186.92
1728.176	186.79
1731.396	187.79
1734.616	186.99
1737.835	187.74
1741.054	185.74
1744.272	186.84
1747.491	188.56
1750.709	188.26
1753.927	188.43
1757.144	187.54
1760.361	187.8
1763.578	188.77
1766.795	188.34
1770.011	189.39
1773.227	189.5
1776.443	192.24
1779.658	192.15
1782.874	191.56
1786.089	192.75
1789.303	192.86
1792.518	195.74
1795.732	195.64
1798.945	196.77
1802.159	197.33
1805.372	198.18
1808.585	201.11
1811.797	201.97
1815.01	202.34
1818.222	204.03
1821.434	204.98
1824.645	205.8
1827.856	208.79
1831.067	210.48
1834.278	210.02
1837.488	211.67
1840.698	213.08
1843.908	211.24
1847.117	211.77
1850.326	213.16
1853.535	211.78
1856.744	215.29
1859.952	214.53
1863.16	213.08
1866.368	211.74
1869.575	213.68
1872.782	209.78
1875.989	208.79
1879.196	207.16
1882.402	205.73
1885.608	205.85
1888.814	206.68
1892.019	205.45
1895.224	205.5
1898.429	204.05
1901.634	204.54
1904.838	204.68
1908.042	207.1
1911.246	207.02
1914.449	208.88
1917.652	208.87
1920.855	208.65
1924.058	208.92
1927.26	207.69
1930.462	207.68
1933.664	210.47
1936.865	208.57
1940.066	208.46
1943.267	207.11
1946.467	206.89
1949.668	208.28
1952.868	210.75
1956.067	211.03
1959.267	210.44
1962.466	211.34
1965.665	210.58
1968.863	210.38
1972.061	214.4
1975.259	215.63
1978.457	217.33
1981.654	219.6
1984.852	220.2
1988.048	219.21
1991.245	221.28
1994.441	223.94
1997.637	225.29
2000.833	230.46
2004.028	233.88
2007.223	234.85
2010.418	237.14
2013.613	240.34
2016.807	243.28
2020.001	244.7
2023.194	249.26
2026.388	254.94
2029.581	260.67
2032.774	263.43
2035.966	267.37
2039.158	267.68
2042.35	273.74
2045.542	274.35
2048.733	279.73
2051.924	282.65
2055.115	288.8
2058.306	288.43
2061.496	290.74
2064.686	290.28
2067.875	294.97
2071.065	296.61
2074.254	295.5
2077.442	297.21
2080.631	300.61
2083.819	303.46
2087.007	304.39
2090.195	306.51
2093.382	309.71
2096.569	308.08
2099.756	313.22
2102.942	314.61
2106.128	317.53
2109.314	324.68
2112.5	324.08
2115.685	330.88
2118.87	330.58
2122.055	338.6
2125.239	341.09
2128.424	345.2
2131.608	348.53
2134.791	353.6
2137.974	354.81
2141.157	355.61
2144.34	356.78
2147.523	362.06
2150.705	359.51
2153.887	363.73
2157.068	362.76
2160.25	361.05
2163.431	361.79
2166.611	366.06
2169.792	372.83
2172.972	377.66
2176.152	379.49
2179.331	383.96
2182.511	390.83
2185.69	394.44
2188.868	402.44
2192.047	403.61
2195.225	414.7
2198.403	423.5
2201.58	430.2
2204.758	437.5
2207.935	446.32
2211.111	454.83
2214.288	460.81
2217.464	461.63
2220.64	470.39
2223.815	475.97
2226.991	493.23
2230.166	493.05
2233.34	503.96
2236.515	512.92
2239.689	512.83
2242.863	514.78
2246.036	529.6
2249.209	525.74
2252.382	534.53
2255.555	550.62
2258.727	551.99
2261.9	556.52
2265.071	561.91
2268.243	572.36
2271.414	576.86
2274.585	590.23
2277.756	596.69
2280.926	599.58
2284.096	614.39
2287.266	626.45
2290.436	628.39
2293.605	644.7
2296.774	663.46
2299.942	684.34
2303.111	688.06
2306.279	704.01
2309.447	712.1
2312.614	730.53
2315.781	753.54
2318.948	783.38
2322.115	773.81
2325.281	816.74
2328.447	801.89
2331.613	830.37
2334.779	823.19
2337.944	856.57
2341.109	863.82
2344.274	891.3
2347.438	917.75
2350.602	914.95
2353.766	948.39
2356.929	962.52
2360.092	953.57
2363.255	1018.62
2366.418	1022.73
2369.58	1041.93
2372.742	1103.4
2375.904	1135.39
2379.066	1126.89
2382.227	1110.14
2385.388	1204.77
2388.548	1204.12
2391.709	1217.43
2394.869	1359.94
2398.029	1298.64
2401.188	1333.77
2404.347	1322.76
2407.506	1306.16
2410.665	1340.22
2413.823	1418.34
2416.981	1501.75
2420.139	1452.23
2423.296	1438.73
2426.453	1504.03
2429.61	1444.46
2432.767	1513.94
2435.923	1498.21
2439.079	1638.67
2442.235	1656.35
2445.391	1643.3
2448.546	1629.81
2451.701	1580.7
2454.855	1580.92
2458.009	1670.37
2461.163	1737.21
2464.317	1801.69
2467.471	1847.73
2470.624	1848.58
2473.777	1800.23
2476.929	1759.57
2480.082	1709.73
2483.234	1693.9
2486.385	1777.26
2489.537	1787.97
2492.688	1854.39
2495.839	1802.6
2498.989	1763.3
2502.14	1773.49
2505.29	1788.6
2508.439	1823.33
2511.589	1816.96
2514.738	1977.35
2517.887	1932.18
2521.035	2042.15
2524.183	2058.11
2527.331	2075.34
2530.479	2067.71
2533.627	2083.22
