Data from C_1_DIV_IL_4n_Splice17_12-39-36-315.txt Node
Date: Sat Mar 07 12:39:36 EST 2020
User: sa697716
Spectrometer: NQ5500242
Trigger mode: 0
Integration Time (sec): 1.450000E-1
Scans to average: 20
Nonlinearity correction enabled: false
Boxcar width: 5
Storing dark spectrum: false
XAxis mode: Wavelengths
Number of Pixels in Spectrum: 512
>>>>>Begin Spectral Data<<<<<
187.83	117.62
188.298	146.2
188.766	126.1
189.233	115.73
189.701	128.49
190.169	147.48
190.636	180.79
191.104	226.75
191.571	45.91
192.039	-168.05
192.506	-312.82
192.974	205.03
193.441	335.32
193.908	151.2
194.375	164.99
194.842	132.1
195.31	188.02
195.777	416.58
196.244	56.23
196.711	39.84
197.177	40.7
197.644	39.95
198.111	40.15
198.578	40.66
199.045	40.68
199.511	40.21
199.978	40.45
200.445	40.45
200.911	40.56
201.378	40.75
201.844	40.8
202.31	40.63
202.777	41.12
203.243	41.22
203.709	40.89
204.176	40.76
204.642	40.87
205.108	40.85
205.574	40.73
206.04	40.6
206.506	40.2
206.972	40.23
207.438	39.87
207.903	39.33
208.369	38.43
208.835	38.2
209.301	37.8
209.766	37.08
210.232	36.65
210.697	36.1
211.163	35.44
211.628	34.81
212.094	34.08
212.559	33.64
213.024	32.95
213.49	32.5
213.955	31.74
214.42	31.19
214.885	30.63
215.35	29.74
215.815	28.48
216.28	27
216.745	25.54
217.21	24.16
217.675	22.79
218.14	21.73
218.604	20.82
219.069	19.95
219.534	19.22
219.998	18.54
220.463	18.05
220.927	17.59
221.392	17.29
221.856	16.99
222.32	16.7
222.785	16.43
223.249	16.2
223.713	15.93
224.177	15.76
224.642	15.58
225.106	15.38
225.57	15.17
226.034	15
226.497	14.83
226.961	14.64
227.425	14.48
227.889	14.33
228.353	14.15
228.816	14
229.28	13.84
229.744	13.67
230.207	13.51
230.671	13.36
231.134	13.21
231.597	13.07
232.061	12.93
232.524	12.8
232.987	12.66
233.45	12.54
233.914	12.41
234.377	12.28
234.84	12.16
235.303	12.07
235.766	11.97
236.229	11.87
236.691	11.75
237.154	11.65
237.617	11.55
238.08	11.45
238.542	11.34
239.005	11.26
239.468	11.16
239.93	11.06
240.393	10.98
240.855	10.86
241.317	10.76
241.78	10.65
242.242	10.54
242.704	10.46
243.166	10.37
243.629	10.28
244.091	10.18
244.553	10.11
245.015	10.03
245.477	9.94
245.939	9.87
246.4	9.8
246.862	9.74
247.324	9.68
247.786	9.61
248.247	9.54
248.709	9.45
249.17	9.38
249.632	9.32
250.093	9.26
250.555	9.2
251.016	9.15
251.477	9.09
251.939	9.04
252.4	8.98
252.861	8.92
253.322	8.89
253.783	8.86
254.244	8.82
254.705	8.77
255.166	8.73
255.627	8.69
256.088	8.65
256.549	8.61
257.009	8.57
257.47	8.53
257.931	8.48
258.391	8.42
258.852	8.37
259.312	8.33
259.773	8.29
260.233	8.26
260.694	8.21
261.154	8.17
261.614	8.14
262.074	8.1
262.534	8.07
262.994	8.05
263.455	8.04
263.915	8.02
264.374	8.01
264.834	7.99
265.294	7.96
265.754	7.95
266.214	7.93
266.673	7.92
267.133	7.92
267.593	7.9
268.052	7.89
268.512	7.87
268.971	7.85
269.431	7.84
269.89	7.82
270.349	7.81
270.809	7.8
271.268	7.79
271.727	7.77
272.186	7.75
272.645	7.73
273.104	7.72
273.563	7.7
274.022	7.68
274.481	7.66
274.94	7.64
275.399	7.63
275.857	7.61
276.316	7.6
276.775	7.59
277.233	7.57
277.692	7.56
278.15	7.54
278.609	7.53
279.067	7.52
279.525	7.5
279.984	7.48
280.442	7.46
280.9	7.44
281.358	7.43
281.816	7.41
282.274	7.39
282.732	7.37
283.19	7.34
283.648	7.32
284.106	7.29
284.564	7.27
285.021	7.25
285.479	7.23
285.937	7.2
286.394	7.18
286.852	7.15
287.309	7.13
287.767	7.09
288.224	7.08
288.682	7.05
289.139	7.04
289.596	7.01
290.053	6.98
290.511	6.97
290.968	6.95
291.425	6.92
291.882	6.9
292.339	6.88
292.796	6.87
293.252	6.84
293.709	6.83
294.166	6.8
294.623	6.79
295.079	6.77
295.536	6.75
295.992	6.73
296.449	6.72
296.905	6.7
297.362	6.69
297.818	6.67
298.274	6.65
298.731	6.63
299.187	6.61
299.643	6.6
300.099	6.58
300.555	6.57
301.011	6.55
301.467	6.53
301.923	6.51
302.379	6.5
302.835	6.49
303.291	6.48
303.746	6.46
304.202	6.45
304.658	6.44
305.113	6.43
305.569	6.42
306.024	6.4
306.479	6.38
306.935	6.37
307.39	6.35
307.845	6.33
308.301	6.33
308.756	6.31
309.211	6.3
309.666	6.29
310.121	6.28
310.576	6.27
311.031	6.26
311.486	6.26
311.94	6.25
312.395	6.24
312.85	6.23
313.305	6.22
313.759	6.21
314.214	6.2
314.668	6.19
315.123	6.18
315.577	6.16
316.032	6.15
316.486	6.14
316.94	6.13
317.394	6.11
317.849	6.11
318.303	6.09
318.757	6.08
319.211	6.06
319.665	6.04
320.119	6.02
320.572	6.01
321.026	5.99
321.48	5.97
321.934	5.95
322.387	5.93
322.841	5.92
323.295	5.91
323.748	5.89
324.202	5.87
324.655	5.87
325.108	5.85
325.562	5.85
326.015	5.84
326.468	5.84
326.921	5.83
327.374	5.83
327.827	5.82
328.28	5.81
328.733	5.81
329.186	5.81
329.639	5.8
330.092	5.8
330.545	5.78
330.997	5.78
331.45	5.78
331.903	5.78
332.355	5.78
332.808	5.77
333.26	5.76
333.713	5.76
334.165	5.75
334.617	5.76
335.069	5.74
335.522	5.75
335.974	5.75
336.426	5.73
336.878	5.72
337.33	5.71
337.782	5.71
338.234	5.71
338.686	5.71
339.137	5.7
339.589	5.69
340.041	5.68
340.493	5.67
340.944	5.65
341.396	5.63
341.847	5.62
342.299	5.6
342.75	5.57
343.201	5.55
343.653	5.54
344.104	5.52
344.555	5.51
345.006	5.5
345.457	5.49
345.908	5.48
346.359	5.48
346.81	5.48
347.261	5.47
347.712	5.47
348.163	5.46
348.613	5.45
349.064	5.45
349.515	5.45
349.965	5.44
350.416	5.42
350.866	5.42
351.317	5.42
351.767	5.41
352.217	5.4
352.668	5.39
353.118	5.39
353.568	5.39
354.018	5.39
354.468	5.38
354.918	5.38
355.368	5.38
355.818	5.37
356.268	5.36
356.718	5.37
357.168	5.36
357.617	5.36
358.067	5.35
358.517	5.36
358.966	5.35
359.416	5.35
359.865	5.35
360.315	5.35
360.764	5.36
361.213	5.36
361.663	5.35
362.112	5.36
362.561	5.37
363.01	5.37
363.459	5.35
363.908	5.35
364.357	5.36
364.806	5.36
365.255	5.36
365.703	5.36
366.152	5.37
366.601	5.38
367.05	5.38
367.498	5.38
367.947	5.39
368.395	5.41
368.844	5.42
369.292	5.42
369.74	5.42
370.189	5.44
370.637	5.45
371.085	5.46
371.533	5.47
371.981	5.49
372.429	5.5
372.877	5.51
373.325	5.53
373.773	5.54
374.221	5.56
374.669	5.59
375.116	5.6
375.564	5.63
376.012	5.65
376.459	5.67
376.907	5.71
377.354	5.75
377.801	5.78
378.249	5.81
378.696	5.85
379.143	5.88
379.591	5.91
380.038	5.96
380.485	6
380.932	6.05
381.379	6.09
381.826	6.12
382.273	6.15
382.72	6.19
383.166	6.23
383.613	6.28
384.06	6.32
384.506	6.36
384.953	6.4
385.4	6.44
385.846	6.49
386.292	6.54
386.739	6.59
387.185	6.63
387.631	6.69
388.078	6.72
388.524	6.76
388.97	6.8
389.416	6.84
389.862	6.88
390.308	6.93
390.754	6.96
391.2	7.01
391.645	7.04
392.091	7.08
392.537	7.11
392.983	7.14
393.428	7.19
393.874	7.21
394.319	7.25
394.765	7.27
395.21	7.28
395.655	7.29
396.101	7.32
396.546	7.33
396.991	7.35
397.436	7.38
397.881	7.41
398.326	7.43
398.771	7.45
399.216	7.47
399.661	7.5
400.106	7.51
400.551	7.52
400.995	7.52
401.44	7.52
401.885	7.52
402.329	7.52
402.774	7.51
403.218	7.52
403.663	7.52
404.107	7.51
404.551	7.49
404.995	7.49
405.44	7.48
405.884	7.47
406.328	7.46
406.772	7.45
407.216	7.44
407.66	7.43
408.104	7.41
408.547	7.39
408.991	7.39
409.435	7.39
409.879	7.38
410.322	7.39
410.766	7.38
411.209	7.39
411.653	7.39
412.096	7.39
412.54	7.39
412.983	7.38
413.426	7.41
413.869	7.41
414.312	7.42
414.756	7.43
415.199	7.41
415.642	7.41
416.085	7.41
416.527	7.4
416.97	7.38
417.413	7.38
417.856	7.37
418.298	7.35
418.741	7.33
419.184	7.32
419.626	7.3
420.069	7.31
420.511	7.31
420.953	7.3
421.396	7.3
421.838	7.3
422.28	7.31
422.722	7.32
423.164	7.31
423.606	7.33
424.048	7.32
424.49	7.34
424.932	7.31
425.374	7.3
425.816	7.27
426.258	7.25
426.699	7.22
427.141	7.2
427.582	7.19
428.024	7.18
428.465	7.17
428.907	7.16
429.348	7.13
429.789	7.13
430.231	7.13
430.672	7.15
431.113	7.17
431.554	7.18
431.995	7.2
432.436	7.2
432.877	7.2
433.318	7.21
433.759	7.22
434.2	7.24
434.64	7.25
435.081	7.26
435.522	7.27
435.962	7.27
436.403	7.29
436.843	7.29
437.284	7.28
437.724	7.29
438.164	7.3
438.604	7.31
439.045	7.31
439.485	7.31
439.925	7.31
440.365	7.32
440.805	7.34
441.245	7.35
441.685	7.37
442.125	7.41
442.564	7.44
443.004	7.45
443.444	7.48
443.883	7.51
444.323	7.52
444.762	7.54
445.202	7.57
445.641	7.58
446.081	7.6
446.52	7.61
446.959	7.64
447.398	7.66
447.837	7.69
448.276	7.71
448.716	7.73
449.154	7.77
449.593	7.8
450.032	7.81
450.471	7.82
450.91	7.82
451.349	7.84
451.787	7.85
452.226	7.85
452.664	7.85
453.103	7.85
453.541	7.86
453.98	7.87
454.418	7.87
454.856	7.87
455.295	7.87
455.733	7.86
456.171	7.86
456.609	7.85
457.047	7.84
457.485	7.84
457.923	7.85
458.361	7.83
458.798	7.83
459.236	7.82
459.674	7.84
460.111	7.85
460.549	7.87
460.987	7.88
461.424	7.89
461.862	7.9
462.299	7.91
462.736	7.92
463.173	7.93
463.611	7.92
464.048	7.93
464.485	7.91
464.922	7.91
465.359	7.91
465.796	7.89
466.233	7.88
466.67	7.89
467.106	7.89
467.543	7.88
467.98	7.87
468.416	7.87
468.853	7.87
469.29	7.87
469.726	7.88
470.162	7.88
470.599	7.89
471.035	7.89
471.471	7.87
471.907	7.86
472.344	7.87
472.78	7.87
473.216	7.87
473.652	7.87
474.088	7.86
474.523	7.86
474.959	7.86
475.395	7.84
475.831	7.85
476.266	7.86
476.702	7.85
477.138	7.84
477.573	7.85
478.008	7.85
478.444	7.84
478.879	7.85
479.314	7.84
479.75	7.84
480.185	7.83
480.62	7.84
481.055	7.83
481.49	7.84
481.925	7.85
482.36	7.85
482.795	7.85
483.229	7.87
483.664	7.89
484.099	7.9
484.534	7.91
484.968	7.94
485.403	7.96
485.837	7.98
486.271	8.01
486.706	8.04
487.14	8.06
487.574	8.1
488.009	8.13
488.443	8.16
488.877	8.2
489.311	8.25
489.745	8.3
490.179	8.36
490.613	8.41
491.046	8.46
491.48	8.53
491.914	8.6
492.348	8.67
492.781	8.75
493.215	8.83
493.648	8.91
494.082	9
494.515	9.09
494.948	9.17
495.382	9.27
495.815	9.37
496.248	9.48
496.681	9.59
497.114	9.71
497.547	9.82
497.98	9.96
498.413	10.09
498.846	10.22
499.279	10.36
499.711	10.51
500.144	10.68
500.577	10.84
501.009	11.01
501.442	11.19
501.874	11.37
502.306	11.57
502.739	11.77
503.171	11.98
503.603	12.19
504.036	12.42
504.468	12.64
504.9	12.87
505.332	13.11
505.764	13.35
506.196	13.6
506.627	13.86
507.059	14.12
507.491	14.39
507.923	14.67
508.354	14.98
508.786	15.28
509.217	15.59
509.649	15.91
510.08	16.22
510.512	16.55
510.943	16.87
511.374	17.2
511.805	17.52
512.237	17.86
512.668	18.2
513.099	18.53
513.53	18.86
513.961	19.21
514.391	19.56
514.822	19.92
515.253	20.28
515.684	20.63
516.114	20.99
516.545	21.36
516.975	21.73
517.406	22.08
517.836	22.44
518.267	22.81
518.697	23.16
519.127	23.47
519.558	23.82
519.988	24.17
520.418	24.5
520.848	24.83
521.278	25.15
521.708	25.56
522.138	25.86
522.567	26.15
522.997	26.44
523.427	26.73
523.857	27.03
524.286	27.27
524.716	27.53
525.145	27.78
525.575	28.03
526.004	28.27
526.433	28.39
526.863	28.6
527.292	28.81
527.721	28.99
528.15	29.18
528.579	29.33
529.008	29.53
529.437	29.68
529.866	29.83
530.295	29.97
530.724	30.11
531.152	30.25
531.581	30.39
532.01	30.52
532.438	30.66
532.867	30.77
533.295	30.89
533.723	30.98
534.152	31.07
534.58	31.16
535.008	31.22
535.436	31.32
535.865	31.39
536.293	31.45
536.721	31.51
537.149	31.56
537.576	31.63
538.004	31.69
538.432	31.74
538.86	31.78
539.287	31.83
539.715	31.89
540.143	31.92
540.57	31.97
540.998	32.01
541.425	32.05
541.852	32.09
542.28	32.1
542.707	32.14
543.134	32.17
543.561	32.22
543.988	32.25
544.415	32.27
544.842	32.28
545.269	32.31
545.696	32.33
546.123	32.36
546.549	32.38
546.976	32.41
547.403	32.43
547.829	32.41
548.256	32.43
548.682	32.45
549.108	32.48
549.535	32.49
549.961	32.48
550.387	32.47
550.813	32.47
551.24	32.47
551.666	32.45
552.092	32.44
552.518	32.43
552.943	32.39
553.369	32.36
553.795	32.32
554.221	32.3
554.646	32.25
555.072	32.2
555.498	32.13
555.923	32.06
556.349	31.98
556.774	31.92
557.199	31.84
557.625	31.76
558.05	31.66
558.475	31.59
558.9	31.49
559.325	31.41
559.75	31.31
560.175	31.19
560.6	31.08
561.025	30.97
561.449	30.84
561.874	30.73
562.299	30.6
562.723	30.48
563.148	30.31
563.572	30.16
563.997	29.99
564.421	29.83
564.846	29.68
565.27	29.51
565.694	29.35
566.118	29.18
566.542	29.02
566.966	28.85
567.39	28.68
567.814	28.52
568.238	28.35
568.662	28.18
569.086	28.01
569.509	27.85
569.933	27.7
570.357	27.53
570.78	27.34
571.204	27.16
571.627	27
572.05	26.83
572.474	26.69
572.897	26.54
573.32	26.39
573.743	26.24
574.166	26.09
574.589	25.94
575.012	25.8
575.435	25.68
575.858	25.55
576.281	25.42
576.704	25.28
577.126	25.15
577.549	25.01
577.972	24.89
578.394	24.77
578.817	24.65
579.239	24.53
579.661	24.41
580.084	24.29
580.506	24.19
580.928	24.08
581.35	23.98
581.772	23.87
582.194	23.78
582.616	23.68
583.038	23.58
583.46	23.49
583.882	23.39
584.303	23.3
584.725	23.24
585.147	23.15
585.568	23.06
585.99	22.99
586.411	22.9
586.833	22.8
587.254	22.72
587.675	22.64
588.096	22.57
588.518	22.5
588.939	22.45
589.36	22.36
589.781	22.3
590.202	22.24
590.623	22.18
591.043	22.13
591.464	22.1
591.885	22.07
592.305	22.02
592.726	22
593.147	21.97
593.567	21.92
593.987	21.89
594.408	21.84
594.828	21.8
595.248	21.76
595.669	21.74
596.089	21.7
596.509	21.67
596.929	21.64
597.349	21.58
597.769	21.52
598.189	21.47
598.608	21.43
599.028	21.39
599.448	21.35
599.867	21.31
600.287	21.26
600.706	21.2
601.126	21.13
601.545	21.07
601.965	21.03
602.384	20.98
602.803	20.91
603.222	20.86
603.641	20.8
604.061	20.75
604.48	20.65
604.898	20.57
605.317	20.5
605.736	20.44
606.155	20.35
606.574	20.26
606.992	20.17
607.411	20.08
607.829	19.96
608.248	19.85
608.666	19.75
609.085	19.66
609.503	19.57
609.921	19.46
610.339	19.36
610.758	19.26
611.176	19.16
611.594	19.06
612.012	18.95
612.43	18.87
612.847	18.78
613.265	18.67
613.683	18.57
614.101	18.48
614.518	18.39
614.936	18.3
615.353	18.21
615.771	18.13
616.188	18.05
616.606	17.97
617.023	17.9
617.44	17.84
617.857	17.77
618.274	17.72
618.691	17.64
619.108	17.57
619.525	17.51
619.942	17.46
620.359	17.4
620.776	17.36
621.192	17.32
621.609	17.28
622.026	17.23
622.442	17.2
622.859	17.16
623.275	17.15
623.691	17.14
624.108	17.13
624.524	17.12
624.94	17.09
625.356	17.07
625.772	17.05
626.188	17.03
626.604	17.01
627.02	17
627.436	16.98
627.852	16.96
628.268	16.93
628.683	16.92
629.099	16.9
629.514	16.88
629.93	16.87
630.345	16.84
630.761	16.8
631.176	16.76
631.591	16.71
632.007	16.68
632.422	16.63
632.837	16.56
633.252	16.46
633.667	16.37
634.082	16.29
634.497	16.2
634.911	16.1
635.326	16.01
635.741	15.89
636.155	15.77
636.57	15.63
636.984	15.51
637.399	15.38
637.813	15.27
638.228	15.13
638.642	14.97
639.056	14.8
639.47	14.66
639.884	14.5
640.298	14.35
640.712	14.19
641.126	14.03
641.54	13.85
641.954	13.69
642.368	13.53
642.781	13.37
643.195	13.23
643.609	13.09
644.022	12.94
644.436	12.81
644.849	12.67
645.262	12.54
645.676	12.43
646.089	12.32
646.502	12.21
646.915	12.11
647.328	12.03
647.741	11.94
648.154	11.86
648.567	11.79
648.98	11.72
649.393	11.66
649.805	11.61
650.218	11.56
650.631	11.51
651.043	11.45
651.456	11.4
651.868	11.33
652.28	11.27
652.693	11.22
653.105	11.16
653.517	11.1
653.929	11.03
654.341	10.95
654.753	10.87
655.165	10.78
655.577	10.7
655.989	10.61
656.401	10.51
656.813	10.42
657.224	10.31
657.636	10.19
658.047	10.08
658.459	9.97
658.87	9.86
659.282	9.74
659.693	9.63
660.104	9.5
660.515	9.37
660.926	9.25
661.338	9.14
661.749	9.03
662.159	8.92
662.57	8.83
662.981	8.73
663.392	8.63
663.803	8.55
664.213	8.47
664.624	8.39
665.035	8.33
665.445	8.26
665.855	8.2
666.266	8.16
666.676	8.11
667.086	8.04
667.497	8
667.907	7.95
668.317	7.91
668.727	7.88
669.137	7.85
669.547	7.82
669.956	7.8
670.366	7.78
670.776	7.76
671.186	7.76
671.595	7.76
672.005	7.75
672.414	7.76
672.824	7.76
673.233	7.77
673.642	7.78
674.052	7.79
674.461	7.82
674.87	7.83
675.279	7.86
675.688	7.88
676.097	7.9
676.506	7.93
676.915	7.98
677.323	8.02
677.732	8.06
678.141	8.11
678.549	8.16
678.958	8.22
679.366	8.3
679.775	8.38
680.183	8.45
680.592	8.56
681	8.67
681.408	8.78
681.816	8.92
682.224	9.08
682.632	9.24
683.04	9.42
683.448	9.62
683.856	9.83
684.264	10.08
684.671	10.36
685.079	10.65
685.487	10.97
685.894	11.34
686.302	11.7
686.709	12.1
687.116	12.54
687.524	13.01
687.931	13.51
688.338	14.04
688.745	14.59
689.152	15.16
689.559	15.77
689.966	16.38
690.373	17.02
690.78	17.68
691.187	18.34
691.593	19
692	19.68
692.407	20.36
692.813	21.06
693.22	21.75
693.626	22.46
694.032	23.15
694.439	23.85
694.845	24.56
695.251	25.26
695.657	25.95
696.063	26.65
696.469	27.35
696.875	28.04
697.281	28.71
697.687	29.38
698.093	30.03
698.498	30.67
698.904	31.3
699.31	31.92
699.715	32.53
700.12	33.12
700.526	33.7
700.931	34.27
701.337	34.82
701.742	35.36
702.147	35.92
702.552	36.44
702.957	36.93
703.362	37.42
703.767	37.88
704.172	38.34
704.577	38.82
704.981	39.27
705.386	39.72
705.791	40.15
706.195	40.57
706.6	40.97
707.004	41.35
707.408	41.76
707.813	42.17
708.217	42.55
708.621	42.94
709.025	43.3
709.43	43.65
709.834	44.01
710.237	44.36
710.641	44.7
711.045	45.03
711.449	45.4
711.853	45.76
712.256	46.09
712.66	46.41
713.064	46.7
713.467	47
713.87	47.3
714.274	47.59
714.677	47.87
715.08	48.15
715.484	48.42
715.887	48.69
716.29	48.91
716.693	49.16
717.096	49.4
717.499	49.66
717.901	49.91
718.304	50.15
718.707	50.39
719.109	50.61
719.512	50.83
719.915	51.04
720.317	51.24
720.719	51.42
721.122	51.63
721.524	51.84
721.926	52.03
722.328	52.21
722.731	52.41
723.133	52.59
723.535	52.75
723.937	52.95
724.338	53.1
724.74	53.26
725.142	53.5
725.544	53.63
725.945	53.79
726.347	53.9
726.748	54.06
727.15	54.16
727.551	54.3
727.952	54.41
728.354	54.51
728.755	54.62
729.156	54.72
729.557	54.76
729.958	54.86
730.359	54.93
730.76	55.02
731.161	55.08
731.562	55.18
731.962	55.22
732.363	55.32
732.763	55.37
733.164	55.42
733.564	55.49
733.965	55.55
734.365	55.62
734.766	55.68
735.166	55.73
735.566	55.79
735.966	55.84
736.366	55.9
736.766	55.91
737.166	55.96
737.566	56.03
737.966	56.08
738.365	56.12
738.765	56.17
739.165	56.19
739.564	56.23
739.964	56.25
740.363	56.26
740.763	56.29
741.162	56.36
741.561	56.39
741.96	56.41
742.36	56.42
742.759	56.42
743.158	56.43
743.557	56.44
743.955	56.46
744.354	56.49
744.753	56.54
745.152	56.6
745.55	56.61
745.949	56.65
746.348	56.68
746.746	56.72
747.144	56.74
747.543	56.74
747.941	56.78
748.339	56.78
748.737	56.81
749.136	56.79
749.534	56.77
749.932	56.79
750.33	56.77
750.727	56.77
751.125	56.74
751.523	56.76
751.921	56.78
752.318	56.79
752.716	56.82
753.113	56.84
753.511	56.86
753.908	56.88
754.305	56.88
754.703	56.89
755.1	56.9
755.497	56.94
755.894	56.93
756.291	56.93
756.688	56.9
757.085	56.91
757.482	56.88
757.878	56.87
758.275	56.85
758.672	56.85
759.068	56.88
759.465	56.87
759.861	56.87
760.258	56.89
760.654	56.89
761.05	56.93
761.447	56.92
761.843	56.9
762.239	56.9
762.635	56.88
763.031	56.87
763.427	56.83
763.822	56.83
764.218	56.83
764.614	56.82
765.01	56.8
765.405	56.76
765.801	56.74
766.196	56.74
766.592	56.75
766.987	56.76
767.382	56.75
767.778	56.76
768.173	56.76
768.568	56.72
768.963	56.72
769.358	56.71
769.753	56.72
770.148	56.72
770.542	56.72
770.937	56.7
771.332	56.71
771.726	56.72
772.121	56.7
772.515	56.7
772.91	56.7
773.304	56.71
773.699	56.76
774.093	56.75
774.487	56.75
774.881	56.78
775.275	56.79
775.669	56.75
776.063	56.71
776.457	56.72
776.851	56.71
777.245	56.67
777.638	56.65
778.032	56.6
778.425	56.63
778.819	56.62
779.212	56.6
779.606	56.62
779.999	56.63
780.392	56.67
780.786	56.66
781.179	56.67
781.572	56.73
781.965	56.75
782.358	56.75
782.751	56.74
783.143	56.71
783.536	56.7
783.929	56.69
784.322	56.71
784.714	56.71
785.107	56.75
785.499	56.72
785.891	56.71
786.284	56.71
786.676	56.73
787.068	56.73
787.46	56.75
787.852	56.75
788.245	56.76
788.636	56.71
789.028	56.7
789.42	56.66
789.812	56.69
790.204	56.69
790.595	56.7
790.987	56.68
791.378	56.69
791.77	56.71
792.161	56.7
792.553	56.69
792.944	56.67
793.335	56.7
793.726	56.71
794.117	56.67
794.508	56.66
794.899	56.66
795.29	56.67
795.681	56.64
796.072	56.62
796.463	56.62
796.853	56.59
797.244	56.6
797.634	56.55
798.025	56.56
798.415	56.55
798.806	56.55
799.196	56.53
799.586	56.53
799.976	56.53
800.366	56.53
800.756	56.55
801.146	56.57
801.536	56.61
801.926	56.6
802.316	56.61
802.706	56.64
803.095	56.63
803.485	56.6
803.874	56.57
804.264	56.56
804.653	56.55
805.043	56.52
805.432	56.5
805.821	56.5
806.21	56.5
806.599	56.49
806.988	56.48
807.377	56.49
807.766	56.51
808.155	56.48
808.544	56.48
808.933	56.46
809.321	56.48
809.71	56.48
810.098	56.47
810.487	56.46
810.875	56.45
811.264	56.44
811.652	56.42
812.04	56.4
812.428	56.44
812.816	56.45
813.204	56.45
813.592	56.42
813.98	56.44
814.368	56.41
814.756	56.41
815.144	56.37
815.531	56.37
815.919	56.37
816.306	56.38
816.694	56.37
817.081	56.37
817.469	56.36
817.856	56.36
818.243	56.32
818.63	56.32
819.017	56.31
819.404	56.3
819.791	56.29
820.178	56.3
820.565	56.27
820.952	56.27
821.339	56.25
821.725	56.27
822.112	56.3
822.498	56.33
822.885	56.35
823.271	56.37
823.657	56.37
824.044	56.38
824.43	56.39
824.816	56.4
825.202	56.38
825.588	56.38
825.974	56.36
826.36	56.35
826.746	56.33
827.132	56.31
827.517	56.31
827.903	56.35
828.289	56.36
828.674	56.34
829.06	56.33
829.445	56.34
829.83	56.31
830.216	56.3
830.601	56.29
830.986	56.26
831.371	56.27
831.756	56.28
832.141	56.25
832.526	56.25
832.911	56.26
833.295	56.29
833.68	56.32
834.065	56.35
834.449	56.34
834.834	56.3
835.218	56.32
835.603	56.29
835.987	56.27
836.371	56.27
836.755	56.23
837.139	56.19
837.524	56.19
837.908	56.17
838.291	56.19
838.675	56.19
839.059	56.22
839.443	56.22
839.827	56.22
840.21	56.22
840.594	56.24
840.977	56.26
841.361	56.29
841.744	56.24
842.127	56.21
842.511	56.16
842.894	56.13
843.277	56.13
843.66	56.11
844.043	56.13
844.426	56.13
844.809	56.12
845.191	56.13
845.574	56.11
845.957	56.14
846.339	56.16
846.722	56.21
847.104	56.25
847.487	56.26
847.869	56.26
848.252	56.24
848.634	56.24
849.016	56.22
849.398	56.23
849.78	56.24
850.162	56.24
850.544	56.24
850.926	56.22
851.307	56.21
851.689	56.2
852.071	56.22
852.452	56.22
852.834	56.23
853.215	56.23
853.597	56.21
853.978	56.18
854.359	56.18
854.741	56.17
855.122	56.14
855.503	56.11
855.884	56.11
856.265	56.1
856.646	56.09
857.026	56.11
857.407	56.12
857.788	56.12
858.169	56.16
858.549	56.15
858.93	56.13
859.31	56.15
859.69	56.16
860.071	56.19
860.451	56.18
860.831	56.2
861.211	56.16
861.591	56.13
861.971	56.11
862.351	56.1
862.731	56.1
863.111	56.11
863.491	56.12
863.87	56.11
864.25	56.07
864.629	56.08
865.009	56.06
865.388	56.05
865.768	56.05
866.147	56.04
866.526	56.01
866.905	56.02
867.284	56.02
867.663	56.01
868.042	56.04
868.421	56.05
868.8	56.05
869.179	56.05
869.558	56.08
869.936	56.08
870.315	56.1
870.693	56.12
871.072	56.15
871.45	56.16
871.828	56.17
872.207	56.15
872.585	56.15
872.963	56.15
873.341	56.12
873.719	56.1
874.097	56.09
874.475	56.09
874.853	56.09
875.23	56.09
875.608	56.07
875.986	56.08
876.363	56.07
876.741	56.09
877.118	56.11
877.495	56.14
877.873	56.17
878.25	56.22
878.627	56.25
879.004	56.26
879.381	56.27
879.758	56.24
880.135	56.24
880.512	56.25
880.889	56.25
881.265	56.21
881.642	56.22
882.019	56.21
882.395	56.16
882.772	56.13
883.148	56.1
883.524	56.08
883.901	56.11
884.277	56.09
884.653	56.06
885.029	56.04
885.405	56.03
885.781	56.01
886.157	56
886.532	56.01
886.908	56
887.284	56
887.659	56
888.035	55.98
888.411	55.97
888.786	55.98
889.161	56
889.537	56.02
889.912	56.02
890.287	56.04
890.662	56.03
891.037	56.05
891.412	56.03
891.787	56
892.162	56
892.536	56
892.911	55.99
893.286	55.98
893.66	55.99
894.035	56
894.409	55.96
894.784	55.94
895.158	55.94
895.532	55.95
895.906	55.96
896.281	55.94
896.655	55.93
897.029	55.93
897.402	55.92
897.776	55.89
898.15	55.89
898.524	55.91
898.898	55.91
899.271	55.92
899.645	55.95
900.018	55.98
900.392	56
900.765	56.03
901.138	56.04
901.511	56.05
901.884	56.08
902.258	56.1
902.631	56.1
903.003	56.14
903.376	56.14
903.749	56.13
904.122	56.14
904.495	56.16
904.867	56.14
905.24	56.15
905.612	56.18
905.985	56.16
906.357	56.16
906.729	56.18
907.102	56.18
907.474	56.18
907.846	56.18
908.218	56.16
908.59	56.17
908.962	56.15
909.334	56.12
909.705	56.08
910.077	56.1
910.449	56.07
910.82	56.04
911.192	56.04
911.563	56.01
911.935	55.99
912.306	56
912.677	56.01
913.048	56.03
913.419	56.03
913.79	56.06
914.161	56.06
914.532	56.05
914.903	56.04
915.274	56.04
915.645	56.09
916.015	56.09
916.386	56.08
916.756	56.06
917.127	56.06
917.497	56.05
917.868	56.04
918.238	56.05
918.608	56.08
918.978	56.08
919.348	56.09
919.718	56.04
920.088	56.05
920.458	56.08
920.828	56.04
921.198	56.02
921.567	56.04
921.937	56.07
922.306	56.04
922.676	56.02
923.045	56.02
923.415	56
923.784	56.02
924.153	56.01
924.522	56
924.891	56.01
925.26	56.03
925.629	56.01
925.998	55.96
926.367	55.96
926.736	55.96
927.104	55.98
927.473	55.94
927.842	55.84
928.21	55.85
928.578	55.82
928.947	55.83
929.315	55.73
929.683	55.72
930.051	55.69
930.42	55.67
930.788	55.6
931.156	55.55
931.523	55.55
931.891	55.62
932.259	55.62
932.627	55.6
932.994	55.57
933.362	55.58
933.729	55.57
934.097	55.59
934.464	55.59
934.831	55.61
935.199	55.62
935.566	55.61
935.933	55.5
936.3	55.43
936.667	55.4
937.034	55.41
937.401	55.48
937.767	55.5
938.134	55.47
938.501	55.5
938.867	55.48
939.234	55.43
939.6	55.47
939.967	55.55
940.333	55.59
940.699	55.63
941.065	55.53
941.431	55.51
941.798	55.47
942.163	55.48
942.529	55.42
942.895	55.51
943.261	55.48
943.627	55.45
943.992	55.49
944.358	55.54
944.723	55.48
945.089	55.49
945.454	55.5
945.82	55.45
946.185	55.43
946.55	55.4
946.915	55.38
947.28	55.37
947.645	55.36
948.01	55.29
948.375	55.19
948.74	55.23
949.104	55.3
949.469	55.27
949.834	55.3
950.198	55.25
950.562	55.26
950.927	55.21
951.291	55.16
951.655	55.08
952.02	55.09
952.384	55.08
952.748	55.03
953.112	54.96
953.476	54.92
953.839	54.85
954.203	54.82
954.567	54.79
954.931	54.78
955.294	54.79
955.658	54.88
956.021	54.86
956.385	54.84
956.748	54.83
957.111	54.8
957.474	54.78
957.837	54.75
958.2	54.73
958.563	54.68
958.926	54.68
959.289	54.68
959.652	54.62
960.015	54.59
960.377	54.59
960.74	54.6
961.102	54.61
961.465	54.66
961.827	54.72
962.189	54.79
962.552	54.81
962.914	54.81
963.276	54.9
963.638	54.91
964	54.89
964.362	54.91
964.724	54.88
965.085	54.81
965.447	54.76
965.809	54.78
966.17	54.75
966.532	54.72
966.893	54.69
967.255	54.63
967.616	54.58
967.977	54.6
968.338	54.59
968.699	54.6
969.061	54.63
969.421	54.63
969.782	54.64
970.143	54.65
970.504	54.65
970.865	54.67
971.225	54.64
971.586	54.64
971.946	54.62
972.307	54.61
972.667	54.65
973.027	54.7
973.388	54.73
973.748	54.69
974.108	54.67
974.468	54.68
974.828	54.7
975.188	54.7
975.548	54.69
975.907	54.75
976.267	54.75
976.627	54.72
976.986	54.67
977.346	54.62
977.705	54.63
978.064	54.62
978.424	54.64
978.783	54.62
979.142	54.65
979.501	54.65
979.86	54.67
980.219	54.67
980.578	54.67
980.937	54.77
981.296	54.74
981.654	54.73
982.013	54.77
982.371	54.78
982.73	54.78
983.088	54.7
983.447	54.66
983.805	54.57
984.163	54.5
984.521	54.44
984.879	54.32
985.237	54.34
985.595	54.36
985.953	54.31
986.311	54.26
986.669	54.29
987.026	54.29
987.384	54.35
987.741	54.31
988.099	54.45
988.456	54.45
988.814	54.54
989.171	54.57
989.528	54.56
989.885	54.57
990.242	54.63
990.599	54.58
990.956	54.69
991.313	54.7
991.67	54.82
992.027	54.79
992.383	54.87
992.74	54.9
993.096	54.86
993.453	54.82
993.809	54.78
994.165	54.73
994.522	54.8
994.878	54.77
995.234	54.8
995.59	54.74
995.946	54.78
996.302	54.8
996.658	54.83
997.013	54.83
997.369	54.76
997.725	54.79
998.08	54.88
998.436	54.91
998.791	54.89
999.147	54.84
999.502	54.84
999.857	54.75
1000.212	54.62
1000.567	54.55
1000.922	54.56
1001.277	54.69
1001.632	54.59
1001.987	54.46
1002.342	54.44
1002.696	54.43
1003.051	54.52
1003.406	54.57
1003.76	54.61
1004.114	54.69
1004.469	54.77
1004.823	54.9
1005.177	54.91
1005.531	55.11
1005.885	55.2
1006.239	55.11
1006.593	55.11
1006.947	55.09
1007.301	54.88
1007.655	54.81
1008.008	54.84
1008.362	54.83
1008.715	54.82
1009.069	54.9
1009.422	54.75
1009.776	54.56
1010.129	54.65
1010.482	54.5
1010.835	54.48
1011.188	54.79
1011.541	54.87
1011.894	54.82
1012.247	54.7
1012.6	54.67
1012.952	54.56
1013.305	54.75
1013.657	54.93
1014.01	54.86
1014.362	55.2
1014.715	55.15
1015.067	55.01
1015.419	55.07
1015.771	55.19
1016.123	55.21
1016.475	55.07
1016.827	54.95
1017.179	54.98
1017.531	55.06
1017.883	55.12
1018.234	55.16
1018.586	55.31
1018.938	55.44
1019.289	55.21
1019.64	55.18
1019.992	55.14
1020.343	55.24
1020.694	55.4
1021.045	55.19
1021.396	55.25
1021.747	55.32
1022.098	55.29
1022.449	55.15
1022.8	55.16
1023.151	55.23
1023.501	55.02
1023.852	55.15
1024.202	55.17
1024.553	55.07
1024.903	55.07
1025.253	54.96
1025.604	54.63
1025.954	54.28
1026.304	54.49
1026.654	54.4
1027.004	54.48
1027.354	54.66
1027.703	54.43
1028.053	54.47
1028.403	54.81
1028.753	54.79
1029.102	54.77
1029.452	55.01
1029.801	55.14
1030.15	54.95
1030.499	54.83
897.758	817.06
901.051	829.45
904.343	824.51
907.636	840.73
910.928	814.11
914.22	821.13
917.511	813.55
920.803	775.08
924.094	777.99
927.384	757.05
930.675	725.85
933.965	724.41
937.255	678.83
940.544	654.32
943.834	624.65
947.123	622.18
950.411	582.88
953.7	570.89
956.988	545.99
960.276	523.47
963.563	515.05
966.851	499.07
970.138	494.81
973.424	481.39
976.711	484.78
979.997	459.56
983.283	456.24
986.568	447.27
989.853	435.92
993.138	426.7
996.423	409.18
999.708	399.04
1002.992	393.77
1006.275	377.07
1009.559	374.72
1012.842	361.47
1016.125	354.66
1019.408	349
1022.69	344.37
1025.972	336.18
1029.254	329.43
1032.536	325.6
1035.817	318.37
1039.098	315.55
1042.379	310.03
1045.659	305.48
1048.939	299.33
1052.219	292.95
1055.498	289.59
1058.778	282.78
1062.057	277.66
1065.335	274.69
1068.614	271.13
1071.892	269.16
1075.17	261.57
1078.447	256.6
1081.724	254.76
1085.001	251.94
1088.278	247.82
1091.554	244.39
1094.83	244.55
1098.106	242.41
1101.382	241
1104.657	239.79
1107.932	235.49
1111.206	236.41
1114.481	232.18
1117.755	230.88
1121.029	229.08
1124.302	228.58
1127.575	223.48
1130.848	221.68
1134.121	219.47
1137.393	217.86
1140.665	213.07
1143.937	212.33
1147.208	211.69
1150.48	209.94
1153.75	207.63
1157.021	205.2
1160.291	205.2
1163.561	203.14
1166.831	202.83
1170.101	201.69
1173.37	201.66
1176.639	202.82
1179.907	200.62
1183.176	198.04
1186.444	198.15
1189.711	197.21
1192.979	196.95
1196.246	195.77
1199.513	196.51
1202.78	195.28
1206.046	195.38
1209.312	193.55
1212.578	193.45
1215.843	195.22
1219.108	194.27
1222.373	197.58
1225.638	199.42
1228.902	201.02
1232.166	201.98
1235.43	202.75
1238.693	205.8
1241.956	206.53
1245.219	209.09
1248.482	210.22
1251.744	209.73
1255.006	209.85
1258.268	205.56
1261.529	203.79
1264.79	202.89
1268.051	201.48
1271.312	199.59
1274.572	197.56
1277.832	196.4
1281.092	192.94
1284.351	190.75
1287.61	191.31
1290.869	189.2
1294.128	188.27
1297.386	188.04
1300.644	186.58
1303.902	186.51
1307.159	186.47
1310.416	185.63
1313.673	184.96
1316.93	186.83
1320.186	186.41
1323.442	186.67
1326.697	189.03
1329.953	189.66
1333.208	189.83
1336.463	192.13
1339.717	192.32
1342.972	192.88
1346.226	194.9
1349.479	195.33
1352.733	196.04
1355.986	198.17
1359.238	197.8
1362.491	197.8
1365.743	199.14
1368.995	199.09
1372.247	198.06
1375.498	197.27
1378.749	198.83
1382	195.92
1385.251	195.69
1388.501	194.34
1391.751	192.97
1395	191.53
1398.25	190.38
1401.499	188.26
1404.748	187.25
1407.996	185.65
1411.244	185.04
1414.492	183.06
1417.74	180.87
1420.987	178.67
1424.234	177.8
1427.481	175.4
1430.728	175.24
1433.974	174.13
1437.22	171.58
1440.465	171.66
1443.711	169.01
1446.956	167.06
1450.201	166.57
1453.445	165.05
1456.689	164.59
1459.933	161.93
1463.177	160.81
1466.42	158.22
1469.663	156.24
1472.906	156.07
1476.148	151.57
1479.391	150.92
1482.633	150.37
1485.874	147.86
1489.115	146.81
1492.356	145.64
1495.597	145.25
1498.838	143.73
1502.078	143.4
1505.318	142.85
1508.557	142.78
1511.797	143.32
1515.036	142.23
1518.274	141.73
1521.513	141.08
1524.751	140.85
1527.989	140.63
1531.227	140.54
1534.464	140.53
1537.701	140.24
1540.938	139.93
1544.174	138.87
1547.41	139.42
1550.646	138.9
1553.882	139.59
1557.117	138.12
1560.352	137.63
1563.587	137.57
1566.821	136.95
1570.055	136.31
1573.289	135.43
1576.523	135.49
1579.756	134.71
1582.989	134.1
1586.222	133.67
1589.454	132.52
1592.686	134
1595.918	133.62
1599.15	133.08
1602.381	133.24
1605.612	133.14
1608.843	133.59
1612.073	133.28
1615.303	134.16
1618.533	133.99
1621.762	134.79
1624.992	135.47
1628.221	134.85
1631.449	134.79
1634.678	134.96
1637.906	135.53
1641.134	135.4
1644.361	135.21
1647.588	135.72
1650.815	135.47
1654.042	135.28
1657.269	135.59
1660.495	135.86
1663.72	135.69
1666.946	136.32
1670.171	136.35
1673.396	136.6
1676.621	136.95
1679.845	136.88
1683.069	137.03
1686.293	137.94
1689.517	137.82
1692.74	137.81
1695.963	137.97
1699.185	138.81
1702.408	138.91
1705.63	139.17
1708.852	139.82
1712.073	139.69
1715.294	140.3
1718.515	141.15
1721.736	140.53
1724.956	141.04
1728.176	140.9
1731.396	141.45
1734.616	141.21
1737.835	141.84
1741.054	140.64
1744.272	140.65
1747.491	141.7
1750.709	142.23
1753.927	141.47
1757.144	141.24
1760.361	141.95
1763.578	141.79
1766.795	141.66
1770.011	142.66
1773.227	142.21
1776.443	143.54
1779.658	143.02
1782.874	143.56
1786.089	142.89
1789.303	143.49
1792.518	144.61
1795.732	144.65
1798.945	146.17
1802.159	146.55
1805.372	146.19
1808.585	148.41
1811.797	149.06
1815.01	150.09
1818.222	150.43
1821.434	152.41
1824.645	152.31
1827.856	155.06
1831.067	155.49
1834.278	155.52
1837.488	156.37
1840.698	157.23
1843.908	155.98
1847.117	156.77
1850.326	156.88
1853.535	155.83
1856.744	157.49
1859.952	157.02
1863.16	155.13
1866.368	154.56
1869.575	154.19
1872.782	151.27
1875.989	149.59
1879.196	148.87
1882.402	146.99
1885.608	147.03
1888.814	146.56
1892.019	144.64
1895.224	144.09
1898.429	143.32
1901.634	142.77
1904.838	142.6
1908.042	143.97
1911.246	144.13
1914.449	144.62
1917.652	144.48
1920.855	144.23
1924.058	143.78
1927.26	142.98
1930.462	143.12
1933.664	144.36
1936.865	143.6
1940.066	143.57
1943.267	142.22
1946.467	142.4
1949.668	143.19
1952.868	145.59
1956.067	145.5
1959.267	146.45
1962.466	147.15
1965.665	146.81
1968.863	147.22
1972.061	148.94
1975.259	150.21
1978.457	152.19
1981.654	153.8
1984.852	153.87
1988.048	153.27
1991.245	154.82
1994.441	156.6
1997.637	157.36
2000.833	160.86
2004.028	163.03
2007.223	164.78
2010.418	165.99
2013.613	168.64
2016.807	170.65
2020.001	172.95
2023.194	175.21
2026.388	178.63
2029.581	183.53
2032.774	184.84
2035.966	188.02
2039.158	188.41
2042.35	192.01
2045.542	193.68
2048.733	196.7
2051.924	199.63
2055.115	203.31
2058.306	203.98
2061.496	206.07
2064.686	204.47
2067.875	208.76
2071.065	209.87
2074.254	209.23
2077.442	211.82
2080.631	213.62
2083.819	215.68
2087.007	215.93
2090.195	218.14
2093.382	220.13
2096.569	219.45
2099.756	223.53
2102.942	224.66
2106.128	226.35
2109.314	231.1
2112.5	230.41
2115.685	234.83
2118.87	235.18
2122.055	239.71
2125.239	240.14
2128.424	243.79
2131.608	244.93
2134.791	247.72
2137.974	249.49
2141.157	250.5
2144.34	251.03
2147.523	254.52
2150.705	252.99
2153.887	255.58
2157.068	255.96
2160.25	254.43
2163.431	256.17
2166.611	258.95
2169.792	264.06
2172.972	266.48
2176.152	267.93
2179.331	270.97
2182.511	275.57
2185.69	277.49
2188.868	282.89
2192.047	283.53
2195.225	291.5
2198.403	297.12
2201.58	302.51
2204.758	307.32
2207.935	313.53
2211.111	319.69
2214.288	323.77
2217.464	323.91
2220.64	332.94
2223.815	335.81
2226.991	348.54
2230.166	348.31
2233.34	352.12
2236.515	358.98
2239.689	359.1
2242.863	360.35
2246.036	370.32
2249.209	368.86
2252.382	375.3
2255.555	382.75
2258.727	385.06
2261.9	388.61
2265.071	392.85
2268.243	400.53
2271.414	404.21
2274.585	413.37
2277.756	416.82
2280.926	420.74
2284.096	429.44
2287.266	436.77
2290.436	440.89
2293.605	451.06
2296.774	461.34
2299.942	475.29
2303.111	478.71
2306.279	490.22
2309.447	495.25
2312.614	507.73
2315.781	521.58
2318.948	541.25
2322.115	537.08
2325.281	568.07
2328.447	553.03
2331.613	575.79
2334.779	571.91
2337.944	594.92
2341.109	599.54
2344.274	617.37
2347.438	636.64
2350.602	632.19
2353.766	660.33
2356.929	669.55
2360.092	659.47
2363.255	709.66
2366.418	707.88
2369.58	719.46
2372.742	764.2
2375.904	783.58
2379.066	778.98
2382.227	768.52
2385.388	835.1
2388.548	827.4
2391.709	839.06
2394.869	936.54
2398.029	897.69
2401.188	924.96
2404.347	918.25
2407.506	904.15
2410.665	927.45
2413.823	983.11
2416.981	1040.94
2420.139	1012.63
2423.296	1003.18
2426.453	1042.57
2429.61	1000.35
2432.767	1046.92
2435.923	1034.39
2439.079	1132.59
2442.235	1147.16
2445.391	1140.15
2448.546	1129.93
2451.701	1101.1
2454.855	1091.85
2458.009	1161.18
2461.163	1209.11
2464.317	1254.32
2467.471	1286.73
2470.624	1289.1
2473.777	1257.75
2476.929	1226.03
2480.082	1185.22
2483.234	1175.22
2486.385	1228.54
2489.537	1237.65
2492.688	1279.48
2495.839	1247.53
2498.989	1222.27
2502.14	1228.17
2505.29	1237.21
2508.439	1252.44
2511.589	1249.39
2514.738	1368.37
2517.887	1336.29
2521.035	1408.77
2524.183	1422.78
2527.331	1433.79
2530.479	1424.62
2533.627	1432.9
