Data from C_1_HIR_WI_4N_Splice17_13-00-14-077.txt Node
Date: Sat Mar 07 13:00:14 EST 2020
User: sa697716
Spectrometer: NQ5500242
Trigger mode: 0
Integration Time (sec): 1.450000E-1
Scans to average: 20
Nonlinearity correction enabled: false
Boxcar width: 5
Storing dark spectrum: false
XAxis mode: Wavelengths
Number of Pixels in Spectrum: 512
>>>>>Begin Spectral Data<<<<<
187.83	133.93
188.298	150.24
188.766	134.22
189.233	120.78
189.701	121.3
190.169	144.15
190.636	145.74
191.104	119.59
191.571	-70.37
192.039	-249.07
192.506	-304.88
192.974	-48.79
193.441	-111.34
193.908	-75.51
194.375	24.44
194.842	-7.41
195.31	49.72
195.777	20.8
196.244	37.08
196.711	37.83
197.177	39.44
197.644	40.82
198.111	40.49
198.578	40.96
199.045	41.24
199.511	40.82
199.978	40.84
200.445	40.74
200.911	40.69
201.378	40.36
201.844	40.47
202.31	40.31
202.777	40.23
203.243	40.37
203.709	40.13
204.176	39.34
204.642	39.17
205.108	39.02
205.574	38.71
206.04	38.29
206.506	37.89
206.972	37.62
207.438	37.44
207.903	36.62
208.369	35.86
208.835	35.01
209.301	34.68
209.766	33.56
210.232	32.51
210.697	31.5
211.163	30.75
211.628	30.05
212.094	29.16
212.559	28.48
213.024	28.01
213.49	27.55
213.955	26.91
214.42	26.05
214.885	25.35
215.35	24.41
215.815	23.44
216.28	21.7
216.745	19.94
217.21	18.23
217.675	16.48
218.14	15.06
218.604	13.69
219.069	12.66
219.534	11.84
219.998	11.1
220.463	10.51
220.927	9.88
221.392	9.46
221.856	9.13
222.32	8.81
222.785	8.54
223.249	8.28
223.713	8.11
224.177	7.93
224.642	7.75
225.106	7.57
225.57	7.39
226.034	7.28
226.497	7.18
226.961	7.05
227.425	6.94
227.889	6.83
228.353	6.71
228.816	6.6
229.28	6.48
229.744	6.38
230.207	6.29
230.671	6.21
231.134	6.1
231.597	6.02
232.061	5.93
232.524	5.84
232.987	5.77
233.45	5.72
233.914	5.66
234.377	5.58
234.84	5.51
235.303	5.45
235.766	5.39
236.229	5.35
236.691	5.27
237.154	5.22
237.617	5.18
238.08	5.12
238.542	5.07
239.005	5.03
239.468	4.99
239.93	4.95
240.393	4.91
240.855	4.85
241.317	4.81
241.78	4.76
242.242	4.71
242.704	4.67
243.166	4.63
243.629	4.6
244.091	4.54
244.553	4.49
245.015	4.45
245.477	4.4
245.939	4.36
246.4	4.33
246.862	4.29
247.324	4.25
247.786	4.21
248.247	4.17
248.709	4.12
249.17	4.08
249.632	4.07
250.093	4.04
250.555	4.01
251.016	3.99
251.477	3.95
251.939	3.94
252.4	3.92
252.861	3.89
253.322	3.87
253.783	3.86
254.244	3.84
254.705	3.81
255.166	3.78
255.627	3.75
256.088	3.74
256.549	3.72
257.009	3.68
257.47	3.65
257.931	3.62
258.391	3.59
258.852	3.56
259.312	3.53
259.773	3.51
260.233	3.49
260.694	3.47
261.154	3.44
261.614	3.42
262.074	3.39
262.534	3.37
262.994	3.35
263.455	3.34
263.915	3.32
264.374	3.29
264.834	3.27
265.294	3.25
265.754	3.23
266.214	3.21
266.673	3.2
267.133	3.18
267.593	3.17
268.052	3.17
268.512	3.16
268.971	3.15
269.431	3.15
269.89	3.13
270.349	3.13
270.809	3.12
271.268	3.11
271.727	3.1
272.186	3.09
272.645	3.09
273.104	3.07
273.563	3.06
274.022	3.05
274.481	3.05
274.94	3.04
275.399	3.03
275.857	3.02
276.316	3.02
276.775	3.01
277.233	3.01
277.692	3.01
278.15	3.01
278.609	3
279.067	3
279.525	2.99
279.984	2.98
280.442	2.97
280.9	2.97
281.358	2.97
281.816	2.97
282.274	2.96
282.732	2.95
283.19	2.94
283.648	2.93
284.106	2.93
284.564	2.92
285.021	2.92
285.479	2.91
285.937	2.89
286.394	2.89
286.852	2.87
287.309	2.87
287.767	2.85
288.224	2.84
288.682	2.83
289.139	2.82
289.596	2.8
290.053	2.79
290.511	2.78
290.968	2.77
291.425	2.75
291.882	2.74
292.339	2.73
292.796	2.72
293.252	2.72
293.709	2.71
294.166	2.7
294.623	2.7
295.079	2.69
295.536	2.68
295.992	2.67
296.449	2.67
296.905	2.67
297.362	2.67
297.818	2.66
298.274	2.65
298.731	2.65
299.187	2.64
299.643	2.63
300.099	2.63
300.555	2.62
301.011	2.62
301.467	2.61
301.923	2.6
302.379	2.6
302.835	2.6
303.291	2.59
303.746	2.59
304.202	2.59
304.658	2.6
305.113	2.59
305.569	2.59
306.024	2.59
306.479	2.58
306.935	2.58
307.39	2.58
307.845	2.58
308.301	2.58
308.756	2.58
309.211	2.58
309.666	2.59
310.121	2.59
310.576	2.59
311.031	2.59
311.486	2.59
311.94	2.59
312.395	2.59
312.85	2.6
313.305	2.6
313.759	2.6
314.214	2.6
314.668	2.6
315.123	2.6
315.577	2.59
316.032	2.59
316.486	2.58
316.94	2.58
317.394	2.57
317.849	2.55
318.303	2.54
318.757	2.53
319.211	2.52
319.665	2.5
320.119	2.49
320.572	2.48
321.026	2.48
321.48	2.47
321.934	2.46
322.387	2.46
322.841	2.46
323.295	2.47
323.748	2.47
324.202	2.47
324.655	2.47
325.108	2.48
325.562	2.48
326.015	2.48
326.468	2.48
326.921	2.48
327.374	2.48
327.827	2.48
328.28	2.47
328.733	2.46
329.186	2.46
329.639	2.47
330.092	2.47
330.545	2.47
330.997	2.47
331.45	2.48
331.903	2.49
332.355	2.5
332.808	2.49
333.26	2.49
333.713	2.49
334.165	2.49
334.617	2.48
335.069	2.48
335.522	2.48
335.974	2.48
336.426	2.48
336.878	2.47
337.33	2.46
337.782	2.46
338.234	2.47
338.686	2.47
339.137	2.47
339.589	2.47
340.041	2.47
340.493	2.46
340.944	2.44
341.396	2.44
341.847	2.43
342.299	2.42
342.75	2.42
343.201	2.4
343.653	2.39
344.104	2.38
344.555	2.37
345.006	2.37
345.457	2.37
345.908	2.36
346.359	2.37
346.81	2.36
347.261	2.36
347.712	2.34
348.163	2.34
348.613	2.35
349.064	2.35
349.515	2.35
349.965	2.35
350.416	2.34
350.866	2.34
351.317	2.33
351.767	2.33
352.217	2.32
352.668	2.32
353.118	2.33
353.568	2.32
354.018	2.33
354.468	2.33
354.918	2.33
355.368	2.34
355.818	2.34
356.268	2.34
356.718	2.34
357.168	2.34
357.617	2.34
358.067	2.33
358.517	2.33
358.966	2.34
359.416	2.33
359.865	2.33
360.315	2.34
360.764	2.34
361.213	2.34
361.663	2.33
362.112	2.34
362.561	2.35
363.01	2.36
363.459	2.34
363.908	2.33
364.357	2.33
364.806	2.32
365.255	2.31
365.703	2.32
366.152	2.33
366.601	2.34
367.05	2.33
367.498	2.32
367.947	2.31
368.395	2.33
368.844	2.33
369.292	2.33
369.74	2.34
370.189	2.34
370.637	2.32
371.085	2.31
371.533	2.3
371.981	2.3
372.429	2.31
372.877	2.31
373.325	2.3
373.773	2.29
374.221	2.29
374.669	2.28
375.116	2.27
375.564	2.28
376.012	2.27
376.459	2.26
376.907	2.26
377.354	2.26
377.801	2.26
378.249	2.26
378.696	2.25
379.143	2.25
379.591	2.26
380.038	2.26
380.485	2.26
380.932	2.27
381.379	2.27
381.826	2.27
382.273	2.26
382.72	2.25
383.166	2.25
383.613	2.26
384.06	2.26
384.506	2.24
384.953	2.24
385.4	2.25
385.846	2.26
386.292	2.25
386.739	2.25
387.185	2.25
387.631	2.25
388.078	2.25
388.524	2.25
388.97	2.26
389.416	2.27
389.862	2.28
390.308	2.29
390.754	2.29
391.2	2.3
391.645	2.31
392.091	2.33
392.537	2.34
392.983	2.35
393.428	2.36
393.874	2.36
394.319	2.38
394.765	2.37
395.21	2.37
395.655	2.38
396.101	2.38
396.546	2.38
396.991	2.38
397.436	2.39
397.881	2.4
398.326	2.41
398.771	2.42
399.216	2.41
399.661	2.43
400.106	2.44
400.551	2.45
400.995	2.44
401.44	2.46
401.885	2.47
402.329	2.48
402.774	2.5
403.218	2.52
403.663	2.53
404.107	2.54
404.551	2.54
404.995	2.55
405.44	2.55
405.884	2.56
406.328	2.58
406.772	2.58
407.216	2.59
407.66	2.59
408.104	2.58
408.547	2.59
408.991	2.6
409.435	2.61
409.879	2.62
410.322	2.64
410.766	2.65
411.209	2.66
411.653	2.67
412.096	2.68
412.54	2.69
412.983	2.7
413.426	2.72
413.869	2.73
414.312	2.76
414.756	2.77
415.199	2.77
415.642	2.78
416.085	2.8
416.527	2.79
416.97	2.8
417.413	2.8
417.856	2.8
418.298	2.79
418.741	2.79
419.184	2.79
419.626	2.79
420.069	2.81
420.511	2.8
420.953	2.8
421.396	2.82
421.838	2.82
422.28	2.83
422.722	2.85
423.164	2.87
423.606	2.88
424.048	2.9
424.49	2.9
424.932	2.9
425.374	2.9
425.816	2.89
426.258	2.88
426.699	2.89
427.141	2.89
427.582	2.89
428.024	2.89
428.465	2.89
428.907	2.88
429.348	2.86
429.789	2.87
430.231	2.89
430.672	2.92
431.113	2.94
431.554	2.95
431.995	2.96
432.436	2.97
432.877	2.97
433.318	2.99
433.759	3
434.2	3.03
434.64	3.04
435.081	3.04
435.522	3.05
435.962	3.06
436.403	3.07
436.843	3.08
437.284	3.09
437.724	3.1
438.164	3.08
438.604	3.1
439.045	3.11
439.485	3.11
439.925	3.11
440.365	3.11
440.805	3.1
441.245	3.12
441.685	3.13
442.125	3.14
442.564	3.15
443.004	3.15
443.444	3.14
443.883	3.16
444.323	3.15
444.762	3.17
445.202	3.17
445.641	3.18
446.081	3.18
446.52	3.16
446.959	3.18
447.398	3.18
447.837	3.19
448.276	3.19
448.716	3.2
449.154	3.22
449.593	3.23
450.032	3.23
450.471	3.22
450.91	3.2
451.349	3.21
451.787	3.18
452.226	3.17
452.664	3.16
453.103	3.15
453.541	3.13
453.98	3.13
454.418	3.1
454.856	3.1
455.295	3.1
455.733	3.08
456.171	3.08
456.609	3.08
457.047	3.07
457.485	3.07
457.923	3.08
458.361	3.07
458.798	3.07
459.236	3.06
459.674	3.05
460.111	3.05
460.549	3.07
460.987	3.08
461.424	3.09
461.862	3.1
462.299	3.11
462.736	3.09
463.173	3.11
463.611	3.11
464.048	3.13
464.485	3.13
464.922	3.14
465.359	3.14
465.796	3.16
466.233	3.17
466.67	3.17
467.106	3.18
467.543	3.19
467.98	3.19
468.416	3.19
468.853	3.18
469.29	3.17
469.726	3.17
470.162	3.17
470.599	3.14
471.035	3.12
471.471	3.11
471.907	3.09
472.344	3.09
472.78	3.09
473.216	3.09
473.652	3.09
474.088	3.08
474.523	3.07
474.959	3.07
475.395	3.05
475.831	3.04
476.266	3.04
476.702	3.04
477.138	3.02
477.573	3.02
478.008	3.01
478.444	2.99
478.879	2.99
479.314	2.99
479.75	2.98
480.185	2.98
480.62	2.97
481.055	2.97
481.49	2.96
481.925	2.95
482.36	2.95
482.795	2.94
483.229	2.95
483.664	2.95
484.099	2.94
484.534	2.95
484.968	2.95
485.403	2.95
485.837	2.95
486.271	2.97
486.706	2.97
487.14	2.97
487.574	2.97
488.009	2.97
488.443	2.98
488.877	2.99
489.311	3
489.745	3.01
490.179	3.03
490.613	3.05
491.046	3.06
491.48	3.08
491.914	3.1
492.348	3.12
492.781	3.16
493.215	3.19
493.648	3.21
494.082	3.24
494.515	3.27
494.948	3.3
495.382	3.33
495.815	3.37
496.248	3.42
496.681	3.46
497.114	3.5
497.547	3.54
497.98	3.59
498.413	3.63
498.846	3.68
499.279	3.74
499.711	3.79
500.144	3.85
500.577	3.92
501.009	3.98
501.442	4.06
501.874	4.14
502.306	4.21
502.739	4.3
503.171	4.4
503.603	4.49
504.036	4.6
504.468	4.69
504.9	4.79
505.332	4.91
505.764	5.02
506.196	5.14
506.627	5.27
507.059	5.4
507.491	5.53
507.923	5.67
508.354	5.82
508.786	5.98
509.217	6.15
509.649	6.33
510.08	6.5
510.512	6.69
510.943	6.88
511.374	7.07
511.805	7.27
512.237	7.47
512.668	7.67
513.099	7.89
513.53	8.11
513.961	8.35
514.391	8.59
514.822	8.83
515.253	9.05
515.684	9.3
516.114	9.55
516.545	9.81
516.975	10.08
517.406	10.35
517.836	10.6
518.267	10.87
518.697	11.12
519.127	11.36
519.558	11.62
519.988	11.88
520.418	12.13
520.848	12.38
521.278	12.63
521.708	13.07
522.138	13.33
522.567	13.57
522.997	13.81
523.427	14.04
523.857	14.27
524.286	14.49
524.716	14.72
525.145	14.94
525.575	15.14
526.004	15.36
526.433	15.35
526.863	15.53
527.292	15.71
527.721	15.87
528.15	16.04
528.579	16.21
529.008	16.37
529.437	16.51
529.866	16.65
530.295	16.79
530.724	16.91
531.152	17.04
531.581	17.16
532.01	17.28
532.438	17.41
532.867	17.51
533.295	17.61
533.723	17.7
534.152	17.79
534.58	17.88
535.008	17.95
535.436	18.03
535.865	18.09
536.293	18.16
536.721	18.23
537.149	18.29
537.576	18.34
538.004	18.39
538.432	18.44
538.86	18.49
539.287	18.53
539.715	18.6
540.143	18.63
540.57	18.66
540.998	18.69
541.425	18.72
541.852	18.76
542.28	18.82
542.707	18.85
543.134	18.89
543.561	18.93
543.988	18.97
544.415	18.98
544.842	19.01
545.269	19.06
545.696	19.09
546.123	19.12
546.549	19.14
546.976	19.16
547.403	19.2
547.829	19.21
548.256	19.23
548.682	19.25
549.108	19.29
549.535	19.31
549.961	19.31
550.387	19.33
550.813	19.32
551.24	19.3
551.666	19.28
552.092	19.27
552.518	19.26
552.943	19.23
553.369	19.21
553.795	19.16
554.221	19.13
554.646	19.09
555.072	19.06
555.498	19.02
555.923	18.99
556.349	18.94
556.774	18.87
557.199	18.82
557.625	18.75
558.05	18.68
558.475	18.62
558.9	18.54
559.325	18.46
559.75	18.37
560.175	18.28
560.6	18.18
561.025	18.08
561.449	17.98
561.874	17.87
562.299	17.77
562.723	17.65
563.148	17.52
563.572	17.39
563.997	17.25
564.421	17.11
564.846	16.98
565.27	16.84
565.694	16.71
566.118	16.57
566.542	16.43
566.966	16.28
567.39	16.14
567.814	16.01
568.238	15.87
568.662	15.74
569.086	15.6
569.509	15.48
569.933	15.35
570.357	15.22
570.78	15.09
571.204	14.95
571.627	14.81
572.05	14.68
572.474	14.55
572.897	14.44
573.32	14.32
573.743	14.2
574.166	14.09
574.589	13.96
575.012	13.85
575.435	13.73
575.858	13.64
576.281	13.53
576.704	13.43
577.126	13.32
577.549	13.22
577.972	13.11
578.394	13.02
578.817	12.92
579.239	12.84
579.661	12.77
580.084	12.69
580.506	12.61
580.928	12.54
581.35	12.46
581.772	12.39
582.194	12.32
582.616	12.26
583.038	12.18
583.46	12.11
583.882	12.04
584.303	11.97
584.725	11.9
585.147	11.85
585.568	11.79
585.99	11.73
586.411	11.67
586.833	11.61
587.254	11.56
587.675	11.51
588.096	11.45
588.518	11.4
588.939	11.36
589.36	11.3
589.781	11.25
590.202	11.22
590.623	11.19
591.043	11.14
591.464	11.12
591.885	11.07
592.305	11.06
592.726	11.04
593.147	11.01
593.567	10.99
593.987	10.97
594.408	10.93
594.828	10.9
595.248	10.88
595.669	10.86
596.089	10.83
596.509	10.81
596.929	10.78
597.349	10.74
597.769	10.71
598.189	10.68
598.608	10.65
599.028	10.64
599.448	10.6
599.867	10.57
600.287	10.53
600.706	10.49
601.126	10.45
601.545	10.41
601.965	10.37
602.384	10.33
602.803	10.29
603.222	10.23
603.641	10.17
604.061	10.12
604.48	10.07
604.898	10.01
605.317	9.95
605.736	9.89
606.155	9.83
606.574	9.77
606.992	9.69
607.411	9.62
607.829	9.53
608.248	9.46
608.666	9.38
609.085	9.31
609.503	9.24
609.921	9.18
610.339	9.1
610.758	9.04
611.176	8.96
611.594	8.9
612.012	8.83
612.43	8.78
612.847	8.71
613.265	8.64
613.683	8.58
614.101	8.52
614.518	8.45
614.936	8.39
615.353	8.33
615.771	8.28
616.188	8.22
616.606	8.17
617.023	8.12
617.44	8.07
617.857	8.03
618.274	7.98
618.691	7.94
619.108	7.89
619.525	7.85
619.942	7.82
620.359	7.78
620.776	7.75
621.192	7.72
621.609	7.69
622.026	7.66
622.442	7.64
622.859	7.62
623.275	7.61
623.691	7.6
624.108	7.58
624.524	7.55
624.94	7.55
625.356	7.54
625.772	7.53
626.188	7.51
626.604	7.51
627.02	7.5
627.436	7.5
627.852	7.49
628.268	7.48
628.683	7.48
629.099	7.47
629.514	7.45
629.93	7.44
630.345	7.43
630.761	7.41
631.176	7.39
631.591	7.37
632.007	7.35
632.422	7.32
632.837	7.28
633.252	7.24
633.667	7.21
634.082	7.16
634.497	7.12
634.911	7.06
635.326	7.02
635.741	6.97
636.155	6.92
636.57	6.85
636.984	6.79
637.399	6.73
637.813	6.66
638.228	6.59
638.642	6.51
639.056	6.42
639.47	6.36
639.884	6.27
640.298	6.18
640.712	6.09
641.126	6.01
641.54	5.92
641.954	5.83
642.368	5.75
642.781	5.67
643.195	5.6
643.609	5.53
644.022	5.45
644.436	5.39
644.849	5.32
645.262	5.26
645.676	5.19
646.089	5.14
646.502	5.09
646.915	5.05
647.328	5
647.741	4.95
648.154	4.9
648.567	4.87
648.98	4.83
649.393	4.8
649.805	4.76
650.218	4.73
650.631	4.7
651.043	4.67
651.456	4.64
651.868	4.61
652.28	4.57
652.693	4.55
653.105	4.52
653.517	4.48
653.929	4.45
654.341	4.41
654.753	4.36
655.165	4.32
655.577	4.27
655.989	4.22
656.401	4.16
656.813	4.12
657.224	4.07
657.636	4.01
658.047	3.97
658.459	3.91
658.87	3.87
659.282	3.81
659.693	3.76
660.104	3.71
660.515	3.66
660.926	3.61
661.338	3.56
661.749	3.51
662.159	3.47
662.57	3.43
662.981	3.39
663.392	3.35
663.803	3.31
664.213	3.27
664.624	3.25
665.035	3.22
665.445	3.2
665.855	3.18
666.266	3.16
666.676	3.15
667.086	3.12
667.497	3.11
667.907	3.11
668.317	3.1
668.727	3.1
669.137	3.1
669.547	3.1
669.956	3.09
670.366	3.08
670.776	3.08
671.186	3.08
671.595	3.08
672.005	3.08
672.414	3.07
672.824	3.08
673.233	3.08
673.642	3.09
674.052	3.1
674.461	3.11
674.87	3.13
675.279	3.15
675.688	3.17
676.097	3.19
676.506	3.21
676.915	3.24
677.323	3.27
677.732	3.29
678.141	3.32
678.549	3.33
678.958	3.36
679.366	3.39
679.775	3.41
680.183	3.45
680.592	3.49
681	3.53
681.408	3.58
681.816	3.63
682.224	3.67
682.632	3.73
683.04	3.81
683.448	3.88
683.856	3.95
684.264	4.05
684.671	4.15
685.079	4.26
685.487	4.39
685.894	4.54
686.302	4.71
686.709	4.89
687.116	5.08
687.524	5.3
687.931	5.54
688.338	5.8
688.745	6.07
689.152	6.37
689.559	6.7
689.966	7.03
690.373	7.38
690.78	7.75
691.187	8.16
691.593	8.58
692	9.01
692.407	9.43
692.813	9.9
693.22	10.37
693.626	10.84
694.032	11.33
694.439	11.82
694.845	12.33
695.251	12.84
695.657	13.35
696.063	13.86
696.469	14.4
696.875	14.94
697.281	15.45
697.687	15.98
698.093	16.51
698.498	17.04
698.904	17.56
699.31	18.08
699.715	18.6
700.12	19.1
700.526	19.61
700.931	20.11
701.337	20.6
701.742	21.11
702.147	21.58
702.552	22.06
702.957	22.52
703.362	22.99
703.767	23.43
704.172	23.87
704.577	24.32
704.981	24.77
705.386	25.19
705.791	25.63
706.195	26.05
706.6	26.48
707.004	26.92
707.408	27.33
707.813	27.76
708.217	28.17
708.621	28.57
709.025	28.96
709.43	29.33
709.834	29.72
710.237	30.1
710.641	30.47
711.045	30.82
711.449	31.17
711.853	31.54
712.256	31.88
712.66	32.23
713.064	32.56
713.467	32.92
713.87	33.25
714.274	33.56
714.677	33.87
715.08	34.18
715.484	34.49
715.887	34.82
716.29	35.1
716.693	35.41
717.096	35.7
717.499	36
717.901	36.29
718.304	36.59
718.707	36.88
719.109	37.16
719.512	37.4
719.915	37.67
720.317	37.9
720.719	38.11
721.122	38.33
721.524	38.56
721.926	38.8
722.328	39.01
722.731	39.21
723.133	39.42
723.535	39.63
723.937	39.84
724.338	40.04
724.74	40.23
725.142	40.54
725.544	40.71
725.945	40.93
726.347	41.06
726.748	41.22
727.15	41.36
727.551	41.52
727.952	41.67
728.354	41.8
728.755	41.93
729.156	42.06
729.557	42.09
729.958	42.2
730.359	42.27
730.76	42.41
731.161	42.49
731.562	42.63
731.962	42.7
732.363	42.79
732.763	42.9
733.164	42.99
733.564	43.08
733.965	43.17
734.365	43.27
734.766	43.37
735.166	43.47
735.566	43.55
735.966	43.61
736.366	43.68
736.766	43.76
737.166	43.81
737.566	43.87
737.966	43.93
738.365	43.99
738.765	44.06
739.165	44.09
739.564	44.12
739.964	44.19
740.363	44.23
740.763	44.28
741.162	44.34
741.561	44.38
741.96	44.4
742.36	44.45
742.759	44.49
743.158	44.52
743.557	44.57
743.955	44.61
744.354	44.66
744.753	44.71
745.152	44.77
745.55	44.79
745.949	44.84
746.348	44.88
746.746	44.88
747.144	44.91
747.543	44.92
747.941	44.92
748.339	44.93
748.737	44.94
749.136	44.93
749.534	44.92
749.932	44.92
750.33	44.92
750.727	44.95
751.125	44.96
751.523	44.96
751.921	44.96
752.318	44.97
752.716	44.99
753.113	45.01
753.511	45.03
753.908	45.08
754.305	45.12
754.703	45.12
755.1	45.13
755.497	45.15
755.894	45.17
756.291	45.19
756.688	45.2
757.085	45.23
757.482	45.23
757.878	45.25
758.275	45.23
758.672	45.22
759.068	45.24
759.465	45.25
759.861	45.27
760.258	45.28
760.654	45.28
761.05	45.28
761.447	45.29
761.843	45.28
762.239	45.27
762.635	45.27
763.031	45.26
763.427	45.26
763.822	45.26
764.218	45.27
764.614	45.27
765.01	45.26
765.405	45.26
765.801	45.22
766.196	45.23
766.592	45.25
766.987	45.26
767.382	45.28
767.778	45.27
768.173	45.28
768.568	45.28
768.963	45.26
769.358	45.29
769.753	45.31
770.148	45.33
770.542	45.33
770.937	45.31
771.332	45.31
771.726	45.28
772.121	45.26
772.515	45.26
772.91	45.23
773.304	45.25
773.699	45.26
774.093	45.23
774.487	45.23
774.881	45.26
775.275	45.25
775.669	45.24
776.063	45.25
776.457	45.23
776.851	45.21
777.245	45.18
777.638	45.13
778.032	45.14
778.425	45.19
778.819	45.18
779.212	45.18
779.606	45.19
779.999	45.19
780.392	45.2
780.786	45.23
781.179	45.26
781.572	45.31
781.965	45.36
782.358	45.37
782.751	45.34
783.143	45.35
783.536	45.34
783.929	45.33
784.322	45.34
784.714	45.34
785.107	45.36
785.499	45.35
785.891	45.35
786.284	45.36
786.676	45.38
787.068	45.4
787.46	45.38
787.852	45.38
788.245	45.37
788.636	45.37
789.028	45.38
789.42	45.35
789.812	45.36
790.204	45.36
790.595	45.35
790.987	45.3
791.378	45.3
791.77	45.32
792.161	45.32
792.553	45.32
792.944	45.32
793.335	45.32
793.726	45.34
794.117	45.31
794.508	45.27
794.899	45.25
795.29	45.26
795.681	45.22
796.072	45.21
796.463	45.25
796.853	45.26
797.244	45.26
797.634	45.26
798.025	45.27
798.415	45.27
798.806	45.27
799.196	45.3
799.586	45.31
799.976	45.35
800.366	45.35
800.756	45.33
801.146	45.32
801.536	45.34
801.926	45.32
802.316	45.3
802.706	45.33
803.095	45.34
803.485	45.3
803.874	45.3
804.264	45.27
804.653	45.26
805.043	45.27
805.432	45.29
805.821	45.29
806.21	45.29
806.599	45.26
806.988	45.27
807.377	45.26
807.766	45.31
808.155	45.28
808.544	45.32
808.933	45.33
809.321	45.3
809.71	45.27
810.098	45.26
810.487	45.23
810.875	45.26
811.264	45.25
811.652	45.27
812.04	45.25
812.428	45.29
812.816	45.24
813.204	45.23
813.592	45.2
813.98	45.23
814.368	45.24
814.756	45.28
815.144	45.24
815.531	45.2
815.919	45.16
816.306	45.17
816.694	45.14
817.081	45.18
817.469	45.17
817.856	45.19
818.243	45.14
818.63	45.12
819.017	45.08
819.404	45.08
819.791	45.09
820.178	45.13
820.565	45.1
820.952	45.1
821.339	45.06
821.725	45.08
822.112	45.1
822.498	45.13
822.885	45.15
823.271	45.17
823.657	45.16
824.044	45.17
824.43	45.16
824.816	45.17
825.202	45.17
825.588	45.18
825.974	45.16
826.36	45.15
826.746	45.12
827.132	45.13
827.517	45.13
827.903	45.15
828.289	45.16
828.674	45.15
829.06	45.15
829.445	45.16
829.83	45.19
830.216	45.2
830.601	45.19
830.986	45.22
831.371	45.21
831.756	45.23
832.141	45.24
832.526	45.23
832.911	45.21
833.295	45.23
833.68	45.22
834.065	45.19
834.449	45.18
834.834	45.2
835.218	45.2
835.603	45.2
835.987	45.18
836.371	45.17
836.755	45.18
837.139	45.17
837.524	45.19
837.908	45.21
838.291	45.25
838.675	45.24
839.059	45.23
839.443	45.21
839.827	45.19
840.21	45.2
840.594	45.22
840.977	45.21
841.361	45.25
841.744	45.2
842.127	45.17
842.511	45.14
842.894	45.16
843.277	45.16
843.66	45.16
844.043	45.18
844.426	45.18
844.809	45.17
845.191	45.19
845.574	45.18
845.957	45.18
846.339	45.2
846.722	45.21
847.104	45.22
847.487	45.22
847.869	45.24
848.252	45.24
848.634	45.24
849.016	45.26
849.398	45.27
849.78	45.28
850.162	45.3
850.544	45.3
850.926	45.27
851.307	45.26
851.689	45.29
852.071	45.27
852.452	45.28
852.834	45.28
853.215	45.26
853.597	45.26
853.978	45.25
854.359	45.26
854.741	45.27
855.122	45.29
855.503	45.29
855.884	45.26
856.265	45.27
856.646	45.25
857.026	45.26
857.407	45.27
857.788	45.23
858.169	45.24
858.549	45.24
858.93	45.23
859.31	45.22
859.69	45.23
860.071	45.26
860.451	45.24
860.831	45.24
861.211	45.2
861.591	45.2
861.971	45.21
862.351	45.22
862.731	45.22
863.111	45.22
863.491	45.22
863.87	45.21
864.25	45.18
864.629	45.2
865.009	45.24
865.388	45.24
865.768	45.24
866.147	45.23
866.526	45.21
866.905	45.21
867.284	45.21
867.663	45.18
868.042	45.2
868.421	45.21
868.8	45.19
869.179	45.18
869.558	45.21
869.936	45.21
870.315	45.19
870.693	45.22
871.072	45.21
871.45	45.23
871.828	45.25
872.207	45.26
872.585	45.25
872.963	45.26
873.341	45.23
873.719	45.22
874.097	45.23
874.475	45.27
874.853	45.26
875.23	45.26
875.608	45.24
875.986	45.26
876.363	45.25
876.741	45.27
877.118	45.28
877.495	45.29
877.873	45.29
878.25	45.32
878.627	45.31
879.004	45.3
879.381	45.31
879.758	45.3
880.135	45.29
880.512	45.28
880.889	45.27
881.265	45.26
881.642	45.26
882.019	45.25
882.395	45.21
882.772	45.22
883.148	45.21
883.524	45.21
883.901	45.22
884.277	45.2
884.653	45.2
885.029	45.19
885.405	45.2
885.781	45.2
886.157	45.21
886.532	45.22
886.908	45.19
887.284	45.2
887.659	45.16
888.035	45.15
888.411	45.14
888.786	45.14
889.161	45.13
889.537	45.12
889.912	45.12
890.287	45.12
890.662	45.09
891.037	45.12
891.412	45.11
891.787	45.13
892.162	45.14
892.536	45.16
892.911	45.17
893.286	45.16
893.66	45.16
894.035	45.17
894.409	45.14
894.784	45.17
895.158	45.16
895.532	45.17
895.906	45.16
896.281	45.18
896.655	45.17
897.029	45.17
897.402	45.18
897.776	45.2
898.15	45.21
898.524	45.27
898.898	45.28
899.271	45.29
899.645	45.28
900.018	45.31
900.392	45.29
900.765	45.32
901.138	45.35
901.511	45.34
901.884	45.35
902.258	45.36
902.631	45.33
903.003	45.31
903.376	45.32
903.749	45.32
904.122	45.32
904.495	45.33
904.867	45.33
905.24	45.32
905.612	45.33
905.985	45.28
906.357	45.28
906.729	45.28
907.102	45.29
907.474	45.29
907.846	45.29
908.218	45.29
908.59	45.3
908.962	45.29
909.334	45.27
909.705	45.29
910.077	45.3
910.449	45.3
910.82	45.3
911.192	45.31
911.563	45.29
911.935	45.29
912.306	45.3
912.677	45.3
913.048	45.31
913.419	45.33
913.79	45.34
914.161	45.38
914.532	45.4
914.903	45.43
915.274	45.45
915.645	45.47
916.015	45.47
916.386	45.49
916.756	45.49
917.127	45.49
917.497	45.47
917.868	45.46
918.238	45.44
918.608	45.45
918.978	45.42
919.348	45.42
919.718	45.4
920.088	45.4
920.458	45.37
920.828	45.34
921.198	45.3
921.567	45.3
921.937	45.3
922.306	45.31
922.676	45.29
923.045	45.28
923.415	45.26
923.784	45.27
924.153	45.26
924.522	45.27
924.891	45.29
925.26	45.33
925.629	45.34
925.998	45.33
926.367	45.32
926.736	45.32
927.104	45.34
927.473	45.33
927.842	45.29
928.21	45.29
928.578	45.28
928.947	45.28
929.315	45.23
929.683	45.21
930.051	45.19
930.42	45.19
930.788	45.15
931.156	45.13
931.523	45.18
931.891	45.25
932.259	45.25
932.627	45.29
932.994	45.32
933.362	45.34
933.729	45.38
934.097	45.39
934.464	45.47
934.831	45.51
935.199	45.54
935.566	45.52
935.933	45.49
936.3	45.51
936.667	45.49
937.034	45.49
937.401	45.55
937.767	45.55
938.134	45.57
938.501	45.52
938.867	45.51
939.234	45.5
939.6	45.5
939.967	45.54
940.333	45.48
940.699	45.5
941.065	45.41
941.431	45.36
941.798	45.3
942.163	45.26
942.529	45.2
942.895	45.17
943.261	45.1
943.627	45.08
943.992	45.04
944.358	45.03
944.723	44.97
945.089	44.97
945.454	44.97
945.82	44.93
946.185	44.96
946.55	44.94
946.915	44.91
947.28	44.91
947.645	44.85
948.01	44.84
948.375	44.85
948.74	44.87
949.104	44.85
949.469	44.82
949.834	44.81
950.198	44.77
950.562	44.76
950.927	44.75
951.291	44.67
951.655	44.68
952.02	44.65
952.384	44.62
952.748	44.59
953.112	44.64
953.476	44.57
953.839	44.53
954.203	44.54
954.567	44.54
954.931	44.51
955.294	44.54
955.658	44.61
956.021	44.59
956.385	44.55
956.748	44.54
957.111	44.5
957.474	44.59
957.837	44.6
958.2	44.54
958.563	44.51
958.926	44.54
959.289	44.58
959.652	44.5
960.015	44.56
960.377	44.57
960.74	44.57
961.102	44.54
961.465	44.53
961.827	44.63
962.189	44.72
962.552	44.74
962.914	44.71
963.276	44.75
963.638	44.76
964	44.72
964.362	44.71
964.724	44.7
965.085	44.71
965.447	44.69
965.809	44.6
966.17	44.52
966.532	44.52
966.893	44.59
967.255	44.54
967.616	44.55
967.977	44.53
968.338	44.58
968.699	44.6
969.061	44.6
969.421	44.6
969.782	44.6
970.143	44.63
970.504	44.66
970.865	44.64
971.225	44.62
971.586	44.59
971.946	44.63
972.307	44.6
972.667	44.59
973.027	44.58
973.388	44.52
973.748	44.59
974.108	44.67
974.468	44.6
974.828	44.63
975.188	44.66
975.548	44.66
975.907	44.64
976.267	44.65
976.627	44.73
976.986	44.76
977.346	44.81
977.705	44.77
978.064	44.72
978.424	44.8
978.783	44.74
979.142	44.75
979.501	44.81
979.86	44.82
980.219	44.84
980.578	44.81
980.937	44.88
981.296	44.83
981.654	44.83
982.013	44.82
982.371	44.77
982.73	44.82
983.088	44.79
983.447	44.74
983.805	44.8
984.163	44.75
984.521	44.67
984.879	44.58
985.237	44.66
985.595	44.69
985.953	44.64
986.311	44.63
986.669	44.65
987.026	44.67
987.384	44.73
987.741	44.67
988.099	44.79
988.456	44.88
988.814	44.91
989.171	44.89
989.528	44.89
989.885	44.91
990.242	44.92
990.599	44.89
990.956	44.97
991.313	44.93
991.67	44.98
992.027	45.06
992.383	45.03
992.74	45.16
993.096	45.18
993.453	45.2
993.809	45.25
994.165	45.34
994.522	45.41
994.878	45.33
995.234	45.39
995.59	45.3
995.946	45.24
996.302	45.3
996.658	45.21
997.013	45.17
997.369	45.12
997.725	45.09
998.08	45.09
998.436	45.03
998.791	45.11
999.147	45.04
999.502	45.14
999.857	45.15
1000.212	45.03
1000.567	45.09
1000.922	45.09
1001.277	45.15
1001.632	45.09
1001.987	45.05
1002.342	45
1002.696	44.99
1003.051	45.17
1003.406	45.27
1003.76	45.21
1004.114	45.29
1004.469	45.3
1004.823	45.68
1005.177	45.67
1005.531	45.78
1005.885	45.78
1006.239	45.8
1006.593	45.85
1006.947	45.71
1007.301	45.57
1007.655	45.51
1008.008	45.52
1008.362	45.55
1008.715	45.22
1009.069	45.39
1009.422	45.45
1009.776	45.48
1010.129	45.47
1010.482	45.4
1010.835	45.52
1011.188	45.68
1011.541	45.85
1011.894	46
1012.247	46.01
1012.6	46.02
1012.952	45.79
1013.305	45.81
1013.657	45.95
1014.01	46.05
1014.362	46.05
1014.715	46.14
1015.067	46.13
1015.419	46.03
1015.771	45.89
1016.123	45.79
1016.475	46.03
1016.827	46.23
1017.179	46.28
1017.531	46.34
1017.883	46.35
1018.234	46.54
1018.586	46.6
1018.938	46.67
1019.289	46.81
1019.64	46.88
1019.992	46.93
1020.343	46.72
1020.694	46.8
1021.045	46.85
1021.396	46.69
1021.747	46.93
1022.098	46.74
1022.449	46.51
1022.8	46.67
1023.151	46.47
1023.501	46.78
1023.852	47.02
1024.202	47.09
1024.553	46.84
1024.903	46.85
1025.253	46.89
1025.604	46.59
1025.954	46.46
1026.304	46.69
1026.654	46.48
1027.004	46.5
1027.354	46.09
1027.703	45.79
1028.053	45.65
1028.403	45.97
1028.753	45.82
1029.102	46
1029.452	46.32
1029.801	46.79
1030.15	46.64
1030.499	46.57
897.758	1247.48
901.051	1252.85
904.343	1250.32
907.636	1273.3
910.928	1240.11
914.22	1240.17
917.511	1221.05
920.803	1166.98
924.094	1161.88
927.384	1139.14
930.675	1092.29
933.965	1084.44
937.255	1023.02
940.544	981.49
943.834	934.38
947.123	926.33
950.411	872.62
953.7	856.69
956.988	812.12
960.276	778.82
963.563	766.86
966.851	740.11
970.138	734.46
973.424	711.7
976.711	715.47
979.997	678.76
983.283	674.6
986.568	660.59
989.853	639.65
993.138	629.09
996.423	604.77
999.708	585.87
1002.992	579.78
1006.275	554.06
1009.559	548.6
1012.842	529.55
1016.125	517.22
1019.408	508.29
1022.69	499.53
1025.972	491.02
1029.254	478.87
1032.536	471.59
1035.817	462.63
1039.098	456.46
1042.379	447.57
1045.659	441.91
1048.939	430.89
1052.219	421.3
1055.498	414.67
1058.778	405.66
1062.057	395.49
1065.335	391.38
1068.614	387.5
1071.892	382.98
1075.17	370.44
1078.447	363.27
1081.724	360.56
1085.001	358.74
1088.278	351.64
1091.554	345.18
1094.83	345.18
1098.106	343.65
1101.382	340.51
1104.657	337.7
1107.932	332.79
1111.206	335.23
1114.481	326.39
1117.755	323.58
1121.029	320.27
1124.302	320.7
1127.575	313.89
1130.848	310.92
1134.121	306.04
1137.393	304.64
1140.665	298.09
1143.937	295.46
1147.208	293.82
1150.48	293.3
1153.75	290.34
1157.021	285.73
1160.291	285.32
1163.561	282.62
1166.831	282.82
1170.101	281.48
1173.37	280.27
1176.639	281.33
1179.907	279.17
1183.176	275.57
1186.444	275.81
1189.711	274.92
1192.979	274.55
1196.246	272.58
1199.513	274.51
1202.78	271.52
1206.046	271.67
1209.312	269.82
1212.578	269.67
1215.843	271.94
1219.108	270.68
1222.373	275.46
1225.638	277.54
1228.902	281.37
1232.166	281.79
1235.43	282.81
1238.693	287.99
1241.956	289.15
1245.219	293.47
1248.482	293.23
1251.744	292.96
1255.006	293.4
1258.268	286.92
1261.529	284.04
1264.79	282.66
1268.051	280.94
1271.312	277.24
1274.572	274.42
1277.832	271.56
1281.092	267.04
1284.351	265.28
1287.61	265.2
1290.869	261.47
1294.128	259.89
1297.386	259.49
1300.644	256.02
1303.902	256.56
1307.159	257.33
1310.416	256.54
1313.673	256.43
1316.93	259.21
1320.186	258.78
1323.442	259.74
1326.697	263.9
1329.953	264.71
1333.208	266.32
1336.463	269.46
1339.717	270.39
1342.972	271.93
1346.226	274.65
1349.479	275.41
1352.733	276.12
1355.986	278.46
1359.238	277.25
1362.491	279.41
1365.743	282.03
1368.995	282.07
1372.247	281.44
1375.498	281.2
1378.749	284.12
1382	280.68
1385.251	281.55
1388.501	279.6
1391.751	280.12
1395	279.18
1398.25	276.91
1401.499	274.44
1404.748	273.61
1407.996	271.44
1411.244	270.02
1414.492	268.17
1417.74	265.25
1420.987	261.14
1424.234	260.57
1427.481	257.68
1430.728	257.17
1433.974	254.86
1437.22	252.89
1440.465	251.8
1443.711	249.49
1446.956	247.4
1450.201	244.32
1453.445	241.82
1456.689	241.1
1459.933	237.77
1463.177	235.02
1466.42	231.45
1469.663	228.05
1472.906	227.01
1476.148	221.56
1479.391	218.68
1482.633	217.27
1485.874	213.5
1489.115	212.3
1492.356	209.9
1495.597	208.81
1498.838	206.38
1502.078	205.42
1505.318	204.73
1508.557	204.21
1511.797	204.13
1515.036	203.21
1518.274	202.52
1521.513	201.48
1524.751	201.05
1527.989	200.48
1531.227	199.73
1534.464	199.76
1537.701	198.27
1540.938	197.98
1544.174	196.33
1547.41	195.92
1550.646	194.82
1553.882	195
1557.117	192.23
1560.352	191.47
1563.587	190.78
1566.821	189.62
1570.055	188.29
1573.289	186.98
1576.523	186.73
1579.756	184.77
1582.989	183.69
1586.222	183.52
1589.454	182.17
1592.686	183.51
1595.918	182.56
1599.15	182.14
1602.381	182.74
1605.612	182.1
1608.843	182.75
1612.073	182.47
1615.303	183.87
1618.533	184.02
1621.762	183.88
1624.992	184.56
1628.221	183.95
1631.449	184.18
1634.678	183.88
1637.906	184.57
1641.134	184.78
1644.361	184.44
1647.588	184.84
1650.815	183.81
1654.042	183.34
1657.269	184.31
1660.495	184.23
1663.72	184.18
1666.946	184.48
1670.171	184.94
1673.396	184.5
1676.621	184.86
1679.845	184.75
1683.069	184.78
1686.293	186.16
1689.517	187.39
1692.74	187.3
1695.963	187.58
1699.185	189.37
1702.408	189.3
1705.63	190.18
1708.852	190.92
1712.073	190.31
1715.294	191.41
1718.515	192.54
1721.736	191.95
1724.956	192.4
1728.176	192.52
1731.396	193.79
1734.616	192.61
1737.835	193.58
1741.054	192.1
1744.272	192.21
1747.491	194.68
1750.709	194.79
1753.927	194.44
1757.144	194.24
1760.361	194.47
1763.578	194.97
1766.795	194.68
1770.011	196.06
1773.227	196.24
1776.443	198.5
1779.658	199.48
1782.874	198.69
1786.089	199.25
1789.303	199.9
1792.518	202.5
1795.732	202.31
1798.945	203.85
1802.159	204.43
1805.372	205.34
1808.585	208.41
1811.797	209.21
1815.01	209.92
1818.222	211.87
1821.434	213.38
1824.645	213.89
1827.856	217.17
1831.067	218.85
1834.278	219.39
1837.488	220.68
1840.698	222.12
1843.908	220.08
1847.117	221.09
1850.326	221.71
1853.535	221.19
1856.744	224.59
1859.952	224.15
1863.16	222.24
1866.368	221.29
1869.575	222.62
1872.782	219.26
1875.989	218.22
1879.196	217.45
1882.402	215.6
1885.608	216.33
1888.814	216.19
1892.019	215.44
1895.224	215.03
1898.429	214.41
1901.634	215.27
1904.838	215.47
1908.042	217.37
1911.246	217.72
1914.449	219.01
1917.652	219.64
1920.855	218.92
1924.058	219.16
1927.26	217.82
1930.462	218.64
1933.664	221.04
1936.865	219.28
1940.066	218.92
1943.267	217.96
1946.467	217.7
1949.668	218.93
1952.868	221.36
1956.067	221.63
1959.267	221.85
1962.466	222.82
1965.665	221.79
1968.863	221.7
1972.061	225.14
1975.259	226.44
1978.457	228.19
1981.654	231.72
1984.852	232.21
1988.048	231.57
1991.245	233.96
1994.441	236.16
1997.637	237.47
2000.833	242.28
2004.028	245.7
2007.223	246.99
2010.418	249.84
2013.613	254.17
2016.807	255.83
2020.001	258.13
2023.194	262.72
2026.388	268.74
2029.581	274.74
2032.774	277.84
2035.966	282.92
2039.158	283.5
2042.35	289.04
2045.542	290.24
2048.733	294.99
2051.924	299.11
2055.115	303.89
2058.306	303.82
2061.496	306.33
2064.686	306.55
2067.875	312.15
2071.065	313.29
2074.254	311.73
2077.442	315
2080.631	317.47
2083.819	320.22
2087.007	320.7
2090.195	324.83
2093.382	327.99
2096.569	325.67
2099.756	330.46
2102.942	330.93
2106.128	334.62
2109.314	341.85
2112.5	340.75
2115.685	348.22
2118.87	348.59
2122.055	355.15
2125.239	357.57
2128.424	362.05
2131.608	366.47
2134.791	371.85
2137.974	373.29
2141.157	373.44
2144.34	375.48
2147.523	380.93
2150.705	378.28
2153.887	382.59
2157.068	383.14
2160.25	379.43
2163.431	380.58
2166.611	383.84
2169.792	391.2
2172.972	395.11
2176.152	397.9
2179.331	401.75
2182.511	408.88
2185.69	413.11
2188.868	421.15
2192.047	422.31
2195.225	435.21
2198.403	446.02
2201.58	453.84
2204.758	460.94
2207.935	472.02
2211.111	480.83
2214.288	487.55
2217.464	488.48
2220.64	496.67
2223.815	503.31
2226.991	522.27
2230.166	522.11
2233.34	531.48
2236.515	539.85
2239.689	541.76
2242.863	543.91
2246.036	559.72
2249.209	556.81
2252.382	565.31
2255.555	583.33
2258.727	584.81
2261.9	589.88
2265.071	597.42
2268.243	605.23
2271.414	613.33
2274.585	625.57
2277.756	631.44
2280.926	634.88
2284.096	648.17
2287.266	662.38
2290.436	664.76
2293.605	680.56
2296.774	700.09
2299.942	721.42
2303.111	728.03
2306.279	741.34
2309.447	753.06
2312.614	771.92
2315.781	793.84
2318.948	830.99
2322.115	819.21
2325.281	865.44
2328.447	848.48
2331.613	884.1
2334.779	873.19
2337.944	910.28
2341.109	920.73
2344.274	946.63
2347.438	979.14
2350.602	978.53
2353.766	1007.38
2356.929	1023.58
2360.092	1013.44
2363.255	1087.9
2366.418	1083.07
2369.58	1106.87
2372.742	1168.88
2375.904	1201.34
2379.066	1193.56
2382.227	1171.43
2385.388	1276.61
2388.548	1274.22
2391.709	1288.04
2394.869	1433.49
2398.029	1371.95
2401.188	1408.73
2404.347	1398.57
2407.506	1381.19
2410.665	1420.78
2413.823	1506.69
2416.981	1597.32
2420.139	1537.37
2423.296	1525.63
2426.453	1590.8
2429.61	1534.99
2432.767	1601.41
2435.923	1589.61
2439.079	1741.34
2442.235	1759.02
2445.391	1738.68
2448.546	1722.92
2451.701	1672.91
2454.855	1674.19
2458.009	1767.3
2461.163	1850.09
2464.317	1910.39
2467.471	1958.82
2470.624	1963.46
2473.777	1904.65
2476.929	1864.36
2480.082	1813.16
2483.234	1795.2
2486.385	1885.92
2489.537	1894.59
2492.688	1971.12
2495.839	1909.59
2498.989	1874.47
2502.14	1887.83
2505.29	1896.43
2508.439	1935.4
2511.589	1926
2514.738	2099.62
2517.887	2049.36
2521.035	2164.21
2524.183	2177.42
2527.331	2194.59
2530.479	2184.52
2533.627	2196.1
