Data from C_1_HIR_IL_4N_Splice17_12-49-41-852.txt Node
Date: Sat Mar 07 12:49:41 EST 2020
User: sa697716
Spectrometer: NQ5500242
Trigger mode: 0
Integration Time (sec): 1.450000E-1
Scans to average: 20
Nonlinearity correction enabled: false
Boxcar width: 5
Storing dark spectrum: false
XAxis mode: Wavelengths
Number of Pixels in Spectrum: 512
>>>>>Begin Spectral Data<<<<<
187.83	58.85
188.298	65.21
188.766	50.76
189.233	53.76
189.701	56.17
190.169	64.16
190.636	49.47
191.104	-111.32
191.571	-261.63
192.039	-406.24
192.506	-793.13
192.974	201.03
193.441	211.33
193.908	58.48
194.375	32
194.842	-12.82
195.31	-46.45
195.777	-333.14
196.244	-16.16
196.711	24.77
197.177	30.7
197.644	32.39
198.111	32.26
198.578	33.37
199.045	34
199.511	34.21
199.978	34.55
200.445	35.11
200.911	35.26
201.378	35.68
201.844	35.64
202.31	35.54
202.777	35.43
203.243	35.8
203.709	35.76
204.176	35.59
204.642	35.66
205.108	35.65
205.574	35.69
206.04	35.58
206.506	35.15
206.972	34.95
207.438	34.6
207.903	34.35
208.369	33.63
208.835	33.09
209.301	32.43
209.766	31.6
210.232	30.79
210.697	29.74
211.163	29.18
211.628	28.66
212.094	28.04
212.559	27.81
213.024	27.25
213.49	26.84
213.955	26.09
214.42	25.66
214.885	25.26
215.35	24.53
215.815	23.61
216.28	22.14
216.745	20.73
217.21	19.5
217.675	18.12
218.14	17.07
218.604	16.12
219.069	15.42
219.534	14.76
219.998	14.2
220.463	13.8
220.927	13.34
221.392	13.05
221.856	12.75
222.32	12.51
222.785	12.31
223.249	12.12
223.713	11.92
224.177	11.75
224.642	11.57
225.106	11.36
225.57	11.16
226.034	11.01
226.497	10.87
226.961	10.74
227.425	10.59
227.889	10.45
228.353	10.31
228.816	10.17
229.28	10.03
229.744	9.93
230.207	9.82
230.671	9.7
231.134	9.58
231.597	9.49
232.061	9.38
232.524	9.28
232.987	9.17
233.45	9.08
233.914	8.97
234.377	8.88
234.84	8.78
235.303	8.71
235.766	8.65
236.229	8.56
236.691	8.47
237.154	8.38
237.617	8.32
238.08	8.24
238.542	8.17
239.005	8.11
239.468	8.04
239.93	7.96
240.393	7.88
240.855	7.8
241.317	7.73
241.78	7.66
242.242	7.59
242.704	7.52
243.166	7.46
243.629	7.39
244.091	7.32
244.553	7.25
245.015	7.21
245.477	7.15
245.939	7.1
246.4	7.05
246.862	7
247.324	6.96
247.786	6.9
248.247	6.84
248.709	6.79
249.17	6.73
249.632	6.7
250.093	6.64
250.555	6.59
251.016	6.54
251.477	6.49
251.939	6.45
252.4	6.42
252.861	6.39
253.322	6.35
253.783	6.31
254.244	6.29
254.705	6.25
255.166	6.22
255.627	6.18
256.088	6.15
256.549	6.13
257.009	6.08
257.47	6.04
257.931	6
258.391	5.96
258.852	5.92
259.312	5.89
259.773	5.86
260.233	5.84
260.694	5.81
261.154	5.78
261.614	5.74
262.074	5.72
262.534	5.69
262.994	5.67
263.455	5.65
263.915	5.63
264.374	5.61
264.834	5.59
265.294	5.56
265.754	5.54
266.214	5.53
266.673	5.52
267.133	5.5
267.593	5.49
268.052	5.48
268.512	5.47
268.971	5.46
269.431	5.44
269.89	5.43
270.349	5.42
270.809	5.4
271.268	5.38
271.727	5.36
272.186	5.35
272.645	5.34
273.104	5.32
273.563	5.3
274.022	5.28
274.481	5.27
274.94	5.25
275.399	5.24
275.857	5.22
276.316	5.2
276.775	5.19
277.233	5.17
277.692	5.16
278.15	5.14
278.609	5.13
279.067	5.12
279.525	5.1
279.984	5.08
280.442	5.07
280.9	5.06
281.358	5.05
281.816	5.04
282.274	5.03
282.732	5.01
283.19	5
283.648	4.98
284.106	4.96
284.564	4.96
285.021	4.95
285.479	4.93
285.937	4.91
286.394	4.9
286.852	4.88
287.309	4.86
287.767	4.85
288.224	4.83
288.682	4.82
289.139	4.79
289.596	4.78
290.053	4.75
290.511	4.74
290.968	4.72
291.425	4.7
291.882	4.69
292.339	4.67
292.796	4.66
293.252	4.65
293.709	4.63
294.166	4.62
294.623	4.61
295.079	4.6
295.536	4.59
295.992	4.57
296.449	4.56
296.905	4.55
297.362	4.53
297.818	4.52
298.274	4.51
298.731	4.5
299.187	4.48
299.643	4.46
300.099	4.46
300.555	4.44
301.011	4.43
301.467	4.42
301.923	4.41
302.379	4.4
302.835	4.39
303.291	4.38
303.746	4.36
304.202	4.36
304.658	4.35
305.113	4.34
305.569	4.33
306.024	4.32
306.479	4.31
306.935	4.29
307.39	4.29
307.845	4.28
308.301	4.27
308.756	4.27
309.211	4.27
309.666	4.27
310.121	4.27
310.576	4.26
311.031	4.26
311.486	4.26
311.94	4.26
312.395	4.26
312.85	4.26
313.305	4.25
313.759	4.23
314.214	4.22
314.668	4.2
315.123	4.2
315.577	4.19
316.032	4.19
316.486	4.18
316.94	4.17
317.394	4.16
317.849	4.14
318.303	4.13
318.757	4.12
319.211	4.11
319.665	4.09
320.119	4.07
320.572	4.05
321.026	4.04
321.48	4.03
321.934	4.01
322.387	4
322.841	3.99
323.295	3.99
323.748	3.99
324.202	3.98
324.655	3.98
325.108	3.98
325.562	3.97
326.015	3.96
326.468	3.96
326.921	3.95
327.374	3.95
327.827	3.95
328.28	3.94
328.733	3.94
329.186	3.93
329.639	3.92
330.092	3.92
330.545	3.91
330.997	3.91
331.45	3.92
331.903	3.92
332.355	3.93
332.808	3.93
333.26	3.92
333.713	3.92
334.165	3.92
334.617	3.92
335.069	3.92
335.522	3.92
335.974	3.92
336.426	3.91
336.878	3.9
337.33	3.89
337.782	3.89
338.234	3.88
338.686	3.88
339.137	3.89
339.589	3.87
340.041	3.87
340.493	3.86
340.944	3.84
341.396	3.83
341.847	3.82
342.299	3.8
342.75	3.78
343.201	3.76
343.653	3.75
344.104	3.73
344.555	3.72
345.006	3.71
345.457	3.7
345.908	3.69
346.359	3.69
346.81	3.68
347.261	3.67
347.712	3.67
348.163	3.66
348.613	3.66
349.064	3.66
349.515	3.65
349.965	3.65
350.416	3.64
350.866	3.64
351.317	3.63
351.767	3.63
352.217	3.63
352.668	3.62
353.118	3.63
353.568	3.63
354.018	3.62
354.468	3.62
354.918	3.62
355.368	3.63
355.818	3.64
356.268	3.64
356.718	3.64
357.168	3.63
357.617	3.62
358.067	3.62
358.517	3.62
358.966	3.61
359.416	3.61
359.865	3.6
360.315	3.6
360.764	3.59
361.213	3.58
361.663	3.57
362.112	3.58
362.561	3.59
363.01	3.58
363.459	3.57
363.908	3.57
364.357	3.57
364.806	3.57
365.255	3.56
365.703	3.56
366.152	3.57
366.601	3.58
367.05	3.57
367.498	3.56
367.947	3.57
368.395	3.58
368.844	3.58
369.292	3.58
369.74	3.59
370.189	3.59
370.637	3.58
371.085	3.57
371.533	3.57
371.981	3.57
372.429	3.58
372.877	3.58
373.325	3.58
373.773	3.58
374.221	3.57
374.669	3.58
375.116	3.57
375.564	3.58
376.012	3.59
376.459	3.6
376.907	3.61
377.354	3.62
377.801	3.63
378.249	3.65
378.696	3.66
379.143	3.67
379.591	3.68
380.038	3.69
380.485	3.7
380.932	3.71
381.379	3.71
381.826	3.73
382.273	3.73
382.72	3.73
383.166	3.73
383.613	3.73
384.06	3.74
384.506	3.74
384.953	3.75
385.4	3.77
385.846	3.78
386.292	3.8
386.739	3.8
387.185	3.82
387.631	3.83
388.078	3.85
388.524	3.86
388.97	3.88
389.416	3.9
389.862	3.92
390.308	3.94
390.754	3.97
391.2	3.98
391.645	3.99
392.091	4.01
392.537	4.03
392.983	4.05
393.428	4.07
393.874	4.09
394.319	4.11
394.765	4.12
395.21	4.12
395.655	4.13
396.101	4.16
396.546	4.16
396.991	4.19
397.436	4.2
397.881	4.22
398.326	4.24
398.771	4.26
399.216	4.27
399.661	4.29
400.106	4.3
400.551	4.31
400.995	4.31
401.44	4.32
401.885	4.32
402.329	4.32
402.774	4.33
403.218	4.33
403.663	4.33
404.107	4.34
404.551	4.35
404.995	4.35
405.44	4.36
405.884	4.37
406.328	4.37
406.772	4.39
407.216	4.39
407.66	4.4
408.104	4.4
408.547	4.41
408.991	4.41
409.435	4.4
409.879	4.4
410.322	4.41
410.766	4.42
411.209	4.44
411.653	4.44
412.096	4.45
412.54	4.45
412.983	4.45
413.426	4.47
413.869	4.49
414.312	4.51
414.756	4.52
415.199	4.51
415.642	4.51
416.085	4.51
416.527	4.5
416.97	4.49
417.413	4.48
417.856	4.48
418.298	4.46
418.741	4.45
419.184	4.45
419.626	4.44
420.069	4.46
420.511	4.46
420.953	4.46
421.396	4.47
421.838	4.47
422.28	4.48
422.722	4.49
423.164	4.49
423.606	4.49
424.048	4.49
424.49	4.5
424.932	4.48
425.374	4.47
425.816	4.44
426.258	4.43
426.699	4.41
427.141	4.4
427.582	4.4
428.024	4.4
428.465	4.41
428.907	4.4
429.348	4.37
429.789	4.36
430.231	4.37
430.672	4.39
431.113	4.41
431.554	4.43
431.995	4.43
432.436	4.42
432.877	4.43
433.318	4.43
433.759	4.45
434.2	4.47
434.64	4.5
435.081	4.51
435.522	4.53
435.962	4.54
436.403	4.55
436.843	4.57
437.284	4.59
437.724	4.6
438.164	4.59
438.604	4.61
439.045	4.61
439.485	4.61
439.925	4.61
440.365	4.6
440.805	4.6
441.245	4.62
441.685	4.63
442.125	4.64
442.564	4.64
443.004	4.64
443.444	4.64
443.883	4.64
444.323	4.63
444.762	4.63
445.202	4.64
445.641	4.66
446.081	4.67
446.52	4.67
446.959	4.67
447.398	4.69
447.837	4.71
448.276	4.72
448.716	4.74
449.154	4.78
449.593	4.8
450.032	4.8
450.471	4.79
450.91	4.79
451.349	4.8
451.787	4.8
452.226	4.79
452.664	4.8
453.103	4.78
453.541	4.79
453.98	4.79
454.418	4.77
454.856	4.78
455.295	4.77
455.733	4.74
456.171	4.74
456.609	4.74
457.047	4.72
457.485	4.7
457.923	4.71
458.361	4.69
458.798	4.7
459.236	4.69
459.674	4.69
460.111	4.69
460.549	4.7
460.987	4.71
461.424	4.71
461.862	4.72
462.299	4.73
462.736	4.72
463.173	4.72
463.611	4.71
464.048	4.72
464.485	4.72
464.922	4.73
465.359	4.74
465.796	4.75
466.233	4.76
466.67	4.76
467.106	4.77
467.543	4.77
467.98	4.78
468.416	4.76
468.853	4.78
469.29	4.77
469.726	4.77
470.162	4.76
470.599	4.75
471.035	4.73
471.471	4.73
471.907	4.72
472.344	4.72
472.78	4.73
473.216	4.72
473.652	4.71
474.088	4.71
474.523	4.71
474.959	4.7
475.395	4.69
475.831	4.69
476.266	4.69
476.702	4.68
477.138	4.67
477.573	4.67
478.008	4.68
478.444	4.67
478.879	4.67
479.314	4.66
479.75	4.66
480.185	4.65
480.62	4.65
481.055	4.64
481.49	4.64
481.925	4.63
482.36	4.62
482.795	4.62
483.229	4.62
483.664	4.62
484.099	4.62
484.534	4.61
484.968	4.6
485.403	4.61
485.837	4.62
486.271	4.63
486.706	4.64
487.14	4.65
487.574	4.66
488.009	4.66
488.443	4.67
488.877	4.69
489.311	4.72
489.745	4.75
490.179	4.77
490.613	4.79
491.046	4.82
491.48	4.85
491.914	4.88
492.348	4.91
492.781	4.96
493.215	5
493.648	5.04
494.082	5.08
494.515	5.12
494.948	5.17
495.382	5.21
495.815	5.26
496.248	5.31
496.681	5.38
497.114	5.44
497.547	5.5
497.98	5.57
498.413	5.63
498.846	5.71
499.279	5.78
499.711	5.87
500.144	5.97
500.577	6.05
501.009	6.14
501.442	6.24
501.874	6.34
502.306	6.45
502.739	6.58
503.171	6.7
503.603	6.83
504.036	6.97
504.468	7.11
504.9	7.24
505.332	7.39
505.764	7.55
506.196	7.71
506.627	7.88
507.059	8.05
507.491	8.23
507.923	8.41
508.354	8.6
508.786	8.8
509.217	9.01
509.649	9.23
510.08	9.47
510.512	9.71
510.943	9.94
511.374	10.17
511.805	10.42
512.237	10.67
512.668	10.93
513.099	11.19
513.53	11.44
513.961	11.69
514.391	11.97
514.822	12.24
515.253	12.49
515.684	12.78
516.114	13.06
516.545	13.35
516.975	13.64
517.406	13.93
517.836	14.22
518.267	14.54
518.697	14.84
519.127	15.14
519.558	15.44
519.988	15.74
520.418	16.04
520.848	16.32
521.278	16.61
521.708	17.02
522.138	17.28
522.567	17.56
522.997	17.8
523.427	18.06
523.857	18.31
524.286	18.54
524.716	18.79
525.145	19.02
525.575	19.26
526.004	19.48
526.433	19.56
526.863	19.77
527.292	19.97
527.721	20.16
528.15	20.34
528.579	20.52
529.008	20.69
529.437	20.84
529.866	20.98
530.295	21.12
530.724	21.26
531.152	21.4
531.581	21.54
532.01	21.67
532.438	21.8
532.867	21.94
533.295	22.05
533.723	22.15
534.152	22.26
534.58	22.37
535.008	22.45
535.436	22.53
535.865	22.6
536.293	22.67
536.721	22.73
537.149	22.81
537.576	22.86
538.004	22.92
538.432	22.98
538.86	23.04
539.287	23.08
539.715	23.14
540.143	23.2
540.57	23.24
540.998	23.27
541.425	23.32
541.852	23.35
542.28	23.4
542.707	23.43
543.134	23.49
543.561	23.51
543.988	23.54
544.415	23.57
544.842	23.6
545.269	23.64
545.696	23.69
546.123	23.72
546.549	23.74
546.976	23.77
547.403	23.8
547.829	23.8
548.256	23.82
548.682	23.84
549.108	23.87
549.535	23.91
549.961	23.92
550.387	23.92
550.813	23.92
551.24	23.93
551.666	23.91
552.092	23.9
552.518	23.9
552.943	23.89
553.369	23.87
553.795	23.83
554.221	23.79
554.646	23.74
555.072	23.69
555.498	23.63
555.923	23.57
556.349	23.51
556.774	23.46
557.199	23.38
557.625	23.31
558.05	23.24
558.475	23.17
558.9	23.1
559.325	23.03
559.75	22.94
560.175	22.87
560.6	22.77
561.025	22.68
561.449	22.56
561.874	22.46
562.299	22.34
562.723	22.22
563.148	22.09
563.572	21.94
563.997	21.8
564.421	21.65
564.846	21.49
565.27	21.35
565.694	21.21
566.118	21.06
566.542	20.9
566.966	20.75
567.39	20.59
567.814	20.44
568.238	20.28
568.662	20.13
569.086	19.98
569.509	19.85
569.933	19.7
570.357	19.55
570.78	19.38
571.204	19.24
571.627	19.1
572.05	18.95
572.474	18.82
572.897	18.69
573.32	18.56
573.743	18.42
574.166	18.29
574.589	18.16
575.012	18.03
575.435	17.92
575.858	17.77
576.281	17.65
576.704	17.55
577.126	17.44
577.549	17.34
577.972	17.23
578.394	17.13
578.817	17.03
579.239	16.93
579.661	16.85
580.084	16.75
580.506	16.68
580.928	16.58
581.35	16.49
581.772	16.39
582.194	16.29
582.616	16.22
583.038	16.14
583.46	16.05
583.882	15.97
584.303	15.88
584.725	15.81
585.147	15.74
585.568	15.68
585.99	15.6
586.411	15.53
586.833	15.48
587.254	15.39
587.675	15.33
588.096	15.28
588.518	15.22
588.939	15.18
589.36	15.13
589.781	15.08
590.202	15.04
590.623	15
591.043	14.96
591.464	14.91
591.885	14.86
592.305	14.83
592.726	14.8
593.147	14.75
593.567	14.71
593.987	14.67
594.408	14.63
594.828	14.6
595.248	14.57
595.669	14.54
596.089	14.52
596.509	14.49
596.929	14.46
597.349	14.42
597.769	14.39
598.189	14.34
598.608	14.31
599.028	14.28
599.448	14.25
599.867	14.21
600.287	14.17
600.706	14.12
601.126	14.09
601.545	14.05
601.965	14.01
602.384	13.96
602.803	13.92
603.222	13.86
603.641	13.79
604.061	13.73
604.48	13.67
604.898	13.6
605.317	13.54
605.736	13.46
606.155	13.39
606.574	13.32
606.992	13.24
607.411	13.17
607.829	13.06
608.248	12.98
608.666	12.89
609.085	12.82
609.503	12.74
609.921	12.65
610.339	12.57
610.758	12.49
611.176	12.4
611.594	12.32
612.012	12.24
612.43	12.19
612.847	12.11
613.265	12.04
613.683	11.96
614.101	11.88
614.518	11.81
614.936	11.74
615.353	11.66
615.771	11.6
616.188	11.52
616.606	11.46
617.023	11.4
617.44	11.35
617.857	11.28
618.274	11.22
618.691	11.16
619.108	11.11
619.525	11.07
619.942	11.03
620.359	10.99
620.776	10.95
621.192	10.9
621.609	10.86
622.026	10.82
622.442	10.79
622.859	10.78
623.275	10.76
623.691	10.75
624.108	10.72
624.524	10.71
624.94	10.7
625.356	10.7
625.772	10.69
626.188	10.69
626.604	10.67
627.02	10.66
627.436	10.65
627.852	10.64
628.268	10.62
628.683	10.61
629.099	10.6
629.514	10.58
629.93	10.56
630.345	10.52
630.761	10.49
631.176	10.48
631.591	10.44
632.007	10.4
632.422	10.35
632.837	10.3
633.252	10.24
633.667	10.18
634.082	10.1
634.497	10.04
634.911	9.97
635.326	9.9
635.741	9.82
636.155	9.73
636.57	9.65
636.984	9.57
637.399	9.46
637.813	9.36
638.228	9.26
638.642	9.17
639.056	9.06
639.47	8.97
639.884	8.86
640.298	8.75
640.712	8.64
641.126	8.53
641.54	8.42
641.954	8.31
642.368	8.21
642.781	8.11
643.195	8
643.609	7.9
644.022	7.79
644.436	7.7
644.849	7.6
645.262	7.5
645.676	7.41
646.089	7.33
646.502	7.26
646.915	7.21
647.328	7.15
647.741	7.09
648.154	7.03
648.567	6.98
648.98	6.93
649.393	6.89
649.805	6.85
650.218	6.82
650.631	6.78
651.043	6.73
651.456	6.68
651.868	6.63
652.28	6.59
652.693	6.54
653.105	6.5
653.517	6.45
653.929	6.4
654.341	6.36
654.753	6.29
655.165	6.23
655.577	6.17
655.989	6.11
656.401	6.04
656.813	5.98
657.224	5.9
657.636	5.82
658.047	5.76
658.459	5.68
658.87	5.6
659.282	5.52
659.693	5.45
660.104	5.36
660.515	5.29
660.926	5.22
661.338	5.14
661.749	5.07
662.159	5
662.57	4.94
662.981	4.89
663.392	4.82
663.803	4.77
664.213	4.72
664.624	4.66
665.035	4.62
665.445	4.58
665.855	4.54
666.266	4.51
666.676	4.48
667.086	4.44
667.497	4.41
667.907	4.39
668.317	4.37
668.727	4.35
669.137	4.34
669.547	4.32
669.956	4.31
670.366	4.29
670.776	4.29
671.186	4.29
671.595	4.3
672.005	4.29
672.414	4.29
672.824	4.29
673.233	4.3
673.642	4.31
674.052	4.32
674.461	4.33
674.87	4.36
675.279	4.37
675.688	4.39
676.097	4.4
676.506	4.43
676.915	4.45
677.323	4.48
677.732	4.5
678.141	4.54
678.549	4.57
678.958	4.6
679.366	4.64
679.775	4.68
680.183	4.73
680.592	4.79
681	4.85
681.408	4.93
681.816	5
682.224	5.1
682.632	5.2
683.04	5.3
683.448	5.42
683.856	5.54
684.264	5.69
684.671	5.85
685.079	6.04
685.487	6.24
685.894	6.47
686.302	6.71
686.709	6.97
687.116	7.25
687.524	7.57
687.931	7.92
688.338	8.29
688.745	8.68
689.152	9.09
689.559	9.53
689.966	10
690.373	10.48
690.78	10.99
691.187	11.5
691.593	12.03
692	12.56
692.407	13.11
692.813	13.68
693.22	14.24
693.626	14.82
694.032	15.41
694.439	16
694.845	16.6
695.251	17.19
695.657	17.78
696.063	18.39
696.469	19
696.875	19.61
697.281	20.2
697.687	20.8
698.093	21.38
698.498	21.96
698.904	22.53
699.31	23.06
699.715	23.61
700.12	24.16
700.526	24.71
700.931	25.25
701.337	25.78
701.742	26.31
702.147	26.83
702.552	27.34
702.957	27.81
703.362	28.29
703.767	28.77
704.172	29.26
704.577	29.71
704.981	30.16
705.386	30.59
705.791	31.01
706.195	31.45
706.6	31.87
707.004	32.27
707.408	32.69
707.813	33.12
708.217	33.52
708.621	33.9
709.025	34.3
709.43	34.67
709.834	35.07
710.237	35.41
710.641	35.77
711.045	36.1
711.449	36.45
711.853	36.83
712.256	37.14
712.66	37.47
713.064	37.79
713.467	38.12
713.87	38.43
714.274	38.71
714.677	39.01
715.08	39.3
715.484	39.63
715.887	39.92
716.29	40.18
716.693	40.47
717.096	40.76
717.499	41.04
717.901	41.31
718.304	41.56
718.707	41.82
719.109	42.09
719.512	42.34
719.915	42.58
720.317	42.79
720.719	42.99
721.122	43.2
721.524	43.4
721.926	43.62
722.328	43.84
722.731	44.05
723.133	44.26
723.535	44.45
723.937	44.64
724.338	44.82
724.74	45
725.142	45.25
725.544	45.4
725.945	45.57
726.347	45.68
726.748	45.82
727.15	45.94
727.551	46.09
727.952	46.22
728.354	46.34
728.755	46.45
729.156	46.58
729.557	46.64
729.958	46.76
730.359	46.87
730.76	46.98
731.161	47.06
731.562	47.17
731.962	47.21
732.363	47.32
732.763	47.39
733.164	47.46
733.564	47.55
733.965	47.61
734.365	47.71
734.766	47.78
735.166	47.86
735.566	47.93
735.966	48.01
736.366	48.08
736.766	48.12
737.166	48.19
737.566	48.25
737.966	48.28
738.365	48.35
738.765	48.41
739.165	48.45
739.564	48.49
739.964	48.54
740.363	48.57
740.763	48.65
741.162	48.7
741.561	48.73
741.96	48.75
742.36	48.79
742.759	48.8
743.158	48.81
743.557	48.83
743.955	48.87
744.354	48.91
744.753	48.94
745.152	48.97
745.55	49
745.949	49.03
746.348	49.08
746.746	49.12
747.144	49.15
747.543	49.18
747.941	49.2
748.339	49.19
748.737	49.21
749.136	49.22
749.534	49.23
749.932	49.23
750.33	49.23
750.727	49.23
751.125	49.23
751.523	49.24
751.921	49.25
752.318	49.28
752.716	49.32
753.113	49.34
753.511	49.35
753.908	49.38
754.305	49.4
754.703	49.41
755.1	49.4
755.497	49.41
755.894	49.4
756.291	49.39
756.688	49.35
757.085	49.34
757.482	49.33
757.878	49.33
758.275	49.29
758.672	49.3
759.068	49.33
759.465	49.32
759.861	49.33
760.258	49.35
760.654	49.37
761.05	49.39
761.447	49.39
761.843	49.37
762.239	49.37
762.635	49.41
763.031	49.39
763.427	49.35
763.822	49.36
764.218	49.37
764.614	49.35
765.01	49.36
765.405	49.36
765.801	49.35
766.196	49.35
766.592	49.38
766.987	49.35
767.382	49.35
767.778	49.35
768.173	49.34
768.568	49.33
768.963	49.35
769.358	49.37
769.753	49.38
770.148	49.41
770.542	49.43
770.937	49.42
771.332	49.42
771.726	49.42
772.121	49.44
772.515	49.45
772.91	49.43
773.304	49.44
773.699	49.42
774.093	49.4
774.487	49.37
774.881	49.36
775.275	49.35
775.669	49.35
776.063	49.35
776.457	49.35
776.851	49.36
777.245	49.35
777.638	49.33
778.032	49.34
778.425	49.38
778.819	49.39
779.212	49.4
779.606	49.39
779.999	49.37
780.392	49.37
780.786	49.37
781.179	49.37
781.572	49.42
781.965	49.45
782.358	49.43
782.751	49.4
783.143	49.4
783.536	49.4
783.929	49.39
784.322	49.44
784.714	49.45
785.107	49.46
785.499	49.45
785.891	49.45
786.284	49.44
786.676	49.45
787.068	49.46
787.46	49.46
787.852	49.45
788.245	49.48
788.636	49.44
789.028	49.42
789.42	49.42
789.812	49.42
790.204	49.41
790.595	49.39
790.987	49.39
791.378	49.43
791.77	49.42
792.161	49.43
792.553	49.43
792.944	49.43
793.335	49.46
793.726	49.48
794.117	49.45
794.508	49.45
794.899	49.44
795.29	49.42
795.681	49.39
796.072	49.38
796.463	49.4
796.853	49.38
797.244	49.4
797.634	49.38
798.025	49.37
798.415	49.41
798.806	49.39
799.196	49.41
799.586	49.44
799.976	49.45
800.366	49.45
800.756	49.42
801.146	49.43
801.536	49.42
801.926	49.41
802.316	49.4
802.706	49.39
803.095	49.4
803.485	49.39
803.874	49.37
804.264	49.39
804.653	49.38
805.043	49.41
805.432	49.43
805.821	49.43
806.21	49.47
806.599	49.47
806.988	49.49
807.377	49.49
807.766	49.49
808.155	49.51
808.544	49.5
808.933	49.5
809.321	49.48
809.71	49.47
810.098	49.46
810.487	49.42
810.875	49.41
811.264	49.4
811.652	49.39
812.04	49.39
812.428	49.43
812.816	49.38
813.204	49.39
813.592	49.38
813.98	49.39
814.368	49.39
814.756	49.41
815.144	49.4
815.531	49.37
815.919	49.36
816.306	49.34
816.694	49.29
817.081	49.34
817.469	49.33
817.856	49.32
818.243	49.28
818.63	49.27
819.017	49.26
819.404	49.27
819.791	49.27
820.178	49.31
820.565	49.3
820.952	49.3
821.339	49.28
821.725	49.3
822.112	49.32
822.498	49.34
822.885	49.35
823.271	49.34
823.657	49.31
824.044	49.31
824.43	49.31
824.816	49.32
825.202	49.32
825.588	49.31
825.974	49.29
826.36	49.27
826.746	49.27
827.132	49.27
827.517	49.28
827.903	49.32
828.289	49.35
828.674	49.34
829.06	49.31
829.445	49.31
829.83	49.31
830.216	49.3
830.601	49.31
830.986	49.33
831.371	49.33
831.756	49.35
832.141	49.36
832.526	49.35
832.911	49.36
833.295	49.39
833.68	49.39
834.065	49.4
834.449	49.4
834.834	49.41
835.218	49.4
835.603	49.41
835.987	49.38
836.371	49.34
836.755	49.32
837.139	49.31
837.524	49.31
837.908	49.33
838.291	49.35
838.675	49.36
839.059	49.38
839.443	49.37
839.827	49.36
840.21	49.37
840.594	49.41
840.977	49.45
841.361	49.46
841.744	49.44
842.127	49.42
842.511	49.41
842.894	49.4
843.277	49.39
843.66	49.37
844.043	49.4
844.426	49.41
844.809	49.39
845.191	49.38
845.574	49.38
845.957	49.41
846.339	49.42
846.722	49.44
847.104	49.46
847.487	49.44
847.869	49.45
848.252	49.43
848.634	49.42
849.016	49.45
849.398	49.46
849.78	49.46
850.162	49.45
850.544	49.44
850.926	49.45
851.307	49.46
851.689	49.47
852.071	49.48
852.452	49.48
852.834	49.48
853.215	49.47
853.597	49.46
853.978	49.46
854.359	49.47
854.741	49.48
855.122	49.46
855.503	49.44
855.884	49.44
856.265	49.45
856.646	49.45
857.026	49.45
857.407	49.44
857.788	49.44
858.169	49.46
858.549	49.43
858.93	49.44
859.31	49.44
859.69	49.47
860.071	49.47
860.451	49.47
860.831	49.5
861.211	49.48
861.591	49.48
861.971	49.48
862.351	49.49
862.731	49.53
863.111	49.51
863.491	49.49
863.87	49.47
864.25	49.45
864.629	49.45
865.009	49.44
865.388	49.45
865.768	49.45
866.147	49.42
866.526	49.42
866.905	49.41
867.284	49.44
867.663	49.45
868.042	49.44
868.421	49.47
868.8	49.49
869.179	49.47
869.558	49.46
869.936	49.46
870.315	49.47
870.693	49.46
871.072	49.45
871.45	49.41
871.828	49.43
872.207	49.46
872.585	49.44
872.963	49.43
873.341	49.43
873.719	49.43
874.097	49.43
874.475	49.45
874.853	49.44
875.23	49.47
875.608	49.46
875.986	49.47
876.363	49.45
876.741	49.45
877.118	49.45
877.495	49.47
877.873	49.5
878.25	49.52
878.627	49.52
879.004	49.52
879.381	49.52
879.758	49.52
880.135	49.52
880.512	49.51
880.889	49.54
881.265	49.54
881.642	49.55
882.019	49.55
882.395	49.53
882.772	49.53
883.148	49.52
883.524	49.51
883.901	49.52
884.277	49.5
884.653	49.49
885.029	49.46
885.405	49.45
885.781	49.42
886.157	49.41
886.532	49.41
886.908	49.39
887.284	49.4
887.659	49.37
888.035	49.35
888.411	49.34
888.786	49.35
889.161	49.35
889.537	49.33
889.912	49.35
890.287	49.33
890.662	49.32
891.037	49.34
891.412	49.3
891.787	49.3
892.162	49.3
892.536	49.3
892.911	49.28
893.286	49.28
893.66	49.3
894.035	49.29
894.409	49.3
894.784	49.32
895.158	49.32
895.532	49.35
895.906	49.36
896.281	49.37
896.655	49.38
897.029	49.4
897.402	49.41
897.776	49.43
898.15	49.44
898.524	49.47
898.898	49.46
899.271	49.46
899.645	49.46
900.018	49.48
900.392	49.5
900.765	49.51
901.138	49.49
901.511	49.5
901.884	49.49
902.258	49.5
902.631	49.47
903.003	49.46
903.376	49.47
903.749	49.45
904.122	49.48
904.495	49.47
904.867	49.47
905.24	49.51
905.612	49.52
905.985	49.5
906.357	49.47
906.729	49.5
907.102	49.52
907.474	49.54
907.846	49.53
908.218	49.52
908.59	49.51
908.962	49.54
909.334	49.51
909.705	49.46
910.077	49.46
910.449	49.49
910.82	49.47
911.192	49.47
911.563	49.46
911.935	49.44
912.306	49.43
912.677	49.43
913.048	49.42
913.419	49.43
913.79	49.47
914.161	49.5
914.532	49.48
914.903	49.51
915.274	49.48
915.645	49.47
916.015	49.48
916.386	49.49
916.756	49.51
917.127	49.5
917.497	49.48
917.868	49.48
918.238	49.47
918.608	49.47
918.978	49.42
919.348	49.43
919.718	49.43
920.088	49.43
920.458	49.4
920.828	49.37
921.198	49.32
921.567	49.33
921.937	49.32
922.306	49.3
922.676	49.3
923.045	49.32
923.415	49.3
923.784	49.3
924.153	49.31
924.522	49.34
924.891	49.32
925.26	49.34
925.629	49.32
925.998	49.3
926.367	49.31
926.736	49.29
927.104	49.29
927.473	49.28
927.842	49.24
928.21	49.24
928.578	49.18
928.947	49.19
929.315	49.17
929.683	49.17
930.051	49.14
930.42	49.13
930.788	49.13
931.156	49.1
931.523	49.09
931.891	49.12
932.259	49.12
932.627	49.13
932.994	49.16
933.362	49.11
933.729	49.11
934.097	49.14
934.464	49.14
934.831	49.14
935.199	49.15
935.566	49.15
935.933	49.16
936.3	49.14
936.667	49.12
937.034	49.07
937.401	49.13
937.767	49.12
938.134	49.09
938.501	49.07
938.867	49.08
939.234	49.06
939.6	49.05
939.967	49
940.333	48.96
940.699	49
941.065	49
941.431	48.98
941.798	48.95
942.163	48.91
942.529	48.89
942.895	48.89
943.261	48.85
943.627	48.85
943.992	48.88
944.358	48.94
944.723	48.88
945.089	48.79
945.454	48.86
945.82	48.9
946.185	48.94
946.55	48.9
946.915	48.87
947.28	48.88
947.645	48.85
948.01	48.85
948.375	48.81
948.74	48.81
949.104	48.88
949.469	48.84
949.834	48.82
950.198	48.79
950.562	48.78
950.927	48.76
951.291	48.73
951.655	48.68
952.02	48.69
952.384	48.66
952.748	48.65
953.112	48.61
953.476	48.53
953.839	48.51
954.203	48.5
954.567	48.47
954.931	48.43
955.294	48.42
955.658	48.43
956.021	48.36
956.385	48.32
956.748	48.29
957.111	48.3
957.474	48.33
957.837	48.24
958.2	48.22
958.563	48.22
958.926	48.29
959.289	48.32
959.652	48.29
960.015	48.29
960.377	48.32
960.74	48.38
961.102	48.36
961.465	48.38
961.827	48.46
962.189	48.48
962.552	48.5
962.914	48.46
963.276	48.52
963.638	48.52
964	48.5
964.362	48.52
964.724	48.48
965.085	48.5
965.447	48.45
965.809	48.42
966.17	48.36
966.532	48.34
966.893	48.37
967.255	48.3
967.616	48.28
967.977	48.34
968.338	48.3
968.699	48.32
969.061	48.29
969.421	48.32
969.782	48.32
970.143	48.38
970.504	48.38
970.865	48.33
971.225	48.27
971.586	48.3
971.946	48.27
972.307	48.3
972.667	48.26
973.027	48.27
973.388	48.29
973.748	48.3
974.108	48.32
974.468	48.3
974.828	48.26
975.188	48.28
975.548	48.28
975.907	48.28
976.267	48.23
976.627	48.23
976.986	48.23
977.346	48.13
977.705	48.1
978.064	48.09
978.424	48.16
978.783	48.13
979.142	48.12
979.501	48.1
979.86	48.11
980.219	48.1
980.578	48.11
980.937	48.13
981.296	48.17
981.654	48.23
982.013	48.19
982.371	48.16
982.73	48.22
983.088	48.23
983.447	48.23
983.805	48.23
984.163	48.25
984.521	48.2
984.879	48.14
985.237	48.1
985.595	48.08
985.953	48.05
986.311	47.98
986.669	48.01
987.026	47.98
987.384	48.02
987.741	48.04
988.099	48.04
988.456	48.06
988.814	48.06
989.171	48.1
989.528	48.08
989.885	48.03
990.242	48.06
990.599	48.14
990.956	48.22
991.313	48.26
991.67	48.18
992.027	48.32
992.383	48.37
992.74	48.41
993.096	48.45
993.453	48.46
993.809	48.53
994.165	48.6
994.522	48.49
994.878	48.49
995.234	48.43
995.59	48.44
995.946	48.29
996.302	48.23
996.658	48.16
997.013	48.12
997.369	48.11
997.725	48.13
998.08	48.11
998.436	48.12
998.791	48.18
999.147	48.23
999.502	48.23
999.857	48.26
1000.212	48.31
1000.567	48.41
1000.922	48.3
1001.277	48.33
1001.632	48.25
1001.987	48.19
1002.342	48.09
1002.696	47.94
1003.051	48.09
1003.406	48.22
1003.76	48.23
1004.114	48.19
1004.469	48.09
1004.823	48.42
1005.177	48.44
1005.531	48.53
1005.885	48.48
1006.239	48.6
1006.593	48.74
1006.947	48.44
1007.301	48.29
1007.655	48.24
1008.008	48.22
1008.362	48.42
1008.715	48.3
1009.069	48.42
1009.422	48.34
1009.776	48.42
1010.129	48.36
1010.482	48.27
1010.835	48.47
1011.188	48.45
1011.541	48.52
1011.894	48.61
1012.247	48.49
1012.6	48.43
1012.952	48.25
1013.305	48.47
1013.657	48.43
1014.01	48.53
1014.362	48.39
1014.715	48.44
1015.067	48.48
1015.419	48.47
1015.771	48.45
1016.123	48.51
1016.475	48.36
1016.827	48.32
1017.179	48.25
1017.531	48.36
1017.883	48.32
1018.234	48.52
1018.586	48.39
1018.938	48.47
1019.289	48.27
1019.64	48.19
1019.992	48.13
1020.343	48.17
1020.694	48.17
1021.045	47.94
1021.396	47.82
1021.747	47.81
1022.098	47.8
1022.449	47.8
1022.8	47.88
1023.151	48.1
1023.501	48.23
1023.852	48.04
1024.202	47.75
1024.553	47.7
1024.903	47.85
1025.253	47.89
1025.604	47.98
1025.954	47.67
1026.304	47.62
1026.654	47.56
1027.004	47.29
1027.354	47.18
1027.703	47.35
1028.053	47.62
1028.403	47.67
1028.753	47.5
1029.102	47.61
1029.452	47.58
1029.801	48.04
1030.15	48.03
1030.499	47.89
897.758	1013.64
901.051	1018.13
904.343	1014.13
907.636	1034.21
910.928	1005.29
914.22	1007.9
917.511	995.59
920.803	955.43
924.094	952.11
927.384	927.74
930.675	893.18
933.965	888.77
937.255	837.54
940.544	805.68
943.834	768.1
947.123	763.3
950.411	719.18
953.7	704.59
956.988	667.74
960.276	640.98
963.563	631.9
966.851	609.31
970.138	604.62
973.424	586.58
976.711	588.85
979.997	559.28
983.283	555.38
986.568	543.33
989.853	529.03
993.138	518.12
996.423	498.38
999.708	485.96
1002.992	479.42
1006.275	458.48
1009.559	454.72
1012.842	440.07
1016.125	429.07
1019.408	421.31
1022.69	415.63
1025.972	405.61
1029.254	397.2
1032.536	391.24
1035.817	382.47
1039.098	378.87
1042.379	371.67
1045.659	367.59
1048.939	357.88
1052.219	351.16
1055.498	346.49
1058.778	339.25
1062.057	332.9
1065.335	329.14
1068.614	325.45
1071.892	322.12
1075.17	312.89
1078.447	306.72
1081.724	304.44
1085.001	303
1088.278	297.11
1091.554	290.38
1094.83	290.67
1098.106	288.35
1101.382	286.25
1104.657	284.38
1107.932	279.05
1111.206	280.37
1114.481	274.61
1117.755	272.17
1121.029	269.9
1124.302	269.17
1127.575	265.04
1130.848	261.62
1134.121	259.1
1137.393	257.25
1140.665	251.95
1143.937	250.66
1147.208	248.84
1150.48	247.66
1153.75	245.72
1157.021	242.53
1160.291	242.28
1163.561	240.72
1166.831	239.89
1170.101	237.9
1173.37	237.87
1176.639	238.45
1179.907	237.33
1183.176	234.21
1186.444	234.66
1189.711	233.2
1192.979	232.42
1196.246	231.17
1199.513	232.74
1202.78	231.52
1206.046	231.22
1209.312	229.53
1212.578	229.4
1215.843	230.91
1219.108	230.07
1222.373	233.51
1225.638	234.93
1228.902	237.05
1232.166	238.66
1235.43	238.7
1238.693	242.42
1241.956	243.59
1245.219	246.83
1248.482	246.87
1251.744	246.21
1255.006	247.07
1258.268	241.57
1261.529	240.13
1264.79	239.43
1268.051	236.8
1271.312	234.23
1274.572	231.57
1277.832	230.55
1281.092	226.18
1284.351	225
1287.61	225.05
1290.869	222.26
1294.128	221.1
1297.386	221.01
1300.644	218.41
1303.902	219.5
1307.159	218.46
1310.416	218.16
1313.673	216.7
1316.93	219.88
1320.186	219.23
1323.442	219.74
1326.697	221.89
1329.953	223.06
1333.208	223.64
1336.463	226.43
1339.717	226.32
1342.972	229.08
1346.226	230.67
1349.479	231.97
1352.733	231.84
1355.986	233.79
1359.238	233.47
1362.491	235.03
1365.743	236.92
1368.995	236.09
1372.247	235.91
1375.498	235.56
1378.749	237.45
1382	234.6
1385.251	234.78
1388.501	233.24
1391.751	233.15
1395	232.09
1398.25	230.24
1401.499	227.87
1404.748	227.66
1407.996	225.3
1411.244	224.01
1414.492	221.77
1417.74	219.95
1420.987	216.71
1424.234	215.72
1427.481	212.66
1430.728	212.06
1433.974	210.26
1437.22	208.17
1440.465	207.78
1443.711	205.47
1446.956	203.49
1450.201	201.54
1453.445	199.7
1456.689	198.83
1459.933	195.84
1463.177	194.74
1466.42	191.35
1469.663	189.29
1472.906	188.27
1476.148	183.8
1479.391	181.82
1482.633	181.29
1485.874	178.23
1489.115	176.63
1492.356	175.46
1495.597	174.7
1498.838	172.57
1502.078	172.01
1505.318	171.41
1508.557	171.42
1511.797	171.31
1515.036	169.98
1518.274	168.53
1521.513	168.24
1524.751	168.07
1527.989	167.5
1531.227	167.48
1534.464	167.21
1537.701	166.41
1540.938	165.94
1544.174	164.46
1547.41	164.38
1550.646	163.88
1553.882	164.99
1557.117	162.54
1560.352	162.21
1563.587	161.43
1566.821	160.52
1570.055	159.3
1573.289	158.43
1576.523	158.1
1579.756	156.75
1582.989	156.1
1586.222	156.02
1589.454	154.75
1592.686	156.03
1595.918	155.19
1599.15	154.93
1602.381	154.92
1605.612	154.83
1608.843	155.37
1612.073	155.56
1615.303	156.57
1618.533	156.35
1621.762	156.91
1624.992	156.92
1628.221	156.57
1631.449	156.24
1634.678	156.33
1637.906	157.7
1641.134	157.76
1644.361	157.36
1647.588	157.37
1650.815	156.8
1654.042	156.35
1657.269	156.93
1660.495	157.37
1663.72	156.99
1666.946	158.2
1670.171	158.35
1673.396	157.82
1676.621	158.06
1679.845	157.95
1683.069	158.44
1686.293	159.42
1689.517	160.29
1692.74	160.03
1695.963	160.12
1699.185	161.62
1702.408	161.39
1705.63	162.26
1708.852	162.53
1712.073	162.18
1715.294	162.91
1718.515	163.29
1721.736	162.8
1724.956	163.47
1728.176	163.43
1731.396	164.79
1734.616	164.31
1737.835	164.7
1741.054	162.57
1744.272	163.38
1747.491	165.11
1750.709	165.45
1753.927	165.43
1757.144	165.34
1760.361	166.01
1763.578	166.01
1766.795	165.65
1770.011	166.44
1773.227	166.39
1776.443	169.01
1779.658	168.92
1782.874	168.96
1786.089	169.45
1789.303	169.96
1792.518	171.64
1795.732	170.96
1798.945	172.47
1802.159	172.69
1805.372	173.53
1808.585	175.85
1811.797	176
1815.01	176.5
1818.222	177.16
1821.434	178.69
1824.645	179.27
1827.856	181.9
1831.067	183.31
1834.278	183.54
1837.488	184.81
1840.698	185.4
1843.908	184.2
1847.117	184.98
1850.326	185.93
1853.535	185.18
1856.744	187.89
1859.952	187
1863.16	185.18
1866.368	183.77
1869.575	184.33
1872.782	181.86
1875.989	180.03
1879.196	179.56
1882.402	178.02
1885.608	178.12
1888.814	178.09
1892.019	175.75
1895.224	175.5
1898.429	175.15
1901.634	175.88
1904.838	175.51
1908.042	177.1
1911.246	177.74
1914.449	178.1
1917.652	177.99
1920.855	177.7
1924.058	177.69
1927.26	177.52
1930.462	177.44
1933.664	179.07
1936.865	178.39
1940.066	177.77
1943.267	175.67
1946.467	176.51
1949.668	177.61
1952.868	179.78
1956.067	179.89
1959.267	180.81
1962.466	180.88
1965.665	180.76
1968.863	180.73
1972.061	183.1
1975.259	184.73
1978.457	187.68
1981.654	188.68
1984.852	188.9
1988.048	188.45
1991.245	190.44
1994.441	192
1997.637	193.58
2000.833	197.1
2004.028	200.28
2007.223	200.72
2010.418	203.14
2013.613	206.07
2016.807	208.7
2020.001	211.16
2023.194	214.73
2026.388	218.84
2029.581	223.77
2032.774	226.07
2035.966	229.34
2039.158	229.58
2042.35	234.42
2045.542	236.57
2048.733	239.2
2051.924	242.54
2055.115	246.51
2058.306	246.91
2061.496	249.86
2064.686	249.06
2067.875	253.02
2071.065	256.16
2074.254	254.96
2077.442	257.23
2080.631	258.13
2083.819	261.09
2087.007	261.88
2090.195	264.51
2093.382	267.38
2096.569	265.88
2099.756	270.89
2102.942	272.57
2106.128	273.49
2109.314	279.64
2112.5	279.46
2115.685	286.78
2118.87	287.29
2122.055	292.72
2125.239	293.94
2128.424	298.42
2131.608	299.84
2134.791	303.61
2137.974	305
2141.157	306.73
2144.34	308.22
2147.523	312.39
2150.705	309.21
2153.887	312.42
2157.068	312.98
2160.25	311.02
2163.431	310.8
2166.611	315.52
2169.792	320.73
2172.972	324.26
2176.152	326.36
2179.331	330.31
2182.511	335
2185.69	338.61
2188.868	345.37
2192.047	346.03
2195.225	356.24
2198.403	364.53
2201.58	369.88
2204.758	377.19
2207.935	384.31
2211.111	390.94
2214.288	395.73
2217.464	397.84
2220.64	403.99
2223.815	408.9
2226.991	425.72
2230.166	425.42
2233.34	432.34
2236.515	440.73
2239.689	441.25
2242.863	442.71
2246.036	455.7
2249.209	452.23
2252.382	459.96
2255.555	473.18
2258.727	474.9
2261.9	479.34
2265.071	485.39
2268.243	493.09
2271.414	496.88
2274.585	507.63
2277.756	513.35
2280.926	517.17
2284.096	529.62
2287.266	538.18
2290.436	542.52
2293.605	555.52
2296.774	568.8
2299.942	585.4
2303.111	591.23
2306.279	606.15
2309.447	612.27
2312.614	630.1
2315.781	646.78
2318.948	674.78
2322.115	668.04
2325.281	708.38
2328.447	691.99
2331.613	717.74
2334.779	711.49
2337.944	741.6
2341.109	746.78
2344.274	771.11
2347.438	791.56
2350.602	792.04
2353.766	818.1
2356.929	831.95
2360.092	819.26
2363.255	878.87
2366.418	879.43
2369.58	896.72
2372.742	948.75
2375.904	975.87
2379.066	967.67
2382.227	956.78
2385.388	1032.88
2388.548	1032.32
2391.709	1042.31
2394.869	1165.17
2398.029	1119.9
2401.188	1149.24
2404.347	1141.21
2407.506	1125
2410.665	1153.64
2413.823	1224.19
2416.981	1294.38
2420.139	1256.87
2423.296	1244.77
2426.453	1301.79
2429.61	1247.57
2432.767	1299.92
2435.923	1287.55
2439.079	1410.16
2442.235	1427.83
2445.391	1419.03
2448.546	1409.87
2451.701	1368.83
2454.855	1368.28
2458.009	1446.48
2461.163	1502.61
2464.317	1562.26
2467.471	1602.91
2470.624	1604.02
2473.777	1558.25
2476.929	1520.43
2480.082	1473.95
2483.234	1453.2
2486.385	1528.95
2489.537	1532.85
2492.688	1591.33
2495.839	1546.11
2498.989	1512.41
2502.14	1518.75
2505.29	1528.99
2508.439	1558.04
2511.589	1552.16
2514.738	1695.74
2517.887	1659.39
2521.035	1742.29
2524.183	1763.94
2527.331	1774.41
2530.479	1768.97
2533.627	1779.55
