Data from C_1_DEC_VA_2N_Splice17_12-42-01-752.txt Node
Date: Sat Mar 07 12:42:01 EST 2020
User: sa697716
Spectrometer: NQ5500242
Trigger mode: 0
Integration Time (sec): 1.450000E-1
Scans to average: 20
Nonlinearity correction enabled: false
Boxcar width: 5
Storing dark spectrum: false
XAxis mode: Wavelengths
Number of Pixels in Spectrum: 512
>>>>>Begin Spectral Data<<<<<
187.83	61.77
188.298	61.99
188.766	51.86
189.233	56.26
189.701	35.17
190.169	39.02
190.636	-0.9
191.104	-169.92
191.571	-384.16
192.039	-268.26
192.506	-832.72
192.974	180
193.441	195.79
193.908	141.24
194.375	132.13
194.842	-14.47
195.31	27.66
195.777	40.51
196.244	31.52
196.711	38.89
197.177	40.78
197.644	39.84
198.111	40.3
198.578	40.52
199.045	40.6
199.511	40.15
199.978	40.74
200.445	40.51
200.911	40.31
201.378	40.62
201.844	40.5
202.31	40.15
202.777	40.61
203.243	40.71
203.709	40.46
204.176	40.11
204.642	39.98
205.108	39.83
205.574	39.72
206.04	39.43
206.506	38.86
206.972	38.83
207.438	38.58
207.903	37.86
208.369	37.31
208.835	36.89
209.301	36.26
209.766	35.49
210.232	34.48
210.697	33.57
211.163	32.89
211.628	32.29
212.094	31.54
212.559	31
213.024	30.36
213.49	29.71
213.955	29
214.42	28.36
214.885	27.7
215.35	26.99
215.815	25.73
216.28	24.14
216.745	22.38
217.21	20.78
217.675	19.38
218.14	18.16
218.604	17
219.069	16.07
219.534	15.28
219.998	14.62
220.463	14.06
220.927	13.56
221.392	13.16
221.856	12.83
222.32	12.53
222.785	12.23
223.249	11.95
223.713	11.71
224.177	11.51
224.642	11.33
225.106	11.12
225.57	10.9
226.034	10.76
226.497	10.6
226.961	10.45
227.425	10.3
227.889	10.16
228.353	10.04
228.816	9.91
229.28	9.76
229.744	9.61
230.207	9.48
230.671	9.37
231.134	9.23
231.597	9.13
232.061	9.01
232.524	8.9
232.987	8.79
233.45	8.69
233.914	8.58
234.377	8.48
234.84	8.38
235.303	8.3
235.766	8.22
236.229	8.14
236.691	8.05
237.154	7.98
237.617	7.9
238.08	7.82
238.542	7.73
239.005	7.67
239.468	7.6
239.93	7.53
240.393	7.46
240.855	7.37
241.317	7.3
241.78	7.23
242.242	7.15
242.704	7.09
243.166	7.03
243.629	6.97
244.091	6.9
244.553	6.83
245.015	6.77
245.477	6.7
245.939	6.65
246.4	6.6
246.862	6.55
247.324	6.5
247.786	6.43
248.247	6.37
248.709	6.3
249.17	6.25
249.632	6.21
250.093	6.17
250.555	6.12
251.016	6.08
251.477	6.03
251.939	5.98
252.4	5.94
252.861	5.91
253.322	5.88
253.783	5.86
254.244	5.82
254.705	5.78
255.166	5.74
255.627	5.71
256.088	5.68
256.549	5.65
257.009	5.61
257.47	5.58
257.931	5.54
258.391	5.49
258.852	5.45
259.312	5.42
259.773	5.39
260.233	5.35
260.694	5.32
261.154	5.28
261.614	5.25
262.074	5.22
262.534	5.18
262.994	5.16
263.455	5.14
263.915	5.12
264.374	5.1
264.834	5.07
265.294	5.06
265.754	5.04
266.214	5.03
266.673	5.01
267.133	5
267.593	4.99
268.052	4.98
268.512	4.98
268.971	4.96
269.431	4.95
269.89	4.93
270.349	4.92
270.809	4.91
271.268	4.89
271.727	4.88
272.186	4.87
272.645	4.86
273.104	4.83
273.563	4.82
274.022	4.81
274.481	4.8
274.94	4.79
275.399	4.78
275.857	4.76
276.316	4.75
276.775	4.74
277.233	4.73
277.692	4.72
278.15	4.71
278.609	4.7
279.067	4.69
279.525	4.68
279.984	4.66
280.442	4.65
280.9	4.64
281.358	4.62
281.816	4.62
282.274	4.6
282.732	4.58
283.19	4.58
283.648	4.56
284.106	4.55
284.564	4.54
285.021	4.54
285.479	4.53
285.937	4.52
286.394	4.51
286.852	4.5
287.309	4.48
287.767	4.47
288.224	4.45
288.682	4.44
289.139	4.42
289.596	4.4
290.053	4.37
290.511	4.36
290.968	4.34
291.425	4.32
291.882	4.31
292.339	4.29
292.796	4.28
293.252	4.26
293.709	4.25
294.166	4.25
294.623	4.24
295.079	4.22
295.536	4.21
295.992	4.2
296.449	4.19
296.905	4.18
297.362	4.17
297.818	4.16
298.274	4.16
298.731	4.15
299.187	4.14
299.643	4.13
300.099	4.13
300.555	4.12
301.011	4.12
301.467	4.1
301.923	4.09
302.379	4.08
302.835	4.08
303.291	4.07
303.746	4.06
304.202	4.05
304.658	4.05
305.113	4.04
305.569	4.03
306.024	4.03
306.479	4.03
306.935	4.02
307.39	4.02
307.845	4.01
308.301	4.01
308.756	4.01
309.211	4.01
309.666	4.01
310.121	4.01
310.576	4
311.031	4
311.486	4
311.94	4.01
312.395	4.01
312.85	4.01
313.305	4.01
313.759	4
314.214	4
314.668	3.99
315.123	3.98
315.577	3.98
316.032	3.97
316.486	3.96
316.94	3.94
317.394	3.93
317.849	3.92
318.303	3.9
318.757	3.89
319.211	3.88
319.665	3.87
320.119	3.85
320.572	3.84
321.026	3.83
321.48	3.82
321.934	3.81
322.387	3.8
322.841	3.79
323.295	3.78
323.748	3.78
324.202	3.77
324.655	3.76
325.108	3.76
325.562	3.76
326.015	3.75
326.468	3.76
326.921	3.75
327.374	3.75
327.827	3.75
328.28	3.74
328.733	3.74
329.186	3.74
329.639	3.73
330.092	3.73
330.545	3.73
330.997	3.72
331.45	3.72
331.903	3.73
332.355	3.74
332.808	3.73
333.26	3.73
333.713	3.72
334.165	3.72
334.617	3.72
335.069	3.72
335.522	3.71
335.974	3.72
336.426	3.7
336.878	3.69
337.33	3.68
337.782	3.69
338.234	3.68
338.686	3.69
339.137	3.69
339.589	3.68
340.041	3.68
340.493	3.67
340.944	3.65
341.396	3.64
341.847	3.63
342.299	3.61
342.75	3.59
343.201	3.57
343.653	3.56
344.104	3.54
344.555	3.54
345.006	3.53
345.457	3.53
345.908	3.53
346.359	3.53
346.81	3.53
347.261	3.53
347.712	3.52
348.163	3.52
348.613	3.52
349.064	3.52
349.515	3.52
349.965	3.51
350.416	3.49
350.866	3.49
351.317	3.49
351.767	3.48
352.217	3.49
352.668	3.49
353.118	3.49
353.568	3.49
354.018	3.49
354.468	3.5
354.918	3.5
355.368	3.51
355.818	3.51
356.268	3.51
356.718	3.52
357.168	3.51
357.617	3.51
358.067	3.51
358.517	3.51
358.966	3.51
359.416	3.5
359.865	3.49
360.315	3.49
360.764	3.49
361.213	3.49
361.663	3.49
362.112	3.5
362.561	3.5
363.01	3.5
363.459	3.49
363.908	3.48
364.357	3.48
364.806	3.48
365.255	3.48
365.703	3.48
366.152	3.49
366.601	3.49
367.05	3.48
367.498	3.48
367.947	3.49
368.395	3.5
368.844	3.5
369.292	3.5
369.74	3.5
370.189	3.5
370.637	3.51
371.085	3.5
371.533	3.51
371.981	3.51
372.429	3.51
372.877	3.52
373.325	3.53
373.773	3.53
374.221	3.54
374.669	3.54
375.116	3.54
375.564	3.54
376.012	3.55
376.459	3.55
376.907	3.55
377.354	3.57
377.801	3.58
378.249	3.59
378.696	3.59
379.143	3.61
379.591	3.62
380.038	3.64
380.485	3.65
380.932	3.67
381.379	3.68
381.826	3.7
382.273	3.71
382.72	3.72
383.166	3.74
383.613	3.76
384.06	3.77
384.506	3.78
384.953	3.8
385.4	3.82
385.846	3.84
386.292	3.86
386.739	3.87
387.185	3.9
387.631	3.93
388.078	3.96
388.524	3.99
388.97	4.03
389.416	4.07
389.862	4.1
390.308	4.14
390.754	4.18
391.2	4.22
391.645	4.26
392.091	4.29
392.537	4.33
392.983	4.36
393.428	4.39
393.874	4.42
394.319	4.46
394.765	4.48
395.21	4.5
395.655	4.53
396.101	4.55
396.546	4.58
396.991	4.61
397.436	4.63
397.881	4.67
398.326	4.71
398.771	4.73
399.216	4.76
399.661	4.79
400.106	4.82
400.551	4.82
400.995	4.83
401.44	4.85
401.885	4.86
402.329	4.88
402.774	4.89
403.218	4.9
403.663	4.91
404.107	4.92
404.551	4.93
404.995	4.93
405.44	4.94
405.884	4.95
406.328	4.95
406.772	4.95
407.216	4.95
407.66	4.95
408.104	4.95
408.547	4.95
408.991	4.95
409.435	4.95
409.879	4.96
410.322	4.97
410.766	4.96
411.209	4.98
411.653	5
412.096	5.01
412.54	5.03
412.983	5.04
413.426	5.06
413.869	5.08
414.312	5.1
414.756	5.11
415.199	5.11
415.642	5.12
416.085	5.12
416.527	5.11
416.97	5.1
417.413	5.09
417.856	5.08
418.298	5.06
418.741	5.05
419.184	5.02
419.626	5.03
420.069	5.02
420.511	5.02
420.953	5.03
421.396	5.03
421.838	5.05
422.28	5.05
422.722	5.07
423.164	5.07
423.606	5.07
424.048	5.09
424.49	5.08
424.932	5.08
425.374	5.05
425.816	5.02
426.258	5.01
426.699	4.98
427.141	4.98
427.582	4.96
428.024	4.95
428.465	4.95
428.907	4.94
429.348	4.91
429.789	4.91
430.231	4.93
430.672	4.95
431.113	4.97
431.554	4.98
431.995	4.98
432.436	4.98
432.877	5
433.318	5.02
433.759	5.04
434.2	5.08
434.64	5.09
435.081	5.1
435.522	5.12
435.962	5.13
436.403	5.16
436.843	5.18
437.284	5.17
437.724	5.18
438.164	5.18
438.604	5.21
439.045	5.22
439.485	5.24
439.925	5.24
440.365	5.25
440.805	5.26
441.245	5.28
441.685	5.31
442.125	5.35
442.564	5.37
443.004	5.38
443.444	5.39
443.883	5.42
444.323	5.44
444.762	5.47
445.202	5.49
445.641	5.52
446.081	5.54
446.52	5.56
446.959	5.6
447.398	5.63
447.837	5.67
448.276	5.7
448.716	5.72
449.154	5.77
449.593	5.81
450.032	5.84
450.471	5.85
450.91	5.87
451.349	5.89
451.787	5.9
452.226	5.91
452.664	5.92
453.103	5.92
453.541	5.94
453.98	5.94
454.418	5.93
454.856	5.91
455.295	5.92
455.733	5.9
456.171	5.9
456.609	5.89
457.047	5.88
457.485	5.87
457.923	5.88
458.361	5.86
458.798	5.86
459.236	5.86
459.674	5.86
460.111	5.86
460.549	5.88
460.987	5.88
461.424	5.89
461.862	5.89
462.299	5.9
462.736	5.89
463.173	5.89
463.611	5.88
464.048	5.89
464.485	5.89
464.922	5.89
465.359	5.89
465.796	5.89
466.233	5.9
466.67	5.91
467.106	5.91
467.543	5.91
467.98	5.92
468.416	5.93
468.853	5.93
469.29	5.94
469.726	5.95
470.162	5.94
470.599	5.94
471.035	5.93
471.471	5.91
471.907	5.91
472.344	5.93
472.78	5.92
473.216	5.91
473.652	5.91
474.088	5.9
474.523	5.9
474.959	5.9
475.395	5.89
475.831	5.89
476.266	5.9
476.702	5.9
477.138	5.88
477.573	5.9
478.008	5.9
478.444	5.9
478.879	5.91
479.314	5.91
479.75	5.91
480.185	5.91
480.62	5.91
481.055	5.91
481.49	5.89
481.925	5.9
482.36	5.9
482.795	5.9
483.229	5.91
483.664	5.92
484.099	5.93
484.534	5.93
484.968	5.95
485.403	5.97
485.837	5.99
486.271	6.02
486.706	6.04
487.14	6.07
487.574	6.1
488.009	6.13
488.443	6.16
488.877	6.2
489.311	6.25
489.745	6.29
490.179	6.35
490.613	6.41
491.046	6.47
491.48	6.53
491.914	6.6
492.348	6.66
492.781	6.74
493.215	6.82
493.648	6.91
494.082	7
494.515	7.08
494.948	7.17
495.382	7.26
495.815	7.36
496.248	7.47
496.681	7.58
497.114	7.71
497.547	7.83
497.98	7.96
498.413	8.08
498.846	8.22
499.279	8.36
499.711	8.51
500.144	8.67
500.577	8.84
501.009	9.01
501.442	9.18
501.874	9.37
502.306	9.55
502.739	9.76
503.171	9.97
503.603	10.19
504.036	10.42
504.468	10.65
504.9	10.89
505.332	11.14
505.764	11.4
506.196	11.66
506.627	11.93
507.059	12.2
507.491	12.48
507.923	12.77
508.354	13.07
508.786	13.38
509.217	13.7
509.649	14.03
510.08	14.35
510.512	14.67
510.943	15.01
511.374	15.36
511.805	15.73
512.237	16.08
512.668	16.43
513.099	16.79
513.53	17.15
513.961	17.51
514.391	17.89
514.822	18.28
515.253	18.66
515.684	19.03
516.114	19.42
516.545	19.8
516.975	20.19
517.406	20.59
517.836	20.97
518.267	21.37
518.697	21.75
519.127	22.09
519.558	22.46
519.988	22.84
520.418	23.21
520.848	23.56
521.278	23.89
521.708	24.33
522.138	24.66
522.567	24.98
522.997	25.28
523.427	25.58
523.857	25.9
524.286	26.17
524.716	26.44
525.145	26.71
525.575	26.97
526.004	27.23
526.433	27.35
526.863	27.6
527.292	27.81
527.721	28.03
528.15	28.23
528.579	28.41
529.008	28.6
529.437	28.77
529.866	28.92
530.295	29.08
530.724	29.25
531.152	29.4
531.581	29.52
532.01	29.66
532.438	29.78
532.867	29.9
533.295	30.01
533.723	30.11
534.152	30.2
534.58	30.31
535.008	30.36
535.436	30.42
535.865	30.5
536.293	30.56
536.721	30.62
537.149	30.68
537.576	30.73
538.004	30.8
538.432	30.86
538.86	30.91
539.287	30.93
539.715	31.02
540.143	31.06
540.57	31.08
540.998	31.13
541.425	31.16
541.852	31.22
542.28	31.26
542.707	31.29
543.134	31.32
543.561	31.36
543.988	31.4
544.415	31.41
544.842	31.44
545.269	31.48
545.696	31.5
546.123	31.52
546.549	31.54
546.976	31.56
547.403	31.59
547.829	31.61
548.256	31.63
548.682	31.65
549.108	31.67
549.535	31.69
549.961	31.69
550.387	31.69
550.813	31.7
551.24	31.67
551.666	31.63
552.092	31.6
552.518	31.58
552.943	31.54
553.369	31.5
553.795	31.47
554.221	31.43
554.646	31.36
555.072	31.3
555.498	31.25
555.923	31.19
556.349	31.14
556.774	31.07
557.199	30.98
557.625	30.92
558.05	30.82
558.475	30.74
558.9	30.65
559.325	30.58
559.75	30.48
560.175	30.38
560.6	30.26
561.025	30.14
561.449	30.01
561.874	29.88
562.299	29.74
562.723	29.62
563.148	29.46
563.572	29.29
563.997	29.13
564.421	28.96
564.846	28.81
565.27	28.67
565.694	28.51
566.118	28.36
566.542	28.2
566.966	28.03
567.39	27.85
567.814	27.67
568.238	27.5
568.662	27.33
569.086	27.15
569.509	26.96
569.933	26.77
570.357	26.59
570.78	26.4
571.204	26.23
571.627	26.06
572.05	25.89
572.474	25.74
572.897	25.59
573.32	25.44
573.743	25.28
574.166	25.13
574.589	24.97
575.012	24.82
575.435	24.69
575.858	24.54
576.281	24.41
576.704	24.27
577.126	24.13
577.549	24
577.972	23.86
578.394	23.72
578.817	23.61
579.239	23.49
579.661	23.38
580.084	23.25
580.506	23.14
580.928	23.01
581.35	22.91
581.772	22.79
582.194	22.69
582.616	22.59
583.038	22.5
583.46	22.38
583.882	22.28
584.303	22.17
584.725	22.09
585.147	21.99
585.568	21.91
585.99	21.82
586.411	21.73
586.833	21.64
587.254	21.56
587.675	21.47
588.096	21.4
588.518	21.34
588.939	21.28
589.36	21.21
589.781	21.15
590.202	21.09
590.623	21.02
591.043	20.97
591.464	20.92
591.885	20.85
592.305	20.8
592.726	20.76
593.147	20.71
593.567	20.68
593.987	20.62
594.408	20.57
594.828	20.52
595.248	20.5
595.669	20.45
596.089	20.41
596.509	20.37
596.929	20.33
597.349	20.27
597.769	20.23
598.189	20.17
598.608	20.13
599.028	20.1
599.448	20.04
599.867	19.98
600.287	19.95
600.706	19.9
601.126	19.83
601.545	19.78
601.965	19.75
602.384	19.69
602.803	19.63
603.222	19.56
603.641	19.48
604.061	19.42
604.48	19.33
604.898	19.22
605.317	19.14
605.736	19.07
606.155	18.98
606.574	18.87
606.992	18.77
607.411	18.68
607.829	18.56
608.248	18.46
608.666	18.35
609.085	18.26
609.503	18.17
609.921	18.07
610.339	17.97
610.758	17.86
611.176	17.76
611.594	17.67
612.012	17.57
612.43	17.49
612.847	17.4
613.265	17.3
613.683	17.2
614.101	17.1
614.518	17.01
614.936	16.9
615.353	16.81
615.771	16.73
616.188	16.63
616.606	16.55
617.023	16.48
617.44	16.4
617.857	16.34
618.274	16.27
618.691	16.2
619.108	16.14
619.525	16.09
619.942	16.04
620.359	15.99
620.776	15.95
621.192	15.9
621.609	15.85
622.026	15.82
622.442	15.77
622.859	15.74
623.275	15.72
623.691	15.7
624.108	15.69
624.524	15.65
624.94	15.63
625.356	15.61
625.772	15.6
626.188	15.58
626.604	15.56
627.02	15.54
627.436	15.53
627.852	15.5
628.268	15.48
628.683	15.46
629.099	15.45
629.514	15.42
629.93	15.4
630.345	15.36
630.761	15.32
631.176	15.27
631.591	15.21
632.007	15.15
632.422	15.08
632.837	15.01
633.252	14.92
633.667	14.83
634.082	14.72
634.497	14.62
634.911	14.51
635.326	14.39
635.741	14.27
636.155	14.14
636.57	14
636.984	13.85
637.399	13.68
637.813	13.52
638.228	13.35
638.642	13.18
639.056	12.99
639.47	12.81
639.884	12.64
640.298	12.46
640.712	12.28
641.126	12.1
641.54	11.91
641.954	11.74
642.368	11.59
642.781	11.42
643.195	11.26
643.609	11.1
644.022	10.94
644.436	10.8
644.849	10.66
645.262	10.54
645.676	10.41
646.089	10.3
646.502	10.19
646.915	10.09
647.328	10
647.741	9.92
648.154	9.84
648.567	9.76
648.98	9.68
649.393	9.62
649.805	9.55
650.218	9.49
650.631	9.43
651.043	9.38
651.456	9.31
651.868	9.26
652.28	9.2
652.693	9.14
653.105	9.09
653.517	9.03
653.929	8.96
654.341	8.89
654.753	8.81
655.165	8.73
655.577	8.65
655.989	8.56
656.401	8.46
656.813	8.36
657.224	8.24
657.636	8.13
658.047	8.01
658.459	7.89
658.87	7.79
659.282	7.66
659.693	7.55
660.104	7.42
660.515	7.31
660.926	7.2
661.338	7.09
661.749	6.99
662.159	6.88
662.57	6.79
662.981	6.7
663.392	6.59
663.803	6.52
664.213	6.42
664.624	6.34
665.035	6.26
665.445	6.19
665.855	6.12
666.266	6.06
666.676	6.01
667.086	5.95
667.497	5.91
667.907	5.88
668.317	5.83
668.727	5.81
669.137	5.78
669.547	5.76
669.956	5.74
670.366	5.72
670.776	5.71
671.186	5.7
671.595	5.7
672.005	5.69
672.414	5.69
672.824	5.69
673.233	5.7
673.642	5.71
674.052	5.73
674.461	5.75
674.87	5.77
675.279	5.8
675.688	5.83
676.097	5.88
676.506	5.92
676.915	5.96
677.323	6.01
677.732	6.05
678.141	6.11
678.549	6.16
678.958	6.24
679.366	6.32
679.775	6.41
680.183	6.51
680.592	6.63
681	6.75
681.408	6.89
681.816	7.04
682.224	7.22
682.632	7.41
683.04	7.62
683.448	7.85
683.856	8.1
684.264	8.37
684.671	8.68
685.079	8.99
685.487	9.36
685.894	9.76
686.302	10.18
686.709	10.62
687.116	11.1
687.524	11.61
687.931	12.15
688.338	12.74
688.745	13.33
689.152	13.95
689.559	14.6
689.966	15.26
690.373	15.93
690.78	16.63
691.187	17.34
691.593	18.08
692	18.82
692.407	19.55
692.813	20.28
693.22	21.02
693.626	21.78
694.032	22.53
694.439	23.29
694.845	24.07
695.251	24.82
695.657	25.56
696.063	26.3
696.469	27.02
696.875	27.74
697.281	28.46
697.687	29.17
698.093	29.86
698.498	30.51
698.904	31.17
699.31	31.77
699.715	32.39
700.12	32.99
700.526	33.59
700.931	34.18
701.337	34.75
701.742	35.28
702.147	35.8
702.552	36.32
702.957	36.82
703.362	37.3
703.767	37.78
704.172	38.24
704.577	38.71
704.981	39.16
705.386	39.6
705.791	40.01
706.195	40.43
706.6	40.85
707.004	41.22
707.408	41.63
707.813	42.02
708.217	42.4
708.621	42.78
709.025	43.12
709.43	43.44
709.834	43.8
710.237	44.14
710.641	44.48
711.045	44.8
711.449	45.15
711.853	45.47
712.256	45.77
712.66	46.08
713.064	46.38
713.467	46.67
713.87	46.97
714.274	47.2
714.677	47.47
715.08	47.71
715.484	47.95
715.887	48.2
716.29	48.43
716.693	48.67
717.096	48.88
717.499	49.1
717.901	49.33
718.304	49.55
718.707	49.78
719.109	49.99
719.512	50.2
719.915	50.42
720.317	50.58
720.719	50.73
721.122	50.92
721.524	51.09
721.926	51.25
722.328	51.42
722.731	51.56
723.133	51.72
723.535	51.86
723.937	52.02
724.338	52.14
724.74	52.28
725.142	52.49
725.544	52.59
725.945	52.73
726.347	52.84
726.748	52.96
727.15	53.04
727.551	53.18
727.952	53.28
728.354	53.37
728.755	53.47
729.156	53.56
729.557	53.59
729.958	53.65
730.359	53.72
730.76	53.81
731.161	53.88
731.562	53.99
731.962	54.01
732.363	54.09
732.763	54.15
733.164	54.2
733.564	54.25
733.965	54.32
734.365	54.39
734.766	54.44
735.166	54.51
735.566	54.57
735.966	54.62
736.366	54.68
736.766	54.7
737.166	54.76
737.566	54.83
737.966	54.88
738.365	54.92
738.765	54.98
739.165	55.01
739.564	55.04
739.964	55.06
740.363	55.07
740.763	55.09
741.162	55.14
741.561	55.16
741.96	55.16
742.36	55.18
742.759	55.2
743.158	55.21
743.557	55.23
743.955	55.23
744.354	55.25
744.753	55.27
745.152	55.33
745.55	55.36
745.949	55.39
746.348	55.41
746.746	55.42
747.144	55.43
747.543	55.45
747.941	55.48
748.339	55.48
748.737	55.5
749.136	55.54
749.534	55.52
749.932	55.48
750.33	55.45
750.727	55.46
751.125	55.49
751.523	55.48
751.921	55.49
752.318	55.49
752.716	55.5
753.113	55.47
753.511	55.45
753.908	55.46
754.305	55.48
754.703	55.49
755.1	55.51
755.497	55.51
755.894	55.49
756.291	55.5
756.688	55.49
757.085	55.52
757.482	55.56
757.878	55.57
758.275	55.54
758.672	55.54
759.068	55.58
759.465	55.55
759.861	55.54
760.258	55.55
760.654	55.53
761.05	55.56
761.447	55.54
761.843	55.51
762.239	55.52
762.635	55.53
763.031	55.49
763.427	55.44
763.822	55.45
764.218	55.45
764.614	55.45
765.01	55.41
765.405	55.38
765.801	55.35
766.196	55.36
766.592	55.33
766.987	55.34
767.382	55.3
767.778	55.33
768.173	55.32
768.568	55.29
768.963	55.27
769.358	55.3
769.753	55.28
770.148	55.27
770.542	55.26
770.937	55.25
771.332	55.25
771.726	55.29
772.121	55.27
772.515	55.3
772.91	55.32
773.304	55.35
773.699	55.36
774.093	55.38
774.487	55.38
774.881	55.41
775.275	55.41
775.669	55.4
776.063	55.39
776.457	55.39
776.851	55.34
777.245	55.31
777.638	55.3
778.032	55.3
778.425	55.32
778.819	55.31
779.212	55.3
779.606	55.31
779.999	55.3
780.392	55.31
780.786	55.32
781.179	55.39
781.572	55.41
781.965	55.42
782.358	55.41
782.751	55.39
783.143	55.4
783.536	55.38
783.929	55.37
784.322	55.39
784.714	55.4
785.107	55.39
785.499	55.35
785.891	55.32
786.284	55.33
786.676	55.34
787.068	55.33
787.46	55.32
787.852	55.32
788.245	55.31
788.636	55.31
789.028	55.3
789.42	55.3
789.812	55.32
790.204	55.33
790.595	55.33
790.987	55.31
791.378	55.33
791.77	55.36
792.161	55.37
792.553	55.37
792.944	55.36
793.335	55.36
793.726	55.35
794.117	55.32
794.508	55.3
794.899	55.29
795.29	55.3
795.681	55.27
796.072	55.25
796.463	55.23
796.853	55.23
797.244	55.21
797.634	55.21
798.025	55.22
798.415	55.22
798.806	55.24
799.196	55.24
799.586	55.23
799.976	55.26
800.366	55.26
800.756	55.28
801.146	55.3
801.536	55.33
801.926	55.32
802.316	55.31
802.706	55.31
803.095	55.3
803.485	55.3
803.874	55.3
804.264	55.31
804.653	55.32
805.043	55.31
805.432	55.29
805.821	55.28
806.21	55.31
806.599	55.32
806.988	55.33
807.377	55.33
807.766	55.31
808.155	55.26
808.544	55.28
808.933	55.26
809.321	55.26
809.71	55.25
810.098	55.23
810.487	55.17
810.875	55.19
811.264	55.19
811.652	55.2
812.04	55.24
812.428	55.3
812.816	55.29
813.204	55.3
813.592	55.27
813.98	55.27
814.368	55.27
814.756	55.29
815.144	55.28
815.531	55.27
815.919	55.27
816.306	55.22
816.694	55.2
817.081	55.19
817.469	55.21
817.856	55.19
818.243	55.2
818.63	55.22
819.017	55.23
819.404	55.22
819.791	55.23
820.178	55.22
820.565	55.24
820.952	55.24
821.339	55.21
821.725	55.2
822.112	55.24
822.498	55.25
822.885	55.26
823.271	55.25
823.657	55.23
824.044	55.25
824.43	55.26
824.816	55.27
825.202	55.27
825.588	55.29
825.974	55.29
826.36	55.27
826.746	55.25
827.132	55.24
827.517	55.25
827.903	55.29
828.289	55.28
828.674	55.27
829.06	55.26
829.445	55.24
829.83	55.23
830.216	55.23
830.601	55.22
830.986	55.22
831.371	55.19
831.756	55.2
832.141	55.17
832.526	55.16
832.911	55.17
833.295	55.17
833.68	55.2
834.065	55.22
834.449	55.22
834.834	55.22
835.218	55.24
835.603	55.24
835.987	55.23
836.371	55.23
836.755	55.22
837.139	55.19
837.524	55.2
837.908	55.2
838.291	55.21
838.675	55.22
839.059	55.24
839.443	55.22
839.827	55.22
840.21	55.21
840.594	55.22
840.977	55.23
841.361	55.24
841.744	55.24
842.127	55.25
842.511	55.21
842.894	55.22
843.277	55.2
843.66	55.2
844.043	55.21
844.426	55.22
844.809	55.22
845.191	55.24
845.574	55.22
845.957	55.26
846.339	55.25
846.722	55.27
847.104	55.28
847.487	55.27
847.869	55.27
848.252	55.26
848.634	55.27
849.016	55.28
849.398	55.3
849.78	55.33
850.162	55.28
850.544	55.27
850.926	55.28
851.307	55.27
851.689	55.29
852.071	55.31
852.452	55.32
852.834	55.32
853.215	55.3
853.597	55.28
853.978	55.26
854.359	55.31
854.741	55.32
855.122	55.29
855.503	55.28
855.884	55.26
856.265	55.24
856.646	55.23
857.026	55.25
857.407	55.27
857.788	55.26
858.169	55.26
858.549	55.24
858.93	55.23
859.31	55.26
859.69	55.28
860.071	55.31
860.451	55.31
860.831	55.32
861.211	55.29
861.591	55.25
861.971	55.24
862.351	55.25
862.731	55.25
863.111	55.25
863.491	55.24
863.87	55.22
864.25	55.18
864.629	55.18
865.009	55.17
865.388	55.17
865.768	55.19
866.147	55.21
866.526	55.19
866.905	55.19
867.284	55.18
867.663	55.19
868.042	55.2
868.421	55.23
868.8	55.24
869.179	55.24
869.558	55.26
869.936	55.24
870.315	55.22
870.693	55.21
871.072	55.22
871.45	55.23
871.828	55.22
872.207	55.24
872.585	55.22
872.963	55.22
873.341	55.22
873.719	55.19
874.097	55.21
874.475	55.24
874.853	55.27
875.23	55.28
875.608	55.27
875.986	55.3
876.363	55.29
876.741	55.29
877.118	55.29
877.495	55.31
877.873	55.33
878.25	55.35
878.627	55.37
879.004	55.38
879.381	55.37
879.758	55.35
880.135	55.34
880.512	55.31
880.889	55.33
881.265	55.32
881.642	55.32
882.019	55.33
882.395	55.29
882.772	55.26
883.148	55.24
883.524	55.23
883.901	55.27
884.277	55.23
884.653	55.23
885.029	55.21
885.405	55.21
885.781	55.21
886.157	55.18
886.532	55.2
886.908	55.19
887.284	55.2
887.659	55.19
888.035	55.16
888.411	55.15
888.786	55.16
889.161	55.2
889.537	55.19
889.912	55.18
890.287	55.19
890.662	55.18
891.037	55.19
891.412	55.17
891.787	55.16
892.162	55.17
892.536	55.18
892.911	55.17
893.286	55.14
893.66	55.12
894.035	55.12
894.409	55.11
894.784	55.11
895.158	55.09
895.532	55.1
895.906	55.12
896.281	55.1
896.655	55.09
897.029	55.13
897.402	55.14
897.776	55.15
898.15	55.14
898.524	55.16
898.898	55.15
899.271	55.17
899.645	55.18
900.018	55.19
900.392	55.23
900.765	55.26
901.138	55.23
901.511	55.2
901.884	55.22
902.258	55.25
902.631	55.26
903.003	55.28
903.376	55.3
903.749	55.29
904.122	55.3
904.495	55.28
904.867	55.28
905.24	55.28
905.612	55.34
905.985	55.3
906.357	55.3
906.729	55.31
907.102	55.31
907.474	55.29
907.846	55.27
908.218	55.27
908.59	55.27
908.962	55.27
909.334	55.28
909.705	55.27
910.077	55.32
910.449	55.31
910.82	55.3
911.192	55.27
911.563	55.26
911.935	55.23
912.306	55.23
912.677	55.26
913.048	55.3
913.419	55.27
913.79	55.26
914.161	55.22
914.532	55.2
914.903	55.19
915.274	55.2
915.645	55.23
916.015	55.29
916.386	55.28
916.756	55.27
917.127	55.25
917.497	55.27
917.868	55.24
918.238	55.27
918.608	55.29
918.978	55.3
919.348	55.37
919.718	55.33
920.088	55.31
920.458	55.34
920.828	55.34
921.198	55.29
921.567	55.27
921.937	55.31
922.306	55.26
922.676	55.22
923.045	55.22
923.415	55.12
923.784	55.13
924.153	55.15
924.522	55.13
924.891	55.12
925.26	55.13
925.629	55.14
925.998	55.11
926.367	55.15
926.736	55.18
927.104	55.16
927.473	55.15
927.842	55.11
928.21	55.09
928.578	55.06
928.947	55.05
929.315	55.04
929.683	55
930.051	54.96
930.42	54.95
930.788	54.92
931.156	54.89
931.523	54.86
931.891	54.89
932.259	54.85
932.627	54.83
932.994	54.79
933.362	54.75
933.729	54.76
934.097	54.74
934.464	54.72
934.831	54.68
935.199	54.68
935.566	54.67
935.933	54.6
936.3	54.58
936.667	54.58
937.034	54.61
937.401	54.63
937.767	54.61
938.134	54.59
938.501	54.56
938.867	54.58
939.234	54.59
939.6	54.61
939.967	54.65
940.333	54.67
940.699	54.67
941.065	54.63
941.431	54.63
941.798	54.6
942.163	54.63
942.529	54.61
942.895	54.6
943.261	54.56
943.627	54.57
943.992	54.61
944.358	54.62
944.723	54.59
945.089	54.53
945.454	54.61
945.82	54.61
946.185	54.67
946.55	54.64
946.915	54.65
947.28	54.66
947.645	54.67
948.01	54.67
948.375	54.67
948.74	54.67
949.104	54.74
949.469	54.72
949.834	54.67
950.198	54.64
950.562	54.58
950.927	54.55
951.291	54.48
951.655	54.42
952.02	54.44
952.384	54.43
952.748	54.41
953.112	54.36
953.476	54.32
953.839	54.31
954.203	54.24
954.567	54.26
954.931	54.27
955.294	54.27
955.658	54.32
956.021	54.23
956.385	54.16
956.748	54.1
957.111	54.13
957.474	54.11
957.837	54.08
958.2	54.08
958.563	54.07
958.926	54.08
959.289	54.15
959.652	54.08
960.015	54.09
960.377	54.12
960.74	54.16
961.102	54.11
961.465	54.09
961.827	54.13
962.189	54.21
962.552	54.26
962.914	54.26
963.276	54.26
963.638	54.3
964	54.26
964.362	54.26
964.724	54.24
965.085	54.25
965.447	54.27
965.809	54.35
966.17	54.28
966.532	54.21
966.893	54.18
967.255	54.16
967.616	54.13
967.977	54.18
968.338	54.18
968.699	54.21
969.061	54.19
969.421	54.2
969.782	54.12
970.143	54.12
970.504	54.16
970.865	54.16
971.225	54.17
971.586	54.16
971.946	54.12
972.307	54.08
972.667	54.1
973.027	54.09
973.388	54.09
973.748	54.12
974.108	54.13
974.468	54.12
974.828	54.14
975.188	54.08
975.548	54.07
975.907	54.08
976.267	54.16
976.627	54.14
976.986	54.11
977.346	54.08
977.705	54.03
978.064	54.09
978.424	54.14
978.783	54.06
979.142	54.05
979.501	54.06
979.86	54.08
980.219	54.06
980.578	54.03
980.937	54.07
981.296	54.05
981.654	54.02
982.013	53.95
982.371	53.87
982.73	53.91
983.088	53.87
983.447	53.8
983.805	53.77
984.163	53.72
984.521	53.7
984.879	53.66
985.237	53.67
985.595	53.66
985.953	53.66
986.311	53.65
986.669	53.66
987.026	53.67
987.384	53.73
987.741	53.69
988.099	53.8
988.456	53.8
988.814	53.87
989.171	53.81
989.528	53.84
989.885	53.76
990.242	53.78
990.599	53.81
990.956	53.9
991.313	53.96
991.67	53.96
992.027	53.97
992.383	54.06
992.74	54.1
993.096	54.18
993.453	54.19
993.809	54.29
994.165	54.31
994.522	54.27
994.878	54.28
995.234	54.16
995.59	54.12
995.946	54.11
996.302	54.15
996.658	54.06
997.013	54.02
997.369	53.94
997.725	53.99
998.08	54.07
998.436	54.07
998.791	54.01
999.147	54.02
999.502	54.11
999.857	54.05
1000.212	53.82
1000.567	53.82
1000.922	53.73
1001.277	53.82
1001.632	53.75
1001.987	53.67
1002.342	53.66
1002.696	53.62
1003.051	53.72
1003.406	53.75
1003.76	53.63
1004.114	53.7
1004.469	53.81
1004.823	54.13
1005.177	54.16
1005.531	54.19
1005.885	54.27
1006.239	54.27
1006.593	54.39
1006.947	54.37
1007.301	54.34
1007.655	54.45
1008.008	54.46
1008.362	54.52
1008.715	54.35
1009.069	54.4
1009.422	54.3
1009.776	54.25
1010.129	54.3
1010.482	54.22
1010.835	54.25
1011.188	54.31
1011.541	54.38
1011.894	54.5
1012.247	54.49
1012.6	54.37
1012.952	54.15
1013.305	54.29
1013.657	54.07
1014.01	54.02
1014.362	53.96
1014.715	53.98
1015.067	53.93
1015.419	53.96
1015.771	53.89
1016.123	53.87
1016.475	54.01
1016.827	54.24
1017.179	54.32
1017.531	54.49
1017.883	54.49
1018.234	54.62
1018.586	54.58
1018.938	54.74
1019.289	54.37
1019.64	54.26
1019.992	54.06
1020.343	54.03
1020.694	53.89
1021.045	53.71
1021.396	53.73
1021.747	53.66
1022.098	53.69
1022.449	53.56
1022.8	53.49
1023.151	53.6
1023.501	53.73
1023.852	53.83
1024.202	53.54
1024.553	53.57
1024.903	53.69
1025.253	53.72
1025.604	53.95
1025.954	53.69
1026.304	53.76
1026.654	53.7
1027.004	53.76
1027.354	53.68
1027.703	53.39
1028.053	53.83
1028.403	53.73
1028.753	53.44
1029.102	53.59
1029.452	53.59
1029.801	53.94
1030.15	53.9
1030.499	53.77
897.758	861.02
901.051	862.12
904.343	860.45
907.636	877.17
910.928	855.35
914.22	857.63
917.511	849.61
920.803	807.69
924.094	806.94
927.384	786.82
930.675	755.04
933.965	751.89
937.255	712.9
940.544	685.41
943.834	654.61
947.123	648.91
950.411	610.44
953.7	597.53
956.988	572.01
960.276	547.55
963.563	539.68
966.851	523.51
970.138	518.29
973.424	501.63
976.711	504.21
979.997	479.2
983.283	474.4
986.568	465.63
989.853	452.7
993.138	443.52
996.423	426.71
999.708	416.17
1002.992	409.86
1006.275	393.29
1009.559	388.84
1012.842	376.25
1016.125	366.77
1019.408	362.2
1022.69	357.08
1025.972	350.07
1029.254	342.83
1032.536	338.61
1035.817	332.08
1039.098	327.87
1042.379	322.54
1045.659	319.79
1048.939	312.3
1052.219	306.98
1055.498	303.06
1058.778	296.79
1062.057	290.47
1065.335	288.04
1068.614	284.26
1071.892	280.47
1075.17	273.86
1078.447	268.71
1081.724	267.03
1085.001	264.27
1088.278	259.83
1091.554	254.56
1094.83	254.77
1098.106	252.86
1101.382	251.39
1104.657	250.05
1107.932	246.5
1111.206	247.61
1114.481	241.45
1117.755	239.45
1121.029	238.17
1124.302	236.94
1127.575	233.26
1130.848	230.92
1134.121	228.66
1137.393	226.85
1140.665	222.02
1143.937	220.87
1147.208	220.52
1150.48	219.78
1153.75	217.18
1157.021	214.6
1160.291	214.66
1163.561	212.34
1166.831	212.61
1170.101	211.34
1173.37	211.23
1176.639	212.3
1179.907	210.59
1183.176	207.02
1186.444	207.33
1189.711	207.08
1192.979	206.58
1196.246	205.65
1199.513	206.69
1202.78	204.91
1206.046	204.88
1209.312	203.06
1212.578	203.16
1215.843	204.34
1219.108	203.43
1222.373	206.93
1225.638	207.94
1228.902	210.38
1232.166	211.12
1235.43	212.07
1238.693	215.43
1241.956	215.97
1245.219	218.42
1248.482	219.15
1251.744	218.99
1255.006	219.9
1258.268	214.91
1261.529	213.58
1264.79	212.08
1268.051	210.61
1271.312	208.22
1274.572	205.9
1277.832	204.56
1281.092	201.52
1284.351	199.8
1287.61	200.25
1290.869	197.32
1294.128	196.48
1297.386	196.42
1300.644	194.85
1303.902	195.05
1307.159	194.5
1310.416	193.9
1313.673	193.47
1316.93	194.92
1320.186	195.01
1323.442	195.88
1326.697	198.14
1329.953	199.23
1333.208	198.83
1336.463	201.73
1339.717	201.75
1342.972	203.75
1346.226	205.93
1349.479	206.35
1352.733	207.62
1355.986	208.54
1359.238	207.85
1362.491	209.14
1365.743	209.78
1368.995	210.79
1372.247	210.25
1375.498	210.23
1378.749	211.84
1382	208.93
1385.251	209.21
1388.501	208.27
1391.751	208
1395	207.08
1398.25	205.62
1401.499	204.43
1404.748	204.4
1407.996	201.17
1411.244	200.33
1414.492	198.32
1417.74	196.62
1420.987	193.91
1424.234	192.6
1427.481	190.2
1430.728	189.8
1433.974	188.42
1437.22	186.21
1440.465	184.95
1443.711	183.09
1446.956	181.77
1450.201	180.67
1453.445	178.59
1456.689	178.17
1459.933	175.35
1463.177	174.55
1466.42	171.76
1469.663	169.21
1472.906	168.98
1476.148	165.53
1479.391	164.46
1482.633	163.36
1485.874	160.58
1489.115	159.57
1492.356	158.31
1495.597	158.2
1498.838	156.23
1502.078	155.85
1505.318	156.05
1508.557	155.46
1511.797	155.65
1515.036	154.92
1518.274	153.84
1521.513	153.57
1524.751	153.49
1527.989	153.38
1531.227	153.1
1534.464	152.89
1537.701	152.39
1540.938	152.02
1544.174	151.01
1547.41	150.8
1550.646	150
1553.882	150.82
1557.117	148.92
1560.352	148.55
1563.587	147.66
1566.821	147.07
1570.055	146.34
1573.289	145.32
1576.523	145.38
1579.756	144.22
1582.989	143.7
1586.222	143.41
1589.454	142.42
1592.686	144.12
1595.918	143.28
1599.15	143.07
1602.381	143.31
1605.612	143.18
1608.843	143.23
1612.073	142.94
1615.303	143.94
1618.533	143.82
1621.762	144.29
1624.992	144.72
1628.221	143.7
1631.449	144.14
1634.678	143.82
1637.906	144.62
1641.134	144.54
1644.361	144.6
1647.588	145.01
1650.815	144.56
1654.042	144.57
1657.269	144.64
1660.495	144.93
1663.72	144.46
1666.946	144.7
1670.171	145.33
1673.396	144.63
1676.621	145.14
1679.845	145.49
1683.069	145.23
1686.293	146.06
1689.517	146.28
1692.74	146.52
1695.963	146.38
1699.185	147.74
1702.408	147.78
1705.63	148.25
1708.852	149.24
1712.073	148.82
1715.294	149.01
1718.515	149.84
1721.736	149.31
1724.956	149.65
1728.176	149.69
1731.396	151.28
1734.616	150.79
1737.835	151.31
1741.054	149.97
1744.272	149.88
1747.491	151.38
1750.709	151.35
1753.927	151.17
1757.144	151.07
1760.361	151.68
1763.578	151.85
1766.795	150.96
1770.011	152.38
1773.227	151.92
1776.443	153.93
1779.658	153.81
1782.874	153.47
1786.089	154.04
1789.303	154.42
1792.518	156.24
1795.732	156.14
1798.945	157.36
1802.159	157.8
1805.372	157.24
1808.585	159.6
1811.797	160.18
1815.01	161.25
1818.222	162.23
1821.434	163.7
1824.645	163.72
1827.856	165.76
1831.067	166.18
1834.278	165.64
1837.488	167.01
1840.698	168.15
1843.908	167.02
1847.117	167.1
1850.326	167.27
1853.535	166.47
1856.744	168.22
1859.952	167.89
1863.16	166.3
1866.368	165.57
1869.575	166.48
1872.782	162.97
1875.989	161.81
1879.196	160.61
1882.402	159.09
1885.608	158.79
1888.814	158.41
1892.019	155.61
1895.224	155.13
1898.429	153.38
1901.634	153.14
1904.838	152.66
1908.042	153.99
1911.246	152.81
1914.449	153.23
1917.652	153.01
1920.855	152.22
1924.058	151.76
1927.26	151.36
1930.462	151.59
1933.664	152.78
1936.865	151.85
1940.066	150.78
1943.267	150.43
1946.467	151.22
1949.668	151.88
1952.868	153.61
1956.067	154.23
1959.267	155.23
1962.466	155.72
1965.665	154.75
1968.863	156.55
1972.061	159.14
1975.259	160.69
1978.457	161.7
1981.654	163.95
1984.852	164.51
1988.048	164.15
1991.245	166
1994.441	167.94
1997.637	169.02
2000.833	173.53
2004.028	174.51
2007.223	175.79
2010.418	178.2
2013.613	181.25
2016.807	183.08
2020.001	184.97
2023.194	188.57
2026.388	191.68
2029.581	195.91
2032.774	198.3
2035.966	200.31
2039.158	201.97
2042.35	206.12
2045.542	207.15
2048.733	209.28
2051.924	212.92
2055.115	216.44
2058.306	216.22
2061.496	219.03
2064.686	218.5
2067.875	222.5
2071.065	224.35
2074.254	222.95
2077.442	224.75
2080.631	226.71
2083.819	230.13
2087.007	228.7
2090.195	232.23
2093.382	234.05
2096.569	232.86
2099.756	237.09
2102.942	237.04
2106.128	239.23
2109.314	245.14
2112.5	244.65
2115.685	249.13
2118.87	249.01
2122.055	255.47
2125.239	256.13
2128.424	259.6
2131.608	260.68
2134.791	264.43
2137.974	265.6
2141.157	266.48
2144.34	266.83
2147.523	270.08
2150.705	268.58
2153.887	271.77
2157.068	271.37
2160.25	269.6
2163.431	270.47
2166.611	273.62
2169.792	278.79
2172.972	282.14
2176.152	283.22
2179.331	286.57
2182.511	290.89
2185.69	294.06
2188.868	299.34
2192.047	300.06
2195.225	308.01
2198.403	315.14
2201.58	321.32
2204.758	324.51
2207.935	330.67
2211.111	336.83
2214.288	340.81
2217.464	342.85
2220.64	348.64
2223.815	351.95
2226.991	366.27
2230.166	366.79
2233.34	373.04
2236.515	378.26
2239.689	380.44
2242.863	382.27
2246.036	392.67
2249.209	389.81
2252.382	395.83
2255.555	405.96
2258.727	408.1
2261.9	411.4
2265.071	415.41
2268.243	422.65
2271.414	427.62
2274.585	437.35
2277.756	442.22
2280.926	446.61
2284.096	457.27
2287.266	465.11
2290.436	468.71
2293.605	478.79
2296.774	490.46
2299.942	504.58
2303.111	506.8
2306.279	517.49
2309.447	523.77
2312.614	536.25
2315.781	549.12
2318.948	573.88
2322.115	568.59
2325.281	599.67
2328.447	586.29
2331.613	607.25
2334.779	602.2
2337.944	627.77
2341.109	633.7
2344.274	650.12
2347.438	671.68
2350.602	671.31
2353.766	696.43
2356.929	706.51
2360.092	697.56
2363.255	748.8
2366.418	752.43
2369.58	763.37
2372.742	809.28
2375.904	832.03
2379.066	829.59
2382.227	813.03
2385.388	882.66
2388.548	875.55
2391.709	885.62
2394.869	992.3
2398.029	951.55
2401.188	972.11
2404.347	967.12
2407.506	951.13
2410.665	978.34
2413.823	1035.13
2416.981	1098.32
2420.139	1063.19
2423.296	1054.74
2426.453	1098.32
2429.61	1052.62
2432.767	1098.66
2435.923	1090.93
2439.079	1192.81
2442.235	1213.02
2445.391	1201.07
2448.546	1186.97
2451.701	1157.29
2454.855	1154.9
2458.009	1221.25
2461.163	1270.6
2464.317	1320.03
2467.471	1353.38
2470.624	1348.56
2473.777	1314.07
2476.929	1277.22
2480.082	1239.58
2483.234	1231.45
2486.385	1292.24
2489.537	1299.65
2492.688	1342.93
2495.839	1313.81
2498.989	1283.47
2502.14	1288.55
2505.29	1307.97
2508.439	1331.59
2511.589	1327.27
2514.738	1445.74
2517.887	1412.16
2521.035	1486.65
2524.183	1498.44
2527.331	1512.05
2530.479	1500.34
2533.627	1511.33
