Data from C_1_HIR_IL_4N_Splice17_12-49-35-916.txt Node
Date: Sat Mar 07 12:49:35 EST 2020
User: sa697716
Spectrometer: NQ5500242
Trigger mode: 0
Integration Time (sec): 1.450000E-1
Scans to average: 20
Nonlinearity correction enabled: false
Boxcar width: 5
Storing dark spectrum: false
XAxis mode: Wavelengths
Number of Pixels in Spectrum: 512
>>>>>Begin Spectral Data<<<<<
187.83	31.44
188.298	35.23
188.766	10.63
189.233	13.95
189.701	6.11
190.169	26.78
190.636	13.29
191.104	-46.89
191.571	-11.21
192.039	-49.36
192.506	-247.36
192.974	42.66
193.441	56.87
193.908	-69.77
194.375	-48.28
194.842	-88.54
195.31	-42.28
195.777	-151.37
196.244	38.23
196.711	51.03
197.177	53.37
197.644	52.78
198.111	52.24
198.578	51.51
199.045	51.56
199.511	51.28
199.978	51.05
200.445	50.88
200.911	50.97
201.378	50.93
201.844	50.41
202.31	49.56
202.777	49.29
203.243	49.25
203.709	48.76
204.176	48.28
204.642	47.9
205.108	47.68
205.574	47.36
206.04	46.58
206.506	45.87
206.972	45.51
207.438	45
207.903	44.21
208.369	42.92
208.835	42.13
209.301	40.69
209.766	39.51
210.232	38.21
210.697	36.83
211.163	35.87
211.628	34.89
212.094	33.9
212.559	33.08
213.024	32.15
213.49	31.34
213.955	30.46
214.42	29.9
214.885	28.77
215.35	27.46
215.815	25.78
216.28	23.52
216.745	21.17
217.21	18.85
217.675	16.68
218.14	14.77
218.604	13.14
219.069	11.8
219.534	10.61
219.998	9.69
220.463	8.91
220.927	8.2
221.392	7.72
221.856	7.32
222.32	6.95
222.785	6.62
223.249	6.35
223.713	6.1
224.177	5.88
224.642	5.7
225.106	5.49
225.57	5.31
226.034	5.18
226.497	5.03
226.961	4.87
227.425	4.73
227.889	4.61
228.353	4.49
228.816	4.38
229.28	4.28
229.744	4.18
230.207	4.09
230.671	4
231.134	3.93
231.597	3.87
232.061	3.8
232.524	3.73
232.987	3.68
233.45	3.64
233.914	3.59
234.377	3.53
234.84	3.48
235.303	3.46
235.766	3.43
236.229	3.38
236.691	3.33
237.154	3.3
237.617	3.27
238.08	3.23
238.542	3.18
239.005	3.14
239.468	3.11
239.93	3.08
240.393	3.04
240.855	3
241.317	2.97
241.78	2.94
242.242	2.9
242.704	2.88
243.166	2.85
243.629	2.83
244.091	2.8
244.553	2.78
245.015	2.76
245.477	2.72
245.939	2.7
246.4	2.68
246.862	2.66
247.324	2.63
247.786	2.6
248.247	2.58
248.709	2.55
249.17	2.52
249.632	2.5
250.093	2.48
250.555	2.47
251.016	2.46
251.477	2.44
251.939	2.43
252.4	2.42
252.861	2.41
253.322	2.4
253.783	2.39
254.244	2.39
254.705	2.37
255.166	2.36
255.627	2.34
256.088	2.33
256.549	2.32
257.009	2.3
257.47	2.28
257.931	2.26
258.391	2.23
258.852	2.2
259.312	2.18
259.773	2.16
260.233	2.15
260.694	2.14
261.154	2.11
261.614	2.09
262.074	2.07
262.534	2.05
262.994	2.04
263.455	2.03
263.915	2.02
264.374	2.01
264.834	2
265.294	1.98
265.754	1.97
266.214	1.96
266.673	1.95
267.133	1.95
267.593	1.95
268.052	1.94
268.512	1.94
268.971	1.93
269.431	1.92
269.89	1.91
270.349	1.91
270.809	1.9
271.268	1.89
271.727	1.89
272.186	1.89
272.645	1.88
273.104	1.87
273.563	1.87
274.022	1.87
274.481	1.87
274.94	1.87
275.399	1.86
275.857	1.86
276.316	1.86
276.775	1.86
277.233	1.86
277.692	1.86
278.15	1.86
278.609	1.86
279.067	1.86
279.525	1.87
279.984	1.87
280.442	1.87
280.9	1.87
281.358	1.88
281.816	1.88
282.274	1.88
282.732	1.87
283.19	1.87
283.648	1.87
284.106	1.87
284.564	1.86
285.021	1.87
285.479	1.87
285.937	1.87
286.394	1.87
286.852	1.86
287.309	1.86
287.767	1.86
288.224	1.85
288.682	1.84
289.139	1.84
289.596	1.83
290.053	1.8
290.511	1.8
290.968	1.79
291.425	1.78
291.882	1.77
292.339	1.76
292.796	1.75
293.252	1.74
293.709	1.74
294.166	1.73
294.623	1.73
295.079	1.73
295.536	1.72
295.992	1.72
296.449	1.72
296.905	1.72
297.362	1.71
297.818	1.71
298.274	1.71
298.731	1.7
299.187	1.7
299.643	1.69
300.099	1.69
300.555	1.68
301.011	1.68
301.467	1.68
301.923	1.67
302.379	1.67
302.835	1.67
303.291	1.67
303.746	1.67
304.202	1.68
304.658	1.68
305.113	1.68
305.569	1.68
306.024	1.68
306.479	1.69
306.935	1.69
307.39	1.69
307.845	1.7
308.301	1.7
308.756	1.7
309.211	1.7
309.666	1.72
310.121	1.72
310.576	1.72
311.031	1.73
311.486	1.73
311.94	1.74
312.395	1.74
312.85	1.75
313.305	1.75
313.759	1.76
314.214	1.76
314.668	1.75
315.123	1.75
315.577	1.75
316.032	1.75
316.486	1.74
316.94	1.74
317.394	1.74
317.849	1.73
318.303	1.72
318.757	1.71
319.211	1.7
319.665	1.69
320.119	1.69
320.572	1.68
321.026	1.67
321.48	1.67
321.934	1.66
322.387	1.65
322.841	1.64
323.295	1.65
323.748	1.65
324.202	1.66
324.655	1.66
325.108	1.66
325.562	1.66
326.015	1.66
326.468	1.66
326.921	1.67
327.374	1.67
327.827	1.68
328.28	1.68
328.733	1.68
329.186	1.68
329.639	1.68
330.092	1.69
330.545	1.7
330.997	1.7
331.45	1.7
331.903	1.71
332.355	1.73
332.808	1.73
333.26	1.73
333.713	1.73
334.165	1.73
334.617	1.74
335.069	1.73
335.522	1.74
335.974	1.75
336.426	1.74
336.878	1.74
337.33	1.73
337.782	1.74
338.234	1.75
338.686	1.75
339.137	1.75
339.589	1.74
340.041	1.74
340.493	1.73
340.944	1.72
341.396	1.71
341.847	1.71
342.299	1.7
342.75	1.68
343.201	1.67
343.653	1.67
344.104	1.65
344.555	1.65
345.006	1.64
345.457	1.65
345.908	1.65
346.359	1.65
346.81	1.65
347.261	1.64
347.712	1.64
348.163	1.64
348.613	1.64
349.064	1.64
349.515	1.64
349.965	1.64
350.416	1.65
350.866	1.65
351.317	1.64
351.767	1.65
352.217	1.65
352.668	1.66
353.118	1.66
353.568	1.65
354.018	1.66
354.468	1.67
354.918	1.67
355.368	1.68
355.818	1.68
356.268	1.68
356.718	1.68
357.168	1.68
357.617	1.68
358.067	1.68
358.517	1.7
358.966	1.71
359.416	1.71
359.865	1.71
360.315	1.71
360.764	1.72
361.213	1.72
361.663	1.72
362.112	1.72
362.561	1.73
363.01	1.73
363.459	1.71
363.908	1.71
364.357	1.71
364.806	1.71
365.255	1.72
365.703	1.72
366.152	1.73
366.601	1.74
367.05	1.75
367.498	1.75
367.947	1.75
368.395	1.77
368.844	1.78
369.292	1.78
369.74	1.79
370.189	1.78
370.637	1.78
371.085	1.78
371.533	1.78
371.981	1.79
372.429	1.79
372.877	1.79
373.325	1.79
373.773	1.78
374.221	1.79
374.669	1.79
375.116	1.79
375.564	1.79
376.012	1.79
376.459	1.79
376.907	1.8
377.354	1.8
377.801	1.82
378.249	1.82
378.696	1.83
379.143	1.84
379.591	1.86
380.038	1.88
380.485	1.9
380.932	1.92
381.379	1.94
381.826	1.96
382.273	2
382.72	2.02
383.166	2.05
383.613	2.11
384.06	2.16
384.506	2.24
384.953	2.33
385.4	2.45
385.846	2.6
386.292	2.78
386.739	2.99
387.185	3.22
387.631	3.47
388.078	3.69
388.524	3.9
388.97	4.12
389.416	4.4
389.862	4.8
390.308	5.32
390.754	5.92
391.2	6.53
391.645	7.08
392.091	7.58
392.537	8.15
392.983	8.97
393.428	10.1
393.874	11.46
394.319	13
394.765	14.58
395.21	16.19
395.655	17.9
396.101	19.76
396.546	21.81
396.991	24.1
397.436	26.5
397.881	28.91
398.326	31.15
398.771	33.26
399.216	35.2
399.661	36.96
400.106	38.51
400.551	39.85
400.995	41
401.44	42.05
401.885	43.07
402.329	44.06
402.774	45.11
403.218	46.27
403.663	47.48
404.107	48.79
404.551	50.09
404.995	51.36
405.44	52.61
405.884	53.92
406.328	55.38
406.772	56.93
407.216	58.55
407.66	59.98
408.104	61.22
408.547	62.32
408.991	63.36
409.435	64.51
409.879	65.85
410.322	67.41
410.766	68.99
411.209	70.48
411.653	71.8
412.096	72.99
412.54	74.16
412.983	75.45
413.426	76.82
413.869	78.16
414.312	79.46
414.756	80.6
415.199	81.52
415.642	82.33
416.085	82.94
416.527	83.32
416.97	83.42
417.413	83.32
417.856	83.1
418.298	82.9
418.741	82.87
419.184	82.93
419.626	83.18
420.069	83.47
420.511	83.87
420.953	84.33
421.396	85.11
421.838	86.18
422.28	87.34
422.722	88.56
423.164	89.63
423.606	90.48
424.048	91.07
424.49	91.16
424.932	90.71
425.374	89.43
425.816	87.76
426.258	86.02
426.699	84.84
427.141	84.65
427.582	85.26
428.024	86.3
428.465	87.36
428.907	88.23
429.348	89.08
429.789	90.5
430.231	93
430.672	96.33
431.113	99.98
431.554	103.18
431.995	105.54
432.436	107.11
432.877	108.36
433.318	109.52
433.759	110.99
434.2	112.83
434.64	114.8
435.081	116.54
435.522	118.05
435.962	119.13
436.403	120.14
436.843	120.88
437.284	121.56
437.724	122.36
438.164	123.41
438.604	124.65
439.045	125.79
439.485	126.68
439.925	127.36
440.365	127.82
440.805	128.21
441.245	128.35
441.685	128.83
442.125	129.23
442.564	129.7
443.004	130.03
443.444	130.53
443.883	131.07
444.323	131.68
444.762	132.34
445.202	132.99
445.641	133.81
446.081	135.03
446.52	135.81
446.959	136.79
447.398	137.45
447.837	137.59
448.276	137.28
448.716	136.88
449.154	136.56
449.593	136.14
450.032	135.44
450.471	134.43
450.91	133.16
451.349	131.93
451.787	130.68
452.226	129.44
452.664	128.43
453.103	127.52
453.541	126.3
453.98	124.96
454.418	123.46
454.856	122.1
455.295	121.1
455.733	119.9
456.171	118.93
456.609	118.12
457.047	116.98
457.485	116.37
457.923	115.98
458.361	115.84
458.798	115.9
459.236	115.95
459.674	116.25
460.111	116.31
460.549	116.79
460.987	117.2
461.424	117.46
461.862	118.14
462.299	118.49
462.736	118.79
463.173	119.39
463.611	120
464.048	120.86
464.485	121.64
464.922	122.48
465.359	123.26
465.796	123.89
466.233	124.85
466.67	125.66
467.106	126.53
467.543	127.36
467.98	127.97
468.416	128.5
468.853	128.87
469.29	129.14
469.726	129.46
470.162	129.65
470.599	129.7
471.035	129.5
471.471	129.23
471.907	128.81
472.344	128.37
472.78	127.76
473.216	127.03
473.652	126.32
474.088	125.46
474.523	124.41
474.959	123.38
475.395	122.32
475.831	121.22
476.266	120.1
476.702	118.99
477.138	117.7
477.573	116.42
478.008	115.07
478.444	113.56
478.879	112.1
479.314	110.68
479.75	109.16
480.185	107.62
480.62	105.97
481.055	104.22
481.49	102.24
481.925	100.3
482.36	98.49
482.795	96.91
483.229	95.57
483.664	94.28
484.099	92.99
484.534	91.81
484.968	90.86
485.403	89.96
485.837	89.36
486.271	88.94
486.706	88.5
487.14	88.16
487.574	87.68
488.009	87.15
488.443	86.64
488.877	86.24
489.311	85.89
489.745	85.55
490.179	85.35
490.613	85.09
491.046	84.94
491.48	84.89
491.914	84.8
492.348	84.81
492.781	84.85
493.215	84.94
493.648	85
494.082	85.06
494.515	85.13
494.948	85.2
495.382	85.25
495.815	85.27
496.248	85.37
496.681	85.43
497.114	85.45
497.547	85.47
497.98	85.52
498.413	85.62
498.846	85.78
499.279	85.88
499.711	85.99
500.144	86.16
500.577	86.37
501.009	86.61
501.442	86.96
501.874	87.24
502.306	87.63
502.739	87.95
503.171	88.35
503.603	88.6
504.036	88.91
504.468	89.26
504.9	89.62
505.332	89.96
505.764	90.27
506.196	90.54
506.627	90.91
507.059	91.26
507.491	91.61
507.923	91.84
508.354	92.24
508.786	92.62
509.217	92.95
509.649	93.31
510.08	93.66
510.512	94.06
510.943	94.5
511.374	94.94
511.805	95.24
512.237	95.53
512.668	95.87
513.099	96.14
513.53	96.45
513.961	96.82
514.391	97.16
514.822	97.53
515.253	97.88
515.684	98.2
516.114	98.57
516.545	98.93
516.975	99.36
517.406	99.76
517.836	100.17
518.267	100.5
518.697	100.76
519.127	100.98
519.558	101.19
519.988	101.4
520.418	101.58
520.848	101.66
521.278	101.79
521.708	101.78
522.138	101.88
522.567	101.91
522.997	101.97
523.427	102.11
523.857	102.22
524.286	102.41
524.716	102.57
525.145	102.68
525.575	102.91
526.004	103.11
526.433	103.46
526.863	103.78
527.292	104.06
527.721	104.29
528.15	104.43
528.579	104.53
529.008	104.65
529.437	104.68
529.866	104.78
530.295	104.85
530.724	104.94
531.152	105
531.581	105.04
532.01	105.1
532.438	105.13
532.867	105.26
533.295	105.39
533.723	105.48
534.152	105.62
534.58	105.68
535.008	105.68
535.436	105.71
535.865	105.67
536.293	105.63
536.721	105.67
537.149	105.78
537.576	105.98
538.004	106.22
538.432	106.34
538.86	106.5
539.287	106.68
539.715	106.94
540.143	107.26
540.57	107.67
540.998	108.08
541.425	108.39
541.852	108.81
542.28	109.14
542.707	109.48
543.134	109.88
543.561	110.19
543.988	110.54
544.415	110.9
544.842	111.24
545.269	111.55
545.696	111.87
546.123	112.32
546.549	112.61
546.976	112.88
547.403	113.11
547.829	113.4
548.256	113.72
548.682	113.98
549.108	114.31
549.535	114.62
549.961	114.82
550.387	115.02
550.813	115.2
551.24	115.41
551.666	115.54
552.092	115.67
552.518	115.8
552.943	115.86
553.369	115.97
553.795	116.01
554.221	115.94
554.646	115.9
555.072	115.73
555.498	115.53
555.923	115.37
556.349	115.21
556.774	115.03
557.199	114.77
557.625	114.6
558.05	114.34
558.475	114.03
558.9	113.75
559.325	113.47
559.75	113.19
560.175	112.87
560.6	112.47
561.025	111.98
561.449	111.48
561.874	110.92
562.299	110.3
562.723	109.73
563.148	109.04
563.572	108.29
563.997	107.55
564.421	106.73
564.846	105.98
565.27	105.16
565.694	104.44
566.118	103.58
566.542	102.83
566.966	102.04
567.39	101.27
567.814	100.61
568.238	100.08
568.662	99.55
569.086	99.13
569.509	98.77
569.933	98.5
570.357	98.28
570.78	98.15
571.204	98.05
571.627	98.07
572.05	98.12
572.474	98.23
572.897	98.4
573.32	98.54
573.743	98.75
574.166	98.91
574.589	99.11
575.012	99.32
575.435	99.67
575.858	99.97
576.281	100.31
576.704	100.66
577.126	100.96
577.549	101.2
577.972	101.57
578.394	101.91
578.817	102.24
579.239	102.61
579.661	102.97
580.084	103.21
580.506	103.55
580.928	103.81
581.35	104.09
581.772	104.32
582.194	104.58
582.616	104.8
583.038	105.08
583.46	105.29
583.882	105.43
584.303	105.47
584.725	105.54
585.147	105.47
585.568	105.47
585.99	105.42
586.411	105.54
586.833	105.57
587.254	105.59
587.675	105.58
588.096	105.63
588.518	105.69
588.939	105.83
589.36	105.94
589.781	106.09
590.202	106.13
590.623	106.16
591.043	105.99
591.464	105.87
591.885	105.69
592.305	105.54
592.726	105.28
593.147	104.92
593.567	104.54
593.987	104.06
594.408	103.59
594.828	103.15
595.248	102.63
595.669	102.05
596.089	101.39
596.509	100.78
596.929	100.05
597.349	99.36
597.769	98.67
598.189	97.99
598.608	97.45
599.028	96.87
599.448	96.33
599.867	95.82
600.287	95.45
600.706	95.03
601.126	94.6
601.545	94.29
601.965	94.02
602.384	93.82
602.803	93.62
603.222	93.38
603.641	93.19
604.061	93.05
604.48	92.89
604.898	92.77
605.317	92.72
605.736	92.68
606.155	92.63
606.574	92.57
606.992	92.55
607.411	92.54
607.829	92.57
608.248	92.62
608.666	92.61
609.085	92.63
609.503	92.59
609.921	92.61
610.339	92.61
610.758	92.62
611.176	92.63
611.594	92.61
612.012	92.58
612.43	92.49
612.847	92.44
613.265	92.39
613.683	92.4
614.101	92.46
614.518	92.46
614.936	92.47
615.353	92.45
615.771	92.47
616.188	92.51
616.606	92.56
617.023	92.66
617.44	92.71
617.857	92.7
618.274	92.69
618.691	92.62
619.108	92.55
619.525	92.47
619.942	92.37
620.359	92.23
620.776	92.04
621.192	91.87
621.609	91.71
622.026	91.53
622.442	91.47
622.859	91.34
623.275	91.2
623.691	91.05
624.108	90.96
624.524	90.89
624.94	90.84
625.356	90.78
625.772	90.72
626.188	90.72
626.604	90.68
627.02	90.61
627.436	90.55
627.852	90.58
628.268	90.6
628.683	90.68
629.099	90.77
629.514	90.83
629.93	90.93
630.345	91.07
630.761	91.11
631.176	91.21
631.591	91.26
632.007	91.39
632.422	91.49
632.837	91.61
633.252	91.68
633.667	91.78
634.082	91.84
634.497	91.97
634.911	92.02
635.326	92.06
635.741	92.08
636.155	92.08
636.57	92.04
636.984	92.02
637.399	91.94
637.813	91.89
638.228	91.76
638.642	91.69
639.056	91.55
639.47	91.5
639.884	91.41
640.298	91.33
640.712	91.31
641.126	91.22
641.54	91.11
641.954	91.01
642.368	90.86
642.781	90.72
643.195	90.59
643.609	90.44
644.022	90.28
644.436	90.12
644.849	89.96
645.262	89.72
645.676	89.55
646.089	89.45
646.502	89.39
646.915	89.34
647.328	89.32
647.741	89.24
648.154	89.2
648.567	89.12
648.98	89.1
649.393	89.09
649.805	89.13
650.218	89.16
650.631	89
651.043	88.72
651.456	88.2
651.868	87.47
652.28	86.71
652.693	86.09
653.105	85.57
653.517	85.21
653.929	84.89
654.341	84.66
654.753	84.42
655.165	84.33
655.577	84.38
655.989	84.69
656.401	85.18
656.813	85.76
657.224	86.16
657.636	86.47
658.047	86.66
658.459	86.73
658.87	86.71
659.282	86.67
659.693	86.59
660.104	86.45
660.515	86.27
660.926	86.15
661.338	85.97
661.749	85.79
662.159	85.57
662.57	85.34
662.981	85.14
663.392	84.91
663.803	84.71
664.213	84.5
664.624	84.32
665.035	84.16
665.445	83.92
665.855	83.68
666.266	83.47
666.676	83.26
667.086	82.96
667.497	82.66
667.907	82.44
668.317	82.19
668.727	81.96
669.137	81.71
669.547	81.48
669.956	81.25
670.366	81.05
670.776	80.84
671.186	80.66
671.595	80.53
672.005	80.39
672.414	80.29
672.824	80.15
673.233	80.03
673.642	79.93
674.052	79.84
674.461	79.77
674.87	79.68
675.279	79.63
675.688	79.59
676.097	79.55
676.506	79.54
676.915	79.5
677.323	79.51
677.732	79.54
678.141	79.58
678.549	79.57
678.958	79.61
679.366	79.65
679.775	79.63
680.183	79.62
680.592	79.62
681	79.64
681.408	79.65
681.816	79.52
682.224	79.07
682.632	78.22
683.04	77.11
683.448	76.02
683.856	75.02
684.264	74.19
684.671	73.39
685.079	72.62
685.487	71.94
685.894	71.36
686.302	71.05
686.709	71.12
687.116	71.71
687.524	72.69
687.931	73.76
688.338	74.79
688.745	75.78
689.152	76.73
689.559	77.75
689.966	78.67
690.373	79.54
690.78	80.33
691.187	81.09
691.593	81.79
692	82.45
692.407	83.07
692.813	83.71
693.22	84.25
693.626	84.85
694.032	85.39
694.439	85.88
694.845	86.41
695.251	86.88
695.657	87.31
696.063	87.72
696.469	88.04
696.875	88.33
697.281	88.59
697.687	88.85
698.093	89.09
698.498	89.36
698.904	89.71
699.31	90.05
699.715	90.43
700.12	90.85
700.526	91.28
700.931	91.78
701.337	92.26
701.742	92.7
702.147	93.19
702.552	93.69
702.957	94.14
703.362	94.59
703.767	94.97
704.172	95.33
704.577	95.67
704.981	96
705.386	96.32
705.791	96.64
706.195	96.99
706.6	97.36
707.004	97.65
707.408	97.96
707.813	98.25
708.217	98.52
708.621	98.81
709.025	99.04
709.43	99.3
709.834	99.57
710.237	99.78
710.641	99.98
711.045	100.14
711.449	100.35
711.853	100.47
712.256	100.46
712.66	100.38
713.064	100.18
713.467	99.87
713.87	99.42
714.274	98.83
714.677	98.24
715.08	97.57
715.484	96.97
715.887	96.37
716.29	95.94
716.693	95.76
717.096	95.84
717.499	96.17
717.901	96.73
718.304	97.42
718.707	98.14
719.109	98.83
719.512	99.51
719.915	100.08
720.317	100.59
720.719	100.98
721.122	101.28
721.524	101.4
721.926	101.43
722.328	101.38
722.731	101.28
723.133	101.27
723.535	101.29
723.937	101.39
724.338	101.51
724.74	101.66
725.142	101.86
725.544	102.02
725.945	102.21
726.347	102.34
726.748	102.46
727.15	102.6
727.551	102.81
727.952	103.1
728.354	103.44
728.755	103.85
729.156	104.29
729.557	104.7
729.958	105.1
730.359	105.54
730.76	105.94
731.161	106.31
731.562	106.65
731.962	106.91
732.363	107.12
732.763	107.29
733.164	107.43
733.564	107.55
733.965	107.61
734.365	107.65
734.766	107.6
735.166	107.57
735.566	107.58
735.966	107.63
736.366	107.63
736.766	107.59
737.166	107.58
737.566	107.53
737.966	107.44
738.365	107.45
738.765	107.48
739.165	107.56
739.564	107.69
739.964	107.74
740.363	107.8
740.763	107.9
741.162	108.05
741.561	108.13
741.96	108.26
742.36	108.43
742.759	108.53
743.158	108.63
743.557	108.68
743.955	108.71
744.354	108.77
744.753	108.81
745.152	108.82
745.55	108.79
745.949	108.73
746.348	108.65
746.746	108.5
747.144	108.32
747.543	108.09
747.941	107.87
748.339	107.57
748.737	107.31
749.136	107
749.534	106.68
749.932	106.43
750.33	106.16
750.727	105.88
751.125	105.59
751.523	105.29
751.921	105.03
752.318	104.76
752.716	104.52
753.113	104.32
753.511	104.08
753.908	103.91
754.305	103.57
754.703	102.99
755.1	101.83
755.497	99.64
755.894	96.04
756.291	91.39
756.688	86.36
757.085	81.71
757.482	77.52
757.878	73.71
758.275	69.91
758.672	66.03
759.068	62.42
759.465	59.46
759.861	57.88
760.258	58.08
760.654	59.71
761.05	62.11
761.447	64.53
761.843	66.75
762.239	68.93
762.635	71.47
763.031	74.5
763.427	77.76
763.822	81.18
764.218	84.44
764.614	87.5
765.01	90.25
765.405	92.71
765.801	94.83
766.196	96.72
766.592	98.29
766.987	99.51
767.382	100.44
767.778	101.18
768.173	101.73
768.568	102.17
768.963	102.47
769.358	102.78
769.753	102.99
770.148	103.16
770.542	103.25
770.937	103.28
771.332	103.3
771.726	103.37
772.121	103.42
772.515	103.43
772.91	103.42
773.304	103.4
773.699	103.28
774.093	103.2
774.487	103.11
774.881	103.09
775.275	103.01
775.669	102.9
776.063	102.72
776.457	102.52
776.851	102.29
777.245	102.06
777.638	101.91
778.032	101.81
778.425	101.71
778.819	101.52
779.212	101.27
779.606	101.09
779.999	100.9
780.392	100.77
780.786	100.59
781.179	100.46
781.572	100.31
781.965	100.07
782.358	99.83
782.751	99.52
783.143	99.27
783.536	99.02
783.929	98.74
784.322	98.46
784.714	98.14
785.107	97.82
785.499	97.43
785.891	97.05
786.284	96.72
786.676	96.3
787.068	95.9
787.46	95.5
787.852	95.1
788.245	94.66
788.636	94.23
789.028	93.76
789.42	93.27
789.812	92.83
790.204	92.38
790.595	91.88
790.987	91.5
791.378	91.13
791.77	90.79
792.161	90.43
792.553	90.11
792.944	89.79
793.335	89.56
793.726	89.36
794.117	89.1
794.508	88.81
794.899	88.55
795.29	88.23
795.681	87.81
796.072	87.4
796.463	86.97
796.853	86.55
797.244	86.16
797.634	85.66
798.025	85.19
798.415	84.69
798.806	84.18
799.196	83.71
799.586	83.21
799.976	82.79
800.366	82.31
800.756	81.84
801.146	81.41
801.536	80.97
801.926	80.52
802.316	80.06
802.706	79.66
803.095	79.25
803.485	78.8
803.874	78.35
804.264	77.88
804.653	77.4
805.043	76.9
805.432	76.34
805.821	75.76
806.21	75.17
806.599	74.6
806.988	74.02
807.377	73.39
807.766	72.79
808.155	72.11
808.544	71.47
808.933	70.79
809.321	70.05
809.71	69.26
810.098	68.44
810.487	67.55
810.875	66.61
811.264	65.6
811.652	64.59
812.04	63.49
812.428	62.47
812.816	61.42
813.204	60.44
813.592	59.53
813.98	58.7
814.368	57.93
814.756	57.21
815.144	56.53
815.531	55.97
815.919	55.51
816.306	55.25
816.694	55.04
817.081	54.92
817.469	54.72
817.856	54.43
818.243	54
818.63	53.44
819.017	52.89
819.404	52.45
819.791	52.07
820.178	51.74
820.565	51.34
820.952	50.9
821.339	50.44
821.725	50.09
822.112	49.86
822.498	49.77
822.885	49.76
823.271	49.69
823.657	49.49
824.044	49.22
824.43	48.88
824.816	48.47
825.202	48.07
825.588	47.66
825.974	47.23
826.36	46.79
826.746	46.36
827.132	45.96
827.517	45.64
827.903	45.34
828.289	45.03
828.674	44.7
829.06	44.41
829.445	44.1
829.83	43.83
830.216	43.56
830.601	43.33
830.986	43.12
831.371	42.92
831.756	42.74
832.141	42.57
832.526	42.42
832.911	42.29
833.295	42.2
833.68	42.09
834.065	41.96
834.449	41.82
834.834	41.64
835.218	41.47
835.603	41.31
835.987	41.13
836.371	40.95
836.755	40.77
837.139	40.6
837.524	40.41
837.908	40.24
838.291	40.06
838.675	39.88
839.059	39.71
839.443	39.5
839.827	39.28
840.21	39.07
840.594	38.88
840.977	38.69
841.361	38.51
841.744	38.3
842.127	38.1
842.511	37.91
842.894	37.72
843.277	37.56
843.66	37.41
844.043	37.28
844.426	37.14
844.809	36.96
845.191	36.75
845.574	36.47
845.957	36.2
846.339	35.97
846.722	35.75
847.104	35.56
847.487	35.35
847.869	35.13
848.252	34.95
848.634	34.75
849.016	34.56
849.398	34.33
849.78	34.08
850.162	33.79
850.544	33.5
850.926	33.23
851.307	33
851.689	32.8
852.071	32.63
852.452	32.44
852.834	32.29
853.215	32.16
853.597	32.12
853.978	32.18
854.359	32.3
854.741	32.38
855.122	32.42
855.503	32.41
855.884	32.36
856.265	32.3
856.646	32.23
857.026	32.14
857.407	32.03
857.788	31.93
858.169	31.82
858.549	31.69
858.93	31.59
859.31	31.49
859.69	31.38
860.071	31.27
860.451	31.14
860.831	31
861.211	30.82
861.591	30.61
861.971	30.36
862.351	30.09
862.731	29.84
863.111	29.58
863.491	29.34
863.87	29.14
864.25	28.94
864.629	28.77
865.009	28.62
865.388	28.51
865.768	28.48
866.147	28.47
866.526	28.49
866.905	28.5
867.284	28.51
867.663	28.49
868.042	28.46
868.421	28.43
868.8	28.39
869.179	28.33
869.558	28.27
869.936	28.19
870.315	28.11
870.693	28.02
871.072	27.94
871.45	27.83
871.828	27.75
872.207	27.67
872.585	27.58
872.963	27.52
873.341	27.44
873.719	27.38
874.097	27.3
874.475	27.25
874.853	27.21
875.23	27.17
875.608	27.1
875.986	27.04
876.363	26.97
876.741	26.89
877.118	26.79
877.495	26.71
877.873	26.63
878.25	26.57
878.627	26.48
879.004	26.39
879.381	26.3
879.758	26.24
880.135	26.15
880.512	26.07
880.889	26.03
881.265	25.98
881.642	25.93
882.019	25.86
882.395	25.77
882.772	25.7
883.148	25.61
883.524	25.54
883.901	25.48
884.277	25.41
884.653	25.35
885.029	25.28
885.405	25.21
885.781	25.15
886.157	25.11
886.532	25.07
886.908	25.01
887.284	24.96
887.659	24.88
888.035	24.81
888.411	24.74
888.786	24.67
889.161	24.6
889.537	24.52
889.912	24.45
890.287	24.35
890.662	24.25
891.037	24.15
891.412	24.02
891.787	23.89
892.162	23.75
892.536	23.6
892.911	23.45
893.286	23.3
893.66	23.12
894.035	22.94
894.409	22.77
894.784	22.6
895.158	22.41
895.532	22.24
895.906	22.08
896.281	21.93
896.655	21.8
897.029	21.66
897.402	21.53
897.776	21.44
898.15	21.33
898.524	21.25
898.898	21.19
899.271	21.19
899.645	21.2
900.018	21.24
900.392	21.3
900.765	21.37
901.138	21.43
901.511	21.52
901.884	21.59
902.258	21.66
902.631	21.72
903.003	21.76
903.376	21.76
903.749	21.72
904.122	21.66
904.495	21.59
904.867	21.49
905.24	21.39
905.612	21.27
905.985	21.14
906.357	21.03
906.729	20.93
907.102	20.84
907.474	20.77
907.846	20.72
908.218	20.69
908.59	20.63
908.962	20.59
909.334	20.56
909.705	20.54
910.077	20.51
910.449	20.5
910.82	20.47
911.192	20.43
911.563	20.38
911.935	20.32
912.306	20.26
912.677	20.26
913.048	20.25
913.419	20.22
913.79	20.19
914.161	20.15
914.532	20.11
914.903	20.1
915.274	20.1
915.645	20.12
916.015	20.14
916.386	20.16
916.756	20.17
917.127	20.17
917.497	20.2
917.868	20.24
918.238	20.28
918.608	20.33
918.978	20.34
919.348	20.36
919.718	20.36
920.088	20.37
920.458	20.34
920.828	20.31
921.198	20.28
921.567	20.24
921.937	20.21
922.306	20.15
922.676	20.08
923.045	20.04
923.415	19.98
923.784	19.91
924.153	19.88
924.522	19.85
924.891	19.8
925.26	19.73
925.629	19.63
925.998	19.53
926.367	19.44
926.736	19.32
927.104	19.17
927.473	19
927.842	18.83
928.21	18.62
928.578	18.39
928.947	18.15
929.315	17.89
929.683	17.65
930.051	17.42
930.42	17.17
930.788	16.91
931.156	16.67
931.523	16.47
931.891	16.28
932.259	16.13
932.627	15.98
932.994	15.84
933.362	15.76
933.729	15.72
934.097	15.66
934.464	15.64
934.831	15.67
935.199	15.72
935.566	15.78
935.933	15.85
936.3	15.95
936.667	16.07
937.034	16.26
937.401	16.42
937.767	16.56
938.134	16.74
938.501	16.92
938.867	17.09
939.234	17.22
939.6	17.34
939.967	17.39
940.333	17.41
940.699	17.42
941.065	17.36
941.431	17.32
941.798	17.26
942.163	17.22
942.529	17.17
942.895	17.15
943.261	17.06
943.627	17
943.992	16.97
944.358	16.96
944.723	16.96
945.089	16.95
945.454	16.99
945.82	17.04
946.185	17.02
946.55	17
946.915	16.99
947.28	17
947.645	17.02
948.01	17.08
948.375	17.06
948.74	17.09
949.104	17.11
949.469	17.09
949.834	17.01
950.198	17.01
950.562	16.96
950.927	16.93
951.291	16.92
951.655	16.9
952.02	16.82
952.384	16.81
952.748	16.75
953.112	16.69
953.476	16.62
953.839	16.61
954.203	16.57
954.567	16.55
954.931	16.52
955.294	16.54
955.658	16.58
956.021	16.57
956.385	16.52
956.748	16.55
957.111	16.58
957.474	16.6
957.837	16.58
958.2	16.57
958.563	16.58
958.926	16.59
959.289	16.61
959.652	16.54
960.015	16.56
960.377	16.65
960.74	16.65
961.102	16.7
961.465	16.76
961.827	16.86
962.189	16.91
962.552	16.96
962.914	17.02
963.276	17.03
963.638	17.08
964	17.1
964.362	17.12
964.724	17.17
965.085	17.21
965.447	17.23
965.809	17.25
966.17	17.28
966.532	17.3
966.893	17.34
967.255	17.4
967.616	17.47
967.977	17.54
968.338	17.6
968.699	17.65
969.061	17.72
969.421	17.77
969.782	17.82
970.143	17.88
970.504	17.94
970.865	17.99
971.225	17.96
971.586	17.96
971.946	17.97
972.307	17.96
972.667	17.97
973.027	17.95
973.388	17.91
973.748	17.87
974.108	17.88
974.468	17.83
974.828	17.81
975.188	17.83
975.548	17.79
975.907	17.82
976.267	17.78
976.627	17.77
976.986	17.73
977.346	17.72
977.705	17.75
978.064	17.79
978.424	17.87
978.783	17.88
979.142	17.9
979.501	17.94
979.86	17.94
980.219	18.02
980.578	18.06
980.937	18.16
981.296	18.22
981.654	18.26
982.013	18.26
982.371	18.24
982.73	18.32
983.088	18.4
983.447	18.43
983.805	18.49
984.163	18.5
984.521	18.52
984.879	18.48
985.237	18.59
985.595	18.66
985.953	18.66
986.311	18.7
986.669	18.66
987.026	18.72
987.384	18.76
987.741	18.79
988.099	18.87
988.456	18.93
988.814	19.04
989.171	19.03
989.528	19.05
989.885	19.07
990.242	19.09
990.599	19.16
990.956	19.22
991.313	19.29
991.67	19.34
992.027	19.38
992.383	19.4
992.74	19.52
993.096	19.49
993.453	19.51
993.809	19.67
994.165	19.81
994.522	19.89
994.878	19.89
995.234	19.99
995.59	20.02
995.946	20.03
996.302	20.14
996.658	20.1
997.013	20.21
997.369	20.3
997.725	20.28
998.08	20.39
998.436	20.42
998.791	20.49
999.147	20.43
999.502	20.46
999.857	20.49
1000.212	20.37
1000.567	20.41
1000.922	20.46
1001.277	20.39
1001.632	20.39
1001.987	20.34
1002.342	20.29
1002.696	20.3
1003.051	20.38
1003.406	20.44
1003.76	20.46
1004.114	20.65
1004.469	20.71
1004.823	20.91
1005.177	20.96
1005.531	21.12
1005.885	21.21
1006.239	21.33
1006.593	21.43
1006.947	21.42
1007.301	21.4
1007.655	21.44
1008.008	21.45
1008.362	21.42
1008.715	21.39
1009.069	21.56
1009.422	21.46
1009.776	21.36
1010.129	21.41
1010.482	21.52
1010.835	21.75
1011.188	21.95
1011.541	22.08
1011.894	22.23
1012.247	22.37
1012.6	22.34
1012.952	22.22
1013.305	22.45
1013.657	22.7
1014.01	22.97
1014.362	22.97
1014.715	23.05
1015.067	22.98
1015.419	23
1015.771	23.08
1016.123	23.2
1016.475	23.38
1016.827	23.62
1017.179	23.85
1017.531	23.9
1017.883	23.89
1018.234	24.09
1018.586	24.12
1018.938	24.34
1019.289	24.56
1019.64	24.59
1019.992	24.59
1020.343	24.63
1020.694	24.74
1021.045	24.67
1021.396	24.78
1021.747	24.85
1022.098	25.01
1022.449	25.12
1022.8	25.31
1023.151	25.53
1023.501	25.87
1023.852	26.39
1024.202	26.45
1024.553	26.59
1024.903	26.71
1025.253	27.01
1025.604	27.29
1025.954	27.2
1026.304	27.35
1026.654	27.43
1027.004	27.54
1027.354	27.53
1027.703	27.21
1028.053	27.25
1028.403	27.67
1028.753	27.62
1029.102	27.85
1029.452	28.04
1029.801	28.52
1030.15	28.62
1030.499	28.7
897.758	1019.02
901.051	1022.49
904.343	1017.53
907.636	1035.73
910.928	1007.84
914.22	1008.3
917.511	995.17
920.803	953.73
924.094	946.97
927.384	921.65
930.675	885.95
933.965	882.09
937.255	830.68
940.544	798.15
943.834	760.71
947.123	755.05
950.411	713.79
953.7	699.39
956.988	660.95
960.276	638.11
963.563	629.59
966.851	607.8
970.138	602.51
973.424	585.34
976.711	587.18
979.997	560.07
983.283	556.04
986.568	543.57
989.853	526.9
993.138	518.26
996.423	497.58
999.708	483.65
1002.992	477.61
1006.275	457.67
1009.559	453.23
1012.842	439.69
1016.125	427.56
1019.408	420.54
1022.69	414.21
1025.972	405.95
1029.254	396.55
1032.536	390.96
1035.817	383.31
1039.098	379.54
1042.379	371.57
1045.659	368.02
1048.939	357.93
1052.219	351.72
1055.498	346.36
1058.778	339.06
1062.057	333.15
1065.335	329.88
1068.614	325.55
1071.892	321.58
1075.17	312.72
1078.447	306.52
1081.724	303.7
1085.001	302.12
1088.278	296.28
1091.554	289.21
1094.83	289.57
1098.106	286.76
1101.382	285.05
1104.657	283.29
1107.932	278.68
1111.206	279.45
1114.481	273.71
1117.755	271.72
1121.029	269.21
1124.302	268.17
1127.575	264.35
1130.848	261.25
1134.121	258.45
1137.393	256.12
1140.665	250.9
1143.937	249.52
1147.208	247.51
1150.48	246.5
1153.75	244.01
1157.021	241.34
1160.291	241.27
1163.561	239.04
1166.831	238.41
1170.101	236.75
1173.37	237.13
1176.639	237.77
1179.907	235.81
1183.176	233.35
1186.444	233.3
1189.711	231.98
1192.979	231.04
1196.246	229.24
1199.513	231.49
1202.78	229.88
1206.046	229.54
1209.312	227.48
1212.578	227.22
1215.843	228.89
1219.108	227.7
1222.373	231.57
1225.638	233.1
1228.902	235.37
1232.166	237.23
1235.43	237.25
1238.693	241.27
1241.956	242.38
1245.219	245.44
1248.482	245.9
1251.744	245.25
1255.006	246.25
1258.268	240.83
1261.529	239.46
1264.79	238.15
1268.051	235.81
1271.312	233.19
1274.572	230.45
1277.832	229.06
1281.092	225.06
1284.351	223.72
1287.61	223.91
1290.869	221.07
1294.128	219.85
1297.386	220.06
1300.644	217.83
1303.902	218.74
1307.159	218.04
1310.416	217.78
1313.673	216.43
1316.93	219.56
1320.186	218.88
1323.442	219.32
1326.697	222
1329.953	222.97
1333.208	223.33
1336.463	226.25
1339.717	226.24
1342.972	228.35
1346.226	230.07
1349.479	231.57
1352.733	231.89
1355.986	233.35
1359.238	232.97
1362.491	234.11
1365.743	236.01
1368.995	235.22
1372.247	234.99
1375.498	234.76
1378.749	236.77
1382	233.71
1385.251	233.92
1388.501	232.3
1391.751	232.45
1395	232.1
1398.25	229.79
1401.499	228.02
1404.748	227.65
1407.996	225.34
1411.244	223.98
1414.492	221.87
1417.74	220.03
1420.987	217.06
1424.234	215.99
1427.481	212.98
1430.728	212.14
1433.974	210.86
1437.22	208.29
1440.465	207.85
1443.711	205.39
1446.956	203.19
1450.201	201.27
1453.445	198.91
1456.689	197.96
1459.933	194.88
1463.177	194.34
1466.42	190.75
1469.663	188.3
1472.906	187.08
1476.148	182.62
1479.391	180.96
1482.633	180.37
1485.874	177.66
1489.115	176.44
1492.356	175.09
1495.597	174.27
1498.838	171.56
1502.078	171.13
1505.318	170.79
1508.557	170.88
1511.797	170.69
1515.036	169.32
1518.274	168.45
1521.513	167.45
1524.751	167.48
1527.989	166.77
1531.227	166.98
1534.464	166.89
1537.701	165.5
1540.938	165.16
1544.174	163.58
1547.41	163.73
1550.646	162.91
1553.882	163.46
1557.117	161.49
1560.352	160.96
1563.587	160.3
1566.821	159.13
1570.055	158.27
1573.289	157.42
1576.523	157.06
1579.756	156.02
1582.989	155.2
1586.222	155.3
1589.454	153.9
1592.686	155.25
1595.918	154.65
1599.15	154.18
1602.381	154.49
1605.612	154.11
1608.843	154.8
1612.073	155.27
1615.303	155.94
1618.533	156.01
1621.762	156.4
1624.992	156.73
1628.221	156.26
1631.449	156.2
1634.678	155.81
1637.906	157.06
1641.134	157.14
1644.361	156.88
1647.588	156.59
1650.815	156.23
1654.042	155.49
1657.269	156.09
1660.495	156.6
1663.72	155.99
1666.946	156.87
1670.171	157.72
1673.396	157.01
1676.621	157.04
1679.845	157.03
1683.069	157.49
1686.293	158.31
1689.517	159.45
1692.74	159.23
1695.963	159.33
1699.185	160.95
1702.408	160.32
1705.63	161.41
1708.852	161.4
1712.073	161.22
1715.294	161.99
1718.515	162.26
1721.736	161.97
1724.956	162.24
1728.176	162.38
1731.396	163.61
1734.616	163.21
1737.835	163.9
1741.054	161.76
1744.272	162.73
1747.491	164.81
1750.709	164.67
1753.927	164.71
1757.144	164.48
1760.361	165.36
1763.578	165.26
1766.795	164.92
1770.011	165.72
1773.227	165.88
1776.443	167.89
1779.658	168.26
1782.874	167.88
1786.089	168.62
1789.303	168.94
1792.518	171.39
1795.732	170.51
1798.945	171.98
1802.159	172.21
1805.372	173.12
1808.585	175.16
1811.797	175.93
1815.01	175.8
1818.222	176.62
1821.434	178.43
1824.645	179.08
1827.856	181.04
1831.067	182.84
1834.278	183.12
1837.488	184.14
1840.698	184.71
1843.908	183.63
1847.117	184.32
1850.326	185.66
1853.535	184.53
1856.744	186.81
1859.952	186.06
1863.16	184.32
1866.368	183.06
1869.575	183.49
1872.782	181.19
1875.989	179.44
1879.196	178.92
1882.402	177.2
1885.608	177.34
1888.814	177.52
1892.019	175.9
1895.224	175.64
1898.429	175.32
1901.634	175.6
1904.838	175.52
1908.042	177.33
1911.246	177.84
1914.449	178.34
1917.652	178.28
1920.855	177.48
1924.058	177.71
1927.26	176.94
1930.462	177.06
1933.664	178.09
1936.865	177.74
1940.066	177.08
1943.267	175.09
1946.467	175.79
1949.668	176.64
1952.868	178.65
1956.067	179.34
1959.267	179.75
1962.466	180.22
1965.665	180.11
1968.863	180.24
1972.061	182.22
1975.259	184.08
1978.457	186.38
1981.654	187.38
1984.852	187.99
1988.048	187.69
1991.245	189.14
1994.441	191.16
1997.637	192.47
2000.833	196.09
2004.028	199.37
2007.223	199.93
2010.418	201.96
2013.613	205.18
2016.807	208.26
2020.001	210.38
2023.194	213.97
2026.388	218.49
2029.581	223.12
2032.774	225.58
2035.966	228.34
2039.158	229
2042.35	233.88
2045.542	235.95
2048.733	239.06
2051.924	241.87
2055.115	246.22
2058.306	246.27
2061.496	249.24
2064.686	248.33
2067.875	252.01
2071.065	255.26
2074.254	254.24
2077.442	256.34
2080.631	256.79
2083.819	259.56
2087.007	261.32
2090.195	263.03
2093.382	266.07
2096.569	264.94
2099.756	270.15
2102.942	271.97
2106.128	273.12
2109.314	278.75
2112.5	278.86
2115.685	286.49
2118.87	287.04
2122.055	291.59
2125.239	293.62
2128.424	297.62
2131.608	298.78
2134.791	303.23
2137.974	303.84
2141.157	305.54
2144.34	306.92
2147.523	310.39
2150.705	307.57
2153.887	310.04
2157.068	310.92
2160.25	308.31
2163.431	308.99
2166.611	313.88
2169.792	317.83
2172.972	322.82
2176.152	324.01
2179.331	327.87
2182.511	334.18
2185.69	337.18
2188.868	345.05
2192.047	345.33
2195.225	356.42
2198.403	364.62
2201.58	369.42
2204.758	377.24
2207.935	383.04
2211.111	390.35
2214.288	395.75
2217.464	396.86
2220.64	402.26
2223.815	406.85
2226.991	424.17
2230.166	423.51
2233.34	429.81
2236.515	438.34
2239.689	439.09
2242.863	441.15
2246.036	453.97
2249.209	450.45
2252.382	456.86
2255.555	471.82
2258.727	473.4
2261.9	476.48
2265.071	482.73
2268.243	491.88
2271.414	496.2
2274.585	506.78
2277.756	512.5
2280.926	515.52
2284.096	527.44
2287.266	538.05
2290.436	541.75
2293.605	554.34
2296.774	568
2299.942	584.9
2303.111	589.63
2306.279	603.78
2309.447	610.83
2312.614	627.12
2315.781	645.12
2318.948	673.59
2322.115	666.34
2325.281	705.2
2328.447	689.52
2331.613	715.8
2334.779	708.93
2337.944	738.14
2341.109	742.56
2344.274	766.34
2347.438	789.68
2350.602	789.35
2353.766	815.54
2356.929	828.25
2360.092	814.34
2363.255	873.44
2366.418	874.07
2369.58	890.43
2372.742	944.26
2375.904	972.12
2379.066	963.14
2382.227	952.78
2385.388	1029.57
2388.548	1029.39
2391.709	1039.9
2394.869	1163.1
2398.029	1121.03
2401.188	1150.4
2404.347	1143.31
2407.506	1124.94
2410.665	1155.33
2413.823	1223.23
2416.981	1290.89
2420.139	1255.19
2423.296	1240.81
2426.453	1297.3
2429.61	1246.09
2432.767	1294.6
2435.923	1282.39
2439.079	1403.08
2442.235	1421.44
2445.391	1410.8
2448.546	1403.17
2451.701	1361.14
2454.855	1357.71
2458.009	1438.77
2461.163	1500.85
2464.317	1557.62
2467.471	1598.95
2470.624	1601.75
2473.777	1558.63
2476.929	1518.72
2480.082	1474.1
2483.234	1456.16
2486.385	1531.59
2489.537	1537.69
2492.688	1589.7
2495.839	1544.23
2498.989	1515.61
2502.14	1521.16
2505.29	1529.42
2508.439	1556.87
2511.589	1553.75
2514.738	1693.05
2517.887	1657.1
2521.035	1743.14
2524.183	1763.08
2527.331	1778.42
2530.479	1767.55
2533.627	1776.12
