Data from C_1_DEC_NC_4N_Splice17_12-58-24-256.txt Node
Date: Sat Mar 07 12:58:24 EST 2020
User: sa697716
Spectrometer: NQ5500242
Trigger mode: 0
Integration Time (sec): 1.450000E-1
Scans to average: 20
Nonlinearity correction enabled: false
Boxcar width: 5
Storing dark spectrum: false
XAxis mode: Wavelengths
Number of Pixels in Spectrum: 512
>>>>>Begin Spectral Data<<<<<
187.83	170.58
188.298	189.51
188.766	163.63
189.233	139.12
189.701	162.68
190.169	206.49
190.636	227.31
191.104	409.2
191.571	442.76
192.039	246.62
192.506	194.16
192.974	68.32
193.441	194.34
193.908	104.98
194.375	70.48
194.842	81.66
195.31	213.16
195.777	328.59
196.244	61.75
196.711	50.29
197.177	51.31
197.644	50.79
198.111	49.25
198.578	49.02
199.045	49.16
199.511	49.36
199.978	49.18
200.445	49.29
200.911	49.34
201.378	49.57
201.844	49.48
202.31	49.13
202.777	48.9
203.243	49.19
203.709	48.68
204.176	48.39
204.642	48.16
205.108	48.49
205.574	48.09
206.04	47.7
206.506	47.47
206.972	47.16
207.438	46.77
207.903	46.35
208.369	45.73
208.835	45.4
209.301	44.56
209.766	43.33
210.232	41.9
210.697	40.95
211.163	40.16
211.628	39.13
212.094	38.3
212.559	38.13
213.024	37.42
213.49	36.62
213.955	35.91
214.42	35.39
214.885	34.79
215.35	33.85
215.815	32.6
216.28	30.85
216.745	29.05
217.21	27.26
217.675	25.38
218.14	23.97
218.604	22.76
219.069	21.74
219.534	20.89
219.998	20.2
220.463	19.65
220.927	19.06
221.392	18.61
221.856	18.28
222.32	17.93
222.785	17.65
223.249	17.37
223.713	17.1
224.177	16.86
224.642	16.58
225.106	16.31
225.57	16.05
226.034	15.86
226.497	15.66
226.961	15.41
227.425	15.23
227.889	15.01
228.353	14.82
228.816	14.62
229.28	14.42
229.744	14.23
230.207	14.05
230.671	13.86
231.134	13.67
231.597	13.52
232.061	13.37
232.524	13.2
232.987	13.04
233.45	12.9
233.914	12.74
234.377	12.6
234.84	12.44
235.303	12.33
235.766	12.2
236.229	12.08
236.691	11.94
237.154	11.82
237.617	11.71
238.08	11.58
238.542	11.45
239.005	11.34
239.468	11.22
239.93	11.12
240.393	11.02
240.855	10.89
241.317	10.78
241.78	10.66
242.242	10.54
242.704	10.45
243.166	10.34
243.629	10.24
244.091	10.15
244.553	10.05
245.015	9.95
245.477	9.86
245.939	9.77
246.4	9.69
246.862	9.61
247.324	9.53
247.786	9.44
248.247	9.37
248.709	9.27
249.17	9.18
249.632	9.13
250.093	9.06
250.555	8.98
251.016	8.91
251.477	8.84
251.939	8.79
252.4	8.73
252.861	8.66
253.322	8.6
253.783	8.55
254.244	8.51
254.705	8.44
255.166	8.38
255.627	8.33
256.088	8.29
256.549	8.24
257.009	8.18
257.47	8.12
257.931	8.06
258.391	8
258.852	7.94
259.312	7.89
259.773	7.84
260.233	7.8
260.694	7.75
261.154	7.69
261.614	7.64
262.074	7.6
262.534	7.56
262.994	7.52
263.455	7.49
263.915	7.46
264.374	7.42
264.834	7.4
265.294	7.37
265.754	7.35
266.214	7.32
266.673	7.3
267.133	7.27
267.593	7.26
268.052	7.25
268.512	7.24
268.971	7.22
269.431	7.21
269.89	7.19
270.349	7.17
270.809	7.15
271.268	7.13
271.727	7.12
272.186	7.11
272.645	7.09
273.104	7.07
273.563	7.05
274.022	7.03
274.481	7.02
274.94	6.99
275.399	6.97
275.857	6.96
276.316	6.94
276.775	6.92
277.233	6.9
277.692	6.87
278.15	6.86
278.609	6.84
279.067	6.82
279.525	6.8
279.984	6.77
280.442	6.76
280.9	6.75
281.358	6.74
281.816	6.73
282.274	6.71
282.732	6.7
283.19	6.68
283.648	6.66
284.106	6.64
284.564	6.62
285.021	6.6
285.479	6.58
285.937	6.55
286.394	6.52
286.852	6.48
287.309	6.46
287.767	6.42
288.224	6.39
288.682	6.35
289.139	6.33
289.596	6.3
290.053	6.27
290.511	6.24
290.968	6.22
291.425	6.19
291.882	6.18
292.339	6.15
292.796	6.14
293.252	6.13
293.709	6.12
294.166	6.11
294.623	6.09
295.079	6.08
295.536	6.06
295.992	6.04
296.449	6.03
296.905	6.01
297.362	5.99
297.818	5.97
298.274	5.96
298.731	5.94
299.187	5.92
299.643	5.91
300.099	5.89
300.555	5.88
301.011	5.87
301.467	5.85
301.923	5.84
302.379	5.83
302.835	5.83
303.291	5.82
303.746	5.8
304.202	5.79
304.658	5.79
305.113	5.78
305.569	5.77
306.024	5.76
306.479	5.75
306.935	5.73
307.39	5.71
307.845	5.7
308.301	5.69
308.756	5.68
309.211	5.67
309.666	5.67
310.121	5.66
310.576	5.65
311.031	5.64
311.486	5.64
311.94	5.63
312.395	5.62
312.85	5.61
313.305	5.6
313.759	5.6
314.214	5.58
314.668	5.57
315.123	5.56
315.577	5.54
316.032	5.53
316.486	5.5
316.94	5.49
317.394	5.47
317.849	5.45
318.303	5.43
318.757	5.4
319.211	5.39
319.665	5.38
320.119	5.35
320.572	5.34
321.026	5.33
321.48	5.32
321.934	5.3
322.387	5.29
322.841	5.29
323.295	5.29
323.748	5.29
324.202	5.28
324.655	5.26
325.108	5.26
325.562	5.25
326.015	5.23
326.468	5.23
326.921	5.22
327.374	5.21
327.827	5.21
328.28	5.19
328.733	5.18
329.186	5.17
329.639	5.17
330.092	5.17
330.545	5.17
330.997	5.17
331.45	5.17
331.903	5.17
332.355	5.18
332.808	5.18
333.26	5.18
333.713	5.18
334.165	5.18
334.617	5.17
335.069	5.16
335.522	5.16
335.974	5.16
336.426	5.14
336.878	5.13
337.33	5.12
337.782	5.11
338.234	5.11
338.686	5.1
339.137	5.1
339.589	5.09
340.041	5.08
340.493	5.06
340.944	5.05
341.396	5.04
341.847	5.03
342.299	5.02
342.75	5
343.201	4.97
343.653	4.96
344.104	4.93
344.555	4.91
345.006	4.9
345.457	4.89
345.908	4.88
346.359	4.87
346.81	4.86
347.261	4.85
347.712	4.85
348.163	4.85
348.613	4.85
349.064	4.85
349.515	4.85
349.965	4.85
350.416	4.84
350.866	4.84
351.317	4.84
351.767	4.83
352.217	4.82
352.668	4.82
353.118	4.83
353.568	4.82
354.018	4.83
354.468	4.83
354.918	4.83
355.368	4.83
355.818	4.83
356.268	4.83
356.718	4.83
357.168	4.84
357.617	4.83
358.067	4.82
358.517	4.83
358.966	4.84
359.416	4.83
359.865	4.82
360.315	4.82
360.764	4.82
361.213	4.82
361.663	4.82
362.112	4.82
362.561	4.82
363.01	4.82
363.459	4.8
363.908	4.79
364.357	4.79
364.806	4.79
365.255	4.8
365.703	4.8
366.152	4.8
366.601	4.8
367.05	4.8
367.498	4.79
367.947	4.8
368.395	4.8
368.844	4.82
369.292	4.81
369.74	4.81
370.189	4.81
370.637	4.81
371.085	4.8
371.533	4.8
371.981	4.8
372.429	4.81
372.877	4.8
373.325	4.8
373.773	4.79
374.221	4.8
374.669	4.79
375.116	4.79
375.564	4.79
376.012	4.79
376.459	4.79
376.907	4.8
377.354	4.8
377.801	4.81
378.249	4.81
378.696	4.82
379.143	4.83
379.591	4.84
380.038	4.85
380.485	4.87
380.932	4.88
381.379	4.9
381.826	4.92
382.273	4.93
382.72	4.94
383.166	4.96
383.613	4.97
384.06	4.97
384.506	4.98
384.953	5.01
385.4	5.02
385.846	5.04
386.292	5.06
386.739	5.07
387.185	5.09
387.631	5.11
388.078	5.13
388.524	5.16
388.97	5.2
389.416	5.24
389.862	5.27
390.308	5.31
390.754	5.35
391.2	5.39
391.645	5.43
392.091	5.48
392.537	5.52
392.983	5.56
393.428	5.59
393.874	5.63
394.319	5.66
394.765	5.69
395.21	5.71
395.655	5.74
396.101	5.78
396.546	5.82
396.991	5.84
397.436	5.88
397.881	5.93
398.326	5.97
398.771	6.01
399.216	6.05
399.661	6.08
400.106	6.12
400.551	6.14
400.995	6.16
401.44	6.19
401.885	6.22
402.329	6.24
402.774	6.26
403.218	6.3
403.663	6.32
404.107	6.35
404.551	6.37
404.995	6.39
405.44	6.42
405.884	6.44
406.328	6.46
406.772	6.46
407.216	6.48
407.66	6.48
408.104	6.47
408.547	6.47
408.991	6.48
409.435	6.49
409.879	6.51
410.322	6.52
410.766	6.55
411.209	6.56
411.653	6.59
412.096	6.61
412.54	6.62
412.983	6.64
413.426	6.68
413.869	6.69
414.312	6.73
414.756	6.74
415.199	6.74
415.642	6.74
416.085	6.73
416.527	6.72
416.97	6.71
417.413	6.71
417.856	6.73
418.298	6.71
418.741	6.72
419.184	6.7
419.626	6.69
420.069	6.69
420.511	6.69
420.953	6.69
421.396	6.7
421.838	6.71
422.28	6.72
422.722	6.71
423.164	6.71
423.606	6.7
424.048	6.7
424.49	6.69
424.932	6.69
425.374	6.66
425.816	6.63
426.258	6.62
426.699	6.6
427.141	6.58
427.582	6.59
428.024	6.6
428.465	6.6
428.907	6.59
429.348	6.58
429.789	6.57
430.231	6.6
430.672	6.63
431.113	6.64
431.554	6.65
431.995	6.68
432.436	6.67
432.877	6.66
433.318	6.69
433.759	6.72
434.2	6.73
434.64	6.75
435.081	6.76
435.522	6.77
435.962	6.79
436.403	6.8
436.843	6.8
437.284	6.83
437.724	6.86
438.164	6.86
438.604	6.87
439.045	6.89
439.485	6.91
439.925	6.92
440.365	6.95
440.805	6.95
441.245	7
441.685	7.04
442.125	7.07
442.564	7.1
443.004	7.13
443.444	7.16
443.883	7.2
444.323	7.23
444.762	7.27
445.202	7.31
445.641	7.38
446.081	7.41
446.52	7.44
446.959	7.5
447.398	7.55
447.837	7.57
448.276	7.61
448.716	7.65
449.154	7.7
449.593	7.74
450.032	7.76
450.471	7.76
450.91	7.78
451.349	7.81
451.787	7.81
452.226	7.82
452.664	7.84
453.103	7.85
453.541	7.87
453.98	7.88
454.418	7.88
454.856	7.89
455.295	7.89
455.733	7.88
456.171	7.87
456.609	7.87
457.047	7.87
457.485	7.86
457.923	7.86
458.361	7.85
458.798	7.84
459.236	7.84
459.674	7.84
460.111	7.84
460.549	7.86
460.987	7.87
461.424	7.87
461.862	7.88
462.299	7.89
462.736	7.9
463.173	7.9
463.611	7.91
464.048	7.91
464.485	7.92
464.922	7.92
465.359	7.93
465.796	7.95
466.233	7.96
466.67	7.98
467.106	7.99
467.543	7.99
467.98	7.99
468.416	7.99
468.853	8
469.29	8
469.726	8.02
470.162	8.01
470.599	8
471.035	8.01
471.471	7.99
471.907	8
472.344	8.01
472.78	8.03
473.216	8.03
473.652	8.05
474.088	8.05
474.523	8.06
474.959	8.07
475.395	8.07
475.831	8.07
476.266	8.09
476.702	8.08
477.138	8.09
477.573	8.1
478.008	8.11
478.444	8.1
478.879	8.12
479.314	8.12
479.75	8.13
480.185	8.13
480.62	8.14
481.055	8.14
481.49	8.14
481.925	8.15
482.36	8.16
482.795	8.18
483.229	8.19
483.664	8.21
484.099	8.22
484.534	8.23
484.968	8.26
485.403	8.29
485.837	8.31
486.271	8.35
486.706	8.38
487.14	8.41
487.574	8.44
488.009	8.49
488.443	8.52
488.877	8.58
489.311	8.64
489.745	8.69
490.179	8.76
490.613	8.83
491.046	8.91
491.48	8.98
491.914	9.06
492.348	9.14
492.781	9.23
493.215	9.33
493.648	9.43
494.082	9.52
494.515	9.62
494.948	9.72
495.382	9.83
495.815	9.95
496.248	10.08
496.681	10.2
497.114	10.34
497.547	10.48
497.98	10.61
498.413	10.75
498.846	10.9
499.279	11.06
499.711	11.23
500.144	11.4
500.577	11.58
501.009	11.74
501.442	11.93
501.874	12.13
502.306	12.32
502.739	12.55
503.171	12.78
503.603	13
504.036	13.23
504.468	13.47
504.9	13.71
505.332	13.96
505.764	14.23
506.196	14.48
506.627	14.76
507.059	15.05
507.491	15.33
507.923	15.63
508.354	15.95
508.786	16.27
509.217	16.59
509.649	16.93
510.08	17.27
510.512	17.6
510.943	17.95
511.374	18.3
511.805	18.66
512.237	19.01
512.668	19.37
513.099	19.72
513.53	20.08
513.961	20.46
514.391	20.83
514.822	21.21
515.253	21.58
515.684	21.95
516.114	22.33
516.545	22.72
516.975	23.1
517.406	23.47
517.836	23.85
518.267	24.23
518.697	24.59
519.127	24.95
519.558	25.31
519.988	25.66
520.418	26.01
520.848	26.34
521.278	26.65
521.708	27.17
522.138	27.49
522.567	27.8
522.997	28.09
523.427	28.39
523.857	28.69
524.286	28.95
524.716	29.22
525.145	29.49
525.575	29.75
526.004	30.02
526.433	30.06
526.863	30.29
527.292	30.5
527.721	30.71
528.15	30.89
528.579	31.07
529.008	31.28
529.437	31.44
529.866	31.6
530.295	31.76
530.724	31.91
531.152	32.06
531.581	32.22
532.01	32.36
532.438	32.51
532.867	32.64
533.295	32.77
533.723	32.87
534.152	32.99
534.58	33.11
535.008	33.18
535.436	33.28
535.865	33.36
536.293	33.43
536.721	33.52
537.149	33.59
537.576	33.67
538.004	33.73
538.432	33.82
538.86	33.87
539.287	33.91
539.715	34
540.143	34.06
540.57	34.11
540.998	34.16
541.425	34.19
541.852	34.24
542.28	34.29
542.707	34.33
543.134	34.36
543.561	34.41
543.988	34.45
544.415	34.48
544.842	34.49
545.269	34.54
545.696	34.56
546.123	34.6
546.549	34.62
546.976	34.65
547.403	34.67
547.829	34.67
548.256	34.69
548.682	34.7
549.108	34.72
549.535	34.76
549.961	34.75
550.387	34.75
550.813	34.77
551.24	34.77
551.666	34.77
552.092	34.76
552.518	34.78
552.943	34.77
553.369	34.76
553.795	34.74
554.221	34.71
554.646	34.7
555.072	34.68
555.498	34.63
555.923	34.56
556.349	34.52
556.774	34.46
557.199	34.38
557.625	34.31
558.05	34.26
558.475	34.18
558.9	34.11
559.325	34.05
559.75	33.98
560.175	33.89
560.6	33.81
561.025	33.72
561.449	33.63
561.874	33.52
562.299	33.42
562.723	33.31
563.148	33.18
563.572	33.06
563.997	32.92
564.421	32.77
564.846	32.65
565.27	32.51
565.694	32.38
566.118	32.24
566.542	32.12
566.966	31.97
567.39	31.83
567.814	31.7
568.238	31.56
568.662	31.42
569.086	31.28
569.509	31.14
569.933	31.01
570.357	30.86
570.78	30.71
571.204	30.56
571.627	30.41
572.05	30.27
572.474	30.15
572.897	30.01
573.32	29.87
573.743	29.74
574.166	29.61
574.589	29.47
575.012	29.34
575.435	29.23
575.858	29.11
576.281	29.01
576.704	28.88
577.126	28.74
577.549	28.63
577.972	28.52
578.394	28.41
578.817	28.3
579.239	28.2
579.661	28.09
580.084	27.98
580.506	27.87
580.928	27.77
581.35	27.68
581.772	27.6
582.194	27.49
582.616	27.4
583.038	27.31
583.46	27.21
583.882	27.14
584.303	27.05
584.725	26.97
585.147	26.89
585.568	26.82
585.99	26.76
586.411	26.66
586.833	26.6
587.254	26.51
587.675	26.44
588.096	26.38
588.518	26.31
588.939	26.26
589.36	26.21
589.781	26.15
590.202	26.08
590.623	26.02
591.043	25.97
591.464	25.91
591.885	25.86
592.305	25.81
592.726	25.77
593.147	25.72
593.567	25.67
593.987	25.61
594.408	25.57
594.828	25.53
595.248	25.5
595.669	25.47
596.089	25.44
596.509	25.42
596.929	25.38
597.349	25.35
597.769	25.31
598.189	25.26
598.608	25.24
599.028	25.2
599.448	25.14
599.867	25.08
600.287	25.02
600.706	24.98
601.126	24.92
601.545	24.86
601.965	24.82
602.384	24.76
602.803	24.71
603.222	24.65
603.641	24.56
604.061	24.51
604.48	24.44
604.898	24.35
605.317	24.28
605.736	24.2
606.155	24.13
606.574	24.02
606.992	23.93
607.411	23.84
607.829	23.71
608.248	23.62
608.666	23.52
609.085	23.43
609.503	23.35
609.921	23.24
610.339	23.14
610.758	23.04
611.176	22.95
611.594	22.86
612.012	22.76
612.43	22.68
612.847	22.59
613.265	22.5
613.683	22.41
614.101	22.32
614.518	22.21
614.936	22.13
615.353	22.04
615.771	21.94
616.188	21.84
616.606	21.77
617.023	21.69
617.44	21.62
617.857	21.55
618.274	21.47
618.691	21.39
619.108	21.34
619.525	21.28
619.942	21.23
620.359	21.18
620.776	21.14
621.192	21.08
621.609	21.05
622.026	21
622.442	20.97
622.859	20.94
623.275	20.92
623.691	20.9
624.108	20.89
624.524	20.86
624.94	20.86
625.356	20.84
625.772	20.84
626.188	20.81
626.604	20.8
627.02	20.79
627.436	20.78
627.852	20.76
628.268	20.76
628.683	20.74
629.099	20.71
629.514	20.68
629.93	20.66
630.345	20.63
630.761	20.6
631.176	20.55
631.591	20.5
632.007	20.44
632.422	20.38
632.837	20.29
633.252	20.21
633.667	20.11
634.082	20.02
634.497	19.92
634.911	19.8
635.326	19.67
635.741	19.55
636.155	19.41
636.57	19.28
636.984	19.12
637.399	18.97
637.813	18.8
638.228	18.64
638.642	18.46
639.056	18.27
639.47	18.1
639.884	17.91
640.298	17.73
640.712	17.54
641.126	17.34
641.54	17.16
641.954	16.95
642.368	16.77
642.781	16.58
643.195	16.38
643.609	16.19
644.022	16.01
644.436	15.83
644.849	15.65
645.262	15.48
645.676	15.31
646.089	15.17
646.502	15.04
646.915	14.92
647.328	14.8
647.741	14.7
648.154	14.59
648.567	14.51
648.98	14.42
649.393	14.34
649.805	14.28
650.218	14.21
650.631	14.13
651.043	14.06
651.456	13.98
651.868	13.91
652.28	13.83
652.693	13.75
653.105	13.67
653.517	13.58
653.929	13.5
654.341	13.39
654.753	13.29
655.165	13.16
655.577	13.05
655.989	12.93
656.401	12.81
656.813	12.68
657.224	12.53
657.636	12.38
658.047	12.24
658.459	12.06
658.87	11.91
659.282	11.75
659.693	11.6
660.104	11.42
660.515	11.25
660.926	11.08
661.338	10.91
661.749	10.75
662.159	10.59
662.57	10.45
662.981	10.31
663.392	10.16
663.803	10.02
664.213	9.88
664.624	9.76
665.035	9.65
665.445	9.53
665.855	9.42
666.266	9.32
666.676	9.22
667.086	9.11
667.497	9.01
667.907	8.94
668.317	8.86
668.727	8.8
669.137	8.74
669.547	8.69
669.956	8.63
670.366	8.59
670.776	8.56
671.186	8.53
671.595	8.51
672.005	8.49
672.414	8.47
672.824	8.46
673.233	8.45
673.642	8.45
674.052	8.45
674.461	8.46
674.87	8.47
675.279	8.49
675.688	8.51
676.097	8.54
676.506	8.58
676.915	8.63
677.323	8.68
677.732	8.72
678.141	8.79
678.549	8.85
678.958	8.94
679.366	9.05
679.775	9.16
680.183	9.29
680.592	9.45
681	9.63
681.408	9.82
681.816	10.04
682.224	10.29
682.632	10.58
683.04	10.88
683.448	11.21
683.856	11.56
684.264	11.94
684.671	12.35
685.079	12.79
685.487	13.27
685.894	13.79
686.302	14.34
686.709	14.91
687.116	15.5
687.524	16.13
687.931	16.76
688.338	17.43
688.745	18.12
689.152	18.83
689.559	19.56
689.966	20.3
690.373	21.06
690.78	21.83
691.187	22.59
691.593	23.35
692	24.11
692.407	24.87
692.813	25.64
693.22	26.39
693.626	27.13
694.032	27.86
694.439	28.57
694.845	29.27
695.251	29.95
695.657	30.61
696.063	31.28
696.469	31.94
696.875	32.59
697.281	33.21
697.687	33.84
698.093	34.43
698.498	35.01
698.904	35.56
699.31	36.1
699.715	36.63
700.12	37.16
700.526	37.66
700.931	38.14
701.337	38.61
701.742	39.07
702.147	39.5
702.552	39.94
702.957	40.35
703.362	40.76
703.767	41.13
704.172	41.53
704.577	41.88
704.981	42.23
705.386	42.58
705.791	42.92
706.195	43.26
706.6	43.58
707.004	43.88
707.408	44.18
707.813	44.51
708.217	44.79
708.621	45.09
709.025	45.37
709.43	45.62
709.834	45.9
710.237	46.15
710.641	46.37
711.045	46.61
711.449	46.87
711.853	47.14
712.256	47.36
712.66	47.57
713.064	47.8
713.467	48
713.87	48.23
714.274	48.43
714.677	48.64
715.08	48.85
715.484	49.06
715.887	49.25
716.29	49.39
716.693	49.59
717.096	49.78
717.499	49.91
717.901	50.08
718.304	50.24
718.707	50.41
719.109	50.54
719.512	50.69
719.915	50.83
720.317	50.93
720.719	51.06
721.122	51.17
721.524	51.31
721.926	51.46
722.328	51.6
722.731	51.7
723.133	51.8
723.535	51.93
723.937	52.03
724.338	52.11
724.74	52.23
725.142	52.43
725.544	52.52
725.945	52.64
726.347	52.71
726.748	52.76
727.15	52.82
727.551	52.91
727.952	52.97
728.354	53.03
728.755	53.1
729.156	53.16
729.557	53.14
729.958	53.2
730.359	53.25
730.76	53.33
731.161	53.4
731.562	53.48
731.962	53.49
732.363	53.55
732.763	53.58
733.164	53.62
733.564	53.66
733.965	53.68
734.365	53.74
734.766	53.76
735.166	53.78
735.566	53.82
735.966	53.86
736.366	53.92
736.766	53.94
737.166	54
737.566	54.02
737.966	54.04
738.365	54.07
738.765	54.12
739.165	54.13
739.564	54.16
739.964	54.17
740.363	54.16
740.763	54.18
741.162	54.18
741.561	54.18
741.96	54.21
742.36	54.24
742.759	54.24
743.158	54.22
743.557	54.24
743.955	54.25
744.354	54.27
744.753	54.31
745.152	54.33
745.55	54.38
745.949	54.4
746.348	54.43
746.746	54.43
747.144	54.47
747.543	54.49
747.941	54.48
748.339	54.48
748.737	54.46
749.136	54.44
749.534	54.45
749.932	54.43
750.33	54.42
750.727	54.43
751.125	54.45
751.523	54.43
751.921	54.42
752.318	54.43
752.716	54.45
753.113	54.46
753.511	54.49
753.908	54.53
754.305	54.55
754.703	54.55
755.1	54.54
755.497	54.56
755.894	54.6
756.291	54.61
756.688	54.6
757.085	54.62
757.482	54.65
757.878	54.65
758.275	54.61
758.672	54.62
759.068	54.66
759.465	54.67
759.861	54.67
760.258	54.67
760.654	54.7
761.05	54.73
761.447	54.74
761.843	54.74
762.239	54.73
762.635	54.74
763.031	54.74
763.427	54.7
763.822	54.69
764.218	54.7
764.614	54.68
765.01	54.66
765.405	54.65
765.801	54.62
766.196	54.61
766.592	54.59
766.987	54.58
767.382	54.55
767.778	54.56
768.173	54.55
768.568	54.52
768.963	54.48
769.358	54.49
769.753	54.48
770.148	54.52
770.542	54.51
770.937	54.55
771.332	54.54
771.726	54.57
772.121	54.58
772.515	54.59
772.91	54.59
773.304	54.64
773.699	54.63
774.093	54.62
774.487	54.58
774.881	54.6
775.275	54.58
775.669	54.58
776.063	54.55
776.457	54.53
776.851	54.51
777.245	54.48
777.638	54.46
778.032	54.46
778.425	54.49
778.819	54.49
779.212	54.52
779.606	54.54
779.999	54.56
780.392	54.6
780.786	54.62
781.179	54.64
781.572	54.7
781.965	54.71
782.358	54.71
782.751	54.69
783.143	54.71
783.536	54.68
783.929	54.67
784.322	54.67
784.714	54.66
785.107	54.68
785.499	54.66
785.891	54.64
786.284	54.64
786.676	54.63
787.068	54.63
787.46	54.65
787.852	54.65
788.245	54.63
788.636	54.61
789.028	54.6
789.42	54.55
789.812	54.58
790.204	54.59
790.595	54.6
790.987	54.62
791.378	54.62
791.77	54.6
792.161	54.61
792.553	54.61
792.944	54.61
793.335	54.65
793.726	54.68
794.117	54.67
794.508	54.6
794.899	54.59
795.29	54.6
795.681	54.59
796.072	54.56
796.463	54.57
796.853	54.57
797.244	54.58
797.634	54.55
798.025	54.57
798.415	54.54
798.806	54.62
799.196	54.62
799.586	54.61
799.976	54.63
800.366	54.66
800.756	54.65
801.146	54.68
801.536	54.7
801.926	54.7
802.316	54.71
802.706	54.73
803.095	54.73
803.485	54.74
803.874	54.74
804.264	54.72
804.653	54.7
805.043	54.72
805.432	54.68
805.821	54.68
806.21	54.69
806.599	54.68
806.988	54.68
807.377	54.67
807.766	54.66
808.155	54.64
808.544	54.64
808.933	54.64
809.321	54.65
809.71	54.69
810.098	54.67
810.487	54.65
810.875	54.64
811.264	54.64
811.652	54.65
812.04	54.66
812.428	54.71
812.816	54.68
813.204	54.68
813.592	54.63
813.98	54.62
814.368	54.63
814.756	54.66
815.144	54.63
815.531	54.66
815.919	54.65
816.306	54.64
816.694	54.62
817.081	54.64
817.469	54.66
817.856	54.69
818.243	54.68
818.63	54.65
819.017	54.67
819.404	54.66
819.791	54.62
820.178	54.62
820.565	54.61
820.952	54.61
821.339	54.58
821.725	54.6
822.112	54.62
822.498	54.64
822.885	54.69
823.271	54.66
823.657	54.68
824.044	54.69
824.43	54.71
824.816	54.7
825.202	54.71
825.588	54.72
825.974	54.7
826.36	54.67
826.746	54.66
827.132	54.64
827.517	54.69
827.903	54.73
828.289	54.75
828.674	54.75
829.06	54.75
829.445	54.74
829.83	54.78
830.216	54.8
830.601	54.82
830.986	54.83
831.371	54.83
831.756	54.82
832.141	54.79
832.526	54.8
832.911	54.8
833.295	54.82
833.68	54.85
834.065	54.83
834.449	54.8
834.834	54.8
835.218	54.81
835.603	54.8
835.987	54.8
836.371	54.8
836.755	54.78
837.139	54.77
837.524	54.78
837.908	54.8
838.291	54.84
838.675	54.85
839.059	54.86
839.443	54.85
839.827	54.83
840.21	54.81
840.594	54.83
840.977	54.82
841.361	54.83
841.744	54.79
842.127	54.75
842.511	54.73
842.894	54.71
843.277	54.7
843.66	54.67
844.043	54.7
844.426	54.71
844.809	54.71
845.191	54.74
845.574	54.74
845.957	54.79
846.339	54.78
846.722	54.79
847.104	54.82
847.487	54.85
847.869	54.88
848.252	54.91
848.634	54.91
849.016	54.91
849.398	54.92
849.78	54.91
850.162	54.89
850.544	54.94
850.926	54.94
851.307	54.94
851.689	54.92
852.071	54.91
852.452	54.9
852.834	54.9
853.215	54.9
853.597	54.89
853.978	54.89
854.359	54.9
854.741	54.9
855.122	54.87
855.503	54.85
855.884	54.86
856.265	54.88
856.646	54.87
857.026	54.88
857.407	54.89
857.788	54.89
858.169	54.9
858.549	54.89
858.93	54.89
859.31	54.91
859.69	54.93
860.071	54.95
860.451	54.93
860.831	54.92
861.211	54.88
861.591	54.88
861.971	54.89
862.351	54.9
862.731	54.94
863.111	54.92
863.491	54.9
863.87	54.89
864.25	54.87
864.629	54.89
865.009	54.92
865.388	54.94
865.768	54.91
866.147	54.88
866.526	54.87
866.905	54.85
867.284	54.86
867.663	54.88
868.042	54.91
868.421	54.94
868.8	54.94
869.179	54.94
869.558	54.93
869.936	54.93
870.315	54.96
870.693	54.97
871.072	54.98
871.45	55
871.828	55
872.207	55.01
872.585	54.98
872.963	55.01
873.341	55.01
873.719	55.04
874.097	55.07
874.475	55.07
874.853	55.08
875.23	55.09
875.608	55.08
875.986	55.1
876.363	55.09
876.741	55.12
877.118	55.11
877.495	55.13
877.873	55.12
878.25	55.13
878.627	55.16
879.004	55.15
879.381	55.14
879.758	55.13
880.135	55.13
880.512	55.1
880.889	55.08
881.265	55.06
881.642	55.03
882.019	55.03
882.395	55.02
882.772	54.99
883.148	54.96
883.524	54.94
883.901	54.96
884.277	54.92
884.653	54.92
885.029	54.92
885.405	54.93
885.781	54.95
886.157	54.93
886.532	54.93
886.908	54.91
887.284	54.92
887.659	54.91
888.035	54.9
888.411	54.91
888.786	54.93
889.161	54.94
889.537	54.94
889.912	54.93
890.287	54.93
890.662	54.93
891.037	54.98
891.412	54.96
891.787	54.97
892.162	54.97
892.536	54.97
892.911	54.96
893.286	54.95
893.66	54.93
894.035	54.96
894.409	54.97
894.784	54.98
895.158	54.97
895.532	54.99
895.906	54.98
896.281	54.96
896.655	54.96
897.029	54.98
897.402	54.96
897.776	54.98
898.15	54.96
898.524	54.98
898.898	54.98
899.271	54.97
899.645	54.97
900.018	55.01
900.392	55.04
900.765	55.06
901.138	55.05
901.511	55.06
901.884	55.09
902.258	55.1
902.631	55.11
903.003	55.12
903.376	55.11
903.749	55.1
904.122	55.12
904.495	55.13
904.867	55.15
905.24	55.17
905.612	55.21
905.985	55.16
906.357	55.14
906.729	55.13
907.102	55.13
907.474	55.14
907.846	55.17
908.218	55.16
908.59	55.19
908.962	55.18
909.334	55.19
909.705	55.18
910.077	55.21
910.449	55.22
910.82	55.22
911.192	55.19
911.563	55.18
911.935	55.19
912.306	55.18
912.677	55.16
913.048	55.18
913.419	55.14
913.79	55.12
914.161	55.12
914.532	55.12
914.903	55.12
915.274	55.11
915.645	55.15
916.015	55.13
916.386	55.13
916.756	55.12
917.127	55.12
917.497	55.14
917.868	55.16
918.238	55.14
918.608	55.16
918.978	55.16
919.348	55.21
919.718	55.17
920.088	55.2
920.458	55.19
920.828	55.16
921.198	55.15
921.567	55.16
921.937	55.17
922.306	55.18
922.676	55.17
923.045	55.18
923.415	55.14
923.784	55.17
924.153	55.17
924.522	55.19
924.891	55.19
925.26	55.19
925.629	55.21
925.998	55.17
926.367	55.16
926.736	55.15
927.104	55.12
927.473	55.11
927.842	55.03
928.21	55.01
928.578	55
928.947	54.99
929.315	54.94
929.683	54.92
930.051	54.87
930.42	54.85
930.788	54.8
931.156	54.78
931.523	54.8
931.891	54.91
932.259	54.92
932.627	54.9
932.994	54.93
933.362	54.95
933.729	54.94
934.097	54.98
934.464	55.01
934.831	55.06
935.199	55.09
935.566	55.09
935.933	55.03
936.3	54.99
936.667	55
937.034	55.03
937.401	55.06
937.767	55.07
938.134	55.06
938.501	55.07
938.867	55.12
939.234	55.09
939.6	55.05
939.967	55.05
940.333	55.02
940.699	55.02
941.065	54.87
941.431	54.82
941.798	54.78
942.163	54.82
942.529	54.78
942.895	54.72
943.261	54.73
943.627	54.76
943.992	54.7
944.358	54.71
944.723	54.68
945.089	54.7
945.454	54.75
945.82	54.77
946.185	54.74
946.55	54.7
946.915	54.69
947.28	54.61
947.645	54.58
948.01	54.6
948.375	54.57
948.74	54.54
949.104	54.6
949.469	54.52
949.834	54.49
950.198	54.48
950.562	54.42
950.927	54.36
951.291	54.3
951.655	54.24
952.02	54.22
952.384	54.18
952.748	54.16
953.112	54.11
953.476	54.01
953.839	53.93
954.203	53.94
954.567	53.95
954.931	53.92
955.294	53.92
955.658	53.97
956.021	53.93
956.385	53.91
956.748	53.87
957.111	53.81
957.474	53.9
957.837	53.88
958.2	53.85
958.563	53.85
958.926	53.91
959.289	53.93
959.652	53.86
960.015	53.86
960.377	53.89
960.74	53.92
961.102	53.96
961.465	53.98
961.827	54.05
962.189	54.02
962.552	54.02
962.914	53.96
963.276	54.02
963.638	54.06
964	54.06
964.362	54.07
964.724	54.04
965.085	54.03
965.447	54.01
965.809	53.97
966.17	53.97
966.532	53.94
966.893	53.98
967.255	53.95
967.616	53.94
967.977	53.94
968.338	53.91
968.699	53.91
969.061	53.88
969.421	53.92
969.782	53.93
970.143	53.99
970.504	54.05
970.865	54.08
971.225	54.05
971.586	54.05
971.946	54.08
972.307	54.09
972.667	54.11
973.027	54.14
973.388	54.1
973.748	54.08
974.108	54.09
974.468	54.02
974.828	53.96
975.188	53.95
975.548	53.9
975.907	53.89
976.267	53.9
976.627	53.9
976.986	53.83
977.346	53.79
977.705	53.76
978.064	53.69
978.424	53.73
978.783	53.75
979.142	53.78
979.501	53.85
979.86	53.84
980.219	53.78
980.578	53.77
980.937	53.82
981.296	53.8
981.654	53.81
982.013	53.85
982.371	53.78
982.73	53.79
983.088	53.74
983.447	53.75
983.805	53.72
984.163	53.82
984.521	53.79
984.879	53.74
985.237	53.77
985.595	53.82
985.953	53.79
986.311	53.86
986.669	53.84
987.026	53.85
987.384	53.85
987.741	53.83
988.099	53.81
988.456	53.82
988.814	53.88
989.171	53.82
989.528	53.79
989.885	53.76
990.242	53.77
990.599	53.84
990.956	53.83
991.313	53.82
991.67	53.82
992.027	53.93
992.383	53.95
992.74	54.03
993.096	54.12
993.453	54.17
993.809	54.11
994.165	54.13
994.522	54.15
994.878	54.22
995.234	54.21
995.59	54.17
995.946	54.05
996.302	54.09
996.658	54.04
997.013	54.02
997.369	53.94
997.725	54.06
998.08	54.09
998.436	54.05
998.791	54.11
999.147	54.15
999.502	54.26
999.857	54.21
1000.212	54.15
1000.567	54.24
1000.922	54.26
1001.277	54.28
1001.632	54.12
1001.987	54.1
1002.342	54.1
1002.696	54
1003.051	54.12
1003.406	54.2
1003.76	54.34
1004.114	54.35
1004.469	54.35
1004.823	54.49
1005.177	54.45
1005.531	54.66
1005.885	54.7
1006.239	54.67
1006.593	54.76
1006.947	54.76
1007.301	54.53
1007.655	54.55
1008.008	54.68
1008.362	54.65
1008.715	54.65
1009.069	54.91
1009.422	54.87
1009.776	54.85
1010.129	54.78
1010.482	54.72
1010.835	54.59
1011.188	54.75
1011.541	54.65
1011.894	54.58
1012.247	54.56
1012.6	54.44
1012.952	54.45
1013.305	54.61
1013.657	54.7
1014.01	54.87
1014.362	54.98
1014.715	55.13
1015.067	55.31
1015.419	55.45
1015.771	55.43
1016.123	55.47
1016.475	55.43
1016.827	55.33
1017.179	55.19
1017.531	55.08
1017.883	55.09
1018.234	55.13
1018.586	55.09
1018.938	55.07
1019.289	54.98
1019.64	55.02
1019.992	55.03
1020.343	55.13
1020.694	55.18
1021.045	55.38
1021.396	55.59
1021.747	55.55
1022.098	55.54
1022.449	55.5
1022.8	55.63
1023.151	55.54
1023.501	55.64
1023.852	55.57
1024.202	55.7
1024.553	55.6
1024.903	55.5
1025.253	55.44
1025.604	55.47
1025.954	55.05
1026.304	55.18
1026.654	55.16
1027.004	55.09
1027.354	55.05
1027.703	55.08
1028.053	54.93
1028.403	55.07
1028.753	54.81
1029.102	54.98
1029.452	55.14
1029.801	55.73
1030.15	55.64
1030.499	55.41
897.758	1213.39
901.051	1215.63
904.343	1210.52
907.636	1234.9
910.928	1200.09
914.22	1203.21
917.511	1186.52
920.803	1133.1
924.094	1129.23
927.384	1100.07
930.675	1055.36
933.965	1049.25
937.255	990.57
940.544	952.58
943.834	908.09
947.123	902.4
950.411	847.5
953.7	832.36
956.988	790.93
960.276	760.34
963.563	746.98
966.851	723.47
970.138	716.73
973.424	694.92
976.711	698.48
979.997	661.74
983.283	658.46
986.568	646.11
989.853	625.32
993.138	611.41
996.423	590.54
999.708	573.57
1002.992	565.99
1006.275	541.24
1009.559	536.44
1012.842	517.72
1016.125	506
1019.408	495.72
1022.69	488.26
1025.972	479.8
1029.254	469.98
1032.536	460.25
1035.817	452.77
1039.098	447.65
1042.379	439.47
1045.659	434.09
1048.939	423.68
1052.219	415.21
1055.498	408.96
1058.778	400.14
1062.057	391.32
1065.335	387.16
1068.614	382.8
1071.892	378
1075.17	366.42
1078.447	359.72
1081.724	356.93
1085.001	353.97
1088.278	347.31
1091.554	341.26
1094.83	341.67
1098.106	339.19
1101.382	336.39
1104.657	333.79
1107.932	328.73
1111.206	330.94
1114.481	321.88
1117.755	319.69
1121.029	317.04
1124.302	316.6
1127.575	310.13
1130.848	306.24
1134.121	302.98
1137.393	301.85
1140.665	295.32
1143.937	293.7
1147.208	291.64
1150.48	291.67
1153.75	288.52
1157.021	284.61
1160.291	284.05
1163.561	282.26
1166.831	281.46
1170.101	279.07
1173.37	278.27
1176.639	279.86
1179.907	276.67
1183.176	272.8
1186.444	273.11
1189.711	271.93
1192.979	271.18
1196.246	269.19
1199.513	270.03
1202.78	268.69
1206.046	269.13
1209.312	266.55
1212.578	266.17
1215.843	268.97
1219.108	267.14
1222.373	272.02
1225.638	274.01
1228.902	277.94
1232.166	279.11
1235.43	280.53
1238.693	284.65
1241.956	285.79
1245.219	290.77
1248.482	290.74
1251.744	290.29
1255.006	291.32
1258.268	284.9
1261.529	282.32
1264.79	280.21
1268.051	278.77
1271.312	275.17
1274.572	272.27
1277.832	269.29
1281.092	264.63
1284.351	263.04
1287.61	263.18
1290.869	259.84
1294.128	257.75
1297.386	257.4
1300.644	254.36
1303.902	254.85
1307.159	254.19
1310.416	254.17
1313.673	253.95
1316.93	256.47
1320.186	256.1
1323.442	256.51
1326.697	260.63
1329.953	261.45
1333.208	262.51
1336.463	265.59
1339.717	265.78
1342.972	269.43
1346.226	270.63
1349.479	271.59
1352.733	272.44
1355.986	273.8
1359.238	273.55
1362.491	275.51
1365.743	277.86
1368.995	277.61
1372.247	277.8
1375.498	277.38
1378.749	279
1382	275.46
1385.251	276.76
1388.501	274.13
1391.751	274.75
1395	273.76
1398.25	271
1401.499	268.45
1404.748	268.19
1407.996	265.21
1411.244	264.21
1414.492	262.39
1417.74	259.85
1420.987	255.33
1424.234	255.53
1427.481	252.79
1430.728	251.62
1433.974	249.1
1437.22	247.57
1440.465	246.45
1443.711	244.03
1446.956	241.82
1450.201	238.65
1453.445	237.69
1456.689	236.54
1459.933	232.4
1463.177	230.59
1466.42	226.62
1469.663	224.25
1472.906	222.78
1476.148	217.65
1479.391	215.29
1482.633	214.05
1485.874	210.68
1489.115	208.66
1492.356	207.2
1495.597	206.58
1498.838	203.83
1502.078	203.54
1505.318	202.86
1508.557	202.89
1511.797	202.57
1515.036	201.69
1518.274	200.89
1521.513	199.77
1524.751	199.54
1527.989	198.6
1531.227	198.2
1534.464	198.32
1537.701	197.06
1540.938	196.72
1544.174	194.26
1547.41	194.42
1550.646	193.31
1553.882	193.36
1557.117	191.16
1560.352	190.45
1563.587	190.11
1566.821	188.97
1570.055	187.35
1573.289	186.05
1576.523	185.65
1579.756	184.67
1582.989	183.65
1586.222	183.51
1589.454	182.6
1592.686	184.04
1595.918	183.11
1599.15	182.48
1602.381	182.95
1605.612	182.96
1608.843	183.32
1612.073	183.05
1615.303	184.37
1618.533	184.28
1621.762	184.15
1624.992	184.59
1628.221	184.3
1631.449	183.95
1634.678	183.78
1637.906	184.32
1641.134	184.32
1644.361	184.51
1647.588	184.65
1650.815	183.34
1654.042	183.22
1657.269	184.31
1660.495	183.82
1663.72	183.28
1666.946	184.47
1670.171	184.88
1673.396	184.41
1676.621	184.8
1679.845	184.58
1683.069	184.79
1686.293	186.31
1689.517	187.42
1692.74	187.09
1695.963	187.67
1699.185	189.47
1702.408	189.5
1705.63	190.27
1708.852	190.94
1712.073	190.26
1715.294	191.25
1718.515	192.27
1721.736	191.82
1724.956	192.15
1728.176	192.23
1731.396	193.41
1734.616	192.68
1737.835	193.16
1741.054	191.46
1744.272	192.06
1747.491	194.53
1750.709	194.17
1753.927	194.11
1757.144	193.73
1760.361	193.8
1763.578	194.42
1766.795	194.14
1770.011	195.26
1773.227	195.48
1776.443	197.92
1779.658	198.44
1782.874	196.93
1786.089	198.36
1789.303	198.69
1792.518	200.86
1795.732	200.97
1798.945	201.92
1802.159	202.37
1805.372	203.25
1808.585	205.96
1811.797	206.8
1815.01	206.96
1818.222	209.41
1821.434	210.81
1824.645	211.58
1827.856	214.73
1831.067	215.81
1834.278	215.83
1837.488	217.69
1840.698	218.69
1843.908	216.71
1847.117	217.2
1850.326	218.53
1853.535	217.57
1856.744	220.21
1859.952	220.27
1863.16	218.63
1866.368	217.44
1869.575	219.55
1872.782	215.11
1875.989	214.33
1879.196	212.93
1882.402	211.41
1885.608	211.56
1888.814	211.78
1892.019	210.32
1895.224	208.98
1898.429	207.95
1901.634	208.8
1904.838	208.74
1908.042	210.66
1911.246	211.1
1914.449	212.71
1917.652	212.33
1920.855	212.67
1924.058	212.6
1927.26	211.71
1930.462	212.62
1933.664	215.02
1936.865	212.61
1940.066	212.9
1943.267	212.12
1946.467	211.15
1949.668	212.23
1952.868	215.79
1956.067	215.6
1959.267	216.21
1962.466	216.97
1965.665	215.98
1968.863	216.48
1972.061	220.18
1975.259	221.24
1978.457	223.15
1981.654	226.04
1984.852	226.53
1988.048	225.11
1991.245	227.25
1994.441	229.12
1997.637	230.98
2000.833	236.09
2004.028	238.5
2007.223	239.99
2010.418	242.44
2013.613	245.55
2016.807	248.03
2020.001	250.52
2023.194	255.3
2026.388	260.13
2029.581	266.26
2032.774	268.5
2035.966	272.65
2039.158	273.49
2042.35	279.65
2045.542	280.65
2048.733	286.03
2051.924	289.47
2055.115	294.8
2058.306	294.41
2061.496	297.54
2064.686	297.93
2067.875	302.07
2071.065	303.99
2074.254	302.22
2077.442	304.66
2080.631	307.31
2083.819	310.37
2087.007	310.9
2090.195	314.73
2093.382	318.13
2096.569	316.41
2099.756	321.06
2102.942	323.02
2106.128	325.49
2109.314	334.24
2112.5	333.6
2115.685	340.2
2118.87	340.67
2122.055	348.77
2125.239	349.82
2128.424	354.65
2131.608	358.06
2134.791	362.24
2137.974	362.85
2141.157	364.38
2144.34	364.4
2147.523	370.96
2150.705	368.63
2153.887	371.59
2157.068	371.17
2160.25	367.88
2163.431	369.75
2166.611	373.14
2169.792	380.14
2172.972	385.37
2176.152	387.67
2179.331	392.25
2182.511	397.58
2185.69	401.7
2188.868	409.9
2192.047	411.17
2195.225	424.39
2198.403	432.42
2201.58	440.05
2204.758	448.36
2207.935	457.98
2211.111	465.43
2214.288	471.38
2217.464	472.72
2220.64	480.83
2223.815	487.36
2226.991	505.1
2230.166	504.63
2233.34	514.76
2236.515	523.25
2239.689	523.44
2242.863	524.89
2246.036	539.93
2249.209	537.61
2252.382	546.1
2255.555	562.77
2258.727	564.26
2261.9	569.4
2265.071	575.9
2268.243	583.77
2271.414	590.46
2274.585	604.87
2277.756	610.3
2280.926	614.9
2284.096	630.09
2287.266	644.4
2290.436	645.81
2293.605	661.22
2296.774	679.11
2299.942	699.51
2303.111	706.31
2306.279	720.94
2309.447	729.64
2312.614	748.43
2315.781	770.04
2318.948	799.65
2322.115	787.95
2325.281	833.7
2328.447	818.9
2331.613	848.18
2334.779	840.11
2337.944	874.6
2341.109	884
2344.274	910.25
2347.438	941.1
2350.602	938.87
2353.766	971.82
2356.929	985.77
2360.092	977.06
2363.255	1045.53
2366.418	1048.66
2369.58	1069.28
2372.742	1131.55
2375.904	1162.56
2379.066	1152.59
2382.227	1134.89
2385.388	1233.24
2388.548	1229.18
2391.709	1246.06
2394.869	1388.38
2398.029	1328.38
2401.188	1359.9
2404.347	1353.52
2407.506	1334.95
2410.665	1369.28
2413.823	1452.36
2416.981	1536.56
2420.139	1481.61
2423.296	1469.88
2426.453	1534.29
2429.61	1480.33
2432.767	1545.9
2435.923	1535.85
2439.079	1675.76
2442.235	1693.43
2445.391	1683.34
2448.546	1667.88
2451.701	1614.6
2454.855	1616.63
2458.009	1709.43
2461.163	1775.83
2464.317	1834.99
2467.471	1883.33
2470.624	1887.05
2473.777	1840.41
2476.929	1797.52
2480.082	1739.83
2483.234	1721.61
2486.385	1816.83
2489.537	1825.73
2492.688	1890.83
2495.839	1842.51
2498.989	1803.29
2502.14	1813.4
2505.29	1829.54
2508.439	1850.98
2511.589	1845.42
2514.738	2011.23
2517.887	1967.13
2521.035	2076.06
2524.183	2089.24
2527.331	2109.96
2530.479	2095.79
2533.627	2108.66
