Data from C_1_DEC_CT_2N_Splice17_12-56-22-568.txt Node
Date: Sat Mar 07 12:56:22 EST 2020
User: sa697716
Spectrometer: NQ5500242
Trigger mode: 0
Integration Time (sec): 1.450000E-1
Scans to average: 20
Nonlinearity correction enabled: false
Boxcar width: 5
Storing dark spectrum: false
XAxis mode: Wavelengths
Number of Pixels in Spectrum: 512
>>>>>Begin Spectral Data<<<<<
187.83	75.91
188.298	101.6
188.766	80.77
189.233	71.1
189.701	64.09
190.169	73.07
190.636	42.49
191.104	21.27
191.571	-75.63
192.039	-103.91
192.506	-238.69
192.974	44.22
193.441	129.2
193.908	67.69
194.375	66.94
194.842	-10.82
195.31	-7.05
195.777	-223.46
196.244	26.01
196.711	39.26
197.177	43.79
197.644	44.24
198.111	44.53
198.578	44.92
199.045	44.94
199.511	45.07
199.978	45.44
200.445	45.55
200.911	45.81
201.378	45.89
201.844	46.03
202.31	45.65
202.777	45.76
203.243	45.94
203.709	45.63
204.176	45.48
204.642	45.31
205.108	45.15
205.574	44.79
206.04	44.23
206.506	43.81
206.972	43.93
207.438	43.71
207.903	43
208.369	42.08
208.835	41.38
209.301	40.46
209.766	39.08
210.232	37.99
210.697	36.98
211.163	36.05
211.628	35.17
212.094	34.16
212.559	33.25
213.024	32.26
213.49	31.57
213.955	30.85
214.42	30.08
214.885	29.41
215.35	28.45
215.815	27.28
216.28	25.51
216.745	23.55
217.21	21.51
217.675	19.81
218.14	18.29
218.604	16.88
219.069	15.7
219.534	14.75
219.998	13.91
220.463	13.23
220.927	12.6
221.392	12.17
221.856	11.82
222.32	11.5
222.785	11.2
223.249	10.96
223.713	10.73
224.177	10.53
224.642	10.34
225.106	10.15
225.57	9.97
226.034	9.79
226.497	9.61
226.961	9.45
227.425	9.29
227.889	9.14
228.353	8.99
228.816	8.85
229.28	8.7
229.744	8.58
230.207	8.46
230.671	8.33
231.134	8.23
231.597	8.13
232.061	8.02
232.524	7.93
232.987	7.84
233.45	7.75
233.914	7.67
234.377	7.58
234.84	7.49
235.303	7.41
235.766	7.34
236.229	7.26
236.691	7.18
237.154	7.12
237.617	7.05
238.08	6.98
238.542	6.9
239.005	6.84
239.468	6.78
239.93	6.72
240.393	6.67
240.855	6.6
241.317	6.55
241.78	6.49
242.242	6.42
242.704	6.36
243.166	6.31
243.629	6.26
244.091	6.21
244.553	6.15
245.015	6.09
245.477	6.02
245.939	5.97
246.4	5.9
246.862	5.86
247.324	5.82
247.786	5.76
248.247	5.71
248.709	5.65
249.17	5.59
249.632	5.56
250.093	5.52
250.555	5.47
251.016	5.44
251.477	5.39
251.939	5.36
252.4	5.31
252.861	5.28
253.322	5.25
253.783	5.21
254.244	5.19
254.705	5.15
255.166	5.11
255.627	5.08
256.088	5.05
256.549	5.03
257.009	4.99
257.47	4.96
257.931	4.92
258.391	4.87
258.852	4.84
259.312	4.8
259.773	4.76
260.233	4.73
260.694	4.7
261.154	4.66
261.614	4.63
262.074	4.59
262.534	4.56
262.994	4.53
263.455	4.51
263.915	4.48
264.374	4.46
264.834	4.44
265.294	4.41
265.754	4.39
266.214	4.37
266.673	4.35
267.133	4.34
267.593	4.33
268.052	4.32
268.512	4.3
268.971	4.29
269.431	4.28
269.89	4.26
270.349	4.25
270.809	4.24
271.268	4.22
271.727	4.21
272.186	4.2
272.645	4.19
273.104	4.17
273.563	4.15
274.022	4.14
274.481	4.13
274.94	4.12
275.399	4.1
275.857	4.08
276.316	4.07
276.775	4.06
277.233	4.05
277.692	4.04
278.15	4.04
278.609	4.03
279.067	4.02
279.525	4.01
279.984	4
280.442	4
280.9	4
281.358	3.99
281.816	3.99
282.274	3.98
282.732	3.97
283.19	3.96
283.648	3.95
284.106	3.93
284.564	3.92
285.021	3.92
285.479	3.91
285.937	3.9
286.394	3.9
286.852	3.88
287.309	3.88
287.767	3.86
288.224	3.84
288.682	3.83
289.139	3.82
289.596	3.8
290.053	3.78
290.511	3.76
290.968	3.74
291.425	3.72
291.882	3.7
292.339	3.69
292.796	3.68
293.252	3.67
293.709	3.66
294.166	3.66
294.623	3.65
295.079	3.64
295.536	3.64
295.992	3.63
296.449	3.63
296.905	3.63
297.362	3.61
297.818	3.6
298.274	3.59
298.731	3.59
299.187	3.58
299.643	3.57
300.099	3.57
300.555	3.56
301.011	3.55
301.467	3.54
301.923	3.53
302.379	3.53
302.835	3.53
303.291	3.53
303.746	3.53
304.202	3.53
304.658	3.53
305.113	3.53
305.569	3.53
306.024	3.52
306.479	3.52
306.935	3.52
307.39	3.52
307.845	3.52
308.301	3.52
308.756	3.52
309.211	3.51
309.666	3.51
310.121	3.51
310.576	3.51
311.031	3.52
311.486	3.52
311.94	3.52
312.395	3.52
312.85	3.52
313.305	3.51
313.759	3.51
314.214	3.51
314.668	3.5
315.123	3.5
315.577	3.49
316.032	3.49
316.486	3.47
316.94	3.46
317.394	3.46
317.849	3.45
318.303	3.43
318.757	3.42
319.211	3.41
319.665	3.39
320.119	3.38
320.572	3.36
321.026	3.36
321.48	3.35
321.934	3.33
322.387	3.32
322.841	3.31
323.295	3.32
323.748	3.32
324.202	3.31
324.655	3.31
325.108	3.31
325.562	3.31
326.015	3.31
326.468	3.31
326.921	3.32
327.374	3.31
327.827	3.31
328.28	3.31
328.733	3.31
329.186	3.31
329.639	3.31
330.092	3.3
330.545	3.31
330.997	3.3
331.45	3.3
331.903	3.31
332.355	3.32
332.808	3.32
333.26	3.32
333.713	3.31
334.165	3.31
334.617	3.32
335.069	3.32
335.522	3.33
335.974	3.32
336.426	3.32
336.878	3.31
337.33	3.31
337.782	3.3
338.234	3.31
338.686	3.31
339.137	3.31
339.589	3.3
340.041	3.29
340.493	3.27
340.944	3.26
341.396	3.26
341.847	3.25
342.299	3.24
342.75	3.22
343.201	3.21
343.653	3.19
344.104	3.17
344.555	3.16
345.006	3.15
345.457	3.15
345.908	3.14
346.359	3.14
346.81	3.13
347.261	3.13
347.712	3.12
348.163	3.11
348.613	3.11
349.064	3.12
349.515	3.12
349.965	3.12
350.416	3.11
350.866	3.1
351.317	3.1
351.767	3.09
352.217	3.09
352.668	3.1
353.118	3.1
353.568	3.1
354.018	3.1
354.468	3.11
354.918	3.11
355.368	3.12
355.818	3.12
356.268	3.12
356.718	3.12
357.168	3.12
357.617	3.11
358.067	3.11
358.517	3.12
358.966	3.11
359.416	3.11
359.865	3.1
360.315	3.1
360.764	3.1
361.213	3.1
361.663	3.09
362.112	3.09
362.561	3.1
363.01	3.09
363.459	3.08
363.908	3.08
364.357	3.08
364.806	3.07
365.255	3.08
365.703	3.08
366.152	3.09
366.601	3.09
367.05	3.1
367.498	3.08
367.947	3.08
368.395	3.09
368.844	3.08
369.292	3.08
369.74	3.09
370.189	3.08
370.637	3.07
371.085	3.07
371.533	3.06
371.981	3.06
372.429	3.06
372.877	3.07
373.325	3.06
373.773	3.07
374.221	3.06
374.669	3.05
375.116	3.04
375.564	3.04
376.012	3.03
376.459	3.03
376.907	3.03
377.354	3.03
377.801	3.03
378.249	3.03
378.696	3.02
379.143	3.03
379.591	3.03
380.038	3.03
380.485	3.03
380.932	3.03
381.379	3.04
381.826	3.03
382.273	3.03
382.72	3.01
383.166	3
383.613	3
384.06	2.99
384.506	2.98
384.953	2.98
385.4	2.97
385.846	2.97
386.292	2.96
386.739	2.96
387.185	2.95
387.631	2.96
388.078	2.95
388.524	2.95
388.97	2.95
389.416	2.96
389.862	2.96
390.308	2.98
390.754	2.99
391.2	3
391.645	3
392.091	3.01
392.537	3.02
392.983	3.03
393.428	3.05
393.874	3.06
394.319	3.07
394.765	3.06
395.21	3.06
395.655	3.07
396.101	3.08
396.546	3.09
396.991	3.11
397.436	3.12
397.881	3.14
398.326	3.16
398.771	3.17
399.216	3.18
399.661	3.21
400.106	3.22
400.551	3.23
400.995	3.24
401.44	3.24
401.885	3.25
402.329	3.27
402.774	3.28
403.218	3.3
403.663	3.31
404.107	3.32
404.551	3.33
404.995	3.34
405.44	3.35
405.884	3.36
406.328	3.38
406.772	3.38
407.216	3.39
407.66	3.39
408.104	3.38
408.547	3.39
408.991	3.4
409.435	3.4
409.879	3.42
410.322	3.44
410.766	3.45
411.209	3.46
411.653	3.49
412.096	3.5
412.54	3.52
412.983	3.54
413.426	3.58
413.869	3.59
414.312	3.62
414.756	3.64
415.199	3.65
415.642	3.66
416.085	3.66
416.527	3.66
416.97	3.65
417.413	3.64
417.856	3.65
418.298	3.64
418.741	3.64
419.184	3.64
419.626	3.63
420.069	3.64
420.511	3.65
420.953	3.66
421.396	3.67
421.838	3.68
422.28	3.69
422.722	3.7
423.164	3.71
423.606	3.71
424.048	3.72
424.49	3.73
424.932	3.72
425.374	3.72
425.816	3.71
426.258	3.69
426.699	3.7
427.141	3.68
427.582	3.68
428.024	3.69
428.465	3.71
428.907	3.7
429.348	3.69
429.789	3.69
430.231	3.71
430.672	3.73
431.113	3.76
431.554	3.77
431.995	3.79
432.436	3.81
432.877	3.81
433.318	3.82
433.759	3.84
434.2	3.87
434.64	3.9
435.081	3.89
435.522	3.92
435.962	3.94
436.403	3.97
436.843	3.97
437.284	3.98
437.724	3.99
438.164	3.96
438.604	3.97
439.045	3.97
439.485	3.97
439.925	3.97
440.365	3.96
440.805	3.96
441.245	3.96
441.685	3.98
442.125	3.99
442.564	4
443.004	4.02
443.444	4.03
443.883	4.05
444.323	4.04
444.762	4.06
445.202	4.07
445.641	4.09
446.081	4.1
446.52	4.1
446.959	4.11
447.398	4.12
447.837	4.12
448.276	4.12
448.716	4.12
449.154	4.15
449.593	4.15
450.032	4.15
450.471	4.13
450.91	4.13
451.349	4.14
451.787	4.13
452.226	4.12
452.664	4.11
453.103	4.11
453.541	4.11
453.98	4.1
454.418	4.09
454.856	4.08
455.295	4.07
455.733	4.03
456.171	4.01
456.609	4.01
457.047	3.99
457.485	3.99
457.923	3.98
458.361	3.98
458.798	3.97
459.236	3.97
459.674	3.96
460.111	3.97
460.549	3.99
460.987	4
461.424	4
461.862	4.02
462.299	4.02
462.736	4.03
463.173	4.03
463.611	4.05
464.048	4.05
464.485	4.06
464.922	4.06
465.359	4.05
465.796	4.06
466.233	4.07
466.67	4.07
467.106	4.07
467.543	4.07
467.98	4.05
468.416	4.03
468.853	4.03
469.29	4.04
469.726	4.03
470.162	4.03
470.599	4.04
471.035	4.03
471.471	4.02
471.907	4.01
472.344	4.01
472.78	4.01
473.216	4
473.652	4.01
474.088	3.99
474.523	3.98
474.959	3.97
475.395	3.93
475.831	3.92
476.266	3.92
476.702	3.92
477.138	3.91
477.573	3.9
478.008	3.9
478.444	3.88
478.879	3.9
479.314	3.88
479.75	3.89
480.185	3.88
480.62	3.87
481.055	3.86
481.49	3.85
481.925	3.84
482.36	3.84
482.795	3.83
483.229	3.82
483.664	3.82
484.099	3.81
484.534	3.81
484.968	3.81
485.403	3.81
485.837	3.81
486.271	3.81
486.706	3.82
487.14	3.82
487.574	3.83
488.009	3.84
488.443	3.85
488.877	3.86
489.311	3.88
489.745	3.9
490.179	3.93
490.613	3.95
491.046	3.97
491.48	4
491.914	4.02
492.348	4.05
492.781	4.09
493.215	4.12
493.648	4.15
494.082	4.19
494.515	4.22
494.948	4.26
495.382	4.3
495.815	4.36
496.248	4.41
496.681	4.47
497.114	4.52
497.547	4.58
497.98	4.64
498.413	4.7
498.846	4.77
499.279	4.84
499.711	4.92
500.144	5
500.577	5.09
501.009	5.16
501.442	5.25
501.874	5.35
502.306	5.45
502.739	5.56
503.171	5.68
503.603	5.8
504.036	5.92
504.468	6.06
504.9	6.19
505.332	6.33
505.764	6.5
506.196	6.66
506.627	6.83
507.059	7
507.491	7.17
507.923	7.36
508.354	7.56
508.786	7.77
509.217	7.97
509.649	8.19
510.08	8.42
510.512	8.65
510.943	8.89
511.374	9.13
511.805	9.37
512.237	9.62
512.668	9.89
513.099	10.15
513.53	10.41
513.961	10.69
514.391	10.97
514.822	11.26
515.253	11.54
515.684	11.83
516.114	12.14
516.545	12.44
516.975	12.75
517.406	13.07
517.836	13.37
518.267	13.69
518.697	14.01
519.127	14.31
519.558	14.6
519.988	14.91
520.418	15.22
520.848	15.51
521.278	15.81
521.708	16.26
522.138	16.53
522.567	16.81
522.997	17.08
523.427	17.35
523.857	17.62
524.286	17.88
524.716	18.14
525.145	18.39
525.575	18.63
526.004	18.87
526.433	18.95
526.863	19.16
527.292	19.38
527.721	19.59
528.15	19.77
528.579	19.96
529.008	20.15
529.437	20.31
529.866	20.47
530.295	20.64
530.724	20.77
531.152	20.93
531.581	21.08
532.01	21.23
532.438	21.36
532.867	21.49
533.295	21.6
533.723	21.7
534.152	21.81
534.58	21.92
535.008	22.01
535.436	22.1
535.865	22.17
536.293	22.25
536.721	22.3
537.149	22.37
537.576	22.42
538.004	22.5
538.432	22.55
538.86	22.61
539.287	22.65
539.715	22.7
540.143	22.75
540.57	22.8
540.998	22.82
541.425	22.87
541.852	22.91
542.28	22.96
542.707	22.99
543.134	23.03
543.561	23.05
543.988	23.08
544.415	23.09
544.842	23.12
545.269	23.16
545.696	23.19
546.123	23.21
546.549	23.25
546.976	23.27
547.403	23.3
547.829	23.33
548.256	23.35
548.682	23.36
549.108	23.39
549.535	23.42
549.961	23.41
550.387	23.41
550.813	23.39
551.24	23.37
551.666	23.36
552.092	23.36
552.518	23.33
552.943	23.32
553.369	23.29
553.795	23.25
554.221	23.19
554.646	23.15
555.072	23.11
555.498	23.08
555.923	23.01
556.349	22.94
556.774	22.87
557.199	22.8
557.625	22.73
558.05	22.66
558.475	22.58
558.9	22.49
559.325	22.4
559.75	22.31
560.175	22.2
560.6	22.1
561.025	21.98
561.449	21.86
561.874	21.75
562.299	21.62
562.723	21.48
563.148	21.34
563.572	21.2
563.997	21.05
564.421	20.88
564.846	20.72
565.27	20.57
565.694	20.42
566.118	20.26
566.542	20.09
566.966	19.93
567.39	19.78
567.814	19.62
568.238	19.46
568.662	19.3
569.086	19.16
569.509	19.02
569.933	18.85
570.357	18.69
570.78	18.54
571.204	18.38
571.627	18.24
572.05	18.09
572.474	17.95
572.897	17.8
573.32	17.66
573.743	17.51
574.166	17.37
574.589	17.24
575.012	17.11
575.435	16.99
575.858	16.87
576.281	16.74
576.704	16.62
577.126	16.49
577.549	16.39
577.972	16.27
578.394	16.17
578.817	16.08
579.239	15.98
579.661	15.89
580.084	15.78
580.506	15.68
580.928	15.58
581.35	15.48
581.772	15.39
582.194	15.3
582.616	15.22
583.038	15.12
583.46	15.04
583.882	14.96
584.303	14.86
584.725	14.8
585.147	14.74
585.568	14.67
585.99	14.6
586.411	14.55
586.833	14.48
587.254	14.4
587.675	14.35
588.096	14.28
588.518	14.2
588.939	14.16
589.36	14.09
589.781	14.02
590.202	13.98
590.623	13.93
591.043	13.88
591.464	13.84
591.885	13.79
592.305	13.74
592.726	13.71
593.147	13.67
593.567	13.64
593.987	13.61
594.408	13.58
594.828	13.53
595.248	13.49
595.669	13.46
596.089	13.42
596.509	13.41
596.929	13.38
597.349	13.34
597.769	13.31
598.189	13.27
598.608	13.24
599.028	13.21
599.448	13.17
599.867	13.13
600.287	13.09
600.706	13.05
601.126	13.01
601.545	12.96
601.965	12.91
602.384	12.86
602.803	12.81
603.222	12.75
603.641	12.7
604.061	12.65
604.48	12.59
604.898	12.51
605.317	12.43
605.736	12.37
606.155	12.3
606.574	12.22
606.992	12.14
607.411	12.07
607.829	11.96
608.248	11.87
608.666	11.78
609.085	11.7
609.503	11.63
609.921	11.56
610.339	11.46
610.758	11.39
611.176	11.3
611.594	11.23
612.012	11.15
612.43	11.09
612.847	11.02
613.265	10.95
613.683	10.87
614.101	10.8
614.518	10.72
614.936	10.64
615.353	10.57
615.771	10.5
616.188	10.43
616.606	10.37
617.023	10.31
617.44	10.25
617.857	10.19
618.274	10.14
618.691	10.08
619.108	10.02
619.525	9.99
619.942	9.95
620.359	9.9
620.776	9.86
621.192	9.83
621.609	9.79
622.026	9.76
622.442	9.75
622.859	9.72
623.275	9.7
623.691	9.69
624.108	9.67
624.524	9.65
624.94	9.64
625.356	9.63
625.772	9.61
626.188	9.59
626.604	9.58
627.02	9.55
627.436	9.54
627.852	9.53
628.268	9.52
628.683	9.5
629.099	9.48
629.514	9.47
629.93	9.45
630.345	9.45
630.761	9.42
631.176	9.4
631.591	9.38
632.007	9.34
632.422	9.31
632.837	9.26
633.252	9.2
633.667	9.15
634.082	9.08
634.497	9.01
634.911	8.93
635.326	8.85
635.741	8.77
636.155	8.68
636.57	8.59
636.984	8.5
637.399	8.41
637.813	8.32
638.228	8.22
638.642	8.11
639.056	8
639.47	7.91
639.884	7.81
640.298	7.69
640.712	7.58
641.126	7.47
641.54	7.35
641.954	7.24
642.368	7.13
642.781	7.03
643.195	6.93
643.609	6.84
644.022	6.74
644.436	6.65
644.849	6.54
645.262	6.47
645.676	6.38
646.089	6.32
646.502	6.26
646.915	6.19
647.328	6.13
647.741	6.07
648.154	6.02
648.567	5.97
648.98	5.92
649.393	5.89
649.805	5.85
650.218	5.81
650.631	5.77
651.043	5.73
651.456	5.7
651.868	5.66
652.28	5.62
652.693	5.59
653.105	5.55
653.517	5.51
653.929	5.47
654.341	5.41
654.753	5.35
655.165	5.3
655.577	5.25
655.989	5.19
656.401	5.13
656.813	5.07
657.224	5
657.636	4.92
658.047	4.85
658.459	4.78
658.87	4.71
659.282	4.65
659.693	4.58
660.104	4.5
660.515	4.44
660.926	4.37
661.338	4.3
661.749	4.24
662.159	4.19
662.57	4.14
662.981	4.09
663.392	4.04
663.803	4
664.213	3.95
664.624	3.92
665.035	3.88
665.445	3.84
665.855	3.81
666.266	3.77
666.676	3.74
667.086	3.71
667.497	3.69
667.907	3.68
668.317	3.66
668.727	3.64
669.137	3.63
669.547	3.62
669.956	3.61
670.366	3.6
670.776	3.61
671.186	3.61
671.595	3.6
672.005	3.59
672.414	3.59
672.824	3.59
673.233	3.6
673.642	3.61
674.052	3.61
674.461	3.63
674.87	3.64
675.279	3.66
675.688	3.67
676.097	3.69
676.506	3.72
676.915	3.74
677.323	3.76
677.732	3.78
678.141	3.82
678.549	3.85
678.958	3.88
679.366	3.92
679.775	3.95
680.183	4
680.592	4.05
681	4.11
681.408	4.16
681.816	4.23
682.224	4.31
682.632	4.4
683.04	4.49
683.448	4.6
683.856	4.7
684.264	4.84
684.671	4.99
685.079	5.15
685.487	5.34
685.894	5.55
686.302	5.78
686.709	6.03
687.116	6.31
687.524	6.61
687.931	6.93
688.338	7.29
688.745	7.66
689.152	8.06
689.559	8.48
689.966	8.91
690.373	9.38
690.78	9.86
691.187	10.37
691.593	10.9
692	11.44
692.407	11.99
692.813	12.57
693.22	13.15
693.626	13.73
694.032	14.34
694.439	14.97
694.845	15.61
695.251	16.23
695.657	16.84
696.063	17.46
696.469	18.1
696.875	18.74
697.281	19.37
697.687	20.01
698.093	20.64
698.498	21.27
698.904	21.88
699.31	22.46
699.715	23.06
700.12	23.67
700.526	24.26
700.931	24.83
701.337	25.4
701.742	25.96
702.147	26.5
702.552	27.04
702.957	27.55
703.362	28.06
703.767	28.57
704.172	29.08
704.577	29.59
704.981	30.08
705.386	30.57
705.791	31.05
706.195	31.54
706.6	32.02
707.004	32.47
707.408	32.92
707.813	33.38
708.217	33.83
708.621	34.26
709.025	34.65
709.43	35.08
709.834	35.49
710.237	35.88
710.641	36.26
711.045	36.64
711.449	37.04
711.853	37.44
712.256	37.79
712.66	38.15
713.064	38.49
713.467	38.85
713.87	39.17
714.274	39.49
714.677	39.83
715.08	40.16
715.484	40.48
715.887	40.8
716.29	41.08
716.693	41.42
717.096	41.73
717.499	42.06
717.901	42.35
718.304	42.64
718.707	42.94
719.109	43.23
719.512	43.51
719.915	43.77
720.317	44
720.719	44.23
721.122	44.46
721.524	44.68
721.926	44.91
722.328	45.14
722.731	45.35
723.133	45.55
723.535	45.73
723.937	45.93
724.338	46.13
724.74	46.33
725.142	46.61
725.544	46.78
725.945	46.96
726.347	47.12
726.748	47.27
727.15	47.4
727.551	47.58
727.952	47.71
728.354	47.85
728.755	47.96
729.156	48.09
729.557	48.13
729.958	48.24
730.359	48.34
730.76	48.45
731.161	48.56
731.562	48.68
731.962	48.74
732.363	48.87
732.763	48.97
733.164	49.08
733.564	49.17
733.965	49.27
734.365	49.37
734.766	49.46
735.166	49.56
735.566	49.65
735.966	49.73
736.366	49.83
736.766	49.86
737.166	49.92
737.566	49.96
737.966	50.03
738.365	50.11
738.765	50.18
739.165	50.22
739.564	50.28
739.964	50.32
740.363	50.35
740.763	50.41
741.162	50.45
741.561	50.49
741.96	50.54
742.36	50.58
742.759	50.61
743.158	50.62
743.557	50.63
743.955	50.64
744.354	50.69
744.753	50.74
745.152	50.78
745.55	50.83
745.949	50.87
746.348	50.91
746.746	50.89
747.144	50.91
747.543	50.93
747.941	50.98
748.339	50.98
748.737	50.97
749.136	50.96
749.534	50.94
749.932	50.95
750.33	50.94
750.727	50.97
751.125	51
751.523	51
751.921	51.04
752.318	51.04
752.716	51.07
753.113	51.09
753.511	51.11
753.908	51.13
754.305	51.16
754.703	51.15
755.1	51.15
755.497	51.16
755.894	51.17
756.291	51.16
756.688	51.16
757.085	51.15
757.482	51.16
757.878	51.18
758.275	51.18
758.672	51.18
759.068	51.23
759.465	51.24
759.861	51.25
760.258	51.26
760.654	51.26
761.05	51.28
761.447	51.33
761.843	51.31
762.239	51.31
762.635	51.32
763.031	51.29
763.427	51.23
763.822	51.21
764.218	51.21
764.614	51.22
765.01	51.21
765.405	51.19
765.801	51.14
766.196	51.16
766.592	51.15
766.987	51.15
767.382	51.17
767.778	51.21
768.173	51.2
768.568	51.18
768.963	51.17
769.358	51.2
769.753	51.22
770.148	51.22
770.542	51.22
770.937	51.23
771.332	51.21
771.726	51.22
772.121	51.21
772.515	51.2
772.91	51.2
773.304	51.23
773.699	51.24
774.093	51.21
774.487	51.2
774.881	51.21
775.275	51.2
775.669	51.17
776.063	51.16
776.457	51.18
776.851	51.16
777.245	51.13
777.638	51.1
778.032	51.08
778.425	51.14
778.819	51.13
779.212	51.12
779.606	51.15
779.999	51.16
780.392	51.16
780.786	51.14
781.179	51.19
781.572	51.25
781.965	51.26
782.358	51.28
782.751	51.25
783.143	51.27
783.536	51.27
783.929	51.24
784.322	51.24
784.714	51.26
785.107	51.27
785.499	51.25
785.891	51.22
786.284	51.23
786.676	51.23
787.068	51.22
787.46	51.21
787.852	51.21
788.245	51.19
788.636	51.19
789.028	51.19
789.42	51.18
789.812	51.2
790.204	51.23
790.595	51.21
790.987	51.19
791.378	51.22
791.77	51.24
792.161	51.23
792.553	51.26
792.944	51.26
793.335	51.24
793.726	51.24
794.117	51.21
794.508	51.17
794.899	51.18
795.29	51.18
795.681	51.12
796.072	51.11
796.463	51.12
796.853	51.12
797.244	51.13
797.634	51.13
798.025	51.12
798.415	51.1
798.806	51.1
799.196	51.11
799.586	51.11
799.976	51.13
800.366	51.13
800.756	51.16
801.146	51.19
801.536	51.19
801.926	51.2
802.316	51.21
802.706	51.23
803.095	51.24
803.485	51.21
803.874	51.2
804.264	51.2
804.653	51.21
805.043	51.17
805.432	51.15
805.821	51.16
806.21	51.15
806.599	51.15
806.988	51.15
807.377	51.14
807.766	51.14
808.155	51.12
808.544	51.12
808.933	51.1
809.321	51.1
809.71	51.08
810.098	51.08
810.487	51.06
810.875	51.07
811.264	51.04
811.652	51.06
812.04	51.05
812.428	51.09
812.816	51.08
813.204	51.07
813.592	51.05
813.98	51.04
814.368	51.03
814.756	51.02
815.144	51.01
815.531	51.01
815.919	51
816.306	51
816.694	50.98
817.081	50.99
817.469	50.99
817.856	51.01
818.243	50.99
818.63	50.98
819.017	50.97
819.404	50.94
819.791	50.92
820.178	50.91
820.565	50.88
820.952	50.87
821.339	50.85
821.725	50.85
822.112	50.84
822.498	50.85
822.885	50.88
823.271	50.9
823.657	50.89
824.044	50.92
824.43	50.93
824.816	50.95
825.202	50.94
825.588	50.93
825.974	50.91
826.36	50.9
826.746	50.9
827.132	50.88
827.517	50.89
827.903	50.94
828.289	50.94
828.674	50.94
829.06	50.92
829.445	50.92
829.83	50.94
830.216	50.95
830.601	50.93
830.986	50.94
831.371	50.93
831.756	50.94
832.141	50.93
832.526	50.93
832.911	50.93
833.295	50.94
833.68	50.95
834.065	50.97
834.449	50.97
834.834	51
835.218	50.99
835.603	50.99
835.987	50.96
836.371	50.94
836.755	50.93
837.139	50.91
837.524	50.94
837.908	50.94
838.291	50.96
838.675	50.96
839.059	50.92
839.443	50.91
839.827	50.92
840.21	50.93
840.594	50.93
840.977	50.93
841.361	50.95
841.744	50.91
842.127	50.89
842.511	50.85
842.894	50.84
843.277	50.84
843.66	50.83
844.043	50.84
844.426	50.82
844.809	50.81
845.191	50.85
845.574	50.85
845.957	50.87
846.339	50.84
846.722	50.85
847.104	50.87
847.487	50.87
847.869	50.9
848.252	50.9
848.634	50.9
849.016	50.91
849.398	50.91
849.78	50.89
850.162	50.88
850.544	50.89
850.926	50.9
851.307	50.91
851.689	50.9
852.071	50.9
852.452	50.9
852.834	50.91
853.215	50.89
853.597	50.87
853.978	50.88
854.359	50.91
854.741	50.93
855.122	50.89
855.503	50.88
855.884	50.88
856.265	50.87
856.646	50.84
857.026	50.85
857.407	50.88
857.788	50.85
858.169	50.86
858.549	50.85
858.93	50.84
859.31	50.87
859.69	50.88
860.071	50.9
860.451	50.91
860.831	50.93
861.211	50.91
861.591	50.89
861.971	50.92
862.351	50.93
862.731	50.93
863.111	50.92
863.491	50.91
863.87	50.91
864.25	50.9
864.629	50.89
865.009	50.9
865.388	50.9
865.768	50.9
866.147	50.91
866.526	50.89
866.905	50.88
867.284	50.89
867.663	50.91
868.042	50.91
868.421	50.93
868.8	50.95
869.179	50.92
869.558	50.91
869.936	50.89
870.315	50.88
870.693	50.88
871.072	50.9
871.45	50.9
871.828	50.88
872.207	50.87
872.585	50.87
872.963	50.86
873.341	50.87
873.719	50.88
874.097	50.89
874.475	50.9
874.853	50.89
875.23	50.89
875.608	50.91
875.986	50.94
876.363	50.95
876.741	50.93
877.118	50.92
877.495	50.92
877.873	50.92
878.25	50.95
878.627	50.97
879.004	50.98
879.381	50.98
879.758	50.95
880.135	50.95
880.512	50.94
880.889	50.93
881.265	50.93
881.642	50.94
882.019	50.94
882.395	50.91
882.772	50.9
883.148	50.89
883.524	50.87
883.901	50.88
884.277	50.84
884.653	50.82
885.029	50.82
885.405	50.83
885.781	50.83
886.157	50.83
886.532	50.83
886.908	50.79
887.284	50.78
887.659	50.77
888.035	50.74
888.411	50.74
888.786	50.75
889.161	50.76
889.537	50.75
889.912	50.73
890.287	50.7
890.662	50.69
891.037	50.73
891.412	50.73
891.787	50.72
892.162	50.72
892.536	50.72
892.911	50.7
893.286	50.68
893.66	50.68
894.035	50.69
894.409	50.69
894.784	50.69
895.158	50.69
895.532	50.71
895.906	50.7
896.281	50.72
896.655	50.74
897.029	50.76
897.402	50.78
897.776	50.8
898.15	50.82
898.524	50.83
898.898	50.82
899.271	50.83
899.645	50.83
900.018	50.87
900.392	50.86
900.765	50.87
901.138	50.86
901.511	50.89
901.884	50.87
902.258	50.88
902.631	50.9
903.003	50.92
903.376	50.91
903.749	50.91
904.122	50.9
904.495	50.92
904.867	50.94
905.24	50.96
905.612	50.94
905.985	50.92
906.357	50.89
906.729	50.91
907.102	50.91
907.474	50.91
907.846	50.93
908.218	50.91
908.59	50.91
908.962	50.9
909.334	50.89
909.705	50.87
910.077	50.9
910.449	50.9
910.82	50.86
911.192	50.85
911.563	50.85
911.935	50.81
912.306	50.85
912.677	50.86
913.048	50.87
913.419	50.87
913.79	50.9
914.161	50.92
914.532	50.95
914.903	50.99
915.274	50.99
915.645	51
916.015	51.01
916.386	50.99
916.756	50.99
917.127	51
917.497	50.99
917.868	50.96
918.238	50.94
918.608	50.96
918.978	50.96
919.348	50.99
919.718	50.97
920.088	50.99
920.458	50.99
920.828	50.97
921.198	50.94
921.567	50.96
921.937	50.98
922.306	50.98
922.676	50.96
923.045	50.91
923.415	50.87
923.784	50.86
924.153	50.87
924.522	50.91
924.891	50.92
925.26	50.93
925.629	50.91
925.998	50.85
926.367	50.87
926.736	50.83
927.104	50.86
927.473	50.85
927.842	50.84
928.21	50.83
928.578	50.78
928.947	50.75
929.315	50.72
929.683	50.71
930.051	50.73
930.42	50.73
930.788	50.71
931.156	50.66
931.523	50.67
931.891	50.73
932.259	50.72
932.627	50.71
932.994	50.73
933.362	50.75
933.729	50.75
934.097	50.75
934.464	50.77
934.831	50.8
935.199	50.86
935.566	50.89
935.933	50.82
936.3	50.8
936.667	50.81
937.034	50.83
937.401	50.88
937.767	50.9
938.134	50.91
938.501	50.86
938.867	50.9
939.234	50.84
939.6	50.79
939.967	50.8
940.333	50.79
940.699	50.79
941.065	50.75
941.431	50.71
941.798	50.69
942.163	50.64
942.529	50.65
942.895	50.57
943.261	50.55
943.627	50.57
943.992	50.56
944.358	50.55
944.723	50.51
945.089	50.43
945.454	50.45
945.82	50.42
946.185	50.44
946.55	50.37
946.915	50.37
947.28	50.38
947.645	50.42
948.01	50.39
948.375	50.35
948.74	50.3
949.104	50.36
949.469	50.25
949.834	50.24
950.198	50.26
950.562	50.27
950.927	50.28
951.291	50.18
951.655	50.09
952.02	50.1
952.384	50.12
952.748	50.12
953.112	50.08
953.476	50.08
953.839	50.03
954.203	50.01
954.567	49.95
954.931	49.89
955.294	49.99
955.658	50.05
956.021	49.98
956.385	49.96
956.748	49.95
957.111	49.95
957.474	49.98
957.837	49.96
958.2	49.93
958.563	49.99
958.926	50.04
959.289	50.01
959.652	49.97
960.015	50.02
960.377	50.04
960.74	50.08
961.102	50.08
961.465	50.11
961.827	50.2
962.189	50.22
962.552	50.26
962.914	50.23
963.276	50.27
963.638	50.33
964	50.31
964.362	50.35
964.724	50.37
965.085	50.38
965.447	50.37
965.809	50.33
966.17	50.32
966.532	50.26
966.893	50.26
967.255	50.26
967.616	50.23
967.977	50.29
968.338	50.27
968.699	50.21
969.061	50.18
969.421	50.16
969.782	50.18
970.143	50.17
970.504	50.19
970.865	50.23
971.225	50.2
971.586	50.18
971.946	50.2
972.307	50.17
972.667	50.19
973.027	50.26
973.388	50.3
973.748	50.31
974.108	50.4
974.468	50.41
974.828	50.44
975.188	50.44
975.548	50.42
975.907	50.39
976.267	50.38
976.627	50.39
976.986	50.31
977.346	50.18
977.705	50.12
978.064	50.13
978.424	50.16
978.783	50.12
979.142	50.11
979.501	50.15
979.86	50.17
980.219	50.2
980.578	50.26
980.937	50.31
981.296	50.41
981.654	50.46
982.013	50.39
982.371	50.36
982.73	50.38
983.088	50.39
983.447	50.35
983.805	50.37
984.163	50.4
984.521	50.38
984.879	50.3
985.237	50.31
985.595	50.4
985.953	50.39
986.311	50.35
986.669	50.34
987.026	50.33
987.384	50.4
987.741	50.3
988.099	50.24
988.456	50.2
988.814	50.26
989.171	50.22
989.528	50.12
989.885	50.14
990.242	50.21
990.599	50.22
990.956	50.29
991.313	50.31
991.67	50.37
992.027	50.51
992.383	50.57
992.74	50.61
993.096	50.7
993.453	50.74
993.809	50.73
994.165	50.76
994.522	50.81
994.878	50.83
995.234	50.79
995.59	50.78
995.946	50.65
996.302	50.77
996.658	50.78
997.013	50.76
997.369	50.74
997.725	50.81
998.08	50.8
998.436	50.87
998.791	50.85
999.147	50.85
999.502	50.87
999.857	50.87
1000.212	50.7
1000.567	50.74
1000.922	50.73
1001.277	50.8
1001.632	50.68
1001.987	50.7
1002.342	50.58
1002.696	50.68
1003.051	50.87
1003.406	50.96
1003.76	51
1004.114	51.06
1004.469	51.18
1004.823	51.47
1005.177	51.43
1005.531	51.66
1005.885	51.7
1006.239	51.81
1006.593	51.89
1006.947	51.82
1007.301	51.75
1007.655	51.84
1008.008	51.91
1008.362	51.85
1008.715	51.62
1009.069	51.75
1009.422	51.68
1009.776	51.69
1010.129	51.67
1010.482	51.63
1010.835	51.51
1011.188	51.48
1011.541	51.64
1011.894	51.75
1012.247	51.68
1012.6	51.79
1012.952	51.54
1013.305	51.66
1013.657	51.6
1014.01	51.66
1014.362	51.47
1014.715	51.76
1015.067	51.84
1015.419	51.73
1015.771	51.56
1016.123	51.6
1016.475	51.54
1016.827	51.86
1017.179	51.85
1017.531	51.91
1017.883	51.98
1018.234	52.17
1018.586	52.03
1018.938	52.35
1019.289	52.37
1019.64	52.49
1019.992	52.44
1020.343	52.3
1020.694	52.15
1021.045	52.2
1021.396	52.42
1021.747	52.19
1022.098	52.28
1022.449	52.3
1022.8	52.05
1023.151	51.93
1023.501	51.97
1023.852	52.11
1024.202	52.07
1024.553	52.18
1024.903	52.26
1025.253	52.32
1025.604	52.54
1025.954	52.41
1026.304	52.39
1026.654	52.35
1027.004	52.33
1027.354	52.14
1027.703	52.12
1028.053	52.52
1028.403	52.61
1028.753	52.33
1029.102	52.26
1029.452	52.33
1029.801	52.53
1030.15	52.52
1030.499	52.64
897.758	1118.61
901.051	1127.12
904.343	1121.36
907.636	1142.34
910.928	1111.54
914.22	1114.9
917.511	1102.32
920.803	1050.94
924.094	1049.36
927.384	1026.44
930.675	981.07
933.965	975.73
937.255	918.86
940.544	884.15
943.834	842.18
947.123	837.14
950.411	787.74
953.7	771.32
956.988	736.89
960.276	706.73
963.563	693.71
966.851	672.62
970.138	666.95
973.424	645.9
976.711	649
979.997	617.1
983.283	612.39
986.568	599.24
989.853	581.76
993.138	568.91
996.423	547.04
999.708	532.55
1002.992	526.27
1006.275	502.14
1009.559	498.49
1012.842	479.9
1016.125	469.01
1019.408	460.86
1022.69	454.2
1025.972	444.57
1029.254	435.77
1032.536	428.47
1035.817	419.78
1039.098	416.09
1042.379	407.98
1045.659	403.25
1048.939	393.96
1052.219	386.19
1055.498	379.95
1058.778	371.51
1062.057	364.41
1065.335	360.16
1068.614	355.87
1071.892	352.52
1075.17	340.24
1078.447	334.96
1081.724	332.27
1085.001	331.65
1088.278	324.46
1091.554	318.23
1094.83	318.81
1098.106	315.99
1101.382	314.06
1104.657	312.33
1107.932	306.25
1111.206	309.02
1114.481	300.86
1117.755	298.06
1121.029	294.13
1124.302	294.09
1127.575	288.98
1130.848	285.58
1134.121	282.48
1137.393	280.25
1140.665	273.78
1143.937	273.32
1147.208	271.14
1150.48	270.47
1153.75	267.05
1157.021	264.27
1160.291	263.29
1163.561	260.95
1166.831	260.71
1170.101	258.52
1173.37	258.31
1176.639	259.77
1179.907	256.82
1183.176	253.23
1186.444	253.64
1189.711	253.62
1192.979	252.43
1196.246	251.51
1199.513	251.96
1202.78	250.71
1206.046	250.92
1209.312	248.37
1212.578	248.14
1215.843	250.51
1219.108	249.9
1222.373	253.63
1225.638	255.65
1228.902	258.42
1232.166	259.21
1235.43	261.17
1238.693	264.38
1241.956	265.53
1245.219	269.82
1248.482	270
1251.744	269.87
1255.006	270.12
1258.268	264.66
1261.529	262.06
1264.79	260.99
1268.051	258.7
1271.312	255.84
1274.572	253.11
1277.832	250.75
1281.092	246.21
1284.351	244.39
1287.61	243.72
1290.869	240.68
1294.128	239.2
1297.386	238.67
1300.644	235.87
1303.902	237.39
1307.159	236.45
1310.416	236.08
1313.673	235.37
1316.93	238.52
1320.186	238.07
1323.442	239.39
1326.697	242.69
1329.953	243.13
1333.208	244.32
1336.463	247.27
1339.717	247.04
1342.972	250.13
1346.226	251.56
1349.479	252.87
1352.733	253.85
1355.986	255.48
1359.238	254.73
1362.491	256.26
1365.743	258.68
1368.995	259.32
1372.247	259.18
1375.498	258.69
1378.749	260.31
1382	258.51
1385.251	259.25
1388.501	257.16
1391.751	257.7
1395	257
1398.25	254.99
1401.499	252.83
1404.748	251.91
1407.996	249.92
1411.244	248.85
1414.492	247.13
1417.74	244.2
1420.987	240.43
1424.234	239.93
1427.481	236.93
1430.728	236.32
1433.974	234.02
1437.22	232.23
1440.465	231.36
1443.711	228.37
1446.956	226.97
1450.201	224.36
1453.445	222.6
1456.689	221.95
1459.933	218.3
1463.177	216.74
1466.42	213.05
1469.663	211.08
1472.906	209.8
1476.148	205.36
1479.391	203.12
1482.633	201.68
1485.874	198.91
1489.115	197.46
1492.356	195.31
1495.597	194.96
1498.838	192.34
1502.078	192.06
1505.318	191.13
1508.557	191.03
1511.797	190.41
1515.036	189.82
1518.274	188.96
1521.513	187.63
1524.751	187.7
1527.989	186.72
1531.227	186.49
1534.464	186.52
1537.701	185.15
1540.938	184.81
1544.174	182.77
1547.41	182.82
1550.646	181.85
1553.882	181.92
1557.117	180.11
1560.352	179.1
1563.587	178.88
1566.821	177.33
1570.055	176.1
1573.289	174.96
1576.523	174.54
1579.756	173.78
1582.989	172.85
1586.222	171.85
1589.454	171.05
1592.686	172.13
1595.918	171.1
1599.15	170.37
1602.381	170.83
1605.612	170.61
1608.843	170.71
1612.073	170.97
1615.303	171.54
1618.533	171.18
1621.762	171.82
1624.992	172.45
1628.221	171.8
1631.449	171.92
1634.678	172
1637.906	172.61
1641.134	172.93
1644.361	172.91
1647.588	172.69
1650.815	172.1
1654.042	171.53
1657.269	172.88
1660.495	172.57
1663.72	172.29
1666.946	172.81
1670.171	173.14
1673.396	172.86
1676.621	172.83
1679.845	172.78
1683.069	173.24
1686.293	174.24
1689.517	175.6
1692.74	174.94
1695.963	175.45
1699.185	176.68
1702.408	177.1
1705.63	177.68
1708.852	178.03
1712.073	178.32
1715.294	179.21
1718.515	179.94
1721.736	179.49
1724.956	179.94
1728.176	179.98
1731.396	181.07
1734.616	180.33
1737.835	180.74
1741.054	179.24
1744.272	180.04
1747.491	181.14
1750.709	181.49
1753.927	181.01
1757.144	181.31
1760.361	181.3
1763.578	182.06
1766.795	181.62
1770.011	183.04
1773.227	182.88
1776.443	185.57
1779.658	185.55
1782.874	185.28
1786.089	186
1789.303	186.25
1792.518	188.09
1795.732	188.28
1798.945	189.38
1802.159	189.56
1805.372	190.27
1808.585	193.12
1811.797	193.59
1815.01	194.15
1818.222	195.6
1821.434	196.86
1824.645	197.88
1827.856	200.99
1831.067	202.45
1834.278	201.45
1837.488	203.34
1840.698	204.54
1843.908	202.9
1847.117	203.18
1850.326	204.43
1853.535	203.5
1856.744	206.03
1859.952	205.89
1863.16	203.58
1866.368	202.64
1869.575	204.58
1872.782	201.39
1875.989	200.15
1879.196	198.54
1882.402	197.37
1885.608	197.5
1888.814	197.82
1892.019	196.42
1895.224	195.32
1898.429	194.32
1901.634	194.36
1904.838	194.75
1908.042	196.07
1911.246	196.19
1914.449	197.87
1917.652	197.55
1920.855	197.65
1924.058	197.35
1927.26	196.51
1930.462	196.9
1933.664	199.67
1936.865	197.75
1940.066	197.19
1943.267	196.33
1946.467	195.94
1949.668	197.41
1952.868	200.16
1956.067	199.82
1959.267	199.81
1962.466	200.45
1965.665	199.91
1968.863	200.1
1972.061	203.91
1975.259	205.03
1978.457	207.07
1981.654	209.98
1984.852	210.18
1988.048	209.15
1991.245	210.94
1994.441	214.13
1997.637	216.01
2000.833	220.05
2004.028	222.72
2007.223	223.15
2010.418	225.94
2013.613	229.22
2016.807	231.3
2020.001	233.16
2023.194	237.32
2026.388	243.06
2029.581	247.99
2032.774	249.77
2035.966	255.07
2039.158	255.82
2042.35	261.53
2045.542	263.14
2048.733	267.77
2051.924	270.3
2055.115	275.77
2058.306	276.1
2061.496	278.32
2064.686	278.6
2067.875	283
2071.065	284.35
2074.254	283
2077.442	286.21
2080.631	288.39
2083.819	290.49
2087.007	291.43
2090.195	295.24
2093.382	296.98
2096.569	295.53
2099.756	299.44
2102.942	300.97
2106.128	303.58
2109.314	309.78
2112.5	308.62
2115.685	314.5
2118.87	314.99
2122.055	322.54
2125.239	323.36
2128.424	328.41
2131.608	331.3
2134.791	335.34
2137.974	337.05
2141.157	337.07
2144.34	338.43
2147.523	343.32
2150.705	341.36
2153.887	345.06
2157.068	344.6
2160.25	341.29
2163.431	343
2166.611	346.54
2169.792	353.75
2172.972	357.15
2176.152	359.77
2179.331	364.14
2182.511	370.15
2185.69	373.61
2188.868	380.13
2192.047	381.72
2195.225	393.23
2198.403	401.33
2201.58	407.5
2204.758	416.26
2207.935	424.31
2211.111	432.2
2214.288	437.52
2217.464	438.46
2220.64	446.3
2223.815	451.37
2226.991	469.14
2230.166	468.96
2233.34	478.06
2236.515	487.82
2239.689	487.61
2242.863	488.46
2246.036	502.28
2249.209	499.73
2252.382	508.14
2255.555	523.38
2258.727	525.87
2261.9	529.63
2265.071	535.39
2268.243	543.08
2271.414	547.92
2274.585	558.79
2277.756	567.32
2280.926	569.62
2284.096	583.74
2287.266	595.46
2290.436	598.39
2293.605	613.03
2296.774	627.31
2299.942	650.5
2303.111	655.7
2306.279	670.62
2309.447	679.18
2312.614	695.96
2315.781	718.35
2318.948	747.48
2322.115	738.32
2325.281	777.77
2328.447	761.47
2331.613	792.2
2334.779	780.9
2337.944	813.29
2341.109	820.34
2344.274	843.5
2347.438	872.6
2350.602	869.52
2353.766	897.73
2356.929	911.58
2360.092	904.24
2363.255	969.62
2366.418	969.29
2369.58	988.54
2372.742	1044.15
2375.904	1072.37
2379.066	1066.4
2382.227	1046.38
2385.388	1139.99
2388.548	1135.87
2391.709	1147.82
2394.869	1281.59
2398.029	1225.12
2401.188	1259.64
2404.347	1251.87
2407.506	1240.14
2410.665	1272.11
2413.823	1347.88
2416.981	1428.9
2420.139	1379.73
2423.296	1371
2426.453	1432.37
2429.61	1374.19
2432.767	1440.7
2435.923	1427.47
2439.079	1559.1
2442.235	1573.19
2445.391	1558.55
2448.546	1544.34
2451.701	1497.47
2454.855	1495.24
2458.009	1583.74
2461.163	1642.97
2464.317	1709.99
2467.471	1753.52
2470.624	1752.97
2473.777	1708.56
2476.929	1671.5
2480.082	1627.15
2483.234	1609.94
2486.385	1691.91
2489.537	1699.13
2492.688	1758.42
2495.839	1713.2
2498.989	1670.34
2502.14	1679.78
2505.29	1694.6
2508.439	1721.52
2511.589	1714.62
2514.738	1868.71
2517.887	1825.78
2521.035	1932.19
2524.183	1950.71
2527.331	1969.62
2530.479	1964.01
2533.627	1981.35
