Data from C_1_HIR_WI_4N_Splice17_13-00-18-901.txt Node
Date: Sat Mar 07 13:00:18 EST 2020
User: sa697716
Spectrometer: NQ5500242
Trigger mode: 0
Integration Time (sec): 1.450000E-1
Scans to average: 20
Nonlinearity correction enabled: false
Boxcar width: 5
Storing dark spectrum: false
XAxis mode: Wavelengths
Number of Pixels in Spectrum: 512
>>>>>Begin Spectral Data<<<<<
187.83	179.86
188.298	190.08
188.766	163.22
189.233	157.13
189.701	165.36
190.169	176.94
190.636	178.41
191.104	248.19
191.571	69.27
192.039	93.17
192.506	-241.39
192.974	129.03
193.441	159.42
193.908	43.31
194.375	95.43
194.842	57.37
195.31	77.45
195.777	173.17
196.244	55.75
196.711	41.7
197.177	43.47
197.644	40.97
198.111	40.57
198.578	40.78
199.045	40.77
199.511	40.72
199.978	40.69
200.445	40.94
200.911	40.58
201.378	40.39
201.844	40.48
202.31	40.16
202.777	40.5
203.243	40.59
203.709	40.26
204.176	40.02
204.642	39.67
205.108	39.55
205.574	38.88
206.04	38.72
206.506	38.48
206.972	38.24
207.438	38
207.903	37.47
208.369	36.76
208.835	36.09
209.301	35.26
209.766	34.36
210.232	33.28
210.697	32.43
211.163	31.62
211.628	30.75
212.094	29.75
212.559	29.13
213.024	28.38
213.49	27.56
213.955	26.79
214.42	26.12
214.885	25.38
215.35	24.6
215.815	23.37
216.28	21.54
216.745	19.69
217.21	17.96
217.675	16.14
218.14	14.73
218.604	13.54
219.069	12.46
219.534	11.63
219.998	10.88
220.463	10.25
220.927	9.68
221.392	9.26
221.856	8.93
222.32	8.61
222.785	8.38
223.249	8.13
223.713	7.92
224.177	7.77
224.642	7.58
225.106	7.38
225.57	7.21
226.034	7.1
226.497	6.97
226.961	6.82
227.425	6.7
227.889	6.57
228.353	6.46
228.816	6.34
229.28	6.23
229.744	6.14
230.207	6.05
230.671	5.97
231.134	5.87
231.597	5.8
232.061	5.73
232.524	5.66
232.987	5.59
233.45	5.53
233.914	5.46
234.377	5.38
234.84	5.32
235.303	5.28
235.766	5.22
236.229	5.17
236.691	5.11
237.154	5.05
237.617	4.99
238.08	4.95
238.542	4.89
239.005	4.85
239.468	4.81
239.93	4.78
240.393	4.73
240.855	4.67
241.317	4.62
241.78	4.58
242.242	4.53
242.704	4.5
243.166	4.46
243.629	4.42
244.091	4.38
244.553	4.34
245.015	4.29
245.477	4.25
245.939	4.21
246.4	4.18
246.862	4.15
247.324	4.12
247.786	4.08
248.247	4.04
248.709	3.99
249.17	3.95
249.632	3.93
250.093	3.9
250.555	3.88
251.016	3.85
251.477	3.81
251.939	3.79
252.4	3.76
252.861	3.74
253.322	3.72
253.783	3.7
254.244	3.69
254.705	3.66
255.166	3.63
255.627	3.6
256.088	3.58
256.549	3.56
257.009	3.53
257.47	3.51
257.931	3.47
258.391	3.44
258.852	3.41
259.312	3.38
259.773	3.36
260.233	3.35
260.694	3.32
261.154	3.29
261.614	3.27
262.074	3.25
262.534	3.23
262.994	3.21
263.455	3.19
263.915	3.17
264.374	3.15
264.834	3.13
265.294	3.11
265.754	3.1
266.214	3.08
266.673	3.07
267.133	3.06
267.593	3.04
268.052	3.03
268.512	3.02
268.971	3.02
269.431	3
269.89	2.99
270.349	2.99
270.809	2.98
271.268	2.97
271.727	2.96
272.186	2.96
272.645	2.96
273.104	2.95
273.563	2.94
274.022	2.93
274.481	2.93
274.94	2.93
275.399	2.91
275.857	2.91
276.316	2.9
276.775	2.9
277.233	2.89
277.692	2.89
278.15	2.88
278.609	2.88
279.067	2.87
279.525	2.87
279.984	2.86
280.442	2.86
280.9	2.86
281.358	2.86
281.816	2.85
282.274	2.85
282.732	2.84
283.19	2.83
283.648	2.82
284.106	2.82
284.564	2.81
285.021	2.81
285.479	2.8
285.937	2.79
286.394	2.78
286.852	2.77
287.309	2.76
287.767	2.75
288.224	2.74
288.682	2.73
289.139	2.72
289.596	2.71
290.053	2.69
290.511	2.68
290.968	2.67
291.425	2.66
291.882	2.65
292.339	2.63
292.796	2.63
293.252	2.62
293.709	2.62
294.166	2.61
294.623	2.6
295.079	2.59
295.536	2.59
295.992	2.58
296.449	2.58
296.905	2.57
297.362	2.57
297.818	2.56
298.274	2.56
298.731	2.55
299.187	2.54
299.643	2.53
300.099	2.53
300.555	2.53
301.011	2.52
301.467	2.52
301.923	2.5
302.379	2.5
302.835	2.5
303.291	2.5
303.746	2.5
304.202	2.5
304.658	2.51
305.113	2.5
305.569	2.5
306.024	2.5
306.479	2.49
306.935	2.5
307.39	2.5
307.845	2.49
308.301	2.49
308.756	2.5
309.211	2.49
309.666	2.5
310.121	2.5
310.576	2.5
311.031	2.51
311.486	2.51
311.94	2.51
312.395	2.51
312.85	2.5
313.305	2.5
313.759	2.5
314.214	2.5
314.668	2.49
315.123	2.48
315.577	2.49
316.032	2.48
316.486	2.48
316.94	2.48
317.394	2.48
317.849	2.47
318.303	2.47
318.757	2.45
319.211	2.45
319.665	2.44
320.119	2.43
320.572	2.42
321.026	2.41
321.48	2.4
321.934	2.39
322.387	2.38
322.841	2.38
323.295	2.38
323.748	2.38
324.202	2.37
324.655	2.37
325.108	2.38
325.562	2.38
326.015	2.38
326.468	2.39
326.921	2.39
327.374	2.39
327.827	2.39
328.28	2.39
328.733	2.39
329.186	2.4
329.639	2.4
330.092	2.4
330.545	2.41
330.997	2.41
331.45	2.41
331.903	2.41
332.355	2.42
332.808	2.42
333.26	2.42
333.713	2.42
334.165	2.41
334.617	2.41
335.069	2.4
335.522	2.4
335.974	2.39
336.426	2.39
336.878	2.38
337.33	2.37
337.782	2.37
338.234	2.38
338.686	2.37
339.137	2.38
339.589	2.36
340.041	2.36
340.493	2.36
340.944	2.35
341.396	2.34
341.847	2.34
342.299	2.33
342.75	2.32
343.201	2.3
343.653	2.3
344.104	2.28
344.555	2.27
345.006	2.27
345.457	2.26
345.908	2.26
346.359	2.26
346.81	2.25
347.261	2.25
347.712	2.25
348.163	2.24
348.613	2.25
349.064	2.25
349.515	2.25
349.965	2.25
350.416	2.24
350.866	2.24
351.317	2.23
351.767	2.24
352.217	2.23
352.668	2.23
353.118	2.23
353.568	2.23
354.018	2.23
354.468	2.23
354.918	2.23
355.368	2.25
355.818	2.25
356.268	2.24
356.718	2.25
357.168	2.25
357.617	2.25
358.067	2.24
358.517	2.25
358.966	2.25
359.416	2.25
359.865	2.25
360.315	2.25
360.764	2.24
361.213	2.24
361.663	2.23
362.112	2.23
362.561	2.24
363.01	2.24
363.459	2.23
363.908	2.23
364.357	2.22
364.806	2.21
365.255	2.22
365.703	2.23
366.152	2.23
366.601	2.24
367.05	2.24
367.498	2.23
367.947	2.23
368.395	2.23
368.844	2.23
369.292	2.23
369.74	2.23
370.189	2.23
370.637	2.22
371.085	2.21
371.533	2.21
371.981	2.21
372.429	2.21
372.877	2.21
373.325	2.2
373.773	2.19
374.221	2.19
374.669	2.19
375.116	2.18
375.564	2.17
376.012	2.17
376.459	2.16
376.907	2.16
377.354	2.16
377.801	2.17
378.249	2.17
378.696	2.17
379.143	2.18
379.591	2.18
380.038	2.19
380.485	2.19
380.932	2.19
381.379	2.2
381.826	2.19
382.273	2.19
382.72	2.17
383.166	2.17
383.613	2.17
384.06	2.16
384.506	2.16
384.953	2.16
385.4	2.16
385.846	2.16
386.292	2.16
386.739	2.16
387.185	2.17
387.631	2.17
388.078	2.17
388.524	2.17
388.97	2.17
389.416	2.18
389.862	2.18
390.308	2.19
390.754	2.2
391.2	2.21
391.645	2.22
392.091	2.23
392.537	2.24
392.983	2.24
393.428	2.25
393.874	2.25
394.319	2.26
394.765	2.25
395.21	2.25
395.655	2.26
396.101	2.26
396.546	2.26
396.991	2.27
397.436	2.27
397.881	2.29
398.326	2.31
398.771	2.33
399.216	2.33
399.661	2.35
400.106	2.36
400.551	2.37
400.995	2.37
401.44	2.38
401.885	2.39
402.329	2.4
402.774	2.4
403.218	2.42
403.663	2.43
404.107	2.45
404.551	2.46
404.995	2.46
405.44	2.47
405.884	2.48
406.328	2.5
406.772	2.51
407.216	2.51
407.66	2.52
408.104	2.5
408.547	2.5
408.991	2.51
409.435	2.51
409.879	2.52
410.322	2.53
410.766	2.54
411.209	2.56
411.653	2.57
412.096	2.59
412.54	2.61
412.983	2.63
413.426	2.67
413.869	2.68
414.312	2.71
414.756	2.73
415.199	2.74
415.642	2.73
416.085	2.74
416.527	2.73
416.97	2.72
417.413	2.72
417.856	2.73
418.298	2.72
418.741	2.71
419.184	2.71
419.626	2.7
420.069	2.72
420.511	2.74
420.953	2.74
421.396	2.76
421.838	2.77
422.28	2.79
422.722	2.8
423.164	2.81
423.606	2.82
424.048	2.82
424.49	2.83
424.932	2.84
425.374	2.82
425.816	2.8
426.258	2.8
426.699	2.79
427.141	2.79
427.582	2.78
428.024	2.78
428.465	2.8
428.907	2.8
429.348	2.78
429.789	2.77
430.231	2.8
430.672	2.82
431.113	2.83
431.554	2.85
431.995	2.86
432.436	2.86
432.877	2.88
433.318	2.88
433.759	2.9
434.2	2.94
434.64	2.96
435.081	2.97
435.522	2.99
435.962	3.01
436.403	3.04
436.843	3.04
437.284	3.05
437.724	3.05
438.164	3.05
438.604	3.06
439.045	3.06
439.485	3.05
439.925	3.05
440.365	3.04
440.805	3.03
441.245	3.02
441.685	3.05
442.125	3.08
442.564	3.09
443.004	3.08
443.444	3.08
443.883	3.09
444.323	3.08
444.762	3.09
445.202	3.09
445.641	3.12
446.081	3.13
446.52	3.11
446.959	3.12
447.398	3.14
447.837	3.16
448.276	3.17
448.716	3.17
449.154	3.18
449.593	3.2
450.032	3.2
450.471	3.17
450.91	3.16
451.349	3.16
451.787	3.14
452.226	3.12
452.664	3.11
453.103	3.09
453.541	3.1
453.98	3.11
454.418	3.08
454.856	3.08
455.295	3.07
455.733	3.05
456.171	3.04
456.609	3.04
457.047	3.03
457.485	3.02
457.923	3.02
458.361	3.02
458.798	3.01
459.236	3.01
459.674	3.01
460.111	3.02
460.549	3.04
460.987	3.04
461.424	3.04
461.862	3.05
462.299	3.07
462.736	3.07
463.173	3.07
463.611	3.08
464.048	3.09
464.485	3.1
464.922	3.1
465.359	3.1
465.796	3.13
466.233	3.13
466.67	3.14
467.106	3.14
467.543	3.14
467.98	3.14
468.416	3.12
468.853	3.12
469.29	3.12
469.726	3.11
470.162	3.11
470.599	3.08
471.035	3.07
471.471	3.07
471.907	3.05
472.344	3.05
472.78	3.05
473.216	3.05
473.652	3.06
474.088	3.04
474.523	3.04
474.959	3.03
475.395	3.02
475.831	3.01
476.266	3
476.702	2.99
477.138	2.99
477.573	2.98
478.008	2.98
478.444	2.96
478.879	2.97
479.314	2.96
479.75	2.95
480.185	2.94
480.62	2.93
481.055	2.91
481.49	2.9
481.925	2.9
482.36	2.9
482.795	2.89
483.229	2.88
483.664	2.88
484.099	2.88
484.534	2.88
484.968	2.89
485.403	2.9
485.837	2.91
486.271	2.92
486.706	2.92
487.14	2.92
487.574	2.92
488.009	2.93
488.443	2.94
488.877	2.95
489.311	2.97
489.745	2.98
490.179	2.99
490.613	3.01
491.046	3.03
491.48	3.04
491.914	3.06
492.348	3.09
492.781	3.12
493.215	3.15
493.648	3.17
494.082	3.19
494.515	3.22
494.948	3.24
495.382	3.27
495.815	3.31
496.248	3.35
496.681	3.39
497.114	3.43
497.547	3.47
497.98	3.51
498.413	3.55
498.846	3.61
499.279	3.66
499.711	3.72
500.144	3.78
500.577	3.85
501.009	3.91
501.442	3.98
501.874	4.06
502.306	4.14
502.739	4.25
503.171	4.34
503.603	4.43
504.036	4.54
504.468	4.63
504.9	4.74
505.332	4.85
505.764	4.96
506.196	5.08
506.627	5.21
507.059	5.34
507.491	5.46
507.923	5.6
508.354	5.76
508.786	5.91
509.217	6.08
509.649	6.25
510.08	6.43
510.512	6.61
510.943	6.8
511.374	6.99
511.805	7.19
512.237	7.4
512.668	7.6
513.099	7.81
513.53	8.03
513.961	8.25
514.391	8.49
514.822	8.73
515.253	8.97
515.684	9.22
516.114	9.48
516.545	9.73
516.975	9.98
517.406	10.24
517.836	10.49
518.267	10.75
518.697	11
519.127	11.25
519.558	11.49
519.988	11.75
520.418	11.99
520.848	12.23
521.278	12.48
521.708	12.93
522.138	13.18
522.567	13.41
522.997	13.65
523.427	13.88
523.857	14.11
524.286	14.33
524.716	14.54
525.145	14.76
525.575	14.98
526.004	15.17
526.433	15.14
526.863	15.33
527.292	15.53
527.721	15.71
528.15	15.88
528.579	16.05
529.008	16.21
529.437	16.36
529.866	16.5
530.295	16.64
530.724	16.79
531.152	16.92
531.581	17.06
532.01	17.16
532.438	17.26
532.867	17.37
533.295	17.45
533.723	17.55
534.152	17.64
534.58	17.72
535.008	17.8
535.436	17.86
535.865	17.92
536.293	17.97
536.721	18.04
537.149	18.1
537.576	18.16
538.004	18.23
538.432	18.28
538.86	18.32
539.287	18.35
539.715	18.4
540.143	18.45
540.57	18.49
540.998	18.53
541.425	18.57
541.852	18.59
542.28	18.63
542.707	18.66
543.134	18.7
543.561	18.75
543.988	18.78
544.415	18.8
544.842	18.82
545.269	18.86
545.696	18.9
546.123	18.92
546.549	18.96
546.976	18.98
547.403	18.99
547.829	19.01
548.256	19.03
548.682	19.06
549.108	19.09
549.535	19.1
549.961	19.09
550.387	19.09
550.813	19.1
551.24	19.1
551.666	19.1
552.092	19.09
552.518	19.09
552.943	19.06
553.369	19.03
553.795	19
554.221	18.98
554.646	18.95
555.072	18.91
555.498	18.86
555.923	18.8
556.349	18.74
556.774	18.68
557.199	18.61
557.625	18.56
558.05	18.5
558.475	18.43
558.9	18.34
559.325	18.27
559.75	18.18
560.175	18.09
560.6	18
561.025	17.91
561.449	17.81
561.874	17.69
562.299	17.58
562.723	17.45
563.148	17.33
563.572	17.2
563.997	17.07
564.421	16.94
564.846	16.8
565.27	16.66
565.694	16.52
566.118	16.38
566.542	16.25
566.966	16.11
567.39	15.99
567.814	15.85
568.238	15.72
568.662	15.59
569.086	15.45
569.509	15.33
569.933	15.21
570.357	15.08
570.78	14.95
571.204	14.82
571.627	14.69
572.05	14.56
572.474	14.44
572.897	14.32
573.32	14.2
573.743	14.08
574.166	13.95
574.589	13.83
575.012	13.71
575.435	13.59
575.858	13.48
576.281	13.38
576.704	13.27
577.126	13.17
577.549	13.07
577.972	12.97
578.394	12.87
578.817	12.79
579.239	12.71
579.661	12.63
580.084	12.56
580.506	12.5
580.928	12.41
581.35	12.34
581.772	12.27
582.194	12.19
582.616	12.12
583.038	12.05
583.46	11.97
583.882	11.9
584.303	11.83
584.725	11.77
585.147	11.72
585.568	11.67
585.99	11.62
586.411	11.57
586.833	11.52
587.254	11.47
587.675	11.42
588.096	11.38
588.518	11.32
588.939	11.29
589.36	11.23
589.781	11.17
590.202	11.14
590.623	11.09
591.043	11.04
591.464	11
591.885	10.96
592.305	10.93
592.726	10.91
593.147	10.88
593.567	10.85
593.987	10.83
594.408	10.79
594.828	10.76
595.248	10.75
595.669	10.73
596.089	10.72
596.509	10.7
596.929	10.67
597.349	10.64
597.769	10.61
598.189	10.56
598.608	10.54
599.028	10.53
599.448	10.5
599.867	10.44
600.287	10.4
600.706	10.37
601.126	10.33
601.545	10.29
601.965	10.26
602.384	10.22
602.803	10.17
603.222	10.13
603.641	10.06
604.061	10.02
604.48	9.97
604.898	9.91
605.317	9.85
605.736	9.78
606.155	9.73
606.574	9.66
606.992	9.59
607.411	9.53
607.829	9.43
608.248	9.35
608.666	9.28
609.085	9.22
609.503	9.15
609.921	9.08
610.339	9.01
610.758	8.93
611.176	8.85
611.594	8.79
612.012	8.71
612.43	8.68
612.847	8.61
613.265	8.54
613.683	8.48
614.101	8.42
614.518	8.36
614.936	8.3
615.353	8.25
615.771	8.19
616.188	8.13
616.606	8.09
617.023	8.03
617.44	7.99
617.857	7.94
618.274	7.89
618.691	7.85
619.108	7.8
619.525	7.76
619.942	7.72
620.359	7.7
620.776	7.68
621.192	7.64
621.609	7.63
622.026	7.59
622.442	7.57
622.859	7.55
623.275	7.54
623.691	7.52
624.108	7.5
624.524	7.49
624.94	7.47
625.356	7.46
625.772	7.45
626.188	7.44
626.604	7.44
627.02	7.43
627.436	7.42
627.852	7.41
628.268	7.41
628.683	7.4
629.099	7.39
629.514	7.37
629.93	7.36
630.345	7.35
630.761	7.32
631.176	7.3
631.591	7.27
632.007	7.25
632.422	7.22
632.837	7.17
633.252	7.13
633.667	7.09
634.082	7.05
634.497	7.02
634.911	6.97
635.326	6.92
635.741	6.87
636.155	6.82
636.57	6.76
636.984	6.71
637.399	6.65
637.813	6.59
638.228	6.52
638.642	6.45
639.056	6.36
639.47	6.29
639.884	6.22
640.298	6.12
640.712	6.04
641.126	5.96
641.54	5.88
641.954	5.8
642.368	5.71
642.781	5.64
643.195	5.56
643.609	5.5
644.022	5.42
644.436	5.35
644.849	5.28
645.262	5.21
645.676	5.15
646.089	5.09
646.502	5.04
646.915	4.99
647.328	4.94
647.741	4.89
648.154	4.85
648.567	4.82
648.98	4.78
649.393	4.75
649.805	4.73
650.218	4.69
650.631	4.66
651.043	4.63
651.456	4.6
651.868	4.57
652.28	4.54
652.693	4.51
653.105	4.47
653.517	4.43
653.929	4.39
654.341	4.36
654.753	4.31
655.165	4.27
655.577	4.22
655.989	4.18
656.401	4.13
656.813	4.08
657.224	4.03
657.636	3.97
658.047	3.93
658.459	3.87
658.87	3.81
659.282	3.76
659.693	3.71
660.104	3.65
660.515	3.6
660.926	3.55
661.338	3.5
661.749	3.46
662.159	3.42
662.57	3.39
662.981	3.35
663.392	3.32
663.803	3.28
664.213	3.25
664.624	3.23
665.035	3.2
665.445	3.19
665.855	3.16
666.266	3.14
666.676	3.13
667.086	3.1
667.497	3.09
667.907	3.08
668.317	3.07
668.727	3.06
669.137	3.05
669.547	3.06
669.956	3.04
670.366	3.04
670.776	3.04
671.186	3.04
671.595	3.05
672.005	3.05
672.414	3.06
672.824	3.08
673.233	3.09
673.642	3.1
674.052	3.1
674.461	3.12
674.87	3.14
675.279	3.16
675.688	3.17
676.097	3.19
676.506	3.22
676.915	3.23
677.323	3.24
677.732	3.26
678.141	3.29
678.549	3.31
678.958	3.33
679.366	3.37
679.775	3.39
680.183	3.42
680.592	3.46
681	3.5
681.408	3.55
681.816	3.59
682.224	3.64
682.632	3.7
683.04	3.77
683.448	3.84
683.856	3.91
684.264	4
684.671	4.1
685.079	4.2
685.487	4.33
685.894	4.48
686.302	4.64
686.709	4.82
687.116	5.02
687.524	5.23
687.931	5.47
688.338	5.72
688.745	6
689.152	6.3
689.559	6.62
689.966	6.95
690.373	7.3
690.78	7.68
691.187	8.07
691.593	8.47
692	8.9
692.407	9.32
692.813	9.78
693.22	10.25
693.626	10.72
694.032	11.2
694.439	11.7
694.845	12.21
695.251	12.72
695.657	13.23
696.063	13.75
696.469	14.28
696.875	14.81
697.281	15.33
697.687	15.86
698.093	16.38
698.498	16.9
698.904	17.41
699.31	17.91
699.715	18.43
700.12	18.94
700.526	19.43
700.931	19.94
701.337	20.44
701.742	20.92
702.147	21.4
702.552	21.88
702.957	22.34
703.362	22.81
703.767	23.27
704.172	23.72
704.577	24.16
704.981	24.61
705.386	25.04
705.791	25.46
706.195	25.9
706.6	26.33
707.004	26.74
707.408	27.18
707.813	27.58
708.217	27.97
708.621	28.39
709.025	28.78
709.43	29.15
709.834	29.52
710.237	29.91
710.641	30.27
711.045	30.62
711.449	31
711.853	31.35
712.256	31.69
712.66	32.03
713.064	32.35
713.467	32.68
713.87	33.04
714.274	33.36
714.677	33.7
715.08	34.01
715.484	34.32
715.887	34.63
716.29	34.93
716.693	35.23
717.096	35.52
717.499	35.81
717.901	36.1
718.304	36.37
718.707	36.64
719.109	36.9
719.512	37.15
719.915	37.4
720.317	37.63
720.719	37.85
721.122	38.1
721.524	38.34
721.926	38.56
722.328	38.77
722.731	38.99
723.133	39.21
723.535	39.39
723.937	39.6
724.338	39.79
724.74	39.99
725.142	40.29
725.544	40.45
725.945	40.66
726.347	40.81
726.748	40.99
727.15	41.11
727.551	41.25
727.952	41.4
728.354	41.54
728.755	41.67
729.156	41.78
729.557	41.8
729.958	41.93
730.359	41.99
730.76	42.12
731.161	42.23
731.562	42.39
731.962	42.48
732.363	42.6
732.763	42.7
733.164	42.79
733.564	42.89
733.965	42.98
734.365	43.07
734.766	43.16
735.166	43.24
735.566	43.31
735.966	43.38
736.366	43.47
736.766	43.5
737.166	43.57
737.566	43.65
737.966	43.7
738.365	43.76
738.765	43.82
739.165	43.89
739.564	43.95
739.964	43.98
740.363	43.99
740.763	44.03
741.162	44.09
741.561	44.12
741.96	44.14
742.36	44.2
742.759	44.25
743.158	44.28
743.557	44.28
743.955	44.3
744.354	44.36
744.753	44.42
745.152	44.48
745.55	44.5
745.949	44.54
746.348	44.59
746.746	44.6
747.144	44.61
747.543	44.63
747.941	44.66
748.339	44.66
748.737	44.66
749.136	44.66
749.534	44.67
749.932	44.69
750.33	44.68
750.727	44.7
751.125	44.72
751.523	44.7
751.921	44.72
752.318	44.74
752.716	44.79
753.113	44.82
753.511	44.84
753.908	44.85
754.305	44.88
754.703	44.88
755.1	44.89
755.497	44.9
755.894	44.92
756.291	44.93
756.688	44.92
757.085	44.93
757.482	44.93
757.878	44.93
758.275	44.96
758.672	44.95
759.068	44.99
759.465	44.98
759.861	45
760.258	45
760.654	45
761.05	45.03
761.447	45.04
761.843	45.04
762.239	45.06
762.635	45.04
763.031	45.02
763.427	45.01
763.822	45.03
764.218	45.03
764.614	45.04
765.01	45.03
765.405	45.03
765.801	44.99
766.196	45
766.592	45.01
766.987	45.02
767.382	45.03
767.778	45.01
768.173	45.01
768.568	44.99
768.963	44.97
769.358	45
769.753	44.99
770.148	44.99
770.542	44.98
770.937	44.96
771.332	44.95
771.726	44.97
772.121	44.97
772.515	44.98
772.91	44.97
773.304	45
773.699	44.99
774.093	44.99
774.487	45.02
774.881	45.05
775.275	45.06
775.669	45.04
776.063	45.03
776.457	45.03
776.851	45.02
777.245	45.02
777.638	45.04
778.032	45.04
778.425	45.05
778.819	45.03
779.212	45.01
779.606	45.03
779.999	45.03
780.392	45.04
780.786	45.03
781.179	45.01
781.572	45.01
781.965	45.01
782.358	45.04
782.751	45.06
783.143	45.05
783.536	45.05
783.929	45.02
784.322	45.05
784.714	45.06
785.107	45.09
785.499	45.1
785.891	45.11
786.284	45.09
786.676	45.07
787.068	45.03
787.46	45.06
787.852	45.07
788.245	45.06
788.636	45.07
789.028	45.04
789.42	45.02
789.812	45.04
790.204	45.06
790.595	45.07
790.987	45.07
791.378	45.11
791.77	45.08
792.161	45.06
792.553	45.07
792.944	45.05
793.335	45.07
793.726	45.09
794.117	45.08
794.508	45.04
794.899	45.03
795.29	45.04
795.681	45.01
796.072	45.03
796.463	45.06
796.853	45.04
797.244	45.05
797.634	45.05
798.025	45.05
798.415	45.04
798.806	45.03
799.196	45.04
799.586	45.03
799.976	45.04
800.366	45.02
800.756	44.99
801.146	45.01
801.536	45.03
801.926	45.03
802.316	45.02
802.706	45.04
803.095	45.08
803.485	45.06
803.874	45.06
804.264	45.05
804.653	45.06
805.043	45.07
805.432	45.08
805.821	45.07
806.21	45.08
806.599	45.07
806.988	45.05
807.377	45.03
807.766	45.03
808.155	45.01
808.544	45.02
808.933	45.02
809.321	44.99
809.71	44.99
810.098	45
810.487	44.94
810.875	44.95
811.264	44.97
811.652	44.99
812.04	44.98
812.428	45.01
812.816	45.03
813.204	45.02
813.592	45.02
813.98	45.01
814.368	45.02
814.756	45.05
815.144	45.03
815.531	44.99
815.919	44.97
816.306	44.97
816.694	44.95
817.081	44.91
817.469	44.9
817.856	44.92
818.243	44.92
818.63	44.9
819.017	44.88
819.404	44.89
819.791	44.88
820.178	44.89
820.565	44.91
820.952	44.91
821.339	44.9
821.725	44.91
822.112	44.91
822.498	44.9
822.885	44.92
823.271	44.91
823.657	44.89
824.044	44.9
824.43	44.91
824.816	44.9
825.202	44.9
825.588	44.9
825.974	44.88
826.36	44.87
826.746	44.85
827.132	44.83
827.517	44.86
827.903	44.88
828.289	44.91
828.674	44.88
829.06	44.86
829.445	44.88
829.83	44.9
830.216	44.91
830.601	44.92
830.986	44.95
831.371	44.94
831.756	44.94
832.141	44.93
832.526	44.92
832.911	44.93
833.295	44.92
833.68	44.9
834.065	44.91
834.449	44.92
834.834	44.92
835.218	44.92
835.603	44.92
835.987	44.91
836.371	44.93
836.755	44.91
837.139	44.9
837.524	44.92
837.908	44.95
838.291	44.96
838.675	44.95
839.059	44.95
839.443	44.93
839.827	44.93
840.21	44.93
840.594	44.94
840.977	44.97
841.361	44.97
841.744	44.94
842.127	44.91
842.511	44.89
842.894	44.88
843.277	44.87
843.66	44.88
844.043	44.92
844.426	44.91
844.809	44.89
845.191	44.88
845.574	44.9
845.957	44.91
846.339	44.94
846.722	44.95
847.104	44.98
847.487	44.98
847.869	44.95
848.252	44.93
848.634	44.96
849.016	44.97
849.398	45
849.78	44.99
850.162	44.99
850.544	44.97
850.926	44.97
851.307	44.95
851.689	44.96
852.071	45
852.452	45
852.834	45
853.215	44.99
853.597	44.97
853.978	45
854.359	45.01
854.741	45.03
855.122	45.01
855.503	45.02
855.884	45.03
856.265	45.01
856.646	45.01
857.026	45.02
857.407	45.04
857.788	45.04
858.169	45.02
858.549	45.01
858.93	45.01
859.31	45.03
859.69	45.04
860.071	45.03
860.451	45.03
860.831	45.02
861.211	44.98
861.591	44.95
861.971	44.93
862.351	44.95
862.731	44.97
863.111	44.94
863.491	44.94
863.87	44.93
864.25	44.91
864.629	44.93
865.009	44.94
865.388	44.96
865.768	44.97
866.147	45
866.526	45
866.905	45.01
867.284	45.03
867.663	45.04
868.042	45.04
868.421	45.08
868.8	45.08
869.179	45.07
869.558	45.06
869.936	45.04
870.315	45.03
870.693	45.03
871.072	45.03
871.45	45.02
871.828	45.02
872.207	45.03
872.585	44.99
872.963	44.99
873.341	45
873.719	45.03
874.097	45.04
874.475	45.03
874.853	45.04
875.23	45.05
875.608	45.05
875.986	45.05
876.363	45.07
876.741	45.1
877.118	45.12
877.495	45.1
877.873	45.1
878.25	45.1
878.627	45.11
879.004	45.09
879.381	45.1
879.758	45.1
880.135	45.1
880.512	45.07
880.889	45.07
881.265	45.02
881.642	45.03
882.019	45.04
882.395	45.03
882.772	45
883.148	44.99
883.524	44.97
883.901	44.97
884.277	44.93
884.653	44.91
885.029	44.9
885.405	44.94
885.781	44.94
886.157	44.93
886.532	44.94
886.908	44.94
887.284	44.96
887.659	44.93
888.035	44.91
888.411	44.92
888.786	44.92
889.161	44.94
889.537	44.91
889.912	44.91
890.287	44.91
890.662	44.91
891.037	44.93
891.412	44.91
891.787	44.92
892.162	44.95
892.536	44.96
892.911	44.97
893.286	44.95
893.66	44.96
894.035	44.96
894.409	44.95
894.784	44.95
895.158	44.93
895.532	44.97
895.906	44.98
896.281	44.97
896.655	44.96
897.029	44.99
897.402	44.98
897.776	45
898.15	45.01
898.524	45.02
898.898	45.02
899.271	45.04
899.645	45.03
900.018	45.04
900.392	45.04
900.765	45.04
901.138	45.02
901.511	45.05
901.884	45.07
902.258	45.09
902.631	45.11
903.003	45.13
903.376	45.12
903.749	45.13
904.122	45.13
904.495	45.15
904.867	45.17
905.24	45.19
905.612	45.2
905.985	45.16
906.357	45.14
906.729	45.13
907.102	45.14
907.474	45.17
907.846	45.16
908.218	45.16
908.59	45.16
908.962	45.15
909.334	45.15
909.705	45.12
910.077	45.15
910.449	45.17
910.82	45.16
911.192	45.14
911.563	45.13
911.935	45.11
912.306	45.11
912.677	45.13
913.048	45.14
913.419	45.14
913.79	45.15
914.161	45.15
914.532	45.14
914.903	45.15
915.274	45.16
915.645	45.18
916.015	45.19
916.386	45.2
916.756	45.16
917.127	45.18
917.497	45.19
917.868	45.17
918.238	45.18
918.608	45.21
918.978	45.19
919.348	45.17
919.718	45.16
920.088	45.17
920.458	45.15
920.828	45.16
921.198	45.11
921.567	45.1
921.937	45.12
922.306	45.08
922.676	45.06
923.045	45.06
923.415	45.06
923.784	45.03
924.153	45.04
924.522	45.03
924.891	45.03
925.26	45.06
925.629	45.04
925.998	45.04
926.367	45.05
926.736	45.06
927.104	45.09
927.473	45.09
927.842	45.08
928.21	45.09
928.578	45.11
928.947	45.14
929.315	45.17
929.683	45.16
930.051	45.15
930.42	45.18
930.788	45.16
931.156	45.1
931.523	45.07
931.891	45.12
932.259	45.12
932.627	45.15
932.994	45.13
933.362	45.1
933.729	45.11
934.097	45.13
934.464	45.12
934.831	45.16
935.199	45.24
935.566	45.3
935.933	45.29
936.3	45.29
936.667	45.3
937.034	45.31
937.401	45.37
937.767	45.42
938.134	45.42
938.501	45.41
938.867	45.42
939.234	45.4
939.6	45.39
939.967	45.41
940.333	45.33
940.699	45.32
941.065	45.23
941.431	45.18
941.798	45.12
942.163	45.09
942.529	45.05
942.895	44.98
943.261	44.9
943.627	44.87
943.992	44.78
944.358	44.77
944.723	44.75
945.089	44.68
945.454	44.67
945.82	44.6
946.185	44.63
946.55	44.57
946.915	44.57
947.28	44.56
947.645	44.56
948.01	44.59
948.375	44.65
948.74	44.62
949.104	44.71
949.469	44.66
949.834	44.67
950.198	44.61
950.562	44.63
950.927	44.59
951.291	44.55
951.655	44.5
952.02	44.5
952.384	44.44
952.748	44.39
953.112	44.35
953.476	44.35
953.839	44.31
954.203	44.34
954.567	44.34
954.931	44.28
955.294	44.25
955.658	44.27
956.021	44.24
956.385	44.21
956.748	44.23
957.111	44.19
957.474	44.23
957.837	44.21
958.2	44.15
958.563	44.14
958.926	44.21
959.289	44.29
959.652	44.28
960.015	44.28
960.377	44.3
960.74	44.29
961.102	44.33
961.465	44.34
961.827	44.45
962.189	44.47
962.552	44.46
962.914	44.46
963.276	44.46
963.638	44.46
964	44.48
964.362	44.5
964.724	44.47
965.085	44.45
965.447	44.43
965.809	44.4
966.17	44.36
966.532	44.37
966.893	44.37
967.255	44.33
967.616	44.33
967.977	44.32
968.338	44.26
968.699	44.25
969.061	44.25
969.421	44.25
969.782	44.22
970.143	44.29
970.504	44.29
970.865	44.32
971.225	44.32
971.586	44.29
971.946	44.27
972.307	44.31
972.667	44.35
973.027	44.41
973.388	44.41
973.748	44.41
974.108	44.45
974.468	44.42
974.828	44.42
975.188	44.42
975.548	44.42
975.907	44.43
976.267	44.41
976.627	44.45
976.986	44.44
977.346	44.33
977.705	44.32
978.064	44.26
978.424	44.32
978.783	44.29
979.142	44.33
979.501	44.34
979.86	44.4
980.219	44.42
980.578	44.43
980.937	44.44
981.296	44.46
981.654	44.55
982.013	44.58
982.371	44.6
982.73	44.64
983.088	44.63
983.447	44.64
983.805	44.62
984.163	44.58
984.521	44.55
984.879	44.46
985.237	44.58
985.595	44.61
985.953	44.53
986.311	44.52
986.669	44.52
987.026	44.49
987.384	44.49
987.741	44.45
988.099	44.57
988.456	44.5
988.814	44.54
989.171	44.47
989.528	44.38
989.885	44.48
990.242	44.46
990.599	44.53
990.956	44.56
991.313	44.6
991.67	44.61
992.027	44.69
992.383	44.78
992.74	44.93
993.096	45.05
993.453	45.02
993.809	45
994.165	45.05
994.522	45.09
994.878	45.14
995.234	45.13
995.59	45.21
995.946	45.06
996.302	45.06
996.658	44.99
997.013	44.97
997.369	45.06
997.725	45.09
998.08	45.15
998.436	45.01
998.791	45.06
999.147	45.04
999.502	45.01
999.857	45.09
1000.212	45.12
1000.567	45.14
1000.922	45.04
1001.277	45.01
1001.632	44.92
1001.987	44.88
1002.342	44.9
1002.696	44.8
1003.051	44.87
1003.406	45.01
1003.76	44.96
1004.114	44.96
1004.469	44.94
1004.823	45.16
1005.177	45.17
1005.531	45.29
1005.885	45.29
1006.239	45.32
1006.593	45.47
1006.947	45.51
1007.301	45.33
1007.655	45.27
1008.008	45.31
1008.362	45.41
1008.715	45.23
1009.069	45.31
1009.422	45.35
1009.776	45.27
1010.129	45.25
1010.482	45.07
1010.835	45.04
1011.188	45.22
1011.541	45.41
1011.894	45.49
1012.247	45.42
1012.6	45.42
1012.952	45.31
1013.305	45.32
1013.657	45.42
1014.01	45.57
1014.362	45.61
1014.715	45.74
1015.067	45.65
1015.419	45.66
1015.771	45.66
1016.123	45.77
1016.475	45.85
1016.827	45.82
1017.179	45.82
1017.531	45.84
1017.883	45.73
1018.234	45.91
1018.586	45.86
1018.938	46.05
1019.289	46.04
1019.64	45.88
1019.992	45.76
1020.343	45.82
1020.694	46.01
1021.045	45.94
1021.396	46
1021.747	46.17
1022.098	46.13
1022.449	46.14
1022.8	46.03
1023.151	46.23
1023.501	46.46
1023.852	46.64
1024.202	46.63
1024.553	46.56
1024.903	46.69
1025.253	46.89
1025.604	46.87
1025.954	46.64
1026.304	46.69
1026.654	46.8
1027.004	46.62
1027.354	46.67
1027.703	46.58
1028.053	46.42
1028.403	46.39
1028.753	46.16
1029.102	45.98
1029.452	45.84
1029.801	46.1
1030.15	45.98
1030.499	45.77
897.758	1251.97
901.051	1259.9
904.343	1255.94
907.636	1279.2
910.928	1244.12
914.22	1244.39
917.511	1226.89
920.803	1171.79
924.094	1167.4
927.384	1143.6
930.675	1095.98
933.965	1088.63
937.255	1024.73
940.544	983.84
943.834	935.96
947.123	928.86
950.411	874.73
953.7	858.15
956.988	814.05
960.276	780.38
963.563	768.34
966.851	742.41
970.138	736.92
973.424	714
976.711	718.13
979.997	681.36
983.283	677.74
986.568	663.35
989.853	642.03
993.138	631.13
996.423	607
999.708	587.14
1002.992	581.02
1006.275	555.38
1009.559	550.5
1012.842	531.48
1016.125	518.49
1019.408	508.62
1022.69	500.66
1025.972	492.54
1029.254	479.01
1032.536	471.69
1035.817	463.01
1039.098	456.71
1042.379	447.84
1045.659	442.12
1048.939	430.25
1052.219	422.07
1055.498	415.97
1058.778	406.7
1062.057	396.32
1065.335	393.02
1068.614	389.11
1071.892	385.03
1075.17	372.12
1078.447	364.69
1081.724	362.1
1085.001	360.78
1088.278	352.9
1091.554	346.18
1094.83	346
1098.106	344.15
1101.382	341.27
1104.657	337.93
1107.932	332.86
1111.206	335.8
1114.481	327.07
1117.755	324.05
1121.029	320.86
1124.302	321.37
1127.575	314.58
1130.848	311.6
1134.121	306.86
1137.393	304.99
1140.665	298.74
1143.937	296.33
1147.208	294.49
1150.48	293.97
1153.75	290.73
1157.021	285.89
1160.291	285.71
1163.561	283.3
1166.831	283.77
1170.101	282.51
1173.37	281.18
1176.639	282.39
1179.907	280.2
1183.176	276.69
1186.444	276.55
1189.711	275.96
1192.979	275.77
1196.246	273.52
1199.513	274.73
1202.78	272.15
1206.046	272.39
1209.312	270.77
1212.578	270.59
1215.843	272.49
1219.108	271.24
1222.373	276.25
1225.638	278.14
1228.902	281.77
1232.166	282.37
1235.43	283.93
1238.693	287.93
1241.956	289.33
1245.219	293.85
1248.482	293.27
1251.744	293.12
1255.006	293.59
1258.268	286.91
1261.529	284.31
1264.79	283.02
1268.051	280.98
1271.312	277.56
1274.572	274.93
1277.832	271.75
1281.092	267
1284.351	265.51
1287.61	265.55
1290.869	261.68
1294.128	260.28
1297.386	259.64
1300.644	256.25
1303.902	257.03
1307.159	257.44
1310.416	256.86
1313.673	256.82
1316.93	259.48
1320.186	259.27
1323.442	260.1
1326.697	264.02
1329.953	265.05
1333.208	266.93
1336.463	269.51
1339.717	270.42
1342.972	272.38
1346.226	274.77
1349.479	275.79
1352.733	276.62
1355.986	278.9
1359.238	277.8
1362.491	280.21
1365.743	282.35
1368.995	282.31
1372.247	281.5
1375.498	281.15
1378.749	283.53
1382	280.7
1385.251	281.26
1388.501	279.54
1391.751	279.61
1395	278.91
1398.25	276.39
1401.499	274.17
1404.748	273.14
1407.996	272.12
1411.244	270.79
1414.492	268.84
1417.74	265.4
1420.987	261.7
1424.234	261.08
1427.481	258.8
1430.728	257.93
1433.974	255.41
1437.22	253.65
1440.465	252.75
1443.711	250.12
1446.956	247.79
1450.201	245.01
1453.445	243.12
1456.689	241.95
1459.933	238.59
1463.177	235.5
1466.42	232.03
1469.663	228.74
1472.906	227.86
1476.148	222.29
1479.391	219.81
1482.633	218.44
1485.874	214.54
1489.115	213.01
1492.356	210.68
1495.597	209.9
1498.838	207.46
1502.078	206.58
1505.318	206.04
1508.557	205.3
1511.797	205.32
1515.036	203.92
1518.274	203.45
1521.513	202.45
1524.751	201.83
1527.989	201.39
1531.227	200.37
1534.464	200.21
1537.701	198.72
1540.938	198.51
1544.174	196.79
1547.41	196.2
1550.646	194.94
1553.882	195.04
1557.117	192.55
1560.352	191.89
1563.587	191.04
1566.821	189.8
1570.055	188.25
1573.289	187.12
1576.523	186.9
1579.756	184.95
1582.989	184
1586.222	183.71
1589.454	182.36
1592.686	183.38
1595.918	182.58
1599.15	182.17
1602.381	182.93
1605.612	182.44
1608.843	183.01
1612.073	182.55
1615.303	184.02
1618.533	184.19
1621.762	184.11
1624.992	184.72
1628.221	184.27
1631.449	184.3
1634.678	183.82
1637.906	184.66
1641.134	184.86
1644.361	184.53
1647.588	185.21
1650.815	184.19
1654.042	183.54
1657.269	184.91
1660.495	184.82
1663.72	184.62
1666.946	185.3
1670.171	185.98
1673.396	185.51
1676.621	185.88
1679.845	185.75
1683.069	185.51
1686.293	186.81
1689.517	188.21
1692.74	187.88
1695.963	188.24
1699.185	190.05
1702.408	189.69
1705.63	190.55
1708.852	190.89
1712.073	190.78
1715.294	191.65
1718.515	193.21
1721.736	192.49
1724.956	192.77
1728.176	192.94
1731.396	194.43
1734.616	193.02
1737.835	193.95
1741.054	192.67
1744.272	193.07
1747.491	195.02
1750.709	195.46
1753.927	194.79
1757.144	194.67
1760.361	195.09
1763.578	195.5
1766.795	195
1770.011	196.85
1773.227	196.81
1776.443	199.03
1779.658	199.83
1782.874	199.32
1786.089	199.62
1789.303	200.16
1792.518	202.92
1795.732	202.55
1798.945	204.18
1802.159	204.64
1805.372	205.27
1808.585	208.68
1811.797	209.27
1815.01	210.01
1818.222	211.77
1821.434	213.77
1824.645	214.2
1827.856	217.07
1831.067	219.25
1834.278	219.4
1837.488	220.5
1840.698	222.08
1843.908	219.9
1847.117	220.86
1850.326	221.48
1853.535	221.1
1856.744	224.3
1859.952	223.96
1863.16	222.41
1866.368	221.3
1869.575	222.44
1872.782	219.44
1875.989	218.22
1879.196	217.69
1882.402	216.19
1885.608	216.98
1888.814	216.8
1892.019	215.38
1895.224	215.17
1898.429	214.28
1901.634	215.07
1904.838	215.79
1908.042	217.82
1911.246	217.91
1914.449	219.03
1917.652	219.69
1920.855	218.82
1924.058	219.21
1927.26	218.16
1930.462	219.02
1933.664	221.67
1936.865	219.72
1940.066	219.37
1943.267	218.41
1946.467	218.47
1949.668	219.58
1952.868	221.87
1956.067	222.33
1959.267	222.46
1962.466	223.27
1965.665	222.01
1968.863	222.06
1972.061	225.4
1975.259	227.08
1978.457	228.67
1981.654	232.05
1984.852	232.53
1988.048	231.81
1991.245	234.05
1994.441	236.39
1997.637	237.61
2000.833	242.66
2004.028	245.96
2007.223	247
2010.418	249.56
2013.613	253.98
2016.807	255.62
2020.001	258.47
2023.194	262.84
2026.388	269.13
2029.581	274.82
2032.774	278
2035.966	283.14
2039.158	283.33
2042.35	289.28
2045.542	290.4
2048.733	295.43
2051.924	299.63
2055.115	304.24
2058.306	304.38
2061.496	306.36
2064.686	306.87
2067.875	312.8
2071.065	314.23
2074.254	312.75
2077.442	316.13
2080.631	318.53
2083.819	321.12
2087.007	321.54
2090.195	324.75
2093.382	328.33
2096.569	326.32
2099.756	331.1
2102.942	331.47
2106.128	334.72
2109.314	342.5
2112.5	341.44
2115.685	348.36
2118.87	348.74
2122.055	355.36
2125.239	358.75
2128.424	363.05
2131.608	367.11
2134.791	372.63
2137.974	373.9
2141.157	373.89
2144.34	375.53
2147.523	381.1
2150.705	378.81
2153.887	382.67
2157.068	383.29
2160.25	379.81
2163.431	380.59
2166.611	384.22
2169.792	391.4
2172.972	395.66
2176.152	398.41
2179.331	402.67
2182.511	409.47
2185.69	414.17
2188.868	422.76
2192.047	423.83
2195.225	436.28
2198.403	448.11
2201.58	456.07
2204.758	462.36
2207.935	472.1
2211.111	481.53
2214.288	487.44
2217.464	488.82
2220.64	496.74
2223.815	502.71
2226.991	522.77
2230.166	522.92
2233.34	531.21
2236.515	539.45
2239.689	541.99
2242.863	544.68
2246.036	560.6
2249.209	558.76
2252.382	567.3
2255.555	585.12
2258.727	586.88
2261.9	590.7
2265.071	597.56
2268.243	605.94
2271.414	613.85
2274.585	626.46
2277.756	633.65
2280.926	635.86
2284.096	648.79
2287.266	662.58
2290.436	666.35
2293.605	681.5
2296.774	700.86
2299.942	722.86
2303.111	728.74
2306.279	742.99
2309.447	752.7
2312.614	772.13
2315.781	795.45
2318.948	830.99
2322.115	819.34
2325.281	864.79
2328.447	849.13
2331.613	884.18
2334.779	873.33
2337.944	910.53
2341.109	920.19
2344.274	947.21
2347.438	980.3
2350.602	978.3
2353.766	1010.63
2356.929	1026.89
2360.092	1016.26
2363.255	1089.54
2366.418	1086.35
2369.58	1109.13
2372.742	1175.59
2375.904	1206.65
2379.066	1199.91
2382.227	1175.53
2385.388	1280.37
2388.548	1276.43
2391.709	1290.42
2394.869	1438.34
2398.029	1376.13
2401.188	1414.91
2404.347	1406.37
2407.506	1383.59
2410.665	1425.93
2413.823	1509.69
2416.981	1600.87
2420.139	1544.93
2423.296	1532.23
2426.453	1598.93
2429.61	1539.89
2432.767	1608.69
2435.923	1592.4
2439.079	1742.11
2442.235	1764.17
2445.391	1745.22
2448.546	1734.05
2451.701	1681.87
2454.855	1679.76
2458.009	1774.23
2461.163	1854.35
2464.317	1918.36
2467.471	1968.9
2470.624	1972.59
2473.777	1913.69
2476.929	1870.37
2480.082	1816.92
2483.234	1797.55
2486.385	1891.97
2489.537	1901.26
2492.688	1973.87
2495.839	1915.3
2498.989	1876.71
2502.14	1887.57
2505.29	1900.91
2508.439	1942.4
2511.589	1932.08
2514.738	2101.02
2517.887	2050.47
2521.035	2166.9
2524.183	2181.07
2527.331	2200.52
2530.479	2188.04
2533.627	2201.9
