Data from C_1_DIV_PA_2n_Splice17_12-37-18-666.txt Node
Date: Sat Mar 07 12:37:18 EST 2020
User: sa697716
Spectrometer: NQ5500242
Trigger mode: 0
Integration Time (sec): 1.450000E-1
Scans to average: 20
Nonlinearity correction enabled: false
Boxcar width: 5
Storing dark spectrum: false
XAxis mode: Wavelengths
Number of Pixels in Spectrum: 512
>>>>>Begin Spectral Data<<<<<
187.83	72.11
188.298	95.55
188.766	82.25
189.233	66.74
189.701	67.81
190.169	76.56
190.636	86.64
191.104	145.49
191.571	358.94
192.039	178.44
192.506	432.14
192.974	-72.83
193.441	-13.27
193.908	-26.76
194.375	-19.88
194.842	15.22
195.31	31.23
195.777	-66.26
196.244	19.66
196.711	28.98
197.177	30.17
197.644	29.8
198.111	29.19
198.578	29.79
199.045	29.39
199.511	29.08
199.978	28.8
200.445	29.13
200.911	29.42
201.378	29.62
201.844	29.64
202.31	29.5
202.777	29.5
203.243	29.77
203.709	29.55
204.176	29.65
204.642	29.85
205.108	29.89
205.574	29.63
206.04	29.33
206.506	29.15
206.972	29.17
207.438	28.83
207.903	28.37
208.369	27.72
208.835	27.29
209.301	26.73
209.766	26.09
210.232	25.57
210.697	24.82
211.163	24.27
211.628	23.67
212.094	23.04
212.559	22.77
213.024	22.49
213.49	22.03
213.955	21.63
214.42	21.41
214.885	21.02
215.35	20.47
215.815	19.82
216.28	18.91
216.745	17.93
217.21	16.91
217.675	16.05
218.14	15.33
218.604	14.78
219.069	14.22
219.534	13.81
219.998	13.44
220.463	13.09
220.927	12.76
221.392	12.53
221.856	12.36
222.32	12.21
222.785	12.06
223.249	11.93
223.713	11.8
224.177	11.68
224.642	11.54
225.106	11.39
225.57	11.29
226.034	11.23
226.497	11.16
226.961	11.07
227.425	10.97
227.889	10.91
228.353	10.81
228.816	10.71
229.28	10.64
229.744	10.56
230.207	10.49
230.671	10.41
231.134	10.35
231.597	10.28
232.061	10.21
232.524	10.15
232.987	10.07
233.45	10.03
233.914	9.98
234.377	9.92
234.84	9.87
235.303	9.83
235.766	9.77
236.229	9.72
236.691	9.65
237.154	9.61
237.617	9.56
238.08	9.49
238.542	9.43
239.005	9.38
239.468	9.33
239.93	9.27
240.393	9.22
240.855	9.15
241.317	9.09
241.78	9.04
242.242	8.98
242.704	8.93
243.166	8.89
243.629	8.85
244.091	8.79
244.553	8.74
245.015	8.68
245.477	8.63
245.939	8.6
246.4	8.55
246.862	8.5
247.324	8.46
247.786	8.42
248.247	8.37
248.709	8.32
249.17	8.28
249.632	8.25
250.093	8.22
250.555	8.18
251.016	8.15
251.477	8.12
251.939	8.1
252.4	8.08
252.861	8.05
253.322	8.02
253.783	8.01
254.244	7.98
254.705	7.95
255.166	7.92
255.627	7.9
256.088	7.88
256.549	7.85
257.009	7.82
257.47	7.79
257.931	7.76
258.391	7.72
258.852	7.69
259.312	7.68
259.773	7.65
260.233	7.63
260.694	7.61
261.154	7.59
261.614	7.56
262.074	7.55
262.534	7.53
262.994	7.52
263.455	7.52
263.915	7.5
264.374	7.48
264.834	7.48
265.294	7.47
265.754	7.46
266.214	7.45
266.673	7.45
267.133	7.44
267.593	7.45
268.052	7.44
268.512	7.44
268.971	7.44
269.431	7.43
269.89	7.43
270.349	7.42
270.809	7.41
271.268	7.4
271.727	7.39
272.186	7.38
272.645	7.36
273.104	7.35
273.563	7.34
274.022	7.33
274.481	7.32
274.94	7.32
275.399	7.3
275.857	7.3
276.316	7.29
276.775	7.29
277.233	7.28
277.692	7.27
278.15	7.27
278.609	7.26
279.067	7.25
279.525	7.24
279.984	7.23
280.442	7.22
280.9	7.21
281.358	7.21
281.816	7.2
282.274	7.19
282.732	7.18
283.19	7.16
283.648	7.15
284.106	7.13
284.564	7.12
285.021	7.1
285.479	7.08
285.937	7.07
286.394	7.06
286.852	7.04
287.309	7.03
287.767	7.01
288.224	7.01
288.682	6.99
289.139	6.99
289.596	6.98
290.053	6.98
290.511	6.97
290.968	6.96
291.425	6.94
291.882	6.94
292.339	6.93
292.796	6.93
293.252	6.92
293.709	6.92
294.166	6.92
294.623	6.91
295.079	6.9
295.536	6.9
295.992	6.89
296.449	6.89
296.905	6.88
297.362	6.89
297.818	6.88
298.274	6.88
298.731	6.87
299.187	6.85
299.643	6.84
300.099	6.84
300.555	6.83
301.011	6.82
301.467	6.82
301.923	6.81
302.379	6.8
302.835	6.79
303.291	6.78
303.746	6.78
304.202	6.77
304.658	6.77
305.113	6.76
305.569	6.76
306.024	6.75
306.479	6.74
306.935	6.73
307.39	6.72
307.845	6.71
308.301	6.7
308.756	6.7
309.211	6.69
309.666	6.68
310.121	6.68
310.576	6.67
311.031	6.67
311.486	6.66
311.94	6.66
312.395	6.65
312.85	6.65
313.305	6.65
313.759	6.65
314.214	6.64
314.668	6.63
315.123	6.63
315.577	6.63
316.032	6.61
316.486	6.61
316.94	6.61
317.394	6.6
317.849	6.58
318.303	6.57
318.757	6.56
319.211	6.55
319.665	6.54
320.119	6.53
320.572	6.52
321.026	6.51
321.48	6.5
321.934	6.48
322.387	6.48
322.841	6.48
323.295	6.47
323.748	6.46
324.202	6.45
324.655	6.45
325.108	6.44
325.562	6.44
326.015	6.43
326.468	6.43
326.921	6.43
327.374	6.43
327.827	6.42
328.28	6.41
328.733	6.41
329.186	6.41
329.639	6.4
330.092	6.4
330.545	6.39
330.997	6.39
331.45	6.38
331.903	6.38
332.355	6.37
332.808	6.36
333.26	6.35
333.713	6.34
334.165	6.33
334.617	6.32
335.069	6.32
335.522	6.32
335.974	6.32
336.426	6.31
336.878	6.3
337.33	6.3
337.782	6.3
338.234	6.3
338.686	6.31
339.137	6.31
339.589	6.31
340.041	6.29
340.493	6.28
340.944	6.27
341.396	6.27
341.847	6.26
342.299	6.24
342.75	6.23
343.201	6.22
343.653	6.21
344.104	6.19
344.555	6.18
345.006	6.17
345.457	6.17
345.908	6.16
346.359	6.15
346.81	6.14
347.261	6.14
347.712	6.14
348.163	6.14
348.613	6.13
349.064	6.14
349.515	6.14
349.965	6.13
350.416	6.11
350.866	6.1
351.317	6.1
351.767	6.11
352.217	6.1
352.668	6.1
353.118	6.1
353.568	6.1
354.018	6.1
354.468	6.11
354.918	6.11
355.368	6.12
355.818	6.13
356.268	6.13
356.718	6.12
357.168	6.12
357.617	6.11
358.067	6.11
358.517	6.12
358.966	6.12
359.416	6.11
359.865	6.12
360.315	6.13
360.764	6.14
361.213	6.14
361.663	6.14
362.112	6.16
362.561	6.17
363.01	6.17
363.459	6.17
363.908	6.17
364.357	6.18
364.806	6.18
365.255	6.18
365.703	6.19
366.152	6.19
366.601	6.21
367.05	6.21
367.498	6.21
367.947	6.23
368.395	6.25
368.844	6.26
369.292	6.27
369.74	6.29
370.189	6.3
370.637	6.31
371.085	6.32
371.533	6.33
371.981	6.35
372.429	6.36
372.877	6.37
373.325	6.37
373.773	6.38
374.221	6.39
374.669	6.4
375.116	6.41
375.564	6.42
376.012	6.42
376.459	6.45
376.907	6.47
377.354	6.49
377.801	6.51
378.249	6.53
378.696	6.55
379.143	6.56
379.591	6.58
380.038	6.6
380.485	6.62
380.932	6.64
381.379	6.65
381.826	6.66
382.273	6.67
382.72	6.68
383.166	6.7
383.613	6.71
384.06	6.73
384.506	6.74
384.953	6.76
385.4	6.79
385.846	6.82
386.292	6.84
386.739	6.87
387.185	6.9
387.631	6.92
388.078	6.94
388.524	6.97
388.97	7
389.416	7.03
389.862	7.05
390.308	7.08
390.754	7.1
391.2	7.13
391.645	7.14
392.091	7.16
392.537	7.19
392.983	7.21
393.428	7.24
393.874	7.26
394.319	7.27
394.765	7.29
395.21	7.29
395.655	7.31
396.101	7.34
396.546	7.36
396.991	7.38
397.436	7.4
397.881	7.44
398.326	7.47
398.771	7.49
399.216	7.53
399.661	7.56
400.106	7.59
400.551	7.61
400.995	7.62
401.44	7.63
401.885	7.66
402.329	7.67
402.774	7.69
403.218	7.71
403.663	7.74
404.107	7.76
404.551	7.77
404.995	7.79
405.44	7.81
405.884	7.83
406.328	7.86
406.772	7.87
407.216	7.91
407.66	7.94
408.104	7.94
408.547	7.96
408.991	7.97
409.435	7.99
409.879	8.01
410.322	8.04
410.766	8.06
411.209	8.08
411.653	8.1
412.096	8.1
412.54	8.1
412.983	8.11
413.426	8.12
413.869	8.14
414.312	8.17
414.756	8.18
415.199	8.18
415.642	8.18
416.085	8.19
416.527	8.19
416.97	8.18
417.413	8.19
417.856	8.21
418.298	8.21
418.741	8.21
419.184	8.2
419.626	8.22
420.069	8.23
420.511	8.24
420.953	8.25
421.396	8.27
421.838	8.28
422.28	8.28
422.722	8.3
423.164	8.3
423.606	8.32
424.048	8.32
424.49	8.32
424.932	8.32
425.374	8.31
425.816	8.28
426.258	8.27
426.699	8.27
427.141	8.27
427.582	8.26
428.024	8.26
428.465	8.25
428.907	8.24
429.348	8.22
429.789	8.22
430.231	8.24
430.672	8.26
431.113	8.27
431.554	8.29
431.995	8.3
432.436	8.3
432.877	8.31
433.318	8.33
433.759	8.35
434.2	8.37
434.64	8.36
435.081	8.37
435.522	8.38
435.962	8.39
436.403	8.38
436.843	8.38
437.284	8.37
437.724	8.36
438.164	8.35
438.604	8.35
439.045	8.35
439.485	8.35
439.925	8.34
440.365	8.34
440.805	8.34
441.245	8.35
441.685	8.37
442.125	8.39
442.564	8.39
443.004	8.38
443.444	8.36
443.883	8.37
444.323	8.36
444.762	8.35
445.202	8.34
445.641	8.33
446.081	8.32
446.52	8.3
446.959	8.31
447.398	8.32
447.837	8.31
448.276	8.29
448.716	8.27
449.154	8.28
449.593	8.28
450.032	8.28
450.471	8.28
450.91	8.26
451.349	8.26
451.787	8.24
452.226	8.23
452.664	8.23
453.103	8.23
453.541	8.22
453.98	8.21
454.418	8.19
454.856	8.19
455.295	8.17
455.733	8.14
456.171	8.14
456.609	8.13
457.047	8.11
457.485	8.1
457.923	8.1
458.361	8.09
458.798	8.09
459.236	8.08
459.674	8.07
460.111	8.07
460.549	8.09
460.987	8.08
461.424	8.09
461.862	8.1
462.299	8.11
462.736	8.1
463.173	8.11
463.611	8.12
464.048	8.11
464.485	8.12
464.922	8.12
465.359	8.12
465.796	8.12
466.233	8.12
466.67	8.12
467.106	8.12
467.543	8.12
467.98	8.11
468.416	8.1
468.853	8.1
469.29	8.1
469.726	8.11
470.162	8.11
470.599	8.09
471.035	8.07
471.471	8.06
471.907	8.05
472.344	8.05
472.78	8.04
473.216	8.04
473.652	8.03
474.088	8
474.523	7.98
474.959	7.97
475.395	7.96
475.831	7.95
476.266	7.94
476.702	7.93
477.138	7.91
477.573	7.9
478.008	7.89
478.444	7.88
478.879	7.88
479.314	7.86
479.75	7.85
480.185	7.83
480.62	7.82
481.055	7.81
481.49	7.79
481.925	7.8
482.36	7.8
482.795	7.78
483.229	7.77
483.664	7.77
484.099	7.76
484.534	7.75
484.968	7.76
485.403	7.75
485.837	7.75
486.271	7.75
486.706	7.73
487.14	7.73
487.574	7.73
488.009	7.73
488.443	7.72
488.877	7.73
489.311	7.73
489.745	7.72
490.179	7.72
490.613	7.72
491.046	7.71
491.48	7.73
491.914	7.72
492.348	7.73
492.781	7.73
493.215	7.74
493.648	7.75
494.082	7.76
494.515	7.76
494.948	7.76
495.382	7.76
495.815	7.77
496.248	7.77
496.681	7.77
497.114	7.78
497.547	7.78
497.98	7.79
498.413	7.79
498.846	7.8
499.279	7.81
499.711	7.81
500.144	7.82
500.577	7.82
501.009	7.83
501.442	7.84
501.874	7.84
502.306	7.84
502.739	7.85
503.171	7.86
503.603	7.85
504.036	7.87
504.468	7.89
504.9	7.9
505.332	7.92
505.764	7.93
506.196	7.95
506.627	7.97
507.059	7.99
507.491	8.01
507.923	8.02
508.354	8.05
508.786	8.08
509.217	8.1
509.649	8.12
510.08	8.15
510.512	8.18
510.943	8.21
511.374	8.23
511.805	8.25
512.237	8.28
512.668	8.3
513.099	8.34
513.53	8.37
513.961	8.41
514.391	8.46
514.822	8.49
515.253	8.53
515.684	8.57
516.114	8.62
516.545	8.67
516.975	8.71
517.406	8.76
517.836	8.82
518.267	8.89
518.697	8.93
519.127	8.97
519.558	9.04
519.988	9.1
520.418	9.15
520.848	9.2
521.278	9.26
521.708	9.43
522.138	9.5
522.567	9.55
522.997	9.59
523.427	9.66
523.857	9.73
524.286	9.77
524.716	9.82
525.145	9.88
525.575	9.94
526.004	10
526.433	9.95
526.863	10
527.292	10.06
527.721	10.11
528.15	10.15
528.579	10.19
529.008	10.24
529.437	10.28
529.866	10.33
530.295	10.38
530.724	10.4
531.152	10.44
531.581	10.47
532.01	10.49
532.438	10.53
532.867	10.57
533.295	10.6
533.723	10.62
534.152	10.65
534.58	10.66
535.008	10.66
535.436	10.69
535.865	10.69
536.293	10.71
536.721	10.73
537.149	10.74
537.576	10.75
538.004	10.75
538.432	10.77
538.86	10.77
539.287	10.78
539.715	10.82
540.143	10.84
540.57	10.85
540.998	10.86
541.425	10.87
541.852	10.87
542.28	10.88
542.707	10.9
543.134	10.89
543.561	10.9
543.988	10.91
544.415	10.9
544.842	10.89
545.269	10.91
545.696	10.92
546.123	10.92
546.549	10.93
546.976	10.94
547.403	10.95
547.829	10.95
548.256	10.97
548.682	10.96
549.108	10.97
549.535	10.98
549.961	10.97
550.387	10.97
550.813	10.97
551.24	10.96
551.666	10.96
552.092	10.95
552.518	10.96
552.943	10.93
553.369	10.94
553.795	10.92
554.221	10.91
554.646	10.89
555.072	10.87
555.498	10.84
555.923	10.81
556.349	10.78
556.774	10.74
557.199	10.71
557.625	10.68
558.05	10.65
558.475	10.61
558.9	10.57
559.325	10.55
559.75	10.53
560.175	10.49
560.6	10.45
561.025	10.42
561.449	10.38
561.874	10.32
562.299	10.28
562.723	10.23
563.148	10.19
563.572	10.14
563.997	10.08
564.421	10.01
564.846	9.96
565.27	9.91
565.694	9.86
566.118	9.8
566.542	9.76
566.966	9.7
567.39	9.64
567.814	9.59
568.238	9.54
568.662	9.49
569.086	9.45
569.509	9.42
569.933	9.38
570.357	9.34
570.78	9.3
571.204	9.26
571.627	9.23
572.05	9.2
572.474	9.18
572.897	9.15
573.32	9.12
573.743	9.08
574.166	9.04
574.589	9.01
575.012	8.97
575.435	8.93
575.858	8.91
576.281	8.88
576.704	8.85
577.126	8.82
577.549	8.79
577.972	8.76
578.394	8.75
578.817	8.73
579.239	8.71
579.661	8.7
580.084	8.68
580.506	8.66
580.928	8.65
581.35	8.63
581.772	8.61
582.194	8.59
582.616	8.57
583.038	8.56
583.46	8.53
583.882	8.52
584.303	8.49
584.725	8.47
585.147	8.46
585.568	8.44
585.99	8.43
586.411	8.41
586.833	8.4
587.254	8.38
587.675	8.36
588.096	8.35
588.518	8.33
588.939	8.33
589.36	8.31
589.781	8.3
590.202	8.3
590.623	8.28
591.043	8.26
591.464	8.25
591.885	8.23
592.305	8.22
592.726	8.21
593.147	8.2
593.567	8.18
593.987	8.18
594.408	8.17
594.828	8.15
595.248	8.15
595.669	8.15
596.089	8.14
596.509	8.14
596.929	8.14
597.349	8.13
597.769	8.12
598.189	8.11
598.608	8.11
599.028	8.11
599.448	8.1
599.867	8.1
600.287	8.08
600.706	8.07
601.126	8.06
601.545	8.05
601.965	8.05
602.384	8.04
602.803	8.03
603.222	8.02
603.641	8.01
604.061	8.01
604.48	7.99
604.898	7.97
605.317	7.96
605.736	7.95
606.155	7.93
606.574	7.92
606.992	7.91
607.411	7.88
607.829	7.84
608.248	7.82
608.666	7.8
609.085	7.79
609.503	7.78
609.921	7.77
610.339	7.76
610.758	7.75
611.176	7.74
611.594	7.73
612.012	7.73
612.43	7.74
612.847	7.73
613.265	7.71
613.683	7.7
614.101	7.69
614.518	7.68
614.936	7.66
615.353	7.65
615.771	7.64
616.188	7.63
616.606	7.63
617.023	7.62
617.44	7.62
617.857	7.62
618.274	7.61
618.691	7.6
619.108	7.59
619.525	7.59
619.942	7.58
620.359	7.57
620.776	7.55
621.192	7.55
621.609	7.54
622.026	7.52
622.442	7.52
622.859	7.51
623.275	7.5
623.691	7.5
624.108	7.51
624.524	7.51
624.94	7.51
625.356	7.51
625.772	7.5
626.188	7.51
626.604	7.5
627.02	7.49
627.436	7.49
627.852	7.49
628.268	7.49
628.683	7.48
629.099	7.48
629.514	7.47
629.93	7.47
630.345	7.46
630.761	7.45
631.176	7.44
631.591	7.45
632.007	7.44
632.422	7.44
632.837	7.44
633.252	7.42
633.667	7.41
634.082	7.39
634.497	7.38
634.911	7.37
635.326	7.36
635.741	7.37
636.155	7.35
636.57	7.34
636.984	7.33
637.399	7.31
637.813	7.3
638.228	7.29
638.642	7.28
639.056	7.26
639.47	7.26
639.884	7.26
640.298	7.23
640.712	7.23
641.126	7.21
641.54	7.19
641.954	7.18
642.368	7.17
642.781	7.16
643.195	7.15
643.609	7.14
644.022	7.13
644.436	7.13
644.849	7.12
645.262	7.11
645.676	7.1
646.089	7.1
646.502	7.1
646.915	7.09
647.328	7.09
647.741	7.09
648.154	7.09
648.567	7.09
648.98	7.07
649.393	7.07
649.805	7.06
650.218	7.06
650.631	7.05
651.043	7.05
651.456	7.05
651.868	7.05
652.28	7.03
652.693	7.03
653.105	7.04
653.517	7.04
653.929	7.06
654.341	7.06
654.753	7.06
655.165	7.06
655.577	7.06
655.989	7.05
656.401	7.05
656.813	7.06
657.224	7.06
657.636	7.05
658.047	7.05
658.459	7.04
658.87	7.03
659.282	7.02
659.693	7.02
660.104	7.01
660.515	7.01
660.926	7.01
661.338	7
661.749	7
662.159	6.98
662.57	6.98
662.981	6.98
663.392	6.98
663.803	6.99
664.213	6.98
664.624	6.98
665.035	6.99
665.445	6.99
665.855	6.98
666.266	6.99
666.676	7.01
667.086	7
667.497	7
667.907	7.01
668.317	7.02
668.727	7.02
669.137	7.02
669.547	7.03
669.956	7.03
670.366	7.04
670.776	7.04
671.186	7.04
671.595	7.06
672.005	7.07
672.414	7.09
672.824	7.08
673.233	7.09
673.642	7.11
674.052	7.12
674.461	7.13
674.87	7.14
675.279	7.16
675.688	7.17
676.097	7.19
676.506	7.21
676.915	7.21
677.323	7.24
677.732	7.25
678.141	7.27
678.549	7.29
678.958	7.3
679.366	7.33
679.775	7.34
680.183	7.35
680.592	7.37
681	7.39
681.408	7.41
681.816	7.42
682.224	7.44
682.632	7.46
683.04	7.46
683.448	7.49
683.856	7.49
684.264	7.5
684.671	7.51
685.079	7.51
685.487	7.52
685.894	7.53
686.302	7.55
686.709	7.56
687.116	7.57
687.524	7.59
687.931	7.61
688.338	7.64
688.745	7.68
689.152	7.71
689.559	7.76
689.966	7.8
690.373	7.85
690.78	7.9
691.187	7.96
691.593	8.03
692	8.12
692.407	8.2
692.813	8.3
693.22	8.39
693.626	8.51
694.032	8.62
694.439	8.76
694.845	8.91
695.251	9.06
695.657	9.22
696.063	9.4
696.469	9.56
696.875	9.74
697.281	9.94
697.687	10.15
698.093	10.36
698.498	10.59
698.904	10.82
699.31	11.04
699.715	11.27
700.12	11.52
700.526	11.78
700.931	12.06
701.337	12.33
701.742	12.59
702.147	12.87
702.552	13.15
702.957	13.43
703.362	13.72
703.767	14.02
704.172	14.33
704.577	14.65
704.981	14.96
705.386	15.27
705.791	15.59
706.195	15.93
706.6	16.27
707.004	16.59
707.408	16.95
707.813	17.29
708.217	17.62
708.621	17.98
709.025	18.31
709.43	18.65
709.834	19.02
710.237	19.38
710.641	19.73
711.045	20.08
711.449	20.46
711.853	20.84
712.256	21.2
712.66	21.58
713.064	21.95
713.467	22.34
713.87	22.73
714.274	23.1
714.677	23.49
715.08	23.88
715.484	24.26
715.887	24.65
716.29	25.01
716.693	25.42
717.096	25.82
717.499	26.21
717.901	26.6
718.304	26.99
718.707	27.39
719.109	27.77
719.512	28.15
719.915	28.54
720.317	28.9
720.719	29.27
721.122	29.64
721.524	30.01
721.926	30.38
722.328	30.77
722.731	31.14
723.133	31.5
723.535	31.85
723.937	32.2
724.338	32.54
724.74	32.9
725.142	33.27
725.544	33.61
725.945	33.94
726.347	34.23
726.748	34.52
727.15	34.8
727.551	35.09
727.952	35.37
728.354	35.66
728.755	35.93
729.156	36.2
729.557	36.42
729.958	36.65
730.359	36.88
730.76	37.15
731.161	37.4
731.562	37.65
731.962	37.87
732.363	38.1
732.763	38.31
733.164	38.53
733.564	38.73
733.965	38.93
734.365	39.12
734.766	39.32
735.166	39.49
735.566	39.66
735.966	39.83
736.366	40.02
736.766	40.18
737.166	40.35
737.566	40.49
737.966	40.63
738.365	40.78
738.765	40.94
739.165	41.08
739.564	41.23
739.964	41.35
740.363	41.46
740.763	41.57
741.162	41.68
741.561	41.78
741.96	41.86
742.36	42
742.759	42.1
743.158	42.18
743.557	42.25
743.955	42.33
744.354	42.4
744.753	42.49
745.152	42.58
745.55	42.67
745.949	42.74
746.348	42.86
746.746	42.94
747.144	43.03
747.543	43.11
747.941	43.19
748.339	43.23
748.737	43.3
749.136	43.36
749.534	43.41
749.932	43.44
750.33	43.49
750.727	43.53
751.125	43.56
751.523	43.58
751.921	43.61
752.318	43.64
752.716	43.7
753.113	43.74
753.511	43.78
753.908	43.83
754.305	43.86
754.703	43.88
755.1	43.9
755.497	43.96
755.894	43.98
756.291	44
756.688	44.01
757.085	44.03
757.482	44.04
757.878	44.05
758.275	44.06
758.672	44.1
759.068	44.15
759.465	44.16
759.861	44.16
760.258	44.18
760.654	44.19
761.05	44.23
761.447	44.27
761.843	44.29
762.239	44.31
762.635	44.3
763.031	44.29
763.427	44.27
763.822	44.29
764.218	44.3
764.614	44.31
765.01	44.31
765.405	44.3
765.801	44.25
766.196	44.26
766.592	44.25
766.987	44.28
767.382	44.29
767.778	44.29
768.173	44.29
768.568	44.27
768.963	44.26
769.358	44.3
769.753	44.3
770.148	44.31
770.542	44.31
770.937	44.32
771.332	44.31
771.726	44.31
772.121	44.31
772.515	44.31
772.91	44.32
773.304	44.36
773.699	44.33
774.093	44.35
774.487	44.37
774.881	44.4
775.275	44.37
775.669	44.37
776.063	44.38
776.457	44.38
776.851	44.39
777.245	44.38
777.638	44.35
778.032	44.37
778.425	44.39
778.819	44.38
779.212	44.38
779.606	44.4
779.999	44.4
780.392	44.39
780.786	44.39
781.179	44.39
781.572	44.43
781.965	44.45
782.358	44.45
782.751	44.42
783.143	44.44
783.536	44.43
783.929	44.44
784.322	44.44
784.714	44.47
785.107	44.47
785.499	44.46
785.891	44.42
786.284	44.45
786.676	44.44
787.068	44.45
787.46	44.45
787.852	44.44
788.245	44.44
788.636	44.43
789.028	44.43
789.42	44.45
789.812	44.44
790.204	44.45
790.595	44.44
790.987	44.46
791.378	44.47
791.77	44.48
792.161	44.46
792.553	44.45
792.944	44.46
793.335	44.44
793.726	44.41
794.117	44.41
794.508	44.41
794.899	44.41
795.29	44.4
795.681	44.36
796.072	44.34
796.463	44.34
796.853	44.31
797.244	44.31
797.634	44.3
798.025	44.31
798.415	44.31
798.806	44.33
799.196	44.33
799.586	44.31
799.976	44.33
800.366	44.37
800.756	44.41
801.146	44.45
801.536	44.48
801.926	44.51
802.316	44.54
802.706	44.56
803.095	44.55
803.485	44.54
803.874	44.55
804.264	44.57
804.653	44.56
805.043	44.53
805.432	44.53
805.821	44.53
806.21	44.53
806.599	44.51
806.988	44.51
807.377	44.5
807.766	44.49
808.155	44.47
808.544	44.48
808.933	44.47
809.321	44.46
809.71	44.46
810.098	44.41
810.487	44.39
810.875	44.4
811.264	44.38
811.652	44.41
812.04	44.42
812.428	44.44
812.816	44.4
813.204	44.37
813.592	44.36
813.98	44.35
814.368	44.36
814.756	44.38
815.144	44.37
815.531	44.36
815.919	44.36
816.306	44.37
816.694	44.37
817.081	44.41
817.469	44.42
817.856	44.43
818.243	44.42
818.63	44.42
819.017	44.4
819.404	44.38
819.791	44.4
820.178	44.39
820.565	44.36
820.952	44.36
821.339	44.33
821.725	44.35
822.112	44.37
822.498	44.4
822.885	44.43
823.271	44.43
823.657	44.44
824.044	44.44
824.43	44.44
824.816	44.44
825.202	44.42
825.588	44.42
825.974	44.4
826.36	44.4
826.746	44.38
827.132	44.37
827.517	44.4
827.903	44.42
828.289	44.42
828.674	44.45
829.06	44.46
829.445	44.48
829.83	44.5
830.216	44.49
830.601	44.5
830.986	44.49
831.371	44.5
831.756	44.5
832.141	44.5
832.526	44.51
832.911	44.49
833.295	44.49
833.68	44.49
834.065	44.49
834.449	44.49
834.834	44.48
835.218	44.49
835.603	44.48
835.987	44.48
836.371	44.48
836.755	44.48
837.139	44.47
837.524	44.48
837.908	44.51
838.291	44.53
838.675	44.55
839.059	44.54
839.443	44.54
839.827	44.53
840.21	44.51
840.594	44.51
840.977	44.51
841.361	44.54
841.744	44.52
842.127	44.49
842.511	44.47
842.894	44.46
843.277	44.45
843.66	44.43
844.043	44.45
844.426	44.46
844.809	44.46
845.191	44.47
845.574	44.44
845.957	44.43
846.339	44.43
846.722	44.45
847.104	44.48
847.487	44.5
847.869	44.51
848.252	44.51
848.634	44.5
849.016	44.52
849.398	44.53
849.78	44.54
850.162	44.57
850.544	44.57
850.926	44.56
851.307	44.55
851.689	44.57
852.071	44.59
852.452	44.59
852.834	44.63
853.215	44.61
853.597	44.61
853.978	44.6
854.359	44.61
854.741	44.62
855.122	44.62
855.503	44.59
855.884	44.57
856.265	44.57
856.646	44.55
857.026	44.55
857.407	44.56
857.788	44.54
858.169	44.55
858.549	44.54
858.93	44.53
859.31	44.54
859.69	44.56
860.071	44.59
860.451	44.61
860.831	44.6
861.211	44.58
861.591	44.58
861.971	44.58
862.351	44.59
862.731	44.58
863.111	44.58
863.491	44.58
863.87	44.59
864.25	44.57
864.629	44.56
865.009	44.59
865.388	44.59
865.768	44.59
866.147	44.59
866.526	44.56
866.905	44.55
867.284	44.56
867.663	44.56
868.042	44.56
868.421	44.57
868.8	44.56
869.179	44.54
869.558	44.56
869.936	44.56
870.315	44.55
870.693	44.56
871.072	44.57
871.45	44.57
871.828	44.56
872.207	44.57
872.585	44.58
872.963	44.59
873.341	44.59
873.719	44.58
874.097	44.59
874.475	44.6
874.853	44.61
875.23	44.63
875.608	44.63
875.986	44.65
876.363	44.64
876.741	44.63
877.118	44.65
877.495	44.67
877.873	44.68
878.25	44.73
878.627	44.73
879.004	44.75
879.381	44.75
879.758	44.75
880.135	44.75
880.512	44.75
880.889	44.76
881.265	44.74
881.642	44.74
882.019	44.76
882.395	44.72
882.772	44.72
883.148	44.67
883.524	44.67
883.901	44.66
884.277	44.65
884.653	44.63
885.029	44.62
885.405	44.63
885.781	44.63
886.157	44.63
886.532	44.67
886.908	44.66
887.284	44.69
887.659	44.68
888.035	44.67
888.411	44.68
888.786	44.71
889.161	44.73
889.537	44.73
889.912	44.72
890.287	44.7
890.662	44.67
891.037	44.68
891.412	44.67
891.787	44.66
892.162	44.68
892.536	44.66
892.911	44.64
893.286	44.64
893.66	44.63
894.035	44.63
894.409	44.62
894.784	44.62
895.158	44.63
895.532	44.64
895.906	44.65
896.281	44.66
896.655	44.68
897.029	44.69
897.402	44.7
897.776	44.68
898.15	44.69
898.524	44.7
898.898	44.69
899.271	44.7
899.645	44.7
900.018	44.72
900.392	44.71
900.765	44.7
901.138	44.69
901.511	44.68
901.884	44.72
902.258	44.7
902.631	44.71
903.003	44.73
903.376	44.72
903.749	44.7
904.122	44.71
904.495	44.72
904.867	44.74
905.24	44.76
905.612	44.78
905.985	44.76
906.357	44.76
906.729	44.78
907.102	44.78
907.474	44.78
907.846	44.77
908.218	44.76
908.59	44.77
908.962	44.74
909.334	44.76
909.705	44.74
910.077	44.76
910.449	44.77
910.82	44.75
911.192	44.73
911.563	44.72
911.935	44.73
912.306	44.7
912.677	44.71
913.048	44.74
913.419	44.7
913.79	44.68
914.161	44.67
914.532	44.68
914.903	44.68
915.274	44.68
915.645	44.67
916.015	44.69
916.386	44.7
916.756	44.67
917.127	44.68
917.497	44.69
917.868	44.7
918.238	44.67
918.608	44.68
918.978	44.67
919.348	44.66
919.718	44.67
920.088	44.66
920.458	44.67
920.828	44.65
921.198	44.6
921.567	44.59
921.937	44.62
922.306	44.6
922.676	44.58
923.045	44.61
923.415	44.57
923.784	44.55
924.153	44.58
924.522	44.58
924.891	44.58
925.26	44.61
925.629	44.61
925.998	44.58
926.367	44.59
926.736	44.59
927.104	44.56
927.473	44.55
927.842	44.56
928.21	44.53
928.578	44.5
928.947	44.52
929.315	44.49
929.683	44.48
930.051	44.47
930.42	44.48
930.788	44.44
931.156	44.42
931.523	44.44
931.891	44.45
932.259	44.43
932.627	44.42
932.994	44.41
933.362	44.43
933.729	44.42
934.097	44.39
934.464	44.39
934.831	44.42
935.199	44.44
935.566	44.44
935.933	44.4
936.3	44.41
936.667	44.4
937.034	44.39
937.401	44.37
937.767	44.36
938.134	44.4
938.501	44.37
938.867	44.4
939.234	44.41
939.6	44.42
939.967	44.43
940.333	44.39
940.699	44.45
941.065	44.39
941.431	44.38
941.798	44.34
942.163	44.25
942.529	44.23
942.895	44.19
943.261	44.13
943.627	44.16
943.992	44.17
944.358	44.18
944.723	44.18
945.089	44.16
945.454	44.18
945.82	44.21
946.185	44.27
946.55	44.25
946.915	44.26
947.28	44.26
947.645	44.2
948.01	44.21
948.375	44.26
948.74	44.21
949.104	44.28
949.469	44.29
949.834	44.28
950.198	44.25
950.562	44.22
950.927	44.16
951.291	44.16
951.655	44.16
952.02	44.13
952.384	44.07
952.748	44.03
953.112	44.03
953.476	43.97
953.839	43.92
954.203	43.92
954.567	43.94
954.931	43.93
955.294	43.84
955.658	43.82
956.021	43.74
956.385	43.72
956.748	43.72
957.111	43.67
957.474	43.7
957.837	43.68
958.2	43.63
958.563	43.59
958.926	43.59
959.289	43.65
959.652	43.67
960.015	43.72
960.377	43.73
960.74	43.73
961.102	43.72
961.465	43.71
961.827	43.72
962.189	43.78
962.552	43.78
962.914	43.8
963.276	43.8
963.638	43.77
964	43.77
964.362	43.76
964.724	43.69
965.085	43.7
965.447	43.66
965.809	43.62
966.17	43.61
966.532	43.61
966.893	43.6
967.255	43.57
967.616	43.61
967.977	43.59
968.338	43.57
968.699	43.58
969.061	43.55
969.421	43.57
969.782	43.61
970.143	43.6
970.504	43.55
970.865	43.59
971.225	43.55
971.586	43.5
971.946	43.46
972.307	43.47
972.667	43.46
973.027	43.5
973.388	43.46
973.748	43.45
974.108	43.47
974.468	43.46
974.828	43.44
975.188	43.47
975.548	43.4
975.907	43.42
976.267	43.39
976.627	43.45
976.986	43.4
977.346	43.39
977.705	43.37
978.064	43.41
978.424	43.44
978.783	43.34
979.142	43.36
979.501	43.44
979.86	43.48
980.219	43.51
980.578	43.53
980.937	43.56
981.296	43.54
981.654	43.54
982.013	43.52
982.371	43.5
982.73	43.51
983.088	43.47
983.447	43.43
983.805	43.39
984.163	43.35
984.521	43.27
984.879	43.18
985.237	43.19
985.595	43.21
985.953	43.1
986.311	43.07
986.669	43.1
987.026	43.1
987.384	43.09
987.741	43.02
988.099	43.05
988.456	43.08
988.814	43.23
989.171	43.23
989.528	43.21
989.885	43.19
990.242	43.27
990.599	43.33
990.956	43.41
991.313	43.42
991.67	43.47
992.027	43.48
992.383	43.55
992.74	43.57
993.096	43.63
993.453	43.69
993.809	43.73
994.165	43.7
994.522	43.59
994.878	43.59
995.234	43.62
995.59	43.63
995.946	43.61
996.302	43.56
996.658	43.52
997.013	43.45
997.369	43.39
997.725	43.47
998.08	43.5
998.436	43.69
998.791	43.68
999.147	43.61
999.502	43.62
999.857	43.67
1000.212	43.59
1000.567	43.48
1000.922	43.53
1001.277	43.56
1001.632	43.55
1001.987	43.55
1002.342	43.37
1002.696	43.24
1003.051	43.41
1003.406	43.4
1003.76	43.31
1004.114	43.26
1004.469	43.24
1004.823	43.44
1005.177	43.47
1005.531	43.46
1005.885	43.46
1006.239	43.49
1006.593	43.59
1006.947	43.51
1007.301	43.46
1007.655	43.53
1008.008	43.65
1008.362	43.84
1008.715	43.57
1009.069	43.56
1009.422	43.54
1009.776	43.45
1010.129	43.5
1010.482	43.61
1010.835	43.66
1011.188	43.69
1011.541	43.58
1011.894	43.59
1012.247	43.33
1012.6	43.31
1012.952	43.24
1013.305	43.16
1013.657	43.24
1014.01	43.11
1014.362	42.93
1014.715	42.95
1015.067	43.06
1015.419	43.26
1015.771	43.22
1016.123	43.32
1016.475	43.43
1016.827	43.33
1017.179	43.37
1017.531	43.28
1017.883	43.4
1018.234	43.5
1018.586	43.36
1018.938	43.16
1019.289	43
1019.64	42.95
1019.992	43.02
1020.343	42.87
1020.694	42.75
1021.045	42.77
1021.396	42.71
1021.747	42.85
1022.098	42.85
1022.449	42.67
1022.8	42.79
1023.151	42.78
1023.501	42.99
1023.852	42.88
1024.202	43.01
1024.553	43.15
1024.903	42.94
1025.253	43.03
1025.604	42.74
1025.954	42.5
1026.304	42.61
1026.654	42.64
1027.004	42.64
1027.354	42.47
1027.703	42.4
1028.053	42.19
1028.403	42.33
1028.753	42.48
1029.102	42.7
1029.452	42.86
1029.801	43.13
1030.15	43.17
1030.499	43.08
897.758	767.39
901.051	770.64
904.343	771.32
907.636	785.33
910.928	762.04
914.22	764.83
917.511	761.09
920.803	722.12
924.094	720.61
927.384	701.55
930.675	675.09
933.965	673
937.255	634.43
940.544	609.93
943.834	582.99
947.123	579.61
950.411	546.15
953.7	533.87
956.988	507.8
960.276	491.5
963.563	481.67
966.851	467.67
970.138	462.45
973.424	450.18
976.711	449.69
979.997	429.17
983.283	425.87
986.568	417.13
989.853	405.25
993.138	398.76
996.423	382.56
999.708	374.04
1002.992	367.23
1006.275	351.37
1009.559	348.46
1012.842	337.75
1016.125	328.13
1019.408	322.92
1022.69	319.08
1025.972	311.67
1029.254	305.25
1032.536	299.45
1035.817	294.35
1039.098	291.45
1042.379	287.1
1045.659	283.84
1048.939	277.09
1052.219	272.34
1055.498	269.28
1058.778	262
1062.057	258.42
1065.335	255.79
1068.614	252.23
1071.892	249.63
1075.17	242.86
1078.447	238.32
1081.724	235.55
1085.001	233.51
1088.278	229.55
1091.554	224.88
1094.83	225.71
1098.106	222.93
1101.382	221.69
1104.657	220.79
1107.932	216.5
1111.206	217.11
1114.481	212.51
1117.755	211.41
1121.029	210.28
1124.302	209.15
1127.575	205.33
1130.848	203.04
1134.121	201.84
1137.393	200.06
1140.665	195.46
1143.937	194.12
1147.208	194.14
1150.48	192.46
1153.75	190.46
1157.021	188.3
1160.291	187.73
1163.561	186.31
1166.831	186.12
1170.101	184.38
1173.37	184.14
1176.639	185.14
1179.907	184.19
1183.176	181.17
1186.444	182.11
1189.711	181.41
1192.979	179.97
1196.246	179.99
1199.513	180.27
1202.78	179.38
1206.046	178.91
1209.312	177.87
1212.578	177.86
1215.843	178.96
1219.108	177.93
1222.373	180.95
1225.638	182.06
1228.902	184.46
1232.166	184.94
1235.43	185.58
1238.693	188.31
1241.956	189.22
1245.219	191.04
1248.482	191.78
1251.744	191.56
1255.006	192.29
1258.268	187.97
1261.529	186.82
1264.79	185.53
1268.051	183.55
1271.312	182.36
1274.572	179.86
1277.832	178.86
1281.092	176.4
1284.351	174.63
1287.61	174.95
1290.869	172.73
1294.128	171.86
1297.386	172.1
1300.644	170.91
1303.902	171.45
1307.159	170.72
1310.416	170.57
1313.673	169.96
1316.93	171.2
1320.186	170.97
1323.442	170.97
1326.697	173.32
1329.953	173.37
1333.208	173.06
1336.463	175.49
1339.717	175.41
1342.972	176.81
1346.226	178.34
1349.479	178.86
1352.733	179.84
1355.986	181.93
1359.238	181.51
1362.491	181.03
1365.743	182.52
1368.995	182.26
1372.247	181.73
1375.498	181.16
1378.749	181.78
1382	178.91
1385.251	178.75
1388.501	177.95
1391.751	176.08
1395	175.87
1398.25	174.9
1401.499	173.19
1404.748	172.73
1407.996	170.95
1411.244	170.13
1414.492	168.55
1417.74	167.32
1420.987	165.43
1424.234	164
1427.481	161.98
1430.728	160.96
1433.974	160.26
1437.22	157.99
1440.465	157.31
1443.711	154.54
1446.956	153.31
1450.201	152.74
1453.445	151.78
1456.689	150.63
1459.933	147.88
1463.177	147.17
1466.42	144.9
1469.663	143.39
1472.906	142.81
1476.148	139.76
1479.391	138.77
1482.633	138.27
1485.874	135.7
1489.115	134.08
1492.356	133.06
1495.597	132.98
1498.838	130.96
1502.078	130.68
1505.318	129.89
1508.557	129.93
1511.797	129.32
1515.036	128.93
1518.274	128.53
1521.513	127.71
1524.751	127.67
1527.989	127.52
1531.227	127.41
1534.464	127.31
1537.701	126.68
1540.938	126.34
1544.174	125.45
1547.41	126.29
1550.646	125.12
1553.882	125.18
1557.117	124.17
1560.352	123.7
1563.587	123.51
1566.821	122.79
1570.055	122.41
1573.289	121.75
1576.523	121.66
1579.756	120.93
1582.989	120.19
1586.222	120.23
1589.454	119.88
1592.686	121.12
1595.918	120.35
1599.15	120.07
1602.381	120.04
1605.612	119.97
1608.843	120.21
1612.073	119.85
1615.303	120.62
1618.533	120.67
1621.762	121
1624.992	121.02
1628.221	120.34
1631.449	120.64
1634.678	120.56
1637.906	121.51
1641.134	121.41
1644.361	121.39
1647.588	122.07
1650.815	121.54
1654.042	121.28
1657.269	121.97
1660.495	122.12
1663.72	121.67
1666.946	122.05
1670.171	122.24
1673.396	122.04
1676.621	122.08
1679.845	122.44
1683.069	122.69
1686.293	123.52
1689.517	123.8
1692.74	123.3
1695.963	123.69
1699.185	124.29
1702.408	124.68
1705.63	124.9
1708.852	125.31
1712.073	125.46
1715.294	125.44
1718.515	126.27
1721.736	125.85
1724.956	126.19
1728.176	126.31
1731.396	126.58
1734.616	126.82
1737.835	127.05
1741.054	126.45
1744.272	126.52
1747.491	127.32
1750.709	127.8
1753.927	127.11
1757.144	127.28
1760.361	127.65
1763.578	127.67
1766.795	127.28
1770.011	128.39
1773.227	128.13
1776.443	129.41
1779.658	129.32
1782.874	129.79
1786.089	129.82
1789.303	130.3
1792.518	130.69
1795.732	130.88
1798.945	132.11
1802.159	132.73
1805.372	132.63
1808.585	133.96
1811.797	134.31
1815.01	135.27
1818.222	135.69
1821.434	137.27
1824.645	137.42
1827.856	139.83
1831.067	140.43
1834.278	140.49
1837.488	141.46
1840.698	142.05
1843.908	141.66
1847.117	141.47
1850.326	141.84
1853.535	140.88
1856.744	141.9
1859.952	141.63
1863.16	140.49
1866.368	139.42
1869.575	140.13
1872.782	137.22
1875.989	136.36
1879.196	136.31
1882.402	135.52
1885.608	135.32
1888.814	135.59
1892.019	133.6
1895.224	133.15
1898.429	132.94
1901.634	133.3
1904.838	133.11
1908.042	135.3
1911.246	135.31
1914.449	135.55
1917.652	135.68
1920.855	135.69
1924.058	135.94
1927.26	136.42
1930.462	136.33
1933.664	137.28
1936.865	136.6
1940.066	136
1943.267	134.31
1946.467	135.02
1949.668	135.58
1952.868	137.37
1956.067	137.54
1959.267	137.22
1962.466	137.94
1965.665	137.36
1968.863	138.03
1972.061	139.45
1975.259	140.84
1978.457	142.3
1981.654	143.56
1984.852	143.62
1988.048	143.26
1991.245	144.48
1994.441	146
1997.637	147.38
2000.833	151.2
2004.028	151.82
2007.223	154.24
2010.418	154.82
2013.613	158.7
2016.807	159.81
2020.001	162.26
2023.194	165.22
2026.388	168.24
2029.581	172.02
2032.774	172.9
2035.966	174.55
2039.158	176.08
2042.35	178.76
2045.542	180.4
2048.733	181.59
2051.924	184.92
2055.115	187.39
2058.306	187.45
2061.496	189.4
2064.686	188.12
2067.875	192.55
2071.065	194.38
2074.254	193.96
2077.442	196.15
2080.631	197.5
2083.819	199.85
2087.007	200.52
2090.195	201.99
2093.382	203.82
2096.569	203.48
2099.756	209.01
2102.942	208.99
2106.128	210.28
2109.314	214.95
2112.5	214.41
2115.685	218.74
2118.87	219.29
2122.055	222.43
2125.239	224
2128.424	227.88
2131.608	229.09
2134.791	231.8
2137.974	233.15
2141.157	234.41
2144.34	234.37
2147.523	237.84
2150.705	236.88
2153.887	239.73
2157.068	240.58
2160.25	238.24
2163.431	238.75
2166.611	240.47
2169.792	244.33
2172.972	246.82
2176.152	248.9
2179.331	252.3
2182.511	255.51
2185.69	257.1
2188.868	262.85
2192.047	262.9
2195.225	272.05
2198.403	277.36
2201.58	284.73
2204.758	286.96
2207.935	291.94
2211.111	297.27
2214.288	300.36
2217.464	301.19
2220.64	308.65
2223.815	309.77
2226.991	323.14
2230.166	322.36
2233.34	325.59
2236.515	329.98
2239.689	334.2
2242.863	336.54
2246.036	344.35
2249.209	343.41
2252.382	349.66
2255.555	358.32
2258.727	360.33
2261.9	362.27
2265.071	367.4
2268.243	375.22
2271.414	378.24
2274.585	385.11
2277.756	389.65
2280.926	395.94
2284.096	403.51
2287.266	409.64
2290.436	413.25
2293.605	422.25
2296.774	432.41
2299.942	445.03
2303.111	449.64
2306.279	460.15
2309.447	464.21
2312.614	476.44
2315.781	487.05
2318.948	509.8
2322.115	505.99
2325.281	533.18
2328.447	521.77
2331.613	545.66
2334.779	538.5
2337.944	562.3
2341.109	567.95
2344.274	585.69
2347.438	602.02
2350.602	599.58
2353.766	621.21
2356.929	630.64
2360.092	628.55
2363.255	673.05
2366.418	671.81
2369.58	684.4
2372.742	724.88
2375.904	745.62
2379.066	741.58
2382.227	732.06
2385.388	790.62
2388.548	789.64
2391.709	799.64
2394.869	885.2
2398.029	851.89
2401.188	878.03
2404.347	872.06
2407.506	855.06
2410.665	878.66
2413.823	932.9
2416.981	987.15
2420.139	959.95
2423.296	948.66
2426.453	985.91
2429.61	947.84
2432.767	988.79
2435.923	974.84
2439.079	1070.98
2442.235	1088.09
2445.391	1072.18
2448.546	1062.57
2451.701	1035.61
2454.855	1032.97
2458.009	1095.38
2461.163	1144.26
2464.317	1186.83
2467.471	1219.02
2470.624	1218.27
2473.777	1187.1
2476.929	1152.01
2480.082	1121.05
2483.234	1110
2486.385	1168.91
2489.537	1175.88
2492.688	1216.23
2495.839	1181.01
2498.989	1156.85
2502.14	1160.14
2505.29	1169.94
2508.439	1189.21
2511.589	1190.5
2514.738	1298.39
2517.887	1268.4
2521.035	1329.53
2524.183	1340.85
2527.331	1351.77
2530.479	1345.36
2533.627	1353.01
