Data from C_1_HIR_IL_4N_Splice17_12-47-29-278.txt Node
Date: Sat Mar 07 12:47:29 EST 2020
User: sa697716
Spectrometer: NQ5500242
Trigger mode: 0
Integration Time (sec): 1.450000E-1
Scans to average: 20
Nonlinearity correction enabled: false
Boxcar width: 5
Storing dark spectrum: false
XAxis mode: Wavelengths
Number of Pixels in Spectrum: 512
>>>>>Begin Spectral Data<<<<<
187.83	45.89
188.298	45.78
188.766	31.01
189.233	33.62
189.701	30.82
190.169	59.54
190.636	54.51
191.104	57.23
191.571	39.31
192.039	86.99
192.506	-186.98
192.974	140.23
193.441	200.17
193.908	13.23
194.375	-4.43
194.842	-40.15
195.31	29.99
195.777	-14.56
196.244	11.59
196.711	19.87
197.177	22.05
197.644	22.12
198.111	21.18
198.578	21.08
199.045	21.79
199.511	21.76
199.978	22.03
200.445	22.2
200.911	22.26
201.378	22.6
201.844	22.58
202.31	22.14
202.777	22.25
203.243	22.32
203.709	22.43
204.176	22.32
204.642	22.63
205.108	22.53
205.574	22.32
206.04	21.93
206.506	21.76
206.972	21.54
207.438	21.56
207.903	21.39
208.369	21.01
208.835	20.66
209.301	20.13
209.766	19.34
210.232	18.8
210.697	18.54
211.163	18.32
211.628	17.82
212.094	17.58
212.559	17.24
213.024	16.79
213.49	16.58
213.955	16.12
214.42	15.85
214.885	15.52
215.35	15.06
215.815	14.37
216.28	13.45
216.745	12.57
217.21	11.65
217.675	10.98
218.14	10.31
218.604	9.71
219.069	9.19
219.534	8.83
219.998	8.52
220.463	8.21
220.927	7.89
221.392	7.69
221.856	7.54
222.32	7.42
222.785	7.26
223.249	7.14
223.713	7.01
224.177	6.95
224.642	6.83
225.106	6.71
225.57	6.62
226.034	6.56
226.497	6.48
226.961	6.39
227.425	6.29
227.889	6.22
228.353	6.13
228.816	6.05
229.28	5.97
229.744	5.89
230.207	5.82
230.671	5.76
231.134	5.69
231.597	5.65
232.061	5.58
232.524	5.53
232.987	5.47
233.45	5.43
233.914	5.38
234.377	5.33
234.84	5.28
235.303	5.24
235.766	5.2
236.229	5.15
236.691	5.1
237.154	5.07
237.617	5.03
238.08	4.97
238.542	4.91
239.005	4.88
239.468	4.84
239.93	4.81
240.393	4.77
240.855	4.72
241.317	4.68
241.78	4.65
242.242	4.61
242.704	4.58
243.166	4.55
243.629	4.53
244.091	4.49
244.553	4.45
245.015	4.41
245.477	4.38
245.939	4.36
246.4	4.32
246.862	4.29
247.324	4.27
247.786	4.24
248.247	4.22
248.709	4.18
249.17	4.16
249.632	4.14
250.093	4.12
250.555	4.1
251.016	4.08
251.477	4.06
251.939	4.05
252.4	4.03
252.861	4
253.322	3.99
253.783	3.97
254.244	3.95
254.705	3.93
255.166	3.92
255.627	3.9
256.088	3.89
256.549	3.87
257.009	3.85
257.47	3.83
257.931	3.8
258.391	3.78
258.852	3.76
259.312	3.75
259.773	3.73
260.233	3.71
260.694	3.69
261.154	3.68
261.614	3.66
262.074	3.65
262.534	3.64
262.994	3.64
263.455	3.63
263.915	3.62
264.374	3.61
264.834	3.61
265.294	3.6
265.754	3.59
266.214	3.59
266.673	3.58
267.133	3.58
267.593	3.57
268.052	3.57
268.512	3.57
268.971	3.57
269.431	3.56
269.89	3.55
270.349	3.55
270.809	3.54
271.268	3.54
271.727	3.53
272.186	3.53
272.645	3.52
273.104	3.51
273.563	3.5
274.022	3.5
274.481	3.49
274.94	3.49
275.399	3.48
275.857	3.47
276.316	3.46
276.775	3.45
277.233	3.44
277.692	3.44
278.15	3.43
278.609	3.42
279.067	3.41
279.525	3.4
279.984	3.39
280.442	3.38
280.9	3.37
281.358	3.37
281.816	3.37
282.274	3.35
282.732	3.34
283.19	3.32
283.648	3.31
284.106	3.29
284.564	3.28
285.021	3.28
285.479	3.27
285.937	3.25
286.394	3.24
286.852	3.22
287.309	3.21
287.767	3.2
288.224	3.18
288.682	3.17
289.139	3.16
289.596	3.15
290.053	3.14
290.511	3.13
290.968	3.12
291.425	3.11
291.882	3.1
292.339	3.09
292.796	3.08
293.252	3.08
293.709	3.07
294.166	3.06
294.623	3.05
295.079	3.04
295.536	3.04
295.992	3.03
296.449	3.02
296.905	3.02
297.362	3.02
297.818	3.01
298.274	3
298.731	2.99
299.187	2.98
299.643	2.98
300.099	2.97
300.555	2.96
301.011	2.95
301.467	2.94
301.923	2.93
302.379	2.92
302.835	2.92
303.291	2.92
303.746	2.92
304.202	2.91
304.658	2.9
305.113	2.9
305.569	2.9
306.024	2.89
306.479	2.88
306.935	2.87
307.39	2.86
307.845	2.85
308.301	2.84
308.756	2.84
309.211	2.84
309.666	2.84
310.121	2.83
310.576	2.83
311.031	2.82
311.486	2.82
311.94	2.83
312.395	2.82
312.85	2.82
313.305	2.81
313.759	2.81
314.214	2.8
314.668	2.79
315.123	2.79
315.577	2.78
316.032	2.77
316.486	2.76
316.94	2.76
317.394	2.75
317.849	2.74
318.303	2.74
318.757	2.73
319.211	2.73
319.665	2.72
320.119	2.71
320.572	2.7
321.026	2.69
321.48	2.68
321.934	2.68
322.387	2.67
322.841	2.67
323.295	2.67
323.748	2.66
324.202	2.66
324.655	2.64
325.108	2.64
325.562	2.64
326.015	2.65
326.468	2.65
326.921	2.64
327.374	2.63
327.827	2.63
328.28	2.62
328.733	2.62
329.186	2.62
329.639	2.62
330.092	2.62
330.545	2.62
330.997	2.61
331.45	2.61
331.903	2.61
332.355	2.61
332.808	2.6
333.26	2.6
333.713	2.59
334.165	2.58
334.617	2.58
335.069	2.58
335.522	2.57
335.974	2.58
336.426	2.57
336.878	2.55
337.33	2.55
337.782	2.56
338.234	2.56
338.686	2.55
339.137	2.56
339.589	2.55
340.041	2.55
340.493	2.54
340.944	2.52
341.396	2.52
341.847	2.52
342.299	2.52
342.75	2.52
343.201	2.5
343.653	2.5
344.104	2.49
344.555	2.49
345.006	2.48
345.457	2.48
345.908	2.47
346.359	2.48
346.81	2.47
347.261	2.47
347.712	2.46
348.163	2.45
348.613	2.45
349.064	2.45
349.515	2.45
349.965	2.45
350.416	2.44
350.866	2.44
351.317	2.43
351.767	2.43
352.217	2.43
352.668	2.44
353.118	2.44
353.568	2.44
354.018	2.44
354.468	2.45
354.918	2.45
355.368	2.45
355.818	2.45
356.268	2.46
356.718	2.46
357.168	2.45
357.617	2.44
358.067	2.44
358.517	2.44
358.966	2.44
359.416	2.43
359.865	2.42
360.315	2.42
360.764	2.43
361.213	2.42
361.663	2.41
362.112	2.42
362.561	2.43
363.01	2.42
363.459	2.41
363.908	2.4
364.357	2.41
364.806	2.4
365.255	2.39
365.703	2.39
366.152	2.39
366.601	2.39
367.05	2.4
367.498	2.39
367.947	2.4
368.395	2.4
368.844	2.41
369.292	2.4
369.74	2.41
370.189	2.41
370.637	2.41
371.085	2.4
371.533	2.41
371.981	2.4
372.429	2.4
372.877	2.4
373.325	2.4
373.773	2.41
374.221	2.41
374.669	2.42
375.116	2.42
375.564	2.41
376.012	2.41
376.459	2.41
376.907	2.42
377.354	2.42
377.801	2.42
378.249	2.42
378.696	2.42
379.143	2.42
379.591	2.44
380.038	2.45
380.485	2.46
380.932	2.47
381.379	2.49
381.826	2.5
382.273	2.52
382.72	2.51
383.166	2.52
383.613	2.54
384.06	2.55
384.506	2.55
384.953	2.57
385.4	2.59
385.846	2.62
386.292	2.65
386.739	2.67
387.185	2.71
387.631	2.75
388.078	2.79
388.524	2.82
388.97	2.85
389.416	2.89
389.862	2.94
390.308	2.98
390.754	3.04
391.2	3.1
391.645	3.14
392.091	3.19
392.537	3.24
392.983	3.31
393.428	3.4
393.874	3.52
394.319	3.65
394.765	3.78
395.21	3.91
395.655	4.05
396.101	4.2
396.546	4.36
396.991	4.55
397.436	4.74
397.881	4.94
398.326	5.13
398.771	5.29
399.216	5.46
399.661	5.6
400.106	5.74
400.551	5.86
400.995	5.94
401.44	6.04
401.885	6.13
402.329	6.21
402.774	6.3
403.218	6.41
403.663	6.52
404.107	6.63
404.551	6.75
404.995	6.85
405.44	6.95
405.884	7.07
406.328	7.2
406.772	7.35
407.216	7.5
407.66	7.64
408.104	7.75
408.547	7.86
408.991	7.96
409.435	8.06
409.879	8.19
410.322	8.33
410.766	8.48
411.209	8.61
411.653	8.73
412.096	8.85
412.54	8.94
412.983	9.04
413.426	9.17
413.869	9.3
414.312	9.4
414.756	9.49
415.199	9.57
415.642	9.63
416.085	9.68
416.527	9.71
416.97	9.7
417.413	9.68
417.856	9.65
418.298	9.62
418.741	9.58
419.184	9.59
419.626	9.61
420.069	9.65
420.511	9.69
420.953	9.73
421.396	9.79
421.838	9.87
422.28	9.97
422.722	10.1
423.164	10.19
423.606	10.26
424.048	10.3
424.49	10.3
424.932	10.21
425.374	10.06
425.816	9.87
426.258	9.69
426.699	9.57
427.141	9.54
427.582	9.59
428.024	9.69
428.465	9.79
428.907	9.87
429.348	9.96
429.789	10.1
430.231	10.36
430.672	10.69
431.113	11.04
431.554	11.38
431.995	11.61
432.436	11.78
432.877	11.9
433.318	12.02
433.759	12.14
434.2	12.3
434.64	12.48
435.081	12.65
435.522	12.78
435.962	12.9
436.403	12.97
436.843	13.04
437.284	13.11
437.724	13.2
438.164	13.3
438.604	13.46
439.045	13.59
439.485	13.69
439.925	13.76
440.365	13.83
440.805	13.86
441.245	13.92
441.685	13.95
442.125	14
442.564	14.05
443.004	14.11
443.444	14.17
443.883	14.25
444.323	14.32
444.762	14.41
445.202	14.49
445.641	14.62
446.081	14.75
446.52	14.92
446.959	15.04
447.398	15.13
447.837	15.16
448.276	15.16
448.716	15.13
449.154	15.11
449.593	15.1
450.032	15.06
450.471	14.97
450.91	14.89
451.349	14.78
451.787	14.7
452.226	14.63
452.664	14.58
453.103	14.56
453.541	14.53
453.98	14.48
454.418	14.4
454.856	14.33
455.295	14.26
455.733	14.18
456.171	14.12
456.609	14.08
457.047	14.02
457.485	13.98
457.923	13.98
458.361	13.99
458.798	14.01
459.236	14.03
459.674	14.05
460.111	14.09
460.549	14.13
460.987	14.16
461.424	14.2
461.862	14.24
462.299	14.27
462.736	14.3
463.173	14.34
463.611	14.39
464.048	14.47
464.485	14.58
464.922	14.68
465.359	14.78
465.796	14.88
466.233	14.98
466.67	15.09
467.106	15.22
467.543	15.35
467.98	15.49
468.416	15.61
468.853	15.72
469.29	15.82
469.726	15.93
470.162	16.06
470.599	16.17
471.035	16.27
471.471	16.31
471.907	16.36
472.344	16.37
472.78	16.38
473.216	16.41
473.652	16.44
474.088	16.43
474.523	16.45
474.959	16.43
475.395	16.41
475.831	16.39
476.266	16.41
476.702	16.39
477.138	16.38
477.573	16.36
478.008	16.32
478.444	16.25
478.879	16.19
479.314	16.08
479.75	15.98
480.185	15.84
480.62	15.68
481.055	15.44
481.49	15.15
481.925	14.84
482.36	14.56
482.795	14.31
483.229	14.12
483.664	13.96
484.099	13.82
484.534	13.71
484.968	13.63
485.403	13.61
485.837	13.66
486.271	13.76
486.706	13.86
487.14	13.91
487.574	13.94
488.009	13.94
488.443	13.93
488.877	13.94
489.311	13.95
489.745	13.97
490.179	13.97
490.613	13.98
491.046	13.98
491.48	14.01
491.914	14.07
492.348	14.14
492.781	14.22
493.215	14.28
493.648	14.32
494.082	14.35
494.515	14.36
494.948	14.39
495.382	14.41
495.815	14.43
496.248	14.44
496.681	14.45
497.114	14.43
497.547	14.42
497.98	14.44
498.413	14.5
498.846	14.56
499.279	14.63
499.711	14.67
500.144	14.75
500.577	14.84
501.009	14.97
501.442	15.13
501.874	15.31
502.306	15.47
502.739	15.63
503.171	15.75
503.603	15.88
504.036	16.02
504.468	16.19
504.9	16.34
505.332	16.5
505.764	16.64
506.196	16.76
506.627	16.91
507.059	17.08
507.491	17.26
507.923	17.44
508.354	17.64
508.786	17.8
509.217	17.96
509.649	18.11
510.08	18.27
510.512	18.44
510.943	18.62
511.374	18.78
511.805	18.89
512.237	18.97
512.668	19.03
513.099	19.09
513.53	19.18
513.961	19.29
514.391	19.44
514.822	19.62
515.253	19.82
515.684	20.04
516.114	20.28
516.545	20.55
516.975	20.9
517.406	21.28
517.836	21.66
518.267	22.04
518.697	22.39
519.127	22.73
519.558	23.05
519.988	23.36
520.418	23.66
520.848	23.93
521.278	24.18
521.708	24.49
522.138	24.63
522.567	24.75
522.997	24.87
523.427	25.05
523.857	25.23
524.286	25.41
524.716	25.6
525.145	25.76
525.575	25.93
526.004	26.14
526.433	26.26
526.863	26.54
527.292	26.83
527.721	27.06
528.15	27.22
528.579	27.33
529.008	27.4
529.437	27.46
529.866	27.51
530.295	27.57
530.724	27.63
531.152	27.68
531.581	27.73
532.01	27.75
532.438	27.8
532.867	27.86
533.295	27.93
533.723	28.01
534.152	28.06
534.58	28.12
535.008	28.12
535.436	28.1
535.865	28.06
536.293	28
536.721	27.98
537.149	27.98
537.576	28
538.004	28.02
538.432	28.03
538.86	28.05
539.287	28.07
539.715	28.14
540.143	28.22
540.57	28.32
540.998	28.43
541.425	28.53
541.852	28.62
542.28	28.71
542.707	28.78
543.134	28.85
543.561	28.9
543.988	28.97
544.415	29.02
544.842	29.07
545.269	29.13
545.696	29.19
546.123	29.25
546.549	29.3
546.976	29.34
547.403	29.4
547.829	29.47
548.256	29.54
548.682	29.57
549.108	29.61
549.535	29.66
549.961	29.68
550.387	29.72
550.813	29.73
551.24	29.76
551.666	29.75
552.092	29.72
552.518	29.69
552.943	29.63
553.369	29.59
553.795	29.51
554.221	29.41
554.646	29.3
555.072	29.17
555.498	29.02
555.923	28.89
556.349	28.78
556.774	28.67
557.199	28.55
557.625	28.45
558.05	28.34
558.475	28.27
558.9	28.18
559.325	28.09
559.75	27.99
560.175	27.91
560.6	27.77
561.025	27.64
561.449	27.47
561.874	27.3
562.299	27.14
562.723	26.99
563.148	26.78
563.572	26.6
563.997	26.41
564.421	26.22
564.846	26.02
565.27	25.85
565.694	25.66
566.118	25.48
566.542	25.3
566.966	25.1
567.39	24.92
567.814	24.76
568.238	24.61
568.662	24.48
569.086	24.36
569.509	24.25
569.933	24.12
570.357	24.01
570.78	23.89
571.204	23.78
571.627	23.69
572.05	23.56
572.474	23.46
572.897	23.36
573.32	23.23
573.743	23.09
574.166	22.95
574.589	22.82
575.012	22.7
575.435	22.61
575.858	22.53
576.281	22.44
576.704	22.37
577.126	22.29
577.549	22.21
577.972	22.16
578.394	22.11
578.817	22.08
579.239	22.06
579.661	22.04
580.084	21.99
580.506	21.94
580.928	21.88
581.35	21.8
581.772	21.71
582.194	21.62
582.616	21.53
583.038	21.45
583.46	21.35
583.882	21.24
584.303	21.06
584.725	20.88
585.147	20.7
585.568	20.54
585.99	20.42
586.411	20.32
586.833	20.23
587.254	20.11
587.675	20
588.096	19.91
588.518	19.83
588.939	19.81
589.36	19.81
589.781	19.83
590.202	19.81
590.623	19.78
591.043	19.71
591.464	19.66
591.885	19.62
592.305	19.58
592.726	19.55
593.147	19.49
593.567	19.43
593.987	19.36
594.408	19.3
594.828	19.25
595.248	19.19
595.669	19.14
596.089	19.07
596.509	19.01
596.929	18.93
597.349	18.83
597.769	18.76
598.189	18.67
598.608	18.61
599.028	18.54
599.448	18.48
599.867	18.43
600.287	18.39
600.706	18.33
601.126	18.26
601.545	18.21
601.965	18.17
602.384	18.11
602.803	18.07
603.222	18
603.641	17.92
604.061	17.84
604.48	17.75
604.898	17.63
605.317	17.53
605.736	17.43
606.155	17.33
606.574	17.22
606.992	17.1
607.411	17
607.829	16.87
608.248	16.75
608.666	16.64
609.085	16.54
609.503	16.45
609.921	16.35
610.339	16.27
610.758	16.18
611.176	16.08
611.594	15.98
612.012	15.86
612.43	15.77
612.847	15.67
613.265	15.58
613.683	15.49
614.101	15.41
614.518	15.33
614.936	15.24
615.353	15.16
615.771	15.1
616.188	15.04
616.606	15
617.023	14.94
617.44	14.9
617.857	14.84
618.274	14.78
618.691	14.72
619.108	14.65
619.525	14.57
619.942	14.49
620.359	14.43
620.776	14.34
621.192	14.26
621.609	14.19
622.026	14.11
622.442	14.06
622.859	13.99
623.275	13.92
623.691	13.86
624.108	13.81
624.524	13.75
624.94	13.71
625.356	13.66
625.772	13.62
626.188	13.59
626.604	13.56
627.02	13.51
627.436	13.48
627.852	13.46
628.268	13.43
628.683	13.41
629.099	13.4
629.514	13.37
629.93	13.35
630.345	13.34
630.761	13.32
631.176	13.29
631.591	13.26
632.007	13.23
632.422	13.19
632.837	13.17
633.252	13.13
633.667	13.09
634.082	13.05
634.497	13
634.911	12.94
635.326	12.88
635.741	12.82
636.155	12.75
636.57	12.68
636.984	12.6
637.399	12.51
637.813	12.42
638.228	12.31
638.642	12.22
639.056	12.12
639.47	12.04
639.884	11.95
640.298	11.86
640.712	11.77
641.126	11.69
641.54	11.59
641.954	11.5
642.368	11.41
642.781	11.33
643.195	11.24
643.609	11.15
644.022	11.06
644.436	10.97
644.849	10.87
645.262	10.79
645.676	10.69
646.089	10.63
646.502	10.57
646.915	10.52
647.328	10.46
647.741	10.41
648.154	10.36
648.567	10.32
648.98	10.27
649.393	10.25
649.805	10.22
650.218	10.19
650.631	10.14
651.043	10.07
651.456	9.97
651.868	9.85
652.28	9.74
652.693	9.63
653.105	9.53
653.517	9.46
653.929	9.38
654.341	9.31
654.753	9.25
655.165	9.2
655.577	9.17
655.989	9.17
656.401	9.19
656.813	9.21
657.224	9.21
657.636	9.21
658.047	9.18
658.459	9.15
658.87	9.1
659.282	9.04
659.693	8.99
660.104	8.92
660.515	8.86
660.926	8.8
661.338	8.74
661.749	8.68
662.159	8.61
662.57	8.55
662.981	8.49
663.392	8.44
663.803	8.4
664.213	8.35
664.624	8.3
665.035	8.25
665.445	8.22
665.855	8.18
666.266	8.14
666.676	8.1
667.086	8.05
667.497	8
667.907	7.95
668.317	7.91
668.727	7.87
669.137	7.84
669.547	7.81
669.956	7.77
670.366	7.73
670.776	7.7
671.186	7.67
671.595	7.66
672.005	7.64
672.414	7.63
672.824	7.61
673.233	7.61
673.642	7.59
674.052	7.57
674.461	7.57
674.87	7.57
675.279	7.58
675.688	7.58
676.097	7.58
676.506	7.6
676.915	7.6
677.323	7.61
677.732	7.61
678.141	7.63
678.549	7.64
678.958	7.66
679.366	7.67
679.775	7.67
680.183	7.69
680.592	7.71
681	7.74
681.408	7.78
681.816	7.8
682.224	7.81
682.632	7.79
683.04	7.76
683.448	7.74
683.856	7.73
684.264	7.75
684.671	7.77
685.079	7.8
685.487	7.84
685.894	7.91
686.302	7.99
686.709	8.13
687.116	8.31
687.524	8.54
687.931	8.8
688.338	9.05
688.745	9.33
689.152	9.61
689.559	9.91
689.966	10.2
690.373	10.5
690.78	10.82
691.187	11.13
691.593	11.45
692	11.79
692.407	12.11
692.813	12.45
693.22	12.77
693.626	13.11
694.032	13.45
694.439	13.79
694.845	14.15
695.251	14.49
695.657	14.82
696.063	15.14
696.469	15.47
696.875	15.8
697.281	16.12
697.687	16.43
698.093	16.73
698.498	17.03
698.904	17.35
699.31	17.64
699.715	17.96
700.12	18.27
700.526	18.59
700.931	18.9
701.337	19.2
701.742	19.48
702.147	19.78
702.552	20.09
702.957	20.35
703.362	20.62
703.767	20.89
704.172	21.15
704.577	21.42
704.981	21.68
705.386	21.93
705.791	22.17
706.195	22.41
706.6	22.66
707.004	22.87
707.408	23.13
707.813	23.38
708.217	23.6
708.621	23.82
709.025	24.03
709.43	24.23
709.834	24.44
710.237	24.65
710.641	24.85
711.045	25.04
711.449	25.23
711.853	25.4
712.256	25.56
712.66	25.71
713.064	25.82
713.467	25.93
713.87	26.01
714.274	26.07
714.677	26.14
715.08	26.18
715.484	26.23
715.887	26.29
716.29	26.34
716.693	26.44
717.096	26.56
717.499	26.74
717.901	26.94
718.304	27.14
718.707	27.35
719.109	27.54
719.512	27.73
719.915	27.91
720.317	28.07
720.719	28.22
721.122	28.34
721.524	28.45
721.926	28.57
722.328	28.66
722.731	28.73
723.133	28.83
723.535	28.92
723.937	29.02
724.338	29.12
724.74	29.23
725.142	29.38
725.544	29.48
725.945	29.59
726.347	29.64
726.748	29.71
727.15	29.79
727.551	29.88
727.952	29.97
728.354	30.08
728.755	30.18
729.156	30.29
729.557	30.36
729.958	30.47
730.359	30.59
730.76	30.7
731.161	30.78
731.562	30.89
731.962	30.96
732.363	31.03
732.763	31.09
733.164	31.16
733.564	31.22
733.965	31.26
734.365	31.3
734.766	31.32
735.166	31.34
735.566	31.4
735.966	31.42
736.366	31.43
736.766	31.45
737.166	31.47
737.566	31.48
737.966	31.51
738.365	31.54
738.765	31.56
739.165	31.58
739.564	31.62
739.964	31.62
740.363	31.63
740.763	31.67
741.162	31.69
741.561	31.7
741.96	31.7
742.36	31.71
742.759	31.71
743.158	31.71
743.557	31.71
743.955	31.73
744.354	31.75
744.753	31.79
745.152	31.79
745.55	31.8
745.949	31.82
746.348	31.83
746.746	31.8
747.144	31.82
747.543	31.82
747.941	31.82
748.339	31.79
748.737	31.76
749.136	31.72
749.534	31.7
749.932	31.69
750.33	31.67
750.727	31.66
751.125	31.67
751.523	31.65
751.921	31.63
752.318	31.62
752.716	31.61
753.113	31.61
753.511	31.61
753.908	31.6
754.305	31.55
754.703	31.47
755.1	31.3
755.497	31.02
755.894	30.6
756.291	30.11
756.688	29.56
757.085	29.07
757.482	28.6
757.878	28.16
758.275	27.73
758.672	27.29
759.068	26.92
759.465	26.62
759.861	26.48
760.258	26.5
760.654	26.63
761.05	26.83
761.447	27.03
761.843	27.18
762.239	27.38
762.635	27.6
763.031	27.89
763.427	28.19
763.822	28.52
764.218	28.83
764.614	29.12
765.01	29.39
765.405	29.63
765.801	29.83
766.196	30.06
766.592	30.25
766.987	30.4
767.382	30.5
767.778	30.57
768.173	30.63
768.568	30.66
768.963	30.7
769.358	30.73
769.753	30.75
770.148	30.79
770.542	30.77
770.937	30.76
771.332	30.75
771.726	30.72
772.121	30.7
772.515	30.69
772.91	30.68
773.304	30.66
773.699	30.64
774.093	30.63
774.487	30.6
774.881	30.59
775.275	30.57
775.669	30.53
776.063	30.51
776.457	30.47
776.851	30.42
777.245	30.36
777.638	30.33
778.032	30.3
778.425	30.28
778.819	30.26
779.212	30.26
779.606	30.25
779.999	30.21
780.392	30.21
780.786	30.21
781.179	30.19
781.572	30.18
781.965	30.17
782.358	30.14
782.751	30.11
783.143	30.07
783.536	30.02
783.929	29.99
784.322	29.98
784.714	29.91
785.107	29.88
785.499	29.86
785.891	29.81
786.284	29.79
786.676	29.76
787.068	29.69
787.46	29.65
787.852	29.62
788.245	29.55
788.636	29.48
789.028	29.45
789.42	29.39
789.812	29.34
790.204	29.32
790.595	29.25
790.987	29.19
791.378	29.19
791.77	29.16
792.161	29.1
792.553	29.07
792.944	29.07
793.335	29.07
793.726	29.04
794.117	28.99
794.508	28.95
794.899	28.93
795.29	28.9
795.681	28.83
796.072	28.79
796.463	28.79
796.853	28.75
797.244	28.69
797.634	28.65
798.025	28.62
798.415	28.58
798.806	28.55
799.196	28.51
799.586	28.49
799.976	28.47
800.366	28.43
800.756	28.37
801.146	28.32
801.536	28.28
801.926	28.23
802.316	28.18
802.706	28.16
803.095	28.12
803.485	28.07
803.874	28.02
804.264	27.97
804.653	27.93
805.043	27.89
805.432	27.85
805.821	27.84
806.21	27.79
806.599	27.76
806.988	27.69
807.377	27.64
807.766	27.61
808.155	27.54
808.544	27.49
808.933	27.41
809.321	27.35
809.71	27.3
810.098	27.21
810.487	27.13
810.875	27.04
811.264	27
811.652	26.94
812.04	26.83
812.428	26.8
812.816	26.72
813.204	26.65
813.592	26.58
813.98	26.51
814.368	26.46
814.756	26.42
815.144	26.36
815.531	26.29
815.919	26.22
816.306	26.22
816.694	26.17
817.081	26.15
817.469	26.16
817.856	26.13
818.243	26.09
818.63	26.05
819.017	26
819.404	25.95
819.791	25.9
820.178	25.89
820.565	25.83
820.952	25.79
821.339	25.76
821.725	25.72
822.112	25.71
822.498	25.69
822.885	25.72
823.271	25.71
823.657	25.68
824.044	25.69
824.43	25.67
824.816	25.63
825.202	25.59
825.588	25.58
825.974	25.55
826.36	25.5
826.746	25.46
827.132	25.41
827.517	25.39
827.903	25.4
828.289	25.39
828.674	25.37
829.06	25.36
829.445	25.35
829.83	25.32
830.216	25.3
830.601	25.28
830.986	25.28
831.371	25.25
831.756	25.23
832.141	25.21
832.526	25.19
832.911	25.17
833.295	25.17
833.68	25.17
834.065	25.16
834.449	25.14
834.834	25.14
835.218	25.12
835.603	25.11
835.987	25.09
836.371	25.09
836.755	25.06
837.139	25.05
837.524	25.03
837.908	25.01
838.291	25.01
838.675	24.99
839.059	24.98
839.443	24.96
839.827	24.95
840.21	24.95
840.594	24.92
840.977	24.91
841.361	24.91
841.744	24.87
842.127	24.84
842.511	24.81
842.894	24.8
843.277	24.78
843.66	24.76
844.043	24.76
844.426	24.75
844.809	24.74
845.191	24.73
845.574	24.7
845.957	24.72
846.339	24.71
846.722	24.7
847.104	24.7
847.487	24.69
847.869	24.68
848.252	24.65
848.634	24.62
849.016	24.61
849.398	24.6
849.78	24.59
850.162	24.55
850.544	24.54
850.926	24.51
851.307	24.48
851.689	24.46
852.071	24.46
852.452	24.46
852.834	24.46
853.215	24.45
853.597	24.45
853.978	24.44
854.359	24.46
854.741	24.45
855.122	24.48
855.503	24.47
855.884	24.46
856.265	24.45
856.646	24.43
857.026	24.42
857.407	24.41
857.788	24.41
858.169	24.4
858.549	24.39
858.93	24.38
859.31	24.36
859.69	24.35
860.071	24.37
860.451	24.36
860.831	24.35
861.211	24.33
861.591	24.31
861.971	24.27
862.351	24.27
862.731	24.24
863.111	24.22
863.491	24.21
863.87	24.19
864.25	24.16
864.629	24.13
865.009	24.12
865.388	24.12
865.768	24.12
866.147	24.13
866.526	24.13
866.905	24.13
867.284	24.12
867.663	24.11
868.042	24.1
868.421	24.11
868.8	24.12
869.179	24.12
869.558	24.1
869.936	24.08
870.315	24.07
870.693	24.05
871.072	24.04
871.45	24.05
871.828	24.05
872.207	24.06
872.585	24.05
872.963	24.03
873.341	24.01
873.719	24.02
874.097	24.02
874.475	24.03
874.853	24.02
875.23	24.02
875.608	24.01
875.986	24.02
876.363	24.01
876.741	23.99
877.118	24
877.495	24.01
877.873	24
878.25	24
878.627	23.99
879.004	24
879.381	24
879.758	23.98
880.135	23.96
880.512	23.96
880.889	23.97
881.265	23.98
881.642	23.98
882.019	23.99
882.395	23.99
882.772	23.97
883.148	23.94
883.524	23.93
883.901	23.94
884.277	23.94
884.653	23.93
885.029	23.92
885.405	23.9
885.781	23.89
886.157	23.87
886.532	23.88
886.908	23.87
887.284	23.89
887.659	23.88
888.035	23.88
888.411	23.88
888.786	23.88
889.161	23.88
889.537	23.87
889.912	23.87
890.287	23.88
890.662	23.87
891.037	23.86
891.412	23.83
891.787	23.82
892.162	23.79
892.536	23.79
892.911	23.78
893.286	23.76
893.66	23.75
894.035	23.75
894.409	23.72
894.784	23.69
895.158	23.68
895.532	23.68
895.906	23.67
896.281	23.66
896.655	23.62
897.029	23.59
897.402	23.57
897.776	23.57
898.15	23.56
898.524	23.55
898.898	23.56
899.271	23.54
899.645	23.52
900.018	23.53
900.392	23.55
900.765	23.57
901.138	23.58
901.511	23.6
901.884	23.59
902.258	23.57
902.631	23.57
903.003	23.57
903.376	23.57
903.749	23.57
904.122	23.56
904.495	23.55
904.867	23.54
905.24	23.54
905.612	23.53
905.985	23.52
906.357	23.52
906.729	23.53
907.102	23.51
907.474	23.52
907.846	23.52
908.218	23.51
908.59	23.52
908.962	23.51
909.334	23.49
909.705	23.48
910.077	23.5
910.449	23.5
910.82	23.49
911.192	23.48
911.563	23.46
911.935	23.43
912.306	23.44
912.677	23.43
913.048	23.43
913.419	23.44
913.79	23.42
914.161	23.42
914.532	23.41
914.903	23.39
915.274	23.4
915.645	23.42
916.015	23.45
916.386	23.42
916.756	23.42
917.127	23.45
917.497	23.43
917.868	23.44
918.238	23.44
918.608	23.46
918.978	23.48
919.348	23.47
919.718	23.47
920.088	23.45
920.458	23.45
920.828	23.44
921.198	23.41
921.567	23.43
921.937	23.43
922.306	23.39
922.676	23.36
923.045	23.34
923.415	23.33
923.784	23.32
924.153	23.32
924.522	23.33
924.891	23.31
925.26	23.31
925.629	23.29
925.998	23.27
926.367	23.29
926.736	23.28
927.104	23.29
927.473	23.28
927.842	23.25
928.21	23.25
928.578	23.23
928.947	23.23
929.315	23.2
929.683	23.18
930.051	23.17
930.42	23.15
930.788	23.15
931.156	23.13
931.523	23.12
931.891	23.15
932.259	23.12
932.627	23.1
932.994	23.08
933.362	23.1
933.729	23.1
934.097	23.11
934.464	23.12
934.831	23.12
935.199	23.12
935.566	23.13
935.933	23.11
936.3	23.12
936.667	23.11
937.034	23.14
937.401	23.13
937.767	23.12
938.134	23.15
938.501	23.13
938.867	23.15
939.234	23.11
939.6	23.07
939.967	23.07
940.333	23.02
940.699	23.07
941.065	23.02
941.431	23
941.798	23.01
942.163	22.98
942.529	22.97
942.895	22.98
943.261	22.99
943.627	23.01
943.992	22.97
944.358	22.99
944.723	22.96
945.089	22.97
945.454	22.98
945.82	22.98
946.185	22.98
946.55	22.95
946.915	22.93
947.28	22.97
947.645	22.97
948.01	23.02
948.375	23.01
948.74	22.99
949.104	23.02
949.469	23.01
949.834	22.95
950.198	22.97
950.562	22.99
950.927	22.98
951.291	22.93
951.655	22.89
952.02	22.87
952.384	22.84
952.748	22.86
953.112	22.83
953.476	22.82
953.839	22.82
954.203	22.73
954.567	22.71
954.931	22.68
955.294	22.68
955.658	22.75
956.021	22.71
956.385	22.73
956.748	22.71
957.111	22.7
957.474	22.7
957.837	22.69
958.2	22.7
958.563	22.71
958.926	22.75
959.289	22.73
959.652	22.65
960.015	22.67
960.377	22.64
960.74	22.66
961.102	22.65
961.465	22.67
961.827	22.71
962.189	22.73
962.552	22.7
962.914	22.69
963.276	22.72
963.638	22.78
964	22.77
964.362	22.81
964.724	22.77
965.085	22.8
965.447	22.77
965.809	22.77
966.17	22.75
966.532	22.77
966.893	22.8
967.255	22.78
967.616	22.75
967.977	22.76
968.338	22.74
968.699	22.73
969.061	22.73
969.421	22.73
969.782	22.75
970.143	22.77
970.504	22.76
970.865	22.75
971.225	22.76
971.586	22.77
971.946	22.74
972.307	22.79
972.667	22.79
973.027	22.84
973.388	22.84
973.748	22.8
974.108	22.86
974.468	22.86
974.828	22.86
975.188	22.82
975.548	22.78
975.907	22.82
976.267	22.75
976.627	22.8
976.986	22.69
977.346	22.67
977.705	22.66
978.064	22.64
978.424	22.69
978.783	22.64
979.142	22.63
979.501	22.69
979.86	22.69
980.219	22.74
980.578	22.76
980.937	22.84
981.296	22.87
981.654	22.86
982.013	22.85
982.371	22.79
982.73	22.83
983.088	22.86
983.447	22.81
983.805	22.85
984.163	22.78
984.521	22.71
984.879	22.64
985.237	22.65
985.595	22.74
985.953	22.7
986.311	22.72
986.669	22.69
987.026	22.71
987.384	22.72
987.741	22.64
988.099	22.75
988.456	22.7
988.814	22.72
989.171	22.72
989.528	22.68
989.885	22.74
990.242	22.68
990.599	22.73
990.956	22.74
991.313	22.78
991.67	22.81
992.027	22.84
992.383	22.99
992.74	23.09
993.096	23.09
993.453	23.06
993.809	23.08
994.165	23.16
994.522	23.21
994.878	23.21
995.234	23.17
995.59	23.18
995.946	23.09
996.302	23
996.658	22.96
997.013	22.98
997.369	23.06
997.725	23.05
998.08	23.05
998.436	22.96
998.791	22.95
999.147	23
999.502	23.04
999.857	23.15
1000.212	23.11
1000.567	23.09
1000.922	23.1
1001.277	22.97
1001.632	22.93
1001.987	22.89
1002.342	22.79
1002.696	22.75
1003.051	22.78
1003.406	22.87
1003.76	22.75
1004.114	22.79
1004.469	22.9
1004.823	23.01
1005.177	23.06
1005.531	23.14
1005.885	23.09
1006.239	23.25
1006.593	23.44
1006.947	23.4
1007.301	23.22
1007.655	23.21
1008.008	23.28
1008.362	23.17
1008.715	22.96
1009.069	23.05
1009.422	22.92
1009.776	23.08
1010.129	23.11
1010.482	23.05
1010.835	23.12
1011.188	23.16
1011.541	23.25
1011.894	23.2
1012.247	23.25
1012.6	23.33
1012.952	23.25
1013.305	23.28
1013.657	23.34
1014.01	23.29
1014.362	23.21
1014.715	23.19
1015.067	23.23
1015.419	23.39
1015.771	23.41
1016.123	23.4
1016.475	23.46
1016.827	23.54
1017.179	23.85
1017.531	23.85
1017.883	23.9
1018.234	24.01
1018.586	24.01
1018.938	24.1
1019.289	23.86
1019.64	23.84
1019.992	23.82
1020.343	23.78
1020.694	23.66
1021.045	23.39
1021.396	23.32
1021.747	23.35
1022.098	23.36
1022.449	23.29
1022.8	23.26
1023.151	23.23
1023.501	23.54
1023.852	23.72
1024.202	23.59
1024.553	23.73
1024.903	23.87
1025.253	23.98
1025.604	23.99
1025.954	23.98
1026.304	24.2
1026.654	24.29
1027.004	24.32
1027.354	24.12
1027.703	24.05
1028.053	24.21
1028.403	24.17
1028.753	23.74
1029.102	23.73
1029.452	23.7
1029.801	23.74
1030.15	23.56
1030.499	23.4
897.758	974.66
901.051	978.32
904.343	982.16
907.636	997.44
910.928	970.04
914.22	971.22
917.511	955.33
920.803	913.42
924.094	908.57
927.384	883.04
930.675	846.74
933.965	847.86
937.255	797.91
940.544	762.19
943.834	724.79
947.123	720.27
950.411	678.08
953.7	665.78
956.988	630.49
960.276	606.69
963.563	595.46
966.851	574.03
970.138	567.78
973.424	550.88
976.711	553.4
979.997	526.21
983.283	521.16
986.568	509.51
989.853	494.22
993.138	484.34
996.423	464.78
999.708	452.44
1002.992	445.7
1006.275	426.16
1009.559	420.5
1012.842	406.48
1016.125	397.43
1019.408	388.3
1022.69	382.9
1025.972	373.53
1029.254	365.47
1032.536	359.36
1035.817	350.05
1039.098	347.31
1042.379	339.74
1045.659	336.4
1048.939	326.14
1052.219	318.85
1055.498	315.28
1058.778	307.33
1062.057	301.14
1065.335	297.47
1068.614	292.54
1071.892	290.26
1075.17	281.06
1078.447	275.05
1081.724	272.33
1085.001	270.06
1088.278	264.88
1091.554	259.1
1094.83	258.54
1098.106	256.44
1101.382	254.51
1104.657	253.28
1107.932	248.4
1111.206	249.68
1114.481	243.26
1117.755	241.26
1121.029	239.46
1124.302	237.62
1127.575	234.1
1130.848	231.91
1134.121	229.57
1137.393	227.58
1140.665	222.4
1143.937	221.63
1147.208	218.88
1150.48	218.31
1153.75	216.53
1157.021	213.92
1160.291	213.91
1163.561	210.85
1166.831	211.16
1170.101	208.68
1173.37	209.44
1176.639	210.17
1179.907	207.75
1183.176	205.76
1186.444	205.94
1189.711	204.41
1192.979	203.38
1196.246	202.85
1199.513	203.83
1202.78	202.15
1206.046	202.1
1209.312	200.15
1212.578	200.14
1215.843	202.33
1219.108	201.49
1222.373	204.91
1225.638	206.55
1228.902	209.58
1232.166	210.13
1235.43	211.35
1238.693	214.43
1241.956	215.78
1245.219	218.27
1248.482	218.18
1251.744	217.72
1255.006	218.1
1258.268	213.17
1261.529	211.77
1264.79	210.12
1268.051	208.58
1271.312	205.98
1274.572	203.6
1277.832	201.48
1281.092	198.02
1284.351	196.9
1287.61	196.94
1290.869	193.93
1294.128	192.98
1297.386	192.22
1300.644	190.27
1303.902	190.49
1307.159	190.29
1310.416	189.75
1313.673	189.28
1316.93	191.65
1320.186	191.34
1323.442	191.96
1326.697	195.16
1329.953	196.03
1333.208	197.2
1336.463	200.07
1339.717	200.5
1342.972	202.75
1346.226	204.98
1349.479	206.18
1352.733	207.08
1355.986	208.05
1359.238	208
1362.491	208.9
1365.743	211.14
1368.995	210.74
1372.247	212.77
1375.498	212.02
1378.749	214.37
1382	211.95
1385.251	212.89
1388.501	211.58
1391.751	213.16
1395	212.68
1398.25	211.66
1401.499	210.33
1404.748	210.99
1407.996	206.81
1411.244	206.57
1414.492	204.54
1417.74	203.38
1420.987	200.6
1424.234	200.24
1427.481	197.41
1430.728	197.25
1433.974	195.33
1437.22	193.75
1440.465	193.42
1443.711	191.5
1446.956	190.05
1450.201	188.78
1453.445	186.45
1456.689	185.4
1459.933	182.53
1463.177	181.83
1466.42	178.14
1469.663	176.05
1472.906	174.81
1476.148	170.41
1479.391	168.33
1482.633	167.1
1485.874	163.54
1489.115	162.5
1492.356	160.62
1495.597	159.51
1498.838	156.87
1502.078	156.35
1505.318	155.7
1508.557	155.28
1511.797	154.62
1515.036	153.65
1518.274	152.04
1521.513	151.46
1524.751	150.85
1527.989	150.29
1531.227	150.04
1534.464	149.62
1537.701	148.5
1540.938	147.96
1544.174	146.28
1547.41	146.04
1550.646	145.14
1553.882	145.89
1557.117	144.03
1560.352	142.9
1563.587	142.51
1566.821	141.51
1570.055	139.97
1573.289	138.91
1576.523	138.33
1579.756	137.59
1582.989	136.41
1586.222	136.43
1589.454	135.12
1592.686	135.73
1595.918	135.41
1599.15	134.51
1602.381	135.17
1605.612	135.19
1608.843	135.24
1612.073	135.13
1615.303	135.71
1618.533	135.9
1621.762	135.9
1624.992	136.64
1628.221	136.02
1631.449	135.5
1634.678	135.68
1637.906	135.52
1641.134	136.13
1644.361	135.97
1647.588	136.04
1650.815	135.43
1654.042	135
1657.269	135.41
1660.495	135.15
1663.72	134.97
1666.946	136.23
1670.171	136.42
1673.396	135.67
1676.621	135.8
1679.845	136.49
1683.069	136.49
1686.293	137.46
1689.517	138.58
1692.74	138.46
1695.963	138.46
1699.185	139.58
1702.408	139.46
1705.63	140.24
1708.852	141.44
1712.073	140.83
1715.294	140.97
1718.515	142.39
1721.736	141.82
1724.956	142.31
1728.176	142.44
1731.396	143.5
1734.616	143.52
1737.835	144.33
1741.054	142.98
1744.272	143.6
1747.491	145.09
1750.709	145.94
1753.927	145.75
1757.144	145.84
1760.361	145.98
1763.578	146.53
1766.795	146.6
1770.011	147.3
1773.227	147.09
1776.443	148.87
1779.658	149.19
1782.874	149.14
1786.089	149.33
1789.303	149.88
1792.518	151.49
1795.732	151.69
1798.945	152.72
1802.159	153.19
1805.372	154.13
1808.585	156.36
1811.797	157.37
1815.01	158.17
1818.222	159.51
1821.434	160.77
1824.645	161.18
1827.856	163.66
1831.067	165.13
1834.278	164.35
1837.488	166.09
1840.698	166.74
1843.908	165.81
1847.117	166.33
1850.326	166.84
1853.535	166.45
1856.744	168.75
1859.952	169.32
1863.16	168.41
1866.368	167.74
1869.575	170.71
1872.782	168.44
1875.989	167.96
1879.196	167.8
1882.402	167.21
1885.608	167.96
1888.814	168.87
1892.019	168.25
1895.224	168.1
1898.429	167.69
1901.634	168.68
1904.838	168.09
1908.042	170.19
1911.246	170.82
1914.449	171.8
1917.652	171.65
1920.855	171.31
1924.058	171.41
1927.26	170.95
1930.462	170.94
1933.664	172.5
1936.865	171.28
1940.066	172
1943.267	169.62
1946.467	170.68
1949.668	171.41
1952.868	173.65
1956.067	173.9
1959.267	173.89
1962.466	174.27
1965.665	173.95
1968.863	174.51
1972.061	177.84
1975.259	178.19
1978.457	180.91
1981.654	182.12
1984.852	182.55
1988.048	182.12
1991.245	183.94
1994.441	185.82
1997.637	187.04
2000.833	191.17
2004.028	193.16
2007.223	193.48
2010.418	195.58
2013.613	198.81
2016.807	200.68
2020.001	202.64
2023.194	206.22
2026.388	209.66
2029.581	214.38
2032.774	217.5
2035.966	220
2039.158	220.9
2042.35	225.18
2045.542	227.81
2048.733	230.07
2051.924	232.64
2055.115	236.69
2058.306	236.65
2061.496	239.29
2064.686	238.95
2067.875	242.88
2071.065	244.5
2074.254	243.49
2077.442	245.87
2080.631	246.67
2083.819	250.32
2087.007	250.92
2090.195	252.77
2093.382	254.97
2096.569	253.91
2099.756	258.88
2102.942	258.73
2106.128	261.09
2109.314	266.56
2112.5	265.85
2115.685	271.85
2118.87	271.86
2122.055	278.11
2125.239	279.76
2128.424	284.37
2131.608	285.89
2134.791	288.89
2137.974	289.77
2141.157	291.21
2144.34	292.3
2147.523	295.64
2150.705	292.59
2153.887	296.09
2157.068	295.6
2160.25	294.93
2163.431	295.31
2166.611	298.95
2169.792	304.22
2172.972	307.3
2176.152	309.86
2179.331	313.37
2182.511	318.79
2185.69	322.22
2188.868	328.85
2192.047	330.58
2195.225	339.47
2198.403	347.93
2201.58	355.47
2204.758	362.18
2207.935	369.72
2211.111	375.56
2214.288	380.82
2217.464	382.31
2220.64	389.41
2223.815	393.51
2226.991	407.89
2230.166	408.13
2233.34	414.22
2236.515	418.38
2239.689	419.63
2242.863	423.27
2246.036	435.28
2249.209	431.76
2252.382	440.76
2255.555	452.61
2258.727	454.14
2261.9	457.61
2265.071	462.6
2268.243	471.46
2271.414	477.93
2274.585	488.52
2277.756	491.85
2280.926	496.65
2284.096	510.42
2287.266	518.72
2290.436	522.68
2293.605	534.78
2296.774	552.07
2299.942	568.18
2303.111	573.12
2306.279	585.95
2309.447	592.84
2312.614	609.02
2315.781	625.74
2318.948	652.44
2322.115	645.39
2325.281	684.68
2328.447	668
2331.613	691.35
2334.779	685.88
2337.944	715.06
2341.109	722.93
2344.274	746.71
2347.438	768.17
2350.602	765.46
2353.766	791.59
2356.929	804.22
2360.092	792.04
2363.255	854.11
2366.418	855.55
2369.58	871.19
2372.742	917.72
2375.904	944.61
2379.066	934.9
2382.227	924.14
2385.388	1004.55
2388.548	1003.98
2391.709	1015.07
2394.869	1136.73
2398.029	1085.33
2401.188	1116.22
2404.347	1107.79
2407.506	1094.57
2410.665	1123.16
2413.823	1190.94
2416.981	1262.55
2420.139	1218.62
2423.296	1212.37
2426.453	1262.37
2429.61	1211.17
2432.767	1267.39
2435.923	1250.08
2439.079	1374.22
2442.235	1389.51
2445.391	1377.8
2448.546	1364.82
2451.701	1325.89
2454.855	1327.14
2458.009	1394.99
2461.163	1458.23
2464.317	1514.8
2467.471	1550.3
2470.624	1558.79
2473.777	1511.12
2476.929	1476.64
2480.082	1429.55
2483.234	1418.04
2486.385	1490.27
2489.537	1497.24
2492.688	1555.27
2495.839	1509.95
2498.989	1474.55
2502.14	1486.62
2505.29	1497.01
2508.439	1520.84
2511.589	1517.42
2514.738	1657.78
2517.887	1618.26
2521.035	1700.14
2524.183	1717.33
2527.331	1727.91
2530.479	1718.44
2533.627	1731.52
