Data from C_1_DEC_ON_6N_Splice17_12-45-20-606.txt Node
Date: Sat Mar 07 12:45:20 EST 2020
User: sa697716
Spectrometer: NQ5500242
Trigger mode: 0
Integration Time (sec): 1.450000E-1
Scans to average: 20
Nonlinearity correction enabled: false
Boxcar width: 5
Storing dark spectrum: false
XAxis mode: Wavelengths
Number of Pixels in Spectrum: 512
>>>>>Begin Spectral Data<<<<<
187.83	109.08
188.298	117.81
188.766	86.61
189.233	89.22
189.701	100.37
190.169	98.77
190.636	83.69
191.104	27.81
191.571	-83.47
192.039	-215.3
192.506	-315.89
192.974	132.09
193.441	133
193.908	25.25
194.375	38.02
194.842	11.33
195.31	-4.38
195.777	-127.8
196.244	9.49
196.711	26.83
197.177	29.59
197.644	31.26
198.111	30.77
198.578	31.49
199.045	31.8
199.511	31.98
199.978	32.3
200.445	32.32
200.911	32.18
201.378	32.44
201.844	32.39
202.31	32.11
202.777	32.01
203.243	31.75
203.709	31.67
204.176	31.42
204.642	31.48
205.108	31.23
205.574	30.98
206.04	30.82
206.506	30.46
206.972	30.37
207.438	30.21
207.903	29.96
208.369	29.68
208.835	29.02
209.301	28.43
209.766	27.41
210.232	26.89
210.697	26.19
211.163	25.64
211.628	25.16
212.094	24.67
212.559	24.38
213.024	23.78
213.49	23.31
213.955	22.92
214.42	22.47
214.885	22.02
215.35	21.23
215.815	20.19
216.28	18.94
216.745	17.6
217.21	16.28
217.675	15.02
218.14	14.03
218.604	13.13
219.069	12.31
219.534	11.69
219.998	11.19
220.463	10.74
220.927	10.37
221.392	10.11
221.856	9.81
222.32	9.55
222.785	9.34
223.249	9.14
223.713	8.96
224.177	8.85
224.642	8.7
225.106	8.55
225.57	8.42
226.034	8.31
226.497	8.17
226.961	8.06
227.425	7.96
227.889	7.87
228.353	7.79
228.816	7.7
229.28	7.59
229.744	7.51
230.207	7.41
230.671	7.32
231.134	7.22
231.597	7.17
232.061	7.11
232.524	7.04
232.987	6.97
233.45	6.89
233.914	6.81
234.377	6.74
234.84	6.68
235.303	6.63
235.766	6.58
236.229	6.53
236.691	6.46
237.154	6.4
237.617	6.34
238.08	6.29
238.542	6.23
239.005	6.19
239.468	6.14
239.93	6.1
240.393	6.05
240.855	5.98
241.317	5.93
241.78	5.88
242.242	5.82
242.704	5.78
243.166	5.73
243.629	5.69
244.091	5.65
244.553	5.59
245.015	5.54
245.477	5.49
245.939	5.45
246.4	5.41
246.862	5.38
247.324	5.34
247.786	5.29
248.247	5.25
248.709	5.2
249.17	5.15
249.632	5.14
250.093	5.11
250.555	5.08
251.016	5.05
251.477	5.02
251.939	4.99
252.4	4.97
252.861	4.95
253.322	4.92
253.783	4.9
254.244	4.88
254.705	4.84
255.166	4.81
255.627	4.78
256.088	4.76
256.549	4.75
257.009	4.72
257.47	4.68
257.931	4.65
258.391	4.62
258.852	4.59
259.312	4.57
259.773	4.54
260.233	4.52
260.694	4.5
261.154	4.47
261.614	4.44
262.074	4.41
262.534	4.39
262.994	4.37
263.455	4.35
263.915	4.33
264.374	4.31
264.834	4.29
265.294	4.28
265.754	4.26
266.214	4.24
266.673	4.23
267.133	4.23
267.593	4.22
268.052	4.21
268.512	4.2
268.971	4.19
269.431	4.18
269.89	4.17
270.349	4.16
270.809	4.15
271.268	4.14
271.727	4.12
272.186	4.12
272.645	4.11
273.104	4.09
273.563	4.08
274.022	4.07
274.481	4.06
274.94	4.05
275.399	4.04
275.857	4.03
276.316	4.02
276.775	4.01
277.233	4
277.692	3.99
278.15	3.98
278.609	3.97
279.067	3.96
279.525	3.96
279.984	3.94
280.442	3.94
280.9	3.93
281.358	3.92
281.816	3.92
282.274	3.91
282.732	3.9
283.19	3.89
283.648	3.88
284.106	3.87
284.564	3.86
285.021	3.86
285.479	3.85
285.937	3.84
286.394	3.83
286.852	3.81
287.309	3.8
287.767	3.79
288.224	3.78
288.682	3.76
289.139	3.75
289.596	3.74
290.053	3.73
290.511	3.7
290.968	3.69
291.425	3.67
291.882	3.67
292.339	3.66
292.796	3.65
293.252	3.64
293.709	3.64
294.166	3.63
294.623	3.62
295.079	3.61
295.536	3.61
295.992	3.61
296.449	3.6
296.905	3.59
297.362	3.58
297.818	3.57
298.274	3.57
298.731	3.56
299.187	3.55
299.643	3.54
300.099	3.54
300.555	3.53
301.011	3.52
301.467	3.52
301.923	3.5
302.379	3.5
302.835	3.5
303.291	3.49
303.746	3.49
304.202	3.49
304.658	3.5
305.113	3.49
305.569	3.49
306.024	3.49
306.479	3.49
306.935	3.48
307.39	3.48
307.845	3.47
308.301	3.47
308.756	3.46
309.211	3.46
309.666	3.46
310.121	3.46
310.576	3.45
311.031	3.45
311.486	3.45
311.94	3.45
312.395	3.45
312.85	3.45
313.305	3.46
313.759	3.46
314.214	3.46
314.668	3.45
315.123	3.44
315.577	3.44
316.032	3.43
316.486	3.43
316.94	3.42
317.394	3.42
317.849	3.41
318.303	3.39
318.757	3.38
319.211	3.37
319.665	3.36
320.119	3.36
320.572	3.35
321.026	3.35
321.48	3.34
321.934	3.33
322.387	3.33
322.841	3.32
323.295	3.32
323.748	3.31
324.202	3.31
324.655	3.31
325.108	3.31
325.562	3.3
326.015	3.3
326.468	3.31
326.921	3.3
327.374	3.3
327.827	3.31
328.28	3.3
328.733	3.3
329.186	3.3
329.639	3.3
330.092	3.3
330.545	3.3
330.997	3.29
331.45	3.29
331.903	3.3
332.355	3.3
332.808	3.3
333.26	3.29
333.713	3.29
334.165	3.28
334.617	3.28
335.069	3.27
335.522	3.27
335.974	3.27
336.426	3.26
336.878	3.25
337.33	3.24
337.782	3.24
338.234	3.24
338.686	3.24
339.137	3.25
339.589	3.24
340.041	3.24
340.493	3.23
340.944	3.21
341.396	3.22
341.847	3.21
342.299	3.2
342.75	3.19
343.201	3.18
343.653	3.18
344.104	3.16
344.555	3.15
345.006	3.14
345.457	3.13
345.908	3.14
346.359	3.13
346.81	3.13
347.261	3.13
347.712	3.13
348.163	3.12
348.613	3.12
349.064	3.12
349.515	3.12
349.965	3.11
350.416	3.11
350.866	3.1
351.317	3.09
351.767	3.09
352.217	3.08
352.668	3.08
353.118	3.08
353.568	3.07
354.018	3.07
354.468	3.07
354.918	3.07
355.368	3.07
355.818	3.07
356.268	3.07
356.718	3.07
357.168	3.07
357.617	3.06
358.067	3.06
358.517	3.07
358.966	3.08
359.416	3.08
359.865	3.07
360.315	3.08
360.764	3.08
361.213	3.08
361.663	3.08
362.112	3.09
362.561	3.1
363.01	3.1
363.459	3.08
363.908	3.08
364.357	3.08
364.806	3.07
365.255	3.07
365.703	3.07
366.152	3.08
366.601	3.08
367.05	3.08
367.498	3.08
367.947	3.09
368.395	3.1
368.844	3.1
369.292	3.11
369.74	3.12
370.189	3.12
370.637	3.11
371.085	3.1
371.533	3.11
371.981	3.11
372.429	3.11
372.877	3.12
373.325	3.12
373.773	3.13
374.221	3.12
374.669	3.12
375.116	3.12
375.564	3.13
376.012	3.14
376.459	3.14
376.907	3.16
377.354	3.16
377.801	3.17
378.249	3.18
378.696	3.19
379.143	3.2
379.591	3.22
380.038	3.24
380.485	3.26
380.932	3.27
381.379	3.28
381.826	3.3
382.273	3.31
382.72	3.31
383.166	3.33
383.613	3.34
384.06	3.35
384.506	3.36
384.953	3.37
385.4	3.38
385.846	3.39
386.292	3.4
386.739	3.4
387.185	3.42
387.631	3.43
388.078	3.45
388.524	3.46
388.97	3.47
389.416	3.49
389.862	3.5
390.308	3.53
390.754	3.55
391.2	3.57
391.645	3.59
392.091	3.61
392.537	3.63
392.983	3.64
393.428	3.66
393.874	3.68
394.319	3.7
394.765	3.71
395.21	3.71
395.655	3.72
396.101	3.74
396.546	3.75
396.991	3.77
397.436	3.78
397.881	3.81
398.326	3.82
398.771	3.83
399.216	3.85
399.661	3.86
400.106	3.88
400.551	3.88
400.995	3.88
401.44	3.9
401.885	3.9
402.329	3.91
402.774	3.91
403.218	3.93
403.663	3.93
404.107	3.93
404.551	3.93
404.995	3.93
405.44	3.93
405.884	3.93
406.328	3.94
406.772	3.93
407.216	3.92
407.66	3.91
408.104	3.9
408.547	3.9
408.991	3.9
409.435	3.9
409.879	3.9
410.322	3.91
410.766	3.93
411.209	3.93
411.653	3.94
412.096	3.95
412.54	3.96
412.983	3.96
413.426	3.98
413.869	3.98
414.312	4
414.756	4
415.199	4
415.642	3.99
416.085	3.98
416.527	3.96
416.97	3.95
417.413	3.95
417.856	3.94
418.298	3.93
418.741	3.94
419.184	3.94
419.626	3.94
420.069	3.94
420.511	3.94
420.953	3.96
421.396	3.97
421.838	3.97
422.28	3.98
422.722	3.99
423.164	3.99
423.606	3.98
424.048	3.97
424.49	3.97
424.932	3.96
425.374	3.94
425.816	3.91
426.258	3.89
426.699	3.88
427.141	3.86
427.582	3.87
428.024	3.86
428.465	3.87
428.907	3.87
429.348	3.85
429.789	3.84
430.231	3.85
430.672	3.87
431.113	3.89
431.554	3.91
431.995	3.93
432.436	3.92
432.877	3.93
433.318	3.93
433.759	3.95
434.2	3.98
434.64	4
435.081	4.01
435.522	4.03
435.962	4.03
436.403	4.04
436.843	4.04
437.284	4.03
437.724	4.04
438.164	4.03
438.604	4.03
439.045	4.02
439.485	4.03
439.925	4.03
440.365	4.02
440.805	4.02
441.245	4.04
441.685	4.05
442.125	4.08
442.564	4.07
443.004	4.08
443.444	4.09
443.883	4.1
444.323	4.09
444.762	4.1
445.202	4.1
445.641	4.11
446.081	4.11
446.52	4.11
446.959	4.12
447.398	4.14
447.837	4.15
448.276	4.14
448.716	4.15
449.154	4.17
449.593	4.18
450.032	4.19
450.471	4.19
450.91	4.18
451.349	4.18
451.787	4.16
452.226	4.14
452.664	4.14
453.103	4.14
453.541	4.14
453.98	4.13
454.418	4.11
454.856	4.11
455.295	4.1
455.733	4.08
456.171	4.07
456.609	4.06
457.047	4.05
457.485	4.04
457.923	4.05
458.361	4.04
458.798	4.04
459.236	4.04
459.674	4.04
460.111	4.03
460.549	4.04
460.987	4.06
461.424	4.06
461.862	4.08
462.299	4.09
462.736	4.08
463.173	4.09
463.611	4.08
464.048	4.09
464.485	4.1
464.922	4.1
465.359	4.1
465.796	4.1
466.233	4.1
466.67	4.1
467.106	4.1
467.543	4.1
467.98	4.09
468.416	4.1
468.853	4.1
469.29	4.09
469.726	4.1
470.162	4.09
470.599	4.09
471.035	4.08
471.471	4.08
471.907	4.07
472.344	4.06
472.78	4.07
473.216	4.06
473.652	4.05
474.088	4.04
474.523	4.04
474.959	4.04
475.395	4.02
475.831	4.02
476.266	4.01
476.702	4.01
477.138	4
477.573	3.99
478.008	3.99
478.444	3.99
478.879	3.99
479.314	3.98
479.75	3.98
480.185	3.98
480.62	3.97
481.055	3.96
481.49	3.95
481.925	3.95
482.36	3.95
482.795	3.94
483.229	3.93
483.664	3.94
484.099	3.93
484.534	3.92
484.968	3.92
485.403	3.93
485.837	3.94
486.271	3.95
486.706	3.95
487.14	3.95
487.574	3.97
488.009	3.98
488.443	3.99
488.877	4.01
489.311	4.03
489.745	4.05
490.179	4.07
490.613	4.09
491.046	4.11
491.48	4.13
491.914	4.16
492.348	4.18
492.781	4.21
493.215	4.24
493.648	4.27
494.082	4.29
494.515	4.32
494.948	4.35
495.382	4.38
495.815	4.42
496.248	4.47
496.681	4.51
497.114	4.56
497.547	4.61
497.98	4.66
498.413	4.71
498.846	4.78
499.279	4.84
499.711	4.91
500.144	4.98
500.577	5.05
501.009	5.13
501.442	5.2
501.874	5.3
502.306	5.38
502.739	5.48
503.171	5.58
503.603	5.68
504.036	5.79
504.468	5.9
504.9	6.01
505.332	6.13
505.764	6.26
506.196	6.39
506.627	6.53
507.059	6.67
507.491	6.8
507.923	6.95
508.354	7.12
508.786	7.3
509.217	7.47
509.649	7.65
510.08	7.83
510.512	8.03
510.943	8.22
511.374	8.41
511.805	8.61
512.237	8.83
512.668	9.04
513.099	9.26
513.53	9.47
513.961	9.69
514.391	9.92
514.822	10.16
515.253	10.4
515.684	10.63
516.114	10.88
516.545	11.14
516.975	11.4
517.406	11.66
517.836	11.91
518.267	12.18
518.697	12.44
519.127	12.69
519.558	12.94
519.988	13.2
520.418	13.46
520.848	13.7
521.278	13.95
521.708	14.31
522.138	14.55
522.567	14.78
522.997	14.99
523.427	15.21
523.857	15.43
524.286	15.64
524.716	15.86
525.145	16.07
525.575	16.28
526.004	16.49
526.433	16.56
526.863	16.73
527.292	16.91
527.721	17.09
528.15	17.26
528.579	17.42
529.008	17.57
529.437	17.72
529.866	17.84
530.295	17.98
530.724	18.11
531.152	18.23
531.581	18.36
532.01	18.47
532.438	18.58
532.867	18.69
533.295	18.79
533.723	18.89
534.152	18.97
534.58	19.06
535.008	19.11
535.436	19.18
535.865	19.25
536.293	19.29
536.721	19.36
537.149	19.41
537.576	19.46
538.004	19.52
538.432	19.56
538.86	19.61
539.287	19.65
539.715	19.72
540.143	19.76
540.57	19.81
540.998	19.86
541.425	19.89
541.852	19.94
542.28	19.97
542.707	19.99
543.134	20.03
543.561	20.06
543.988	20.11
544.415	20.12
544.842	20.14
545.269	20.16
545.696	20.19
546.123	20.22
546.549	20.25
546.976	20.29
547.403	20.32
547.829	20.34
548.256	20.36
548.682	20.38
549.108	20.41
549.535	20.43
549.961	20.44
550.387	20.44
550.813	20.46
551.24	20.45
551.666	20.43
552.092	20.41
552.518	20.41
552.943	20.38
553.369	20.36
553.795	20.32
554.221	20.29
554.646	20.26
555.072	20.23
555.498	20.17
555.923	20.13
556.349	20.07
556.774	20.01
557.199	19.94
557.625	19.87
558.05	19.8
558.475	19.73
558.9	19.65
559.325	19.57
559.75	19.48
560.175	19.4
560.6	19.29
561.025	19.2
561.449	19.1
561.874	18.99
562.299	18.88
562.723	18.77
563.148	18.65
563.572	18.52
563.997	18.37
564.421	18.25
564.846	18.12
565.27	17.98
565.694	17.84
566.118	17.72
566.542	17.59
566.966	17.44
567.39	17.3
567.814	17.16
568.238	17.03
568.662	16.89
569.086	16.75
569.509	16.62
569.933	16.49
570.357	16.36
570.78	16.22
571.204	16.09
571.627	15.97
572.05	15.84
572.474	15.73
572.897	15.61
573.32	15.5
573.743	15.38
574.166	15.27
574.589	15.15
575.012	15.04
575.435	14.94
575.858	14.84
576.281	14.72
576.704	14.63
577.126	14.52
577.549	14.42
577.972	14.33
578.394	14.24
578.817	14.14
579.239	14.06
579.661	13.97
580.084	13.89
580.506	13.8
580.928	13.72
581.35	13.64
581.772	13.57
582.194	13.5
582.616	13.42
583.038	13.34
583.46	13.27
583.882	13.19
584.303	13.12
584.725	13.07
585.147	13.01
585.568	12.95
585.99	12.88
586.411	12.82
586.833	12.76
587.254	12.71
587.675	12.66
588.096	12.62
588.518	12.57
588.939	12.53
589.36	12.47
589.781	12.42
590.202	12.37
590.623	12.33
591.043	12.3
591.464	12.27
591.885	12.22
592.305	12.18
592.726	12.15
593.147	12.11
593.567	12.07
593.987	12.04
594.408	12.01
594.828	11.98
595.248	11.95
595.669	11.92
596.089	11.89
596.509	11.86
596.929	11.84
597.349	11.8
597.769	11.77
598.189	11.74
598.608	11.71
599.028	11.69
599.448	11.66
599.867	11.63
600.287	11.59
600.706	11.55
601.126	11.52
601.545	11.48
601.965	11.45
602.384	11.41
602.803	11.36
603.222	11.31
603.641	11.26
604.061	11.21
604.48	11.16
604.898	11.11
605.317	11.05
605.736	11
606.155	10.94
606.574	10.88
606.992	10.83
607.411	10.76
607.829	10.67
608.248	10.6
608.666	10.54
609.085	10.48
609.503	10.42
609.921	10.36
610.339	10.3
610.758	10.24
611.176	10.16
611.594	10.09
612.012	10.03
612.43	9.99
612.847	9.93
613.265	9.86
613.683	9.8
614.101	9.73
614.518	9.67
614.936	9.61
615.353	9.55
615.771	9.5
616.188	9.46
616.606	9.42
617.023	9.37
617.44	9.32
617.857	9.28
618.274	9.23
618.691	9.18
619.108	9.14
619.525	9.11
619.942	9.08
620.359	9.04
620.776	9
621.192	8.97
621.609	8.95
622.026	8.93
622.442	8.91
622.859	8.89
623.275	8.88
623.691	8.86
624.108	8.85
624.524	8.83
624.94	8.82
625.356	8.81
625.772	8.8
626.188	8.79
626.604	8.78
627.02	8.77
627.436	8.77
627.852	8.76
628.268	8.74
628.683	8.74
629.099	8.73
629.514	8.71
629.93	8.7
630.345	8.67
630.761	8.63
631.176	8.61
631.591	8.57
632.007	8.53
632.422	8.49
632.837	8.44
633.252	8.37
633.667	8.31
634.082	8.26
634.497	8.2
634.911	8.12
635.326	8.06
635.741	7.98
636.155	7.91
636.57	7.82
636.984	7.74
637.399	7.65
637.813	7.56
638.228	7.47
638.642	7.37
639.056	7.27
639.47	7.18
639.884	7.09
640.298	6.99
640.712	6.9
641.126	6.81
641.54	6.71
641.954	6.61
642.368	6.52
642.781	6.44
643.195	6.35
643.609	6.27
644.022	6.19
644.436	6.1
644.849	6.02
645.262	5.95
645.676	5.88
646.089	5.81
646.502	5.76
646.915	5.72
647.328	5.67
647.741	5.63
648.154	5.58
648.567	5.55
648.98	5.51
649.393	5.49
649.805	5.46
650.218	5.43
650.631	5.4
651.043	5.37
651.456	5.34
651.868	5.32
652.28	5.3
652.693	5.27
653.105	5.25
653.517	5.22
653.929	5.19
654.341	5.16
654.753	5.14
655.165	5.11
655.577	5.07
655.989	5.02
656.401	4.98
656.813	4.94
657.224	4.89
657.636	4.84
658.047	4.79
658.459	4.74
658.87	4.69
659.282	4.63
659.693	4.57
660.104	4.52
660.515	4.47
660.926	4.41
661.338	4.36
661.749	4.31
662.159	4.26
662.57	4.22
662.981	4.18
663.392	4.14
663.803	4.11
664.213	4.07
664.624	4.04
665.035	4.02
665.445	3.99
665.855	3.97
666.266	3.96
666.676	3.94
667.086	3.92
667.497	3.9
667.907	3.89
668.317	3.87
668.727	3.86
669.137	3.86
669.547	3.86
669.956	3.86
670.366	3.85
670.776	3.84
671.186	3.86
671.595	3.85
672.005	3.86
672.414	3.87
672.824	3.88
673.233	3.89
673.642	3.9
674.052	3.91
674.461	3.91
674.87	3.94
675.279	3.97
675.688	3.98
676.097	4.01
676.506	4.03
676.915	4.06
677.323	4.09
677.732	4.11
678.141	4.14
678.549	4.17
678.958	4.22
679.366	4.25
679.775	4.27
680.183	4.3
680.592	4.36
681	4.41
681.408	4.47
681.816	4.53
682.224	4.6
682.632	4.68
683.04	4.76
683.448	4.84
683.856	4.94
684.264	5.07
684.671	5.21
685.079	5.35
685.487	5.51
685.894	5.69
686.302	5.89
686.709	6.11
687.116	6.36
687.524	6.63
687.931	6.91
688.338	7.22
688.745	7.55
689.152	7.9
689.559	8.28
689.966	8.68
690.373	9.1
690.78	9.54
691.187	9.99
691.593	10.45
692	10.93
692.407	11.43
692.813	11.95
693.22	12.46
693.626	13
694.032	13.53
694.439	14.07
694.845	14.61
695.251	15.16
695.657	15.71
696.063	16.27
696.469	16.83
696.875	17.38
697.281	17.92
697.687	18.48
698.093	19.04
698.498	19.57
698.904	20.12
699.31	20.65
699.715	21.18
700.12	21.71
700.526	22.22
700.931	22.73
701.337	23.25
701.742	23.75
702.147	24.24
702.552	24.74
702.957	25.21
703.362	25.68
703.767	26.15
704.172	26.6
704.577	27.06
704.981	27.51
705.386	27.96
705.791	28.38
706.195	28.8
706.6	29.23
707.004	29.63
707.408	30.05
707.813	30.45
708.217	30.85
708.621	31.26
709.025	31.62
709.43	31.99
709.834	32.37
710.237	32.73
710.641	33.1
711.045	33.45
711.449	33.8
711.853	34.16
712.256	34.51
712.66	34.83
713.064	35.14
713.467	35.49
713.87	35.82
714.274	36.13
714.677	36.45
715.08	36.75
715.484	37.05
715.887	37.36
716.29	37.64
716.693	37.93
717.096	38.23
717.499	38.53
717.901	38.8
718.304	39.06
718.707	39.34
719.109	39.62
719.512	39.88
719.915	40.14
720.317	40.39
720.719	40.61
721.122	40.83
721.524	41.05
721.926	41.28
722.328	41.5
722.731	41.71
723.133	41.91
723.535	42.11
723.937	42.29
724.338	42.46
724.74	42.63
725.142	42.88
725.544	43.04
725.945	43.22
726.347	43.35
726.748	43.51
727.15	43.64
727.551	43.79
727.952	43.92
728.354	44.09
728.755	44.23
729.156	44.35
729.557	44.42
729.958	44.54
730.359	44.65
730.76	44.77
731.161	44.87
731.562	45.01
731.962	45.09
732.363	45.2
732.763	45.27
733.164	45.37
733.564	45.49
733.965	45.56
734.365	45.66
734.766	45.73
735.166	45.79
735.566	45.86
735.966	45.92
736.366	45.99
736.766	46.01
737.166	46.07
737.566	46.11
737.966	46.15
738.365	46.21
738.765	46.27
739.165	46.31
739.564	46.37
739.964	46.41
740.363	46.44
740.763	46.5
741.162	46.56
741.561	46.58
741.96	46.62
742.36	46.66
742.759	46.68
743.158	46.71
743.557	46.73
743.955	46.77
744.354	46.82
744.753	46.87
745.152	46.91
745.55	46.95
745.949	47.01
746.348	47.07
746.746	47.1
747.144	47.15
747.543	47.17
747.941	47.2
748.339	47.19
748.737	47.2
749.136	47.2
749.534	47.17
749.932	47.2
750.33	47.18
750.727	47.17
751.125	47.16
751.523	47.18
751.921	47.18
752.318	47.19
752.716	47.2
753.113	47.23
753.511	47.26
753.908	47.29
754.305	47.27
754.703	47.28
755.1	47.28
755.497	47.29
755.894	47.27
756.291	47.25
756.688	47.23
757.085	47.24
757.482	47.21
757.878	47.19
758.275	47.2
758.672	47.21
759.068	47.23
759.465	47.22
759.861	47.22
760.258	47.24
760.654	47.27
761.05	47.3
761.447	47.33
761.843	47.34
762.239	47.35
762.635	47.34
763.031	47.33
763.427	47.31
763.822	47.34
764.218	47.35
764.614	47.34
765.01	47.32
765.405	47.3
765.801	47.26
766.196	47.26
766.592	47.23
766.987	47.23
767.382	47.22
767.778	47.22
768.173	47.21
768.568	47.19
768.963	47.2
769.358	47.24
769.753	47.24
770.148	47.25
770.542	47.26
770.937	47.28
771.332	47.28
771.726	47.3
772.121	47.3
772.515	47.29
772.91	47.3
773.304	47.31
773.699	47.29
774.093	47.27
774.487	47.28
774.881	47.31
775.275	47.28
775.669	47.29
776.063	47.27
776.457	47.3
776.851	47.28
777.245	47.23
777.638	47.21
778.032	47.21
778.425	47.24
778.819	47.24
779.212	47.22
779.606	47.26
779.999	47.25
780.392	47.29
780.786	47.26
781.179	47.31
781.572	47.35
781.965	47.36
782.358	47.37
782.751	47.33
783.143	47.34
783.536	47.33
783.929	47.32
784.322	47.35
784.714	47.33
785.107	47.35
785.499	47.31
785.891	47.3
786.284	47.31
786.676	47.3
787.068	47.35
787.46	47.36
787.852	47.35
788.245	47.35
788.636	47.3
789.028	47.29
789.42	47.27
789.812	47.29
790.204	47.3
790.595	47.3
790.987	47.31
791.378	47.29
791.77	47.29
792.161	47.29
792.553	47.29
792.944	47.29
793.335	47.27
793.726	47.3
794.117	47.26
794.508	47.24
794.899	47.22
795.29	47.21
795.681	47.19
796.072	47.17
796.463	47.15
796.853	47.13
797.244	47.15
797.634	47.19
798.025	47.16
798.415	47.17
798.806	47.17
799.196	47.18
799.586	47.16
799.976	47.18
800.366	47.18
800.756	47.19
801.146	47.21
801.536	47.22
801.926	47.18
802.316	47.22
802.706	47.24
803.095	47.27
803.485	47.23
803.874	47.24
804.264	47.2
804.653	47.19
805.043	47.2
805.432	47.18
805.821	47.18
806.21	47.19
806.599	47.15
806.988	47.15
807.377	47.11
807.766	47.13
808.155	47.13
808.544	47.13
808.933	47.14
809.321	47.12
809.71	47.16
810.098	47.13
810.487	47.1
810.875	47.09
811.264	47.1
811.652	47.13
812.04	47.12
812.428	47.14
812.816	47.14
813.204	47.13
813.592	47.11
813.98	47.09
814.368	47.09
814.756	47.11
815.144	47.12
815.531	47.09
815.919	47.07
816.306	47.09
816.694	47.05
817.081	47.05
817.469	47.04
817.856	47.07
818.243	47.05
818.63	47.06
819.017	47.05
819.404	47.03
819.791	47.04
820.178	47.03
820.565	47.01
820.952	47.02
821.339	47.03
821.725	47.04
822.112	47.07
822.498	47.11
822.885	47.13
823.271	47.12
823.657	47.12
824.044	47.11
824.43	47.12
824.816	47.14
825.202	47.14
825.588	47.14
825.974	47.13
826.36	47.09
826.746	47.09
827.132	47.08
827.517	47.09
827.903	47.09
828.289	47.11
828.674	47.1
829.06	47.07
829.445	47.06
829.83	47.07
830.216	47.06
830.601	47.06
830.986	47.04
831.371	47.03
831.756	47.04
832.141	47.05
832.526	47.05
832.911	47.04
833.295	47.08
833.68	47.11
834.065	47.1
834.449	47.11
834.834	47.11
835.218	47.09
835.603	47.07
835.987	47.05
836.371	47.05
836.755	47.02
837.139	47
837.524	46.97
837.908	46.98
838.291	46.98
838.675	47
839.059	47.01
839.443	47.01
839.827	47.04
840.21	47.04
840.594	47.05
840.977	47.04
841.361	47.04
841.744	47.04
842.127	46.99
842.511	46.98
842.894	46.95
843.277	46.94
843.66	46.94
844.043	46.93
844.426	46.96
844.809	46.98
845.191	47
845.574	47.02
845.957	47.03
846.339	47.04
846.722	47.05
847.104	47.08
847.487	47.1
847.869	47.09
848.252	47.1
848.634	47.07
849.016	47.06
849.398	47.07
849.78	47.06
850.162	47.06
850.544	47.06
850.926	47.03
851.307	47
851.689	47
852.071	47.01
852.452	46.99
852.834	47.04
853.215	47
853.597	47.01
853.978	47.02
854.359	47.04
854.741	47.05
855.122	47.05
855.503	47.08
855.884	47.06
856.265	47.06
856.646	47.06
857.026	47.05
857.407	47.07
857.788	47.06
858.169	47.07
858.549	47.03
858.93	47.04
859.31	47.05
859.69	47.05
860.071	47.09
860.451	47.08
860.831	47.08
861.211	47.07
861.591	47.05
861.971	47.05
862.351	47.05
862.731	47.07
863.111	47.04
863.491	47.06
863.87	47.06
864.25	47.02
864.629	47.03
865.009	47.04
865.388	47.03
865.768	47.04
866.147	47.05
866.526	47.05
866.905	47.04
867.284	47.07
867.663	47.06
868.042	47.07
868.421	47.09
868.8	47.1
869.179	47.09
869.558	47.1
869.936	47.1
870.315	47.09
870.693	47.09
871.072	47.09
871.45	47.07
871.828	47.07
872.207	47.06
872.585	47.05
872.963	47.04
873.341	47.05
873.719	47.04
874.097	47.03
874.475	47.03
874.853	47.02
875.23	47.05
875.608	47.06
875.986	47.07
876.363	47.08
876.741	47.09
877.118	47.07
877.495	47.09
877.873	47.09
878.25	47.12
878.627	47.12
879.004	47.11
879.381	47.12
879.758	47.1
880.135	47.1
880.512	47.1
880.889	47.08
881.265	47.1
881.642	47.08
882.019	47.1
882.395	47.06
882.772	47.04
883.148	47.03
883.524	47.01
883.901	47.02
884.277	46.99
884.653	46.97
885.029	46.96
885.405	46.96
885.781	46.94
886.157	46.93
886.532	46.96
886.908	46.97
887.284	46.98
887.659	46.96
888.035	46.94
888.411	46.94
888.786	46.98
889.161	46.99
889.537	46.96
889.912	46.97
890.287	46.98
890.662	46.97
891.037	46.98
891.412	46.98
891.787	46.97
892.162	46.98
892.536	46.99
892.911	46.96
893.286	46.95
893.66	46.99
894.035	46.98
894.409	46.96
894.784	46.96
895.158	46.94
895.532	46.95
895.906	46.96
896.281	46.95
896.655	46.95
897.029	46.98
897.402	46.97
897.776	46.96
898.15	46.94
898.524	46.96
898.898	46.94
899.271	46.93
899.645	46.95
900.018	46.98
900.392	47
900.765	47.02
901.138	47
901.511	47.02
901.884	47.03
902.258	47.04
902.631	47.03
903.003	47.07
903.376	47.08
903.749	47.06
904.122	47.05
904.495	47.05
904.867	47.04
905.24	47.05
905.612	47.06
905.985	47.04
906.357	47.04
906.729	47.05
907.102	47.04
907.474	47.05
907.846	47.04
908.218	47.02
908.59	47.05
908.962	47.04
909.334	47.03
909.705	47.02
910.077	47.02
910.449	47.02
910.82	47.03
911.192	47.04
911.563	47.02
911.935	47.03
912.306	47.01
912.677	46.99
913.048	47
913.419	47
913.79	47
914.161	47.01
914.532	46.99
914.903	46.98
915.274	46.94
915.645	46.95
916.015	46.93
916.386	46.97
916.756	46.99
917.127	46.98
917.497	47.01
917.868	46.99
918.238	46.96
918.608	46.98
918.978	46.96
919.348	46.97
919.718	46.95
920.088	46.95
920.458	46.93
920.828	46.87
921.198	46.86
921.567	46.84
921.937	46.86
922.306	46.88
922.676	46.86
923.045	46.87
923.415	46.87
923.784	46.91
924.153	46.89
924.522	46.89
924.891	46.87
925.26	46.85
925.629	46.86
925.998	46.83
926.367	46.8
926.736	46.8
927.104	46.8
927.473	46.78
927.842	46.73
928.21	46.74
928.578	46.71
928.947	46.72
929.315	46.72
929.683	46.69
930.051	46.67
930.42	46.69
930.788	46.65
931.156	46.61
931.523	46.61
931.891	46.67
932.259	46.64
932.627	46.65
932.994	46.67
933.362	46.67
933.729	46.67
934.097	46.68
934.464	46.7
934.831	46.72
935.199	46.76
935.566	46.78
935.933	46.74
936.3	46.72
936.667	46.72
937.034	46.73
937.401	46.73
937.767	46.73
938.134	46.7
938.501	46.65
938.867	46.68
939.234	46.63
939.6	46.59
939.967	46.57
940.333	46.54
940.699	46.56
941.065	46.45
941.431	46.46
941.798	46.41
942.163	46.41
942.529	46.42
942.895	46.4
943.261	46.4
943.627	46.39
943.992	46.35
944.358	46.38
944.723	46.36
945.089	46.38
945.454	46.41
945.82	46.41
946.185	46.41
946.55	46.35
946.915	46.34
947.28	46.27
947.645	46.31
948.01	46.34
948.375	46.38
948.74	46.37
949.104	46.43
949.469	46.38
949.834	46.36
950.198	46.35
950.562	46.32
950.927	46.32
951.291	46.3
951.655	46.24
952.02	46.23
952.384	46.12
952.748	46.13
953.112	46.07
953.476	46.02
953.839	45.96
954.203	45.93
954.567	45.93
954.931	45.91
955.294	45.93
955.658	45.99
956.021	45.98
956.385	45.98
956.748	45.91
957.111	45.88
957.474	45.9
957.837	45.92
958.2	45.95
958.563	46.01
958.926	46.07
959.289	46.07
959.652	46.03
960.015	46
960.377	45.99
960.74	46.04
961.102	46.08
961.465	46.14
961.827	46.18
962.189	46.22
962.552	46.18
962.914	46.11
963.276	46.14
963.638	46.16
964	46.13
964.362	46.19
964.724	46.16
965.085	46.1
965.447	46.04
965.809	46.03
966.17	45.98
966.532	46
966.893	46.01
967.255	46.03
967.616	45.99
967.977	46.01
968.338	45.96
968.699	45.95
969.061	45.99
969.421	46.04
969.782	46
970.143	45.97
970.504	45.94
970.865	45.93
971.225	45.89
971.586	45.84
971.946	45.86
972.307	45.83
972.667	45.83
973.027	45.82
973.388	45.8
973.748	45.85
974.108	45.88
974.468	45.89
974.828	45.95
975.188	45.94
975.548	45.95
975.907	45.9
976.267	45.89
976.627	45.9
976.986	45.89
977.346	45.83
977.705	45.77
978.064	45.78
978.424	45.8
978.783	45.74
979.142	45.75
979.501	45.78
979.86	45.84
980.219	45.9
980.578	45.83
980.937	45.84
981.296	45.9
981.654	45.94
982.013	45.93
982.371	45.85
982.73	45.83
983.088	45.76
983.447	45.77
983.805	45.74
984.163	45.7
984.521	45.72
984.879	45.65
985.237	45.65
985.595	45.62
985.953	45.63
986.311	45.64
986.669	45.63
987.026	45.65
987.384	45.64
987.741	45.61
988.099	45.64
988.456	45.65
988.814	45.69
989.171	45.68
989.528	45.66
989.885	45.56
990.242	45.54
990.599	45.6
990.956	45.56
991.313	45.52
991.67	45.52
992.027	45.58
992.383	45.64
992.74	45.66
993.096	45.6
993.453	45.62
993.809	45.61
994.165	45.72
994.522	45.68
994.878	45.8
995.234	45.72
995.59	45.72
995.946	45.63
996.302	45.58
996.658	45.56
997.013	45.54
997.369	45.6
997.725	45.76
998.08	45.71
998.436	45.77
998.791	45.67
999.147	45.68
999.502	45.75
999.857	45.8
1000.212	45.79
1000.567	45.81
1000.922	45.83
1001.277	45.82
1001.632	45.65
1001.987	45.59
1002.342	45.48
1002.696	45.53
1003.051	45.64
1003.406	45.64
1003.76	45.57
1004.114	45.56
1004.469	45.6
1004.823	45.85
1005.177	45.76
1005.531	45.76
1005.885	45.75
1006.239	45.71
1006.593	45.82
1006.947	45.76
1007.301	45.64
1007.655	45.63
1008.008	45.68
1008.362	45.69
1008.715	45.44
1009.069	45.43
1009.422	45.41
1009.776	45.4
1010.129	45.53
1010.482	45.33
1010.835	45.47
1011.188	45.55
1011.541	45.76
1011.894	45.69
1012.247	45.69
1012.6	45.65
1012.952	45.68
1013.305	45.8
1013.657	45.75
1014.01	45.59
1014.362	45.67
1014.715	45.52
1015.067	45.31
1015.419	45.21
1015.771	45.11
1016.123	45.05
1016.475	45.1
1016.827	45.1
1017.179	45.08
1017.531	45.26
1017.883	45.27
1018.234	45.28
1018.586	45.32
1018.938	45.64
1019.289	45.46
1019.64	45.57
1019.992	45.52
1020.343	45.54
1020.694	45.26
1021.045	45.25
1021.396	45.15
1021.747	45.37
1022.098	45.4
1022.449	45.37
1022.8	45.35
1023.151	45.43
1023.501	45.47
1023.852	45.44
1024.202	45.25
1024.553	45.32
1024.903	45.14
1025.253	45.28
1025.604	45.02
1025.954	44.68
1026.304	44.72
1026.654	44.65
1027.004	44.64
1027.354	44.55
1027.703	44.45
1028.053	44.69
1028.403	44.7
1028.753	44.86
1029.102	44.76
1029.452	44.88
1029.801	45.15
1030.15	45.1
1030.499	44.89
897.758	941.87
901.051	951.21
904.343	948.17
907.636	965.29
910.928	940.62
914.22	941.19
917.511	931.39
920.803	887.96
924.094	883.68
927.384	861.77
930.675	827.35
933.965	827.52
937.255	778.8
940.544	748.54
943.834	712.96
947.123	707.5
950.411	666.83
953.7	652.53
956.988	622.14
960.276	599.22
963.563	589.16
966.851	569.37
970.138	563.4
973.424	545.96
976.711	547.5
979.997	523.8
983.283	518.98
986.568	508.85
989.853	495.15
993.138	483.36
996.423	465.59
999.708	451.73
1002.992	446.15
1006.275	428.5
1009.559	425.62
1012.842	412.03
1016.125	400.18
1019.408	393.47
1022.69	387.67
1025.972	378.57
1029.254	371.51
1032.536	365.83
1035.817	358.42
1039.098	356.08
1042.379	347.69
1045.659	343.15
1048.939	335.15
1052.219	328.87
1055.498	324.83
1058.778	318.06
1062.057	312.33
1065.335	309.2
1068.614	304.81
1071.892	302.78
1075.17	293.76
1078.447	288.71
1081.724	286.56
1085.001	284.17
1088.278	278.65
1091.554	274.13
1094.83	273.84
1098.106	271.67
1101.382	269.59
1104.657	268.51
1107.932	264.06
1111.206	264.29
1114.481	258.54
1117.755	256.61
1121.029	254.8
1124.302	254.31
1127.575	249.44
1130.848	247.27
1134.121	245.08
1137.393	243.33
1140.665	237.73
1143.937	236.75
1147.208	236.52
1150.48	235.53
1153.75	232.84
1157.021	229.51
1160.291	229.69
1163.561	227.42
1166.831	227.25
1170.101	225.45
1173.37	225.55
1176.639	226.5
1179.907	224.28
1183.176	221.51
1186.444	221.46
1189.711	220.85
1192.979	221.07
1196.246	219.56
1199.513	220.33
1202.78	219.17
1206.046	218.63
1209.312	216.57
1212.578	216.81
1215.843	218
1219.108	216.94
1222.373	220.87
1225.638	222.08
1228.902	224.28
1232.166	225.01
1235.43	225.9
1238.693	229.49
1241.956	230.54
1245.219	233.46
1248.482	233.7
1251.744	233.81
1255.006	234.71
1258.268	228.96
1261.529	227.52
1264.79	226.15
1268.051	224.44
1271.312	222.39
1274.572	219.06
1277.832	217.62
1281.092	214.52
1284.351	213.04
1287.61	213.32
1290.869	209.95
1294.128	209.75
1297.386	209.41
1300.644	207.61
1303.902	207.7
1307.159	207.2
1310.416	206.99
1313.673	206.07
1316.93	208.28
1320.186	207.91
1323.442	208.89
1326.697	211.17
1329.953	212.17
1333.208	213.16
1336.463	215.48
1339.717	216.17
1342.972	217.58
1346.226	219.7
1349.479	221.11
1352.733	221.52
1355.986	222.63
1359.238	221.83
1362.491	222.93
1365.743	224.52
1368.995	224.59
1372.247	224.64
1375.498	224.13
1378.749	226.31
1382	223.27
1385.251	222.85
1388.501	220.71
1391.751	221.01
1395	219.68
1398.25	218.67
1401.499	215.93
1404.748	214.95
1407.996	212.25
1411.244	211.77
1414.492	209.48
1417.74	207.31
1420.987	205.86
1424.234	205.48
1427.481	201.97
1430.728	202.71
1433.974	200.41
1437.22	198.51
1440.465	197.93
1443.711	195.54
1446.956	193.97
1450.201	192.38
1453.445	190.71
1456.689	188.93
1459.933	186.23
1463.177	185.6
1466.42	181.68
1469.663	179.63
1472.906	179.06
1476.148	174.52
1479.391	173.85
1482.633	172.58
1485.874	169.86
1489.115	168.11
1492.356	167.34
1495.597	166.66
1498.838	164.49
1502.078	164.08
1505.318	163.94
1508.557	163.69
1511.797	163.84
1515.036	162.34
1518.274	161.58
1521.513	161.22
1524.751	161.01
1527.989	160.05
1531.227	160.06
1534.464	159.88
1537.701	158.92
1540.938	158.51
1544.174	157.03
1547.41	157.35
1550.646	156.01
1553.882	156.7
1557.117	155
1560.352	154.56
1563.587	153.96
1566.821	152.97
1570.055	152.09
1573.289	151.37
1576.523	150.9
1579.756	149.61
1582.989	148.96
1586.222	149.28
1589.454	147.81
1592.686	148.67
1595.918	148.2
1599.15	147.85
1602.381	148.4
1605.612	148.3
1608.843	148.43
1612.073	148.46
1615.303	149.67
1618.533	149.54
1621.762	149.52
1624.992	150.25
1628.221	149.92
1631.449	149.63
1634.678	150.07
1637.906	150.55
1641.134	151.02
1644.361	150.78
1647.588	150.97
1650.815	150.5
1654.042	150.12
1657.269	150.5
1660.495	150.62
1663.72	150.59
1666.946	151.3
1670.171	151.31
1673.396	150.71
1676.621	150.46
1679.845	150.9
1683.069	151.08
1686.293	151.78
1689.517	152.46
1692.74	152.63
1695.963	152.62
1699.185	153.63
1702.408	153.46
1705.63	153.97
1708.852	154.85
1712.073	154.78
1715.294	155.31
1718.515	156.21
1721.736	155.92
1724.956	156.23
1728.176	156.28
1731.396	157.69
1734.616	157.14
1737.835	158.08
1741.054	156.63
1744.272	157.11
1747.491	158.4
1750.709	158.74
1753.927	158.42
1757.144	158.36
1760.361	158.62
1763.578	159.06
1766.795	158.35
1770.011	159.59
1773.227	159.13
1776.443	161.08
1779.658	161.23
1782.874	161.11
1786.089	161.13
1789.303	161.61
1792.518	163.57
1795.732	163.4
1798.945	164.36
1802.159	164.73
1805.372	164.39
1808.585	167.12
1811.797	167.84
1815.01	168.29
1818.222	169.47
1821.434	171.52
1824.645	172.15
1827.856	174.35
1831.067	175.81
1834.278	174.95
1837.488	176.59
1840.698	177.77
1843.908	176.35
1847.117	176.88
1850.326	177.49
1853.535	176.61
1856.744	177.91
1859.952	176.91
1863.16	175.29
1866.368	174.25
1869.575	175.95
1872.782	173.19
1875.989	171.93
1879.196	170.69
1882.402	169.21
1885.608	169.21
1888.814	169.23
1892.019	167.32
1895.224	167.09
1898.429	165.6
1901.634	165.57
1904.838	165.22
1908.042	166.5
1911.246	166.02
1914.449	167.14
1917.652	166.99
1920.855	165.94
1924.058	165.79
1927.26	165.47
1930.462	165.87
1933.664	168.17
1936.865	166.88
1940.066	165.93
1943.267	164.22
1946.467	165.05
1949.668	166.16
1952.868	167.47
1956.067	168.29
1959.267	169.08
1962.466	169.39
1965.665	168.48
1968.863	168.96
1972.061	171.83
1975.259	173.28
1978.457	175.75
1981.654	177.6
1984.852	177.47
1988.048	177.51
1991.245	179.03
1994.441	180.39
1997.637	182.08
2000.833	186.48
2004.028	188.74
2007.223	189.5
2010.418	192.15
2013.613	194.92
2016.807	196.89
2020.001	198.79
2023.194	203.01
2026.388	206.46
2029.581	211.04
2032.774	213.04
2035.966	216.09
2039.158	216.3
2042.35	220.3
2045.542	222.27
2048.733	224.69
2051.924	228.86
2055.115	231.8
2058.306	230.88
2061.496	233.83
2064.686	235.13
2067.875	238.33
2071.065	239.98
2074.254	239.02
2077.442	242.4
2080.631	242.6
2083.819	246.13
2087.007	244.71
2090.195	248.54
2093.382	251.23
2096.569	250.42
2099.756	253.8
2102.942	255.17
2106.128	256.55
2109.314	263.17
2112.5	261.85
2115.685	268.58
2118.87	268.69
2122.055	275.24
2125.239	276.17
2128.424	279.41
2131.608	280.86
2134.791	284.85
2137.974	285.96
2141.157	287.3
2144.34	287.39
2147.523	291.56
2150.705	289.15
2153.887	292.84
2157.068	292.3
2160.25	291.24
2163.431	292.96
2166.611	296.58
2169.792	300.69
2172.972	303.51
2176.152	305.74
2179.331	309.86
2182.511	314.33
2185.69	317.56
2188.868	323.28
2192.047	324.52
2195.225	333.85
2198.403	340.4
2201.58	347.72
2204.758	354.4
2207.935	362.92
2211.111	368.81
2214.288	372.48
2217.464	373.97
2220.64	380.88
2223.815	384.19
2226.991	398.76
2230.166	398.73
2233.34	405.47
2236.515	410.57
2239.689	410.81
2242.863	413.57
2246.036	425.33
2249.209	423.31
2252.382	430.74
2255.555	441.86
2258.727	443.79
2261.9	447.08
2265.071	451.44
2268.243	458.46
2271.414	465.29
2274.585	474.41
2277.756	475.9
2280.926	481.05
2284.096	492.18
2287.266	500.5
2290.436	505.2
2293.605	518.23
2296.774	532.75
2299.942	549.06
2303.111	554.91
2306.279	563.68
2309.447	572.2
2312.614	589.05
2315.781	603.89
2318.948	627.16
2322.115	621.15
2325.281	656.93
2328.447	641.07
2331.613	664.46
2334.779	657.98
2337.944	684.82
2341.109	691.98
2344.274	710.76
2347.438	736.15
2350.602	734.31
2353.766	763.57
2356.929	774.43
2360.092	763.98
2363.255	820.04
2366.418	821.9
2369.58	836.35
2372.742	885.91
2375.904	911.16
2379.066	905.6
2382.227	889.24
2385.388	965.62
2388.548	959.78
2391.709	974.81
2394.869	1085.42
2398.029	1043.64
2401.188	1069
2404.347	1065.67
2407.506	1048.47
2410.665	1075.32
2413.823	1142.71
2416.981	1205.3
2420.139	1166.83
2423.296	1158.9
2426.453	1206.98
2429.61	1164.04
2432.767	1210.96
2435.923	1201.19
2439.079	1310.91
2442.235	1334.13
2445.391	1323.07
2448.546	1307.69
2451.701	1276.59
2454.855	1275.93
2458.009	1346.78
2461.163	1402.04
2464.317	1451.86
2467.471	1487.01
2470.624	1489.8
2473.777	1447.79
2476.929	1408.1
2480.082	1369.43
2483.234	1356.25
2486.385	1422.29
2489.537	1427.18
2492.688	1484.68
2495.839	1443.35
2498.989	1410.87
2502.14	1420.51
2505.29	1433.79
2508.439	1455.58
2511.589	1450
2514.738	1585.01
2517.887	1550.45
2521.035	1625.37
2524.183	1646.03
2527.331	1653.61
2530.479	1644.06
2533.627	1656.07
