Data from C_1_DIV_PA_2n_Splice17_12-37-13-849.txt Node
Date: Sat Mar 07 12:37:13 EST 2020
User: sa697716
Spectrometer: NQ5500242
Trigger mode: 0
Integration Time (sec): 1.450000E-1
Scans to average: 20
Nonlinearity correction enabled: false
Boxcar width: 5
Storing dark spectrum: false
XAxis mode: Wavelengths
Number of Pixels in Spectrum: 512
>>>>>Begin Spectral Data<<<<<
187.83	115.12
188.298	114.67
188.766	92.23
189.233	80.13
189.701	80.85
190.169	82.89
190.636	44.64
191.104	-66.67
191.571	-241.65
192.039	-342.4
192.506	-533.66
192.974	236.66
193.441	201.31
193.908	47.72
194.375	47.84
194.842	-7.81
195.31	-32.38
195.777	-415.24
196.244	-5.09
196.711	24.49
197.177	28.63
197.644	29.74
198.111	29.29
198.578	29.67
199.045	30.2
199.511	30.29
199.978	30.74
200.445	30.89
200.911	31.04
201.378	31.01
201.844	30.89
202.31	30.72
202.777	30.96
203.243	31.13
203.709	31.01
204.176	30.74
204.642	30.55
205.108	30.52
205.574	30.44
206.04	30.18
206.506	29.97
206.972	30.14
207.438	29.95
207.903	29.58
208.369	28.98
208.835	28.83
209.301	28.3
209.766	27.78
210.232	27.1
210.697	26.5
211.163	26.12
211.628	26.02
212.094	25.4
212.559	25.07
213.024	24.63
213.49	24.29
213.955	23.73
214.42	23.48
214.885	22.98
215.35	22.38
215.815	21.54
216.28	20.47
216.745	19.14
217.21	17.97
217.675	16.85
218.14	15.93
218.604	15.17
219.069	14.59
219.534	14.03
219.998	13.58
220.463	13.23
220.927	12.88
221.392	12.65
221.856	12.44
222.32	12.27
222.785	12.15
223.249	11.99
223.713	11.84
224.177	11.71
224.642	11.6
225.106	11.46
225.57	11.34
226.034	11.25
226.497	11.13
226.961	11.03
227.425	10.94
227.889	10.83
228.353	10.73
228.816	10.64
229.28	10.54
229.744	10.45
230.207	10.38
230.671	10.31
231.134	10.24
231.597	10.18
232.061	10.11
232.524	10.03
232.987	9.96
233.45	9.91
233.914	9.86
234.377	9.79
234.84	9.73
235.303	9.67
235.766	9.61
236.229	9.55
236.691	9.49
237.154	9.43
237.617	9.38
238.08	9.32
238.542	9.25
239.005	9.2
239.468	9.15
239.93	9.09
240.393	9.06
240.855	8.99
241.317	8.94
241.78	8.88
242.242	8.82
242.704	8.77
243.166	8.73
243.629	8.69
244.091	8.64
244.553	8.6
245.015	8.55
245.477	8.48
245.939	8.44
246.4	8.39
246.862	8.35
247.324	8.31
247.786	8.25
248.247	8.21
248.709	8.15
249.17	8.1
249.632	8.07
250.093	8.03
250.555	8
251.016	7.97
251.477	7.94
251.939	7.92
252.4	7.89
252.861	7.86
253.322	7.83
253.783	7.82
254.244	7.79
254.705	7.76
255.166	7.74
255.627	7.71
256.088	7.7
256.549	7.68
257.009	7.64
257.47	7.61
257.931	7.58
258.391	7.55
258.852	7.52
259.312	7.49
259.773	7.46
260.233	7.44
260.694	7.41
261.154	7.38
261.614	7.35
262.074	7.33
262.534	7.31
262.994	7.3
263.455	7.29
263.915	7.27
264.374	7.27
264.834	7.26
265.294	7.25
265.754	7.24
266.214	7.24
266.673	7.23
267.133	7.23
267.593	7.22
268.052	7.22
268.512	7.22
268.971	7.22
269.431	7.21
269.89	7.19
270.349	7.2
270.809	7.18
271.268	7.17
271.727	7.17
272.186	7.15
272.645	7.15
273.104	7.14
273.563	7.12
274.022	7.11
274.481	7.11
274.94	7.1
275.399	7.08
275.857	7.07
276.316	7.06
276.775	7.05
277.233	7.04
277.692	7.03
278.15	7.02
278.609	7.01
279.067	7
279.525	7
279.984	6.98
280.442	6.98
280.9	6.97
281.358	6.96
281.816	6.95
282.274	6.94
282.732	6.93
283.19	6.92
283.648	6.9
284.106	6.89
284.564	6.87
285.021	6.87
285.479	6.85
285.937	6.84
286.394	6.84
286.852	6.82
287.309	6.81
287.767	6.8
288.224	6.79
288.682	6.78
289.139	6.77
289.596	6.75
290.053	6.73
290.511	6.72
290.968	6.71
291.425	6.7
291.882	6.69
292.339	6.68
292.796	6.67
293.252	6.66
293.709	6.66
294.166	6.65
294.623	6.65
295.079	6.65
295.536	6.65
295.992	6.64
296.449	6.63
296.905	6.62
297.362	6.62
297.818	6.61
298.274	6.6
298.731	6.59
299.187	6.58
299.643	6.57
300.099	6.56
300.555	6.55
301.011	6.53
301.467	6.53
301.923	6.52
302.379	6.51
302.835	6.5
303.291	6.5
303.746	6.49
304.202	6.49
304.658	6.48
305.113	6.46
305.569	6.46
306.024	6.46
306.479	6.45
306.935	6.43
307.39	6.43
307.845	6.43
308.301	6.43
308.756	6.42
309.211	6.42
309.666	6.42
310.121	6.41
310.576	6.4
311.031	6.4
311.486	6.4
311.94	6.4
312.395	6.39
312.85	6.39
313.305	6.37
313.759	6.37
314.214	6.36
314.668	6.36
315.123	6.36
315.577	6.36
316.032	6.35
316.486	6.33
316.94	6.32
317.394	6.32
317.849	6.3
318.303	6.29
318.757	6.27
319.211	6.27
319.665	6.26
320.119	6.24
320.572	6.23
321.026	6.23
321.48	6.22
321.934	6.21
322.387	6.19
322.841	6.18
323.295	6.18
323.748	6.18
324.202	6.17
324.655	6.16
325.108	6.15
325.562	6.14
326.015	6.14
326.468	6.12
326.921	6.12
327.374	6.11
327.827	6.11
328.28	6.09
328.733	6.09
329.186	6.08
329.639	6.08
330.092	6.08
330.545	6.08
330.997	6.06
331.45	6.06
331.903	6.07
332.355	6.07
332.808	6.07
333.26	6.07
333.713	6.06
334.165	6.07
334.617	6.07
335.069	6.06
335.522	6.06
335.974	6.06
336.426	6.06
336.878	6.04
337.33	6.04
337.782	6.04
338.234	6.03
338.686	6.04
339.137	6.04
339.589	6.03
340.041	6.02
340.493	6.01
340.944	6
341.396	5.99
341.847	5.99
342.299	5.97
342.75	5.95
343.201	5.94
343.653	5.93
344.104	5.9
344.555	5.9
345.006	5.89
345.457	5.88
345.908	5.87
346.359	5.87
346.81	5.86
347.261	5.85
347.712	5.85
348.163	5.84
348.613	5.85
349.064	5.85
349.515	5.85
349.965	5.84
350.416	5.84
350.866	5.83
351.317	5.83
351.767	5.83
352.217	5.83
352.668	5.83
353.118	5.83
353.568	5.83
354.018	5.84
354.468	5.85
354.918	5.85
355.368	5.85
355.818	5.85
356.268	5.85
356.718	5.86
357.168	5.85
357.617	5.85
358.067	5.85
358.517	5.87
358.966	5.86
359.416	5.86
359.865	5.85
360.315	5.86
360.764	5.87
361.213	5.87
361.663	5.87
362.112	5.88
362.561	5.89
363.01	5.9
363.459	5.89
363.908	5.9
364.357	5.91
364.806	5.92
365.255	5.94
365.703	5.95
366.152	5.96
366.601	5.98
367.05	5.99
367.498	5.99
367.947	5.99
368.395	6.01
368.844	6.03
369.292	6.04
369.74	6.07
370.189	6.07
370.637	6.08
371.085	6.09
371.533	6.11
371.981	6.13
372.429	6.15
372.877	6.18
373.325	6.19
373.773	6.19
374.221	6.21
374.669	6.21
375.116	6.22
375.564	6.24
376.012	6.26
376.459	6.28
376.907	6.3
377.354	6.31
377.801	6.33
378.249	6.35
378.696	6.38
379.143	6.41
379.591	6.43
380.038	6.45
380.485	6.47
380.932	6.5
381.379	6.52
381.826	6.54
382.273	6.56
382.72	6.58
383.166	6.6
383.613	6.62
384.06	6.64
384.506	6.66
384.953	6.7
385.4	6.72
385.846	6.75
386.292	6.77
386.739	6.78
387.185	6.8
387.631	6.82
388.078	6.84
388.524	6.86
388.97	6.88
389.416	6.91
389.862	6.94
390.308	6.97
390.754	6.99
391.2	7.01
391.645	7.04
392.091	7.07
392.537	7.1
392.983	7.12
393.428	7.15
393.874	7.17
394.319	7.19
394.765	7.2
395.21	7.22
395.655	7.25
396.101	7.27
396.546	7.29
396.991	7.32
397.436	7.34
397.881	7.37
398.326	7.39
398.771	7.41
399.216	7.44
399.661	7.47
400.106	7.49
400.551	7.51
400.995	7.53
401.44	7.56
401.885	7.57
402.329	7.59
402.774	7.61
403.218	7.64
403.663	7.67
404.107	7.69
404.551	7.71
404.995	7.73
405.44	7.75
405.884	7.76
406.328	7.79
406.772	7.8
407.216	7.83
407.66	7.85
408.104	7.85
408.547	7.86
408.991	7.88
409.435	7.88
409.879	7.89
410.322	7.9
410.766	7.93
411.209	7.95
411.653	7.97
412.096	7.99
412.54	7.99
412.983	8.01
413.426	8.04
413.869	8.05
414.312	8.08
414.756	8.1
415.199	8.11
415.642	8.11
416.085	8.12
416.527	8.12
416.97	8.11
417.413	8.12
417.856	8.12
418.298	8.11
418.741	8.12
419.184	8.12
419.626	8.13
420.069	8.13
420.511	8.13
420.953	8.12
421.396	8.12
421.838	8.13
422.28	8.13
422.722	8.15
423.164	8.17
423.606	8.17
424.048	8.18
424.49	8.19
424.932	8.2
425.374	8.17
425.816	8.16
426.258	8.17
426.699	8.16
427.141	8.16
427.582	8.15
428.024	8.15
428.465	8.16
428.907	8.14
429.348	8.12
429.789	8.12
430.231	8.16
430.672	8.19
431.113	8.2
431.554	8.21
431.995	8.23
432.436	8.23
432.877	8.24
433.318	8.26
433.759	8.27
434.2	8.29
434.64	8.28
435.081	8.28
435.522	8.28
435.962	8.29
436.403	8.3
436.843	8.3
437.284	8.3
437.724	8.29
438.164	8.27
438.604	8.29
439.045	8.27
439.485	8.29
439.925	8.28
440.365	8.28
440.805	8.27
441.245	8.28
441.685	8.29
442.125	8.31
442.564	8.31
443.004	8.3
443.444	8.29
443.883	8.29
444.323	8.28
444.762	8.29
445.202	8.28
445.641	8.29
446.081	8.29
446.52	8.26
446.959	8.25
447.398	8.25
447.837	8.25
448.276	8.24
448.716	8.24
449.154	8.24
449.593	8.25
450.032	8.26
450.471	8.23
450.91	8.21
451.349	8.21
451.787	8.2
452.226	8.19
452.664	8.19
453.103	8.19
453.541	8.18
453.98	8.19
454.418	8.16
454.856	8.14
455.295	8.12
455.733	8.1
456.171	8.09
456.609	8.08
457.047	8.06
457.485	8.05
457.923	8.04
458.361	8.03
458.798	8.02
459.236	8.02
459.674	8.03
460.111	8.03
460.549	8.04
460.987	8.06
461.424	8.07
461.862	8.08
462.299	8.09
462.736	8.09
463.173	8.09
463.611	8.09
464.048	8.09
464.485	8.09
464.922	8.1
465.359	8.12
465.796	8.11
466.233	8.09
466.67	8.09
467.106	8.08
467.543	8.08
467.98	8.06
468.416	8.06
468.853	8.06
469.29	8.05
469.726	8.04
470.162	8.02
470.599	8.02
471.035	8.01
471.471	8.01
471.907	8
472.344	8
472.78	8
473.216	7.98
473.652	7.98
474.088	7.96
474.523	7.96
474.959	7.95
475.395	7.93
475.831	7.91
476.266	7.89
476.702	7.88
477.138	7.86
477.573	7.86
478.008	7.85
478.444	7.83
478.879	7.82
479.314	7.8
479.75	7.8
480.185	7.78
480.62	7.77
481.055	7.76
481.49	7.76
481.925	7.76
482.36	7.74
482.795	7.73
483.229	7.72
483.664	7.73
484.099	7.72
484.534	7.7
484.968	7.7
485.403	7.7
485.837	7.7
486.271	7.69
486.706	7.68
487.14	7.68
487.574	7.69
488.009	7.69
488.443	7.67
488.877	7.68
489.311	7.68
489.745	7.69
490.179	7.69
490.613	7.69
491.046	7.69
491.48	7.69
491.914	7.7
492.348	7.69
492.781	7.7
493.215	7.71
493.648	7.72
494.082	7.72
494.515	7.71
494.948	7.72
495.382	7.72
495.815	7.73
496.248	7.74
496.681	7.75
497.114	7.76
497.547	7.76
497.98	7.76
498.413	7.76
498.846	7.77
499.279	7.77
499.711	7.77
500.144	7.78
500.577	7.78
501.009	7.78
501.442	7.79
501.874	7.8
502.306	7.8
502.739	7.82
503.171	7.83
503.603	7.84
504.036	7.87
504.468	7.89
504.9	7.88
505.332	7.9
505.764	7.91
506.196	7.93
506.627	7.95
507.059	7.98
507.491	7.99
507.923	8.01
508.354	8.03
508.786	8.05
509.217	8.07
509.649	8.1
510.08	8.13
510.512	8.16
510.943	8.18
511.374	8.21
511.805	8.24
512.237	8.27
512.668	8.31
513.099	8.35
513.53	8.39
513.961	8.44
514.391	8.48
514.822	8.53
515.253	8.57
515.684	8.62
516.114	8.67
516.545	8.72
516.975	8.77
517.406	8.82
517.836	8.87
518.267	8.94
518.697	8.98
519.127	9.04
519.558	9.1
519.988	9.16
520.418	9.22
520.848	9.27
521.278	9.33
521.708	9.5
522.138	9.56
522.567	9.63
522.997	9.68
523.427	9.75
523.857	9.82
524.286	9.87
524.716	9.93
525.145	10
525.575	10.05
526.004	10.12
526.433	10.07
526.863	10.13
527.292	10.2
527.721	10.24
528.15	10.29
528.579	10.34
529.008	10.39
529.437	10.43
529.866	10.47
530.295	10.52
530.724	10.56
531.152	10.6
531.581	10.63
532.01	10.66
532.438	10.69
532.867	10.72
533.295	10.75
533.723	10.78
534.152	10.8
534.58	10.84
535.008	10.86
535.436	10.87
535.865	10.89
536.293	10.92
536.721	10.94
537.149	10.96
537.576	10.98
538.004	10.99
538.432	11
538.86	11.01
539.287	11.01
539.715	11.03
540.143	11.04
540.57	11.05
540.998	11.04
541.425	11.05
541.852	11.07
542.28	11.07
542.707	11.08
543.134	11.08
543.561	11.1
543.988	11.11
544.415	11.1
544.842	11.11
545.269	11.12
545.696	11.12
546.123	11.11
546.549	11.12
546.976	11.13
547.403	11.15
547.829	11.16
548.256	11.16
548.682	11.16
549.108	11.17
549.535	11.18
549.961	11.19
550.387	11.19
550.813	11.2
551.24	11.19
551.666	11.19
552.092	11.17
552.518	11.15
552.943	11.14
553.369	11.12
553.795	11.1
554.221	11.08
554.646	11.04
555.072	11.02
555.498	11
555.923	10.98
556.349	10.95
556.774	10.93
557.199	10.9
557.625	10.87
558.05	10.84
558.475	10.81
558.9	10.78
559.325	10.76
559.75	10.72
560.175	10.67
560.6	10.63
561.025	10.58
561.449	10.54
561.874	10.49
562.299	10.44
562.723	10.4
563.148	10.35
563.572	10.3
563.997	10.24
564.421	10.17
564.846	10.12
565.27	10.06
565.694	10.01
566.118	9.95
566.542	9.9
566.966	9.84
567.39	9.79
567.814	9.74
568.238	9.69
568.662	9.65
569.086	9.61
569.509	9.57
569.933	9.52
570.357	9.49
570.78	9.44
571.204	9.41
571.627	9.37
572.05	9.32
572.474	9.29
572.897	9.25
573.32	9.22
573.743	9.17
574.166	9.15
574.589	9.11
575.012	9.07
575.435	9.04
575.858	9.01
576.281	8.98
576.704	8.96
577.126	8.94
577.549	8.91
577.972	8.87
578.394	8.86
578.817	8.83
579.239	8.82
579.661	8.8
580.084	8.78
580.506	8.76
580.928	8.73
581.35	8.72
581.772	8.7
582.194	8.67
582.616	8.66
583.038	8.63
583.46	8.61
583.882	8.58
584.303	8.55
584.725	8.53
585.147	8.51
585.568	8.51
585.99	8.49
586.411	8.47
586.833	8.45
587.254	8.43
587.675	8.42
588.096	8.4
588.518	8.38
588.939	8.37
589.36	8.35
589.781	8.34
590.202	8.33
590.623	8.32
591.043	8.3
591.464	8.29
591.885	8.28
592.305	8.27
592.726	8.27
593.147	8.26
593.567	8.26
593.987	8.24
594.408	8.22
594.828	8.21
595.248	8.2
595.669	8.19
596.089	8.19
596.509	8.18
596.929	8.17
597.349	8.16
597.769	8.14
598.189	8.14
598.608	8.14
599.028	8.14
599.448	8.12
599.867	8.1
600.287	8.09
600.706	8.08
601.126	8.08
601.545	8.08
601.965	8.08
602.384	8.07
602.803	8.05
603.222	8.04
603.641	8.02
604.061	8.02
604.48	8.01
604.898	7.99
605.317	7.97
605.736	7.95
606.155	7.94
606.574	7.92
606.992	7.91
607.411	7.91
607.829	7.88
608.248	7.86
608.666	7.84
609.085	7.82
609.503	7.82
609.921	7.82
610.339	7.81
610.758	7.8
611.176	7.78
611.594	7.77
612.012	7.74
612.43	7.75
612.847	7.75
613.265	7.74
613.683	7.74
614.101	7.73
614.518	7.7
614.936	7.69
615.353	7.67
615.771	7.66
616.188	7.64
616.606	7.64
617.023	7.64
617.44	7.63
617.857	7.62
618.274	7.61
618.691	7.59
619.108	7.58
619.525	7.57
619.942	7.58
620.359	7.57
620.776	7.57
621.192	7.56
621.609	7.55
622.026	7.53
622.442	7.53
622.859	7.54
623.275	7.54
623.691	7.54
624.108	7.54
624.524	7.54
624.94	7.53
625.356	7.54
625.772	7.53
626.188	7.53
626.604	7.52
627.02	7.51
627.436	7.49
627.852	7.49
628.268	7.48
628.683	7.48
629.099	7.47
629.514	7.47
629.93	7.47
630.345	7.47
630.761	7.46
631.176	7.46
631.591	7.46
632.007	7.45
632.422	7.44
632.837	7.44
633.252	7.42
633.667	7.41
634.082	7.39
634.497	7.38
634.911	7.36
635.326	7.36
635.741	7.35
636.155	7.35
636.57	7.34
636.984	7.34
637.399	7.33
637.813	7.31
638.228	7.3
638.642	7.28
639.056	7.27
639.47	7.26
639.884	7.25
640.298	7.24
640.712	7.22
641.126	7.22
641.54	7.2
641.954	7.19
642.368	7.19
642.781	7.19
643.195	7.18
643.609	7.17
644.022	7.16
644.436	7.16
644.849	7.14
645.262	7.14
645.676	7.12
646.089	7.12
646.502	7.12
646.915	7.11
647.328	7.11
647.741	7.1
648.154	7.1
648.567	7.1
648.98	7.09
649.393	7.09
649.805	7.09
650.218	7.08
650.631	7.08
651.043	7.07
651.456	7.07
651.868	7.06
652.28	7.07
652.693	7.08
653.105	7.08
653.517	7.07
653.929	7.07
654.341	7.06
654.753	7.06
655.165	7.06
655.577	7.07
655.989	7.07
656.401	7.07
656.813	7.06
657.224	7.05
657.636	7.04
658.047	7.04
658.459	7.04
658.87	7.04
659.282	7.02
659.693	7.02
660.104	7.01
660.515	7.01
660.926	7
661.338	6.99
661.749	6.99
662.159	6.97
662.57	6.98
662.981	6.97
663.392	6.97
663.803	6.97
664.213	6.97
664.624	6.97
665.035	6.96
665.445	6.97
665.855	6.97
666.266	6.97
666.676	6.99
667.086	6.98
667.497	6.99
667.907	7.01
668.317	7.01
668.727	7.01
669.137	7.02
669.547	7.03
669.956	7.03
670.366	7.04
670.776	7.04
671.186	7.04
671.595	7.05
672.005	7.05
672.414	7.06
672.824	7.06
673.233	7.09
673.642	7.1
674.052	7.11
674.461	7.12
674.87	7.14
675.279	7.17
675.688	7.2
676.097	7.22
676.506	7.24
676.915	7.27
677.323	7.3
677.732	7.3
678.141	7.32
678.549	7.33
678.958	7.35
679.366	7.38
679.775	7.39
680.183	7.39
680.592	7.41
681	7.43
681.408	7.44
681.816	7.46
682.224	7.48
682.632	7.5
683.04	7.51
683.448	7.52
683.856	7.52
684.264	7.53
684.671	7.54
685.079	7.55
685.487	7.56
685.894	7.58
686.302	7.6
686.709	7.61
687.116	7.62
687.524	7.64
687.931	7.67
688.338	7.71
688.745	7.74
689.152	7.76
689.559	7.81
689.966	7.84
690.373	7.89
690.78	7.94
691.187	8.02
691.593	8.09
692	8.17
692.407	8.25
692.813	8.34
693.22	8.46
693.626	8.58
694.032	8.7
694.439	8.85
694.845	9.01
695.251	9.17
695.657	9.33
696.063	9.52
696.469	9.71
696.875	9.93
697.281	10.14
697.687	10.37
698.093	10.61
698.498	10.83
698.904	11.07
699.31	11.32
699.715	11.58
700.12	11.86
700.526	12.14
700.931	12.43
701.337	12.72
701.742	13.02
702.147	13.31
702.552	13.62
702.957	13.95
703.362	14.27
703.767	14.58
704.172	14.9
704.577	15.23
704.981	15.56
705.386	15.9
705.791	16.25
706.195	16.6
706.6	16.97
707.004	17.32
707.408	17.68
707.813	18.08
708.217	18.47
708.621	18.87
709.025	19.25
709.43	19.64
709.834	20.04
710.237	20.42
710.641	20.81
711.045	21.2
711.449	21.62
711.853	22.03
712.256	22.41
712.66	22.82
713.064	23.23
713.467	23.65
713.87	24.08
714.274	24.49
714.677	24.91
715.08	25.34
715.484	25.78
715.887	26.23
716.29	26.66
716.693	27.12
717.096	27.55
717.499	27.98
717.901	28.42
718.304	28.83
718.707	29.28
719.109	29.72
719.512	30.14
719.915	30.57
720.317	30.98
720.719	31.38
721.122	31.79
721.524	32.17
721.926	32.58
722.328	32.98
722.731	33.38
723.133	33.76
723.535	34.14
723.937	34.53
724.338	34.88
724.74	35.26
725.142	35.67
725.544	36.03
725.945	36.43
726.347	36.76
726.748	37.09
727.15	37.43
727.551	37.77
727.952	38.08
728.354	38.4
728.755	38.71
729.156	39
729.557	39.25
729.958	39.53
730.359	39.78
730.76	40.06
731.161	40.34
731.562	40.62
731.962	40.85
732.363	41.11
732.763	41.33
733.164	41.56
733.564	41.8
733.965	42.02
734.365	42.24
734.766	42.45
735.166	42.67
735.566	42.87
735.966	43.04
736.366	43.22
736.766	43.4
737.166	43.6
737.566	43.77
737.966	43.94
738.365	44.09
738.765	44.24
739.165	44.39
739.564	44.54
739.964	44.65
740.363	44.8
740.763	44.94
741.162	45.06
741.561	45.18
741.96	45.28
742.36	45.4
742.759	45.51
743.158	45.62
743.557	45.71
743.955	45.81
744.354	45.93
744.753	46.03
745.152	46.15
745.55	46.23
745.949	46.31
746.348	46.43
746.746	46.49
747.144	46.57
747.543	46.66
747.941	46.77
748.339	46.8
748.737	46.85
749.136	46.9
749.534	46.89
749.932	46.96
750.33	47
750.727	47.06
751.125	47.09
751.523	47.11
751.921	47.15
752.318	47.18
752.716	47.24
753.113	47.29
753.511	47.33
753.908	47.41
754.305	47.43
754.703	47.47
755.1	47.49
755.497	47.53
755.894	47.56
756.291	47.58
756.688	47.6
757.085	47.61
757.482	47.63
757.878	47.67
758.275	47.67
758.672	47.67
759.068	47.7
759.465	47.7
759.861	47.72
760.258	47.75
760.654	47.77
761.05	47.79
761.447	47.81
761.843	47.83
762.239	47.83
762.635	47.86
763.031	47.92
763.427	47.93
763.822	47.95
764.218	47.97
764.614	47.97
765.01	47.98
765.405	47.97
765.801	47.96
766.196	47.97
766.592	47.97
766.987	47.96
767.382	47.93
767.778	47.93
768.173	47.94
768.568	47.93
768.963	47.93
769.358	47.93
769.753	47.93
770.148	47.95
770.542	47.96
770.937	47.97
771.332	47.98
771.726	47.98
772.121	47.97
772.515	47.95
772.91	47.93
773.304	47.96
773.699	47.97
774.093	47.99
774.487	47.99
774.881	48.01
775.275	47.99
775.669	47.99
776.063	47.98
776.457	47.98
776.851	48
777.245	48.01
777.638	47.97
778.032	47.99
778.425	48
778.819	48
779.212	47.97
779.606	47.99
779.999	47.98
780.392	48
780.786	48
781.179	48.02
781.572	48.07
781.965	48.09
782.358	48.1
782.751	48.1
783.143	48.11
783.536	48.13
783.929	48.14
784.322	48.17
784.714	48.17
785.107	48.21
785.499	48.19
785.891	48.18
786.284	48.21
786.676	48.2
787.068	48.19
787.46	48.16
787.852	48.18
788.245	48.18
788.636	48.15
789.028	48.15
789.42	48.12
789.812	48.13
790.204	48.14
790.595	48.12
790.987	48.11
791.378	48.15
791.77	48.17
792.161	48.16
792.553	48.17
792.944	48.18
793.335	48.17
793.726	48.18
794.117	48.17
794.508	48.16
794.899	48.14
795.29	48.14
795.681	48.1
796.072	48.11
796.463	48.09
796.853	48.07
797.244	48.08
797.634	48.09
798.025	48.11
798.415	48.11
798.806	48.1
799.196	48.09
799.586	48.1
799.976	48.13
800.366	48.1
800.756	48.11
801.146	48.11
801.536	48.1
801.926	48.09
802.316	48.1
802.706	48.11
803.095	48.12
803.485	48.13
803.874	48.11
804.264	48.1
804.653	48.13
805.043	48.13
805.432	48.14
805.821	48.15
806.21	48.14
806.599	48.12
806.988	48.11
807.377	48.12
807.766	48.11
808.155	48.1
808.544	48.11
808.933	48.09
809.321	48.12
809.71	48.11
810.098	48.11
810.487	48.09
810.875	48.1
811.264	48.1
811.652	48.09
812.04	48.11
812.428	48.16
812.816	48.13
813.204	48.12
813.592	48.09
813.98	48.1
814.368	48.09
814.756	48.12
815.144	48.12
815.531	48.1
815.919	48.09
816.306	48.1
816.694	48.1
817.081	48.09
817.469	48.09
817.856	48.09
818.243	48.1
818.63	48.08
819.017	48.09
819.404	48.07
819.791	48.08
820.178	48.09
820.565	48.06
820.952	48.04
821.339	48.06
821.725	48.08
822.112	48.08
822.498	48.1
822.885	48.14
823.271	48.11
823.657	48.1
824.044	48.11
824.43	48.11
824.816	48.12
825.202	48.12
825.588	48.12
825.974	48.13
826.36	48.13
826.746	48.1
827.132	48.09
827.517	48.11
827.903	48.17
828.289	48.19
828.674	48.21
829.06	48.21
829.445	48.2
829.83	48.2
830.216	48.16
830.601	48.16
830.986	48.17
831.371	48.16
831.756	48.17
832.141	48.15
832.526	48.13
832.911	48.12
833.295	48.13
833.68	48.15
834.065	48.16
834.449	48.2
834.834	48.21
835.218	48.22
835.603	48.23
835.987	48.22
836.371	48.21
836.755	48.2
837.139	48.21
837.524	48.21
837.908	48.23
838.291	48.25
838.675	48.24
839.059	48.25
839.443	48.25
839.827	48.23
840.21	48.21
840.594	48.23
840.977	48.26
841.361	48.28
841.744	48.27
842.127	48.24
842.511	48.23
842.894	48.23
843.277	48.23
843.66	48.23
844.043	48.27
844.426	48.3
844.809	48.29
845.191	48.3
845.574	48.27
845.957	48.28
846.339	48.31
846.722	48.31
847.104	48.33
847.487	48.32
847.869	48.33
848.252	48.33
848.634	48.33
849.016	48.35
849.398	48.36
849.78	48.39
850.162	48.39
850.544	48.39
850.926	48.38
851.307	48.36
851.689	48.38
852.071	48.41
852.452	48.4
852.834	48.41
853.215	48.37
853.597	48.37
853.978	48.35
854.359	48.35
854.741	48.33
855.122	48.36
855.503	48.36
855.884	48.34
856.265	48.31
856.646	48.33
857.026	48.34
857.407	48.35
857.788	48.34
858.169	48.36
858.549	48.36
858.93	48.36
859.31	48.34
859.69	48.34
860.071	48.37
860.451	48.39
860.831	48.39
861.211	48.37
861.591	48.38
861.971	48.38
862.351	48.39
862.731	48.41
863.111	48.41
863.491	48.4
863.87	48.4
864.25	48.37
864.629	48.36
865.009	48.36
865.388	48.34
865.768	48.34
866.147	48.33
866.526	48.31
866.905	48.27
867.284	48.27
867.663	48.27
868.042	48.29
868.421	48.34
868.8	48.33
869.179	48.33
869.558	48.34
869.936	48.32
870.315	48.33
870.693	48.33
871.072	48.37
871.45	48.38
871.828	48.42
872.207	48.42
872.585	48.38
872.963	48.41
873.341	48.43
873.719	48.43
874.097	48.44
874.475	48.47
874.853	48.48
875.23	48.49
875.608	48.51
875.986	48.51
876.363	48.5
876.741	48.52
877.118	48.5
877.495	48.48
877.873	48.52
878.25	48.53
878.627	48.53
879.004	48.53
879.381	48.53
879.758	48.48
880.135	48.5
880.512	48.49
880.889	48.49
881.265	48.48
881.642	48.5
882.019	48.48
882.395	48.47
882.772	48.47
883.148	48.47
883.524	48.46
883.901	48.49
884.277	48.47
884.653	48.47
885.029	48.47
885.405	48.49
885.781	48.47
886.157	48.47
886.532	48.48
886.908	48.46
887.284	48.45
887.659	48.43
888.035	48.42
888.411	48.4
888.786	48.38
889.161	48.39
889.537	48.38
889.912	48.39
890.287	48.39
890.662	48.39
891.037	48.42
891.412	48.42
891.787	48.42
892.162	48.44
892.536	48.45
892.911	48.46
893.286	48.45
893.66	48.47
894.035	48.47
894.409	48.48
894.784	48.48
895.158	48.48
895.532	48.49
895.906	48.49
896.281	48.48
896.655	48.5
897.029	48.51
897.402	48.53
897.776	48.54
898.15	48.54
898.524	48.53
898.898	48.53
899.271	48.52
899.645	48.54
900.018	48.55
900.392	48.54
900.765	48.52
901.138	48.5
901.511	48.49
901.884	48.47
902.258	48.49
902.631	48.48
903.003	48.49
903.376	48.48
903.749	48.44
904.122	48.46
904.495	48.52
904.867	48.52
905.24	48.54
905.612	48.53
905.985	48.51
906.357	48.5
906.729	48.52
907.102	48.53
907.474	48.52
907.846	48.53
908.218	48.51
908.59	48.49
908.962	48.53
909.334	48.52
909.705	48.53
910.077	48.55
910.449	48.56
910.82	48.54
911.192	48.51
911.563	48.53
911.935	48.53
912.306	48.53
912.677	48.54
913.048	48.53
913.419	48.54
913.79	48.56
914.161	48.55
914.532	48.54
914.903	48.55
915.274	48.56
915.645	48.55
916.015	48.57
916.386	48.57
916.756	48.56
917.127	48.57
917.497	48.54
917.868	48.52
918.238	48.51
918.608	48.53
918.978	48.55
919.348	48.58
919.718	48.58
920.088	48.58
920.458	48.61
920.828	48.61
921.198	48.56
921.567	48.58
921.937	48.6
922.306	48.61
922.676	48.6
923.045	48.58
923.415	48.53
923.784	48.54
924.153	48.53
924.522	48.49
924.891	48.46
925.26	48.47
925.629	48.44
925.998	48.41
926.367	48.42
926.736	48.42
927.104	48.39
927.473	48.36
927.842	48.32
928.21	48.34
928.578	48.33
928.947	48.34
929.315	48.3
929.683	48.29
930.051	48.29
930.42	48.24
930.788	48.19
931.156	48.19
931.523	48.19
931.891	48.2
932.259	48.19
932.627	48.2
932.994	48.2
933.362	48.19
933.729	48.22
934.097	48.21
934.464	48.22
934.831	48.22
935.199	48.19
935.566	48.19
935.933	48.18
936.3	48.14
936.667	48.12
937.034	48.13
937.401	48.15
937.767	48.13
938.134	48.14
938.501	48.11
938.867	48.14
939.234	48.19
939.6	48.21
939.967	48.2
940.333	48.2
940.699	48.21
941.065	48.17
941.431	48.18
941.798	48.15
942.163	48.14
942.529	48.15
942.895	48.17
943.261	48.14
943.627	48.11
943.992	48.12
944.358	48.14
944.723	48.11
945.089	48.05
945.454	48.09
945.82	48.05
946.185	48.05
946.55	48.02
946.915	47.95
947.28	47.9
947.645	47.95
948.01	47.9
948.375	47.86
948.74	47.83
949.104	47.89
949.469	47.84
949.834	47.82
950.198	47.79
950.562	47.81
950.927	47.79
951.291	47.72
951.655	47.64
952.02	47.66
952.384	47.64
952.748	47.61
953.112	47.58
953.476	47.51
953.839	47.5
954.203	47.48
954.567	47.48
954.931	47.45
955.294	47.44
955.658	47.51
956.021	47.48
956.385	47.46
956.748	47.44
957.111	47.43
957.474	47.49
957.837	47.51
958.2	47.5
958.563	47.43
958.926	47.44
959.289	47.42
959.652	47.35
960.015	47.39
960.377	47.36
960.74	47.4
961.102	47.4
961.465	47.42
961.827	47.43
962.189	47.46
962.552	47.5
962.914	47.47
963.276	47.53
963.638	47.54
964	47.51
964.362	47.53
964.724	47.51
965.085	47.48
965.447	47.43
965.809	47.39
966.17	47.38
966.532	47.38
966.893	47.44
967.255	47.45
967.616	47.44
967.977	47.47
968.338	47.47
968.699	47.45
969.061	47.42
969.421	47.47
969.782	47.52
970.143	47.5
970.504	47.47
970.865	47.49
971.225	47.43
971.586	47.42
971.946	47.34
972.307	47.32
972.667	47.33
973.027	47.36
973.388	47.33
973.748	47.31
974.108	47.33
974.468	47.31
974.828	47.23
975.188	47.24
975.548	47.17
975.907	47.22
976.267	47.19
976.627	47.19
976.986	47.17
977.346	47.1
977.705	47.07
978.064	47.08
978.424	47.14
978.783	47.1
979.142	47.12
979.501	47.16
979.86	47.13
980.219	47.15
980.578	47.2
980.937	47.19
981.296	47.22
981.654	47.2
982.013	47.14
982.371	47.07
982.73	47.14
983.088	47.09
983.447	47.06
983.805	47.07
984.163	47.08
984.521	47.01
984.879	46.97
985.237	46.94
985.595	46.96
985.953	46.98
986.311	47
986.669	46.98
987.026	46.93
987.384	46.96
987.741	46.93
988.099	46.93
988.456	46.9
988.814	46.96
989.171	46.97
989.528	47.02
989.885	46.98
990.242	47.04
990.599	47.11
990.956	47.23
991.313	47.25
991.67	47.27
992.027	47.36
992.383	47.41
992.74	47.41
993.096	47.38
993.453	47.24
993.809	47.29
994.165	47.24
994.522	47.18
994.878	47.14
995.234	47.11
995.59	46.95
995.946	46.87
996.302	46.87
996.658	46.89
997.013	46.92
997.369	47.03
997.725	47.05
998.08	47.1
998.436	47.15
998.791	47.14
999.147	47.15
999.502	47.35
999.857	47.29
1000.212	47.16
1000.567	47.15
1000.922	47.13
1001.277	47.08
1001.632	46.95
1001.987	46.88
1002.342	46.75
1002.696	46.69
1003.051	46.79
1003.406	46.89
1003.76	46.89
1004.114	47.02
1004.469	47
1004.823	47.26
1005.177	47.23
1005.531	47.31
1005.885	47.3
1006.239	47.27
1006.593	47.38
1006.947	47.23
1007.301	47.03
1007.655	47.08
1008.008	47.07
1008.362	47.17
1008.715	46.97
1009.069	47.09
1009.422	47.01
1009.776	46.95
1010.129	47.04
1010.482	46.99
1010.835	47.08
1011.188	47.06
1011.541	47.01
1011.894	46.93
1012.247	46.87
1012.6	46.8
1012.952	46.67
1013.305	46.74
1013.657	46.92
1014.01	47.02
1014.362	47
1014.715	46.99
1015.067	47
1015.419	47.15
1015.771	47.07
1016.123	47.06
1016.475	47.1
1016.827	47.15
1017.179	47.28
1017.531	47.1
1017.883	46.95
1018.234	47.01
1018.586	47.05
1018.938	47.19
1019.289	46.99
1019.64	47.13
1019.992	47.03
1020.343	47
1020.694	46.97
1021.045	46.85
1021.396	46.92
1021.747	46.85
1022.098	46.94
1022.449	46.87
1022.8	46.82
1023.151	46.9
1023.501	47
1023.852	47.06
1024.202	46.85
1024.553	46.54
1024.903	46.57
1025.253	46.61
1025.604	46.59
1025.954	46.17
1026.304	46.1
1026.654	45.93
1027.004	45.97
1027.354	45.88
1027.703	45.6
1028.053	45.77
1028.403	46.2
1028.753	45.87
1029.102	45.67
1029.452	45.72
1029.801	45.84
1030.15	45.77
1030.499	45.77
897.758	763.61
901.051	765.67
904.343	768.79
907.636	781.43
910.928	758.68
914.22	760.39
917.511	753.9
920.803	716.16
924.094	714.76
927.384	696.68
930.675	671.22
933.965	668.63
937.255	630.43
940.544	604.36
943.834	575.71
947.123	572.32
950.411	539.9
953.7	528.77
956.988	503.33
960.276	484.79
963.563	476.57
966.851	461.14
970.138	456.2
973.424	444.47
976.711	444.29
979.997	425.36
983.283	421.79
986.568	413.75
989.853	401.5
993.138	394.48
996.423	379.62
999.708	371.22
1002.992	365.6
1006.275	349.94
1009.559	346.64
1012.842	336.03
1016.125	327.34
1019.408	322.08
1022.69	317.96
1025.972	310.92
1029.254	304.62
1032.536	299.39
1035.817	293.39
1039.098	290.58
1042.379	285.97
1045.659	282.3
1048.939	275.65
1052.219	270.28
1055.498	267.63
1058.778	259.9
1062.057	256.21
1065.335	253.61
1068.614	250.26
1071.892	247.3
1075.17	241.11
1078.447	236.41
1081.724	234.18
1085.001	231.99
1088.278	228.22
1091.554	223.21
1094.83	224.55
1098.106	222.07
1101.382	220.8
1104.657	219.91
1107.932	215.9
1111.206	216.6
1114.481	211.68
1117.755	210.58
1121.029	209.8
1124.302	208.93
1127.575	205.5
1130.848	203.1
1134.121	201.46
1137.393	199.62
1140.665	195.46
1143.937	194.52
1147.208	193.34
1150.48	192.61
1153.75	190.97
1157.021	188.01
1160.291	187.77
1163.561	186.21
1166.831	185.99
1170.101	184.65
1173.37	184.18
1176.639	184.89
1179.907	183.59
1183.176	180.97
1186.444	181.62
1189.711	180.75
1192.979	179.73
1196.246	179.32
1199.513	179.58
1202.78	178.46
1206.046	178.01
1209.312	177.18
1212.578	177.33
1215.843	178.21
1219.108	177.57
1222.373	180.56
1225.638	181.57
1228.902	184.07
1232.166	184.17
1235.43	185.12
1238.693	187.99
1241.956	188.99
1245.219	190.54
1248.482	191.15
1251.744	191.43
1255.006	191.62
1258.268	187.55
1261.529	186.28
1264.79	185.01
1268.051	184
1271.312	182.14
1274.572	179.88
1277.832	178.7
1281.092	176.03
1284.351	174.35
1287.61	174.72
1290.869	172.56
1294.128	171.71
1297.386	171.23
1300.644	170.23
1303.902	170.67
1307.159	169.69
1310.416	169.36
1313.673	168.75
1316.93	170.35
1320.186	169.9
1323.442	169.99
1326.697	172.16
1329.953	172.02
1333.208	172.57
1336.463	174.89
1339.717	174.39
1342.972	176.18
1346.226	177.56
1349.479	178.29
1352.733	179.46
1355.986	180.89
1359.238	180.33
1362.491	180.25
1365.743	181.72
1368.995	181.65
1372.247	180.89
1375.498	180.64
1378.749	181.4
1382	178.85
1385.251	178.31
1388.501	177.45
1391.751	176.38
1395	175.75
1398.25	174.74
1401.499	173.29
1404.748	172.48
1407.996	170.82
1411.244	169.59
1414.492	168.14
1417.74	166.62
1420.987	165.1
1424.234	164.1
1427.481	161.53
1430.728	160.84
1433.974	160.09
1437.22	157.53
1440.465	156.89
1443.711	154.3
1446.956	153.35
1450.201	152.7
1453.445	151.31
1456.689	150.09
1459.933	146.9
1463.177	146.83
1466.42	144.41
1469.663	142.66
1472.906	142.37
1476.148	139.27
1479.391	137.94
1482.633	137.29
1485.874	135.02
1489.115	133.83
1492.356	132.74
1495.597	132.55
1498.838	130.1
1502.078	130.03
1505.318	129.56
1508.557	129.66
1511.797	129.31
1515.036	128.96
1518.274	128.46
1521.513	126.86
1524.751	127.17
1527.989	127.15
1531.227	127.17
1534.464	127.12
1537.701	126.18
1540.938	125.82
1544.174	124.72
1547.41	125.55
1550.646	124.27
1553.882	124.59
1557.117	124.13
1560.352	123.42
1563.587	122.97
1566.821	122.33
1570.055	122.21
1573.289	121.91
1576.523	121.7
1579.756	121.02
1582.989	120.31
1586.222	120.38
1589.454	119.96
1592.686	120.98
1595.918	120.36
1599.15	120.13
1602.381	120.29
1605.612	120.21
1608.843	120.31
1612.073	119.9
1615.303	120.6
1618.533	120.79
1621.762	121.39
1624.992	121.44
1628.221	121.03
1631.449	121.07
1634.678	120.94
1637.906	121.75
1641.134	121.62
1644.361	121.45
1647.588	122.42
1650.815	122.06
1654.042	121.42
1657.269	122.11
1660.495	122.11
1663.72	121.63
1666.946	122.29
1670.171	122.57
1673.396	122.31
1676.621	122.4
1679.845	122.67
1683.069	122.75
1686.293	123.43
1689.517	123.82
1692.74	123.36
1695.963	123.78
1699.185	124.63
1702.408	124.57
1705.63	124.9
1708.852	125.45
1712.073	125.35
1715.294	125.62
1718.515	126.33
1721.736	126.12
1724.956	126.49
1728.176	126.58
1731.396	126.54
1734.616	126.81
1737.835	127.39
1741.054	126.71
1744.272	126.67
1747.491	127.68
1750.709	127.72
1753.927	127.09
1757.144	127.18
1760.361	127.49
1763.578	127.32
1766.795	127.13
1770.011	128.1
1773.227	127.75
1776.443	128.66
1779.658	128.56
1782.874	129.04
1786.089	129.26
1789.303	129.69
1792.518	130.12
1795.732	130.31
1798.945	131.94
1802.159	132.49
1805.372	132.38
1808.585	133.84
1811.797	134.58
1815.01	135.56
1818.222	136.04
1821.434	137.17
1824.645	137.51
1827.856	139.96
1831.067	140.48
1834.278	140.09
1837.488	141.17
1840.698	141.69
1843.908	141.21
1847.117	141.12
1850.326	141.37
1853.535	140.33
1856.744	142.26
1859.952	141.42
1863.16	140.4
1866.368	139.27
1869.575	140.03
1872.782	137.15
1875.989	135.84
1879.196	135.54
1882.402	134.61
1885.608	134.52
1888.814	134.86
1892.019	132.63
1895.224	132.61
1898.429	132.04
1901.634	132.25
1904.838	132.13
1908.042	134.12
1911.246	134.23
1914.449	134.64
1917.652	135.1
1920.855	134.89
1924.058	134.55
1927.26	134.84
1930.462	134.95
1933.664	135.87
1936.865	135.35
1940.066	134.86
1943.267	133.39
1946.467	134.16
1949.668	134.67
1952.868	136.27
1956.067	136.34
1959.267	136.39
1962.466	137.26
1965.665	136.54
1968.863	137.2
1972.061	138.53
1975.259	139.88
1978.457	141.25
1981.654	142.71
1984.852	142.84
1988.048	142.32
1991.245	143.67
1994.441	145.42
1997.637	146.35
2000.833	149.44
2004.028	150.24
2007.223	152.89
2010.418	153.57
2013.613	156.67
2016.807	157.95
2020.001	160.21
2023.194	162.99
2026.388	166.28
2029.581	169.34
2032.774	170.47
2035.966	173.08
2039.158	174.78
2042.35	176.89
2045.542	178.4
2048.733	180.64
2051.924	182.94
2055.115	185.21
2058.306	185.37
2061.496	186.9
2064.686	186.92
2067.875	191.34
2071.065	192.26
2074.254	191.89
2077.442	194.6
2080.631	195.89
2083.819	197.78
2087.007	199.18
2090.195	201.4
2093.382	202.62
2096.569	202.14
2099.756	207.2
2102.942	207.13
2106.128	209.07
2109.314	212.72
2112.5	212
2115.685	216.84
2118.87	217.85
2122.055	220.91
2125.239	222.18
2128.424	226.12
2131.608	227.28
2134.791	229.98
2137.974	230.96
2141.157	231.98
2144.34	232.99
2147.523	235.41
2150.705	233.78
2153.887	236.96
2157.068	237.89
2160.25	235.45
2163.431	236.06
2166.611	237.88
2169.792	241.62
2172.972	244.19
2176.152	246.27
2179.331	249.48
2182.511	253.83
2185.69	256.28
2188.868	260.9
2192.047	260.92
2195.225	270.22
2198.403	275.33
2201.58	282.82
2204.758	284.63
2207.935	290.58
2211.111	295.44
2214.288	298.38
2217.464	299.17
2220.64	305.08
2223.815	307.11
2226.991	319.41
2230.166	318.68
2233.34	323.35
2236.515	326.76
2239.689	331.24
2242.863	333.11
2246.036	342.1
2249.209	341.8
2252.382	347.08
2255.555	355.38
2258.727	357.3
2261.9	359.72
2265.071	364.57
2268.243	371.94
2271.414	375.04
2274.585	382.72
2277.756	387.1
2280.926	391.98
2284.096	398.68
2287.266	405.76
2290.436	410.24
2293.605	418.36
2296.774	429.62
2299.942	442.6
2303.111	446.22
2306.279	458.41
2309.447	461.8
2312.614	473.33
2315.781	484.01
2318.948	507.01
2322.115	502.67
2325.281	529.89
2328.447	518.4
2331.613	541.41
2334.779	534.59
2337.944	558.13
2341.109	563.04
2344.274	579.32
2347.438	597.01
2350.602	595.3
2353.766	614.65
2356.929	624.41
2360.092	622.76
2363.255	667.77
2366.418	667.44
2369.58	678.96
2372.742	716.64
2375.904	736.88
2379.066	734.86
2382.227	723.8
2385.388	783.06
2388.548	785.73
2391.709	795.36
2394.869	878.38
2398.029	846.7
2401.188	868.45
2404.347	862.18
2407.506	849.27
2410.665	871.83
2413.823	925.14
2416.981	979.31
2420.139	948.84
2423.296	938.5
2426.453	973.47
2429.61	936.71
2432.767	974.76
2435.923	966.51
2439.079	1059.07
2442.235	1076.28
2445.391	1063.1
2448.546	1054.13
2451.701	1027.62
2454.855	1029.34
2458.009	1084.32
2461.163	1135.01
2464.317	1176.88
2467.471	1207.27
2470.624	1211.24
2473.777	1181.78
2476.929	1146.96
2480.082	1114.97
2483.234	1104.83
2486.385	1157.34
2489.537	1163.96
2492.688	1208.76
2495.839	1171.97
2498.989	1150.08
2502.14	1155.79
2505.29	1156.6
2508.439	1177.39
2511.589	1178.91
2514.738	1285.27
2517.887	1255.21
2521.035	1326.89
2524.183	1330.12
2527.331	1341.05
2530.479	1337.11
2533.627	1342.98
