Data from C_1_HIR_IL_4N_Splice17_12-49-44-820.txt Node
Date: Sat Mar 07 12:49:44 EST 2020
User: sa697716
Spectrometer: NQ5500242
Trigger mode: 0
Integration Time (sec): 1.450000E-1
Scans to average: 20
Nonlinearity correction enabled: false
Boxcar width: 5
Storing dark spectrum: false
XAxis mode: Wavelengths
Number of Pixels in Spectrum: 512
>>>>>Begin Spectral Data<<<<<
187.83	213.87
188.298	233.98
188.766	196.33
189.233	162.92
189.701	185.87
190.169	220.45
190.636	245.95
191.104	461.53
191.571	491.8
192.039	349.69
192.506	124.53
192.974	96
193.441	151.45
193.908	16.49
194.375	55.08
194.842	55.19
195.31	98.95
195.777	148.72
196.244	47.07
196.711	36.22
197.177	37.73
197.644	36.96
198.111	36.58
198.578	36.78
199.045	37.09
199.511	36.69
199.978	36.73
200.445	36.7
200.911	36.73
201.378	36.85
201.844	36.68
202.31	36.55
202.777	36.67
203.243	36.61
203.709	36.52
204.176	36.1
204.642	36.07
205.108	36.09
205.574	35.92
206.04	35.53
206.506	35.2
206.972	35.33
207.438	35.04
207.903	34.61
208.369	34.05
208.835	33.54
209.301	33.14
209.766	32.31
210.232	31.62
210.697	30.85
211.163	30.34
211.628	29.8
212.094	29.25
212.559	28.82
213.024	28.25
213.49	27.66
213.955	27
214.42	26.51
214.885	26.09
215.35	25.37
215.815	24.34
216.28	22.89
216.745	21.58
217.21	20.12
217.675	18.77
218.14	17.63
218.604	16.7
219.069	15.92
219.534	15.24
219.998	14.63
220.463	14.11
220.927	13.71
221.392	13.36
221.856	13.05
222.32	12.77
222.785	12.54
223.249	12.32
223.713	12.12
224.177	11.94
224.642	11.74
225.106	11.56
225.57	11.4
226.034	11.22
226.497	11.09
226.961	10.95
227.425	10.82
227.889	10.69
228.353	10.57
228.816	10.43
229.28	10.29
229.744	10.17
230.207	10.05
230.671	9.91
231.134	9.82
231.597	9.71
232.061	9.6
232.524	9.49
232.987	9.37
233.45	9.27
233.914	9.17
234.377	9.08
234.84	8.97
235.303	8.89
235.766	8.82
236.229	8.72
236.691	8.63
237.154	8.55
237.617	8.48
238.08	8.4
238.542	8.31
239.005	8.25
239.468	8.17
239.93	8.1
240.393	8.03
240.855	7.95
241.317	7.88
241.78	7.81
242.242	7.72
242.704	7.65
243.166	7.59
243.629	7.53
244.091	7.47
244.553	7.4
245.015	7.34
245.477	7.28
245.939	7.22
246.4	7.17
246.862	7.12
247.324	7.07
247.786	7.01
248.247	6.95
248.709	6.9
249.17	6.83
249.632	6.78
250.093	6.74
250.555	6.68
251.016	6.64
251.477	6.58
251.939	6.53
252.4	6.49
252.861	6.45
253.322	6.41
253.783	6.38
254.244	6.35
254.705	6.31
255.166	6.27
255.627	6.23
256.088	6.2
256.549	6.17
257.009	6.13
257.47	6.1
257.931	6.06
258.391	6.01
258.852	5.97
259.312	5.93
259.773	5.9
260.233	5.87
260.694	5.85
261.154	5.81
261.614	5.78
262.074	5.76
262.534	5.73
262.994	5.71
263.455	5.7
263.915	5.68
264.374	5.66
264.834	5.65
265.294	5.63
265.754	5.62
266.214	5.61
266.673	5.59
267.133	5.58
267.593	5.57
268.052	5.55
268.512	5.54
268.971	5.52
269.431	5.5
269.89	5.48
270.349	5.47
270.809	5.45
271.268	5.43
271.727	5.42
272.186	5.4
272.645	5.39
273.104	5.37
273.563	5.35
274.022	5.33
274.481	5.32
274.94	5.3
275.399	5.28
275.857	5.27
276.316	5.25
276.775	5.24
277.233	5.23
277.692	5.22
278.15	5.2
278.609	5.19
279.067	5.17
279.525	5.17
279.984	5.15
280.442	5.13
280.9	5.12
281.358	5.1
281.816	5.09
282.274	5.07
282.732	5.05
283.19	5.03
283.648	5.02
284.106	5
284.564	4.98
285.021	4.98
285.479	4.96
285.937	4.95
286.394	4.94
286.852	4.92
287.309	4.91
287.767	4.89
288.224	4.87
288.682	4.85
289.139	4.83
289.596	4.81
290.053	4.78
290.511	4.76
290.968	4.74
291.425	4.72
291.882	4.7
292.339	4.68
292.796	4.67
293.252	4.66
293.709	4.65
294.166	4.64
294.623	4.63
295.079	4.62
295.536	4.61
295.992	4.6
296.449	4.59
296.905	4.58
297.362	4.56
297.818	4.55
298.274	4.54
298.731	4.52
299.187	4.5
299.643	4.49
300.099	4.48
300.555	4.47
301.011	4.45
301.467	4.43
301.923	4.42
302.379	4.41
302.835	4.41
303.291	4.39
303.746	4.39
304.202	4.38
304.658	4.37
305.113	4.36
305.569	4.35
306.024	4.34
306.479	4.33
306.935	4.32
307.39	4.31
307.845	4.3
308.301	4.3
308.756	4.29
309.211	4.28
309.666	4.28
310.121	4.27
310.576	4.27
311.031	4.27
311.486	4.27
311.94	4.27
312.395	4.26
312.85	4.25
313.305	4.24
313.759	4.24
314.214	4.24
314.668	4.23
315.123	4.22
315.577	4.22
316.032	4.2
316.486	4.19
316.94	4.17
317.394	4.17
317.849	4.16
318.303	4.15
318.757	4.13
319.211	4.11
319.665	4.09
320.119	4.07
320.572	4.06
321.026	4.05
321.48	4.03
321.934	4.02
322.387	4.01
322.841	4
323.295	3.99
323.748	3.98
324.202	3.98
324.655	3.97
325.108	3.97
325.562	3.97
326.015	3.98
326.468	3.97
326.921	3.97
327.374	3.96
327.827	3.96
328.28	3.95
328.733	3.95
329.186	3.95
329.639	3.95
330.092	3.95
330.545	3.94
330.997	3.93
331.45	3.94
331.903	3.94
332.355	3.94
332.808	3.93
333.26	3.93
333.713	3.92
334.165	3.91
334.617	3.91
335.069	3.9
335.522	3.91
335.974	3.9
336.426	3.89
336.878	3.89
337.33	3.89
337.782	3.89
338.234	3.9
338.686	3.9
339.137	3.9
339.589	3.89
340.041	3.88
340.493	3.87
340.944	3.85
341.396	3.84
341.847	3.83
342.299	3.81
342.75	3.79
343.201	3.77
343.653	3.75
344.104	3.72
344.555	3.71
345.006	3.7
345.457	3.69
345.908	3.69
346.359	3.69
346.81	3.68
347.261	3.68
347.712	3.68
348.163	3.67
348.613	3.68
349.064	3.67
349.515	3.67
349.965	3.67
350.416	3.67
350.866	3.66
351.317	3.65
351.767	3.65
352.217	3.65
352.668	3.64
353.118	3.64
353.568	3.63
354.018	3.64
354.468	3.64
354.918	3.64
355.368	3.63
355.818	3.63
356.268	3.62
356.718	3.62
357.168	3.62
357.617	3.61
358.067	3.61
358.517	3.62
358.966	3.62
359.416	3.62
359.865	3.61
360.315	3.62
360.764	3.61
361.213	3.61
361.663	3.6
362.112	3.6
362.561	3.61
363.01	3.6
363.459	3.57
363.908	3.56
364.357	3.56
364.806	3.56
365.255	3.55
365.703	3.56
366.152	3.57
366.601	3.57
367.05	3.58
367.498	3.57
367.947	3.57
368.395	3.59
368.844	3.59
369.292	3.59
369.74	3.6
370.189	3.6
370.637	3.61
371.085	3.59
371.533	3.58
371.981	3.58
372.429	3.58
372.877	3.59
373.325	3.58
373.773	3.59
374.221	3.59
374.669	3.58
375.116	3.58
375.564	3.58
376.012	3.59
376.459	3.59
376.907	3.6
377.354	3.61
377.801	3.62
378.249	3.63
378.696	3.63
379.143	3.64
379.591	3.66
380.038	3.67
380.485	3.68
380.932	3.68
381.379	3.69
381.826	3.7
382.273	3.71
382.72	3.71
383.166	3.72
383.613	3.72
384.06	3.73
384.506	3.74
384.953	3.75
385.4	3.76
385.846	3.79
386.292	3.8
386.739	3.81
387.185	3.82
387.631	3.84
388.078	3.86
388.524	3.88
388.97	3.89
389.416	3.91
389.862	3.92
390.308	3.94
390.754	3.95
391.2	3.97
391.645	3.99
392.091	4.01
392.537	4.02
392.983	4.05
393.428	4.07
393.874	4.08
394.319	4.09
394.765	4.1
395.21	4.11
395.655	4.12
396.101	4.14
396.546	4.15
396.991	4.16
397.436	4.18
397.881	4.2
398.326	4.22
398.771	4.24
399.216	4.26
399.661	4.28
400.106	4.29
400.551	4.3
400.995	4.29
401.44	4.3
401.885	4.3
402.329	4.31
402.774	4.31
403.218	4.33
403.663	4.33
404.107	4.33
404.551	4.33
404.995	4.33
405.44	4.33
405.884	4.35
406.328	4.36
406.772	4.36
407.216	4.36
407.66	4.36
408.104	4.35
408.547	4.36
408.991	4.37
409.435	4.37
409.879	4.39
410.322	4.4
410.766	4.41
411.209	4.43
411.653	4.45
412.096	4.46
412.54	4.47
412.983	4.47
413.426	4.49
413.869	4.51
414.312	4.53
414.756	4.53
415.199	4.52
415.642	4.51
416.085	4.5
416.527	4.48
416.97	4.48
417.413	4.46
417.856	4.46
418.298	4.45
418.741	4.43
419.184	4.42
419.626	4.41
420.069	4.42
420.511	4.42
420.953	4.43
421.396	4.44
421.838	4.45
422.28	4.47
422.722	4.49
423.164	4.49
423.606	4.49
424.048	4.5
424.49	4.5
424.932	4.5
425.374	4.49
425.816	4.48
426.258	4.46
426.699	4.44
427.141	4.43
427.582	4.42
428.024	4.41
428.465	4.41
428.907	4.38
429.348	4.37
429.789	4.36
430.231	4.37
430.672	4.38
431.113	4.39
431.554	4.4
431.995	4.4
432.436	4.41
432.877	4.42
433.318	4.45
433.759	4.47
434.2	4.49
434.64	4.5
435.081	4.51
435.522	4.51
435.962	4.53
436.403	4.55
436.843	4.56
437.284	4.56
437.724	4.55
438.164	4.53
438.604	4.55
439.045	4.55
439.485	4.55
439.925	4.56
440.365	4.56
440.805	4.55
441.245	4.56
441.685	4.57
442.125	4.59
442.564	4.6
443.004	4.61
443.444	4.63
443.883	4.63
444.323	4.63
444.762	4.64
445.202	4.65
445.641	4.68
446.081	4.69
446.52	4.69
446.959	4.7
447.398	4.72
447.837	4.73
448.276	4.74
448.716	4.76
449.154	4.78
449.593	4.79
450.032	4.8
450.471	4.77
450.91	4.77
451.349	4.79
451.787	4.79
452.226	4.78
452.664	4.77
453.103	4.76
453.541	4.76
453.98	4.76
454.418	4.74
454.856	4.73
455.295	4.73
455.733	4.71
456.171	4.7
456.609	4.69
457.047	4.68
457.485	4.68
457.923	4.67
458.361	4.66
458.798	4.66
459.236	4.66
459.674	4.66
460.111	4.66
460.549	4.67
460.987	4.67
461.424	4.68
461.862	4.69
462.299	4.69
462.736	4.7
463.173	4.71
463.611	4.69
464.048	4.7
464.485	4.69
464.922	4.7
465.359	4.7
465.796	4.7
466.233	4.69
466.67	4.7
467.106	4.71
467.543	4.71
467.98	4.7
468.416	4.72
468.853	4.72
469.29	4.73
469.726	4.73
470.162	4.71
470.599	4.72
471.035	4.71
471.471	4.71
471.907	4.7
472.344	4.7
472.78	4.7
473.216	4.69
473.652	4.69
474.088	4.67
474.523	4.67
474.959	4.67
475.395	4.67
475.831	4.66
476.266	4.65
476.702	4.64
477.138	4.64
477.573	4.64
478.008	4.63
478.444	4.63
478.879	4.64
479.314	4.63
479.75	4.62
480.185	4.6
480.62	4.59
481.055	4.59
481.49	4.58
481.925	4.58
482.36	4.57
482.795	4.56
483.229	4.55
483.664	4.54
484.099	4.54
484.534	4.55
484.968	4.56
485.403	4.57
485.837	4.58
486.271	4.59
486.706	4.59
487.14	4.6
487.574	4.62
488.009	4.64
488.443	4.65
488.877	4.67
489.311	4.69
489.745	4.71
490.179	4.74
490.613	4.77
491.046	4.78
491.48	4.81
491.914	4.85
492.348	4.88
492.781	4.92
493.215	4.96
493.648	5
494.082	5.04
494.515	5.07
494.948	5.12
495.382	5.16
495.815	5.22
496.248	5.27
496.681	5.33
497.114	5.39
497.547	5.46
497.98	5.54
498.413	5.61
498.846	5.69
499.279	5.77
499.711	5.84
500.144	5.94
500.577	6.03
501.009	6.12
501.442	6.23
501.874	6.34
502.306	6.44
502.739	6.56
503.171	6.68
503.603	6.81
504.036	6.94
504.468	7.09
504.9	7.23
505.332	7.38
505.764	7.54
506.196	7.69
506.627	7.88
507.059	8.06
507.491	8.24
507.923	8.43
508.354	8.64
508.786	8.84
509.217	9.06
509.649	9.28
510.08	9.51
510.512	9.75
510.943	9.99
511.374	10.22
511.805	10.48
512.237	10.74
512.668	10.99
513.099	11.26
513.53	11.53
513.961	11.8
514.391	12.08
514.822	12.36
515.253	12.65
515.684	12.94
516.114	13.23
516.545	13.53
516.975	13.83
517.406	14.14
517.836	14.44
518.267	14.76
518.697	15.06
519.127	15.36
519.558	15.66
519.988	15.96
520.418	16.25
520.848	16.54
521.278	16.82
521.708	17.23
522.138	17.51
522.567	17.78
522.997	18.03
523.427	18.3
523.857	18.56
524.286	18.8
524.716	19.04
525.145	19.29
525.575	19.53
526.004	19.75
526.433	19.84
526.863	20.05
527.292	20.26
527.721	20.45
528.15	20.63
528.579	20.81
529.008	20.98
529.437	21.14
529.866	21.3
530.295	21.44
530.724	21.59
531.152	21.73
531.581	21.86
532.01	22
532.438	22.13
532.867	22.26
533.295	22.38
533.723	22.49
534.152	22.59
534.58	22.69
535.008	22.77
535.436	22.86
535.865	22.93
536.293	23
536.721	23.08
537.149	23.14
537.576	23.18
538.004	23.24
538.432	23.28
538.86	23.33
539.287	23.37
539.715	23.43
540.143	23.47
540.57	23.53
540.998	23.57
541.425	23.61
541.852	23.66
542.28	23.7
542.707	23.74
543.134	23.79
543.561	23.84
543.988	23.87
544.415	23.91
544.842	23.94
545.269	23.97
545.696	24
546.123	24.03
546.549	24.05
546.976	24.09
547.403	24.12
547.829	24.14
548.256	24.16
548.682	24.18
549.108	24.2
549.535	24.21
549.961	24.22
550.387	24.23
550.813	24.24
551.24	24.23
551.666	24.22
552.092	24.2
552.518	24.19
552.943	24.17
553.369	24.15
553.795	24.13
554.221	24.1
554.646	24.06
555.072	24.01
555.498	23.95
555.923	23.88
556.349	23.82
556.774	23.76
557.199	23.7
557.625	23.62
558.05	23.53
558.475	23.46
558.9	23.36
559.325	23.29
559.75	23.2
560.175	23.12
560.6	23.04
561.025	22.93
561.449	22.83
561.874	22.7
562.299	22.59
562.723	22.47
563.148	22.33
563.572	22.2
563.997	22.05
564.421	21.9
564.846	21.74
565.27	21.58
565.694	21.43
566.118	21.28
566.542	21.13
566.966	20.96
567.39	20.81
567.814	20.65
568.238	20.5
568.662	20.33
569.086	20.18
569.509	20.03
569.933	19.88
570.357	19.72
570.78	19.56
571.204	19.42
571.627	19.28
572.05	19.13
572.474	18.99
572.897	18.85
573.32	18.72
573.743	18.58
574.166	18.45
574.589	18.31
575.012	18.18
575.435	18.06
575.858	17.93
576.281	17.8
576.704	17.68
577.126	17.56
577.549	17.44
577.972	17.32
578.394	17.22
578.817	17.12
579.239	17.03
579.661	16.94
580.084	16.85
580.506	16.77
580.928	16.68
581.35	16.59
581.772	16.51
582.194	16.44
582.616	16.36
583.038	16.28
583.46	16.19
583.882	16.1
584.303	16.01
584.725	15.94
585.147	15.85
585.568	15.77
585.99	15.71
586.411	15.64
586.833	15.57
587.254	15.5
587.675	15.45
588.096	15.4
588.518	15.35
588.939	15.31
589.36	15.24
589.781	15.21
590.202	15.18
590.623	15.13
591.043	15.08
591.464	15.04
591.885	14.99
592.305	14.94
592.726	14.92
593.147	14.88
593.567	14.85
593.987	14.81
594.408	14.77
594.828	14.72
595.248	14.69
595.669	14.67
596.089	14.64
596.509	14.62
596.929	14.6
597.349	14.57
597.769	14.53
598.189	14.49
598.608	14.46
599.028	14.42
599.448	14.38
599.867	14.34
600.287	14.3
600.706	14.25
601.126	14.2
601.545	14.14
601.965	14.1
602.384	14.05
602.803	13.99
603.222	13.94
603.641	13.88
604.061	13.83
604.48	13.75
604.898	13.68
605.317	13.61
605.736	13.54
606.155	13.48
606.574	13.39
606.992	13.32
607.411	13.25
607.829	13.14
608.248	13.05
608.666	12.96
609.085	12.88
609.503	12.81
609.921	12.73
610.339	12.65
610.758	12.56
611.176	12.47
611.594	12.38
612.012	12.29
612.43	12.23
612.847	12.15
613.265	12.07
613.683	11.99
614.101	11.91
614.518	11.83
614.936	11.75
615.353	11.68
615.771	11.61
616.188	11.55
616.606	11.49
617.023	11.43
617.44	11.38
617.857	11.32
618.274	11.26
618.691	11.21
619.108	11.17
619.525	11.11
619.942	11.07
620.359	11.03
620.776	10.99
621.192	10.94
621.609	10.91
622.026	10.89
622.442	10.86
622.859	10.83
623.275	10.8
623.691	10.78
624.108	10.77
624.524	10.76
624.94	10.74
625.356	10.73
625.772	10.72
626.188	10.7
626.604	10.69
627.02	10.67
627.436	10.67
627.852	10.67
628.268	10.64
628.683	10.62
629.099	10.6
629.514	10.59
629.93	10.57
630.345	10.54
630.761	10.51
631.176	10.48
631.591	10.44
632.007	10.4
632.422	10.35
632.837	10.31
633.252	10.26
633.667	10.2
634.082	10.14
634.497	10.09
634.911	10.02
635.326	9.94
635.741	9.87
636.155	9.79
636.57	9.7
636.984	9.61
637.399	9.51
637.813	9.41
638.228	9.31
638.642	9.2
639.056	9.08
639.47	8.98
639.884	8.88
640.298	8.77
640.712	8.66
641.126	8.54
641.54	8.42
641.954	8.31
642.368	8.19
642.781	8.09
643.195	7.99
643.609	7.89
644.022	7.78
644.436	7.69
644.849	7.6
645.262	7.5
645.676	7.42
646.089	7.34
646.502	7.28
646.915	7.22
647.328	7.15
647.741	7.08
648.154	7.02
648.567	6.97
648.98	6.91
649.393	6.86
649.805	6.82
650.218	6.78
650.631	6.75
651.043	6.69
651.456	6.65
651.868	6.61
652.28	6.56
652.693	6.52
653.105	6.47
653.517	6.42
653.929	6.38
654.341	6.32
654.753	6.26
655.165	6.19
655.577	6.14
655.989	6.07
656.401	6
656.813	5.94
657.224	5.86
657.636	5.79
658.047	5.72
658.459	5.64
658.87	5.56
659.282	5.49
659.693	5.41
660.104	5.33
660.515	5.25
660.926	5.17
661.338	5.1
661.749	5.03
662.159	4.96
662.57	4.9
662.981	4.85
663.392	4.79
663.803	4.74
664.213	4.69
664.624	4.65
665.035	4.6
665.445	4.56
665.855	4.52
666.266	4.5
666.676	4.48
667.086	4.43
667.497	4.4
667.907	4.38
668.317	4.36
668.727	4.34
669.137	4.32
669.547	4.32
669.956	4.32
670.366	4.31
670.776	4.31
671.186	4.3
671.595	4.3
672.005	4.3
672.414	4.31
672.824	4.31
673.233	4.33
673.642	4.34
674.052	4.34
674.461	4.36
674.87	4.37
675.279	4.39
675.688	4.42
676.097	4.44
676.506	4.46
676.915	4.48
677.323	4.51
677.732	4.54
678.141	4.57
678.549	4.61
678.958	4.64
679.366	4.69
679.775	4.73
680.183	4.78
680.592	4.85
681	4.91
681.408	4.99
681.816	5.06
682.224	5.15
682.632	5.24
683.04	5.34
683.448	5.47
683.856	5.59
684.264	5.74
684.671	5.89
685.079	6.07
685.487	6.27
685.894	6.49
686.302	6.73
686.709	7
687.116	7.3
687.524	7.61
687.931	7.94
688.338	8.3
688.745	8.68
689.152	9.09
689.559	9.53
689.966	9.99
690.373	10.46
690.78	10.96
691.187	11.47
691.593	12
692	12.54
692.407	13.08
692.813	13.66
693.22	14.24
693.626	14.84
694.032	15.42
694.439	16.03
694.845	16.63
695.251	17.23
695.657	17.84
696.063	18.45
696.469	19.07
696.875	19.69
697.281	20.28
697.687	20.89
698.093	21.47
698.498	22.06
698.904	22.64
699.31	23.21
699.715	23.78
700.12	24.33
700.526	24.88
700.931	25.44
701.337	25.98
701.742	26.52
702.147	27.05
702.552	27.58
702.957	28.08
703.362	28.56
703.767	29.04
704.172	29.53
704.577	30.01
704.981	30.47
705.386	30.92
705.791	31.35
706.195	31.78
706.6	32.2
707.004	32.62
707.408	33.05
707.813	33.47
708.217	33.88
708.621	34.27
709.025	34.67
709.43	35.05
709.834	35.42
710.237	35.79
710.641	36.16
711.045	36.51
711.449	36.85
711.853	37.2
712.256	37.52
712.66	37.86
713.064	38.2
713.467	38.51
713.87	38.83
714.274	39.14
714.677	39.46
715.08	39.73
715.484	40.06
715.887	40.38
716.29	40.66
716.693	40.95
717.096	41.24
717.499	41.52
717.901	41.81
718.304	42.09
718.707	42.34
719.109	42.58
719.512	42.84
719.915	43.07
720.317	43.28
720.719	43.48
721.122	43.7
721.524	43.92
721.926	44.11
722.328	44.3
722.731	44.49
723.133	44.71
723.535	44.91
723.937	45.1
724.338	45.27
724.74	45.46
725.142	45.72
725.544	45.87
725.945	46.06
726.347	46.22
726.748	46.35
727.15	46.48
727.551	46.64
727.952	46.74
728.354	46.88
728.755	47.01
729.156	47.11
729.557	47.15
729.958	47.27
730.359	47.35
730.76	47.46
731.161	47.55
731.562	47.67
731.962	47.72
732.363	47.85
732.763	47.93
733.164	48.01
733.564	48.11
733.965	48.19
734.365	48.29
734.766	48.37
735.166	48.43
735.566	48.52
735.966	48.58
736.366	48.64
736.766	48.69
737.166	48.76
737.566	48.8
737.966	48.84
738.365	48.88
738.765	48.93
739.165	48.96
739.564	49.02
739.964	49.07
740.363	49.1
740.763	49.15
741.162	49.2
741.561	49.22
741.96	49.27
742.36	49.28
742.759	49.33
743.158	49.35
743.557	49.35
743.955	49.38
744.354	49.39
744.753	49.43
745.152	49.48
745.55	49.49
745.949	49.54
746.348	49.58
746.746	49.62
747.144	49.64
747.543	49.66
747.941	49.69
748.339	49.67
748.737	49.69
749.136	49.71
749.534	49.7
749.932	49.72
750.33	49.7
750.727	49.71
751.125	49.71
751.523	49.71
751.921	49.72
752.318	49.74
752.716	49.78
753.113	49.81
753.511	49.85
753.908	49.89
754.305	49.91
754.703	49.91
755.1	49.9
755.497	49.92
755.894	49.92
756.291	49.92
756.688	49.92
757.085	49.93
757.482	49.89
757.878	49.87
758.275	49.84
758.672	49.84
759.068	49.87
759.465	49.85
759.861	49.87
760.258	49.88
760.654	49.89
761.05	49.88
761.447	49.88
761.843	49.91
762.239	49.91
762.635	49.91
763.031	49.9
763.427	49.86
763.822	49.9
764.218	49.9
764.614	49.91
765.01	49.88
765.405	49.89
765.801	49.87
766.196	49.87
766.592	49.84
766.987	49.84
767.382	49.81
767.778	49.83
768.173	49.82
768.568	49.82
768.963	49.79
769.358	49.82
769.753	49.81
770.148	49.82
770.542	49.82
770.937	49.84
771.332	49.83
771.726	49.88
772.121	49.87
772.515	49.88
772.91	49.87
773.304	49.89
773.699	49.87
774.093	49.88
774.487	49.87
774.881	49.88
775.275	49.86
775.669	49.87
776.063	49.84
776.457	49.86
776.851	49.83
777.245	49.8
777.638	49.8
778.032	49.82
778.425	49.82
778.819	49.82
779.212	49.82
779.606	49.84
779.999	49.84
780.392	49.85
780.786	49.84
781.179	49.9
781.572	49.95
781.965	49.95
782.358	49.95
782.751	49.96
783.143	49.98
783.536	49.96
783.929	49.95
784.322	49.97
784.714	49.96
785.107	49.97
785.499	49.95
785.891	49.94
786.284	49.96
786.676	49.98
787.068	49.95
787.46	49.95
787.852	49.97
788.245	49.96
788.636	49.96
789.028	49.98
789.42	49.98
789.812	49.97
790.204	49.95
790.595	49.95
790.987	49.93
791.378	49.96
791.77	49.96
792.161	49.95
792.553	49.96
792.944	49.94
793.335	49.94
793.726	49.94
794.117	49.93
794.508	49.91
794.899	49.91
795.29	49.91
795.681	49.86
796.072	49.86
796.463	49.9
796.853	49.89
797.244	49.89
797.634	49.9
798.025	49.9
798.415	49.91
798.806	49.92
799.196	49.92
799.586	49.95
799.976	49.95
800.366	49.96
800.756	49.94
801.146	49.97
801.536	50.01
801.926	49.98
802.316	49.97
802.706	49.96
803.095	49.96
803.485	49.94
803.874	49.91
804.264	49.94
804.653	49.94
805.043	49.94
805.432	49.94
805.821	49.91
806.21	49.93
806.599	49.95
806.988	49.93
807.377	49.94
807.766	49.97
808.155	49.95
808.544	49.96
808.933	49.95
809.321	49.94
809.71	49.93
810.098	49.9
810.487	49.9
810.875	49.87
811.264	49.89
811.652	49.89
812.04	49.86
812.428	49.91
812.816	49.87
813.204	49.85
813.592	49.81
813.98	49.82
814.368	49.85
814.756	49.84
815.144	49.83
815.531	49.82
815.919	49.81
816.306	49.8
816.694	49.75
817.081	49.79
817.469	49.81
817.856	49.83
818.243	49.78
818.63	49.76
819.017	49.74
819.404	49.77
819.791	49.79
820.178	49.78
820.565	49.76
820.952	49.77
821.339	49.75
821.725	49.73
822.112	49.74
822.498	49.77
822.885	49.79
823.271	49.81
823.657	49.77
824.044	49.76
824.43	49.77
824.816	49.79
825.202	49.77
825.588	49.79
825.974	49.81
826.36	49.79
826.746	49.79
827.132	49.78
827.517	49.79
827.903	49.84
828.289	49.86
828.674	49.85
829.06	49.84
829.445	49.86
829.83	49.86
830.216	49.84
830.601	49.83
830.986	49.84
831.371	49.82
831.756	49.82
832.141	49.8
832.526	49.79
832.911	49.78
833.295	49.79
833.68	49.79
834.065	49.78
834.449	49.79
834.834	49.81
835.218	49.81
835.603	49.81
835.987	49.79
836.371	49.78
836.755	49.74
837.139	49.75
837.524	49.76
837.908	49.78
838.291	49.79
838.675	49.8
839.059	49.79
839.443	49.81
839.827	49.8
840.21	49.81
840.594	49.84
840.977	49.87
841.361	49.91
841.744	49.86
842.127	49.84
842.511	49.82
842.894	49.8
843.277	49.8
843.66	49.76
844.043	49.78
844.426	49.78
844.809	49.76
845.191	49.76
845.574	49.73
845.957	49.77
846.339	49.77
846.722	49.79
847.104	49.83
847.487	49.82
847.869	49.82
848.252	49.83
848.634	49.83
849.016	49.84
849.398	49.84
849.78	49.83
850.162	49.82
850.544	49.83
850.926	49.86
851.307	49.85
851.689	49.86
852.071	49.88
852.452	49.89
852.834	49.9
853.215	49.88
853.597	49.9
853.978	49.91
854.359	49.92
854.741	49.93
855.122	49.91
855.503	49.9
855.884	49.89
856.265	49.9
856.646	49.88
857.026	49.9
857.407	49.94
857.788	49.9
858.169	49.93
858.549	49.94
858.93	49.92
859.31	49.92
859.69	49.94
860.071	49.95
860.451	49.94
860.831	49.93
861.211	49.91
861.591	49.89
861.971	49.91
862.351	49.9
862.731	49.91
863.111	49.91
863.491	49.89
863.87	49.87
864.25	49.86
864.629	49.84
865.009	49.86
865.388	49.83
865.768	49.82
866.147	49.81
866.526	49.8
866.905	49.79
867.284	49.78
867.663	49.77
868.042	49.79
868.421	49.8
868.8	49.81
869.179	49.81
869.558	49.8
869.936	49.79
870.315	49.8
870.693	49.79
871.072	49.78
871.45	49.79
871.828	49.82
872.207	49.82
872.585	49.79
872.963	49.81
873.341	49.81
873.719	49.81
874.097	49.81
874.475	49.8
874.853	49.81
875.23	49.83
875.608	49.82
875.986	49.84
876.363	49.85
876.741	49.86
877.118	49.85
877.495	49.87
877.873	49.9
878.25	49.94
878.627	49.96
879.004	49.96
879.381	49.96
879.758	49.94
880.135	49.92
880.512	49.92
880.889	49.92
881.265	49.9
881.642	49.88
882.019	49.9
882.395	49.87
882.772	49.87
883.148	49.84
883.524	49.83
883.901	49.84
884.277	49.83
884.653	49.82
885.029	49.82
885.405	49.83
885.781	49.82
886.157	49.81
886.532	49.82
886.908	49.78
887.284	49.79
887.659	49.76
888.035	49.75
888.411	49.75
888.786	49.75
889.161	49.76
889.537	49.75
889.912	49.76
890.287	49.74
890.662	49.72
891.037	49.75
891.412	49.75
891.787	49.76
892.162	49.75
892.536	49.73
892.911	49.72
893.286	49.7
893.66	49.7
894.035	49.69
894.409	49.68
894.784	49.71
895.158	49.7
895.532	49.71
895.906	49.7
896.281	49.71
896.655	49.72
897.029	49.74
897.402	49.75
897.776	49.75
898.15	49.76
898.524	49.8
898.898	49.77
899.271	49.78
899.645	49.79
900.018	49.82
900.392	49.87
900.765	49.88
901.138	49.86
901.511	49.87
901.884	49.86
902.258	49.87
902.631	49.85
903.003	49.86
903.376	49.86
903.749	49.83
904.122	49.83
904.495	49.82
904.867	49.82
905.24	49.85
905.612	49.85
905.985	49.83
906.357	49.84
906.729	49.84
907.102	49.86
907.474	49.87
907.846	49.88
908.218	49.86
908.59	49.86
908.962	49.85
909.334	49.84
909.705	49.82
910.077	49.86
910.449	49.87
910.82	49.87
911.192	49.84
911.563	49.83
911.935	49.8
912.306	49.81
912.677	49.83
913.048	49.85
913.419	49.83
913.79	49.83
914.161	49.82
914.532	49.8
914.903	49.81
915.274	49.83
915.645	49.85
916.015	49.88
916.386	49.87
916.756	49.84
917.127	49.87
917.497	49.87
917.868	49.89
918.238	49.88
918.608	49.87
918.978	49.85
919.348	49.84
919.718	49.83
920.088	49.82
920.458	49.81
920.828	49.77
921.198	49.74
921.567	49.73
921.937	49.76
922.306	49.73
922.676	49.72
923.045	49.72
923.415	49.68
923.784	49.68
924.153	49.72
924.522	49.72
924.891	49.72
925.26	49.73
925.629	49.71
925.998	49.69
926.367	49.72
926.736	49.72
927.104	49.71
927.473	49.7
927.842	49.7
928.21	49.65
928.578	49.61
928.947	49.64
929.315	49.61
929.683	49.6
930.051	49.56
930.42	49.51
930.788	49.47
931.156	49.47
931.523	49.49
931.891	49.54
932.259	49.54
932.627	49.56
932.994	49.51
933.362	49.5
933.729	49.51
934.097	49.51
934.464	49.55
934.831	49.58
935.199	49.61
935.566	49.6
935.933	49.57
936.3	49.57
936.667	49.53
937.034	49.56
937.401	49.56
937.767	49.56
938.134	49.59
938.501	49.57
938.867	49.6
939.234	49.55
939.6	49.54
939.967	49.52
940.333	49.49
940.699	49.49
941.065	49.45
941.431	49.44
941.798	49.43
942.163	49.39
942.529	49.38
942.895	49.32
943.261	49.33
943.627	49.27
943.992	49.23
944.358	49.27
944.723	49.31
945.089	49.26
945.454	49.3
945.82	49.32
946.185	49.34
946.55	49.29
946.915	49.26
947.28	49.24
947.645	49.31
948.01	49.33
948.375	49.31
948.74	49.23
949.104	49.3
949.469	49.27
949.834	49.22
950.198	49.21
950.562	49.22
950.927	49.22
951.291	49.2
951.655	49.1
952.02	49.03
952.384	48.99
952.748	49.01
953.112	48.97
953.476	48.91
953.839	48.88
954.203	48.83
954.567	48.8
954.931	48.76
955.294	48.75
955.658	48.87
956.021	48.87
956.385	48.84
956.748	48.78
957.111	48.76
957.474	48.8
957.837	48.78
958.2	48.77
958.563	48.78
958.926	48.81
959.289	48.82
959.652	48.73
960.015	48.71
960.377	48.72
960.74	48.74
961.102	48.73
961.465	48.72
961.827	48.76
962.189	48.79
962.552	48.75
962.914	48.71
963.276	48.71
963.638	48.75
964	48.74
964.362	48.74
964.724	48.74
965.085	48.75
965.447	48.67
965.809	48.66
966.17	48.61
966.532	48.68
966.893	48.69
967.255	48.66
967.616	48.65
967.977	48.71
968.338	48.73
968.699	48.75
969.061	48.75
969.421	48.85
969.782	48.86
970.143	48.87
970.504	48.85
970.865	48.85
971.225	48.86
971.586	48.84
971.946	48.79
972.307	48.74
972.667	48.73
973.027	48.73
973.388	48.69
973.748	48.65
974.108	48.71
974.468	48.68
974.828	48.74
975.188	48.7
975.548	48.64
975.907	48.64
976.267	48.63
976.627	48.62
976.986	48.57
977.346	48.53
977.705	48.54
978.064	48.46
978.424	48.48
978.783	48.4
979.142	48.44
979.501	48.49
979.86	48.5
980.219	48.51
980.578	48.55
980.937	48.66
981.296	48.64
981.654	48.65
982.013	48.65
982.371	48.61
982.73	48.62
983.088	48.62
983.447	48.6
983.805	48.57
984.163	48.59
984.521	48.51
984.879	48.44
985.237	48.47
985.595	48.51
985.953	48.5
986.311	48.48
986.669	48.48
987.026	48.48
987.384	48.48
987.741	48.45
988.099	48.46
988.456	48.45
988.814	48.44
989.171	48.47
989.528	48.43
989.885	48.47
990.242	48.51
990.599	48.59
990.956	48.57
991.313	48.62
991.67	48.58
992.027	48.59
992.383	48.69
992.74	48.75
993.096	48.72
993.453	48.76
993.809	48.73
994.165	48.79
994.522	48.76
994.878	48.81
995.234	48.82
995.59	48.91
995.946	48.97
996.302	48.96
996.658	48.93
997.013	48.86
997.369	48.81
997.725	48.82
998.08	48.82
998.436	48.8
998.791	48.84
999.147	48.75
999.502	48.75
999.857	48.71
1000.212	48.57
1000.567	48.54
1000.922	48.52
1001.277	48.52
1001.632	48.46
1001.987	48.47
1002.342	48.37
1002.696	48.28
1003.051	48.46
1003.406	48.56
1003.76	48.48
1004.114	48.58
1004.469	48.64
1004.823	49
1005.177	48.94
1005.531	48.97
1005.885	48.98
1006.239	48.97
1006.593	49.11
1006.947	49.01
1007.301	48.87
1007.655	48.91
1008.008	48.97
1008.362	49.11
1008.715	49.03
1009.069	49.16
1009.422	49.2
1009.776	49.16
1010.129	49.17
1010.482	49.09
1010.835	49.05
1011.188	49.16
1011.541	49.07
1011.894	49.11
1012.247	49.01
1012.6	48.86
1012.952	48.71
1013.305	48.73
1013.657	48.77
1014.01	48.85
1014.362	48.82
1014.715	48.8
1015.067	48.76
1015.419	48.87
1015.771	48.82
1016.123	48.6
1016.475	48.6
1016.827	48.83
1017.179	48.75
1017.531	48.68
1017.883	48.61
1018.234	48.65
1018.586	48.55
1018.938	48.61
1019.289	48.6
1019.64	48.52
1019.992	48.8
1020.343	48.6
1020.694	48.53
1021.045	48.67
1021.396	48.74
1021.747	48.9
1022.098	49.05
1022.449	49.19
1022.8	49.08
1023.151	48.91
1023.501	48.87
1023.852	48.85
1024.202	48.9
1024.553	48.96
1024.903	48.98
1025.253	49.22
1025.604	49.12
1025.954	48.83
1026.304	48.98
1026.654	48.92
1027.004	49.12
1027.354	49.01
1027.703	48.68
1028.053	48.61
1028.403	48.51
1028.753	48.25
1029.102	48.07
1029.452	48.09
1029.801	48.29
1030.15	48.04
1030.499	48.02
897.758	1020.32
901.051	1026.53
904.343	1022.36
907.636	1040.53
910.928	1011.34
914.22	1014.42
917.511	1000.69
920.803	958.82
924.094	956.17
927.384	931.05
930.675	896.41
933.965	892.53
937.255	839.14
940.544	807.38
943.834	770.8
947.123	766.12
950.411	720.48
953.7	705.76
956.988	670.42
960.276	642.19
963.563	632.68
966.851	611.51
970.138	606.81
973.424	588.98
976.711	591.75
979.997	562.46
983.283	558.72
986.568	546.93
989.853	531.25
993.138	519.99
996.423	501.08
999.708	487.84
1002.992	481.04
1006.275	459.9
1009.559	456.27
1012.842	440.38
1016.125	429.65
1019.408	422.18
1022.69	416.57
1025.972	407.48
1029.254	397.61
1032.536	391.59
1035.817	383.7
1039.098	379.66
1042.379	372.25
1045.659	368.42
1048.939	358.71
1052.219	352.02
1055.498	346.62
1058.778	339.51
1062.057	332.86
1065.335	330.07
1068.614	326.1
1071.892	322.41
1075.17	313.29
1078.447	307.16
1081.724	304.62
1085.001	303.84
1088.278	297.07
1091.554	290.45
1094.83	290.64
1098.106	288.06
1101.382	286.2
1104.657	284.39
1107.932	280.01
1111.206	281.24
1114.481	275.11
1117.755	272.72
1121.029	270.12
1124.302	269.98
1127.575	265.78
1130.848	262.36
1134.121	259.93
1137.393	257.96
1140.665	252.44
1143.937	250.82
1147.208	248.97
1150.48	248.05
1153.75	246.06
1157.021	242.65
1160.291	242.45
1163.561	240.73
1166.831	240.51
1170.101	238.62
1173.37	238.72
1176.639	239.19
1179.907	237.57
1183.176	235.02
1186.444	235.11
1189.711	233.67
1192.979	233.31
1196.246	231.62
1199.513	233.3
1202.78	231.67
1206.046	231.43
1209.312	229.57
1212.578	229.37
1215.843	231
1219.108	229.65
1222.373	233.56
1225.638	235
1228.902	236.95
1232.166	238.8
1235.43	239.08
1238.693	242.97
1241.956	244.28
1245.219	247.58
1248.482	247.76
1251.744	247.22
1255.006	248.12
1258.268	242.5
1261.529	241.01
1264.79	240.19
1268.051	237.27
1271.312	235.07
1274.572	232.01
1277.832	230.97
1281.092	226.35
1284.351	225.52
1287.61	225.54
1290.869	222.76
1294.128	221.51
1297.386	221.78
1300.644	219.01
1303.902	220.39
1307.159	219.01
1310.416	218.75
1313.673	217.33
1316.93	220.83
1320.186	219.91
1323.442	220.27
1326.697	222.81
1329.953	224.16
1333.208	224.26
1336.463	227.32
1339.717	227.25
1342.972	230.59
1346.226	231.84
1349.479	233.03
1352.733	232.94
1355.986	234.87
1359.238	234.65
1362.491	235.97
1365.743	237.52
1368.995	237.18
1372.247	237.16
1375.498	236.85
1378.749	237.87
1382	235.57
1385.251	235.85
1388.501	234.02
1391.751	234.03
1395	232.94
1398.25	230.87
1401.499	228.63
1404.748	228.16
1407.996	225.52
1411.244	224.21
1414.492	222.11
1417.74	220.15
1420.987	216.93
1424.234	215.97
1427.481	212.94
1430.728	212.57
1433.974	210.62
1437.22	209.24
1440.465	208.9
1443.711	206.62
1446.956	204.37
1450.201	202.21
1453.445	200.57
1456.689	199.4
1459.933	196.71
1463.177	195.55
1466.42	192.1
1469.663	190.22
1472.906	188.5
1476.148	184.2
1479.391	182.06
1482.633	181.6
1485.874	178.91
1489.115	177.26
1492.356	176.29
1495.597	175.33
1498.838	173.09
1502.078	172.5
1505.318	172.05
1508.557	172.15
1511.797	171.7
1515.036	170.7
1518.274	169.64
1521.513	169.1
1524.751	168.9
1527.989	168.41
1531.227	168.36
1534.464	168.31
1537.701	167.62
1540.938	167.05
1544.174	165.45
1547.41	165.49
1550.646	164.63
1553.882	165.49
1557.117	163.17
1560.352	162.68
1563.587	161.88
1566.821	160.91
1570.055	160
1573.289	158.75
1576.523	158.5
1579.756	157.33
1582.989	156.58
1586.222	156.48
1589.454	155.03
1592.686	156.49
1595.918	155.86
1599.15	155.47
1602.381	155.72
1605.612	155.33
1608.843	156.18
1612.073	156.03
1615.303	156.83
1618.533	156.77
1621.762	157.76
1624.992	157.83
1628.221	157.31
1631.449	156.82
1634.678	157.14
1637.906	158.14
1641.134	158.11
1644.361	157.67
1647.588	157.77
1650.815	157.21
1654.042	156.79
1657.269	157.27
1660.495	157.73
1663.72	157.52
1666.946	158.65
1670.171	158.58
1673.396	158.14
1676.621	158.61
1679.845	158.7
1683.069	159.12
1686.293	160.1
1689.517	160.64
1692.74	160.39
1695.963	160.6
1699.185	161.89
1702.408	161.66
1705.63	162.44
1708.852	162.98
1712.073	162.52
1715.294	162.99
1718.515	163.83
1721.736	163.38
1724.956	164.25
1728.176	164.23
1731.396	165.44
1734.616	165.26
1737.835	165.94
1741.054	163.68
1744.272	164.33
1747.491	166.1
1750.709	166.23
1753.927	166.07
1757.144	165.94
1760.361	166.56
1763.578	166.46
1766.795	166.1
1770.011	166.44
1773.227	166.1
1776.443	169.02
1779.658	168.9
1782.874	169.01
1786.089	169.45
1789.303	169.87
1792.518	171.88
1795.732	171.02
1798.945	172.6
1802.159	173.12
1805.372	174.06
1808.585	176.45
1811.797	176.64
1815.01	177.01
1818.222	177.6
1821.434	179.73
1824.645	180.04
1827.856	182.37
1831.067	184.31
1834.278	184.42
1837.488	185.34
1840.698	186.02
1843.908	184.96
1847.117	185.61
1850.326	186.65
1853.535	186.03
1856.744	188.3
1859.952	187.47
1863.16	185.75
1866.368	184.14
1869.575	184.44
1872.782	181.99
1875.989	180.3
1879.196	179.69
1882.402	178.28
1885.608	178.44
1888.814	178.16
1892.019	175.91
1895.224	175.8
1898.429	175.52
1901.634	176.22
1904.838	176.24
1908.042	178.12
1911.246	178.31
1914.449	178.88
1917.652	178.79
1920.855	178.15
1924.058	178.18
1927.26	177.89
1930.462	178.17
1933.664	179.48
1936.865	178.7
1940.066	178.28
1943.267	176.18
1946.467	176.68
1949.668	178.04
1952.868	179.9
1956.067	180.31
1959.267	181.04
1962.466	181.31
1965.665	180.56
1968.863	181.01
1972.061	183.67
1975.259	184.83
1978.457	187.15
1981.654	189.05
1984.852	188.92
1988.048	188.54
1991.245	190.15
1994.441	192.03
1997.637	193.69
2000.833	197.6
2004.028	200.24
2007.223	200.86
2010.418	203.24
2013.613	207.07
2016.807	209.41
2020.001	211.69
2023.194	215.11
2026.388	220.19
2029.581	224.71
2032.774	226.97
2035.966	230.42
2039.158	231.13
2042.35	235.6
2045.542	238.17
2048.733	239.97
2051.924	243.32
2055.115	247.73
2058.306	248.21
2061.496	250.63
2064.686	250.3
2067.875	254.41
2071.065	257.09
2074.254	255.78
2077.442	258.38
2080.631	258.7
2083.819	262.08
2087.007	262.92
2090.195	265.53
2093.382	268.19
2096.569	266.62
2099.756	271.63
2102.942	272.79
2106.128	274.62
2109.314	280.62
2112.5	280.02
2115.685	287.41
2118.87	288.07
2122.055	293.79
2125.239	295.04
2128.424	299.77
2131.608	300.7
2134.791	305.09
2137.974	306.34
2141.157	307.37
2144.34	308.65
2147.523	312.91
2150.705	310.01
2153.887	312.95
2157.068	313.15
2160.25	311.17
2163.431	311.42
2166.611	316.32
2169.792	320.32
2172.972	324.35
2176.152	327.2
2179.331	331.23
2182.511	335.79
2185.69	339.32
2188.868	345.93
2192.047	346.99
2195.225	356.97
2198.403	365.94
2201.58	371.65
2204.758	379.82
2207.935	386.66
2211.111	392.5
2214.288	397.4
2217.464	399.66
2220.64	406.29
2223.815	411.68
2226.991	428.11
2230.166	427.84
2233.34	433.52
2236.515	441.71
2239.689	441.99
2242.863	442.79
2246.036	456.24
2249.209	453.49
2252.382	461.66
2255.555	474.08
2258.727	475.78
2261.9	479.72
2265.071	486.24
2268.243	494.22
2271.414	499.66
2274.585	509.34
2277.756	515.71
2280.926	519.84
2284.096	531.17
2287.266	540.25
2290.436	544.27
2293.605	557.07
2296.774	570.28
2299.942	587.09
2303.111	592.17
2306.279	605.04
2309.447	612.69
2312.614	630.61
2315.781	646.41
2318.948	675.4
2322.115	667.36
2325.281	707.27
2328.447	692.76
2331.613	719.92
2334.779	713.14
2337.944	742.76
2341.109	748.15
2344.274	770.76
2347.438	794.04
2350.602	792.82
2353.766	818.86
2356.929	832.31
2360.092	820.09
2363.255	877.92
2366.418	877.14
2369.58	894.16
2372.742	947.88
2375.904	975.35
2379.066	968.18
2382.227	953.34
2385.388	1033.85
2388.548	1030.69
2391.709	1041.75
2394.869	1165.61
2398.029	1121.24
2401.188	1149.71
2404.347	1140.64
2407.506	1124.36
2410.665	1154.17
2413.823	1225.94
2416.981	1296.93
2420.139	1256.76
2423.296	1249.23
2426.453	1304.62
2429.61	1254.24
2432.767	1306.1
2435.923	1294.8
2439.079	1416.81
2442.235	1437.39
2445.391	1426.04
2448.546	1418.12
2451.701	1373.86
2454.855	1374.24
2458.009	1447.18
2461.163	1507.47
2464.317	1564.14
2467.471	1605.32
2470.624	1609.33
2473.777	1561.41
2476.929	1522.21
2480.082	1475.75
2483.234	1454.34
2486.385	1532.87
2489.537	1536.57
2492.688	1595.52
2495.839	1551.3
2498.989	1514.21
2502.14	1521.1
2505.29	1529.69
2508.439	1563.91
2511.589	1554.72
2514.738	1703.72
2517.887	1666.94
2521.035	1750.17
2524.183	1773.2
2527.331	1784.98
2530.479	1775.86
2533.627	1789.67
