Data from C_1_DEC_CT_2N_Splice17_12-56-19-600.txt Node
Date: Sat Mar 07 12:56:19 EST 2020
User: sa697716
Spectrometer: NQ5500242
Trigger mode: 0
Integration Time (sec): 1.450000E-1
Scans to average: 20
Nonlinearity correction enabled: false
Boxcar width: 5
Storing dark spectrum: false
XAxis mode: Wavelengths
Number of Pixels in Spectrum: 512
>>>>>Begin Spectral Data<<<<<
187.83	75.91
188.298	101.6
188.766	80.77
189.233	71.1
189.701	64.09
190.169	73.07
190.636	42.49
191.104	21.27
191.571	-75.63
192.039	-103.91
192.506	-238.69
192.974	44.22
193.441	129.2
193.908	67.69
194.375	66.94
194.842	-10.82
195.31	-7.05
195.777	-223.46
196.244	26.01
196.711	39.26
197.177	43.79
197.644	44.24
198.111	44.53
198.578	44.92
199.045	44.94
199.511	45.07
199.978	45.44
200.445	45.55
200.911	45.81
201.378	45.89
201.844	46.03
202.31	45.65
202.777	45.76
203.243	45.94
203.709	45.63
204.176	45.48
204.642	45.31
205.108	45.15
205.574	44.79
206.04	44.23
206.506	43.81
206.972	43.93
207.438	43.71
207.903	43
208.369	42.08
208.835	41.38
209.301	40.46
209.766	39.08
210.232	37.99
210.697	36.98
211.163	36.05
211.628	35.17
212.094	34.16
212.559	33.25
213.024	32.26
213.49	31.57
213.955	30.85
214.42	30.08
214.885	29.41
215.35	28.45
215.815	27.28
216.28	25.51
216.745	23.55
217.21	21.51
217.675	19.81
218.14	18.29
218.604	16.88
219.069	15.7
219.534	14.75
219.998	13.91
220.463	13.23
220.927	12.6
221.392	12.17
221.856	11.82
222.32	11.5
222.785	11.2
223.249	10.96
223.713	10.73
224.177	10.53
224.642	10.34
225.106	10.15
225.57	9.97
226.034	9.79
226.497	9.61
226.961	9.45
227.425	9.29
227.889	9.14
228.353	8.99
228.816	8.85
229.28	8.7
229.744	8.58
230.207	8.46
230.671	8.33
231.134	8.23
231.597	8.13
232.061	8.02
232.524	7.93
232.987	7.84
233.45	7.75
233.914	7.67
234.377	7.58
234.84	7.49
235.303	7.41
235.766	7.34
236.229	7.26
236.691	7.18
237.154	7.12
237.617	7.05
238.08	6.98
238.542	6.9
239.005	6.84
239.468	6.78
239.93	6.72
240.393	6.67
240.855	6.6
241.317	6.55
241.78	6.49
242.242	6.42
242.704	6.36
243.166	6.31
243.629	6.26
244.091	6.21
244.553	6.15
245.015	6.09
245.477	6.02
245.939	5.97
246.4	5.9
246.862	5.86
247.324	5.82
247.786	5.76
248.247	5.71
248.709	5.65
249.17	5.59
249.632	5.56
250.093	5.52
250.555	5.47
251.016	5.44
251.477	5.39
251.939	5.36
252.4	5.31
252.861	5.28
253.322	5.25
253.783	5.21
254.244	5.19
254.705	5.15
255.166	5.11
255.627	5.08
256.088	5.05
256.549	5.03
257.009	4.99
257.47	4.96
257.931	4.92
258.391	4.87
258.852	4.84
259.312	4.8
259.773	4.76
260.233	4.73
260.694	4.7
261.154	4.66
261.614	4.63
262.074	4.59
262.534	4.56
262.994	4.53
263.455	4.51
263.915	4.48
264.374	4.46
264.834	4.44
265.294	4.41
265.754	4.39
266.214	4.37
266.673	4.35
267.133	4.34
267.593	4.33
268.052	4.32
268.512	4.3
268.971	4.29
269.431	4.28
269.89	4.26
270.349	4.25
270.809	4.24
271.268	4.22
271.727	4.21
272.186	4.2
272.645	4.19
273.104	4.17
273.563	4.15
274.022	4.14
274.481	4.13
274.94	4.12
275.399	4.1
275.857	4.08
276.316	4.07
276.775	4.06
277.233	4.05
277.692	4.04
278.15	4.04
278.609	4.03
279.067	4.02
279.525	4.01
279.984	4
280.442	4
280.9	4
281.358	3.99
281.816	3.99
282.274	3.98
282.732	3.97
283.19	3.96
283.648	3.95
284.106	3.93
284.564	3.92
285.021	3.92
285.479	3.91
285.937	3.9
286.394	3.9
286.852	3.88
287.309	3.88
287.767	3.86
288.224	3.84
288.682	3.83
289.139	3.82
289.596	3.8
290.053	3.78
290.511	3.76
290.968	3.74
291.425	3.72
291.882	3.7
292.339	3.69
292.796	3.68
293.252	3.67
293.709	3.66
294.166	3.66
294.623	3.65
295.079	3.64
295.536	3.64
295.992	3.63
296.449	3.63
296.905	3.63
297.362	3.61
297.818	3.6
298.274	3.59
298.731	3.59
299.187	3.58
299.643	3.57
300.099	3.57
300.555	3.56
301.011	3.55
301.467	3.54
301.923	3.53
302.379	3.53
302.835	3.53
303.291	3.53
303.746	3.53
304.202	3.53
304.658	3.53
305.113	3.53
305.569	3.53
306.024	3.52
306.479	3.52
306.935	3.52
307.39	3.52
307.845	3.52
308.301	3.52
308.756	3.52
309.211	3.51
309.666	3.51
310.121	3.51
310.576	3.51
311.031	3.52
311.486	3.52
311.94	3.52
312.395	3.52
312.85	3.52
313.305	3.51
313.759	3.51
314.214	3.51
314.668	3.5
315.123	3.5
315.577	3.49
316.032	3.49
316.486	3.47
316.94	3.46
317.394	3.46
317.849	3.45
318.303	3.43
318.757	3.42
319.211	3.41
319.665	3.39
320.119	3.38
320.572	3.36
321.026	3.36
321.48	3.35
321.934	3.33
322.387	3.32
322.841	3.31
323.295	3.32
323.748	3.32
324.202	3.31
324.655	3.31
325.108	3.31
325.562	3.31
326.015	3.31
326.468	3.31
326.921	3.32
327.374	3.31
327.827	3.31
328.28	3.31
328.733	3.31
329.186	3.31
329.639	3.31
330.092	3.3
330.545	3.31
330.997	3.3
331.45	3.3
331.903	3.31
332.355	3.32
332.808	3.32
333.26	3.32
333.713	3.31
334.165	3.31
334.617	3.32
335.069	3.32
335.522	3.33
335.974	3.32
336.426	3.32
336.878	3.31
337.33	3.31
337.782	3.3
338.234	3.31
338.686	3.31
339.137	3.31
339.589	3.3
340.041	3.29
340.493	3.27
340.944	3.26
341.396	3.26
341.847	3.25
342.299	3.24
342.75	3.22
343.201	3.21
343.653	3.19
344.104	3.17
344.555	3.16
345.006	3.15
345.457	3.15
345.908	3.14
346.359	3.14
346.81	3.13
347.261	3.13
347.712	3.12
348.163	3.11
348.613	3.11
349.064	3.12
349.515	3.12
349.965	3.12
350.416	3.11
350.866	3.1
351.317	3.1
351.767	3.09
352.217	3.09
352.668	3.1
353.118	3.1
353.568	3.1
354.018	3.1
354.468	3.11
354.918	3.11
355.368	3.12
355.818	3.12
356.268	3.12
356.718	3.12
357.168	3.12
357.617	3.11
358.067	3.11
358.517	3.12
358.966	3.11
359.416	3.11
359.865	3.1
360.315	3.1
360.764	3.1
361.213	3.1
361.663	3.09
362.112	3.09
362.561	3.1
363.01	3.09
363.459	3.08
363.908	3.08
364.357	3.08
364.806	3.07
365.255	3.08
365.703	3.08
366.152	3.09
366.601	3.09
367.05	3.1
367.498	3.08
367.947	3.08
368.395	3.09
368.844	3.08
369.292	3.08
369.74	3.09
370.189	3.08
370.637	3.07
371.085	3.07
371.533	3.06
371.981	3.06
372.429	3.06
372.877	3.07
373.325	3.06
373.773	3.07
374.221	3.06
374.669	3.05
375.116	3.04
375.564	3.04
376.012	3.03
376.459	3.03
376.907	3.03
377.354	3.03
377.801	3.03
378.249	3.03
378.696	3.02
379.143	3.03
379.591	3.03
380.038	3.03
380.485	3.03
380.932	3.03
381.379	3.04
381.826	3.03
382.273	3.03
382.72	3.01
383.166	3
383.613	3
384.06	2.99
384.506	2.98
384.953	2.98
385.4	2.97
385.846	2.97
386.292	2.96
386.739	2.96
387.185	2.95
387.631	2.96
388.078	2.95
388.524	2.95
388.97	2.95
389.416	2.96
389.862	2.96
390.308	2.98
390.754	2.99
391.2	3
391.645	3
392.091	3.01
392.537	3.02
392.983	3.03
393.428	3.05
393.874	3.06
394.319	3.07
394.765	3.06
395.21	3.06
395.655	3.07
396.101	3.08
396.546	3.09
396.991	3.11
397.436	3.12
397.881	3.14
398.326	3.16
398.771	3.17
399.216	3.18
399.661	3.21
400.106	3.22
400.551	3.23
400.995	3.24
401.44	3.24
401.885	3.25
402.329	3.27
402.774	3.28
403.218	3.3
403.663	3.31
404.107	3.32
404.551	3.33
404.995	3.34
405.44	3.35
405.884	3.36
406.328	3.38
406.772	3.38
407.216	3.39
407.66	3.39
408.104	3.38
408.547	3.39
408.991	3.4
409.435	3.4
409.879	3.42
410.322	3.44
410.766	3.45
411.209	3.46
411.653	3.49
412.096	3.5
412.54	3.52
412.983	3.54
413.426	3.58
413.869	3.59
414.312	3.62
414.756	3.64
415.199	3.65
415.642	3.66
416.085	3.66
416.527	3.66
416.97	3.65
417.413	3.64
417.856	3.65
418.298	3.64
418.741	3.64
419.184	3.64
419.626	3.63
420.069	3.64
420.511	3.65
420.953	3.66
421.396	3.67
421.838	3.68
422.28	3.69
422.722	3.7
423.164	3.71
423.606	3.71
424.048	3.72
424.49	3.73
424.932	3.72
425.374	3.72
425.816	3.71
426.258	3.69
426.699	3.7
427.141	3.68
427.582	3.68
428.024	3.69
428.465	3.71
428.907	3.7
429.348	3.69
429.789	3.69
430.231	3.71
430.672	3.73
431.113	3.76
431.554	3.77
431.995	3.79
432.436	3.81
432.877	3.81
433.318	3.82
433.759	3.84
434.2	3.87
434.64	3.9
435.081	3.89
435.522	3.92
435.962	3.94
436.403	3.97
436.843	3.97
437.284	3.98
437.724	3.99
438.164	3.96
438.604	3.97
439.045	3.97
439.485	3.97
439.925	3.97
440.365	3.96
440.805	3.96
441.245	3.96
441.685	3.98
442.125	3.99
442.564	4
443.004	4.02
443.444	4.03
443.883	4.05
444.323	4.04
444.762	4.06
445.202	4.07
445.641	4.09
446.081	4.1
446.52	4.1
446.959	4.11
447.398	4.12
447.837	4.12
448.276	4.12
448.716	4.12
449.154	4.15
449.593	4.15
450.032	4.15
450.471	4.13
450.91	4.13
451.349	4.14
451.787	4.13
452.226	4.12
452.664	4.11
453.103	4.11
453.541	4.11
453.98	4.1
454.418	4.09
454.856	4.08
455.295	4.07
455.733	4.03
456.171	4.01
456.609	4.01
457.047	3.99
457.485	3.99
457.923	3.98
458.361	3.98
458.798	3.97
459.236	3.97
459.674	3.96
460.111	3.97
460.549	3.99
460.987	4
461.424	4
461.862	4.02
462.299	4.02
462.736	4.03
463.173	4.03
463.611	4.05
464.048	4.05
464.485	4.06
464.922	4.06
465.359	4.05
465.796	4.06
466.233	4.07
466.67	4.07
467.106	4.07
467.543	4.07
467.98	4.05
468.416	4.03
468.853	4.03
469.29	4.04
469.726	4.03
470.162	4.03
470.599	4.04
471.035	4.03
471.471	4.02
471.907	4.01
472.344	4.01
472.78	4.01
473.216	4
473.652	4.01
474.088	3.99
474.523	3.98
474.959	3.97
475.395	3.93
475.831	3.92
476.266	3.92
476.702	3.92
477.138	3.91
477.573	3.9
478.008	3.9
478.444	3.88
478.879	3.9
479.314	3.88
479.75	3.89
480.185	3.88
480.62	3.87
481.055	3.86
481.49	3.85
481.925	3.84
482.36	3.84
482.795	3.83
483.229	3.82
483.664	3.82
484.099	3.81
484.534	3.81
484.968	3.81
485.403	3.81
485.837	3.81
486.271	3.81
486.706	3.82
487.14	3.82
487.574	3.83
488.009	3.84
488.443	3.85
488.877	3.86
489.311	3.88
489.745	3.9
490.179	3.93
490.613	3.95
491.046	3.97
491.48	4
491.914	4.02
492.348	4.05
492.781	4.09
493.215	4.12
493.648	4.15
494.082	4.19
494.515	4.22
494.948	4.26
495.382	4.3
495.815	4.36
496.248	4.41
496.681	4.47
497.114	4.52
497.547	4.58
497.98	4.64
498.413	4.7
498.846	4.77
499.279	4.84
499.711	4.92
500.144	5
500.577	5.09
501.009	5.16
501.442	5.25
501.874	5.35
502.306	5.45
502.739	5.56
503.171	5.68
503.603	5.8
504.036	5.92
504.468	6.06
504.9	6.19
505.332	6.33
505.764	6.5
506.196	6.66
506.627	6.83
507.059	7
507.491	7.17
507.923	7.36
508.354	7.56
508.786	7.77
509.217	7.97
509.649	8.19
510.08	8.42
510.512	8.65
510.943	8.89
511.374	9.13
511.805	9.37
512.237	9.62
512.668	9.89
513.099	10.15
513.53	10.41
513.961	10.69
514.391	10.97
514.822	11.26
515.253	11.54
515.684	11.83
516.114	12.14
516.545	12.44
516.975	12.75
517.406	13.07
517.836	13.37
518.267	13.69
518.697	14.01
519.127	14.31
519.558	14.6
519.988	14.91
520.418	15.22
520.848	15.51
521.278	15.81
521.708	16.26
522.138	16.53
522.567	16.81
522.997	17.08
523.427	17.35
523.857	17.62
524.286	17.88
524.716	18.14
525.145	18.39
525.575	18.63
526.004	18.87
526.433	18.95
526.863	19.16
527.292	19.38
527.721	19.59
528.15	19.77
528.579	19.96
529.008	20.15
529.437	20.31
529.866	20.47
530.295	20.64
530.724	20.77
531.152	20.93
531.581	21.08
532.01	21.23
532.438	21.36
532.867	21.49
533.295	21.6
533.723	21.7
534.152	21.81
534.58	21.92
535.008	22.01
535.436	22.1
535.865	22.17
536.293	22.25
536.721	22.3
537.149	22.37
537.576	22.42
538.004	22.5
538.432	22.55
538.86	22.61
539.287	22.65
539.715	22.7
540.143	22.75
540.57	22.8
540.998	22.82
541.425	22.87
541.852	22.91
542.28	22.96
542.707	22.99
543.134	23.03
543.561	23.05
543.988	23.08
544.415	23.09
544.842	23.12
545.269	23.16
545.696	23.19
546.123	23.21
546.549	23.25
546.976	23.27
547.403	23.3
547.829	23.33
548.256	23.35
548.682	23.36
549.108	23.39
549.535	23.42
549.961	23.41
550.387	23.41
550.813	23.39
551.24	23.37
551.666	23.36
552.092	23.36
552.518	23.33
552.943	23.32
553.369	23.29
553.795	23.25
554.221	23.19
554.646	23.15
555.072	23.11
555.498	23.08
555.923	23.01
556.349	22.94
556.774	22.87
557.199	22.8
557.625	22.73
558.05	22.66
558.475	22.58
558.9	22.49
559.325	22.4
559.75	22.31
560.175	22.2
560.6	22.1
561.025	21.98
561.449	21.86
561.874	21.75
562.299	21.62
562.723	21.48
563.148	21.34
563.572	21.2
563.997	21.05
564.421	20.88
564.846	20.72
565.27	20.57
565.694	20.42
566.118	20.26
566.542	20.09
566.966	19.93
567.39	19.78
567.814	19.62
568.238	19.46
568.662	19.3
569.086	19.16
569.509	19.02
569.933	18.85
570.357	18.69
570.78	18.54
571.204	18.38
571.627	18.24
572.05	18.09
572.474	17.95
572.897	17.8
573.32	17.66
573.743	17.51
574.166	17.37
574.589	17.24
575.012	17.11
575.435	16.99
575.858	16.87
576.281	16.74
576.704	16.62
577.126	16.49
577.549	16.39
577.972	16.27
578.394	16.17
578.817	16.08
579.239	15.98
579.661	15.89
580.084	15.78
580.506	15.68
580.928	15.58
581.35	15.48
581.772	15.39
582.194	15.3
582.616	15.22
583.038	15.12
583.46	15.04
583.882	14.96
584.303	14.86
584.725	14.8
585.147	14.74
585.568	14.67
585.99	14.6
586.411	14.55
586.833	14.48
587.254	14.4
587.675	14.35
588.096	14.28
588.518	14.2
588.939	14.16
589.36	14.09
589.781	14.02
590.202	13.98
590.623	13.93
591.043	13.88
591.464	13.84
591.885	13.79
592.305	13.74
592.726	13.71
593.147	13.67
593.567	13.64
593.987	13.61
594.408	13.58
594.828	13.53
595.248	13.49
595.669	13.46
596.089	13.42
596.509	13.41
596.929	13.38
597.349	13.34
597.769	13.31
598.189	13.27
598.608	13.24
599.028	13.21
599.448	13.17
599.867	13.13
600.287	13.09
600.706	13.05
601.126	13.01
601.545	12.96
601.965	12.91
602.384	12.86
602.803	12.81
603.222	12.75
603.641	12.7
604.061	12.65
604.48	12.59
604.898	12.51
605.317	12.43
605.736	12.37
606.155	12.3
606.574	12.22
606.992	12.14
607.411	12.07
607.829	11.96
608.248	11.87
608.666	11.78
609.085	11.7
609.503	11.63
609.921	11.56
610.339	11.46
610.758	11.39
611.176	11.3
611.594	11.23
612.012	11.15
612.43	11.09
612.847	11.02
613.265	10.95
613.683	10.87
614.101	10.8
614.518	10.72
614.936	10.64
615.353	10.57
615.771	10.5
616.188	10.43
616.606	10.37
617.023	10.31
617.44	10.25
617.857	10.19
618.274	10.14
618.691	10.08
619.108	10.02
619.525	9.99
619.942	9.95
620.359	9.9
620.776	9.86
621.192	9.83
621.609	9.79
622.026	9.76
622.442	9.75
622.859	9.72
623.275	9.7
623.691	9.69
624.108	9.67
624.524	9.65
624.94	9.64
625.356	9.63
625.772	9.61
626.188	9.59
626.604	9.58
627.02	9.55
627.436	9.54
627.852	9.53
628.268	9.52
628.683	9.5
629.099	9.48
629.514	9.47
629.93	9.45
630.345	9.45
630.761	9.42
631.176	9.4
631.591	9.38
632.007	9.34
632.422	9.31
632.837	9.26
633.252	9.2
633.667	9.15
634.082	9.08
634.497	9.01
634.911	8.93
635.326	8.85
635.741	8.77
636.155	8.68
636.57	8.59
636.984	8.5
637.399	8.41
637.813	8.32
638.228	8.22
638.642	8.11
639.056	8
639.47	7.91
639.884	7.81
640.298	7.69
640.712	7.58
641.126	7.47
641.54	7.35
641.954	7.24
642.368	7.13
642.781	7.03
643.195	6.93
643.609	6.84
644.022	6.74
644.436	6.65
644.849	6.54
645.262	6.47
645.676	6.38
646.089	6.32
646.502	6.26
646.915	6.19
647.328	6.13
647.741	6.07
648.154	6.02
648.567	5.97
648.98	5.92
649.393	5.89
649.805	5.85
650.218	5.81
650.631	5.77
651.043	5.73
651.456	5.7
651.868	5.66
652.28	5.62
652.693	5.59
653.105	5.55
653.517	5.51
653.929	5.47
654.341	5.41
654.753	5.35
655.165	5.3
655.577	5.25
655.989	5.19
656.401	5.13
656.813	5.07
657.224	5
657.636	4.92
658.047	4.85
658.459	4.78
658.87	4.71
659.282	4.65
659.693	4.58
660.104	4.5
660.515	4.44
660.926	4.37
661.338	4.3
661.749	4.24
662.159	4.19
662.57	4.14
662.981	4.09
663.392	4.04
663.803	4
664.213	3.95
664.624	3.92
665.035	3.88
665.445	3.84
665.855	3.81
666.266	3.77
666.676	3.74
667.086	3.71
667.497	3.69
667.907	3.68
668.317	3.66
668.727	3.64
669.137	3.63
669.547	3.62
669.956	3.61
670.366	3.6
670.776	3.61
671.186	3.61
671.595	3.6
672.005	3.59
672.414	3.59
672.824	3.59
673.233	3.6
673.642	3.61
674.052	3.61
674.461	3.63
674.87	3.64
675.279	3.66
675.688	3.67
676.097	3.69
676.506	3.72
676.915	3.74
677.323	3.76
677.732	3.78
678.141	3.82
678.549	3.85
678.958	3.88
679.366	3.92
679.775	3.95
680.183	4
680.592	4.05
681	4.11
681.408	4.16
681.816	4.23
682.224	4.31
682.632	4.4
683.04	4.49
683.448	4.6
683.856	4.7
684.264	4.84
684.671	4.99
685.079	5.15
685.487	5.34
685.894	5.55
686.302	5.78
686.709	6.03
687.116	6.31
687.524	6.61
687.931	6.93
688.338	7.29
688.745	7.66
689.152	8.06
689.559	8.48
689.966	8.91
690.373	9.38
690.78	9.86
691.187	10.37
691.593	10.9
692	11.44
692.407	11.99
692.813	12.57
693.22	13.15
693.626	13.73
694.032	14.34
694.439	14.97
694.845	15.61
695.251	16.23
695.657	16.84
696.063	17.46
696.469	18.1
696.875	18.74
697.281	19.37
697.687	20.01
698.093	20.64
698.498	21.27
698.904	21.88
699.31	22.46
699.715	23.06
700.12	23.67
700.526	24.26
700.931	24.83
701.337	25.4
701.742	25.96
702.147	26.5
702.552	27.04
702.957	27.55
703.362	28.06
703.767	28.57
704.172	29.08
704.577	29.59
704.981	30.08
705.386	30.57
705.791	31.05
706.195	31.54
706.6	32.02
707.004	32.47
707.408	32.92
707.813	33.38
708.217	33.83
708.621	34.26
709.025	34.65
709.43	35.08
709.834	35.49
710.237	35.88
710.641	36.26
711.045	36.64
711.449	37.04
711.853	37.44
712.256	37.79
712.66	38.15
713.064	38.49
713.467	38.85
713.87	39.17
714.274	39.49
714.677	39.83
715.08	40.16
715.484	40.48
715.887	40.8
716.29	41.08
716.693	41.42
717.096	41.73
717.499	42.06
717.901	42.35
718.304	42.64
718.707	42.94
719.109	43.23
719.512	43.51
719.915	43.77
720.317	44
720.719	44.23
721.122	44.46
721.524	44.68
721.926	44.91
722.328	45.14
722.731	45.35
723.133	45.55
723.535	45.73
723.937	45.93
724.338	46.13
724.74	46.33
725.142	46.61
725.544	46.78
725.945	46.96
726.347	47.12
726.748	47.27
727.15	47.4
727.551	47.58
727.952	47.71
728.354	47.85
728.755	47.96
729.156	48.09
729.557	48.13
729.958	48.24
730.359	48.34
730.76	48.45
731.161	48.56
731.562	48.68
731.962	48.74
732.363	48.87
732.763	48.97
733.164	49.08
733.564	49.17
733.965	49.27
734.365	49.37
734.766	49.46
735.166	49.56
735.566	49.65
735.966	49.73
736.366	49.83
736.766	49.86
737.166	49.92
737.566	49.96
737.966	50.03
738.365	50.11
738.765	50.18
739.165	50.22
739.564	50.28
739.964	50.32
740.363	50.35
740.763	50.41
741.162	50.45
741.561	50.49
741.96	50.54
742.36	50.58
742.759	50.61
743.158	50.62
743.557	50.63
743.955	50.64
744.354	50.69
744.753	50.74
745.152	50.78
745.55	50.83
745.949	50.87
746.348	50.91
746.746	50.89
747.144	50.91
747.543	50.93
747.941	50.98
748.339	50.98
748.737	50.97
749.136	50.96
749.534	50.94
749.932	50.95
750.33	50.94
750.727	50.97
751.125	51
751.523	51
751.921	51.04
752.318	51.04
752.716	51.07
753.113	51.09
753.511	51.11
753.908	51.13
754.305	51.16
754.703	51.15
755.1	51.15
755.497	51.16
755.894	51.17
756.291	51.16
756.688	51.16
757.085	51.15
757.482	51.16
757.878	51.18
758.275	51.18
758.672	51.18
759.068	51.23
759.465	51.24
759.861	51.25
760.258	51.26
760.654	51.26
761.05	51.28
761.447	51.33
761.843	51.31
762.239	51.31
762.635	51.32
763.031	51.29
763.427	51.23
763.822	51.21
764.218	51.21
764.614	51.22
765.01	51.21
765.405	51.19
765.801	51.14
766.196	51.16
766.592	51.15
766.987	51.15
767.382	51.17
767.778	51.21
768.173	51.2
768.568	51.18
768.963	51.17
769.358	51.2
769.753	51.22
770.148	51.22
770.542	51.22
770.937	51.23
771.332	51.21
771.726	51.22
772.121	51.21
772.515	51.2
772.91	51.2
773.304	51.23
773.699	51.24
774.093	51.21
774.487	51.2
774.881	51.21
775.275	51.2
775.669	51.17
776.063	51.16
776.457	51.18
776.851	51.16
777.245	51.13
777.638	51.1
778.032	51.08
778.425	51.14
778.819	51.13
779.212	51.12
779.606	51.15
779.999	51.16
780.392	51.16
780.786	51.14
781.179	51.19
781.572	51.25
781.965	51.26
782.358	51.28
782.751	51.25
783.143	51.27
783.536	51.27
783.929	51.24
784.322	51.24
784.714	51.26
785.107	51.27
785.499	51.25
785.891	51.22
786.284	51.23
786.676	51.23
787.068	51.22
787.46	51.21
787.852	51.21
788.245	51.19
788.636	51.19
789.028	51.19
789.42	51.18
789.812	51.2
790.204	51.23
790.595	51.21
790.987	51.19
791.378	51.22
791.77	51.24
792.161	51.23
792.553	51.26
792.944	51.26
793.335	51.24
793.726	51.24
794.117	51.21
794.508	51.17
794.899	51.18
795.29	51.18
795.681	51.12
796.072	51.11
796.463	51.12
796.853	51.12
797.244	51.13
797.634	51.13
798.025	51.12
798.415	51.1
798.806	51.1
799.196	51.11
799.586	51.11
799.976	51.13
800.366	51.13
800.756	51.16
801.146	51.19
801.536	51.19
801.926	51.2
802.316	51.21
802.706	51.23
803.095	51.24
803.485	51.21
803.874	51.2
804.264	51.2
804.653	51.21
805.043	51.17
805.432	51.15
805.821	51.16
806.21	51.15
806.599	51.15
806.988	51.15
807.377	51.14
807.766	51.14
808.155	51.12
808.544	51.12
808.933	51.1
809.321	51.1
809.71	51.08
810.098	51.08
810.487	51.06
810.875	51.07
811.264	51.04
811.652	51.06
812.04	51.05
812.428	51.09
812.816	51.08
813.204	51.07
813.592	51.05
813.98	51.04
814.368	51.03
814.756	51.02
815.144	51.01
815.531	51.01
815.919	51
816.306	51
816.694	50.98
817.081	50.99
817.469	50.99
817.856	51.01
818.243	50.99
818.63	50.98
819.017	50.97
819.404	50.94
819.791	50.92
820.178	50.91
820.565	50.88
820.952	50.87
821.339	50.85
821.725	50.85
822.112	50.84
822.498	50.85
822.885	50.88
823.271	50.9
823.657	50.89
824.044	50.92
824.43	50.93
824.816	50.95
825.202	50.94
825.588	50.93
825.974	50.91
826.36	50.9
826.746	50.9
827.132	50.88
827.517	50.89
827.903	50.94
828.289	50.94
828.674	50.94
829.06	50.92
829.445	50.92
829.83	50.94
830.216	50.95
830.601	50.93
830.986	50.94
831.371	50.93
831.756	50.94
832.141	50.93
832.526	50.93
832.911	50.93
833.295	50.94
833.68	50.95
834.065	50.97
834.449	50.97
834.834	51
835.218	50.99
835.603	50.99
835.987	50.96
836.371	50.94
836.755	50.93
837.139	50.91
837.524	50.94
837.908	50.94
838.291	50.96
838.675	50.96
839.059	50.92
839.443	50.91
839.827	50.92
840.21	50.93
840.594	50.93
840.977	50.93
841.361	50.95
841.744	50.91
842.127	50.89
842.511	50.85
842.894	50.84
843.277	50.84
843.66	50.83
844.043	50.84
844.426	50.82
844.809	50.81
845.191	50.85
845.574	50.85
845.957	50.87
846.339	50.84
846.722	50.85
847.104	50.87
847.487	50.87
847.869	50.9
848.252	50.9
848.634	50.9
849.016	50.91
849.398	50.91
849.78	50.89
850.162	50.88
850.544	50.89
850.926	50.9
851.307	50.91
851.689	50.9
852.071	50.9
852.452	50.9
852.834	50.91
853.215	50.89
853.597	50.87
853.978	50.88
854.359	50.91
854.741	50.93
855.122	50.89
855.503	50.88
855.884	50.88
856.265	50.87
856.646	50.84
857.026	50.85
857.407	50.88
857.788	50.85
858.169	50.86
858.549	50.85
858.93	50.84
859.31	50.87
859.69	50.88
860.071	50.9
860.451	50.91
860.831	50.93
861.211	50.91
861.591	50.89
861.971	50.92
862.351	50.93
862.731	50.93
863.111	50.92
863.491	50.91
863.87	50.91
864.25	50.9
864.629	50.89
865.009	50.9
865.388	50.9
865.768	50.9
866.147	50.91
866.526	50.89
866.905	50.88
867.284	50.89
867.663	50.91
868.042	50.91
868.421	50.93
868.8	50.95
869.179	50.92
869.558	50.91
869.936	50.89
870.315	50.88
870.693	50.88
871.072	50.9
871.45	50.9
871.828	50.88
872.207	50.87
872.585	50.87
872.963	50.86
873.341	50.87
873.719	50.88
874.097	50.89
874.475	50.9
874.853	50.89
875.23	50.89
875.608	50.91
875.986	50.94
876.363	50.95
876.741	50.93
877.118	50.92
877.495	50.92
877.873	50.92
878.25	50.95
878.627	50.97
879.004	50.98
879.381	50.98
879.758	50.95
880.135	50.95
880.512	50.94
880.889	50.93
881.265	50.93
881.642	50.94
882.019	50.94
882.395	50.91
882.772	50.9
883.148	50.89
883.524	50.87
883.901	50.88
884.277	50.84
884.653	50.82
885.029	50.82
885.405	50.83
885.781	50.83
886.157	50.83
886.532	50.83
886.908	50.79
887.284	50.78
887.659	50.77
888.035	50.74
888.411	50.74
888.786	50.75
889.161	50.76
889.537	50.75
889.912	50.73
890.287	50.7
890.662	50.69
891.037	50.73
891.412	50.73
891.787	50.72
892.162	50.72
892.536	50.72
892.911	50.7
893.286	50.68
893.66	50.68
894.035	50.69
894.409	50.69
894.784	50.69
895.158	50.69
895.532	50.71
895.906	50.7
896.281	50.72
896.655	50.74
897.029	50.76
897.402	50.78
897.776	50.8
898.15	50.82
898.524	50.83
898.898	50.82
899.271	50.83
899.645	50.83
900.018	50.87
900.392	50.86
900.765	50.87
901.138	50.86
901.511	50.89
901.884	50.87
902.258	50.88
902.631	50.9
903.003	50.92
903.376	50.91
903.749	50.91
904.122	50.9
904.495	50.92
904.867	50.94
905.24	50.96
905.612	50.94
905.985	50.92
906.357	50.89
906.729	50.91
907.102	50.91
907.474	50.91
907.846	50.93
908.218	50.91
908.59	50.91
908.962	50.9
909.334	50.89
909.705	50.87
910.077	50.9
910.449	50.9
910.82	50.86
911.192	50.85
911.563	50.85
911.935	50.81
912.306	50.85
912.677	50.86
913.048	50.87
913.419	50.87
913.79	50.9
914.161	50.92
914.532	50.95
914.903	50.99
915.274	50.99
915.645	51
916.015	51.01
916.386	50.99
916.756	50.99
917.127	51
917.497	50.99
917.868	50.96
918.238	50.94
918.608	50.96
918.978	50.96
919.348	50.99
919.718	50.97
920.088	50.99
920.458	50.99
920.828	50.97
921.198	50.94
921.567	50.96
921.937	50.98
922.306	50.98
922.676	50.96
923.045	50.91
923.415	50.87
923.784	50.86
924.153	50.87
924.522	50.91
924.891	50.92
925.26	50.93
925.629	50.91
925.998	50.85
926.367	50.87
926.736	50.83
927.104	50.86
927.473	50.85
927.842	50.84
928.21	50.83
928.578	50.78
928.947	50.75
929.315	50.72
929.683	50.71
930.051	50.73
930.42	50.73
930.788	50.71
931.156	50.66
931.523	50.67
931.891	50.73
932.259	50.72
932.627	50.71
932.994	50.73
933.362	50.75
933.729	50.75
934.097	50.75
934.464	50.77
934.831	50.8
935.199	50.86
935.566	50.89
935.933	50.82
936.3	50.8
936.667	50.81
937.034	50.83
937.401	50.88
937.767	50.9
938.134	50.91
938.501	50.86
938.867	50.9
939.234	50.84
939.6	50.79
939.967	50.8
940.333	50.79
940.699	50.79
941.065	50.75
941.431	50.71
941.798	50.69
942.163	50.64
942.529	50.65
942.895	50.57
943.261	50.55
943.627	50.57
943.992	50.56
944.358	50.55
944.723	50.51
945.089	50.43
945.454	50.45
945.82	50.42
946.185	50.44
946.55	50.37
946.915	50.37
947.28	50.38
947.645	50.42
948.01	50.39
948.375	50.35
948.74	50.3
949.104	50.36
949.469	50.25
949.834	50.24
950.198	50.26
950.562	50.27
950.927	50.28
951.291	50.18
951.655	50.09
952.02	50.1
952.384	50.12
952.748	50.12
953.112	50.08
953.476	50.08
953.839	50.03
954.203	50.01
954.567	49.95
954.931	49.89
955.294	49.99
955.658	50.05
956.021	49.98
956.385	49.96
956.748	49.95
957.111	49.95
957.474	49.98
957.837	49.96
958.2	49.93
958.563	49.99
958.926	50.04
959.289	50.01
959.652	49.97
960.015	50.02
960.377	50.04
960.74	50.08
961.102	50.08
961.465	50.11
961.827	50.2
962.189	50.22
962.552	50.26
962.914	50.23
963.276	50.27
963.638	50.33
964	50.31
964.362	50.35
964.724	50.37
965.085	50.38
965.447	50.37
965.809	50.33
966.17	50.32
966.532	50.26
966.893	50.26
967.255	50.26
967.616	50.23
967.977	50.29
968.338	50.27
968.699	50.21
969.061	50.18
969.421	50.16
969.782	50.18
970.143	50.17
970.504	50.19
970.865	50.23
971.225	50.2
971.586	50.18
971.946	50.2
972.307	50.17
972.667	50.19
973.027	50.26
973.388	50.3
973.748	50.31
974.108	50.4
974.468	50.41
974.828	50.44
975.188	50.44
975.548	50.42
975.907	50.39
976.267	50.38
976.627	50.39
976.986	50.31
977.346	50.18
977.705	50.12
978.064	50.13
978.424	50.16
978.783	50.12
979.142	50.11
979.501	50.15
979.86	50.17
980.219	50.2
980.578	50.26
980.937	50.31
981.296	50.41
981.654	50.46
982.013	50.39
982.371	50.36
982.73	50.38
983.088	50.39
983.447	50.35
983.805	50.37
984.163	50.4
984.521	50.38
984.879	50.3
985.237	50.31
985.595	50.4
985.953	50.39
986.311	50.35
986.669	50.34
987.026	50.33
987.384	50.4
987.741	50.3
988.099	50.24
988.456	50.2
988.814	50.26
989.171	50.22
989.528	50.12
989.885	50.14
990.242	50.21
990.599	50.22
990.956	50.29
991.313	50.31
991.67	50.37
992.027	50.51
992.383	50.57
992.74	50.61
993.096	50.7
993.453	50.74
993.809	50.73
994.165	50.76
994.522	50.81
994.878	50.83
995.234	50.79
995.59	50.78
995.946	50.65
996.302	50.77
996.658	50.78
997.013	50.76
997.369	50.74
997.725	50.81
998.08	50.8
998.436	50.87
998.791	50.85
999.147	50.85
999.502	50.87
999.857	50.87
1000.212	50.7
1000.567	50.74
1000.922	50.73
1001.277	50.8
1001.632	50.68
1001.987	50.7
1002.342	50.58
1002.696	50.68
1003.051	50.87
1003.406	50.96
1003.76	51
1004.114	51.06
1004.469	51.18
1004.823	51.47
1005.177	51.43
1005.531	51.66
1005.885	51.7
1006.239	51.81
1006.593	51.89
1006.947	51.82
1007.301	51.75
1007.655	51.84
1008.008	51.91
1008.362	51.85
1008.715	51.62
1009.069	51.75
1009.422	51.68
1009.776	51.69
1010.129	51.67
1010.482	51.63
1010.835	51.51
1011.188	51.48
1011.541	51.64
1011.894	51.75
1012.247	51.68
1012.6	51.79
1012.952	51.54
1013.305	51.66
1013.657	51.6
1014.01	51.66
1014.362	51.47
1014.715	51.76
1015.067	51.84
1015.419	51.73
1015.771	51.56
1016.123	51.6
1016.475	51.54
1016.827	51.86
1017.179	51.85
1017.531	51.91
1017.883	51.98
1018.234	52.17
1018.586	52.03
1018.938	52.35
1019.289	52.37
1019.64	52.49
1019.992	52.44
1020.343	52.3
1020.694	52.15
1021.045	52.2
1021.396	52.42
1021.747	52.19
1022.098	52.28
1022.449	52.3
1022.8	52.05
1023.151	51.93
1023.501	51.97
1023.852	52.11
1024.202	52.07
1024.553	52.18
1024.903	52.26
1025.253	52.32
1025.604	52.54
1025.954	52.41
1026.304	52.39
1026.654	52.35
1027.004	52.33
1027.354	52.14
1027.703	52.12
1028.053	52.52
1028.403	52.61
1028.753	52.33
1029.102	52.26
1029.452	52.33
1029.801	52.53
1030.15	52.52
1030.499	52.64
897.758	1111.97
901.051	1122.12
904.343	1118.16
907.636	1137.6
910.928	1108.45
914.22	1114.25
917.511	1097.63
920.803	1049.24
924.094	1045.52
927.384	1023.42
930.675	980.58
933.965	976.02
937.255	918
940.544	881.94
943.834	840.7
947.123	834.66
950.411	783.51
953.7	769.31
956.988	732.97
960.276	704.86
963.563	691.27
966.851	669.38
970.138	663.44
973.424	643.4
976.711	646.58
979.997	614.19
983.283	610.66
986.568	598.2
989.853	579.53
993.138	567.82
996.423	546.27
999.708	531.98
1002.992	525.3
1006.275	500.84
1009.559	497.41
1012.842	479.01
1016.125	468.14
1019.408	459.81
1022.69	453
1025.972	444.79
1029.254	435.46
1032.536	428.14
1035.817	419.13
1039.098	415.43
1042.379	407.55
1045.659	402.73
1048.939	393.72
1052.219	385.88
1055.498	379.61
1058.778	371.42
1062.057	363.69
1065.335	359.36
1068.614	354.72
1071.892	351.9
1075.17	339.56
1078.447	333.91
1081.724	331
1085.001	329.98
1088.278	323.91
1091.554	316.91
1094.83	317.22
1098.106	315.05
1101.382	312.71
1104.657	310.95
1107.932	304.77
1111.206	307.92
1114.481	300.44
1117.755	297.69
1121.029	293.93
1124.302	293.08
1127.575	288.46
1130.848	285.16
1134.121	281.46
1137.393	279.76
1140.665	273.56
1143.937	272.96
1147.208	270.53
1150.48	269.92
1153.75	266.33
1157.021	264.21
1160.291	263.5
1163.561	260.84
1166.831	260.78
1170.101	258.72
1173.37	258.5
1176.639	259.74
1179.907	256.87
1183.176	253.66
1186.444	253.86
1189.711	253.52
1192.979	251.89
1196.246	250.82
1199.513	251.94
1202.78	250.26
1206.046	250.8
1209.312	247.88
1212.578	247.58
1215.843	250.2
1219.108	249.18
1222.373	253.08
1225.638	255.62
1228.902	258.38
1232.166	259.05
1235.43	261.2
1238.693	264.51
1241.956	265.42
1245.219	270.21
1248.482	270.44
1251.744	269.94
1255.006	270.04
1258.268	264.46
1261.529	261.88
1264.79	260.61
1268.051	258.81
1271.312	255.17
1274.572	252.27
1277.832	250.22
1281.092	245.69
1284.351	243.9
1287.61	243.66
1290.869	241.01
1294.128	239.54
1297.386	238.72
1300.644	236.14
1303.902	237.15
1307.159	236.26
1310.416	236.33
1313.673	235.72
1316.93	238.79
1320.186	237.8
1323.442	238.98
1326.697	241.93
1329.953	242.99
1333.208	243.89
1336.463	246.85
1339.717	246.8
1342.972	250.43
1346.226	251.47
1349.479	252.4
1352.733	253.33
1355.986	255.07
1359.238	254.38
1362.491	255.99
1365.743	258.04
1368.995	258.35
1372.247	258.29
1375.498	257.9
1378.749	258.98
1382	257.15
1385.251	257.81
1388.501	256.05
1391.751	256.98
1395	256.01
1398.25	254.08
1401.499	251.75
1404.748	251.59
1407.996	249.46
1411.244	248.3
1414.492	246.82
1417.74	244.16
1420.987	240.27
1424.234	239.21
1427.481	236.65
1430.728	236.18
1433.974	233.73
1437.22	231.94
1440.465	230.98
1443.711	228.02
1446.956	226.2
1450.201	223.83
1453.445	221.63
1456.689	221.18
1459.933	217.88
1463.177	215.8
1466.42	212.41
1469.663	210.38
1472.906	208.97
1476.148	204.45
1479.391	202.46
1482.633	201.42
1485.874	198.38
1489.115	197.28
1492.356	195.16
1495.597	194.82
1498.838	192.1
1502.078	191.53
1505.318	190.77
1508.557	190.71
1511.797	190.3
1515.036	189.44
1518.274	188.59
1521.513	187.21
1524.751	187.34
1527.989	186.39
1531.227	185.88
1534.464	186.15
1537.701	185.01
1540.938	184.46
1544.174	182.32
1547.41	182.27
1550.646	181.41
1553.882	181.61
1557.117	179.75
1560.352	178.73
1563.587	178.35
1566.821	176.94
1570.055	175.68
1573.289	174.5
1576.523	174.3
1579.756	173.37
1582.989	172.29
1586.222	171.61
1589.454	170.58
1592.686	171.61
1595.918	170.44
1599.15	169.88
1602.381	170.3
1605.612	170.08
1608.843	170.2
1612.073	170.27
1615.303	171.13
1618.533	170.95
1621.762	171.12
1624.992	171.83
1628.221	171.31
1631.449	171.6
1634.678	171.6
1637.906	172.35
1641.134	172.56
1644.361	172.33
1647.588	172.27
1650.815	171.65
1654.042	171.11
1657.269	172.54
1660.495	172.11
1663.72	171.57
1666.946	172.41
1670.171	172.71
1673.396	172.15
1676.621	172.56
1679.845	172.53
1683.069	173.02
1686.293	174.03
1689.517	175.34
1692.74	174.68
1695.963	175.38
1699.185	176.92
1702.408	177.04
1705.63	177.61
1708.852	178.09
1712.073	178.07
1715.294	179.08
1718.515	179.38
1721.736	178.93
1724.956	179.61
1728.176	179.67
1731.396	180.74
1734.616	180.15
1737.835	180.39
1741.054	178.95
1744.272	179.71
1747.491	181.03
1750.709	181.21
1753.927	181.18
1757.144	181.36
1760.361	181.17
1763.578	182.03
1766.795	181.51
1770.011	182.84
1773.227	182.53
1776.443	185.16
1779.658	185.45
1782.874	185.02
1786.089	185.61
1789.303	185.86
1792.518	187.69
1795.732	188
1798.945	188.8
1802.159	188.96
1805.372	189.68
1808.585	192.71
1811.797	193.34
1815.01	193.59
1818.222	194.82
1821.434	196.57
1824.645	197.3
1827.856	200.16
1831.067	201.85
1834.278	200.76
1837.488	202.89
1840.698	203.84
1843.908	202.27
1847.117	202.5
1850.326	203.97
1853.535	202.93
1856.744	205.29
1859.952	205.64
1863.16	203.5
1866.368	201.87
1869.575	204.26
1872.782	200.69
1875.989	199.11
1879.196	198.05
1882.402	196.42
1885.608	196.6
1888.814	196.95
1892.019	195.57
1895.224	194.28
1898.429	193.75
1901.634	194.05
1904.838	194.5
1908.042	195.93
1911.246	196.51
1914.449	197.59
1917.652	197.57
1920.855	197.95
1924.058	197.43
1927.26	196.51
1930.462	196.8
1933.664	199.25
1936.865	197.71
1940.066	196.77
1943.267	196.08
1946.467	195.52
1949.668	197
1952.868	199.55
1956.067	198.8
1959.267	199.62
1962.466	200.29
1965.665	199.9
1968.863	199.97
1972.061	203.57
1975.259	204.77
1978.457	206.91
1981.654	209.45
1984.852	209.83
1988.048	209.03
1991.245	211.24
1994.441	213.92
1997.637	215.54
2000.833	219.37
2004.028	222.54
2007.223	223.38
2010.418	226.26
2013.613	229.37
2016.807	232.18
2020.001	234.21
2023.194	238.2
2026.388	243.5
2029.581	248.41
2032.774	250.61
2035.966	256.03
2039.158	256.17
2042.35	261.69
2045.542	262.96
2048.733	267.73
2051.924	270.46
2055.115	275.27
2058.306	275.68
2061.496	278.19
2064.686	278.99
2067.875	283.3
2071.065	284.73
2074.254	283.51
2077.442	286.49
2080.631	288.95
2083.819	290.81
2087.007	291.47
2090.195	295.63
2093.382	297.65
2096.569	295.86
2099.756	299.55
2102.942	301.08
2106.128	303.56
2109.314	310.1
2112.5	308.56
2115.685	314.89
2118.87	315.56
2122.055	322.83
2125.239	323.51
2128.424	328.47
2131.608	331
2134.791	335.89
2137.974	336.8
2141.157	336.94
2144.34	338.07
2147.523	343.53
2150.705	340.94
2153.887	345.2
2157.068	344.93
2160.25	341.36
2163.431	342.95
2166.611	346.85
2169.792	352.44
2172.972	356.93
2176.152	359.57
2179.331	364.2
2182.511	369.53
2185.69	373.41
2188.868	378.95
2192.047	380.31
2195.225	392.2
2198.403	400.65
2201.58	408.27
2204.758	416.86
2207.935	424.77
2211.111	431.7
2214.288	436.55
2217.464	438
2220.64	445.17
2223.815	450.53
2226.991	469.62
2230.166	469.46
2233.34	477.95
2236.515	486.73
2239.689	485.78
2242.863	487.34
2246.036	501.51
2249.209	498.44
2252.382	507.33
2255.555	522.61
2258.727	524.72
2261.9	528.38
2265.071	533.99
2268.243	542.3
2271.414	546.1
2274.585	558.58
2277.756	566.06
2280.926	569.08
2284.096	582.36
2287.266	593.47
2290.436	598.27
2293.605	612.36
2296.774	626.29
2299.942	648.7
2303.111	653.88
2306.279	667.96
2309.447	677.37
2312.614	694.64
2315.781	716.77
2318.948	747.02
2322.115	737.81
2325.281	775.32
2328.447	761.57
2331.613	791.75
2334.779	781.7
2337.944	814.81
2341.109	823.28
2344.274	845.93
2347.438	874.56
2350.602	871.15
2353.766	901.22
2356.929	915.48
2360.092	909
2363.255	973.24
2366.418	972.9
2369.58	990.83
2372.742	1045.83
2375.904	1074.34
2379.066	1067.57
2382.227	1047.26
2385.388	1139.89
2388.548	1134.69
2391.709	1147.68
2394.869	1281.69
2398.029	1225.74
2401.188	1259.04
2404.347	1252.68
2407.506	1239.03
2410.665	1269.23
2413.823	1345.32
2416.981	1426.13
2420.139	1379.54
2423.296	1369.58
2426.453	1428.72
2429.61	1370.9
2432.767	1437.24
2435.923	1424.23
2439.079	1553.28
2442.235	1570.34
2445.391	1557.52
2448.546	1541.68
2451.701	1498.89
2454.855	1496.27
2458.009	1583.23
2461.163	1646.21
2464.317	1710.57
2467.471	1750.44
2470.624	1751.6
2473.777	1709.13
2476.929	1671.56
2480.082	1625.05
2483.234	1610
2486.385	1686.57
2489.537	1693.62
2492.688	1756.48
2495.839	1706.86
2498.989	1665.83
2502.14	1677.83
2505.29	1693.04
2508.439	1717.97
2511.589	1708.99
2514.738	1864.57
2517.887	1820.91
2521.035	1928.97
2524.183	1943.16
2527.331	1960.26
2530.479	1955.04
2533.627	1969.84
