Data from C_1_HIR_IL_4N_Splice17_12-50-11-533.txt Node
Date: Sat Mar 07 12:50:11 EST 2020
User: sa697716
Spectrometer: NQ5500242
Trigger mode: 0
Integration Time (sec): 1.450000E-1
Scans to average: 20
Nonlinearity correction enabled: false
Boxcar width: 5
Storing dark spectrum: false
XAxis mode: Wavelengths
Number of Pixels in Spectrum: 512
>>>>>Begin Spectral Data<<<<<
187.83	51.37
188.298	45.68
188.766	42.88
189.233	38.6
189.701	31.93
190.169	27.32
190.636	-28.29
191.104	-177.53
191.571	-415.57
192.039	-117.29
192.506	-630.03
192.974	152.78
193.441	98.49
193.908	5.04
194.375	-2.26
194.842	-35.45
195.31	-75.87
195.777	-388.11
196.244	-10.1
196.711	20.11
197.177	27.06
197.644	26.24
198.111	26.14
198.578	26.83
199.045	27.52
199.511	27.83
199.978	27.71
200.445	28.08
200.911	28.24
201.378	28.56
201.844	28.61
202.31	28.19
202.777	28.48
203.243	28.74
203.709	28.54
204.176	28.14
204.642	27.91
205.108	28.02
205.574	27.81
206.04	27.42
206.506	27.13
206.972	27.06
207.438	27.08
207.903	26.65
208.369	26.22
208.835	25.85
209.301	25.59
209.766	24.75
210.232	24.13
210.697	23.59
211.163	23.38
211.628	22.96
212.094	22.29
212.559	21.86
213.024	21.56
213.49	21.22
213.955	20.79
214.42	20.51
214.885	20.26
215.35	19.84
215.815	19.07
216.28	18.07
216.745	16.95
217.21	16.09
217.675	15.21
218.14	14.36
218.604	13.64
219.069	13.04
219.534	12.5
219.998	12.07
220.463	11.7
220.927	11.34
221.392	11.07
221.856	10.88
222.32	10.68
222.785	10.52
223.249	10.36
223.713	10.23
224.177	10.13
224.642	10.01
225.106	9.86
225.57	9.72
226.034	9.63
226.497	9.54
226.961	9.43
227.425	9.32
227.889	9.21
228.353	9.09
228.816	8.97
229.28	8.86
229.744	8.77
230.207	8.67
230.671	8.59
231.134	8.49
231.597	8.4
232.061	8.32
232.524	8.23
232.987	8.15
233.45	8.09
233.914	8.01
234.377	7.93
234.84	7.85
235.303	7.79
235.766	7.72
236.229	7.65
236.691	7.57
237.154	7.51
237.617	7.44
238.08	7.37
238.542	7.3
239.005	7.25
239.468	7.18
239.93	7.13
240.393	7.07
240.855	7
241.317	6.95
241.78	6.9
242.242	6.83
242.704	6.79
243.166	6.74
243.629	6.7
244.091	6.65
244.553	6.59
245.015	6.54
245.477	6.48
245.939	6.43
246.4	6.38
246.862	6.33
247.324	6.29
247.786	6.23
248.247	6.18
248.709	6.12
249.17	6.06
249.632	6.03
250.093	5.99
250.555	5.95
251.016	5.92
251.477	5.88
251.939	5.85
252.4	5.82
252.861	5.79
253.322	5.76
253.783	5.73
254.244	5.71
254.705	5.68
255.166	5.65
255.627	5.62
256.088	5.61
256.549	5.57
257.009	5.54
257.47	5.5
257.931	5.47
258.391	5.43
258.852	5.4
259.312	5.37
259.773	5.34
260.233	5.31
260.694	5.28
261.154	5.24
261.614	5.22
262.074	5.19
262.534	5.17
262.994	5.16
263.455	5.14
263.915	5.12
264.374	5.1
264.834	5.1
265.294	5.08
265.754	5.08
266.214	5.07
266.673	5.06
267.133	5.05
267.593	5.04
268.052	5.03
268.512	5.02
268.971	5.01
269.431	5
269.89	4.98
270.349	4.98
270.809	4.96
271.268	4.95
271.727	4.93
272.186	4.92
272.645	4.91
273.104	4.9
273.563	4.89
274.022	4.88
274.481	4.87
274.94	4.86
275.399	4.84
275.857	4.83
276.316	4.82
276.775	4.8
277.233	4.79
277.692	4.78
278.15	4.77
278.609	4.76
279.067	4.75
279.525	4.73
279.984	4.72
280.442	4.71
280.9	4.7
281.358	4.69
281.816	4.67
282.274	4.66
282.732	4.64
283.19	4.62
283.648	4.61
284.106	4.59
284.564	4.58
285.021	4.56
285.479	4.55
285.937	4.54
286.394	4.53
286.852	4.51
287.309	4.49
287.767	4.48
288.224	4.46
288.682	4.45
289.139	4.43
289.596	4.41
290.053	4.4
290.511	4.38
290.968	4.36
291.425	4.35
291.882	4.34
292.339	4.32
292.796	4.31
293.252	4.3
293.709	4.29
294.166	4.28
294.623	4.27
295.079	4.25
295.536	4.25
295.992	4.23
296.449	4.22
296.905	4.21
297.362	4.2
297.818	4.19
298.274	4.19
298.731	4.18
299.187	4.17
299.643	4.15
300.099	4.15
300.555	4.14
301.011	4.13
301.467	4.12
301.923	4.1
302.379	4.09
302.835	4.09
303.291	4.07
303.746	4.05
304.202	4.05
304.658	4.04
305.113	4.03
305.569	4.02
306.024	4
306.479	4
306.935	3.99
307.39	3.97
307.845	3.97
308.301	3.96
308.756	3.95
309.211	3.93
309.666	3.93
310.121	3.93
310.576	3.92
311.031	3.92
311.486	3.91
311.94	3.9
312.395	3.89
312.85	3.88
313.305	3.87
313.759	3.86
314.214	3.86
314.668	3.85
315.123	3.84
315.577	3.84
316.032	3.83
316.486	3.83
316.94	3.83
317.394	3.82
317.849	3.81
318.303	3.81
318.757	3.79
319.211	3.79
319.665	3.78
320.119	3.76
320.572	3.75
321.026	3.74
321.48	3.73
321.934	3.71
322.387	3.7
322.841	3.69
323.295	3.69
323.748	3.68
324.202	3.67
324.655	3.66
325.108	3.66
325.562	3.65
326.015	3.65
326.468	3.65
326.921	3.64
327.374	3.63
327.827	3.63
328.28	3.62
328.733	3.62
329.186	3.61
329.639	3.6
330.092	3.6
330.545	3.59
330.997	3.58
331.45	3.58
331.903	3.58
332.355	3.59
332.808	3.59
333.26	3.58
333.713	3.57
334.165	3.56
334.617	3.56
335.069	3.55
335.522	3.56
335.974	3.55
336.426	3.54
336.878	3.53
337.33	3.53
337.782	3.52
338.234	3.52
338.686	3.52
339.137	3.52
339.589	3.51
340.041	3.52
340.493	3.5
340.944	3.49
341.396	3.49
341.847	3.48
342.299	3.47
342.75	3.46
343.201	3.46
343.653	3.45
344.104	3.44
344.555	3.44
345.006	3.42
345.457	3.41
345.908	3.41
346.359	3.4
346.81	3.39
347.261	3.39
347.712	3.39
348.163	3.37
348.613	3.37
349.064	3.37
349.515	3.36
349.965	3.36
350.416	3.35
350.866	3.34
351.317	3.34
351.767	3.33
352.217	3.33
352.668	3.32
353.118	3.33
353.568	3.31
354.018	3.32
354.468	3.32
354.918	3.32
355.368	3.32
355.818	3.33
356.268	3.32
356.718	3.32
357.168	3.31
357.617	3.31
358.067	3.31
358.517	3.31
358.966	3.31
359.416	3.31
359.865	3.31
360.315	3.32
360.764	3.32
361.213	3.31
361.663	3.31
362.112	3.32
362.561	3.32
363.01	3.32
363.459	3.31
363.908	3.29
364.357	3.3
364.806	3.29
365.255	3.28
365.703	3.29
366.152	3.3
366.601	3.29
367.05	3.29
367.498	3.28
367.947	3.29
368.395	3.3
368.844	3.3
369.292	3.3
369.74	3.3
370.189	3.3
370.637	3.3
371.085	3.29
371.533	3.3
371.981	3.3
372.429	3.3
372.877	3.3
373.325	3.31
373.773	3.32
374.221	3.32
374.669	3.32
375.116	3.32
375.564	3.32
376.012	3.33
376.459	3.35
376.907	3.36
377.354	3.37
377.801	3.38
378.249	3.38
378.696	3.38
379.143	3.39
379.591	3.4
380.038	3.41
380.485	3.42
380.932	3.42
381.379	3.42
381.826	3.42
382.273	3.43
382.72	3.43
383.166	3.43
383.613	3.45
384.06	3.45
384.506	3.45
384.953	3.47
385.4	3.47
385.846	3.49
386.292	3.5
386.739	3.52
387.185	3.53
387.631	3.55
388.078	3.56
388.524	3.58
388.97	3.59
389.416	3.61
389.862	3.63
390.308	3.64
390.754	3.66
391.2	3.68
391.645	3.69
392.091	3.7
392.537	3.71
392.983	3.72
393.428	3.73
393.874	3.75
394.319	3.76
394.765	3.76
395.21	3.77
395.655	3.78
396.101	3.8
396.546	3.81
396.991	3.83
397.436	3.84
397.881	3.87
398.326	3.89
398.771	3.9
399.216	3.92
399.661	3.94
400.106	3.95
400.551	3.96
400.995	3.97
401.44	3.97
401.885	3.99
402.329	4
402.774	4.02
403.218	4.05
403.663	4.06
404.107	4.07
404.551	4.08
404.995	4.1
405.44	4.11
405.884	4.12
406.328	4.14
406.772	4.14
407.216	4.14
407.66	4.14
408.104	4.13
408.547	4.13
408.991	4.14
409.435	4.13
409.879	4.13
410.322	4.13
410.766	4.15
411.209	4.15
411.653	4.17
412.096	4.19
412.54	4.2
412.983	4.2
413.426	4.22
413.869	4.23
414.312	4.25
414.756	4.27
415.199	4.27
415.642	4.28
416.085	4.29
416.527	4.28
416.97	4.28
417.413	4.29
417.856	4.3
418.298	4.3
418.741	4.3
419.184	4.3
419.626	4.29
420.069	4.31
420.511	4.3
420.953	4.31
421.396	4.31
421.838	4.31
422.28	4.31
422.722	4.32
423.164	4.32
423.606	4.32
424.048	4.33
424.49	4.34
424.932	4.33
425.374	4.32
425.816	4.3
426.258	4.28
426.699	4.27
427.141	4.28
427.582	4.26
428.024	4.26
428.465	4.25
428.907	4.24
429.348	4.23
429.789	4.23
430.231	4.25
430.672	4.28
431.113	4.29
431.554	4.3
431.995	4.3
432.436	4.3
432.877	4.31
433.318	4.33
433.759	4.36
434.2	4.38
434.64	4.39
435.081	4.39
435.522	4.4
435.962	4.41
436.403	4.43
436.843	4.43
437.284	4.43
437.724	4.44
438.164	4.42
438.604	4.43
439.045	4.42
439.485	4.41
439.925	4.41
440.365	4.41
440.805	4.41
441.245	4.43
441.685	4.45
442.125	4.47
442.564	4.48
443.004	4.48
443.444	4.48
443.883	4.5
444.323	4.5
444.762	4.52
445.202	4.51
445.641	4.52
446.081	4.52
446.52	4.51
446.959	4.52
447.398	4.53
447.837	4.55
448.276	4.56
448.716	4.55
449.154	4.57
449.593	4.58
450.032	4.59
450.471	4.59
450.91	4.6
451.349	4.61
451.787	4.59
452.226	4.59
452.664	4.6
453.103	4.59
453.541	4.6
453.98	4.61
454.418	4.59
454.856	4.6
455.295	4.59
455.733	4.57
456.171	4.57
456.609	4.58
457.047	4.56
457.485	4.55
457.923	4.56
458.361	4.55
458.798	4.55
459.236	4.55
459.674	4.54
460.111	4.54
460.549	4.56
460.987	4.56
461.424	4.57
461.862	4.59
462.299	4.59
462.736	4.59
463.173	4.59
463.611	4.58
464.048	4.59
464.485	4.61
464.922	4.6
465.359	4.61
465.796	4.6
466.233	4.6
466.67	4.6
467.106	4.61
467.543	4.61
467.98	4.62
468.416	4.61
468.853	4.61
469.29	4.6
469.726	4.6
470.162	4.6
470.599	4.6
471.035	4.61
471.471	4.6
471.907	4.6
472.344	4.61
472.78	4.6
473.216	4.61
473.652	4.62
474.088	4.61
474.523	4.63
474.959	4.63
475.395	4.61
475.831	4.6
476.266	4.6
476.702	4.59
477.138	4.58
477.573	4.57
478.008	4.58
478.444	4.57
478.879	4.59
479.314	4.57
479.75	4.57
480.185	4.57
480.62	4.56
481.055	4.55
481.49	4.55
481.925	4.56
482.36	4.55
482.795	4.53
483.229	4.53
483.664	4.52
484.099	4.52
484.534	4.51
484.968	4.53
485.403	4.54
485.837	4.55
486.271	4.56
486.706	4.57
487.14	4.59
487.574	4.61
488.009	4.62
488.443	4.64
488.877	4.66
489.311	4.68
489.745	4.7
490.179	4.72
490.613	4.75
491.046	4.77
491.48	4.8
491.914	4.83
492.348	4.85
492.781	4.89
493.215	4.92
493.648	4.96
494.082	5
494.515	5.03
494.948	5.07
495.382	5.1
495.815	5.15
496.248	5.19
496.681	5.24
497.114	5.29
497.547	5.34
497.98	5.39
498.413	5.44
498.846	5.5
499.279	5.57
499.711	5.64
500.144	5.72
500.577	5.79
501.009	5.86
501.442	5.95
501.874	6.03
502.306	6.12
502.739	6.22
503.171	6.32
503.603	6.41
504.036	6.52
504.468	6.61
504.9	6.72
505.332	6.83
505.764	6.95
506.196	7.07
506.627	7.2
507.059	7.33
507.491	7.46
507.923	7.6
508.354	7.76
508.786	7.92
509.217	8.08
509.649	8.24
510.08	8.41
510.512	8.58
510.943	8.76
511.374	8.95
511.805	9.12
512.237	9.31
512.668	9.5
513.099	9.68
513.53	9.86
513.961	10.04
514.391	10.24
514.822	10.44
515.253	10.65
515.684	10.84
516.114	11.05
516.545	11.26
516.975	11.48
517.406	11.69
517.836	11.9
518.267	12.12
518.697	12.34
519.127	12.55
519.558	12.76
519.988	12.97
520.418	13.17
520.848	13.36
521.278	13.56
521.708	13.88
522.138	14.07
522.567	14.25
522.997	14.42
523.427	14.6
523.857	14.77
524.286	14.93
524.716	15.09
525.145	15.25
525.575	15.4
526.004	15.56
526.433	15.57
526.863	15.7
527.292	15.84
527.721	15.97
528.15	16.09
528.579	16.21
529.008	16.33
529.437	16.43
529.866	16.54
530.295	16.64
530.724	16.72
531.152	16.81
531.581	16.9
532.01	16.98
532.438	17.06
532.867	17.14
533.295	17.2
533.723	17.26
534.152	17.32
534.58	17.38
535.008	17.42
535.436	17.48
535.865	17.53
536.293	17.57
536.721	17.61
537.149	17.65
537.576	17.69
538.004	17.74
538.432	17.78
538.86	17.81
539.287	17.84
539.715	17.88
540.143	17.91
540.57	17.94
540.998	17.97
541.425	18
541.852	18.03
542.28	18.05
542.707	18.07
543.134	18.09
543.561	18.12
543.988	18.13
544.415	18.15
544.842	18.16
545.269	18.18
545.696	18.21
546.123	18.21
546.549	18.24
546.976	18.26
547.403	18.29
547.829	18.3
548.256	18.32
548.682	18.33
549.108	18.35
549.535	18.36
549.961	18.38
550.387	18.37
550.813	18.37
551.24	18.35
551.666	18.35
552.092	18.33
552.518	18.32
552.943	18.29
553.369	18.27
553.795	18.25
554.221	18.23
554.646	18.19
555.072	18.17
555.498	18.13
555.923	18.1
556.349	18.06
556.774	18.02
557.199	17.97
557.625	17.93
558.05	17.89
558.475	17.84
558.9	17.79
559.325	17.73
559.75	17.65
560.175	17.59
560.6	17.52
561.025	17.44
561.449	17.37
561.874	17.3
562.299	17.2
562.723	17.11
563.148	17.02
563.572	16.92
563.997	16.83
564.421	16.73
564.846	16.63
565.27	16.52
565.694	16.42
566.118	16.3
566.542	16.2
566.966	16.1
567.39	15.99
567.814	15.88
568.238	15.78
568.662	15.66
569.086	15.56
569.509	15.46
569.933	15.36
570.357	15.26
570.78	15.16
571.204	15.06
571.627	14.96
572.05	14.87
572.474	14.78
572.897	14.68
573.32	14.6
573.743	14.51
574.166	14.42
574.589	14.34
575.012	14.24
575.435	14.15
575.858	14.06
576.281	13.98
576.704	13.9
577.126	13.83
577.549	13.74
577.972	13.67
578.394	13.59
578.817	13.52
579.239	13.45
579.661	13.38
580.084	13.33
580.506	13.28
580.928	13.22
581.35	13.16
581.772	13.09
582.194	13.04
582.616	12.99
583.038	12.94
583.46	12.88
583.882	12.82
584.303	12.76
584.725	12.7
585.147	12.65
585.568	12.61
585.99	12.55
586.411	12.5
586.833	12.45
587.254	12.39
587.675	12.36
588.096	12.32
588.518	12.29
588.939	12.27
589.36	12.24
589.781	12.2
590.202	12.16
590.623	12.14
591.043	12.12
591.464	12.1
591.885	12.07
592.305	12.05
592.726	12.03
593.147	11.99
593.567	11.97
593.987	11.93
594.408	11.9
594.828	11.88
595.248	11.85
595.669	11.83
596.089	11.81
596.509	11.79
596.929	11.76
597.349	11.73
597.769	11.71
598.189	11.67
598.608	11.65
599.028	11.64
599.448	11.61
599.867	11.57
600.287	11.55
600.706	11.51
601.126	11.48
601.545	11.45
601.965	11.42
602.384	11.39
602.803	11.37
603.222	11.33
603.641	11.28
604.061	11.25
604.48	11.21
604.898	11.15
605.317	11.11
605.736	11.06
606.155	11.02
606.574	10.95
606.992	10.89
607.411	10.84
607.829	10.76
608.248	10.7
608.666	10.64
609.085	10.59
609.503	10.54
609.921	10.48
610.339	10.43
610.758	10.37
611.176	10.31
611.594	10.25
612.012	10.19
612.43	10.16
612.847	10.1
613.265	10.03
613.683	9.98
614.101	9.92
614.518	9.87
614.936	9.81
615.353	9.75
615.771	9.71
616.188	9.66
616.606	9.62
617.023	9.57
617.44	9.55
617.857	9.52
618.274	9.47
618.691	9.41
619.108	9.37
619.525	9.34
619.942	9.31
620.359	9.28
620.776	9.25
621.192	9.22
621.609	9.21
622.026	9.18
622.442	9.16
622.859	9.14
623.275	9.13
623.691	9.11
624.108	9.09
624.524	9.09
624.94	9.09
625.356	9.08
625.772	9.06
626.188	9.04
626.604	9.03
627.02	9.02
627.436	9.02
627.852	9.02
628.268	9.02
628.683	9.02
629.099	9.01
629.514	8.99
629.93	8.97
630.345	8.97
630.761	8.94
631.176	8.92
631.591	8.9
632.007	8.87
632.422	8.83
632.837	8.79
633.252	8.75
633.667	8.71
634.082	8.66
634.497	8.62
634.911	8.57
635.326	8.53
635.741	8.47
636.155	8.41
636.57	8.35
636.984	8.29
637.399	8.22
637.813	8.15
638.228	8.07
638.642	7.99
639.056	7.91
639.47	7.83
639.884	7.76
640.298	7.68
640.712	7.6
641.126	7.53
641.54	7.45
641.954	7.37
642.368	7.29
642.781	7.22
643.195	7.15
643.609	7.08
644.022	7
644.436	6.93
644.849	6.85
645.262	6.78
645.676	6.72
646.089	6.66
646.502	6.61
646.915	6.56
647.328	6.52
647.741	6.48
648.154	6.43
648.567	6.4
648.98	6.36
649.393	6.33
649.805	6.3
650.218	6.28
650.631	6.25
651.043	6.22
651.456	6.18
651.868	6.15
652.28	6.11
652.693	6.08
653.105	6.05
653.517	6.02
653.929	5.99
654.341	5.94
654.753	5.89
655.165	5.84
655.577	5.8
655.989	5.75
656.401	5.7
656.813	5.66
657.224	5.6
657.636	5.54
658.047	5.48
658.459	5.41
658.87	5.36
659.282	5.3
659.693	5.25
660.104	5.18
660.515	5.12
660.926	5.06
661.338	5
661.749	4.95
662.159	4.89
662.57	4.83
662.981	4.8
663.392	4.75
663.803	4.71
664.213	4.66
664.624	4.62
665.035	4.58
665.445	4.54
665.855	4.52
666.266	4.49
666.676	4.47
667.086	4.44
667.497	4.42
667.907	4.4
668.317	4.39
668.727	4.37
669.137	4.37
669.547	4.36
669.956	4.35
670.366	4.34
670.776	4.34
671.186	4.33
671.595	4.33
672.005	4.32
672.414	4.32
672.824	4.32
673.233	4.33
673.642	4.32
674.052	4.33
674.461	4.33
674.87	4.34
675.279	4.36
675.688	4.38
676.097	4.39
676.506	4.41
676.915	4.43
677.323	4.45
677.732	4.47
678.141	4.49
678.549	4.51
678.958	4.54
679.366	4.58
679.775	4.6
680.183	4.63
680.592	4.69
681	4.74
681.408	4.79
681.816	4.85
682.224	4.91
682.632	4.99
683.04	5.07
683.448	5.16
683.856	5.25
684.264	5.36
684.671	5.48
685.079	5.6
685.487	5.75
685.894	5.92
686.302	6.09
686.709	6.29
687.116	6.5
687.524	6.73
687.931	6.97
688.338	7.25
688.745	7.54
689.152	7.82
689.559	8.15
689.966	8.47
690.373	8.8
690.78	9.16
691.187	9.52
691.593	9.89
692	10.28
692.407	10.67
692.813	11.07
693.22	11.45
693.626	11.86
694.032	12.26
694.439	12.67
694.845	13.09
695.251	13.5
695.657	13.91
696.063	14.32
696.469	14.72
696.875	15.14
697.281	15.54
697.687	15.95
698.093	16.36
698.498	16.75
698.904	17.16
699.31	17.53
699.715	17.93
700.12	18.31
700.526	18.69
700.931	19.05
701.337	19.41
701.742	19.76
702.147	20.1
702.552	20.44
702.957	20.76
703.362	21.08
703.767	21.38
704.172	21.68
704.577	21.98
704.981	22.27
705.386	22.57
705.791	22.85
706.195	23.14
706.6	23.43
707.004	23.71
707.408	23.98
707.813	24.26
708.217	24.55
708.621	24.83
709.025	25.08
709.43	25.34
709.834	25.59
710.237	25.84
710.641	26.08
711.045	26.31
711.449	26.55
711.853	26.79
712.256	27.01
712.66	27.22
713.064	27.42
713.467	27.64
713.87	27.85
714.274	28.05
714.677	28.27
715.08	28.45
715.484	28.65
715.887	28.84
716.29	28.99
716.693	29.2
717.096	29.38
717.499	29.55
717.901	29.75
718.304	29.92
718.707	30.1
719.109	30.25
719.512	30.43
719.915	30.59
720.317	30.72
720.719	30.86
721.122	30.98
721.524	31.12
721.926	31.27
722.328	31.39
722.731	31.52
723.133	31.63
723.535	31.75
723.937	31.86
724.338	31.98
724.74	32.1
725.142	32.29
725.544	32.39
725.945	32.5
726.347	32.58
726.748	32.68
727.15	32.76
727.551	32.86
727.952	32.94
728.354	33.03
728.755	33.1
729.156	33.17
729.557	33.18
729.958	33.25
730.359	33.3
730.76	33.36
731.161	33.42
731.562	33.48
731.962	33.53
732.363	33.62
732.763	33.67
733.164	33.73
733.564	33.8
733.965	33.85
734.365	33.91
734.766	33.96
735.166	34.01
735.566	34.05
735.966	34.1
736.366	34.13
736.766	34.15
737.166	34.21
737.566	34.23
737.966	34.26
738.365	34.3
738.765	34.36
739.165	34.38
739.564	34.43
739.964	34.45
740.363	34.47
740.763	34.53
741.162	34.56
741.561	34.56
741.96	34.57
742.36	34.61
742.759	34.63
743.158	34.64
743.557	34.65
743.955	34.67
744.354	34.71
744.753	34.75
745.152	34.75
745.55	34.77
745.949	34.81
746.348	34.84
746.746	34.84
747.144	34.87
747.543	34.89
747.941	34.93
748.339	34.93
748.737	34.94
749.136	34.95
749.534	34.94
749.932	34.94
750.33	34.95
750.727	34.94
751.125	34.95
751.523	34.93
751.921	34.92
752.318	34.91
752.716	34.92
753.113	34.93
753.511	34.96
753.908	34.98
754.305	35.01
754.703	34.99
755.1	35.02
755.497	35.04
755.894	35.03
756.291	35.02
756.688	35
757.085	34.98
757.482	34.97
757.878	34.93
758.275	34.89
758.672	34.88
759.068	34.87
759.465	34.85
759.861	34.84
760.258	34.85
760.654	34.87
761.05	34.9
761.447	34.91
761.843	34.9
762.239	34.91
762.635	34.92
763.031	34.93
763.427	34.93
763.822	34.94
764.218	34.95
764.614	34.97
765.01	34.95
765.405	34.95
765.801	34.95
766.196	34.96
766.592	34.96
766.987	34.97
767.382	34.96
767.778	34.97
768.173	34.98
768.568	34.96
768.963	34.95
769.358	34.99
769.753	34.98
770.148	34.96
770.542	34.97
770.937	34.98
771.332	34.98
771.726	35
772.121	35.01
772.515	35
772.91	35
773.304	35.02
773.699	34.99
774.093	34.99
774.487	35
774.881	35.01
775.275	35.01
775.669	34.98
776.063	34.98
776.457	34.97
776.851	34.97
777.245	34.95
777.638	34.93
778.032	34.94
778.425	34.97
778.819	34.98
779.212	34.99
779.606	34.98
779.999	34.99
780.392	35
780.786	35
781.179	35
781.572	35.02
781.965	35.04
782.358	35.02
782.751	35
783.143	34.99
783.536	34.97
783.929	34.97
784.322	34.98
784.714	34.97
785.107	34.98
785.499	34.98
785.891	34.98
786.284	34.96
786.676	34.98
787.068	34.97
787.46	34.96
787.852	34.97
788.245	34.97
788.636	34.97
789.028	34.96
789.42	34.96
789.812	34.97
790.204	34.97
790.595	34.97
790.987	34.97
791.378	34.98
791.77	34.99
792.161	34.96
792.553	34.97
792.944	34.95
793.335	34.96
793.726	34.95
794.117	34.93
794.508	34.92
794.899	34.9
795.29	34.9
795.681	34.89
796.072	34.87
796.463	34.89
796.853	34.89
797.244	34.9
797.634	34.9
798.025	34.91
798.415	34.93
798.806	34.92
799.196	34.94
799.586	34.94
799.976	34.95
800.366	34.96
800.756	34.96
801.146	34.97
801.536	34.96
801.926	34.95
802.316	34.93
802.706	34.93
803.095	34.94
803.485	34.93
803.874	34.9
804.264	34.89
804.653	34.91
805.043	34.92
805.432	34.92
805.821	34.92
806.21	34.93
806.599	34.93
806.988	34.93
807.377	34.92
807.766	34.92
808.155	34.9
808.544	34.91
808.933	34.89
809.321	34.87
809.71	34.89
810.098	34.88
810.487	34.86
810.875	34.84
811.264	34.83
811.652	34.85
812.04	34.83
812.428	34.86
812.816	34.86
813.204	34.86
813.592	34.84
813.98	34.84
814.368	34.86
814.756	34.86
815.144	34.87
815.531	34.87
815.919	34.86
816.306	34.88
816.694	34.87
817.081	34.88
817.469	34.87
817.856	34.89
818.243	34.88
818.63	34.88
819.017	34.86
819.404	34.85
819.791	34.86
820.178	34.86
820.565	34.83
820.952	34.84
821.339	34.85
821.725	34.83
822.112	34.84
822.498	34.86
822.885	34.86
823.271	34.88
823.657	34.86
824.044	34.86
824.43	34.88
824.816	34.9
825.202	34.88
825.588	34.83
825.974	34.83
826.36	34.8
826.746	34.79
827.132	34.79
827.517	34.8
827.903	34.82
828.289	34.84
828.674	34.83
829.06	34.82
829.445	34.83
829.83	34.83
830.216	34.83
830.601	34.84
830.986	34.85
831.371	34.84
831.756	34.85
832.141	34.85
832.526	34.84
832.911	34.85
833.295	34.86
833.68	34.88
834.065	34.91
834.449	34.92
834.834	34.92
835.218	34.91
835.603	34.91
835.987	34.91
836.371	34.88
836.755	34.87
837.139	34.84
837.524	34.82
837.908	34.83
838.291	34.83
838.675	34.83
839.059	34.82
839.443	34.81
839.827	34.82
840.21	34.81
840.594	34.83
840.977	34.83
841.361	34.86
841.744	34.85
842.127	34.83
842.511	34.82
842.894	34.81
843.277	34.8
843.66	34.78
844.043	34.77
844.426	34.78
844.809	34.78
845.191	34.8
845.574	34.79
845.957	34.81
846.339	34.82
846.722	34.81
847.104	34.83
847.487	34.84
847.869	34.86
848.252	34.87
848.634	34.87
849.016	34.86
849.398	34.87
849.78	34.87
850.162	34.86
850.544	34.85
850.926	34.89
851.307	34.89
851.689	34.87
852.071	34.88
852.452	34.87
852.834	34.87
853.215	34.89
853.597	34.9
853.978	34.91
854.359	34.9
854.741	34.91
855.122	34.89
855.503	34.88
855.884	34.88
856.265	34.88
856.646	34.88
857.026	34.88
857.407	34.86
857.788	34.83
858.169	34.83
858.549	34.84
858.93	34.85
859.31	34.83
859.69	34.84
860.071	34.86
860.451	34.87
860.831	34.87
861.211	34.86
861.591	34.88
861.971	34.88
862.351	34.89
862.731	34.88
863.111	34.86
863.491	34.88
863.87	34.87
864.25	34.84
864.629	34.84
865.009	34.85
865.388	34.84
865.768	34.82
866.147	34.83
866.526	34.83
866.905	34.84
867.284	34.86
867.663	34.86
868.042	34.88
868.421	34.9
868.8	34.9
869.179	34.89
869.558	34.9
869.936	34.91
870.315	34.92
870.693	34.91
871.072	34.93
871.45	34.93
871.828	34.93
872.207	34.92
872.585	34.89
872.963	34.91
873.341	34.92
873.719	34.91
874.097	34.91
874.475	34.91
874.853	34.91
875.23	34.91
875.608	34.91
875.986	34.92
876.363	34.93
876.741	34.95
877.118	34.94
877.495	34.95
877.873	34.96
878.25	34.98
878.627	35
879.004	35
879.381	35
879.758	35.01
880.135	34.99
880.512	34.97
880.889	34.97
881.265	34.97
881.642	34.96
882.019	34.96
882.395	34.94
882.772	34.91
883.148	34.9
883.524	34.9
883.901	34.9
884.277	34.89
884.653	34.89
885.029	34.87
885.405	34.85
885.781	34.85
886.157	34.86
886.532	34.86
886.908	34.86
887.284	34.87
887.659	34.84
888.035	34.83
888.411	34.83
888.786	34.86
889.161	34.88
889.537	34.89
889.912	34.89
890.287	34.88
890.662	34.87
891.037	34.88
891.412	34.86
891.787	34.87
892.162	34.89
892.536	34.88
892.911	34.86
893.286	34.85
893.66	34.86
894.035	34.88
894.409	34.87
894.784	34.88
895.158	34.88
895.532	34.9
895.906	34.91
896.281	34.89
896.655	34.9
897.029	34.9
897.402	34.9
897.776	34.89
898.15	34.87
898.524	34.89
898.898	34.88
899.271	34.88
899.645	34.87
900.018	34.86
900.392	34.87
900.765	34.87
901.138	34.86
901.511	34.86
901.884	34.86
902.258	34.87
902.631	34.87
903.003	34.9
903.376	34.89
903.749	34.87
904.122	34.89
904.495	34.9
904.867	34.9
905.24	34.93
905.612	34.96
905.985	34.95
906.357	34.96
906.729	34.97
907.102	34.94
907.474	34.97
907.846	34.96
908.218	34.94
908.59	34.92
908.962	34.93
909.334	34.9
909.705	34.9
910.077	34.9
910.449	34.87
910.82	34.87
911.192	34.87
911.563	34.84
911.935	34.86
912.306	34.86
912.677	34.86
913.048	34.85
913.419	34.84
913.79	34.82
914.161	34.83
914.532	34.83
914.903	34.82
915.274	34.8
915.645	34.81
916.015	34.81
916.386	34.8
916.756	34.81
917.127	34.81
917.497	34.82
917.868	34.82
918.238	34.81
918.608	34.84
918.978	34.83
919.348	34.86
919.718	34.85
920.088	34.84
920.458	34.85
920.828	34.84
921.198	34.81
921.567	34.83
921.937	34.82
922.306	34.78
922.676	34.75
923.045	34.75
923.415	34.69
923.784	34.68
924.153	34.69
924.522	34.71
924.891	34.7
925.26	34.7
925.629	34.7
925.998	34.69
926.367	34.7
926.736	34.7
927.104	34.71
927.473	34.74
927.842	34.73
928.21	34.74
928.578	34.71
928.947	34.72
929.315	34.7
929.683	34.68
930.051	34.67
930.42	34.7
930.788	34.67
931.156	34.68
931.523	34.67
931.891	34.7
932.259	34.69
932.627	34.69
932.994	34.64
933.362	34.67
933.729	34.7
934.097	34.72
934.464	34.73
934.831	34.76
935.199	34.72
935.566	34.74
935.933	34.77
936.3	34.79
936.667	34.77
937.034	34.85
937.401	34.85
937.767	34.84
938.134	34.84
938.501	34.8
938.867	34.83
939.234	34.86
939.6	34.87
939.967	34.84
940.333	34.78
940.699	34.79
941.065	34.71
941.431	34.71
941.798	34.71
942.163	34.7
942.529	34.69
942.895	34.67
943.261	34.61
943.627	34.55
943.992	34.48
944.358	34.52
944.723	34.55
945.089	34.55
945.454	34.56
945.82	34.54
946.185	34.55
946.55	34.57
946.915	34.54
947.28	34.56
947.645	34.56
948.01	34.57
948.375	34.53
948.74	34.51
949.104	34.52
949.469	34.52
949.834	34.47
950.198	34.43
950.562	34.39
950.927	34.37
951.291	34.31
951.655	34.26
952.02	34.23
952.384	34.2
952.748	34.17
953.112	34.15
953.476	34.06
953.839	34.03
954.203	34
954.567	34.02
954.931	33.98
955.294	34.02
955.658	34.1
956.021	34.08
956.385	34.06
956.748	34.04
957.111	34
957.474	34.05
957.837	34.02
958.2	34.01
958.563	33.99
958.926	34.04
959.289	34.04
959.652	33.95
960.015	33.95
960.377	33.93
960.74	33.94
961.102	33.96
961.465	33.96
961.827	34.02
962.189	34.05
962.552	34
962.914	33.98
963.276	33.98
963.638	33.96
964	33.99
964.362	33.98
964.724	33.98
965.085	33.94
965.447	33.94
965.809	33.93
966.17	33.9
966.532	33.91
966.893	33.9
967.255	33.9
967.616	33.94
967.977	33.95
968.338	34
968.699	34
969.061	34.05
969.421	34.03
969.782	34.05
970.143	34.03
970.504	34.06
970.865	34.08
971.225	34.06
971.586	34.08
971.946	34.07
972.307	34.02
972.667	33.96
973.027	33.9
973.388	33.87
973.748	33.82
974.108	33.9
974.468	33.85
974.828	33.86
975.188	33.83
975.548	33.79
975.907	33.79
976.267	33.84
976.627	33.86
976.986	33.88
977.346	33.87
977.705	33.89
978.064	33.88
978.424	33.95
978.783	33.87
979.142	33.91
979.501	33.91
979.86	33.93
980.219	33.87
980.578	33.95
980.937	33.96
981.296	34.01
981.654	34.04
982.013	34.06
982.371	34.01
982.73	34.06
983.088	34.02
983.447	34.06
983.805	34
984.163	34.03
984.521	33.97
984.879	33.94
985.237	33.92
985.595	33.95
985.953	33.88
986.311	33.83
986.669	33.79
987.026	33.85
987.384	33.84
987.741	33.84
988.099	33.9
988.456	33.87
988.814	33.96
989.171	33.99
989.528	33.99
989.885	33.99
990.242	34.03
990.599	34.04
990.956	34.05
991.313	34.02
991.67	34.05
992.027	34.07
992.383	34.14
992.74	34.16
993.096	34.04
993.453	34.07
993.809	34.1
994.165	34.19
994.522	34.16
994.878	34.18
995.234	34.18
995.59	34.16
995.946	34.13
996.302	34.15
996.658	34.13
997.013	34.23
997.369	34.19
997.725	34.12
998.08	34.11
998.436	34.2
998.791	34.19
999.147	34.25
999.502	34.34
999.857	34.32
1000.212	34.18
1000.567	34.21
1000.922	34.14
1001.277	34.13
1001.632	34.12
1001.987	34.06
1002.342	33.9
1002.696	33.84
1003.051	33.92
1003.406	33.96
1003.76	33.94
1004.114	34.04
1004.469	34
1004.823	34.19
1005.177	34.14
1005.531	34.24
1005.885	34.29
1006.239	34.4
1006.593	34.54
1006.947	34.47
1007.301	34.3
1007.655	34.31
1008.008	34.31
1008.362	34.27
1008.715	34.17
1009.069	34.36
1009.422	34.38
1009.776	34.35
1010.129	34.41
1010.482	34.22
1010.835	34.17
1011.188	34.18
1011.541	34.22
1011.894	34.33
1012.247	34.44
1012.6	34.41
1012.952	34.28
1013.305	34.38
1013.657	34.49
1014.01	34.46
1014.362	34.51
1014.715	34.64
1015.067	34.74
1015.419	34.84
1015.771	34.76
1016.123	34.73
1016.475	34.73
1016.827	34.82
1017.179	34.82
1017.531	34.75
1017.883	34.81
1018.234	34.85
1018.586	34.82
1018.938	34.93
1019.289	34.7
1019.64	34.71
1019.992	34.77
1020.343	34.87
1020.694	34.91
1021.045	34.72
1021.396	34.69
1021.747	34.8
1022.098	34.84
1022.449	34.75
1022.8	34.55
1023.151	34.56
1023.501	34.58
1023.852	34.44
1024.202	34.27
1024.553	34.07
1024.903	34.16
1025.253	34.28
1025.604	34.33
1025.954	34.27
1026.304	34.49
1026.654	34.59
1027.004	34.81
1027.354	34.8
1027.703	34.9
1028.053	35
1028.403	34.93
1028.753	34.69
1029.102	34.67
1029.452	34.46
1029.801	34.55
1030.15	34.38
1030.499	34.29
897.758	1008.02
901.051	1018.77
904.343	1014.95
907.636	1028.87
910.928	1004.07
914.22	1005.96
917.511	994.39
920.803	951
924.094	943.25
927.384	920.32
930.675	884.08
933.965	881.75
937.255	828.08
940.544	795.44
943.834	761.1
947.123	753.91
950.411	708.62
953.7	692.81
956.988	659.29
960.276	631.37
963.563	620.97
966.851	600.27
970.138	594.32
973.424	575.72
976.711	578.54
979.997	548.75
983.283	545.14
986.568	533.81
989.853	518.32
993.138	505.92
996.423	488.89
999.708	475.44
1002.992	469.52
1006.275	448.28
1009.559	445.11
1012.842	428.84
1016.125	418.63
1019.408	410.11
1022.69	404.23
1025.972	394.61
1029.254	386.09
1032.536	379.88
1035.817	371.77
1039.098	367.01
1042.379	360.04
1045.659	355.14
1048.939	345.58
1052.219	339.33
1055.498	333.86
1058.778	326.36
1062.057	320.33
1065.335	316.25
1068.614	312.43
1071.892	308.25
1075.17	299.97
1078.447	293.89
1081.724	291.26
1085.001	290.16
1088.278	283.78
1091.554	278.19
1094.83	277.76
1098.106	275.41
1101.382	273.82
1104.657	271.8
1107.932	267.6
1111.206	268.28
1114.481	262.25
1117.755	260.08
1121.029	257.69
1124.302	256.71
1127.575	252.43
1130.848	249.57
1134.121	247.3
1137.393	245.42
1140.665	240.04
1143.937	238.78
1147.208	237.18
1150.48	236.44
1153.75	233.88
1157.021	230.45
1160.291	230.37
1163.561	228.23
1166.831	228.3
1170.101	225.79
1173.37	226
1176.639	226.74
1179.907	224.81
1183.176	221.92
1186.444	222.22
1189.711	221.12
1192.979	221.39
1196.246	219.58
1199.513	220.92
1202.78	218.81
1206.046	218.7
1209.312	216.33
1212.578	216.32
1215.843	217.66
1219.108	216.9
1222.373	220.3
1225.638	221.83
1228.902	223.3
1232.166	225.08
1235.43	226.18
1238.693	230.14
1241.956	231.29
1245.219	234.62
1248.482	234.49
1251.744	234.57
1255.006	235.14
1258.268	229.76
1261.529	228.28
1264.79	227.2
1268.051	224.93
1271.312	221.66
1274.572	219.06
1277.832	217.67
1281.092	214.03
1284.351	212.9
1287.61	212.84
1290.869	209.93
1294.128	208.82
1297.386	208.52
1300.644	206.5
1303.902	206.97
1307.159	205.93
1310.416	205.66
1313.673	204.67
1316.93	207.33
1320.186	207.13
1323.442	207.67
1326.697	210.37
1329.953	210.77
1333.208	211.57
1336.463	214.15
1339.717	214.5
1342.972	217.52
1346.226	219.15
1349.479	220.17
1352.733	220.37
1355.986	222.2
1359.238	222.18
1362.491	222.86
1365.743	225.45
1368.995	225.09
1372.247	224.95
1375.498	224.54
1378.749	226.77
1382	224.23
1385.251	224.57
1388.501	223.41
1391.751	223.22
1395	222.65
1398.25	221.36
1401.499	219.68
1404.748	219.34
1407.996	218.08
1411.244	217.41
1414.492	215.32
1417.74	213.46
1420.987	210.47
1424.234	209.57
1427.481	206.92
1430.728	206.69
1433.974	205.21
1437.22	203.04
1440.465	202.83
1443.711	200.08
1446.956	198.27
1450.201	196.1
1453.445	194.51
1456.689	193.96
1459.933	190.8
1463.177	189.37
1466.42	186.06
1469.663	183.45
1472.906	182.22
1476.148	178.38
1479.391	175.55
1482.633	174.61
1485.874	172.06
1489.115	170.38
1492.356	169.02
1495.597	168.13
1498.838	166.02
1502.078	164.94
1505.318	164.59
1508.557	164.35
1511.797	163.69
1515.036	163.22
1518.274	161.86
1521.513	160.79
1524.751	160.68
1527.989	159.62
1531.227	159.55
1534.464	158.88
1537.701	157.96
1540.938	157.5
1544.174	156.26
1547.41	155.84
1550.646	154.96
1553.882	155.48
1557.117	153.35
1560.352	152.67
1563.587	152.02
1566.821	151.08
1570.055	150.41
1573.289	149.1
1576.523	148.77
1579.756	147.12
1582.989	146.56
1586.222	146.31
1589.454	145.37
1592.686	146.99
1595.918	146.05
1599.15	145.68
1602.381	146.08
1605.612	145.58
1608.843	146.23
1612.073	146.08
1615.303	147.07
1618.533	147.01
1621.762	147.2
1624.992	147.44
1628.221	146.3
1631.449	146.32
1634.678	146.32
1637.906	146.67
1641.134	146.86
1644.361	146.66
1647.588	146.41
1650.815	145.96
1654.042	145.33
1657.269	145.86
1660.495	145.82
1663.72	145.71
1666.946	146.71
1670.171	146.84
1673.396	146.68
1676.621	146.89
1679.845	146.88
1683.069	147.42
1686.293	148.31
1689.517	149.25
1692.74	149.5
1695.963	149.83
1699.185	150.99
1702.408	150.62
1705.63	151.45
1708.852	151.8
1712.073	151.36
1715.294	152.1
1718.515	152.95
1721.736	152.79
1724.956	153.19
1728.176	153.26
1731.396	153.99
1734.616	153.9
1737.835	154.77
1741.054	152.61
1744.272	153.64
1747.491	155.47
1750.709	155.67
1753.927	155.68
1757.144	155.25
1760.361	155.85
1763.578	156.2
1766.795	156.21
1770.011	157.22
1773.227	156.88
1776.443	159.65
1779.658	159.32
1782.874	159.33
1786.089	159.68
1789.303	160.01
1792.518	162.09
1795.732	161.91
1798.945	162.89
1802.159	163.31
1805.372	164.06
1808.585	166.53
1811.797	167.23
1815.01	167.66
1818.222	168.76
1821.434	170.49
1824.645	170.96
1827.856	173.35
1831.067	174.67
1834.278	174.85
1837.488	176.15
1840.698	177.05
1843.908	175.79
1847.117	176.2
1850.326	177.35
1853.535	176.58
1856.744	179.15
1859.952	179.03
1863.16	177.65
1866.368	176.61
1869.575	177.88
1872.782	175.79
1875.989	174.77
1879.196	174.45
1882.402	173.76
1885.608	174.43
1888.814	175.03
1892.019	173.39
1895.224	173.4
1898.429	173.42
1901.634	174.23
1904.838	174.54
1908.042	176.77
1911.246	176.66
1914.449	177.81
1917.652	177.48
1920.855	177.32
1924.058	177.34
1927.26	177.47
1930.462	177.55
1933.664	179.25
1936.865	178.22
1940.066	177.96
1943.267	175.77
1946.467	176.59
1949.668	177.66
1952.868	179.86
1956.067	179.82
1959.267	180.17
1962.466	180.44
1965.665	179.99
1968.863	180.35
1972.061	183.23
1975.259	184.14
1978.457	186.22
1981.654	187.68
1984.852	188.06
1988.048	187.87
1991.245	189.17
1994.441	190.96
1997.637	192.51
2000.833	196.16
2004.028	198.47
2007.223	198.8
2010.418	201.31
2013.613	205.52
2016.807	208.46
2020.001	209.21
2023.194	212.57
2026.388	217.26
2029.581	221.68
2032.774	223.86
2035.966	227.02
2039.158	227.53
2042.35	232.41
2045.542	234.14
2048.733	235.43
2051.924	238.72
2055.115	243.92
2058.306	244.06
2061.496	246.69
2064.686	247.45
2067.875	250.74
2071.065	253.46
2074.254	252.13
2077.442	254.67
2080.631	255.67
2083.819	259.08
2087.007	258.82
2090.195	261.4
2093.382	263.57
2096.569	262.22
2099.756	266.78
2102.942	268.42
2106.128	270.26
2109.314	275.83
2112.5	275.22
2115.685	281.46
2118.87	282.04
2122.055	288.65
2125.239	289.71
2128.424	294.48
2131.608	295.4
2134.791	299.51
2137.974	300.75
2141.157	301.36
2144.34	302.97
2147.523	306.75
2150.705	304.72
2153.887	307.53
2157.068	307.37
2160.25	305.17
2163.431	306.18
2166.611	311.18
2169.792	315.08
2172.972	318.78
2176.152	322.42
2179.331	326.11
2182.511	331.77
2185.69	334.82
2188.868	341.75
2192.047	342
2195.225	352.78
2198.403	361.69
2201.58	367.69
2204.758	374.58
2207.935	382.42
2211.111	387.11
2214.288	392.94
2217.464	394
2220.64	401.07
2223.815	406.01
2226.991	422.33
2230.166	422.45
2233.34	427.17
2236.515	435.59
2239.689	435.29
2242.863	437.78
2246.036	450.89
2249.209	447.8
2252.382	455.11
2255.555	468.08
2258.727	469.86
2261.9	474.07
2265.071	479.73
2268.243	488.94
2271.414	493.96
2274.585	505.32
2277.756	510.77
2280.926	513.83
2284.096	526.24
2287.266	536.58
2290.436	540.45
2293.605	553.45
2296.774	568.61
2299.942	583.96
2303.111	590.47
2306.279	601.26
2309.447	609.5
2312.614	626.14
2315.781	644.82
2318.948	670.6
2322.115	663.03
2325.281	701.67
2328.447	685.75
2331.613	711.11
2334.779	706.17
2337.944	732.91
2341.109	741.22
2344.274	765.58
2347.438	785.74
2350.602	784.28
2353.766	811.97
2356.929	824.86
2360.092	816.45
2363.255	875.38
2366.418	876.28
2369.58	891.49
2372.742	946.68
2375.904	973.07
2379.066	966.15
2382.227	950.79
2385.388	1032.78
2388.548	1033.99
2391.709	1044.6
2394.869	1163.39
2398.029	1114.9
2401.188	1145.53
2404.347	1142.17
2407.506	1122.16
2410.665	1150.49
2413.823	1220.96
2416.981	1295.31
2420.139	1255.65
2423.296	1241.57
2426.453	1296.37
2429.61	1249.85
2432.767	1307.06
2435.923	1293.92
2439.079	1408.15
2442.235	1427.35
2445.391	1418.11
2448.546	1406.29
2451.701	1365.29
2454.855	1360.48
2458.009	1437.77
2461.163	1502.89
2464.317	1554.04
2467.471	1594.38
2470.624	1596.88
2473.777	1562.15
2476.929	1524.61
2480.082	1477
2483.234	1457.76
2486.385	1536.01
2489.537	1542.2
2492.688	1599.47
2495.839	1552
2498.989	1520.76
2502.14	1526.05
2505.29	1536.48
2508.439	1562.86
2511.589	1559.28
2514.738	1704.63
2517.887	1667.39
2521.035	1752.81
2524.183	1769.7
2527.331	1785.92
2530.479	1775.33
2533.627	1784.4
