Data from C_1_DEC_OH_4N_Splice17_12-43-33-760.txt Node
Date: Sat Mar 07 12:43:33 EST 2020
User: sa697716
Spectrometer: NQ5500242
Trigger mode: 0
Integration Time (sec): 1.450000E-1
Scans to average: 20
Nonlinearity correction enabled: false
Boxcar width: 5
Storing dark spectrum: false
XAxis mode: Wavelengths
Number of Pixels in Spectrum: 512
>>>>>Begin Spectral Data<<<<<
187.83	88.04
188.298	96.88
188.766	71.55
189.233	91.46
189.701	92.58
190.169	109.12
190.636	82.8
191.104	-15.86
191.571	-300.41
192.039	-11.9
192.506	110.15
192.974	89.01
193.441	105.22
193.908	26.81
194.375	112.91
194.842	85.3
195.31	99.61
195.777	-40.48
196.244	17.88
196.711	34.42
197.177	37.78
197.644	38.36
198.111	38.57
198.578	38.91
199.045	39.08
199.511	39.02
199.978	39.09
200.445	39.26
200.911	39.62
201.378	40.05
201.844	39.89
202.31	39.84
202.777	40.27
203.243	40.05
203.709	39.85
204.176	39.5
204.642	39.35
205.108	39.46
205.574	39.56
206.04	39.49
206.506	39.39
206.972	39.65
207.438	39.49
207.903	38.85
208.369	38.71
208.835	38.76
209.301	38.27
209.766	37.71
210.232	36.93
210.697	36.55
211.163	35.92
211.628	35.39
212.094	34.63
212.559	34.22
213.024	33.8
213.49	33.38
213.955	32.66
214.42	32.48
214.885	32.07
215.35	31.67
215.815	30.57
216.28	29.55
216.745	28.23
217.21	27.09
217.675	25.94
218.14	25.09
218.604	24.27
219.069	23.62
219.534	22.91
219.998	22.45
220.463	22.09
220.927	21.67
221.392	21.35
221.856	21.1
222.32	20.89
222.785	20.71
223.249	20.49
223.713	20.25
224.177	20.07
224.642	19.89
225.106	19.65
225.57	19.39
226.034	19.21
226.497	18.99
226.961	18.8
227.425	18.58
227.889	18.36
228.353	18.13
228.816	17.94
229.28	17.74
229.744	17.57
230.207	17.38
230.671	17.21
231.134	17.04
231.597	16.88
232.061	16.7
232.524	16.54
232.987	16.39
233.45	16.24
233.914	16.08
234.377	15.92
234.84	15.73
235.303	15.6
235.766	15.44
236.229	15.29
236.691	15.14
237.154	15
237.617	14.86
238.08	14.72
238.542	14.57
239.005	14.45
239.468	14.31
239.93	14.2
240.393	14.08
240.855	13.95
241.317	13.82
241.78	13.69
242.242	13.55
242.704	13.43
243.166	13.31
243.629	13.2
244.091	13.08
244.553	12.96
245.015	12.86
245.477	12.74
245.939	12.65
246.4	12.56
246.862	12.47
247.324	12.38
247.786	12.28
248.247	12.19
248.709	12.09
249.17	12
249.632	11.92
250.093	11.83
250.555	11.75
251.016	11.67
251.477	11.59
251.939	11.52
252.4	11.45
252.861	11.39
253.322	11.32
253.783	11.26
254.244	11.21
254.705	11.15
255.166	11.09
255.627	11.03
256.088	10.97
256.549	10.92
257.009	10.86
257.47	10.81
257.931	10.74
258.391	10.68
258.852	10.63
259.312	10.57
259.773	10.51
260.233	10.47
260.694	10.42
261.154	10.36
261.614	10.31
262.074	10.26
262.534	10.22
262.994	10.18
263.455	10.14
263.915	10.11
264.374	10.08
264.834	10.06
265.294	10.03
265.754	10
266.214	9.98
266.673	9.96
267.133	9.94
267.593	9.92
268.052	9.91
268.512	9.9
268.971	9.88
269.431	9.86
269.89	9.83
270.349	9.81
270.809	9.79
271.268	9.77
271.727	9.75
272.186	9.72
272.645	9.69
273.104	9.66
273.563	9.63
274.022	9.61
274.481	9.59
274.94	9.56
275.399	9.54
275.857	9.51
276.316	9.49
276.775	9.47
277.233	9.45
277.692	9.43
278.15	9.4
278.609	9.38
279.067	9.35
279.525	9.32
279.984	9.29
280.442	9.26
280.9	9.23
281.358	9.2
281.816	9.18
282.274	9.15
282.732	9.11
283.19	9.08
283.648	9.05
284.106	9.02
284.564	8.99
285.021	8.96
285.479	8.94
285.937	8.91
286.394	8.88
286.852	8.84
287.309	8.8
287.767	8.78
288.224	8.74
288.682	8.71
289.139	8.67
289.596	8.64
290.053	8.6
290.511	8.56
290.968	8.53
291.425	8.5
291.882	8.48
292.339	8.46
292.796	8.44
293.252	8.42
293.709	8.4
294.166	8.38
294.623	8.36
295.079	8.35
295.536	8.32
295.992	8.3
296.449	8.28
296.905	8.26
297.362	8.24
297.818	8.22
298.274	8.21
298.731	8.19
299.187	8.17
299.643	8.14
300.099	8.13
300.555	8.11
301.011	8.1
301.467	8.08
301.923	8.05
302.379	8.03
302.835	8.01
303.291	7.98
303.746	7.97
304.202	7.95
304.658	7.94
305.113	7.92
305.569	7.9
306.024	7.88
306.479	7.85
306.935	7.84
307.39	7.82
307.845	7.8
308.301	7.79
308.756	7.77
309.211	7.76
309.666	7.75
310.121	7.72
310.576	7.71
311.031	7.7
311.486	7.7
311.94	7.69
312.395	7.67
312.85	7.66
313.305	7.64
313.759	7.63
314.214	7.61
314.668	7.59
315.123	7.57
315.577	7.55
316.032	7.54
316.486	7.51
316.94	7.48
317.394	7.46
317.849	7.44
318.303	7.42
318.757	7.39
319.211	7.38
319.665	7.36
320.119	7.34
320.572	7.31
321.026	7.29
321.48	7.27
321.934	7.25
322.387	7.24
322.841	7.22
323.295	7.2
323.748	7.18
324.202	7.16
324.655	7.14
325.108	7.12
325.562	7.12
326.015	7.1
326.468	7.08
326.921	7.08
327.374	7.06
327.827	7.04
328.28	7.02
328.733	7.02
329.186	7
329.639	7
330.092	6.99
330.545	6.97
330.997	6.96
331.45	6.95
331.903	6.95
332.355	6.94
332.808	6.94
333.26	6.93
333.713	6.91
334.165	6.9
334.617	6.89
335.069	6.87
335.522	6.86
335.974	6.85
336.426	6.84
336.878	6.82
337.33	6.8
337.782	6.79
338.234	6.78
338.686	6.77
339.137	6.77
339.589	6.74
340.041	6.73
340.493	6.71
340.944	6.69
341.396	6.68
341.847	6.67
342.299	6.64
342.75	6.61
343.201	6.59
343.653	6.58
344.104	6.56
344.555	6.55
345.006	6.53
345.457	6.52
345.908	6.51
346.359	6.5
346.81	6.48
347.261	6.47
347.712	6.47
348.163	6.46
348.613	6.45
349.064	6.44
349.515	6.44
349.965	6.43
350.416	6.41
350.866	6.4
351.317	6.39
351.767	6.37
352.217	6.36
352.668	6.34
353.118	6.35
353.568	6.34
354.018	6.34
354.468	6.32
354.918	6.32
355.368	6.32
355.818	6.32
356.268	6.31
356.718	6.32
357.168	6.31
357.617	6.32
358.067	6.31
358.517	6.31
358.966	6.31
359.416	6.31
359.865	6.31
360.315	6.3
360.764	6.3
361.213	6.29
361.663	6.28
362.112	6.28
362.561	6.28
363.01	6.27
363.459	6.24
363.908	6.23
364.357	6.23
364.806	6.21
365.255	6.2
365.703	6.21
366.152	6.21
366.601	6.2
367.05	6.19
367.498	6.17
367.947	6.17
368.395	6.17
368.844	6.17
369.292	6.15
369.74	6.15
370.189	6.14
370.637	6.13
371.085	6.1
371.533	6.1
371.981	6.09
372.429	6.08
372.877	6.08
373.325	6.07
373.773	6.07
374.221	6.07
374.669	6.06
375.116	6.05
375.564	6.05
376.012	6.05
376.459	6.04
376.907	6.04
377.354	6.03
377.801	6.03
378.249	6.02
378.696	6.01
379.143	6
379.591	6
380.038	6
380.485	5.99
380.932	5.99
381.379	5.98
381.826	5.98
382.273	5.98
382.72	5.96
383.166	5.96
383.613	5.96
384.06	5.94
384.506	5.93
384.953	5.93
385.4	5.93
385.846	5.92
386.292	5.91
386.739	5.91
387.185	5.9
387.631	5.9
388.078	5.89
388.524	5.88
388.97	5.88
389.416	5.89
389.862	5.88
390.308	5.89
390.754	5.9
391.2	5.91
391.645	5.91
392.091	5.91
392.537	5.92
392.983	5.92
393.428	5.93
393.874	5.95
394.319	5.95
394.765	5.96
395.21	5.95
395.655	5.95
396.101	5.96
396.546	5.96
396.991	5.97
397.436	5.97
397.881	5.99
398.326	6
398.771	5.99
399.216	6
399.661	6.01
400.106	6.02
400.551	6.02
400.995	6.01
401.44	6.02
401.885	6.03
402.329	6.04
402.774	6.05
403.218	6.06
403.663	6.07
404.107	6.07
404.551	6.07
404.995	6.08
405.44	6.08
405.884	6.1
406.328	6.11
406.772	6.1
407.216	6.11
407.66	6.11
408.104	6.1
408.547	6.1
408.991	6.11
409.435	6.11
409.879	6.12
410.322	6.13
410.766	6.13
411.209	6.14
411.653	6.16
412.096	6.17
412.54	6.17
412.983	6.18
413.426	6.21
413.869	6.22
414.312	6.24
414.756	6.23
415.199	6.24
415.642	6.24
416.085	6.24
416.527	6.22
416.97	6.21
417.413	6.21
417.856	6.19
418.298	6.18
418.741	6.17
419.184	6.17
419.626	6.17
420.069	6.18
420.511	6.17
420.953	6.17
421.396	6.18
421.838	6.19
422.28	6.2
422.722	6.22
423.164	6.22
423.606	6.24
424.048	6.24
424.49	6.24
424.932	6.23
425.374	6.22
425.816	6.19
426.258	6.18
426.699	6.18
427.141	6.17
427.582	6.17
428.024	6.17
428.465	6.17
428.907	6.16
429.348	6.14
429.789	6.15
430.231	6.17
430.672	6.19
431.113	6.2
431.554	6.2
431.995	6.22
432.436	6.21
432.877	6.22
433.318	6.22
433.759	6.25
434.2	6.28
434.64	6.29
435.081	6.29
435.522	6.29
435.962	6.31
436.403	6.33
436.843	6.34
437.284	6.35
437.724	6.35
438.164	6.33
438.604	6.32
439.045	6.3
439.485	6.3
439.925	6.29
440.365	6.31
440.805	6.29
441.245	6.31
441.685	6.31
442.125	6.34
442.564	6.33
443.004	6.34
443.444	6.34
443.883	6.36
444.323	6.36
444.762	6.36
445.202	6.35
445.641	6.36
446.081	6.35
446.52	6.33
446.959	6.32
447.398	6.32
447.837	6.33
448.276	6.33
448.716	6.33
449.154	6.35
449.593	6.36
450.032	6.35
450.471	6.35
450.91	6.34
451.349	6.34
451.787	6.34
452.226	6.33
452.664	6.33
453.103	6.31
453.541	6.3
453.98	6.3
454.418	6.29
454.856	6.28
455.295	6.26
455.733	6.24
456.171	6.24
456.609	6.24
457.047	6.23
457.485	6.23
457.923	6.23
458.361	6.23
458.798	6.22
459.236	6.23
459.674	6.23
460.111	6.23
460.549	6.25
460.987	6.26
461.424	6.28
461.862	6.29
462.299	6.31
462.736	6.3
463.173	6.31
463.611	6.31
464.048	6.3
464.485	6.32
464.922	6.32
465.359	6.31
465.796	6.31
466.233	6.3
466.67	6.29
467.106	6.29
467.543	6.29
467.98	6.29
468.416	6.29
468.853	6.3
469.29	6.29
469.726	6.3
470.162	6.3
470.599	6.29
471.035	6.28
471.471	6.28
471.907	6.28
472.344	6.27
472.78	6.28
473.216	6.26
473.652	6.25
474.088	6.23
474.523	6.23
474.959	6.23
475.395	6.22
475.831	6.22
476.266	6.22
476.702	6.21
477.138	6.21
477.573	6.19
478.008	6.19
478.444	6.2
478.879	6.2
479.314	6.19
479.75	6.17
480.185	6.16
480.62	6.15
481.055	6.12
481.49	6.12
481.925	6.11
482.36	6.11
482.795	6.1
483.229	6.08
483.664	6.09
484.099	6.09
484.534	6.09
484.968	6.1
485.403	6.1
485.837	6.11
486.271	6.12
486.706	6.12
487.14	6.12
487.574	6.13
488.009	6.15
488.443	6.15
488.877	6.17
489.311	6.19
489.745	6.21
490.179	6.23
490.613	6.25
491.046	6.27
491.48	6.31
491.914	6.33
492.348	6.37
492.781	6.39
493.215	6.42
493.648	6.45
494.082	6.48
494.515	6.51
494.948	6.55
495.382	6.59
495.815	6.64
496.248	6.68
496.681	6.74
497.114	6.79
497.547	6.85
497.98	6.91
498.413	6.97
498.846	7.04
499.279	7.11
499.711	7.18
500.144	7.27
500.577	7.35
501.009	7.44
501.442	7.53
501.874	7.64
502.306	7.73
502.739	7.84
503.171	7.95
503.603	8.07
504.036	8.21
504.468	8.34
504.9	8.47
505.332	8.61
505.764	8.77
506.196	8.92
506.627	9.08
507.059	9.27
507.491	9.45
507.923	9.64
508.354	9.85
508.786	10.05
509.217	10.27
509.649	10.49
510.08	10.71
510.512	10.95
510.943	11.19
511.374	11.43
511.805	11.68
512.237	11.94
512.668	12.2
513.099	12.46
513.53	12.73
513.961	13.01
514.391	13.3
514.822	13.61
515.253	13.89
515.684	14.19
516.114	14.5
516.545	14.79
516.975	15.11
517.406	15.43
517.836	15.74
518.267	16.07
518.697	16.37
519.127	16.67
519.558	16.97
519.988	17.29
520.418	17.58
520.848	17.89
521.278	18.18
521.708	18.59
522.138	18.88
522.567	19.17
522.997	19.43
523.427	19.71
523.857	19.98
524.286	20.24
524.716	20.5
525.145	20.75
525.575	21
526.004	21.25
526.433	21.35
526.863	21.56
527.292	21.77
527.721	21.97
528.15	22.15
528.579	22.33
529.008	22.51
529.437	22.67
529.866	22.83
530.295	22.97
530.724	23.11
531.152	23.25
531.581	23.38
532.01	23.51
532.438	23.63
532.867	23.76
533.295	23.86
533.723	23.96
534.152	24.05
534.58	24.15
535.008	24.2
535.436	24.28
535.865	24.35
536.293	24.42
536.721	24.48
537.149	24.55
537.576	24.59
538.004	24.64
538.432	24.68
538.86	24.73
539.287	24.75
539.715	24.82
540.143	24.86
540.57	24.91
540.998	24.94
541.425	24.96
541.852	24.99
542.28	25.03
542.707	25.07
543.134	25.11
543.561	25.14
543.988	25.17
544.415	25.18
544.842	25.2
545.269	25.22
545.696	25.23
546.123	25.26
546.549	25.3
546.976	25.33
547.403	25.33
547.829	25.34
548.256	25.36
548.682	25.39
549.108	25.39
549.535	25.41
549.961	25.42
550.387	25.43
550.813	25.42
551.24	25.4
551.666	25.38
552.092	25.36
552.518	25.35
552.943	25.31
553.369	25.27
553.795	25.25
554.221	25.19
554.646	25.14
555.072	25.09
555.498	25.03
555.923	24.96
556.349	24.88
556.774	24.8
557.199	24.72
557.625	24.63
558.05	24.54
558.475	24.44
558.9	24.35
559.325	24.25
559.75	24.12
560.175	24.01
560.6	23.89
561.025	23.76
561.449	23.65
561.874	23.5
562.299	23.36
562.723	23.22
563.148	23.06
563.572	22.9
563.997	22.74
564.421	22.58
564.846	22.43
565.27	22.27
565.694	22.11
566.118	21.93
566.542	21.77
566.966	21.59
567.39	21.42
567.814	21.25
568.238	21.08
568.662	20.91
569.086	20.76
569.509	20.59
569.933	20.41
570.357	20.24
570.78	20.07
571.204	19.9
571.627	19.75
572.05	19.58
572.474	19.43
572.897	19.3
573.32	19.15
573.743	19
574.166	18.86
574.589	18.72
575.012	18.58
575.435	18.46
575.858	18.34
576.281	18.2
576.704	18.09
577.126	17.97
577.549	17.83
577.972	17.72
578.394	17.59
578.817	17.48
579.239	17.39
579.661	17.29
580.084	17.19
580.506	17.09
580.928	17
581.35	16.91
581.772	16.81
582.194	16.73
582.616	16.66
583.038	16.58
583.46	16.49
583.882	16.4
584.303	16.31
584.725	16.23
585.147	16.15
585.568	16.07
585.99	16
586.411	15.93
586.833	15.87
587.254	15.79
587.675	15.72
588.096	15.66
588.518	15.6
588.939	15.55
589.36	15.48
589.781	15.42
590.202	15.38
590.623	15.34
591.043	15.31
591.464	15.26
591.885	15.21
592.305	15.18
592.726	15.15
593.147	15.11
593.567	15.07
593.987	15.04
594.408	15
594.828	14.96
595.248	14.92
595.669	14.89
596.089	14.85
596.509	14.81
596.929	14.77
597.349	14.73
597.769	14.7
598.189	14.66
598.608	14.64
599.028	14.6
599.448	14.56
599.867	14.51
600.287	14.47
600.706	14.43
601.126	14.38
601.545	14.33
601.965	14.29
602.384	14.24
602.803	14.18
603.222	14.11
603.641	14.06
604.061	14.02
604.48	13.96
604.898	13.89
605.317	13.83
605.736	13.78
606.155	13.71
606.574	13.63
606.992	13.56
607.411	13.49
607.829	13.41
608.248	13.31
608.666	13.23
609.085	13.16
609.503	13.09
609.921	13.01
610.339	12.93
610.758	12.86
611.176	12.78
611.594	12.71
612.012	12.63
612.43	12.58
612.847	12.53
613.265	12.46
613.683	12.38
614.101	12.3
614.518	12.23
614.936	12.16
615.353	12.09
615.771	12.03
616.188	11.96
616.606	11.9
617.023	11.85
617.44	11.79
617.857	11.73
618.274	11.69
618.691	11.64
619.108	11.6
619.525	11.56
619.942	11.53
620.359	11.49
620.776	11.47
621.192	11.43
621.609	11.4
622.026	11.36
622.442	11.35
622.859	11.33
623.275	11.3
623.691	11.29
624.108	11.26
624.524	11.25
624.94	11.23
625.356	11.21
625.772	11.2
626.188	11.19
626.604	11.19
627.02	11.17
627.436	11.16
627.852	11.15
628.268	11.14
628.683	11.14
629.099	11.12
629.514	11.11
629.93	11.1
630.345	11.08
630.761	11.05
631.176	11.03
631.591	10.99
632.007	10.96
632.422	10.92
632.837	10.87
633.252	10.81
633.667	10.76
634.082	10.69
634.497	10.62
634.911	10.54
635.326	10.47
635.741	10.39
636.155	10.29
636.57	10.22
636.984	10.13
637.399	10.03
637.813	9.93
638.228	9.82
638.642	9.72
639.056	9.61
639.47	9.52
639.884	9.41
640.298	9.3
640.712	9.2
641.126	9.08
641.54	8.97
641.954	8.87
642.368	8.77
642.781	8.67
643.195	8.58
643.609	8.49
644.022	8.4
644.436	8.32
644.849	8.23
645.262	8.15
645.676	8.07
646.089	8.01
646.502	7.96
646.915	7.91
647.328	7.85
647.741	7.79
648.154	7.75
648.567	7.7
648.98	7.66
649.393	7.62
649.805	7.6
650.218	7.57
650.631	7.54
651.043	7.5
651.456	7.47
651.868	7.45
652.28	7.42
652.693	7.4
653.105	7.38
653.517	7.35
653.929	7.33
654.341	7.3
654.753	7.26
655.165	7.22
655.577	7.2
655.989	7.16
656.401	7.11
656.813	7.08
657.224	7.02
657.636	6.96
658.047	6.91
658.459	6.85
658.87	6.8
659.282	6.75
659.693	6.71
660.104	6.65
660.515	6.6
660.926	6.56
661.338	6.51
661.749	6.48
662.159	6.45
662.57	6.42
662.981	6.38
663.392	6.35
663.803	6.32
664.213	6.3
664.624	6.27
665.035	6.24
665.445	6.23
665.855	6.21
666.266	6.19
666.676	6.18
667.086	6.17
667.497	6.16
667.907	6.16
668.317	6.15
668.727	6.14
669.137	6.15
669.547	6.16
669.956	6.16
670.366	6.17
670.776	6.18
671.186	6.19
671.595	6.2
672.005	6.22
672.414	6.24
672.824	6.26
673.233	6.28
673.642	6.29
674.052	6.32
674.461	6.34
674.87	6.36
675.279	6.38
675.688	6.4
676.097	6.43
676.506	6.46
676.915	6.49
677.323	6.52
677.732	6.55
678.141	6.59
678.549	6.62
678.958	6.66
679.366	6.71
679.775	6.75
680.183	6.81
680.592	6.86
681	6.91
681.408	6.97
681.816	7.03
682.224	7.1
682.632	7.18
683.04	7.26
683.448	7.37
683.856	7.46
684.264	7.58
684.671	7.72
685.079	7.87
685.487	8.03
685.894	8.23
686.302	8.45
686.709	8.69
687.116	8.96
687.524	9.25
687.931	9.57
688.338	9.93
688.745	10.31
689.152	10.7
689.559	11.12
689.966	11.58
690.373	12.06
690.78	12.57
691.187	13.1
691.593	13.66
692	14.24
692.407	14.81
692.813	15.42
693.22	16.03
693.626	16.66
694.032	17.31
694.439	17.95
694.845	18.6
695.251	19.25
695.657	19.91
696.063	20.58
696.469	21.24
696.875	21.91
697.281	22.56
697.687	23.24
698.093	23.91
698.498	24.56
698.904	25.22
699.31	25.88
699.715	26.52
700.12	27.14
700.526	27.75
700.931	28.37
701.337	28.98
701.742	29.57
702.147	30.14
702.552	30.69
702.957	31.24
703.362	31.78
703.767	32.3
704.172	32.82
704.577	33.36
704.981	33.88
705.386	34.37
705.791	34.84
706.195	35.32
706.6	35.8
707.004	36.26
707.408	36.75
707.813	37.21
708.217	37.66
708.621	38.11
709.025	38.53
709.43	38.92
709.834	39.35
710.237	39.77
710.641	40.18
711.045	40.57
711.449	40.99
711.853	41.35
712.256	41.73
712.66	42.08
713.064	42.45
713.467	42.8
713.87	43.19
714.274	43.51
714.677	43.87
715.08	44.19
715.484	44.51
715.887	44.86
716.29	45.16
716.693	45.49
717.096	45.81
717.499	46.12
717.901	46.41
718.304	46.7
718.707	47
719.109	47.28
719.512	47.56
719.915	47.85
720.317	48.06
720.719	48.29
721.122	48.53
721.524	48.77
721.926	48.99
722.328	49.24
722.731	49.43
723.133	49.65
723.535	49.86
723.937	50.07
724.338	50.24
724.74	50.45
725.142	50.71
725.544	50.87
725.945	51.06
726.347	51.22
726.748	51.38
727.15	51.54
727.551	51.7
727.952	51.82
728.354	51.98
728.755	52.12
729.156	52.24
729.557	52.32
729.958	52.44
730.359	52.55
730.76	52.67
731.161	52.77
731.562	52.88
731.962	52.95
732.363	53.07
732.763	53.14
733.164	53.24
733.564	53.33
733.965	53.4
734.365	53.48
734.766	53.56
735.166	53.64
735.566	53.73
735.966	53.8
736.366	53.87
736.766	53.93
737.166	54.01
737.566	54.05
737.966	54.11
738.365	54.19
738.765	54.26
739.165	54.3
739.564	54.35
739.964	54.41
740.363	54.44
740.763	54.5
741.162	54.53
741.561	54.53
741.96	54.59
742.36	54.63
742.759	54.65
743.158	54.67
743.557	54.69
743.955	54.74
744.354	54.76
744.753	54.8
745.152	54.85
745.55	54.9
745.949	54.96
746.348	54.98
746.746	54.99
747.144	55
747.543	55.01
747.941	55.07
748.339	55.05
748.737	55.05
749.136	55.05
749.534	55.02
749.932	55.02
750.33	55
750.727	55.03
751.125	55.04
751.523	55.05
751.921	55.06
752.318	55.05
752.716	55.07
753.113	55.11
753.511	55.15
753.908	55.22
754.305	55.24
754.703	55.24
755.1	55.22
755.497	55.24
755.894	55.26
756.291	55.25
756.688	55.24
757.085	55.23
757.482	55.22
757.878	55.2
758.275	55.17
758.672	55.13
759.068	55.19
759.465	55.18
759.861	55.18
760.258	55.17
760.654	55.19
761.05	55.21
761.447	55.22
761.843	55.19
762.239	55.16
762.635	55.14
763.031	55.14
763.427	55.09
763.822	55.09
764.218	55.11
764.614	55.13
765.01	55.1
765.405	55.08
765.801	55.06
766.196	55.06
766.592	55.07
766.987	55.07
767.382	55.07
767.778	55.09
768.173	55.08
768.568	55.05
768.963	55.02
769.358	55
769.753	54.99
770.148	54.98
770.542	54.98
770.937	54.98
771.332	54.98
771.726	55
772.121	54.98
772.515	54.98
772.91	54.96
773.304	54.97
773.699	54.99
774.093	54.99
774.487	54.99
774.881	55
775.275	54.98
775.669	54.97
776.063	54.96
776.457	54.98
776.851	54.94
777.245	54.92
777.638	54.89
778.032	54.89
778.425	54.91
778.819	54.9
779.212	54.91
779.606	54.93
779.999	54.92
780.392	54.94
780.786	54.93
781.179	54.96
781.572	55
781.965	55.03
782.358	55.03
782.751	55.02
783.143	55.05
783.536	55.03
783.929	55.03
784.322	55.04
784.714	55.06
785.107	55.07
785.499	55.07
785.891	55.08
786.284	55.11
786.676	55.14
787.068	55.11
787.46	55.11
787.852	55.13
788.245	55.13
788.636	55.12
789.028	55.12
789.42	55.08
789.812	55.08
790.204	55.07
790.595	55.05
790.987	55.04
791.378	55.04
791.77	55.04
792.161	55.02
792.553	55.03
792.944	55
793.335	54.99
793.726	55
794.117	54.99
794.508	54.97
794.899	54.94
795.29	54.94
795.681	54.93
796.072	54.9
796.463	54.88
796.853	54.84
797.244	54.85
797.634	54.83
798.025	54.87
798.415	54.87
798.806	54.85
799.196	54.9
799.586	54.89
799.976	54.88
800.366	54.89
800.756	54.92
801.146	54.97
801.536	55.01
801.926	55.02
802.316	55.04
802.706	55.07
803.095	55.07
803.485	55.04
803.874	55.06
804.264	55.07
804.653	55.09
805.043	55.1
805.432	55.08
805.821	55.07
806.21	55.08
806.599	55.04
806.988	55.02
807.377	55.02
807.766	55.02
808.155	55
808.544	55.01
808.933	54.99
809.321	54.96
809.71	54.96
810.098	54.96
810.487	54.92
810.875	54.94
811.264	54.93
811.652	54.94
812.04	54.94
812.428	54.95
812.816	54.95
813.204	54.93
813.592	54.91
813.98	54.88
814.368	54.89
814.756	54.9
815.144	54.83
815.531	54.82
815.919	54.8
816.306	54.78
816.694	54.75
817.081	54.73
817.469	54.77
817.856	54.76
818.243	54.76
818.63	54.74
819.017	54.71
819.404	54.71
819.791	54.72
820.178	54.73
820.565	54.71
820.952	54.71
821.339	54.71
821.725	54.7
822.112	54.74
822.498	54.77
822.885	54.78
823.271	54.79
823.657	54.79
824.044	54.79
824.43	54.78
824.816	54.78
825.202	54.78
825.588	54.77
825.974	54.77
826.36	54.74
826.746	54.71
827.132	54.69
827.517	54.69
827.903	54.73
828.289	54.73
828.674	54.74
829.06	54.74
829.445	54.73
829.83	54.74
830.216	54.71
830.601	54.72
830.986	54.74
831.371	54.75
831.756	54.77
832.141	54.75
832.526	54.75
832.911	54.75
833.295	54.78
833.68	54.8
834.065	54.77
834.449	54.76
834.834	54.75
835.218	54.75
835.603	54.74
835.987	54.72
836.371	54.71
836.755	54.7
837.139	54.68
837.524	54.67
837.908	54.69
838.291	54.74
838.675	54.75
839.059	54.76
839.443	54.75
839.827	54.76
840.21	54.74
840.594	54.76
840.977	54.77
841.361	54.79
841.744	54.77
842.127	54.76
842.511	54.71
842.894	54.69
843.277	54.68
843.66	54.67
844.043	54.67
844.426	54.68
844.809	54.67
845.191	54.67
845.574	54.67
845.957	54.68
846.339	54.65
846.722	54.67
847.104	54.72
847.487	54.74
847.869	54.75
848.252	54.74
848.634	54.76
849.016	54.77
849.398	54.8
849.78	54.79
850.162	54.8
850.544	54.8
850.926	54.77
851.307	54.75
851.689	54.73
852.071	54.72
852.452	54.73
852.834	54.72
853.215	54.7
853.597	54.69
853.978	54.68
854.359	54.67
854.741	54.68
855.122	54.69
855.503	54.69
855.884	54.68
856.265	54.67
856.646	54.64
857.026	54.67
857.407	54.69
857.788	54.68
858.169	54.7
858.549	54.7
858.93	54.7
859.31	54.7
859.69	54.72
860.071	54.75
860.451	54.73
860.831	54.76
861.211	54.73
861.591	54.72
861.971	54.7
862.351	54.7
862.731	54.68
863.111	54.69
863.491	54.7
863.87	54.68
864.25	54.65
864.629	54.67
865.009	54.67
865.388	54.67
865.768	54.67
866.147	54.68
866.526	54.69
866.905	54.7
867.284	54.71
867.663	54.69
868.042	54.69
868.421	54.7
868.8	54.71
869.179	54.7
869.558	54.71
869.936	54.72
870.315	54.68
870.693	54.67
871.072	54.67
871.45	54.66
871.828	54.67
872.207	54.71
872.585	54.68
872.963	54.69
873.341	54.67
873.719	54.66
874.097	54.65
874.475	54.68
874.853	54.69
875.23	54.72
875.608	54.73
875.986	54.75
876.363	54.7
876.741	54.74
877.118	54.75
877.495	54.77
877.873	54.8
878.25	54.83
878.627	54.86
879.004	54.83
879.381	54.84
879.758	54.8
880.135	54.81
880.512	54.79
880.889	54.8
881.265	54.79
881.642	54.76
882.019	54.74
882.395	54.7
882.772	54.66
883.148	54.65
883.524	54.62
883.901	54.65
884.277	54.6
884.653	54.6
885.029	54.57
885.405	54.56
885.781	54.55
886.157	54.53
886.532	54.56
886.908	54.56
887.284	54.57
887.659	54.55
888.035	54.55
888.411	54.55
888.786	54.57
889.161	54.58
889.537	54.58
889.912	54.62
890.287	54.63
890.662	54.62
891.037	54.64
891.412	54.63
891.787	54.63
892.162	54.62
892.536	54.6
892.911	54.58
893.286	54.57
893.66	54.56
894.035	54.54
894.409	54.51
894.784	54.51
895.158	54.47
895.532	54.47
895.906	54.46
896.281	54.45
896.655	54.46
897.029	54.47
897.402	54.48
897.776	54.5
898.15	54.49
898.524	54.52
898.898	54.51
899.271	54.52
899.645	54.57
900.018	54.6
900.392	54.65
900.765	54.65
901.138	54.64
901.511	54.63
901.884	54.65
902.258	54.67
902.631	54.67
903.003	54.7
903.376	54.7
903.749	54.67
904.122	54.69
904.495	54.68
904.867	54.67
905.24	54.72
905.612	54.75
905.985	54.73
906.357	54.71
906.729	54.73
907.102	54.72
907.474	54.72
907.846	54.7
908.218	54.67
908.59	54.69
908.962	54.71
909.334	54.7
909.705	54.66
910.077	54.68
910.449	54.68
910.82	54.65
911.192	54.64
911.563	54.65
911.935	54.65
912.306	54.65
912.677	54.63
913.048	54.63
913.419	54.59
913.79	54.61
914.161	54.59
914.532	54.6
914.903	54.62
915.274	54.63
915.645	54.63
916.015	54.65
916.386	54.64
916.756	54.6
917.127	54.62
917.497	54.64
917.868	54.64
918.238	54.64
918.608	54.64
918.978	54.6
919.348	54.61
919.718	54.57
920.088	54.58
920.458	54.59
920.828	54.59
921.198	54.57
921.567	54.57
921.937	54.54
922.306	54.52
922.676	54.52
923.045	54.51
923.415	54.47
923.784	54.52
924.153	54.51
924.522	54.53
924.891	54.49
925.26	54.47
925.629	54.46
925.998	54.47
926.367	54.52
926.736	54.5
927.104	54.51
927.473	54.51
927.842	54.48
928.21	54.49
928.578	54.46
928.947	54.49
929.315	54.45
929.683	54.42
930.051	54.4
930.42	54.35
930.788	54.31
931.156	54.3
931.523	54.27
931.891	54.28
932.259	54.23
932.627	54.25
932.994	54.25
933.362	54.24
933.729	54.24
934.097	54.2
934.464	54.17
934.831	54.16
935.199	54.17
935.566	54.16
935.933	54.14
936.3	54.13
936.667	54.06
937.034	54.07
937.401	54.1
937.767	54.09
938.134	54.11
938.501	54.16
938.867	54.2
939.234	54.15
939.6	54.18
939.967	54.15
940.333	54.16
940.699	54.2
941.065	54.11
941.431	54.11
941.798	54.09
942.163	54.09
942.529	54.04
942.895	54.02
943.261	53.98
943.627	53.9
943.992	53.9
944.358	53.91
944.723	53.86
945.089	53.85
945.454	53.89
945.82	53.87
946.185	53.9
946.55	53.89
946.915	53.84
947.28	53.83
947.645	53.85
948.01	53.87
948.375	53.86
948.74	53.89
949.104	53.96
949.469	53.91
949.834	53.87
950.198	53.82
950.562	53.8
950.927	53.82
951.291	53.76
951.655	53.75
952.02	53.71
952.384	53.64
952.748	53.59
953.112	53.59
953.476	53.53
953.839	53.51
954.203	53.49
954.567	53.48
954.931	53.41
955.294	53.44
955.658	53.49
956.021	53.45
956.385	53.39
956.748	53.36
957.111	53.3
957.474	53.35
957.837	53.31
958.2	53.27
958.563	53.23
958.926	53.27
959.289	53.25
959.652	53.16
960.015	53.19
960.377	53.22
960.74	53.25
961.102	53.28
961.465	53.22
961.827	53.3
962.189	53.34
962.552	53.34
962.914	53.34
963.276	53.39
963.638	53.42
964	53.41
964.362	53.45
964.724	53.37
965.085	53.33
965.447	53.36
965.809	53.28
966.17	53.21
966.532	53.29
966.893	53.29
967.255	53.27
967.616	53.25
967.977	53.24
968.338	53.22
968.699	53.32
969.061	53.34
969.421	53.37
969.782	53.49
970.143	53.51
970.504	53.45
970.865	53.44
971.225	53.42
971.586	53.4
971.946	53.36
972.307	53.37
972.667	53.35
973.027	53.37
973.388	53.34
973.748	53.31
974.108	53.4
974.468	53.38
974.828	53.4
975.188	53.38
975.548	53.38
975.907	53.41
976.267	53.42
976.627	53.42
976.986	53.33
977.346	53.26
977.705	53.19
978.064	53.16
978.424	53.17
978.783	53.1
979.142	53.13
979.501	53.15
979.86	53.16
980.219	53.05
980.578	53.02
980.937	53.13
981.296	53.19
981.654	53.21
982.013	53.18
982.371	53.12
982.73	53.15
983.088	53.06
983.447	53.02
983.805	53
984.163	53.09
984.521	53.02
984.879	52.95
985.237	52.95
985.595	52.97
985.953	52.97
986.311	52.99
986.669	53.02
987.026	53.03
987.384	53.11
987.741	53.04
988.099	53.03
988.456	53.08
988.814	53.04
989.171	53.07
989.528	53.07
989.885	53.02
990.242	52.99
990.599	52.98
990.956	53.04
991.313	52.99
991.67	52.96
992.027	53.11
992.383	53.15
992.74	53.26
993.096	53.16
993.453	53.12
993.809	53.17
994.165	53.2
994.522	53.22
994.878	53.18
995.234	53.22
995.59	53.28
995.946	53.14
996.302	53.13
996.658	53.13
997.013	53.07
997.369	53.04
997.725	53.12
998.08	53.16
998.436	53.2
998.791	53.25
999.147	53.24
999.502	53.2
999.857	53.2
1000.212	53.11
1000.567	53.05
1000.922	53.14
1001.277	53.15
1001.632	53.05
1001.987	52.96
1002.342	52.83
1002.696	52.77
1003.051	52.84
1003.406	53.04
1003.76	52.99
1004.114	52.91
1004.469	53.01
1004.823	53.2
1005.177	53.26
1005.531	53.31
1005.885	53.4
1006.239	53.44
1006.593	53.53
1006.947	53.43
1007.301	53.28
1007.655	53.25
1008.008	53.53
1008.362	53.46
1008.715	53.27
1009.069	53.27
1009.422	53.36
1009.776	53.34
1010.129	53.34
1010.482	53.36
1010.835	53.46
1011.188	53.53
1011.541	53.64
1011.894	53.45
1012.247	53.34
1012.6	53.38
1012.952	53.34
1013.305	53.28
1013.657	53.34
1014.01	53.46
1014.362	53.4
1014.715	53.36
1015.067	53.44
1015.419	53.49
1015.771	53.5
1016.123	53.52
1016.475	53.6
1016.827	53.56
1017.179	53.65
1017.531	53.58
1017.883	53.5
1018.234	53.55
1018.586	53.54
1018.938	53.58
1019.289	53.41
1019.64	53.4
1019.992	53.43
1020.343	53.4
1020.694	53.31
1021.045	53.03
1021.396	53.02
1021.747	52.97
1022.098	52.79
1022.449	52.61
1022.8	52.54
1023.151	52.64
1023.501	52.63
1023.852	52.63
1024.202	52.31
1024.553	52.49
1024.903	52.64
1025.253	52.75
1025.604	52.85
1025.954	52.97
1026.304	53.26
1026.654	53.25
1027.004	53.24
1027.354	53.33
1027.703	53.31
1028.053	53.63
1028.403	53.64
1028.753	53.39
1029.102	53.57
1029.452	53.77
1029.801	53.99
1030.15	53.89
1030.499	53.79
897.758	891.3
901.051	894.16
904.343	896.2
907.636	909.11
910.928	884.83
914.22	889.63
917.511	879.74
920.803	837.31
924.094	837.51
927.384	813.02
930.675	781.71
933.965	780.01
937.255	737.76
940.544	706.57
943.834	676.88
947.123	672.1
950.411	630.69
953.7	618.23
956.988	589.54
960.276	567.74
963.563	557.36
966.851	540.19
970.138	535.95
973.424	519.5
976.711	522.55
979.997	497.89
983.283	494.18
986.568	484.83
989.853	473.61
993.138	462.47
996.423	444.49
999.708	434.93
1002.992	429.33
1006.275	409.37
1009.559	407.24
1012.842	392.5
1016.125	383.4
1019.408	377.15
1022.69	371.69
1025.972	363.03
1029.254	356.49
1032.536	351.46
1035.817	343.65
1039.098	340.56
1042.379	335.7
1045.659	330.43
1048.939	323.75
1052.219	317.03
1055.498	313.25
1058.778	306.52
1062.057	300.67
1065.335	298.03
1068.614	294.28
1071.892	291.94
1075.17	283.52
1078.447	278.05
1081.724	276.09
1085.001	274.67
1088.278	269.33
1091.554	264.73
1094.83	264.78
1098.106	263.33
1101.382	260.75
1104.657	259.34
1107.932	254.85
1111.206	256.14
1114.481	250.24
1117.755	249.02
1121.029	246.36
1124.302	245.89
1127.575	241.33
1130.848	238.99
1134.121	236.28
1137.393	234.9
1140.665	229.43
1143.937	228.28
1147.208	228.08
1150.48	227.33
1153.75	223.99
1157.021	221.78
1160.291	221.79
1163.561	219.23
1166.831	219.93
1170.101	217.98
1173.37	218.54
1176.639	219.64
1179.907	216.76
1183.176	213.93
1186.444	214.25
1189.711	213.5
1192.979	213.03
1196.246	211.83
1199.513	212.99
1202.78	210.61
1206.046	210.51
1209.312	208.09
1212.578	208.18
1215.843	210.68
1219.108	209.11
1222.373	212.75
1225.638	214.4
1228.902	216.47
1232.166	216.83
1235.43	218.14
1238.693	221.44
1241.956	222.22
1245.219	225.11
1248.482	225.78
1251.744	225.55
1255.006	225.5
1258.268	220.61
1261.529	219.02
1264.79	217.74
1268.051	216.94
1271.312	213.84
1274.572	211.03
1277.832	210.42
1281.092	207.36
1284.351	205.62
1287.61	205.74
1290.869	203.39
1294.128	202.45
1297.386	202.12
1300.644	200.26
1303.902	199.98
1307.159	200.06
1310.416	200.1
1313.673	198.58
1316.93	200.6
1320.186	200.24
1323.442	201.03
1326.697	203.57
1329.953	203.97
1333.208	204.55
1336.463	206.96
1339.717	207.74
1342.972	208.49
1346.226	210.93
1349.479	211.97
1352.733	212.47
1355.986	214.07
1359.238	212.89
1362.491	213.51
1365.743	214.75
1368.995	215.25
1372.247	213.87
1375.498	212.66
1378.749	214.53
1382	211.25
1385.251	210.33
1388.501	208.91
1391.751	208.15
1395	207.83
1398.25	206.13
1401.499	204.28
1404.748	202.99
1407.996	200.88
1411.244	200.52
1414.492	198.61
1417.74	196.02
1420.987	194.65
1424.234	193.59
1427.481	190.85
1430.728	190.56
1433.974	189.02
1437.22	186.97
1440.465	186.07
1443.711	184
1446.956	182.57
1450.201	181.49
1453.445	179.94
1456.689	178.9
1459.933	175.83
1463.177	174.95
1466.42	171.56
1469.663	169.41
1472.906	168.63
1476.148	165.47
1479.391	164.3
1482.633	163.33
1485.874	160.33
1489.115	159.19
1492.356	157.35
1495.597	157.59
1498.838	155.3
1502.078	155.26
1505.318	155.28
1508.557	155.33
1511.797	155.26
1515.036	154.22
1518.274	153.41
1521.513	153.23
1524.751	152.87
1527.989	152.87
1531.227	152.39
1534.464	152.58
1537.701	151.97
1540.938	151.39
1544.174	149.89
1547.41	150.08
1550.646	149.39
1553.882	149.79
1557.117	148.43
1560.352	148.3
1563.587	148.09
1566.821	147.3
1570.055	146.34
1573.289	145.45
1576.523	145.19
1579.756	144.45
1582.989	143.71
1586.222	143.45
1589.454	143.39
1592.686	144.12
1595.918	143.61
1599.15	142.98
1602.381	143.2
1605.612	143.39
1608.843	143.41
1612.073	143.37
1615.303	144.37
1618.533	144.17
1621.762	144.8
1624.992	144.54
1628.221	144.13
1631.449	144.2
1634.678	144.22
1637.906	145.31
1641.134	145.23
1644.361	145.27
1647.588	145.72
1650.815	144.99
1654.042	145.01
1657.269	145.61
1660.495	145.48
1663.72	145.39
1666.946	145.64
1670.171	146.08
1673.396	145.77
1676.621	145.91
1679.845	146.33
1683.069	146.75
1686.293	147.52
1689.517	147.99
1692.74	147.76
1695.963	148.07
1699.185	149.01
1702.408	149.17
1705.63	149.64
1708.852	150.11
1712.073	149.81
1715.294	150.14
1718.515	150.73
1721.736	150.34
1724.956	151.01
1728.176	151.12
1731.396	151.95
1734.616	151.6
1737.835	152.11
1741.054	150.82
1744.272	151.25
1747.491	152.82
1750.709	152.76
1753.927	152.41
1757.144	152.32
1760.361	152.01
1763.578	152.65
1766.795	152.25
1770.011	153.01
1773.227	152.92
1776.443	154.71
1779.658	154.27
1782.874	154.38
1786.089	154.71
1789.303	155.01
1792.518	156.59
1795.732	156.61
1798.945	157.18
1802.159	157.86
1805.372	158.21
1808.585	160
1811.797	160.66
1815.01	161.6
1818.222	162.44
1821.434	163.96
1824.645	164.05
1827.856	166.44
1831.067	167.81
1834.278	167.52
1837.488	168.34
1840.698	169.55
1843.908	168.41
1847.117	168.83
1850.326	169.04
1853.535	167.33
1856.744	169.12
1859.952	168.73
1863.16	166.94
1866.368	165.74
1869.575	166.51
1872.782	163.49
1875.989	162.26
1879.196	161.44
1882.402	159.5
1885.608	159.7
1888.814	160.09
1892.019	158
1895.224	157.75
1898.429	156.72
1901.634	156.72
1904.838	156.45
1908.042	158.4
1911.246	157.51
1914.449	158.47
1917.652	158.02
1920.855	157.55
1924.058	157.6
1927.26	157.11
1930.462	157.44
1933.664	159.22
1936.865	158.37
1940.066	157.86
1943.267	156.47
1946.467	156.94
1949.668	157.72
1952.868	160.11
1956.067	160.25
1959.267	160.9
1962.466	161.36
1965.665	159.89
1968.863	160.68
1972.061	162.63
1975.259	163.7
1978.457	165.15
1981.654	168.05
1984.852	168.18
1988.048	167.83
1991.245	169.48
1994.441	170.8
1997.637	172.12
2000.833	176.54
2004.028	178.26
2007.223	179.68
2010.418	182.43
2013.613	185.29
2016.807	186.04
2020.001	188.31
2023.194	191.77
2026.388	195.55
2029.581	200.49
2032.774	202.57
2035.966	205.39
2039.158	205.97
2042.35	210.46
2045.542	210.65
2048.733	213.71
2051.924	217.79
2055.115	221.73
2058.306	221.78
2061.496	223.67
2064.686	222.42
2067.875	226.42
2071.065	227.98
2074.254	226.75
2077.442	229.09
2080.631	230.74
2083.819	233.37
2087.007	232.8
2090.195	235.13
2093.382	237.45
2096.569	236.68
2099.756	242.13
2102.942	242.86
2106.128	244.88
2109.314	250.58
2112.5	249.29
2115.685	255.55
2118.87	255.61
2122.055	261.65
2125.239	262.47
2128.424	265.57
2131.608	267.38
2134.791	269.3
2137.974	270.38
2141.157	271.6
2144.34	272.49
2147.523	276.23
2150.705	274.23
2153.887	278.3
2157.068	277.3
2160.25	275.25
2163.431	276.77
2166.611	279.86
2169.792	284.88
2172.972	287.66
2176.152	290.06
2179.331	293.62
2182.511	298.26
2185.69	299.92
2188.868	305.67
2192.047	306.62
2195.225	316.02
2198.403	322.92
2201.58	329.17
2204.758	335.14
2207.935	342.7
2211.111	347.19
2214.288	352.09
2217.464	353.42
2220.64	362.32
2223.815	364.65
2226.991	379.38
2230.166	379.16
2233.34	384.1
2236.515	391.98
2239.689	391.39
2242.863	393.35
2246.036	404.43
2249.209	402.72
2252.382	407.8
2255.555	418.11
2258.727	420.89
2261.9	423.63
2265.071	427.66
2268.243	436.37
2271.414	439.26
2274.585	449.32
2277.756	451.69
2280.926	458.06
2284.096	466.97
2287.266	476.99
2290.436	480.72
2293.605	490.95
2296.774	504.55
2299.942	520.91
2303.111	524.45
2306.279	534.53
2309.447	542.08
2312.614	556.41
2315.781	570.1
2318.948	594.7
2322.115	589.07
2325.281	622.08
2328.447	607.02
2331.613	627.22
2334.779	620.6
2337.944	648.21
2341.109	654.93
2344.274	673.74
2347.438	697.91
2350.602	693.92
2353.766	717.9
2356.929	727.52
2360.092	716.25
2363.255	771.44
2366.418	774.49
2369.58	787.86
2372.742	834.29
2375.904	857.12
2379.066	852.2
2382.227	838.34
2385.388	910.11
2388.548	905.91
2391.709	919.13
2394.869	1030.25
2398.029	985.08
2401.188	1011.2
2404.347	1005.88
2407.506	989.33
2410.665	1017.48
2413.823	1078.69
2416.981	1140.56
2420.139	1104.93
2423.296	1096.36
2426.453	1140.19
2429.61	1093.29
2432.767	1142.36
2435.923	1132.71
2439.079	1238.09
2442.235	1255.9
2445.391	1243.09
2448.546	1228.07
2451.701	1195.41
2454.855	1192.71
2458.009	1264.32
2461.163	1320.01
2464.317	1369.43
2467.471	1405.32
2470.624	1402.93
2473.777	1368.86
2476.929	1331.71
2480.082	1293.57
2483.234	1282.83
2486.385	1347.21
2489.537	1354.78
2492.688	1401.93
2495.839	1366.93
2498.989	1332.95
2502.14	1335.99
2505.29	1351.2
2508.439	1371.83
2511.589	1369.94
2514.738	1488.31
2517.887	1454.4
2521.035	1530.46
2524.183	1547.94
2527.331	1557.95
2530.479	1543.69
2533.627	1558.99
