Data from C_1_DEC_OH_4N_Splice17_12-43-57-505.txt Node
Date: Sat Mar 07 12:43:57 EST 2020
User: sa697716
Spectrometer: NQ5500242
Trigger mode: 0
Integration Time (sec): 1.450000E-1
Scans to average: 20
Nonlinearity correction enabled: false
Boxcar width: 5
Storing dark spectrum: false
XAxis mode: Wavelengths
Number of Pixels in Spectrum: 512
>>>>>Begin Spectral Data<<<<<
187.83	154.15
188.298	164.81
188.766	159.89
189.233	133.58
189.701	132.78
190.169	140.54
190.636	166.72
191.104	172.24
191.571	42.44
192.039	-90.79
192.506	82.5
192.974	79.42
193.441	138.19
193.908	149.35
194.375	108.58
194.842	50.47
195.31	57.74
195.777	262.65
196.244	44.29
196.711	41.32
197.177	42.63
197.644	41.51
198.111	40.8
198.578	41.29
199.045	41.28
199.511	41.05
199.978	41.37
200.445	41.51
200.911	41.38
201.378	41.37
201.844	41.42
202.31	40.82
202.777	41.14
203.243	41.24
203.709	40.83
204.176	40.53
204.642	40.66
205.108	40.59
205.574	40.59
206.04	40.28
206.506	40.08
206.972	40.09
207.438	39.93
207.903	39.66
208.369	39.18
208.835	38.94
209.301	38.3
209.766	37.56
210.232	36.9
210.697	36.28
211.163	35.83
211.628	35.43
212.094	34.92
212.559	34.69
213.024	34.18
213.49	33.63
213.955	33.03
214.42	32.76
214.885	32.21
215.35	31.46
215.815	30.5
216.28	29.4
216.745	28.29
217.21	27.08
217.675	25.95
218.14	25.1
218.604	24.39
219.069	23.76
219.534	23.21
219.998	22.76
220.463	22.37
220.927	21.96
221.392	21.63
221.856	21.34
222.32	21.07
222.785	20.84
223.249	20.57
223.713	20.37
224.177	20.19
224.642	19.99
225.106	19.74
225.57	19.52
226.034	19.31
226.497	19.12
226.961	18.91
227.425	18.7
227.889	18.5
228.353	18.31
228.816	18.1
229.28	17.87
229.744	17.66
230.207	17.46
230.671	17.27
231.134	17.09
231.597	16.9
232.061	16.72
232.524	16.56
232.987	16.38
233.45	16.22
233.914	16.04
234.377	15.88
234.84	15.72
235.303	15.59
235.766	15.45
236.229	15.3
236.691	15.15
237.154	15.01
237.617	14.88
238.08	14.74
238.542	14.6
239.005	14.48
239.468	14.33
239.93	14.2
240.393	14.07
240.855	13.92
241.317	13.78
241.78	13.65
242.242	13.52
242.704	13.4
243.166	13.29
243.629	13.19
244.091	13.05
244.553	12.95
245.015	12.84
245.477	12.73
245.939	12.63
246.4	12.54
246.862	12.44
247.324	12.33
247.786	12.22
248.247	12.11
248.709	12
249.17	11.92
249.632	11.83
250.093	11.74
250.555	11.67
251.016	11.59
251.477	11.52
251.939	11.46
252.4	11.41
252.861	11.34
253.322	11.28
253.783	11.23
254.244	11.18
254.705	11.12
255.166	11.06
255.627	11
256.088	10.96
256.549	10.89
257.009	10.82
257.47	10.76
257.931	10.68
258.391	10.62
258.852	10.55
259.312	10.48
259.773	10.42
260.233	10.37
260.694	10.31
261.154	10.24
261.614	10.19
262.074	10.14
262.534	10.09
262.994	10.06
263.455	10.02
263.915	9.98
264.374	9.95
264.834	9.94
265.294	9.91
265.754	9.89
266.214	9.87
266.673	9.85
267.133	9.84
267.593	9.82
268.052	9.79
268.512	9.78
268.971	9.77
269.431	9.75
269.89	9.72
270.349	9.7
270.809	9.67
271.268	9.66
271.727	9.64
272.186	9.61
272.645	9.6
273.104	9.57
273.563	9.54
274.022	9.52
274.481	9.5
274.94	9.47
275.399	9.44
275.857	9.43
276.316	9.39
276.775	9.36
277.233	9.34
277.692	9.31
278.15	9.29
278.609	9.26
279.067	9.23
279.525	9.2
279.984	9.18
280.442	9.15
280.9	9.12
281.358	9.1
281.816	9.07
282.274	9.05
282.732	9.02
283.19	8.99
283.648	8.95
284.106	8.92
284.564	8.89
285.021	8.86
285.479	8.83
285.937	8.8
286.394	8.77
286.852	8.73
287.309	8.69
287.767	8.66
288.224	8.62
288.682	8.58
289.139	8.55
289.596	8.52
290.053	8.48
290.511	8.45
290.968	8.42
291.425	8.4
291.882	8.38
292.339	8.35
292.796	8.32
293.252	8.31
293.709	8.29
294.166	8.27
294.623	8.25
295.079	8.23
295.536	8.21
295.992	8.19
296.449	8.16
296.905	8.14
297.362	8.13
297.818	8.11
298.274	8.08
298.731	8.06
299.187	8.03
299.643	8.02
300.099	8.01
300.555	7.99
301.011	7.98
301.467	7.95
301.923	7.94
302.379	7.91
302.835	7.9
303.291	7.88
303.746	7.87
304.202	7.85
304.658	7.83
305.113	7.81
305.569	7.79
306.024	7.77
306.479	7.75
306.935	7.73
307.39	7.71
307.845	7.69
308.301	7.68
308.756	7.67
309.211	7.66
309.666	7.65
310.121	7.64
310.576	7.61
311.031	7.6
311.486	7.6
311.94	7.59
312.395	7.57
312.85	7.56
313.305	7.54
313.759	7.53
314.214	7.5
314.668	7.48
315.123	7.46
315.577	7.44
316.032	7.41
316.486	7.4
316.94	7.37
317.394	7.36
317.849	7.33
318.303	7.31
318.757	7.28
319.211	7.27
319.665	7.24
320.119	7.21
320.572	7.19
321.026	7.18
321.48	7.16
321.934	7.14
322.387	7.12
322.841	7.1
323.295	7.09
323.748	7.07
324.202	7.06
324.655	7.04
325.108	7.04
325.562	7.03
326.015	7.01
326.468	7
326.921	6.98
327.374	6.96
327.827	6.95
328.28	6.94
328.733	6.93
329.186	6.91
329.639	6.91
330.092	6.89
330.545	6.87
330.997	6.86
331.45	6.85
331.903	6.85
332.355	6.84
332.808	6.83
333.26	6.81
333.713	6.8
334.165	6.8
334.617	6.79
335.069	6.78
335.522	6.78
335.974	6.77
336.426	6.76
336.878	6.74
337.33	6.73
337.782	6.72
338.234	6.71
338.686	6.7
339.137	6.69
339.589	6.66
340.041	6.66
340.493	6.63
340.944	6.61
341.396	6.59
341.847	6.58
342.299	6.55
342.75	6.52
343.201	6.51
343.653	6.5
344.104	6.47
344.555	6.46
345.006	6.44
345.457	6.41
345.908	6.4
346.359	6.4
346.81	6.39
347.261	6.38
347.712	6.38
348.163	6.36
348.613	6.36
349.064	6.35
349.515	6.35
349.965	6.35
350.416	6.34
350.866	6.34
351.317	6.32
351.767	6.32
352.217	6.32
352.668	6.31
353.118	6.3
353.568	6.29
354.018	6.29
354.468	6.29
354.918	6.29
355.368	6.29
355.818	6.29
356.268	6.28
356.718	6.29
357.168	6.27
357.617	6.26
358.067	6.25
358.517	6.26
358.966	6.25
359.416	6.24
359.865	6.22
360.315	6.22
360.764	6.21
361.213	6.2
361.663	6.19
362.112	6.18
362.561	6.18
363.01	6.17
363.459	6.14
363.908	6.13
364.357	6.12
364.806	6.11
365.255	6.09
365.703	6.09
366.152	6.09
366.601	6.09
367.05	6.08
367.498	6.07
367.947	6.07
368.395	6.08
368.844	6.08
369.292	6.08
369.74	6.07
370.189	6.07
370.637	6.06
371.085	6.04
371.533	6.02
371.981	6.02
372.429	6.01
372.877	6
373.325	5.98
373.773	5.96
374.221	5.95
374.669	5.94
375.116	5.93
375.564	5.93
376.012	5.93
376.459	5.93
376.907	5.92
377.354	5.92
377.801	5.91
378.249	5.9
378.696	5.9
379.143	5.9
379.591	5.89
380.038	5.88
380.485	5.87
380.932	5.86
381.379	5.85
381.826	5.84
382.273	5.83
382.72	5.82
383.166	5.81
383.613	5.81
384.06	5.8
384.506	5.79
384.953	5.8
385.4	5.79
385.846	5.8
386.292	5.8
386.739	5.79
387.185	5.8
387.631	5.8
388.078	5.8
388.524	5.8
388.97	5.79
389.416	5.8
389.862	5.8
390.308	5.81
390.754	5.82
391.2	5.82
391.645	5.82
392.091	5.83
392.537	5.84
392.983	5.84
393.428	5.85
393.874	5.86
394.319	5.87
394.765	5.86
395.21	5.85
395.655	5.85
396.101	5.86
396.546	5.87
396.991	5.88
397.436	5.89
397.881	5.91
398.326	5.92
398.771	5.93
399.216	5.94
399.661	5.95
400.106	5.96
400.551	5.96
400.995	5.95
401.44	5.95
401.885	5.95
402.329	5.95
402.774	5.95
403.218	5.97
403.663	5.98
404.107	5.98
404.551	5.99
404.995	6.01
405.44	6.01
405.884	6.02
406.328	6.03
406.772	6.04
407.216	6.06
407.66	6.05
408.104	6.04
408.547	6.04
408.991	6.05
409.435	6.05
409.879	6.06
410.322	6.07
410.766	6.08
411.209	6.09
411.653	6.1
412.096	6.1
412.54	6.11
412.983	6.11
413.426	6.15
413.869	6.14
414.312	6.16
414.756	6.16
415.199	6.17
415.642	6.17
416.085	6.16
416.527	6.16
416.97	6.14
417.413	6.14
417.856	6.13
418.298	6.11
418.741	6.11
419.184	6.1
419.626	6.1
420.069	6.1
420.511	6.09
420.953	6.09
421.396	6.1
421.838	6.1
422.28	6.11
422.722	6.12
423.164	6.12
423.606	6.13
424.048	6.13
424.49	6.13
424.932	6.14
425.374	6.14
425.816	6.11
426.258	6.11
426.699	6.1
427.141	6.1
427.582	6.11
428.024	6.11
428.465	6.11
428.907	6.1
429.348	6.09
429.789	6.08
430.231	6.09
430.672	6.12
431.113	6.13
431.554	6.13
431.995	6.14
432.436	6.13
432.877	6.13
433.318	6.15
433.759	6.17
434.2	6.2
434.64	6.21
435.081	6.22
435.522	6.24
435.962	6.25
436.403	6.28
436.843	6.3
437.284	6.31
437.724	6.33
438.164	6.32
438.604	6.33
439.045	6.32
439.485	6.3
439.925	6.31
440.365	6.3
440.805	6.3
441.245	6.3
441.685	6.3
442.125	6.32
442.564	6.31
443.004	6.31
443.444	6.29
443.883	6.29
444.323	6.28
444.762	6.29
445.202	6.29
445.641	6.29
446.081	6.3
446.52	6.3
446.959	6.31
447.398	6.31
447.837	6.31
448.276	6.33
448.716	6.34
449.154	6.37
449.593	6.36
450.032	6.35
450.471	6.34
450.91	6.33
451.349	6.32
451.787	6.3
452.226	6.3
452.664	6.3
453.103	6.29
453.541	6.29
453.98	6.29
454.418	6.28
454.856	6.28
455.295	6.3
455.733	6.28
456.171	6.28
456.609	6.29
457.047	6.27
457.485	6.26
457.923	6.26
458.361	6.25
458.798	6.24
459.236	6.24
459.674	6.24
460.111	6.24
460.549	6.25
460.987	6.23
461.424	6.24
461.862	6.26
462.299	6.27
462.736	6.27
463.173	6.26
463.611	6.27
464.048	6.28
464.485	6.3
464.922	6.3
465.359	6.3
465.796	6.3
466.233	6.31
466.67	6.31
467.106	6.32
467.543	6.33
467.98	6.33
468.416	6.33
468.853	6.33
469.29	6.31
469.726	6.32
470.162	6.31
470.599	6.33
471.035	6.31
471.471	6.3
471.907	6.29
472.344	6.29
472.78	6.29
473.216	6.28
473.652	6.28
474.088	6.26
474.523	6.26
474.959	6.25
475.395	6.23
475.831	6.23
476.266	6.23
476.702	6.22
477.138	6.21
477.573	6.2
478.008	6.2
478.444	6.2
478.879	6.2
479.314	6.19
479.75	6.19
480.185	6.18
480.62	6.17
481.055	6.16
481.49	6.14
481.925	6.13
482.36	6.13
482.795	6.12
483.229	6.11
483.664	6.13
484.099	6.12
484.534	6.13
484.968	6.13
485.403	6.13
485.837	6.14
486.271	6.16
486.706	6.16
487.14	6.16
487.574	6.18
488.009	6.18
488.443	6.18
488.877	6.2
489.311	6.21
489.745	6.23
490.179	6.26
490.613	6.28
491.046	6.3
491.48	6.34
491.914	6.37
492.348	6.41
492.781	6.45
493.215	6.48
493.648	6.53
494.082	6.56
494.515	6.6
494.948	6.64
495.382	6.68
495.815	6.74
496.248	6.8
496.681	6.85
497.114	6.91
497.547	6.97
497.98	7.05
498.413	7.12
498.846	7.2
499.279	7.28
499.711	7.36
500.144	7.46
500.577	7.54
501.009	7.63
501.442	7.74
501.874	7.84
502.306	7.95
502.739	8.05
503.171	8.18
503.603	8.31
504.036	8.44
504.468	8.58
504.9	8.72
505.332	8.88
505.764	9.05
506.196	9.22
506.627	9.4
507.059	9.59
507.491	9.78
507.923	9.98
508.354	10.19
508.786	10.42
509.217	10.65
509.649	10.88
510.08	11.12
510.512	11.37
510.943	11.63
511.374	11.88
511.805	12.16
512.237	12.44
512.668	12.73
513.099	13.01
513.53	13.29
513.961	13.58
514.391	13.88
514.822	14.19
515.253	14.49
515.684	14.78
516.114	15.1
516.545	15.41
516.975	15.72
517.406	16.04
517.836	16.36
518.267	16.7
518.697	17.02
519.127	17.33
519.558	17.65
519.988	17.99
520.418	18.3
520.848	18.62
521.278	18.92
521.708	19.35
522.138	19.65
522.567	19.94
522.997	20.21
523.427	20.5
523.857	20.78
524.286	21.04
524.716	21.3
525.145	21.55
525.575	21.81
526.004	22.06
526.433	22.17
526.863	22.39
527.292	22.6
527.721	22.8
528.15	23
528.579	23.19
529.008	23.36
529.437	23.51
529.866	23.68
530.295	23.83
530.724	23.95
531.152	24.09
531.581	24.22
532.01	24.34
532.438	24.47
532.867	24.56
533.295	24.67
533.723	24.77
534.152	24.87
534.58	24.96
535.008	25.02
535.436	25.11
535.865	25.17
536.293	25.24
536.721	25.32
537.149	25.37
537.576	25.44
538.004	25.51
538.432	25.54
538.86	25.59
539.287	25.63
539.715	25.68
540.143	25.73
540.57	25.77
540.998	25.81
541.425	25.83
541.852	25.87
542.28	25.91
542.707	25.93
543.134	25.98
543.561	26.02
543.988	26.05
544.415	26.06
544.842	26.08
545.269	26.11
545.696	26.13
546.123	26.16
546.549	26.18
546.976	26.19
547.403	26.2
547.829	26.21
548.256	26.22
548.682	26.24
549.108	26.28
549.535	26.27
549.961	26.28
550.387	26.28
550.813	26.26
551.24	26.25
551.666	26.25
552.092	26.24
552.518	26.2
552.943	26.16
553.369	26.13
553.795	26.08
554.221	26.04
554.646	25.99
555.072	25.94
555.498	25.87
555.923	25.8
556.349	25.71
556.774	25.63
557.199	25.56
557.625	25.47
558.05	25.36
558.475	25.25
558.9	25.16
559.325	25.04
559.75	24.92
560.175	24.82
560.6	24.7
561.025	24.59
561.449	24.45
561.874	24.3
562.299	24.16
562.723	24.03
563.148	23.87
563.572	23.7
563.997	23.54
564.421	23.37
564.846	23.18
565.27	23
565.694	22.82
566.118	22.65
566.542	22.48
566.966	22.29
567.39	22.1
567.814	21.93
568.238	21.75
568.662	21.58
569.086	21.41
569.509	21.25
569.933	21.09
570.357	20.92
570.78	20.73
571.204	20.58
571.627	20.43
572.05	20.27
572.474	20.13
572.897	19.96
573.32	19.81
573.743	19.66
574.166	19.51
574.589	19.36
575.012	19.23
575.435	19.11
575.858	18.98
576.281	18.85
576.704	18.71
577.126	18.57
577.549	18.46
577.972	18.34
578.394	18.22
578.817	18.11
579.239	18
579.661	17.89
580.084	17.79
580.506	17.7
580.928	17.59
581.35	17.5
581.772	17.41
582.194	17.33
582.616	17.23
583.038	17.15
583.46	17.06
583.882	16.97
584.303	16.89
584.725	16.81
585.147	16.73
585.568	16.67
585.99	16.59
586.411	16.53
586.833	16.45
587.254	16.38
587.675	16.32
588.096	16.26
588.518	16.21
588.939	16.16
589.36	16.1
589.781	16.05
590.202	15.98
590.623	15.94
591.043	15.87
591.464	15.83
591.885	15.79
592.305	15.74
592.726	15.72
593.147	15.66
593.567	15.62
593.987	15.57
594.408	15.52
594.828	15.49
595.248	15.46
595.669	15.43
596.089	15.39
596.509	15.35
596.929	15.31
597.349	15.25
597.769	15.21
598.189	15.17
598.608	15.15
599.028	15.11
599.448	15.07
599.867	15.02
600.287	14.97
600.706	14.93
601.126	14.88
601.545	14.84
601.965	14.8
602.384	14.75
602.803	14.69
603.222	14.62
603.641	14.56
604.061	14.51
604.48	14.45
604.898	14.37
605.317	14.31
605.736	14.24
606.155	14.16
606.574	14.08
606.992	14.01
607.411	13.95
607.829	13.85
608.248	13.76
608.666	13.68
609.085	13.6
609.503	13.54
609.921	13.45
610.339	13.37
610.758	13.31
611.176	13.23
611.594	13.17
612.012	13.08
612.43	13.02
612.847	12.95
613.265	12.88
613.683	12.82
614.101	12.75
614.518	12.69
614.936	12.62
615.353	12.53
615.771	12.47
616.188	12.39
616.606	12.34
617.023	12.28
617.44	12.23
617.857	12.17
618.274	12.1
618.691	12.04
619.108	11.99
619.525	11.95
619.942	11.91
620.359	11.88
620.776	11.85
621.192	11.82
621.609	11.8
622.026	11.75
622.442	11.73
622.859	11.71
623.275	11.69
623.691	11.68
624.108	11.67
624.524	11.66
624.94	11.64
625.356	11.63
625.772	11.61
626.188	11.61
626.604	11.6
627.02	11.59
627.436	11.6
627.852	11.59
628.268	11.58
628.683	11.56
629.099	11.54
629.514	11.52
629.93	11.51
630.345	11.48
630.761	11.45
631.176	11.42
631.591	11.37
632.007	11.32
632.422	11.28
632.837	11.23
633.252	11.17
633.667	11.1
634.082	11.03
634.497	10.95
634.911	10.88
635.326	10.79
635.741	10.71
636.155	10.62
636.57	10.52
636.984	10.41
637.399	10.3
637.813	10.2
638.228	10.1
638.642	10
639.056	9.88
639.47	9.77
639.884	9.66
640.298	9.54
640.712	9.43
641.126	9.33
641.54	9.22
641.954	9.11
642.368	9.01
642.781	8.9
643.195	8.8
643.609	8.71
644.022	8.62
644.436	8.53
644.849	8.44
645.262	8.36
645.676	8.29
646.089	8.22
646.502	8.17
646.915	8.11
647.328	8.05
647.741	8
648.154	7.96
648.567	7.92
648.98	7.89
649.393	7.85
649.805	7.83
650.218	7.79
650.631	7.77
651.043	7.73
651.456	7.71
651.868	7.68
652.28	7.66
652.693	7.64
653.105	7.62
653.517	7.58
653.929	7.56
654.341	7.52
654.753	7.47
655.165	7.43
655.577	7.39
655.989	7.34
656.401	7.31
656.813	7.26
657.224	7.2
657.636	7.14
658.047	7.1
658.459	7.05
658.87	7
659.282	6.95
659.693	6.9
660.104	6.84
660.515	6.78
660.926	6.74
661.338	6.68
661.749	6.64
662.159	6.6
662.57	6.56
662.981	6.53
663.392	6.48
663.803	6.46
664.213	6.43
664.624	6.41
665.035	6.39
665.445	6.36
665.855	6.34
666.266	6.34
666.676	6.33
667.086	6.31
667.497	6.3
667.907	6.3
668.317	6.3
668.727	6.29
669.137	6.29
669.547	6.3
669.956	6.31
670.366	6.32
670.776	6.32
671.186	6.34
671.595	6.35
672.005	6.35
672.414	6.37
672.824	6.38
673.233	6.4
673.642	6.43
674.052	6.45
674.461	6.47
674.87	6.5
675.279	6.52
675.688	6.55
676.097	6.59
676.506	6.61
676.915	6.65
677.323	6.69
677.732	6.73
678.141	6.77
678.549	6.8
678.958	6.84
679.366	6.89
679.775	6.93
680.183	6.98
680.592	7.04
681	7.1
681.408	7.16
681.816	7.23
682.224	7.31
682.632	7.39
683.04	7.48
683.448	7.6
683.856	7.71
684.264	7.84
684.671	7.97
685.079	8.12
685.487	8.31
685.894	8.51
686.302	8.73
686.709	8.98
687.116	9.26
687.524	9.56
687.931	9.89
688.338	10.26
688.745	10.65
689.152	11.06
689.559	11.52
689.966	11.98
690.373	12.49
690.78	13.02
691.187	13.57
691.593	14.14
692	14.71
692.407	15.31
692.813	15.92
693.22	16.53
693.626	17.19
694.032	17.84
694.439	18.52
694.845	19.19
695.251	19.86
695.657	20.53
696.063	21.23
696.469	21.93
696.875	22.62
697.281	23.32
697.687	24.03
698.093	24.72
698.498	25.39
698.904	26.06
699.31	26.71
699.715	27.38
700.12	28.02
700.526	28.64
700.931	29.27
701.337	29.89
701.742	30.48
702.147	31.07
702.552	31.65
702.957	32.21
703.362	32.75
703.767	33.28
704.172	33.82
704.577	34.34
704.981	34.87
705.386	35.36
705.791	35.87
706.195	36.36
706.6	36.84
707.004	37.31
707.408	37.78
707.813	38.26
708.217	38.7
708.621	39.16
709.025	39.58
709.43	40.01
709.834	40.44
710.237	40.86
710.641	41.28
711.045	41.69
711.449	42.1
711.853	42.51
712.256	42.88
712.66	43.29
713.064	43.65
713.467	44.01
713.87	44.36
714.274	44.7
714.677	45.03
715.08	45.34
715.484	45.66
715.887	45.98
716.29	46.25
716.693	46.6
717.096	46.89
717.499	47.2
717.901	47.54
718.304	47.84
718.707	48.14
719.109	48.44
719.512	48.73
719.915	49
720.317	49.24
720.719	49.49
721.122	49.7
721.524	49.95
721.926	50.18
722.328	50.39
722.731	50.58
723.133	50.78
723.535	50.97
723.937	51.15
724.338	51.33
724.74	51.55
725.142	51.8
725.544	51.98
725.945	52.16
726.347	52.3
726.748	52.43
727.15	52.57
727.551	52.75
727.952	52.91
728.354	53.07
728.755	53.19
729.156	53.31
729.557	53.36
729.958	53.46
730.359	53.55
730.76	53.68
731.161	53.81
731.562	53.95
731.962	54.02
732.363	54.11
732.763	54.18
733.164	54.28
733.564	54.37
733.965	54.46
734.365	54.56
734.766	54.67
735.166	54.76
735.566	54.84
735.966	54.91
736.366	54.99
736.766	55.05
737.166	55.13
737.566	55.18
737.966	55.24
738.365	55.31
738.765	55.37
739.165	55.4
739.564	55.43
739.964	55.47
740.363	55.49
740.763	55.53
741.162	55.58
741.561	55.61
741.96	55.64
742.36	55.7
742.759	55.73
743.158	55.76
743.557	55.77
743.955	55.81
744.354	55.84
744.753	55.9
745.152	55.96
745.55	55.99
745.949	56.03
746.348	56.09
746.746	56.08
747.144	56.1
747.543	56.11
747.941	56.17
748.339	56.18
748.737	56.16
749.136	56.15
749.534	56.12
749.932	56.12
750.33	56.11
750.727	56.13
751.125	56.14
751.523	56.13
751.921	56.14
752.318	56.13
752.716	56.15
753.113	56.18
753.511	56.22
753.908	56.25
754.305	56.26
754.703	56.25
755.1	56.22
755.497	56.25
755.894	56.27
756.291	56.28
756.688	56.25
757.085	56.25
757.482	56.24
757.878	56.22
758.275	56.21
758.672	56.21
759.068	56.26
759.465	56.28
759.861	56.27
760.258	56.27
760.654	56.26
761.05	56.3
761.447	56.31
761.843	56.31
762.239	56.28
762.635	56.28
763.031	56.27
763.427	56.22
763.822	56.23
764.218	56.23
764.614	56.24
765.01	56.22
765.405	56.18
765.801	56.15
766.196	56.16
766.592	56.15
766.987	56.15
767.382	56.14
767.778	56.15
768.173	56.12
768.568	56.09
768.963	56.09
769.358	56.1
769.753	56.11
770.148	56.13
770.542	56.12
770.937	56.14
771.332	56.14
771.726	56.16
772.121	56.15
772.515	56.13
772.91	56.12
773.304	56.1
773.699	56.1
774.093	56.09
774.487	56.06
774.881	56.07
775.275	56.06
775.669	56.05
776.063	56.02
776.457	56.01
776.851	56.01
777.245	55.98
777.638	55.98
778.032	55.97
778.425	56.01
778.819	56.01
779.212	56
779.606	55.98
779.999	55.99
780.392	56.01
780.786	56
781.179	56.02
781.572	56.08
781.965	56.09
782.358	56.09
782.751	56.08
783.143	56.09
783.536	56.07
783.929	56.08
784.322	56.07
784.714	56.07
785.107	56.08
785.499	56.05
785.891	56.03
786.284	56.07
786.676	56.06
787.068	56.04
787.46	56.06
787.852	56.08
788.245	56.08
788.636	56.07
789.028	56.07
789.42	56.05
789.812	56.07
790.204	56.09
790.595	56.04
790.987	56.05
791.378	56.06
791.77	56.05
792.161	56.03
792.553	56.03
792.944	56
793.335	56.02
793.726	56.06
794.117	56.03
794.508	56.01
794.899	56.02
795.29	56
795.681	55.97
796.072	55.96
796.463	55.98
796.853	55.95
797.244	55.99
797.634	55.95
798.025	55.93
798.415	55.95
798.806	55.92
799.196	55.93
799.586	55.94
799.976	55.95
800.366	55.95
800.756	55.94
801.146	55.99
801.536	55.98
801.926	55.96
802.316	55.97
802.706	55.99
803.095	56
803.485	55.99
803.874	55.97
804.264	55.97
804.653	55.96
805.043	55.96
805.432	55.93
805.821	55.92
806.21	55.96
806.599	55.97
806.988	55.93
807.377	55.93
807.766	55.94
808.155	55.92
808.544	55.93
808.933	55.94
809.321	55.94
809.71	55.94
810.098	55.93
810.487	55.91
810.875	55.88
811.264	55.89
811.652	55.88
812.04	55.86
812.428	55.89
812.816	55.87
813.204	55.84
813.592	55.81
813.98	55.82
814.368	55.82
814.756	55.81
815.144	55.8
815.531	55.78
815.919	55.77
816.306	55.78
816.694	55.73
817.081	55.75
817.469	55.77
817.856	55.78
818.243	55.76
818.63	55.77
819.017	55.76
819.404	55.75
819.791	55.77
820.178	55.78
820.565	55.77
820.952	55.78
821.339	55.76
821.725	55.75
822.112	55.76
822.498	55.79
822.885	55.79
823.271	55.77
823.657	55.75
824.044	55.73
824.43	55.74
824.816	55.74
825.202	55.75
825.588	55.75
825.974	55.76
826.36	55.74
826.746	55.72
827.132	55.71
827.517	55.72
827.903	55.74
828.289	55.77
828.674	55.75
829.06	55.75
829.445	55.71
829.83	55.71
830.216	55.69
830.601	55.67
830.986	55.66
831.371	55.63
831.756	55.65
832.141	55.63
832.526	55.61
832.911	55.57
833.295	55.56
833.68	55.6
834.065	55.61
834.449	55.6
834.834	55.63
835.218	55.64
835.603	55.64
835.987	55.58
836.371	55.56
836.755	55.54
837.139	55.54
837.524	55.54
837.908	55.55
838.291	55.57
838.675	55.56
839.059	55.55
839.443	55.55
839.827	55.57
840.21	55.59
840.594	55.63
840.977	55.63
841.361	55.64
841.744	55.63
842.127	55.6
842.511	55.57
842.894	55.55
843.277	55.54
843.66	55.51
844.043	55.49
844.426	55.49
844.809	55.49
845.191	55.52
845.574	55.53
845.957	55.54
846.339	55.54
846.722	55.57
847.104	55.6
847.487	55.61
847.869	55.64
848.252	55.67
848.634	55.68
849.016	55.7
849.398	55.7
849.78	55.68
850.162	55.68
850.544	55.67
850.926	55.66
851.307	55.67
851.689	55.67
852.071	55.67
852.452	55.64
852.834	55.65
853.215	55.63
853.597	55.62
853.978	55.63
854.359	55.64
854.741	55.65
855.122	55.62
855.503	55.58
855.884	55.57
856.265	55.57
856.646	55.55
857.026	55.55
857.407	55.56
857.788	55.53
858.169	55.54
858.549	55.53
858.93	55.52
859.31	55.55
859.69	55.58
860.071	55.59
860.451	55.62
860.831	55.63
861.211	55.61
861.591	55.59
861.971	55.6
862.351	55.59
862.731	55.59
863.111	55.59
863.491	55.59
863.87	55.57
864.25	55.54
864.629	55.53
865.009	55.51
865.388	55.51
865.768	55.49
866.147	55.51
866.526	55.5
866.905	55.49
867.284	55.47
867.663	55.41
868.042	55.41
868.421	55.44
868.8	55.42
869.179	55.42
869.558	55.43
869.936	55.44
870.315	55.41
870.693	55.4
871.072	55.4
871.45	55.44
871.828	55.47
872.207	55.5
872.585	55.47
872.963	55.47
873.341	55.47
873.719	55.45
874.097	55.44
874.475	55.49
874.853	55.51
875.23	55.53
875.608	55.52
875.986	55.53
876.363	55.51
876.741	55.54
877.118	55.55
877.495	55.58
877.873	55.62
878.25	55.64
878.627	55.63
879.004	55.64
879.381	55.65
879.758	55.62
880.135	55.63
880.512	55.62
880.889	55.63
881.265	55.61
881.642	55.59
882.019	55.58
882.395	55.55
882.772	55.53
883.148	55.5
883.524	55.47
883.901	55.48
884.277	55.45
884.653	55.42
885.029	55.4
885.405	55.4
885.781	55.4
886.157	55.39
886.532	55.41
886.908	55.41
887.284	55.41
887.659	55.39
888.035	55.36
888.411	55.38
888.786	55.4
889.161	55.43
889.537	55.44
889.912	55.45
890.287	55.44
890.662	55.44
891.037	55.44
891.412	55.43
891.787	55.42
892.162	55.43
892.536	55.41
892.911	55.4
893.286	55.38
893.66	55.37
894.035	55.33
894.409	55.31
894.784	55.3
895.158	55.29
895.532	55.29
895.906	55.3
896.281	55.28
896.655	55.29
897.029	55.28
897.402	55.27
897.776	55.26
898.15	55.28
898.524	55.31
898.898	55.3
899.271	55.3
899.645	55.31
900.018	55.33
900.392	55.36
900.765	55.39
901.138	55.41
901.511	55.41
901.884	55.44
902.258	55.45
902.631	55.46
903.003	55.49
903.376	55.51
903.749	55.51
904.122	55.53
904.495	55.54
904.867	55.52
905.24	55.53
905.612	55.55
905.985	55.51
906.357	55.51
906.729	55.5
907.102	55.5
907.474	55.51
907.846	55.52
908.218	55.53
908.59	55.53
908.962	55.55
909.334	55.53
909.705	55.5
910.077	55.53
910.449	55.53
910.82	55.51
911.192	55.46
911.563	55.43
911.935	55.41
912.306	55.4
912.677	55.4
913.048	55.38
913.419	55.36
913.79	55.39
914.161	55.39
914.532	55.38
914.903	55.39
915.274	55.41
915.645	55.42
916.015	55.42
916.386	55.41
916.756	55.39
917.127	55.41
917.497	55.44
917.868	55.42
918.238	55.4
918.608	55.43
918.978	55.42
919.348	55.44
919.718	55.43
920.088	55.46
920.458	55.47
920.828	55.47
921.198	55.42
921.567	55.41
921.937	55.4
922.306	55.38
922.676	55.34
923.045	55.32
923.415	55.3
923.784	55.32
924.153	55.32
924.522	55.33
924.891	55.32
925.26	55.34
925.629	55.34
925.998	55.33
926.367	55.35
926.736	55.38
927.104	55.4
927.473	55.39
927.842	55.33
928.21	55.32
928.578	55.28
928.947	55.27
929.315	55.21
929.683	55.21
930.051	55.2
930.42	55.18
930.788	55.12
931.156	55.06
931.523	55.05
931.891	55.08
932.259	55.04
932.627	54.99
932.994	54.98
933.362	54.99
933.729	55.01
934.097	54.99
934.464	54.96
934.831	54.96
935.199	55.02
935.566	54.96
935.933	54.93
936.3	54.91
936.667	54.94
937.034	54.98
937.401	55
937.767	54.91
938.134	54.91
938.501	54.94
938.867	55.03
939.234	55.01
939.6	55.03
939.967	55.02
940.333	55.09
940.699	55.12
941.065	55.07
941.431	55.03
941.798	55.07
942.163	55.01
942.529	55
942.895	54.92
943.261	54.88
943.627	54.89
943.992	54.86
944.358	54.81
944.723	54.81
945.089	54.81
945.454	54.84
945.82	54.8
946.185	54.84
946.55	54.79
946.915	54.84
947.28	54.79
947.645	54.79
948.01	54.86
948.375	54.86
948.74	54.83
949.104	54.83
949.469	54.81
949.834	54.82
950.198	54.79
950.562	54.75
950.927	54.66
951.291	54.59
951.655	54.51
952.02	54.46
952.384	54.39
952.748	54.36
953.112	54.32
953.476	54.31
953.839	54.24
954.203	54.23
954.567	54.22
954.931	54.19
955.294	54.22
955.658	54.35
956.021	54.33
956.385	54.3
956.748	54.26
957.111	54.21
957.474	54.17
957.837	54.15
958.2	54.17
958.563	54.16
958.926	54.16
959.289	54.17
959.652	54.05
960.015	54
960.377	54.02
960.74	54.06
961.102	54.12
961.465	54.14
961.827	54.2
962.189	54.15
962.552	54.13
962.914	54.14
963.276	54.15
963.638	54.16
964	54.17
964.362	54.18
964.724	54.1
965.085	54.06
965.447	54.01
965.809	54
966.17	54.01
966.532	54.02
966.893	54.04
967.255	54.02
967.616	54.04
967.977	54.07
968.338	54.07
968.699	54.13
969.061	54.08
969.421	54.13
969.782	54.13
970.143	54.11
970.504	54.15
970.865	54.18
971.225	54.15
971.586	54.15
971.946	54.1
972.307	54.03
972.667	53.97
973.027	54.01
973.388	54.02
973.748	54.04
974.108	54.1
974.468	53.98
974.828	53.97
975.188	54.03
975.548	54.02
975.907	54.03
976.267	54.08
976.627	54.14
976.986	54.11
977.346	54.06
977.705	54.09
978.064	54.08
978.424	54.21
978.783	54.18
979.142	54.05
979.501	54.06
979.86	54.08
980.219	54.03
980.578	53.99
980.937	54.05
981.296	54.03
981.654	54
982.013	53.99
982.371	53.9
982.73	53.91
983.088	53.97
983.447	53.99
983.805	54.02
984.163	54.06
984.521	54.07
984.879	54.01
985.237	54.01
985.595	54.05
985.953	54
986.311	53.99
986.669	54.01
987.026	54.02
987.384	53.92
987.741	53.87
988.099	53.88
988.456	53.87
988.814	53.94
989.171	53.92
989.528	53.84
989.885	53.83
990.242	53.89
990.599	53.92
990.956	53.92
991.313	54
991.67	54.02
992.027	54.07
992.383	54.2
992.74	54.22
993.096	54.2
993.453	54.18
993.809	54.2
994.165	54.21
994.522	54.16
994.878	54.14
995.234	54.07
995.59	54
995.946	53.98
996.302	53.92
996.658	53.86
997.013	53.9
997.369	53.95
997.725	53.91
998.08	53.92
998.436	53.89
998.791	53.99
999.147	54.09
999.502	54.02
999.857	53.98
1000.212	53.88
1000.567	53.96
1000.922	53.95
1001.277	53.97
1001.632	53.98
1001.987	53.84
1002.342	53.8
1002.696	53.71
1003.051	53.81
1003.406	53.97
1003.76	54.02
1004.114	54.08
1004.469	54.13
1004.823	54.3
1005.177	54.25
1005.531	54.38
1005.885	54.46
1006.239	54.46
1006.593	54.57
1006.947	54.46
1007.301	54.51
1007.655	54.55
1008.008	54.6
1008.362	54.54
1008.715	54.3
1009.069	54.49
1009.422	54.46
1009.776	54.54
1010.129	54.57
1010.482	54.49
1010.835	54.51
1011.188	54.42
1011.541	54.39
1011.894	54.34
1012.247	54.42
1012.6	54.64
1012.952	54.43
1013.305	54.33
1013.657	54.22
1014.01	54.46
1014.362	54.38
1014.715	54.36
1015.067	54.36
1015.419	54.46
1015.771	54.34
1016.123	54.2
1016.475	53.98
1016.827	54.1
1017.179	54.19
1017.531	54.38
1017.883	54.17
1018.234	54.25
1018.586	54.16
1018.938	54.27
1019.289	54.17
1019.64	54.25
1019.992	54.25
1020.343	54.42
1020.694	54.4
1021.045	54.43
1021.396	54.4
1021.747	54.52
1022.098	54.56
1022.449	54.53
1022.8	54.5
1023.151	54.36
1023.501	54.37
1023.852	54.53
1024.202	54.37
1024.553	54.22
1024.903	54.06
1025.253	53.92
1025.604	53.81
1025.954	53.45
1026.304	53.73
1026.654	53.68
1027.004	53.69
1027.354	53.5
1027.703	53.06
1028.053	53
1028.403	53.21
1028.753	53.11
1029.102	53.53
1029.452	53.82
1029.801	54.57
1030.15	54.38
1030.499	54.36
897.758	905.02
901.051	909.34
904.343	906.56
907.636	922.2
910.928	900.03
914.22	900.12
917.511	890.24
920.803	850.01
924.094	848.47
927.384	826.57
930.675	790.55
933.965	788.97
937.255	747.51
940.544	718.83
943.834	684.58
947.123	678.45
950.411	638.93
953.7	625.37
956.988	597.99
960.276	572.74
963.563	564.38
966.851	547.09
970.138	542.47
973.424	524.44
976.711	526.09
979.997	503.43
983.283	499.5
986.568	491.53
989.853	478.14
993.138	466.59
996.423	450.45
999.708	438.73
1002.992	433.58
1006.275	414.45
1009.559	412.67
1012.842	399.81
1016.125	388.93
1019.408	382.06
1022.69	377.33
1025.972	369.86
1029.254	362.53
1032.536	357.55
1035.817	350.31
1039.098	347.14
1042.379	341.47
1045.659	336.38
1048.939	328.9
1052.219	322.48
1055.498	319.22
1058.778	311.36
1062.057	305.61
1065.335	303.74
1068.614	299.94
1071.892	297.01
1075.17	288.1
1078.447	282.45
1081.724	280.25
1085.001	278.54
1088.278	273.62
1091.554	269.33
1094.83	268.66
1098.106	266.82
1101.382	265.03
1104.657	263.28
1107.932	259.44
1111.206	261.11
1114.481	255
1117.755	253.41
1121.029	251.43
1124.302	251.04
1127.575	245.46
1130.848	244.19
1134.121	241.01
1137.393	239.16
1140.665	234.4
1143.937	232.81
1147.208	232.94
1150.48	232.76
1153.75	230.09
1157.021	226.72
1160.291	226.75
1163.561	225.03
1166.831	225.3
1170.101	223.62
1173.37	223.75
1176.639	224.58
1179.907	221.97
1183.176	218.95
1186.444	219.19
1189.711	218.28
1192.979	218.49
1196.246	217.48
1199.513	218.28
1202.78	216.62
1206.046	216.77
1209.312	214.78
1212.578	214.97
1215.843	217.25
1219.108	215.26
1222.373	219.06
1225.638	220.45
1228.902	222.41
1232.166	222.41
1235.43	224.08
1238.693	227.23
1241.956	228.12
1245.219	230.39
1248.482	230.64
1251.744	230.24
1255.006	231.25
1258.268	226.43
1261.529	225.29
1264.79	223.53
1268.051	223
1271.312	220.06
1274.572	217.13
1277.832	215.89
1281.092	212.6
1284.351	211.16
1287.61	211.29
1290.869	208.85
1294.128	207.8
1297.386	207.52
1300.644	205.66
1303.902	205.77
1307.159	204.63
1310.416	204.36
1313.673	203.2
1316.93	205.79
1320.186	205.84
1323.442	206.3
1326.697	208.02
1329.953	208.63
1333.208	208.57
1336.463	211.27
1339.717	211.38
1342.972	213.61
1346.226	215.21
1349.479	216.44
1352.733	216.68
1355.986	217.52
1359.238	217.04
1362.491	218.09
1365.743	219.04
1368.995	219.38
1372.247	217.92
1375.498	217.15
1378.749	218.75
1382	215.7
1385.251	214.88
1388.501	213.22
1391.751	212.92
1395	211.94
1398.25	210.08
1401.499	208.31
1404.748	207.09
1407.996	205.41
1411.244	204.49
1414.492	202.17
1417.74	200.05
1420.987	197.95
1424.234	197.1
1427.481	193.68
1430.728	193.47
1433.974	192.07
1437.22	189.41
1440.465	189.07
1443.711	186.7
1446.956	185.33
1450.201	184
1453.445	182.26
1456.689	181.48
1459.933	178.63
1463.177	178.17
1466.42	174.81
1469.663	172.8
1472.906	172.66
1476.148	168.34
1479.391	167.14
1482.633	166.18
1485.874	163.5
1489.115	162.42
1492.356	160.87
1495.597	160.46
1498.838	158.17
1502.078	158.22
1505.318	157.99
1508.557	157.94
1511.797	158.41
1515.036	157.1
1518.274	156.52
1521.513	156.06
1524.751	155.98
1527.989	155.85
1531.227	155.72
1534.464	156.08
1537.701	155.02
1540.938	154.75
1544.174	153.3
1547.41	153.5
1550.646	153.23
1553.882	153.76
1557.117	152.03
1560.352	151.75
1563.587	151.75
1566.821	151.01
1570.055	149.53
1573.289	149.19
1576.523	149.08
1579.756	147.95
1582.989	147.38
1586.222	146.86
1589.454	146.3
1592.686	147.39
1595.918	146.91
1599.15	146.06
1602.381	146.5
1605.612	147.11
1608.843	147.21
1612.073	146.66
1615.303	147.97
1618.533	148.09
1621.762	148.74
1624.992	148.75
1628.221	148.82
1631.449	148.27
1634.678	148.59
1637.906	149.33
1641.134	149.37
1644.361	149.35
1647.588	150.05
1650.815	149.34
1654.042	148.87
1657.269	149.62
1660.495	149.76
1663.72	149.25
1666.946	150.22
1670.171	150.45
1673.396	150.04
1676.621	149.97
1679.845	150.36
1683.069	150.54
1686.293	151.3
1689.517	152.29
1692.74	152.1
1695.963	151.9
1699.185	153.32
1702.408	153.32
1705.63	153.89
1708.852	154.57
1712.073	154.72
1715.294	154.94
1718.515	155.59
1721.736	155.24
1724.956	155.27
1728.176	155.36
1731.396	156.49
1734.616	155.76
1737.835	156.18
1741.054	154.74
1744.272	155.29
1747.491	156.21
1750.709	156.14
1753.927	155.72
1757.144	155.76
1760.361	155.87
1763.578	156.25
1766.795	155.87
1770.011	156.88
1773.227	156.62
1776.443	158.36
1779.658	157.92
1782.874	158.07
1786.089	158.68
1789.303	159.15
1792.518	160.5
1795.732	160.28
1798.945	161.47
1802.159	162.25
1805.372	162.11
1808.585	164.77
1811.797	165.1
1815.01	165.44
1818.222	166.37
1821.434	167.71
1824.645	167.77
1827.856	170.91
1831.067	171.96
1834.278	170.68
1837.488	171.61
1840.698	172.82
1843.908	171.21
1847.117	171.73
1850.326	172.58
1853.535	171.19
1856.744	172.43
1859.952	172.51
1863.16	169.95
1866.368	168.76
1869.575	169.74
1872.782	166.74
1875.989	165.25
1879.196	163.85
1882.402	162.37
1885.608	161.8
1888.814	161.69
1892.019	160.57
1895.224	159.23
1898.429	158.57
1901.634	158.44
1904.838	158.42
1908.042	160.26
1911.246	159.42
1914.449	160.43
1917.652	159.89
1920.855	159.57
1924.058	159.25
1927.26	158.13
1930.462	158.5
1933.664	160.14
1936.865	159.3
1940.066	158.69
1943.267	157.17
1946.467	157.88
1949.668	158.92
1952.868	161.22
1956.067	161.82
1959.267	162.16
1962.466	162.64
1965.665	161.82
1968.863	162.1
1972.061	164.2
1975.259	165.24
1978.457	166.57
1981.654	169.04
1984.852	168.82
1988.048	168.18
1991.245	169.2
1994.441	171.77
1997.637	173.23
2000.833	177.21
2004.028	179.43
2007.223	181
2010.418	183.21
2013.613	185.96
2016.807	187.58
2020.001	189.73
2023.194	193.34
2026.388	197.7
2029.581	202.07
2032.774	204.06
2035.966	206.93
2039.158	207.32
2042.35	211.85
2045.542	213.07
2048.733	216.79
2051.924	220.08
2055.115	224.82
2058.306	224.69
2061.496	227.16
2064.686	225.76
2067.875	229.34
2071.065	231.54
2074.254	230.61
2077.442	232.73
2080.631	234.07
2083.819	236.64
2087.007	236.42
2090.195	237.92
2093.382	240.23
2096.569	239.28
2099.756	244.08
2102.942	245.22
2106.128	246.56
2109.314	252.81
2112.5	251.69
2115.685	258.28
2118.87	258.27
2122.055	264.38
2125.239	265.8
2128.424	268.98
2131.608	271.4
2134.791	275.04
2137.974	275.81
2141.157	277.47
2144.34	277.49
2147.523	281.56
2150.705	279.38
2153.887	282.27
2157.068	281.64
2160.25	278.63
2163.431	281.21
2166.611	283
2169.792	288.2
2172.972	290.94
2176.152	292.72
2179.331	296.85
2182.511	301.11
2185.69	303.44
2188.868	309.99
2192.047	310.62
2195.225	320.82
2198.403	325.5
2201.58	332.16
2204.758	337.65
2207.935	345.49
2211.111	350.8
2214.288	354.67
2217.464	355.41
2220.64	363.38
2223.815	366.06
2226.991	381.05
2230.166	381.88
2233.34	388.81
2236.515	395.36
2239.689	396.49
2242.863	397.19
2246.036	408.34
2249.209	406.56
2252.382	413.08
2255.555	423.66
2258.727	426.43
2261.9	427.79
2265.071	432.41
2268.243	440.21
2271.414	443.91
2274.585	451.95
2277.756	457.44
2280.926	461.47
2284.096	471.35
2287.266	480.87
2290.436	484.34
2293.605	495.5
2296.774	511.04
2299.942	524.15
2303.111	527.99
2306.279	541.64
2309.447	547.93
2312.614	560.28
2315.781	575.55
2318.948	601.23
2322.115	594.65
2325.281	626.83
2328.447	608.92
2331.613	631.2
2334.779	626.75
2337.944	654.11
2341.109	658.4
2344.274	678.16
2347.438	700.13
2350.602	698.75
2353.766	721.98
2356.929	732.87
2360.092	723.39
2363.255	780.52
2366.418	781.55
2369.58	797.61
2372.742	840.45
2375.904	863.51
2379.066	857.92
2382.227	843.53
2385.388	913.73
2388.548	910.78
2391.709	921.94
2394.869	1031.37
2398.029	985.58
2401.188	1013.13
2404.347	1005.55
2407.506	991.73
2410.665	1021.2
2413.823	1079.55
2416.981	1144.49
2420.139	1114.42
2423.296	1102.3
2426.453	1147.95
2429.61	1102.01
2432.767	1153.11
2435.923	1138.18
2439.079	1246.42
2442.235	1263.71
2445.391	1247.65
2448.546	1239.93
2451.701	1207.6
2454.855	1199.95
2458.009	1269.87
2461.163	1321.43
2464.317	1373.42
2467.471	1405.79
2470.624	1408.83
2473.777	1369.34
2476.929	1332.05
2480.082	1294.65
2483.234	1285.58
2486.385	1345.35
2489.537	1352.91
2492.688	1402.01
2495.839	1370.87
2498.989	1337.31
2502.14	1344.19
2505.29	1359.89
2508.439	1376.78
2511.589	1379.4
2514.738	1503.55
2517.887	1463.4
2521.035	1546.99
2524.183	1556.52
2527.331	1567.73
2530.479	1553.13
2533.627	1564.7
