Data from C_2_DEC_CT_2N_Splice17_13-30-03-796.txt Node
Date: Sat Mar 07 13:30:03 EST 2020
User: sa697716
Spectrometer: NQ5500242
Trigger mode: 0
Integration Time (sec): 1.450000E-1
Scans to average: 20
Nonlinearity correction enabled: false
Boxcar width: 5
Storing dark spectrum: false
XAxis mode: Wavelengths
Number of Pixels in Spectrum: 512
>>>>>Begin Spectral Data<<<<<
187.83	152.21
188.298	164.91
188.766	137.83
189.233	110.82
189.701	107.45
190.169	141.75
190.636	171.22
191.104	329.16
191.571	490.36
192.039	201.23
192.506	148.7
192.974	-21
193.441	-29.57
193.908	-46.67
194.375	0.21
194.842	-36.67
195.31	6.52
195.777	-11.43
196.244	47.97
196.711	51.79
197.177	52.2
197.644	52.02
198.111	52.89
198.578	53.59
199.045	53.69
199.511	53.38
199.978	53.34
200.445	53.75
200.911	54.02
201.378	54.21
201.844	54.15
202.31	54.06
202.777	53.98
203.243	53.65
203.709	53.31
204.176	52.89
204.642	52.53
205.108	52.25
205.574	51.56
206.04	50.9
206.506	50.4
206.972	50.14
207.438	49.9
207.903	49.42
208.369	48.52
208.835	47.69
209.301	46.7
209.766	45.35
210.232	44.15
210.697	43.07
211.163	41.95
211.628	40.9
212.094	40.01
212.559	39.18
213.024	38.24
213.49	37.58
213.955	36.65
214.42	35.72
214.885	34.87
215.35	33.74
215.815	32.03
216.28	30.02
216.745	27.9
217.21	25.72
217.675	23.53
218.14	21.79
218.604	20.23
219.069	18.93
219.534	17.93
219.998	17.05
220.463	16.25
220.927	15.63
221.392	15.18
221.856	14.73
222.32	14.35
222.785	14.05
223.249	13.74
223.713	13.44
224.177	13.2
224.642	12.96
225.106	12.7
225.57	12.47
226.034	12.26
226.497	12.04
226.961	11.84
227.425	11.64
227.889	11.45
228.353	11.26
228.816	11.09
229.28	10.91
229.744	10.76
230.207	10.63
230.671	10.49
231.134	10.35
231.597	10.23
232.061	10.1
232.524	9.97
232.987	9.85
233.45	9.75
233.914	9.65
234.377	9.54
234.84	9.43
235.303	9.33
235.766	9.23
236.229	9.14
236.691	9.03
237.154	8.94
237.617	8.86
238.08	8.77
238.542	8.67
239.005	8.59
239.468	8.51
239.93	8.43
240.393	8.36
240.855	8.27
241.317	8.18
241.78	8.1
242.242	8.01
242.704	7.94
243.166	7.86
243.629	7.8
244.091	7.71
244.553	7.64
245.015	7.56
245.477	7.48
245.939	7.42
246.4	7.36
246.862	7.3
247.324	7.24
247.786	7.17
248.247	7.11
248.709	7.04
249.17	6.97
249.632	6.92
250.093	6.87
250.555	6.82
251.016	6.78
251.477	6.72
251.939	6.68
252.4	6.64
252.861	6.61
253.322	6.56
253.783	6.53
254.244	6.5
254.705	6.46
255.166	6.42
255.627	6.39
256.088	6.35
256.549	6.32
257.009	6.27
257.47	6.23
257.931	6.18
258.391	6.13
258.852	6.08
259.312	6.04
259.773	6.01
260.233	5.97
260.694	5.92
261.154	5.88
261.614	5.85
262.074	5.81
262.534	5.78
262.994	5.76
263.455	5.73
263.915	5.7
264.374	5.68
264.834	5.65
265.294	5.63
265.754	5.61
266.214	5.59
266.673	5.57
267.133	5.56
267.593	5.55
268.052	5.53
268.512	5.52
268.971	5.51
269.431	5.5
269.89	5.49
270.349	5.48
270.809	5.47
271.268	5.46
271.727	5.44
272.186	5.43
272.645	5.42
273.104	5.41
273.563	5.4
274.022	5.38
274.481	5.37
274.94	5.36
275.399	5.35
275.857	5.34
276.316	5.33
276.775	5.32
277.233	5.31
277.692	5.31
278.15	5.29
278.609	5.28
279.067	5.27
279.525	5.26
279.984	5.24
280.442	5.23
280.9	5.22
281.358	5.21
281.816	5.2
282.274	5.18
282.732	5.16
283.19	5.14
283.648	5.13
284.106	5.11
284.564	5.1
285.021	5.09
285.479	5.08
285.937	5.06
286.394	5.05
286.852	5.03
287.309	5.02
287.767	5
288.224	4.99
288.682	4.97
289.139	4.95
289.596	4.93
290.053	4.9
290.511	4.88
290.968	4.87
291.425	4.85
291.882	4.83
292.339	4.82
292.796	4.8
293.252	4.79
293.709	4.78
294.166	4.77
294.623	4.76
295.079	4.75
295.536	4.75
295.992	4.74
296.449	4.73
296.905	4.72
297.362	4.71
297.818	4.7
298.274	4.7
298.731	4.69
299.187	4.67
299.643	4.67
300.099	4.66
300.555	4.65
301.011	4.64
301.467	4.63
301.923	4.62
302.379	4.61
302.835	4.61
303.291	4.6
303.746	4.6
304.202	4.59
304.658	4.59
305.113	4.58
305.569	4.58
306.024	4.57
306.479	4.56
306.935	4.56
307.39	4.55
307.845	4.55
308.301	4.55
308.756	4.55
309.211	4.54
309.666	4.55
310.121	4.54
310.576	4.54
311.031	4.54
311.486	4.54
311.94	4.54
312.395	4.54
312.85	4.54
313.305	4.53
313.759	4.53
314.214	4.52
314.668	4.5
315.123	4.5
315.577	4.49
316.032	4.48
316.486	4.47
316.94	4.46
317.394	4.44
317.849	4.43
318.303	4.41
318.757	4.39
319.211	4.39
319.665	4.37
320.119	4.37
320.572	4.35
321.026	4.35
321.48	4.35
321.934	4.34
322.387	4.34
322.841	4.34
323.295	4.34
323.748	4.33
324.202	4.33
324.655	4.32
325.108	4.31
325.562	4.3
326.015	4.29
326.468	4.29
326.921	4.28
327.374	4.27
327.827	4.26
328.28	4.25
328.733	4.24
329.186	4.24
329.639	4.24
330.092	4.24
330.545	4.23
330.997	4.22
331.45	4.22
331.903	4.22
332.355	4.23
332.808	4.22
333.26	4.22
333.713	4.21
334.165	4.2
334.617	4.2
335.069	4.19
335.522	4.2
335.974	4.2
336.426	4.19
336.878	4.18
337.33	4.18
337.782	4.17
338.234	4.17
338.686	4.18
339.137	4.17
339.589	4.16
340.041	4.15
340.493	4.14
340.944	4.13
341.396	4.12
341.847	4.11
342.299	4.1
342.75	4.08
343.201	4.07
343.653	4.06
344.104	4.04
344.555	4.04
345.006	4.02
345.457	4.01
345.908	4
346.359	3.99
346.81	3.99
347.261	3.99
347.712	3.98
348.163	3.97
348.613	3.96
349.064	3.96
349.515	3.96
349.965	3.95
350.416	3.94
350.866	3.93
351.317	3.93
351.767	3.92
352.217	3.91
352.668	3.91
353.118	3.91
353.568	3.89
354.018	3.9
354.468	3.91
354.918	3.9
355.368	3.91
355.818	3.92
356.268	3.92
356.718	3.92
357.168	3.91
357.617	3.91
358.067	3.9
358.517	3.92
358.966	3.92
359.416	3.92
359.865	3.91
360.315	3.91
360.764	3.91
361.213	3.9
361.663	3.91
362.112	3.91
362.561	3.91
363.01	3.91
363.459	3.89
363.908	3.88
364.357	3.88
364.806	3.87
365.255	3.88
365.703	3.88
366.152	3.89
366.601	3.89
367.05	3.89
367.498	3.89
367.947	3.9
368.395	3.91
368.844	3.92
369.292	3.92
369.74	3.92
370.189	3.91
370.637	3.91
371.085	3.9
371.533	3.89
371.981	3.88
372.429	3.88
372.877	3.87
373.325	3.87
373.773	3.86
374.221	3.86
374.669	3.85
375.116	3.85
375.564	3.84
376.012	3.84
376.459	3.84
376.907	3.84
377.354	3.84
377.801	3.84
378.249	3.84
378.696	3.84
379.143	3.84
379.591	3.84
380.038	3.84
380.485	3.85
380.932	3.85
381.379	3.86
381.826	3.85
382.273	3.84
382.72	3.84
383.166	3.84
383.613	3.84
384.06	3.84
384.506	3.84
384.953	3.85
385.4	3.85
385.846	3.87
386.292	3.87
386.739	3.88
387.185	3.88
387.631	3.89
388.078	3.89
388.524	3.9
388.97	3.92
389.416	3.92
389.862	3.94
390.308	3.97
390.754	3.99
391.2	4
391.645	4.01
392.091	4.04
392.537	4.06
392.983	4.08
393.428	4.11
393.874	4.13
394.319	4.15
394.765	4.16
395.21	4.17
395.655	4.18
396.101	4.21
396.546	4.24
396.991	4.26
397.436	4.29
397.881	4.32
398.326	4.35
398.771	4.39
399.216	4.42
399.661	4.46
400.106	4.49
400.551	4.52
400.995	4.55
401.44	4.58
401.885	4.61
402.329	4.64
402.774	4.67
403.218	4.7
403.663	4.72
404.107	4.75
404.551	4.79
404.995	4.81
405.44	4.84
405.884	4.88
406.328	4.91
406.772	4.93
407.216	4.96
407.66	4.98
408.104	4.99
408.547	5.02
408.991	5.05
409.435	5.06
409.879	5.1
410.322	5.12
410.766	5.15
411.209	5.17
411.653	5.21
412.096	5.22
412.54	5.25
412.983	5.28
413.426	5.33
413.869	5.35
414.312	5.4
414.756	5.43
415.199	5.47
415.642	5.5
416.085	5.52
416.527	5.52
416.97	5.53
417.413	5.55
417.856	5.57
418.298	5.57
418.741	5.58
419.184	5.57
419.626	5.58
420.069	5.58
420.511	5.59
420.953	5.6
421.396	5.64
421.838	5.66
422.28	5.68
422.722	5.71
423.164	5.71
423.606	5.73
424.048	5.75
424.49	5.76
424.932	5.77
425.374	5.75
425.816	5.74
426.258	5.72
426.699	5.7
427.141	5.7
427.582	5.69
428.024	5.71
428.465	5.71
428.907	5.7
429.348	5.69
429.789	5.68
430.231	5.7
430.672	5.71
431.113	5.73
431.554	5.75
431.995	5.76
432.436	5.77
432.877	5.77
433.318	5.79
433.759	5.81
434.2	5.84
434.64	5.86
435.081	5.87
435.522	5.89
435.962	5.91
436.403	5.94
436.843	5.95
437.284	5.94
437.724	5.96
438.164	5.96
438.604	5.97
439.045	5.97
439.485	5.99
439.925	6
440.365	6.02
440.805	6.02
441.245	6.05
441.685	6.07
442.125	6.13
442.564	6.15
443.004	6.17
443.444	6.19
443.883	6.24
444.323	6.24
444.762	6.28
445.202	6.32
445.641	6.36
446.081	6.4
446.52	6.43
446.959	6.48
447.398	6.51
447.837	6.55
448.276	6.58
448.716	6.62
449.154	6.68
449.593	6.72
450.032	6.73
450.471	6.74
450.91	6.75
451.349	6.77
451.787	6.76
452.226	6.78
452.664	6.78
453.103	6.79
453.541	6.78
453.98	6.79
454.418	6.77
454.856	6.77
455.295	6.77
455.733	6.76
456.171	6.77
456.609	6.76
457.047	6.75
457.485	6.75
457.923	6.74
458.361	6.75
458.798	6.74
459.236	6.74
459.674	6.73
460.111	6.73
460.549	6.75
460.987	6.74
461.424	6.75
461.862	6.76
462.299	6.76
462.736	6.76
463.173	6.76
463.611	6.77
464.048	6.78
464.485	6.79
464.922	6.79
465.359	6.79
465.796	6.8
466.233	6.8
466.67	6.82
467.106	6.83
467.543	6.82
467.98	6.82
468.416	6.8
468.853	6.81
469.29	6.81
469.726	6.83
470.162	6.83
470.599	6.82
471.035	6.81
471.471	6.79
471.907	6.8
472.344	6.81
472.78	6.83
473.216	6.84
473.652	6.83
474.088	6.84
474.523	6.83
474.959	6.83
475.395	6.83
475.831	6.84
476.266	6.86
476.702	6.84
477.138	6.84
477.573	6.83
478.008	6.83
478.444	6.84
478.879	6.84
479.314	6.82
479.75	6.82
480.185	6.81
480.62	6.8
481.055	6.79
481.49	6.79
481.925	6.78
482.36	6.79
482.795	6.79
483.229	6.79
483.664	6.79
484.099	6.81
484.534	6.82
484.968	6.84
485.403	6.87
485.837	6.89
486.271	6.92
486.706	6.95
487.14	6.98
487.574	7.01
488.009	7.05
488.443	7.09
488.877	7.13
489.311	7.18
489.745	7.23
490.179	7.29
490.613	7.34
491.046	7.4
491.48	7.46
491.914	7.53
492.348	7.61
492.781	7.69
493.215	7.77
493.648	7.86
494.082	7.94
494.515	8.03
494.948	8.12
495.382	8.22
495.815	8.33
496.248	8.44
496.681	8.55
497.114	8.67
497.547	8.79
497.98	8.91
498.413	9.04
498.846	9.18
499.279	9.31
499.711	9.46
500.144	9.62
500.577	9.77
501.009	9.93
501.442	10.1
501.874	10.27
502.306	10.45
502.739	10.66
503.171	10.84
503.603	11.04
504.036	11.25
504.468	11.46
504.9	11.65
505.332	11.87
505.764	12.09
506.196	12.32
506.627	12.55
507.059	12.78
507.491	13.01
507.923	13.26
508.354	13.52
508.786	13.78
509.217	14.04
509.649	14.32
510.08	14.59
510.512	14.87
510.943	15.15
511.374	15.42
511.805	15.71
512.237	16
512.668	16.27
513.099	16.54
513.53	16.84
513.961	17.13
514.391	17.42
514.822	17.71
515.253	17.98
515.684	18.26
516.114	18.56
516.545	18.85
516.975	19.15
517.406	19.45
517.836	19.74
518.267	20.03
518.697	20.29
519.127	20.54
519.558	20.81
519.988	21.1
520.418	21.35
520.848	21.6
521.278	21.84
521.708	22.22
522.138	22.46
522.567	22.67
522.997	22.88
523.427	23.09
523.857	23.32
524.286	23.51
524.716	23.68
525.145	23.88
525.575	24.06
526.004	24.22
526.433	24.24
526.863	24.4
527.292	24.57
527.721	24.71
528.15	24.85
528.579	24.97
529.008	25.11
529.437	25.23
529.866	25.35
530.295	25.45
530.724	25.56
531.152	25.67
531.581	25.76
532.01	25.83
532.438	25.92
532.867	26
533.295	26.08
533.723	26.15
534.152	26.22
534.58	26.28
535.008	26.32
535.436	26.37
535.865	26.42
536.293	26.46
536.721	26.52
537.149	26.57
537.576	26.63
538.004	26.67
538.432	26.7
538.86	26.73
539.287	26.75
539.715	26.81
540.143	26.83
540.57	26.87
540.998	26.89
541.425	26.92
541.852	26.94
542.28	26.97
542.707	26.99
543.134	27.02
543.561	27.04
543.988	27.07
544.415	27.08
544.842	27.1
545.269	27.12
545.696	27.16
546.123	27.17
546.549	27.19
546.976	27.21
547.403	27.22
547.829	27.25
548.256	27.26
548.682	27.28
549.108	27.29
549.535	27.31
549.961	27.31
550.387	27.31
550.813	27.31
551.24	27.29
551.666	27.29
552.092	27.29
552.518	27.28
552.943	27.28
553.369	27.27
553.795	27.27
554.221	27.24
554.646	27.23
555.072	27.21
555.498	27.18
555.923	27.16
556.349	27.11
556.774	27.07
557.199	27.03
557.625	26.97
558.05	26.91
558.475	26.83
558.9	26.78
559.325	26.72
559.75	26.66
560.175	26.6
560.6	26.53
561.025	26.47
561.449	26.4
561.874	26.32
562.299	26.25
562.723	26.17
563.148	26.08
563.572	25.98
563.997	25.88
564.421	25.76
564.846	25.66
565.27	25.54
565.694	25.41
566.118	25.31
566.542	25.2
566.966	25.08
567.39	24.97
567.814	24.86
568.238	24.75
568.662	24.64
569.086	24.53
569.509	24.4
569.933	24.31
570.357	24.2
570.78	24.07
571.204	23.96
571.627	23.85
572.05	23.72
572.474	23.62
572.897	23.51
573.32	23.39
573.743	23.29
574.166	23.2
574.589	23.08
575.012	22.98
575.435	22.89
575.858	22.77
576.281	22.67
576.704	22.59
577.126	22.5
577.549	22.4
577.972	22.31
578.394	22.22
578.817	22.13
579.239	22.05
579.661	21.98
580.084	21.89
580.506	21.83
580.928	21.75
581.35	21.67
581.772	21.58
582.194	21.52
582.616	21.46
583.038	21.4
583.46	21.32
583.882	21.25
584.303	21.17
584.725	21.11
585.147	21.05
585.568	20.99
585.99	20.93
586.411	20.88
586.833	20.81
587.254	20.74
587.675	20.69
588.096	20.65
588.518	20.6
588.939	20.57
589.36	20.5
589.781	20.45
590.202	20.44
590.623	20.4
591.043	20.36
591.464	20.33
591.885	20.3
592.305	20.27
592.726	20.25
593.147	20.21
593.567	20.18
593.987	20.15
594.408	20.12
594.828	20.07
595.248	20.04
595.669	20.02
596.089	20
596.509	19.98
596.929	19.95
597.349	19.91
597.769	19.89
598.189	19.85
598.608	19.84
599.028	19.8
599.448	19.77
599.867	19.74
600.287	19.69
600.706	19.64
601.126	19.59
601.545	19.55
601.965	19.51
602.384	19.45
602.803	19.4
603.222	19.33
603.641	19.28
604.061	19.22
604.48	19.15
604.898	19.09
605.317	19.01
605.736	18.94
606.155	18.88
606.574	18.8
606.992	18.73
607.411	18.66
607.829	18.56
608.248	18.46
608.666	18.37
609.085	18.28
609.503	18.21
609.921	18.14
610.339	18.06
610.758	17.98
611.176	17.89
611.594	17.81
612.012	17.72
612.43	17.65
612.847	17.59
613.265	17.52
613.683	17.45
614.101	17.36
614.518	17.29
614.936	17.21
615.353	17.12
615.771	17.06
616.188	16.98
616.606	16.93
617.023	16.88
617.44	16.81
617.857	16.74
618.274	16.69
618.691	16.63
619.108	16.57
619.525	16.52
619.942	16.48
620.359	16.45
620.776	16.41
621.192	16.37
621.609	16.35
622.026	16.31
622.442	16.29
622.859	16.25
623.275	16.24
623.691	16.21
624.108	16.2
624.524	16.18
624.94	16.16
625.356	16.15
625.772	16.12
626.188	16.1
626.604	16.1
627.02	16.09
627.436	16.1
627.852	16.08
628.268	16.07
628.683	16.06
629.099	16.05
629.514	16.03
629.93	16.01
630.345	15.99
630.761	15.95
631.176	15.91
631.591	15.87
632.007	15.84
632.422	15.8
632.837	15.74
633.252	15.67
633.667	15.61
634.082	15.54
634.497	15.46
634.911	15.39
635.326	15.32
635.741	15.24
636.155	15.14
636.57	15.05
636.984	14.94
637.399	14.83
637.813	14.72
638.228	14.61
638.642	14.48
639.056	14.35
639.47	14.23
639.884	14.1
640.298	13.95
640.712	13.81
641.126	13.67
641.54	13.53
641.954	13.39
642.368	13.25
642.781	13.12
643.195	12.98
643.609	12.85
644.022	12.71
644.436	12.59
644.849	12.47
645.262	12.35
645.676	12.24
646.089	12.13
646.502	12.05
646.915	11.96
647.328	11.86
647.741	11.78
648.154	11.69
648.567	11.61
648.98	11.54
649.393	11.47
649.805	11.42
650.218	11.36
650.631	11.3
651.043	11.23
651.456	11.16
651.868	11.1
652.28	11.04
652.693	10.98
653.105	10.91
653.517	10.83
653.929	10.76
654.341	10.68
654.753	10.58
655.165	10.49
655.577	10.39
655.989	10.29
656.401	10.18
656.813	10.08
657.224	9.95
657.636	9.82
658.047	9.69
658.459	9.55
658.87	9.41
659.282	9.27
659.693	9.12
660.104	8.99
660.515	8.85
660.926	8.72
661.338	8.58
661.749	8.46
662.159	8.34
662.57	8.22
662.981	8.11
663.392	8
663.803	7.89
664.213	7.78
664.624	7.68
665.035	7.59
665.445	7.51
665.855	7.42
666.266	7.35
666.676	7.27
667.086	7.19
667.497	7.13
667.907	7.08
668.317	7.03
668.727	6.98
669.137	6.93
669.547	6.89
669.956	6.84
670.366	6.81
670.776	6.78
671.186	6.76
671.595	6.75
672.005	6.72
672.414	6.72
672.824	6.71
673.233	6.71
673.642	6.72
674.052	6.72
674.461	6.73
674.87	6.74
675.279	6.76
675.688	6.79
676.097	6.81
676.506	6.84
676.915	6.86
677.323	6.9
677.732	6.94
678.141	6.99
678.549	7.05
678.958	7.11
679.366	7.19
679.775	7.27
680.183	7.36
680.592	7.49
681	7.61
681.408	7.75
681.816	7.92
682.224	8.1
682.632	8.31
683.04	8.52
683.448	8.76
683.856	9.02
684.264	9.31
684.671	9.62
685.079	9.94
685.487	10.3
685.894	10.69
686.302	11.1
686.709	11.53
687.116	11.97
687.524	12.46
687.931	12.96
688.338	13.46
688.745	13.97
689.152	14.51
689.559	15.07
689.966	15.65
690.373	16.21
690.78	16.78
691.187	17.34
691.593	17.92
692	18.47
692.407	19.03
692.813	19.61
693.22	20.17
693.626	20.72
694.032	21.25
694.439	21.76
694.845	22.28
695.251	22.8
695.657	23.29
696.063	23.78
696.469	24.28
696.875	24.77
697.281	25.21
697.687	25.66
698.093	26.11
698.498	26.53
698.904	26.95
699.31	27.33
699.715	27.72
700.12	28.12
700.526	28.47
700.931	28.81
701.337	29.16
701.742	29.49
702.147	29.81
702.552	30.14
702.957	30.44
703.362	30.74
703.767	31.02
704.172	31.29
704.577	31.55
704.981	31.83
705.386	32.08
705.791	32.31
706.195	32.55
706.6	32.81
707.004	33.01
707.408	33.25
707.813	33.48
708.217	33.72
708.621	33.94
709.025	34.14
709.43	34.33
709.834	34.53
710.237	34.71
710.641	34.89
711.045	35.07
711.449	35.28
711.853	35.44
712.256	35.6
712.66	35.75
713.064	35.91
713.467	36.05
713.87	36.22
714.274	36.35
714.677	36.52
715.08	36.64
715.484	36.77
715.887	36.91
716.29	37.02
716.693	37.15
717.096	37.3
717.499	37.43
717.901	37.57
718.304	37.67
718.707	37.82
719.109	37.93
719.512	38.05
719.915	38.14
720.317	38.22
720.719	38.32
721.122	38.41
721.524	38.49
721.926	38.58
722.328	38.67
722.731	38.76
723.133	38.83
723.535	38.89
723.937	38.99
724.338	39.09
724.74	39.19
725.142	39.35
725.544	39.42
725.945	39.5
726.347	39.55
726.748	39.6
727.15	39.65
727.551	39.73
727.952	39.78
728.354	39.83
728.755	39.87
729.156	39.89
729.557	39.85
729.958	39.88
730.359	39.88
730.76	39.94
731.161	39.99
731.562	40.03
731.962	40.03
732.363	40.08
732.763	40.13
733.164	40.15
733.564	40.19
733.965	40.22
734.365	40.25
734.766	40.29
735.166	40.32
735.566	40.35
735.966	40.39
736.366	40.42
736.766	40.44
737.166	40.48
737.566	40.49
737.966	40.52
738.365	40.55
738.765	40.59
739.165	40.6
739.564	40.63
739.964	40.65
740.363	40.67
740.763	40.7
741.162	40.7
741.561	40.67
741.96	40.68
742.36	40.68
742.759	40.71
743.158	40.71
743.557	40.72
743.955	40.73
744.354	40.72
744.753	40.73
745.152	40.74
745.55	40.76
745.949	40.8
746.348	40.83
746.746	40.85
747.144	40.85
747.543	40.85
747.941	40.89
748.339	40.86
748.737	40.85
749.136	40.85
749.534	40.83
749.932	40.82
750.33	40.82
750.727	40.82
751.125	40.8
751.523	40.79
751.921	40.81
752.318	40.82
752.716	40.84
753.113	40.85
753.511	40.86
753.908	40.91
754.305	40.92
754.703	40.9
755.1	40.91
755.497	40.92
755.894	40.92
756.291	40.92
756.688	40.89
757.085	40.9
757.482	40.91
757.878	40.88
758.275	40.85
758.672	40.85
759.068	40.86
759.465	40.85
759.861	40.83
760.258	40.82
760.654	40.81
761.05	40.83
761.447	40.83
761.843	40.81
762.239	40.82
762.635	40.81
763.031	40.83
763.427	40.82
763.822	40.83
764.218	40.86
764.614	40.87
765.01	40.86
765.405	40.84
765.801	40.83
766.196	40.84
766.592	40.84
766.987	40.83
767.382	40.82
767.778	40.82
768.173	40.82
768.568	40.81
768.963	40.8
769.358	40.82
769.753	40.84
770.148	40.83
770.542	40.84
770.937	40.87
771.332	40.88
771.726	40.88
772.121	40.87
772.515	40.88
772.91	40.89
773.304	40.92
773.699	40.89
774.093	40.88
774.487	40.89
774.881	40.91
775.275	40.89
775.669	40.89
776.063	40.88
776.457	40.89
776.851	40.86
777.245	40.83
777.638	40.8
778.032	40.81
778.425	40.86
778.819	40.87
779.212	40.87
779.606	40.89
779.999	40.89
780.392	40.93
780.786	40.94
781.179	40.97
781.572	41.01
781.965	41.04
782.358	41.06
782.751	41.02
783.143	41.04
783.536	41.01
783.929	41
784.322	41.04
784.714	41.02
785.107	41.05
785.499	41.05
785.891	41.05
786.284	41.04
786.676	41.03
787.068	41.03
787.46	41.05
787.852	41.06
788.245	41.09
788.636	41.04
789.028	41.05
789.42	41.03
789.812	41.05
790.204	41.07
790.595	41.1
790.987	41.12
791.378	41.15
791.77	41.14
792.161	41.16
792.553	41.16
792.944	41.2
793.335	41.22
793.726	41.23
794.117	41.2
794.508	41.17
794.899	41.16
795.29	41.16
795.681	41.14
796.072	41.16
796.463	41.14
796.853	41.12
797.244	41.12
797.634	41.11
798.025	41.12
798.415	41.13
798.806	41.13
799.196	41.14
799.586	41.15
799.976	41.15
800.366	41.14
800.756	41.16
801.146	41.19
801.536	41.21
801.926	41.22
802.316	41.21
802.706	41.23
803.095	41.25
803.485	41.25
803.874	41.26
804.264	41.28
804.653	41.3
805.043	41.29
805.432	41.3
805.821	41.29
806.21	41.29
806.599	41.31
806.988	41.33
807.377	41.32
807.766	41.34
808.155	41.33
808.544	41.34
808.933	41.34
809.321	41.35
809.71	41.34
810.098	41.33
810.487	41.33
810.875	41.32
811.264	41.3
811.652	41.34
812.04	41.34
812.428	41.37
812.816	41.38
813.204	41.38
813.592	41.38
813.98	41.39
814.368	41.4
814.756	41.39
815.144	41.4
815.531	41.43
815.919	41.42
816.306	41.41
816.694	41.4
817.081	41.39
817.469	41.4
817.856	41.4
818.243	41.38
818.63	41.38
819.017	41.38
819.404	41.36
819.791	41.32
820.178	41.31
820.565	41.31
820.952	41.32
821.339	41.32
821.725	41.3
822.112	41.29
822.498	41.32
822.885	41.33
823.271	41.35
823.657	41.34
824.044	41.38
824.43	41.4
824.816	41.39
825.202	41.38
825.588	41.39
825.974	41.39
826.36	41.41
826.746	41.39
827.132	41.39
827.517	41.4
827.903	41.43
828.289	41.45
828.674	41.45
829.06	41.44
829.445	41.45
829.83	41.45
830.216	41.45
830.601	41.45
830.986	41.45
831.371	41.45
831.756	41.46
832.141	41.44
832.526	41.42
832.911	41.41
833.295	41.42
833.68	41.43
834.065	41.41
834.449	41.4
834.834	41.37
835.218	41.37
835.603	41.37
835.987	41.34
836.371	41.33
836.755	41.33
837.139	41.3
837.524	41.3
837.908	41.31
838.291	41.34
838.675	41.34
839.059	41.38
839.443	41.37
839.827	41.37
840.21	41.39
840.594	41.41
840.977	41.39
841.361	41.42
841.744	41.4
842.127	41.38
842.511	41.37
842.894	41.38
843.277	41.36
843.66	41.37
844.043	41.36
844.426	41.35
844.809	41.33
845.191	41.35
845.574	41.34
845.957	41.35
846.339	41.34
846.722	41.34
847.104	41.35
847.487	41.35
847.869	41.34
848.252	41.33
848.634	41.36
849.016	41.37
849.398	41.38
849.78	41.39
850.162	41.39
850.544	41.41
850.926	41.4
851.307	41.39
851.689	41.39
852.071	41.4
852.452	41.43
852.834	41.43
853.215	41.43
853.597	41.43
853.978	41.42
854.359	41.43
854.741	41.43
855.122	41.46
855.503	41.46
855.884	41.47
856.265	41.48
856.646	41.47
857.026	41.48
857.407	41.49
857.788	41.49
858.169	41.51
858.549	41.52
858.93	41.52
859.31	41.51
859.69	41.52
860.071	41.52
860.451	41.54
860.831	41.55
861.211	41.53
861.591	41.53
861.971	41.52
862.351	41.52
862.731	41.54
863.111	41.56
863.491	41.56
863.87	41.56
864.25	41.56
864.629	41.55
865.009	41.54
865.388	41.53
865.768	41.53
866.147	41.52
866.526	41.52
866.905	41.49
867.284	41.47
867.663	41.47
868.042	41.47
868.421	41.47
868.8	41.47
869.179	41.48
869.558	41.49
869.936	41.49
870.315	41.49
870.693	41.5
871.072	41.54
871.45	41.55
871.828	41.58
872.207	41.59
872.585	41.58
872.963	41.61
873.341	41.61
873.719	41.62
874.097	41.61
874.475	41.63
874.853	41.64
875.23	41.65
875.608	41.65
875.986	41.67
876.363	41.67
876.741	41.69
877.118	41.68
877.495	41.72
877.873	41.71
878.25	41.72
878.627	41.73
879.004	41.72
879.381	41.7
879.758	41.69
880.135	41.67
880.512	41.64
880.889	41.62
881.265	41.6
881.642	41.58
882.019	41.6
882.395	41.59
882.772	41.58
883.148	41.56
883.524	41.55
883.901	41.56
884.277	41.53
884.653	41.51
885.029	41.51
885.405	41.5
885.781	41.49
886.157	41.51
886.532	41.51
886.908	41.5
887.284	41.52
887.659	41.51
888.035	41.48
888.411	41.49
888.786	41.48
889.161	41.49
889.537	41.5
889.912	41.5
890.287	41.47
890.662	41.47
891.037	41.49
891.412	41.47
891.787	41.45
892.162	41.46
892.536	41.47
892.911	41.49
893.286	41.5
893.66	41.51
894.035	41.52
894.409	41.51
894.784	41.51
895.158	41.5
895.532	41.52
895.906	41.54
896.281	41.56
896.655	41.55
897.029	41.54
897.402	41.52
897.776	41.52
898.15	41.5
898.524	41.51
898.898	41.5
899.271	41.5
899.645	41.51
900.018	41.54
900.392	41.54
900.765	41.56
901.138	41.55
901.511	41.57
901.884	41.56
902.258	41.58
902.631	41.6
903.003	41.62
903.376	41.63
903.749	41.63
904.122	41.62
904.495	41.62
904.867	41.64
905.24	41.68
905.612	41.68
905.985	41.68
906.357	41.68
906.729	41.68
907.102	41.7
907.474	41.71
907.846	41.71
908.218	41.7
908.59	41.69
908.962	41.69
909.334	41.7
909.705	41.69
910.077	41.7
910.449	41.72
910.82	41.73
911.192	41.71
911.563	41.7
911.935	41.68
912.306	41.69
912.677	41.71
913.048	41.72
913.419	41.68
913.79	41.68
914.161	41.71
914.532	41.68
914.903	41.66
915.274	41.66
915.645	41.64
916.015	41.64
916.386	41.62
916.756	41.6
917.127	41.58
917.497	41.59
917.868	41.61
918.238	41.58
918.608	41.59
918.978	41.6
919.348	41.61
919.718	41.61
920.088	41.63
920.458	41.65
920.828	41.65
921.198	41.63
921.567	41.62
921.937	41.62
922.306	41.64
922.676	41.63
923.045	41.63
923.415	41.64
923.784	41.64
924.153	41.65
924.522	41.64
924.891	41.63
925.26	41.65
925.629	41.67
925.998	41.66
926.367	41.67
926.736	41.67
927.104	41.66
927.473	41.62
927.842	41.6
928.21	41.61
928.578	41.58
928.947	41.59
929.315	41.58
929.683	41.55
930.051	41.5
930.42	41.49
930.788	41.48
931.156	41.49
931.523	41.52
931.891	41.59
932.259	41.58
932.627	41.59
932.994	41.55
933.362	41.5
933.729	41.52
934.097	41.55
934.464	41.52
934.831	41.52
935.199	41.53
935.566	41.54
935.933	41.46
936.3	41.47
936.667	41.46
937.034	41.59
937.401	41.66
937.767	41.71
938.134	41.73
938.501	41.76
938.867	41.8
939.234	41.79
939.6	41.75
939.967	41.83
940.333	41.82
940.699	41.84
941.065	41.7
941.431	41.68
941.798	41.66
942.163	41.65
942.529	41.65
942.895	41.62
943.261	41.59
943.627	41.63
943.992	41.61
944.358	41.59
944.723	41.62
945.089	41.67
945.454	41.7
945.82	41.67
946.185	41.68
946.55	41.67
946.915	41.68
947.28	41.69
947.645	41.68
948.01	41.7
948.375	41.7
948.74	41.67
949.104	41.62
949.469	41.58
949.834	41.52
950.198	41.51
950.562	41.46
950.927	41.4
951.291	41.38
951.655	41.31
952.02	41.25
952.384	41.2
952.748	41.17
953.112	41.17
953.476	41.1
953.839	41.07
954.203	41.01
954.567	41
954.931	40.96
955.294	40.94
955.658	40.95
956.021	40.92
956.385	40.89
956.748	40.87
957.111	40.85
957.474	40.87
957.837	40.89
958.2	40.83
958.563	40.81
958.926	40.8
959.289	40.81
959.652	40.8
960.015	40.79
960.377	40.79
960.74	40.77
961.102	40.77
961.465	40.83
961.827	40.87
962.189	40.93
962.552	40.96
962.914	40.97
963.276	40.95
963.638	40.91
964	40.89
964.362	40.94
964.724	40.92
965.085	40.87
965.447	40.78
965.809	40.69
966.17	40.64
966.532	40.57
966.893	40.57
967.255	40.54
967.616	40.53
967.977	40.56
968.338	40.51
968.699	40.53
969.061	40.51
969.421	40.55
969.782	40.6
970.143	40.64
970.504	40.65
970.865	40.72
971.225	40.72
971.586	40.72
971.946	40.67
972.307	40.62
972.667	40.6
973.027	40.65
973.388	40.66
973.748	40.67
974.108	40.71
974.468	40.7
974.828	40.7
975.188	40.68
975.548	40.67
975.907	40.7
976.267	40.73
976.627	40.78
976.986	40.7
977.346	40.65
977.705	40.61
978.064	40.57
978.424	40.6
978.783	40.55
979.142	40.53
979.501	40.58
979.86	40.61
980.219	40.62
980.578	40.6
980.937	40.62
981.296	40.62
981.654	40.67
982.013	40.63
982.371	40.58
982.73	40.58
983.088	40.66
983.447	40.57
983.805	40.55
984.163	40.51
984.521	40.54
984.879	40.59
985.237	40.59
985.595	40.62
985.953	40.65
986.311	40.71
986.669	40.68
987.026	40.63
987.384	40.69
987.741	40.7
988.099	40.72
988.456	40.65
988.814	40.67
989.171	40.71
989.528	40.68
989.885	40.64
990.242	40.62
990.599	40.73
990.956	40.72
991.313	40.76
991.67	40.82
992.027	41.03
992.383	41.11
992.74	41.16
993.096	41.17
993.453	41.16
993.809	41.23
994.165	41.3
994.522	41.32
994.878	41.38
995.234	41.31
995.59	41.26
995.946	41.09
996.302	41.05
996.658	41.1
997.013	41.16
997.369	41.2
997.725	41.21
998.08	41.21
998.436	41.12
998.791	41.2
999.147	41.3
999.502	41.28
999.857	41.38
1000.212	41.32
1000.567	41.28
1000.922	41.19
1001.277	41.22
1001.632	41.19
1001.987	41.21
1002.342	41.25
1002.696	41.18
1003.051	41.3
1003.406	41.48
1003.76	41.47
1004.114	41.62
1004.469	41.71
1004.823	42.05
1005.177	41.99
1005.531	42.08
1005.885	42.14
1006.239	42.22
1006.593	42.35
1006.947	42.31
1007.301	42.17
1007.655	42.09
1008.008	42.05
1008.362	42.07
1008.715	41.77
1009.069	41.79
1009.422	41.8
1009.776	41.8
1010.129	41.79
1010.482	41.7
1010.835	41.77
1011.188	41.97
1011.541	42.13
1011.894	42.29
1012.247	42.24
1012.6	42.38
1012.952	42.46
1013.305	42.52
1013.657	42.56
1014.01	42.74
1014.362	42.83
1014.715	43
1015.067	43.01
1015.419	43.16
1015.771	43.07
1016.123	43.14
1016.475	43.08
1016.827	43.16
1017.179	43.33
1017.531	43.37
1017.883	43.21
1018.234	43.26
1018.586	43.21
1018.938	43.3
1019.289	43.28
1019.64	43.27
1019.992	43.17
1020.343	43.21
1020.694	43.23
1021.045	43.17
1021.396	43.31
1021.747	43.66
1022.098	43.67
1022.449	43.54
1022.8	43.63
1023.151	43.53
1023.501	43.86
1023.852	44.04
1024.202	44.08
1024.553	44.14
1024.903	44.28
1025.253	44.4
1025.604	44.18
1025.954	43.95
1026.304	44.07
1026.654	44.11
1027.004	44.13
1027.354	43.95
1027.703	43.8
1028.053	43.78
1028.403	43.9
1028.753	43.75
1029.102	43.71
1029.452	43.81
1029.801	44.26
1030.15	44.23
1030.499	43.99
897.758	1419.97
901.051	1432.86
904.343	1423.22
907.636	1449.59
910.928	1410.49
914.22	1414.2
917.511	1394.69
920.803	1336.98
924.094	1332.04
927.384	1301.12
930.675	1246.22
933.965	1239.98
937.255	1165.22
940.544	1120.99
943.834	1067.72
947.123	1059.42
950.411	994.15
953.7	974.96
956.988	920.86
960.276	884.25
963.563	869.86
966.851	838.39
970.138	830.11
973.424	804.03
976.711	807.42
979.997	768.52
983.283	763.64
986.568	747.73
989.853	725.63
993.138	713.57
996.423	686.68
999.708	666.98
1002.992	660.26
1006.275	633.14
1009.559	627.23
1012.842	604.54
1016.125	586.19
1019.408	576.19
1022.69	568.07
1025.972	555.98
1029.254	542.62
1032.536	532.28
1035.817	522.51
1039.098	515.54
1042.379	504.48
1045.659	498.09
1048.939	487.34
1052.219	479.37
1055.498	471.22
1058.778	460.42
1062.057	451.11
1065.335	446.01
1068.614	440.65
1071.892	435.53
1075.17	421.61
1078.447	413.09
1081.724	411.54
1085.001	407.71
1088.278	398.25
1091.554	390.91
1094.83	391.42
1098.106	388.29
1101.382	384.3
1104.657	381.61
1107.932	375.84
1111.206	377.8
1114.481	368.09
1117.755	363.56
1121.029	360.47
1124.302	361.06
1127.575	353.64
1130.848	349.4
1134.121	345.5
1137.393	344.59
1140.665	336.27
1143.937	334.39
1147.208	332.09
1150.48	331.6
1153.75	327.82
1157.021	323.53
1160.291	323.05
1163.561	319.7
1166.831	319.92
1170.101	317.74
1173.37	316.72
1176.639	318.46
1179.907	315.07
1183.176	311.26
1186.444	311.07
1189.711	310.69
1192.979	310.11
1196.246	307.55
1199.513	309.49
1202.78	306.99
1206.046	306.77
1209.312	303.3
1212.578	303.97
1215.843	306.22
1219.108	305.33
1222.373	311.59
1225.638	314.02
1228.902	318.21
1232.166	319.33
1235.43	321.44
1238.693	325.53
1241.956	327.2
1245.219	333.52
1248.482	332.64
1251.744	332.49
1255.006	334.21
1258.268	325.23
1261.529	321.79
1264.79	318.61
1268.051	316.15
1271.312	312.68
1274.572	309.08
1277.832	306.08
1281.092	300.65
1284.351	298.51
1287.61	298.55
1290.869	293.03
1294.128	291.81
1297.386	291.88
1300.644	289.61
1303.902	290.57
1307.159	289.13
1310.416	289.05
1313.673	288.71
1316.93	291.42
1320.186	291.89
1323.442	292.35
1326.697	297.71
1329.953	298.98
1333.208	300.07
1336.463	303.51
1339.717	303.6
1342.972	307.55
1346.226	310.01
1349.479	310.38
1352.733	312.06
1355.986	312.58
1359.238	313.19
1362.491	314.57
1365.743	317.49
1368.995	317.61
1372.247	316.88
1375.498	317.43
1378.749	319.81
1382	315.91
1385.251	317.66
1388.501	315.77
1391.751	318.11
1395	316.4
1398.25	314.25
1401.499	312.17
1404.748	311.56
1407.996	309.18
1411.244	307.79
1414.492	305.7
1417.74	303.89
1420.987	298.89
1424.234	298.57
1427.481	294.99
1430.728	294.79
1433.974	291.81
1437.22	289.54
1440.465	288.18
1443.711	285.68
1446.956	284.1
1450.201	279.65
1453.445	277.95
1456.689	277.09
1459.933	272.01
1463.177	269.46
1466.42	265.59
1469.663	261.84
1472.906	260.16
1476.148	253.93
1479.391	251.04
1482.633	248.51
1485.874	245.58
1489.115	243.1
1492.356	241.12
1495.597	241.04
1498.838	237.31
1502.078	235.56
1505.318	235.13
1508.557	234.59
1511.797	235.05
1515.036	233.69
1518.274	232.81
1521.513	230.37
1524.751	230.23
1527.989	228.79
1531.227	227.75
1534.464	228.34
1537.701	226.68
1540.938	226.04
1544.174	223.53
1547.41	222.92
1550.646	221.73
1553.882	221.88
1557.117	219.43
1560.352	218.09
1563.587	217.06
1566.821	215.76
1570.055	213.61
1573.289	212.18
1576.523	211.79
1579.756	210.47
1582.989	209.01
1586.222	209.09
1589.454	207.55
1592.686	209.84
1595.918	208.51
1599.15	208.24
1602.381	208.42
1605.612	208.12
1608.843	209.16
1612.073	208.67
1615.303	209.49
1618.533	209.53
1621.762	209.39
1624.992	209.46
1628.221	208.6
1631.449	208.76
1634.678	207.99
1637.906	208.81
1641.134	209.22
1644.361	208.54
1647.588	209.39
1650.815	208.48
1654.042	208.11
1657.269	209.17
1660.495	209.3
1663.72	208.65
1666.946	209.41
1670.171	210.32
1673.396	210.19
1676.621	209.69
1679.845	209.95
1683.069	210.13
1686.293	211.36
1689.517	212.5
1692.74	211.59
1695.963	212.85
1699.185	214.63
1702.408	214.59
1705.63	215.53
1708.852	215.79
1712.073	216.71
1715.294	217.22
1718.515	218.67
1721.736	218.33
1724.956	219.01
1728.176	219.28
1731.396	220.96
1734.616	220.16
1737.835	221.1
1741.054	219.66
1744.272	220.48
1747.491	222.79
1750.709	222.93
1753.927	222.47
1757.144	222.04
1760.361	222.85
1763.578	223.45
1766.795	222.67
1770.011	224.57
1773.227	224.51
1776.443	227.08
1779.658	227.97
1782.874	227.07
1786.089	228.32
1789.303	229.12
1792.518	231.51
1795.732	231.26
1798.945	233.65
1802.159	233.7
1805.372	233.99
1808.585	237.9
1811.797	239.14
1815.01	239.38
1818.222	241.14
1821.434	242.53
1824.645	243.66
1827.856	247.96
1831.067	249.97
1834.278	248.91
1837.488	250.64
1840.698	252.47
1843.908	250.19
1847.117	251.38
1850.326	252.71
1853.535	252.82
1856.744	256.58
1859.952	255.99
1863.16	254.08
1866.368	252.15
1869.575	255.3
1872.782	251.03
1875.989	250.97
1879.196	250.1
1882.402	247.61
1885.608	248.33
1888.814	248.46
1892.019	247.85
1895.224	246.89
1898.429	246.2
1901.634	247.64
1904.838	247.89
1908.042	251.02
1911.246	251.01
1914.449	252.49
1917.652	252.91
1920.855	253.47
1924.058	252.09
1927.26	250.43
1930.462	251.58
1933.664	254.28
1936.865	252.73
1940.066	251.79
1943.267	250.44
1946.467	250.55
1949.668	252.26
1952.868	255.07
1956.067	254.36
1959.267	255.7
1962.466	256.79
1965.665	255.23
1968.863	255.33
1972.061	258.84
1975.259	261.07
1978.457	263.84
1981.654	265.68
1984.852	265.96
1988.048	265.65
1991.245	268.28
1994.441	271.19
1997.637	273.04
2000.833	279.01
2004.028	283.24
2007.223	283.85
2010.418	286.39
2013.613	291.4
2016.807	294.36
2020.001	297.23
2023.194	301.54
2026.388	308.51
2029.581	314.61
2032.774	318.18
2035.966	323.66
2039.158	323.42
2042.35	330.3
2045.542	333.59
2048.733	337.93
2051.924	342.54
2055.115	348.29
2058.306	348.91
2061.496	352.61
2064.686	352.67
2067.875	359.2
2071.065	361
2074.254	359.36
2077.442	363.63
2080.631	364.57
2083.819	368.15
2087.007	368.96
2090.195	372.87
2093.382	376.65
2096.569	373.34
2099.756	379.29
2102.942	378.97
2106.128	382.32
2109.314	391.94
2112.5	390.29
2115.685	400.09
2118.87	400.3
2122.055	408.65
2125.239	411.73
2128.424	416.31
2131.608	420.62
2134.791	426.72
2137.974	428.76
2141.157	429.86
2144.34	430.42
2147.523	438.51
2150.705	433.57
2153.887	438.54
2157.068	438.53
2160.25	435.01
2163.431	437.27
2166.611	441.01
2169.792	449.7
2172.972	452.93
2176.152	456.7
2179.331	462.47
2182.511	468.78
2185.69	474.96
2188.868	484.45
2192.047	484.93
2195.225	498.44
2198.403	511.37
2201.58	521.35
2204.758	531.38
2207.935	544.34
2211.111	554.28
2214.288	561.05
2217.464	563.06
2220.64	570.24
2223.815	576.47
2226.991	602.57
2230.166	603.14
2233.34	612.57
2236.515	622.94
2239.689	621.82
2242.863	624.76
2246.036	642.99
2249.209	635.98
2252.382	647.75
2255.555	669.01
2258.727	672.15
2261.9	672.45
2265.071	679.71
2268.243	691.42
2271.414	697.81
2274.585	713.36
2277.756	721.89
2280.926	725.13
2284.096	744.84
2287.266	760.93
2290.436	765.25
2293.605	782.67
2296.774	808.35
2299.942	833.13
2303.111	838.29
2306.279	857.77
2309.447	871.43
2312.614	890.44
2315.781	914.8
2318.948	957.04
2322.115	941.39
2325.281	990.62
2328.447	971.69
2331.613	1012.1
2334.779	1001.26
2337.944	1041.97
2341.109	1051.83
2344.274	1079.22
2347.438	1120.39
2350.602	1118.27
2353.766	1153.99
2356.929	1170.68
2360.092	1161.92
2363.255	1244.27
2366.418	1238.23
2369.58	1264
2372.742	1345.87
2375.904	1379.94
2379.066	1369.99
2382.227	1342.24
2385.388	1458.71
2388.548	1456.2
2391.709	1475.05
2394.869	1643.33
2398.029	1577.56
2401.188	1624.81
2404.347	1615.31
2407.506	1585.03
2410.665	1632.6
2413.823	1728.12
2416.981	1830.66
2420.139	1773.09
2423.296	1751.77
2426.453	1824.96
2429.61	1759.82
2432.767	1838.45
2435.923	1816.06
2439.079	1980.63
2442.235	2012.69
2445.391	1989.96
2448.546	1978.2
2451.701	1923.85
2454.855	1918.72
2458.009	2046.71
2461.163	2125.67
2464.317	2203.7
2467.471	2260.1
2470.624	2263.54
2473.777	2201.86
2476.929	2141.86
2480.082	2081.67
2483.234	2058.31
2486.385	2162.49
2489.537	2172.96
2492.688	2245.36
2495.839	2193.27
2498.989	2141.79
2502.14	2151.01
2505.29	2173.06
2508.439	2214.74
2511.589	2207.68
2514.738	2409.46
2517.887	2357.19
2521.035	2496.03
2524.183	2517.38
2527.331	2531.78
2530.479	2519.37
2533.627	2542.72
