Data from C_2_DEC_NC_4N_Splice17_13-28-34-757.txt Node
Date: Sat Mar 07 13:28:34 EST 2020
User: sa697716
Spectrometer: NQ5500242
Trigger mode: 0
Integration Time (sec): 1.450000E-1
Scans to average: 20
Nonlinearity correction enabled: false
Boxcar width: 5
Storing dark spectrum: false
XAxis mode: Wavelengths
Number of Pixels in Spectrum: 512
>>>>>Begin Spectral Data<<<<<
187.83	99.62
188.298	132.82
188.766	113.18
189.233	89.06
189.701	101.66
190.169	129.93
190.636	132.81
191.104	120.44
191.571	82.1
192.039	79.48
192.506	-248.68
192.974	0.55
193.441	118.67
193.908	15.29
194.375	-38.42
194.842	36.87
195.31	57.1
195.777	145.76
196.244	48.43
196.711	46.24
197.177	48.29
197.644	47
198.111	47.14
198.578	47.69
199.045	47.91
199.511	48.31
199.978	47.77
200.445	47.61
200.911	47.38
201.378	47.22
201.844	47.1
202.31	46.67
202.777	46.62
203.243	46.32
203.709	46.01
204.176	45.61
204.642	45.09
205.108	44.71
205.574	44.68
206.04	43.99
206.506	43.47
206.972	43.39
207.438	42.77
207.903	42.09
208.369	41.29
208.835	40.32
209.301	39.4
209.766	38.17
210.232	36.99
210.697	35.84
211.163	34.87
211.628	34.17
212.094	33.22
212.559	32.43
213.024	31.58
213.49	30.96
213.955	30.05
214.42	29.18
214.885	28.5
215.35	27.71
215.815	26.34
216.28	24.51
216.745	22.33
217.21	20.27
217.675	18.46
218.14	16.79
218.604	15.31
219.069	14.12
219.534	13.14
219.998	12.27
220.463	11.5
220.927	10.81
221.392	10.37
221.856	10.01
222.32	9.68
222.785	9.4
223.249	9.15
223.713	8.93
224.177	8.73
224.642	8.56
225.106	8.35
225.57	8.17
226.034	8.07
226.497	7.91
226.961	7.75
227.425	7.62
227.889	7.47
228.353	7.36
228.816	7.23
229.28	7.1
229.744	6.98
230.207	6.89
230.671	6.78
231.134	6.67
231.597	6.59
232.061	6.5
232.524	6.42
232.987	6.35
233.45	6.28
233.914	6.21
234.377	6.14
234.84	6.07
235.303	6.02
235.766	5.97
236.229	5.93
236.691	5.86
237.154	5.8
237.617	5.75
238.08	5.7
238.542	5.64
239.005	5.6
239.468	5.55
239.93	5.51
240.393	5.46
240.855	5.4
241.317	5.36
241.78	5.31
242.242	5.26
242.704	5.21
243.166	5.16
243.629	5.12
244.091	5.07
244.553	5.03
245.015	4.97
245.477	4.92
245.939	4.87
246.4	4.83
246.862	4.78
247.324	4.75
247.786	4.71
248.247	4.67
248.709	4.62
249.17	4.59
249.632	4.55
250.093	4.53
250.555	4.5
251.016	4.47
251.477	4.44
251.939	4.43
252.4	4.4
252.861	4.37
253.322	4.36
253.783	4.33
254.244	4.32
254.705	4.29
255.166	4.26
255.627	4.23
256.088	4.21
256.549	4.19
257.009	4.16
257.47	4.14
257.931	4.1
258.391	4.08
258.852	4.06
259.312	4.03
259.773	4.01
260.233	3.99
260.694	3.98
261.154	3.95
261.614	3.93
262.074	3.9
262.534	3.87
262.994	3.86
263.455	3.83
263.915	3.82
264.374	3.8
264.834	3.79
265.294	3.77
265.754	3.76
266.214	3.74
266.673	3.73
267.133	3.73
267.593	3.72
268.052	3.71
268.512	3.71
268.971	3.7
269.431	3.69
269.89	3.68
270.349	3.68
270.809	3.67
271.268	3.67
271.727	3.66
272.186	3.65
272.645	3.65
273.104	3.64
273.563	3.63
274.022	3.63
274.481	3.62
274.94	3.62
275.399	3.62
275.857	3.62
276.316	3.6
276.775	3.6
277.233	3.6
277.692	3.59
278.15	3.59
278.609	3.59
279.067	3.59
279.525	3.59
279.984	3.58
280.442	3.58
280.9	3.58
281.358	3.58
281.816	3.58
282.274	3.58
282.732	3.58
283.19	3.57
283.648	3.56
284.106	3.56
284.564	3.56
285.021	3.57
285.479	3.56
285.937	3.56
286.394	3.56
286.852	3.55
287.309	3.55
287.767	3.54
288.224	3.53
288.682	3.52
289.139	3.51
289.596	3.5
290.053	3.48
290.511	3.47
290.968	3.46
291.425	3.44
291.882	3.43
292.339	3.41
292.796	3.41
293.252	3.4
293.709	3.39
294.166	3.39
294.623	3.38
295.079	3.37
295.536	3.37
295.992	3.37
296.449	3.36
296.905	3.36
297.362	3.36
297.818	3.35
298.274	3.36
298.731	3.36
299.187	3.35
299.643	3.34
300.099	3.34
300.555	3.33
301.011	3.33
301.467	3.33
301.923	3.32
302.379	3.32
302.835	3.32
303.291	3.31
303.746	3.31
304.202	3.31
304.658	3.32
305.113	3.31
305.569	3.32
306.024	3.31
306.479	3.31
306.935	3.31
307.39	3.31
307.845	3.31
308.301	3.32
308.756	3.33
309.211	3.32
309.666	3.33
310.121	3.34
310.576	3.33
311.031	3.33
311.486	3.35
311.94	3.35
312.395	3.35
312.85	3.35
313.305	3.35
313.759	3.34
314.214	3.35
314.668	3.34
315.123	3.33
315.577	3.33
316.032	3.33
316.486	3.31
316.94	3.31
317.394	3.29
317.849	3.28
318.303	3.26
318.757	3.25
319.211	3.24
319.665	3.22
320.119	3.22
320.572	3.21
321.026	3.2
321.48	3.19
321.934	3.18
322.387	3.17
322.841	3.17
323.295	3.17
323.748	3.17
324.202	3.17
324.655	3.17
325.108	3.18
325.562	3.18
326.015	3.17
326.468	3.17
326.921	3.17
327.374	3.17
327.827	3.18
328.28	3.18
328.733	3.18
329.186	3.17
329.639	3.17
330.092	3.16
330.545	3.16
330.997	3.16
331.45	3.17
331.903	3.17
332.355	3.18
332.808	3.17
333.26	3.17
333.713	3.17
334.165	3.17
334.617	3.17
335.069	3.17
335.522	3.18
335.974	3.18
336.426	3.18
336.878	3.16
337.33	3.17
337.782	3.17
338.234	3.17
338.686	3.16
339.137	3.17
339.589	3.16
340.041	3.17
340.493	3.16
340.944	3.15
341.396	3.14
341.847	3.13
342.299	3.12
342.75	3.11
343.201	3.09
343.653	3.09
344.104	3.06
344.555	3.05
345.006	3.03
345.457	3.02
345.908	3.01
346.359	3.01
346.81	3
347.261	2.99
347.712	2.99
348.163	2.98
348.613	2.98
349.064	2.98
349.515	2.98
349.965	2.99
350.416	2.99
350.866	2.98
351.317	2.98
351.767	2.98
352.217	2.99
352.668	2.99
353.118	2.99
353.568	2.99
354.018	2.99
354.468	3
354.918	3
355.368	3
355.818	3.01
356.268	3.01
356.718	3.01
357.168	3.01
357.617	3
358.067	3.01
358.517	3.01
358.966	3.02
359.416	3.02
359.865	3.01
360.315	3.01
360.764	3.01
361.213	3
361.663	2.99
362.112	3
362.561	3
363.01	2.99
363.459	2.98
363.908	2.97
364.357	2.98
364.806	2.96
365.255	2.97
365.703	2.97
366.152	2.97
366.601	2.98
367.05	2.98
367.498	2.97
367.947	2.97
368.395	2.98
368.844	2.98
369.292	2.97
369.74	2.98
370.189	2.98
370.637	2.98
371.085	2.98
371.533	2.97
371.981	2.97
372.429	2.97
372.877	2.97
373.325	2.96
373.773	2.95
374.221	2.95
374.669	2.95
375.116	2.94
375.564	2.93
376.012	2.93
376.459	2.93
376.907	2.93
377.354	2.94
377.801	2.95
378.249	2.95
378.696	2.95
379.143	2.95
379.591	2.96
380.038	2.97
380.485	2.98
380.932	2.98
381.379	2.98
381.826	2.99
382.273	2.99
382.72	2.98
383.166	2.99
383.613	3
384.06	2.99
384.506	3
384.953	3
385.4	3.01
385.846	3.02
386.292	3.03
386.739	3.03
387.185	3.03
387.631	3.05
388.078	3.06
388.524	3.06
388.97	3.07
389.416	3.08
389.862	3.09
390.308	3.12
390.754	3.13
391.2	3.15
391.645	3.17
392.091	3.19
392.537	3.21
392.983	3.21
393.428	3.23
393.874	3.24
394.319	3.26
394.765	3.27
395.21	3.28
395.655	3.29
396.101	3.31
396.546	3.32
396.991	3.34
397.436	3.36
397.881	3.39
398.326	3.41
398.771	3.44
399.216	3.45
399.661	3.48
400.106	3.51
400.551	3.53
400.995	3.54
401.44	3.55
401.885	3.57
402.329	3.59
402.774	3.6
403.218	3.64
403.663	3.66
404.107	3.68
404.551	3.69
404.995	3.71
405.44	3.71
405.884	3.73
406.328	3.76
406.772	3.77
407.216	3.77
407.66	3.79
408.104	3.78
408.547	3.78
408.991	3.8
409.435	3.81
409.879	3.83
410.322	3.86
410.766	3.88
411.209	3.9
411.653	3.93
412.096	3.96
412.54	3.98
412.983	4
413.426	4.05
413.869	4.07
414.312	4.1
414.756	4.11
415.199	4.11
415.642	4.12
416.085	4.13
416.527	4.11
416.97	4.11
417.413	4.11
417.856	4.11
418.298	4.1
418.741	4.11
419.184	4.1
419.626	4.1
420.069	4.11
420.511	4.12
420.953	4.13
421.396	4.15
421.838	4.16
422.28	4.18
422.722	4.19
423.164	4.21
423.606	4.21
424.048	4.23
424.49	4.24
424.932	4.25
425.374	4.23
425.816	4.21
426.258	4.2
426.699	4.19
427.141	4.18
427.582	4.19
428.024	4.18
428.465	4.18
428.907	4.18
429.348	4.16
429.789	4.16
430.231	4.19
430.672	4.2
431.113	4.21
431.554	4.23
431.995	4.25
432.436	4.25
432.877	4.26
433.318	4.28
433.759	4.31
434.2	4.33
434.64	4.35
435.081	4.36
435.522	4.38
435.962	4.41
436.403	4.43
436.843	4.45
437.284	4.46
437.724	4.46
438.164	4.44
438.604	4.46
439.045	4.46
439.485	4.46
439.925	4.47
440.365	4.49
440.805	4.49
441.245	4.5
441.685	4.52
442.125	4.54
442.564	4.57
443.004	4.58
443.444	4.57
443.883	4.59
444.323	4.59
444.762	4.59
445.202	4.58
445.641	4.61
446.081	4.61
446.52	4.61
446.959	4.64
447.398	4.66
447.837	4.69
448.276	4.72
448.716	4.75
449.154	4.78
449.593	4.81
450.032	4.83
450.471	4.83
450.91	4.83
451.349	4.85
451.787	4.82
452.226	4.82
452.664	4.81
453.103	4.8
453.541	4.8
453.98	4.81
454.418	4.8
454.856	4.79
455.295	4.8
455.733	4.78
456.171	4.77
456.609	4.79
457.047	4.78
457.485	4.77
457.923	4.77
458.361	4.76
458.798	4.76
459.236	4.75
459.674	4.75
460.111	4.74
460.549	4.76
460.987	4.76
461.424	4.76
461.862	4.77
462.299	4.78
462.736	4.78
463.173	4.78
463.611	4.78
464.048	4.78
464.485	4.79
464.922	4.8
465.359	4.8
465.796	4.82
466.233	4.82
466.67	4.83
467.106	4.83
467.543	4.83
467.98	4.83
468.416	4.82
468.853	4.82
469.29	4.81
469.726	4.81
470.162	4.8
470.599	4.79
471.035	4.79
471.471	4.78
471.907	4.77
472.344	4.77
472.78	4.78
473.216	4.78
473.652	4.78
474.088	4.79
474.523	4.79
474.959	4.79
475.395	4.78
475.831	4.78
476.266	4.78
476.702	4.77
477.138	4.77
477.573	4.77
478.008	4.77
478.444	4.76
478.879	4.76
479.314	4.75
479.75	4.75
480.185	4.73
480.62	4.73
481.055	4.72
481.49	4.73
481.925	4.72
482.36	4.72
482.795	4.71
483.229	4.71
483.664	4.72
484.099	4.72
484.534	4.72
484.968	4.74
485.403	4.75
485.837	4.77
486.271	4.78
486.706	4.79
487.14	4.81
487.574	4.83
488.009	4.86
488.443	4.87
488.877	4.91
489.311	4.93
489.745	4.96
490.179	4.99
490.613	5.02
491.046	5.06
491.48	5.1
491.914	5.15
492.348	5.2
492.781	5.25
493.215	5.31
493.648	5.37
494.082	5.42
494.515	5.48
494.948	5.54
495.382	5.6
495.815	5.67
496.248	5.74
496.681	5.82
497.114	5.9
497.547	5.97
497.98	6.06
498.413	6.15
498.846	6.25
499.279	6.35
499.711	6.46
500.144	6.58
500.577	6.69
501.009	6.81
501.442	6.94
501.874	7.07
502.306	7.2
502.739	7.35
503.171	7.5
503.603	7.64
504.036	7.79
504.468	7.95
504.9	8.11
505.332	8.29
505.764	8.48
506.196	8.66
506.627	8.85
507.059	9.05
507.491	9.23
507.923	9.45
508.354	9.67
508.786	9.9
509.217	10.13
509.649	10.37
510.08	10.61
510.512	10.85
510.943	11.1
511.374	11.36
511.805	11.61
512.237	11.89
512.668	12.14
513.099	12.4
513.53	12.67
513.961	12.94
514.391	13.22
514.822	13.5
515.253	13.77
515.684	14.06
516.114	14.34
516.545	14.64
516.975	14.93
517.406	15.22
517.836	15.51
518.267	15.81
518.697	16.09
519.127	16.37
519.558	16.66
519.988	16.93
520.418	17.2
520.848	17.46
521.278	17.72
521.708	18.14
522.138	18.39
522.567	18.63
522.997	18.87
523.427	19.12
523.857	19.35
524.286	19.55
524.716	19.77
525.145	19.99
525.575	20.2
526.004	20.4
526.433	20.42
526.863	20.61
527.292	20.8
527.721	20.98
528.15	21.14
528.579	21.3
529.008	21.47
529.437	21.62
529.866	21.75
530.295	21.89
530.724	22.01
531.152	22.14
531.581	22.26
532.01	22.38
532.438	22.5
532.867	22.59
533.295	22.69
533.723	22.78
534.152	22.87
534.58	22.95
535.008	23.01
535.436	23.09
535.865	23.15
536.293	23.21
536.721	23.25
537.149	23.29
537.576	23.34
538.004	23.39
538.432	23.43
538.86	23.47
539.287	23.5
539.715	23.55
540.143	23.57
540.57	23.6
540.998	23.62
541.425	23.66
541.852	23.69
542.28	23.72
542.707	23.74
543.134	23.76
543.561	23.8
543.988	23.83
544.415	23.85
544.842	23.86
545.269	23.88
545.696	23.92
546.123	23.94
546.549	23.97
546.976	24
547.403	24.02
547.829	24.04
548.256	24.04
548.682	24.06
549.108	24.09
549.535	24.12
549.961	24.12
550.387	24.12
550.813	24.12
551.24	24.12
551.666	24.1
552.092	24.09
552.518	24.08
552.943	24.06
553.369	24.03
553.795	23.98
554.221	23.94
554.646	23.92
555.072	23.9
555.498	23.85
555.923	23.8
556.349	23.75
556.774	23.69
557.199	23.63
557.625	23.56
558.05	23.51
558.475	23.45
558.9	23.39
559.325	23.32
559.75	23.24
560.175	23.15
560.6	23.08
561.025	23
561.449	22.91
561.874	22.81
562.299	22.72
562.723	22.62
563.148	22.51
563.572	22.39
563.997	22.27
564.421	22.14
564.846	22.02
565.27	21.89
565.694	21.76
566.118	21.63
566.542	21.52
566.966	21.38
567.39	21.24
567.814	21.1
568.238	20.96
568.662	20.82
569.086	20.7
569.509	20.56
569.933	20.42
570.357	20.27
570.78	20.13
571.204	19.98
571.627	19.84
572.05	19.72
572.474	19.59
572.897	19.46
573.32	19.33
573.743	19.2
574.166	19.09
574.589	18.96
575.012	18.86
575.435	18.75
575.858	18.65
576.281	18.54
576.704	18.44
577.126	18.35
577.549	18.26
577.972	18.15
578.394	18.06
578.817	17.98
579.239	17.9
579.661	17.81
580.084	17.73
580.506	17.65
580.928	17.57
581.35	17.51
581.772	17.42
582.194	17.35
582.616	17.28
583.038	17.22
583.46	17.14
583.882	17.08
584.303	17.01
584.725	16.94
585.147	16.88
585.568	16.82
585.99	16.75
586.411	16.68
586.833	16.62
587.254	16.55
587.675	16.49
588.096	16.43
588.518	16.38
588.939	16.31
589.36	16.27
589.781	16.21
590.202	16.17
590.623	16.13
591.043	16.08
591.464	16.04
591.885	15.99
592.305	15.94
592.726	15.91
593.147	15.86
593.567	15.83
593.987	15.79
594.408	15.75
594.828	15.7
595.248	15.67
595.669	15.65
596.089	15.62
596.509	15.61
596.929	15.58
597.349	15.54
597.769	15.51
598.189	15.48
598.608	15.45
599.028	15.41
599.448	15.37
599.867	15.33
600.287	15.3
600.706	15.26
601.126	15.21
601.545	15.17
601.965	15.14
602.384	15.1
602.803	15.04
603.222	14.99
603.641	14.94
604.061	14.89
604.48	14.82
604.898	14.75
605.317	14.69
605.736	14.63
606.155	14.56
606.574	14.49
606.992	14.41
607.411	14.36
607.829	14.26
608.248	14.18
608.666	14.11
609.085	14.03
609.503	13.96
609.921	13.87
610.339	13.8
610.758	13.72
611.176	13.63
611.594	13.56
612.012	13.48
612.43	13.42
612.847	13.34
613.265	13.26
613.683	13.19
614.101	13.13
614.518	13.06
614.936	12.98
615.353	12.9
615.771	12.84
616.188	12.78
616.606	12.72
617.023	12.68
617.44	12.62
617.857	12.57
618.274	12.52
618.691	12.46
619.108	12.41
619.525	12.37
619.942	12.33
620.359	12.3
620.776	12.26
621.192	12.22
621.609	12.19
622.026	12.16
622.442	12.13
622.859	12.1
623.275	12.08
623.691	12.06
624.108	12.04
624.524	12.02
624.94	12.01
625.356	12
625.772	11.99
626.188	11.98
626.604	11.97
627.02	11.96
627.436	11.95
627.852	11.94
628.268	11.93
628.683	11.91
629.099	11.89
629.514	11.87
629.93	11.86
630.345	11.83
630.761	11.79
631.176	11.76
631.591	11.72
632.007	11.69
632.422	11.65
632.837	11.6
633.252	11.53
633.667	11.48
634.082	11.4
634.497	11.33
634.911	11.24
635.326	11.16
635.741	11.08
636.155	10.98
636.57	10.87
636.984	10.76
637.399	10.65
637.813	10.54
638.228	10.43
638.642	10.32
639.056	10.18
639.47	10.07
639.884	9.95
640.298	9.82
640.712	9.69
641.126	9.56
641.54	9.43
641.954	9.31
642.368	9.18
642.781	9.06
643.195	8.94
643.609	8.83
644.022	8.71
644.436	8.6
644.849	8.5
645.262	8.4
645.676	8.3
646.089	8.21
646.502	8.12
646.915	8.05
647.328	7.97
647.741	7.9
648.154	7.84
648.567	7.78
648.98	7.72
649.393	7.68
649.805	7.64
650.218	7.59
650.631	7.55
651.043	7.51
651.456	7.47
651.868	7.42
652.28	7.38
652.693	7.34
653.105	7.3
653.517	7.24
653.929	7.19
654.341	7.13
654.753	7.07
655.165	7.02
655.577	6.96
655.989	6.88
656.401	6.81
656.813	6.74
657.224	6.65
657.636	6.57
658.047	6.5
658.459	6.41
658.87	6.32
659.282	6.23
659.693	6.15
660.104	6.06
660.515	5.97
660.926	5.88
661.338	5.79
661.749	5.7
662.159	5.62
662.57	5.55
662.981	5.47
663.392	5.4
663.803	5.33
664.213	5.25
664.624	5.19
665.035	5.13
665.445	5.08
665.855	5.03
666.266	4.98
666.676	4.95
667.086	4.89
667.497	4.87
667.907	4.83
668.317	4.81
668.727	4.79
669.137	4.77
669.547	4.77
669.956	4.75
670.366	4.75
670.776	4.74
671.186	4.74
671.595	4.74
672.005	4.73
672.414	4.74
672.824	4.74
673.233	4.75
673.642	4.75
674.052	4.76
674.461	4.78
674.87	4.8
675.279	4.82
675.688	4.85
676.097	4.88
676.506	4.91
676.915	4.94
677.323	4.98
677.732	5.02
678.141	5.06
678.549	5.1
678.958	5.15
679.366	5.21
679.775	5.27
680.183	5.33
680.592	5.42
681	5.51
681.408	5.6
681.816	5.72
682.224	5.83
682.632	5.97
683.04	6.11
683.448	6.27
683.856	6.43
684.264	6.62
684.671	6.83
685.079	7.06
685.487	7.31
685.894	7.6
686.302	7.89
686.709	8.21
687.116	8.54
687.524	8.93
687.931	9.33
688.338	9.76
688.745	10.2
689.152	10.65
689.559	11.13
689.966	11.63
690.373	12.13
690.78	12.66
691.187	13.19
691.593	13.75
692	14.29
692.407	14.84
692.813	15.41
693.22	15.97
693.626	16.55
694.032	17.11
694.439	17.67
694.845	18.24
695.251	18.79
695.657	19.35
696.063	19.89
696.469	20.44
696.875	20.99
697.281	21.52
697.687	22.05
698.093	22.56
698.498	23.08
698.904	23.59
699.31	24.08
699.715	24.59
700.12	25.08
700.526	25.57
700.931	26.03
701.337	26.48
701.742	26.92
702.147	27.34
702.552	27.78
702.957	28.17
703.362	28.57
703.767	28.95
704.172	29.31
704.577	29.68
704.981	30.04
705.386	30.42
705.791	30.77
706.195	31.13
706.6	31.49
707.004	31.81
707.408	32.16
707.813	32.49
708.217	32.81
708.621	33.14
709.025	33.43
709.43	33.71
709.834	33.99
710.237	34.27
710.641	34.54
711.045	34.8
711.449	35.08
711.853	35.36
712.256	35.59
712.66	35.83
713.064	36.07
713.467	36.31
713.87	36.57
714.274	36.8
714.677	37.03
715.08	37.23
715.484	37.45
715.887	37.67
716.29	37.85
716.693	38.06
717.096	38.27
717.499	38.48
717.901	38.68
718.304	38.85
718.707	39.03
719.109	39.2
719.512	39.39
719.915	39.55
720.317	39.69
720.719	39.85
721.122	40
721.524	40.15
721.926	40.3
722.328	40.45
722.731	40.57
723.133	40.71
723.535	40.83
723.937	40.95
724.338	41.08
724.74	41.22
725.142	41.43
725.544	41.52
725.945	41.65
726.347	41.71
726.748	41.8
727.15	41.91
727.551	42.02
727.952	42.09
728.354	42.18
728.755	42.24
729.156	42.31
729.557	42.28
729.958	42.35
730.359	42.41
730.76	42.51
731.161	42.57
731.562	42.63
731.962	42.65
732.363	42.75
732.763	42.84
733.164	42.91
733.564	42.99
733.965	43.05
734.365	43.11
734.766	43.16
735.166	43.21
735.566	43.25
735.966	43.33
736.366	43.39
736.766	43.4
737.166	43.4
737.566	43.44
737.966	43.44
738.365	43.47
738.765	43.5
739.165	43.54
739.564	43.57
739.964	43.6
740.363	43.59
740.763	43.62
741.162	43.65
741.561	43.66
741.96	43.68
742.36	43.72
742.759	43.74
743.158	43.77
743.557	43.76
743.955	43.78
744.354	43.78
744.753	43.82
745.152	43.86
745.55	43.88
745.949	43.92
746.348	43.95
746.746	43.96
747.144	44
747.543	44.02
747.941	44.04
748.339	44.04
748.737	44.06
749.136	44.06
749.534	44.02
749.932	44.04
750.33	44.04
750.727	44.05
751.125	44.09
751.523	44.07
751.921	44.08
752.318	44.11
752.716	44.13
753.113	44.15
753.511	44.15
753.908	44.19
754.305	44.19
754.703	44.18
755.1	44.19
755.497	44.17
755.894	44.16
756.291	44.15
756.688	44.14
757.085	44.12
757.482	44.1
757.878	44.13
758.275	44.12
758.672	44.12
759.068	44.14
759.465	44.13
759.861	44.12
760.258	44.14
760.654	44.15
761.05	44.17
761.447	44.18
761.843	44.21
762.239	44.18
762.635	44.2
763.031	44.21
763.427	44.18
763.822	44.18
764.218	44.18
764.614	44.18
765.01	44.18
765.405	44.15
765.801	44.15
766.196	44.14
766.592	44.14
766.987	44.14
767.382	44.13
767.778	44.13
768.173	44.11
768.568	44.1
768.963	44.07
769.358	44.08
769.753	44.08
770.148	44.08
770.542	44.08
770.937	44.09
771.332	44.09
771.726	44.09
772.121	44.11
772.515	44.11
772.91	44.13
773.304	44.17
773.699	44.17
774.093	44.17
774.487	44.17
774.881	44.19
775.275	44.15
775.669	44.13
776.063	44.1
776.457	44.1
776.851	44.1
777.245	44.06
777.638	44.03
778.032	44.01
778.425	44.01
778.819	44
779.212	44.01
779.606	44.03
779.999	44.01
780.392	44.03
780.786	44.02
781.179	44.05
781.572	44.1
781.965	44.11
782.358	44.1
782.751	44.08
783.143	44.09
783.536	44.09
783.929	44.07
784.322	44.1
784.714	44.12
785.107	44.14
785.499	44.16
785.891	44.16
786.284	44.19
786.676	44.23
787.068	44.24
787.46	44.26
787.852	44.25
788.245	44.26
788.636	44.25
789.028	44.24
789.42	44.23
789.812	44.22
790.204	44.21
790.595	44.18
790.987	44.18
791.378	44.18
791.77	44.15
792.161	44.16
792.553	44.19
792.944	44.22
793.335	44.19
793.726	44.22
794.117	44.2
794.508	44.2
794.899	44.21
795.29	44.22
795.681	44.22
796.072	44.24
796.463	44.25
796.853	44.22
797.244	44.21
797.634	44.23
798.025	44.23
798.415	44.24
798.806	44.25
799.196	44.26
799.586	44.26
799.976	44.28
800.366	44.26
800.756	44.24
801.146	44.26
801.536	44.25
801.926	44.25
802.316	44.26
802.706	44.27
803.095	44.26
803.485	44.24
803.874	44.23
804.264	44.23
804.653	44.24
805.043	44.25
805.432	44.28
805.821	44.29
806.21	44.3
806.599	44.31
806.988	44.3
807.377	44.31
807.766	44.32
808.155	44.3
808.544	44.29
808.933	44.3
809.321	44.31
809.71	44.29
810.098	44.3
810.487	44.29
810.875	44.3
811.264	44.31
811.652	44.32
812.04	44.31
812.428	44.34
812.816	44.34
813.204	44.33
813.592	44.31
813.98	44.3
814.368	44.3
814.756	44.32
815.144	44.3
815.531	44.28
815.919	44.28
816.306	44.29
816.694	44.28
817.081	44.3
817.469	44.32
817.856	44.32
818.243	44.31
818.63	44.31
819.017	44.29
819.404	44.28
819.791	44.28
820.178	44.27
820.565	44.24
820.952	44.23
821.339	44.21
821.725	44.21
822.112	44.24
822.498	44.25
822.885	44.27
823.271	44.25
823.657	44.23
824.044	44.24
824.43	44.27
824.816	44.29
825.202	44.29
825.588	44.3
825.974	44.29
826.36	44.27
826.746	44.27
827.132	44.25
827.517	44.26
827.903	44.31
828.289	44.32
828.674	44.33
829.06	44.32
829.445	44.3
829.83	44.29
830.216	44.26
830.601	44.25
830.986	44.24
831.371	44.24
831.756	44.26
832.141	44.24
832.526	44.22
832.911	44.19
833.295	44.18
833.68	44.19
834.065	44.19
834.449	44.2
834.834	44.2
835.218	44.19
835.603	44.18
835.987	44.16
836.371	44.14
836.755	44.14
837.139	44.12
837.524	44.15
837.908	44.19
838.291	44.19
838.675	44.18
839.059	44.17
839.443	44.18
839.827	44.15
840.21	44.15
840.594	44.15
840.977	44.14
841.361	44.16
841.744	44.09
842.127	44.03
842.511	44.02
842.894	44.02
843.277	44.01
843.66	44
844.043	44.01
844.426	44.02
844.809	44.01
845.191	44.02
845.574	44.02
845.957	44.03
846.339	44.03
846.722	44.03
847.104	44.04
847.487	44.05
847.869	44.06
848.252	44.04
848.634	44.05
849.016	44.07
849.398	44.08
849.78	44.06
850.162	44.08
850.544	44.1
850.926	44.13
851.307	44.13
851.689	44.12
852.071	44.14
852.452	44.16
852.834	44.18
853.215	44.17
853.597	44.16
853.978	44.18
854.359	44.18
854.741	44.18
855.122	44.16
855.503	44.15
855.884	44.16
856.265	44.15
856.646	44.14
857.026	44.13
857.407	44.12
857.788	44.13
858.169	44.15
858.549	44.14
858.93	44.14
859.31	44.13
859.69	44.16
860.071	44.18
860.451	44.18
860.831	44.18
861.211	44.15
861.591	44.18
861.971	44.17
862.351	44.17
862.731	44.18
863.111	44.17
863.491	44.19
863.87	44.15
864.25	44.13
864.629	44.14
865.009	44.14
865.388	44.15
865.768	44.15
866.147	44.15
866.526	44.15
866.905	44.16
867.284	44.16
867.663	44.15
868.042	44.18
868.421	44.19
868.8	44.18
869.179	44.18
869.558	44.18
869.936	44.17
870.315	44.16
870.693	44.15
871.072	44.14
871.45	44.12
871.828	44.13
872.207	44.13
872.585	44.14
872.963	44.18
873.341	44.17
873.719	44.17
874.097	44.16
874.475	44.18
874.853	44.18
875.23	44.21
875.608	44.23
875.986	44.26
876.363	44.26
876.741	44.26
877.118	44.22
877.495	44.22
877.873	44.24
878.25	44.28
878.627	44.29
879.004	44.29
879.381	44.29
879.758	44.26
880.135	44.24
880.512	44.23
880.889	44.22
881.265	44.21
881.642	44.21
882.019	44.22
882.395	44.19
882.772	44.15
883.148	44.14
883.524	44.09
883.901	44.11
884.277	44.08
884.653	44.06
885.029	44.08
885.405	44.09
885.781	44.09
886.157	44.07
886.532	44.07
886.908	44.07
887.284	44.08
887.659	44.08
888.035	44.06
888.411	44.07
888.786	44.08
889.161	44.06
889.537	44.06
889.912	44.06
890.287	44.05
890.662	44.04
891.037	44.04
891.412	44.02
891.787	44.02
892.162	44.04
892.536	44.03
892.911	44
893.286	44
893.66	43.98
894.035	43.99
894.409	44
894.784	44.02
895.158	44.02
895.532	44.03
895.906	44.03
896.281	44.02
896.655	44.02
897.029	44.02
897.402	44.02
897.776	44.02
898.15	44.01
898.524	44.01
898.898	44
899.271	43.98
899.645	44.01
900.018	44.03
900.392	44.02
900.765	44.04
901.138	44.06
901.511	44.07
901.884	44.08
902.258	44.08
902.631	44.09
903.003	44.09
903.376	44.11
903.749	44.07
904.122	44.07
904.495	44.1
904.867	44.1
905.24	44.12
905.612	44.12
905.985	44.1
906.357	44.09
906.729	44.11
907.102	44.11
907.474	44.12
907.846	44.14
908.218	44.13
908.59	44.12
908.962	44.14
909.334	44.13
909.705	44.14
910.077	44.14
910.449	44.16
910.82	44.15
911.192	44.16
911.563	44.16
911.935	44.16
912.306	44.19
912.677	44.2
913.048	44.18
913.419	44.19
913.79	44.19
914.161	44.24
914.532	44.21
914.903	44.22
915.274	44.21
915.645	44.2
916.015	44.21
916.386	44.18
916.756	44.16
917.127	44.2
917.497	44.2
917.868	44.21
918.238	44.17
918.608	44.22
918.978	44.2
919.348	44.21
919.718	44.22
920.088	44.24
920.458	44.23
920.828	44.24
921.198	44.21
921.567	44.21
921.937	44.19
922.306	44.18
922.676	44.15
923.045	44.14
923.415	44.1
923.784	44.07
924.153	44.06
924.522	44.08
924.891	44.08
925.26	44.1
925.629	44.09
925.998	44.06
926.367	44.07
926.736	44.05
927.104	44.08
927.473	44.08
927.842	44.06
928.21	44.03
928.578	44.02
928.947	44.05
929.315	44.03
929.683	43.99
930.051	44
930.42	44
930.788	43.98
931.156	43.94
931.523	43.96
931.891	44.03
932.259	44.03
932.627	44.03
932.994	44.02
933.362	44
933.729	44.03
934.097	44.04
934.464	44.05
934.831	44.08
935.199	44.12
935.566	44.13
935.933	44.02
936.3	44.01
936.667	43.98
937.034	43.96
937.401	44
937.767	44
938.134	44.01
938.501	44.02
938.867	44.05
939.234	44.05
939.6	44.02
939.967	44.09
940.333	44.1
940.699	44.14
941.065	44.15
941.431	44.1
941.798	44.08
942.163	44.03
942.529	43.98
942.895	43.95
943.261	43.91
943.627	43.89
943.992	43.83
944.358	43.86
944.723	43.84
945.089	43.76
945.454	43.76
945.82	43.75
946.185	43.78
946.55	43.76
946.915	43.68
947.28	43.69
947.645	43.73
948.01	43.81
948.375	43.75
948.74	43.71
949.104	43.79
949.469	43.78
949.834	43.73
950.198	43.66
950.562	43.65
950.927	43.68
951.291	43.64
951.655	43.57
952.02	43.48
952.384	43.44
952.748	43.43
953.112	43.36
953.476	43.3
953.839	43.27
954.203	43.25
954.567	43.23
954.931	43.15
955.294	43.15
955.658	43.19
956.021	43.17
956.385	43.22
956.748	43.2
957.111	43.15
957.474	43.14
957.837	43.11
958.2	43.14
958.563	43.09
958.926	43.15
959.289	43.11
959.652	43.06
960.015	43.07
960.377	43.02
960.74	43.05
961.102	43.13
961.465	43.18
961.827	43.28
962.189	43.29
962.552	43.28
962.914	43.27
963.276	43.3
963.638	43.28
964	43.29
964.362	43.28
964.724	43.22
965.085	43.16
965.447	43.11
965.809	43.04
966.17	42.99
966.532	43.05
966.893	43.05
967.255	43.02
967.616	43.01
967.977	43.03
968.338	43.03
968.699	43.05
969.061	43.08
969.421	43.1
969.782	43.13
970.143	43.13
970.504	43.14
970.865	43.16
971.225	43.17
971.586	43.21
971.946	43.18
972.307	43.19
972.667	43.18
973.027	43.22
973.388	43.21
973.748	43.2
974.108	43.3
974.468	43.24
974.828	43.28
975.188	43.27
975.548	43.25
975.907	43.23
976.267	43.29
976.627	43.31
976.986	43.19
977.346	43.17
977.705	43.12
978.064	43.11
978.424	43.16
978.783	43.05
979.142	43.09
979.501	43.04
979.86	43.13
980.219	43.07
980.578	43.06
980.937	43.2
981.296	43.22
981.654	43.24
982.013	43.25
982.371	43.27
982.73	43.3
983.088	43.27
983.447	43.3
983.805	43.26
984.163	43.27
984.521	43.31
984.879	43.19
985.237	43.19
985.595	43.3
985.953	43.27
986.311	43.2
986.669	43.24
987.026	43.26
987.384	43.31
987.741	43.31
988.099	43.33
988.456	43.26
988.814	43.39
989.171	43.36
989.528	43.3
989.885	43.26
990.242	43.28
990.599	43.36
990.956	43.47
991.313	43.53
991.67	43.51
992.027	43.6
992.383	43.64
992.74	43.65
993.096	43.77
993.453	43.71
993.809	43.75
994.165	43.81
994.522	43.78
994.878	43.66
995.234	43.61
995.59	43.67
995.946	43.61
996.302	43.74
996.658	43.74
997.013	43.67
997.369	43.68
997.725	43.81
998.08	43.92
998.436	43.94
998.791	44.04
999.147	44.04
999.502	44.16
999.857	44.25
1000.212	44.16
1000.567	44.16
1000.922	44.16
1001.277	44.27
1001.632	44.13
1001.987	44.04
1002.342	43.92
1002.696	43.88
1003.051	43.99
1003.406	44.05
1003.76	43.89
1004.114	43.82
1004.469	43.78
1004.823	44
1005.177	43.92
1005.531	44.05
1005.885	44.03
1006.239	44.27
1006.593	44.43
1006.947	44.36
1007.301	44.22
1007.655	44.26
1008.008	44.42
1008.362	44.49
1008.715	44.44
1009.069	44.56
1009.422	44.46
1009.776	44.55
1010.129	44.54
1010.482	44.47
1010.835	44.51
1011.188	44.52
1011.541	44.64
1011.894	44.71
1012.247	44.77
1012.6	44.79
1012.952	44.81
1013.305	44.94
1013.657	44.93
1014.01	44.85
1014.362	44.8
1014.715	45.03
1015.067	45.07
1015.419	45.2
1015.771	45.07
1016.123	45.13
1016.475	45.09
1016.827	45.14
1017.179	45.19
1017.531	45.34
1017.883	45.39
1018.234	45.45
1018.586	45.53
1018.938	45.81
1019.289	45.52
1019.64	45.53
1019.992	45.39
1020.343	45.41
1020.694	45.45
1021.045	45.35
1021.396	45.25
1021.747	45.45
1022.098	45.64
1022.449	45.62
1022.8	45.57
1023.151	45.95
1023.501	46.26
1023.852	46.57
1024.202	46.45
1024.553	46.51
1024.903	46.76
1025.253	47
1025.604	46.84
1025.954	46.62
1026.304	46.59
1026.654	46.52
1027.004	46.31
1027.354	46.25
1027.703	46.11
1028.053	46.08
1028.403	46.01
1028.753	45.77
1029.102	45.77
1029.452	45.89
1029.801	46.1
1030.15	45.95
1030.499	45.8
897.758	1406.28
901.051	1412.21
904.343	1406.17
907.636	1430.23
910.928	1391.86
914.22	1393.39
917.511	1376.74
920.803	1318.52
924.094	1312.53
927.384	1281.45
930.675	1228.25
933.965	1220.56
937.255	1150.87
940.544	1105.56
943.834	1052.92
947.123	1043.38
950.411	979.94
953.7	958.68
956.988	906.11
960.276	870.83
963.563	856.12
966.851	825.23
970.138	818.66
973.424	791.35
976.711	797.23
979.997	756.68
983.283	751.79
986.568	737.25
989.853	715.59
993.138	702.95
996.423	675.75
999.708	657.77
1002.992	649.45
1006.275	621.6
1009.559	615.63
1012.842	592.32
1016.125	576.27
1019.408	566.49
1022.69	558.54
1025.972	546.82
1029.254	533.59
1032.536	523.94
1035.817	513.72
1039.098	506.66
1042.379	495.55
1045.659	490.55
1048.939	478.22
1052.219	469.77
1055.498	462.83
1058.778	451.43
1062.057	440.93
1065.335	435.8
1068.614	430.08
1071.892	425.33
1075.17	412.8
1078.447	403.86
1081.724	401.15
1085.001	398.32
1088.278	389.91
1091.554	381.86
1094.83	382.89
1098.106	380.91
1101.382	377.89
1104.657	375.15
1107.932	368.26
1111.206	369.3
1114.481	361.44
1117.755	357.36
1121.029	354.46
1124.302	354.04
1127.575	347.37
1130.848	342.84
1134.121	338.64
1137.393	336.43
1140.665	328.82
1143.937	327.74
1147.208	325.59
1150.48	324.66
1153.75	320.81
1157.021	316.31
1160.291	316.31
1163.561	312.56
1166.831	312.82
1170.101	310.4
1173.37	310.17
1176.639	311.53
1179.907	308.16
1183.176	304.76
1186.444	304.15
1189.711	303.16
1192.979	302.41
1196.246	299.99
1199.513	301.21
1202.78	298.91
1206.046	299.22
1209.312	295.51
1212.578	296.09
1215.843	298.4
1219.108	296.93
1222.373	302.62
1225.638	305.11
1228.902	309.41
1232.166	310.06
1235.43	312.92
1238.693	316.49
1241.956	318
1245.219	323.49
1248.482	322.57
1251.744	322.29
1255.006	324.24
1258.268	316.03
1261.529	313.22
1264.79	310.53
1268.051	308.63
1271.312	304.01
1274.572	299.84
1277.832	297.58
1281.092	292.88
1284.351	291.05
1287.61	290.84
1290.869	285.87
1294.128	284.34
1297.386	284.25
1300.644	280.94
1303.902	282.09
1307.159	281.47
1310.416	281.8
1313.673	280.8
1316.93	283.36
1320.186	283.55
1323.442	284.39
1326.697	289.37
1329.953	290.57
1333.208	291.41
1336.463	295.94
1339.717	295.89
1342.972	298.59
1346.226	301.92
1349.479	302.07
1352.733	303.79
1355.986	305.15
1359.238	305.38
1362.491	306.85
1365.743	309.12
1368.995	309.66
1372.247	309.59
1375.498	309.48
1378.749	312.8
1382	309.01
1385.251	310.45
1388.501	308.51
1391.751	309.65
1395	308.02
1398.25	304.98
1401.499	304.11
1404.748	303.59
1407.996	299.09
1411.244	298.18
1414.492	296.51
1417.74	293.9
1420.987	289.33
1424.234	288.63
1427.481	285.01
1430.728	284.77
1433.974	282.27
1437.22	279.45
1440.465	278.74
1443.711	276.93
1446.956	275.05
1450.201	271.07
1453.445	269.07
1456.689	268.28
1459.933	263.07
1463.177	260.81
1466.42	256.8
1469.663	253.78
1472.906	251.97
1476.148	245.65
1479.391	242.47
1482.633	240.19
1485.874	236.6
1489.115	234.51
1492.356	231.39
1495.597	231.88
1498.838	228.45
1502.078	226.93
1505.318	226.14
1508.557	225.76
1511.797	225.26
1515.036	223.92
1518.274	222.99
1521.513	221.75
1524.751	220.96
1527.989	220.85
1531.227	219.21
1534.464	219.92
1537.701	218.01
1540.938	217.38
1544.174	214.93
1547.41	214.9
1550.646	213.86
1553.882	214.02
1557.117	211.01
1560.352	209.95
1563.587	208.97
1566.821	207.43
1570.055	205.29
1573.289	203.9
1576.523	203.16
1579.756	201.9
1582.989	200.53
1586.222	200.57
1589.454	198.04
1592.686	199.84
1595.918	198.71
1599.15	198.08
1602.381	198.94
1605.612	198.61
1608.843	199.49
1612.073	199.37
1615.303	200.41
1618.533	199.91
1621.762	200
1624.992	201.28
1628.221	200.97
1631.449	200.72
1634.678	200.03
1637.906	200.67
1641.134	200.56
1644.361	200.03
1647.588	201.02
1650.815	200.01
1654.042	199.29
1657.269	199.89
1660.495	200.16
1663.72	198.94
1666.946	200.25
1670.171	201.08
1673.396	200.83
1676.621	201.38
1679.845	201.74
1683.069	201.61
1686.293	202.96
1689.517	204.49
1692.74	204.14
1695.963	204.82
1699.185	207.06
1702.408	206.87
1705.63	207.8
1708.852	207.78
1712.073	208.15
1715.294	208.72
1718.515	209.6
1721.736	209.09
1724.956	210.05
1728.176	209.93
1731.396	211.54
1734.616	210.94
1737.835	211.91
1741.054	210.63
1744.272	211.29
1747.491	213.24
1750.709	213.33
1753.927	213.49
1757.144	213.35
1760.361	213.94
1763.578	214.46
1766.795	213.67
1770.011	215.51
1773.227	215.32
1776.443	217.59
1779.658	218.84
1782.874	218.3
1786.089	219.08
1789.303	219.82
1792.518	222.33
1795.732	221.97
1798.945	224.31
1802.159	224.59
1805.372	224.83
1808.585	228.62
1811.797	229.58
1815.01	229.62
1818.222	231.35
1821.434	233.29
1824.645	234.06
1827.856	237.6
1831.067	239.75
1834.278	239.25
1837.488	240.88
1840.698	242.61
1843.908	240.36
1847.117	241.24
1850.326	242.92
1853.535	242.63
1856.744	245.8
1859.952	246.15
1863.16	244.44
1866.368	242.42
1869.575	245.27
1872.782	241.84
1875.989	241.7
1879.196	241.37
1882.402	240.35
1885.608	241.26
1888.814	241.87
1892.019	241.52
1895.224	240.6
1898.429	239.98
1901.634	242.38
1904.838	241.69
1908.042	245.29
1911.246	245.62
1914.449	247.04
1917.652	247.38
1920.855	247.28
1924.058	246.66
1927.26	245.59
1930.462	246.56
1933.664	249.4
1936.865	247.28
1940.066	247.31
1943.267	245.58
1946.467	244.97
1949.668	246.73
1952.868	249.93
1956.067	249.74
1959.267	250.29
1962.466	251.42
1965.665	250.08
1968.863	250.05
1972.061	253.95
1975.259	255.72
1978.457	257.56
1981.654	260.59
1984.852	260.68
1988.048	259.36
1991.245	261.49
1994.441	264.83
1997.637	265.97
2000.833	271.97
2004.028	275.89
2007.223	276.19
2010.418	279.24
2013.613	283.88
2016.807	286.33
2020.001	289.16
2023.194	293.43
2026.388	300.09
2029.581	305.49
2032.774	309.17
2035.966	314.54
2039.158	314.66
2042.35	321.43
2045.542	324.29
2048.733	329.1
2051.924	333.88
2055.115	339.43
2058.306	340.2
2061.496	343.97
2064.686	344.39
2067.875	349.84
2071.065	351.69
2074.254	350.19
2077.442	354.33
2080.631	355.42
2083.819	359.18
2087.007	358.31
2090.195	363.3
2093.382	365.93
2096.569	363.39
2099.756	369.83
2102.942	370.51
2106.128	373.13
2109.314	381.74
2112.5	380.28
2115.685	389.48
2118.87	389.8
2122.055	399.34
2125.239	401.64
2128.424	407.16
2131.608	410.36
2134.791	416.3
2137.974	418.09
2141.157	419.28
2144.34	420.72
2147.523	427.29
2150.705	423.97
2153.887	427.72
2157.068	427.57
2160.25	422.19
2163.431	425.49
2166.611	429.72
2169.792	437.8
2172.972	442.68
2176.152	444.99
2179.331	451.02
2182.511	457.25
2185.69	462.89
2188.868	472.57
2192.047	473.89
2195.225	488.6
2198.403	500.11
2201.58	509.26
2204.758	516.77
2207.935	527.87
2211.111	538.4
2214.288	544.28
2217.464	547.04
2220.64	554.87
2223.815	563.1
2226.991	586.99
2230.166	588.26
2233.34	597.01
2236.515	608.78
2239.689	608.96
2242.863	612.24
2246.036	631.18
2249.209	625.27
2252.382	636.39
2255.555	655.34
2258.727	657.64
2261.9	658.5
2265.071	665.19
2268.243	677.23
2271.414	685.35
2274.585	701.27
2277.756	708.71
2280.926	712.98
2284.096	731.27
2287.266	748.13
2290.436	753.14
2293.605	770.31
2296.774	795.2
2299.942	820.91
2303.111	825.28
2306.279	842.06
2309.447	855.96
2312.614	877.1
2315.781	900.48
2318.948	943.85
2322.115	928.42
2325.281	979.72
2328.447	958.28
2331.613	1003.21
2334.779	991.69
2337.944	1033.54
2341.109	1043.99
2344.274	1070.3
2347.438	1110.45
2350.602	1109.17
2353.766	1141.2
2356.929	1157.87
2360.092	1148.94
2363.255	1233.76
2366.418	1223.19
2369.58	1247.16
2372.742	1329.27
2375.904	1363.05
2379.066	1353.78
2382.227	1323.46
2385.388	1439.72
2388.548	1440.89
2391.709	1458.13
2394.869	1628.07
2398.029	1558.78
2401.188	1604.1
2404.347	1594.56
2407.506	1563.58
2410.665	1610.38
2413.823	1707.83
2416.981	1812.14
2420.139	1749.32
2423.296	1732.89
2426.453	1810.75
2429.61	1738.17
2432.767	1818.05
2435.923	1799.15
2439.079	1970.31
2442.235	1995.57
2445.391	1973.78
2448.546	1962.55
2451.701	1907.62
2454.855	1905.52
2458.009	2018.3
2461.163	2097.3
2464.317	2184.07
2467.471	2240.6
2470.624	2242.76
2473.777	2180.37
2476.929	2126.21
2480.082	2068.28
2483.234	2041.46
2486.385	2147.51
2489.537	2160
2492.688	2241.98
2495.839	2179.23
2498.989	2125.95
2502.14	2134.88
2505.29	2159.22
2508.439	2196.19
2511.589	2190.97
2514.738	2387.65
2517.887	2336.19
2521.035	2468.5
2524.183	2491.67
2527.331	2505.8
2530.479	2500.52
2533.627	2519.34
