Data from C_2_DEC_OH_4N_Splice17_13-05-34-617.txt Node
Date: Sat Mar 07 13:05:34 EST 2020
User: sa697716
Spectrometer: NQ5500242
Trigger mode: 0
Integration Time (sec): 1.450000E-1
Scans to average: 20
Nonlinearity correction enabled: false
Boxcar width: 5
Storing dark spectrum: false
XAxis mode: Wavelengths
Number of Pixels in Spectrum: 512
>>>>>Begin Spectral Data<<<<<
187.83	155.14
188.298	159.12
188.766	127.42
189.233	111.35
189.701	132.17
190.169	155.76
190.636	189.2
191.104	297.54
191.571	275.48
192.039	147.44
192.506	260.29
192.974	25.85
193.441	7.59
193.908	-52.05
194.375	14.76
194.842	15.47
195.31	-1.3
195.777	-29.54
196.244	30.13
196.711	35.19
197.177	37.55
197.644	37.59
198.111	37.64
198.578	37.79
199.045	37.96
199.511	37.61
199.978	37.62
200.445	38.34
200.911	38.48
201.378	38.66
201.844	38.79
202.31	38.56
202.777	38.44
203.243	38.46
203.709	38.15
204.176	37.65
204.642	37.42
205.108	37.48
205.574	36.86
206.04	36.3
206.506	35.84
206.972	35.5
207.438	34.98
207.903	34.4
208.369	33.5
208.835	32.92
209.301	32.34
209.766	31.04
210.232	30.11
210.697	29.14
211.163	28.55
211.628	27.75
212.094	26.85
212.559	26.29
213.024	25.58
213.49	24.94
213.955	24.16
214.42	23.54
214.885	23.04
215.35	22.07
215.815	21.04
216.28	19.34
216.745	17.47
217.21	15.72
217.675	14.05
218.14	12.63
218.604	11.38
219.069	10.39
219.534	9.53
219.998	8.83
220.463	8.23
220.927	7.61
221.392	7.2
221.856	6.9
222.32	6.63
222.785	6.38
223.249	6.18
223.713	5.99
224.177	5.82
224.642	5.64
225.106	5.44
225.57	5.26
226.034	5.17
226.497	5.05
226.961	4.92
227.425	4.79
227.889	4.7
228.353	4.6
228.816	4.51
229.28	4.39
229.744	4.31
230.207	4.24
230.671	4.16
231.134	4.07
231.597	4.01
232.061	3.94
232.524	3.88
232.987	3.82
233.45	3.77
233.914	3.71
234.377	3.66
234.84	3.61
235.303	3.57
235.766	3.54
236.229	3.5
236.691	3.45
237.154	3.41
237.617	3.38
238.08	3.34
238.542	3.28
239.005	3.26
239.468	3.23
239.93	3.2
240.393	3.16
240.855	3.12
241.317	3.08
241.78	3.04
242.242	3.01
242.704	2.97
243.166	2.93
243.629	2.92
244.091	2.88
244.553	2.84
245.015	2.81
245.477	2.77
245.939	2.75
246.4	2.72
246.862	2.7
247.324	2.68
247.786	2.65
248.247	2.61
248.709	2.57
249.17	2.53
249.632	2.51
250.093	2.49
250.555	2.45
251.016	2.43
251.477	2.4
251.939	2.38
252.4	2.35
252.861	2.33
253.322	2.32
253.783	2.3
254.244	2.28
254.705	2.26
255.166	2.23
255.627	2.22
256.088	2.2
256.549	2.19
257.009	2.17
257.47	2.15
257.931	2.12
258.391	2.09
258.852	2.06
259.312	2.04
259.773	2.02
260.233	2
260.694	1.97
261.154	1.94
261.614	1.92
262.074	1.9
262.534	1.87
262.994	1.86
263.455	1.85
263.915	1.83
264.374	1.82
264.834	1.8
265.294	1.78
265.754	1.77
266.214	1.75
266.673	1.73
267.133	1.72
267.593	1.72
268.052	1.7
268.512	1.7
268.971	1.69
269.431	1.68
269.89	1.67
270.349	1.67
270.809	1.66
271.268	1.65
271.727	1.65
272.186	1.64
272.645	1.64
273.104	1.63
273.563	1.62
274.022	1.62
274.481	1.61
274.94	1.61
275.399	1.6
275.857	1.59
276.316	1.58
276.775	1.58
277.233	1.57
277.692	1.57
278.15	1.57
278.609	1.57
279.067	1.57
279.525	1.57
279.984	1.57
280.442	1.57
280.9	1.57
281.358	1.58
281.816	1.58
282.274	1.58
282.732	1.57
283.19	1.57
283.648	1.57
284.106	1.56
284.564	1.56
285.021	1.57
285.479	1.57
285.937	1.57
286.394	1.57
286.852	1.56
287.309	1.56
287.767	1.56
288.224	1.55
288.682	1.54
289.139	1.54
289.596	1.53
290.053	1.51
290.511	1.5
290.968	1.48
291.425	1.47
291.882	1.46
292.339	1.45
292.796	1.44
293.252	1.43
293.709	1.43
294.166	1.42
294.623	1.41
295.079	1.41
295.536	1.4
295.992	1.4
296.449	1.4
296.905	1.4
297.362	1.4
297.818	1.4
298.274	1.41
298.731	1.4
299.187	1.39
299.643	1.39
300.099	1.39
300.555	1.39
301.011	1.38
301.467	1.38
301.923	1.37
302.379	1.37
302.835	1.37
303.291	1.37
303.746	1.38
304.202	1.38
304.658	1.38
305.113	1.38
305.569	1.38
306.024	1.39
306.479	1.38
306.935	1.38
307.39	1.38
307.845	1.38
308.301	1.39
308.756	1.39
309.211	1.4
309.666	1.41
310.121	1.41
310.576	1.41
311.031	1.41
311.486	1.42
311.94	1.43
312.395	1.43
312.85	1.44
313.305	1.43
313.759	1.43
314.214	1.43
314.668	1.43
315.123	1.43
315.577	1.44
316.032	1.44
316.486	1.44
316.94	1.44
317.394	1.44
317.849	1.43
318.303	1.43
318.757	1.42
319.211	1.41
319.665	1.41
320.119	1.4
320.572	1.38
321.026	1.37
321.48	1.36
321.934	1.35
322.387	1.34
322.841	1.34
323.295	1.34
323.748	1.34
324.202	1.35
324.655	1.34
325.108	1.35
325.562	1.36
326.015	1.37
326.468	1.37
326.921	1.38
327.374	1.38
327.827	1.39
328.28	1.39
328.733	1.39
329.186	1.39
329.639	1.39
330.092	1.4
330.545	1.39
330.997	1.39
331.45	1.41
331.903	1.41
332.355	1.42
332.808	1.42
333.26	1.42
333.713	1.41
334.165	1.41
334.617	1.43
335.069	1.42
335.522	1.42
335.974	1.43
336.426	1.42
336.878	1.41
337.33	1.41
337.782	1.42
338.234	1.42
338.686	1.43
339.137	1.44
339.589	1.43
340.041	1.43
340.493	1.43
340.944	1.41
341.396	1.41
341.847	1.41
342.299	1.4
342.75	1.38
343.201	1.37
343.653	1.36
344.104	1.35
344.555	1.34
345.006	1.33
345.457	1.33
345.908	1.33
346.359	1.34
346.81	1.34
347.261	1.33
347.712	1.33
348.163	1.32
348.613	1.33
349.064	1.34
349.515	1.34
349.965	1.34
350.416	1.34
350.866	1.33
351.317	1.33
351.767	1.33
352.217	1.34
352.668	1.35
353.118	1.36
353.568	1.35
354.018	1.35
354.468	1.36
354.918	1.36
355.368	1.37
355.818	1.38
356.268	1.37
356.718	1.38
357.168	1.37
357.617	1.37
358.067	1.36
358.517	1.37
358.966	1.38
359.416	1.37
359.865	1.37
360.315	1.37
360.764	1.38
361.213	1.38
361.663	1.36
362.112	1.37
362.561	1.38
363.01	1.38
363.459	1.37
363.908	1.37
364.357	1.37
364.806	1.37
365.255	1.37
365.703	1.38
366.152	1.38
366.601	1.4
367.05	1.4
367.498	1.4
367.947	1.4
368.395	1.41
368.844	1.41
369.292	1.41
369.74	1.41
370.189	1.41
370.637	1.4
371.085	1.4
371.533	1.4
371.981	1.4
372.429	1.4
372.877	1.39
373.325	1.39
373.773	1.39
374.221	1.38
374.669	1.38
375.116	1.37
375.564	1.37
376.012	1.38
376.459	1.38
376.907	1.37
377.354	1.37
377.801	1.37
378.249	1.37
378.696	1.38
379.143	1.38
379.591	1.38
380.038	1.39
380.485	1.4
380.932	1.39
381.379	1.39
381.826	1.39
382.273	1.39
382.72	1.38
383.166	1.38
383.613	1.37
384.06	1.37
384.506	1.37
384.953	1.37
385.4	1.36
385.846	1.37
386.292	1.36
386.739	1.36
387.185	1.36
387.631	1.38
388.078	1.38
388.524	1.37
388.97	1.37
389.416	1.38
389.862	1.39
390.308	1.4
390.754	1.4
391.2	1.41
391.645	1.41
392.091	1.42
392.537	1.42
392.983	1.43
393.428	1.45
393.874	1.45
394.319	1.47
394.765	1.47
395.21	1.47
395.655	1.47
396.101	1.49
396.546	1.5
396.991	1.51
397.436	1.51
397.881	1.53
398.326	1.53
398.771	1.55
399.216	1.55
399.661	1.57
400.106	1.58
400.551	1.59
400.995	1.59
401.44	1.61
401.885	1.61
402.329	1.63
402.774	1.64
403.218	1.67
403.663	1.69
404.107	1.7
404.551	1.72
404.995	1.72
405.44	1.73
405.884	1.74
406.328	1.76
406.772	1.77
407.216	1.77
407.66	1.78
408.104	1.78
408.547	1.78
408.991	1.79
409.435	1.8
409.879	1.83
410.322	1.85
410.766	1.87
411.209	1.89
411.653	1.92
412.096	1.95
412.54	1.96
412.983	1.98
413.426	2.02
413.869	2.04
414.312	2.07
414.756	2.08
415.199	2.08
415.642	2.08
416.085	2.1
416.527	2.1
416.97	2.09
417.413	2.11
417.856	2.1
418.298	2.09
418.741	2.09
419.184	2.09
419.626	2.09
420.069	2.12
420.511	2.13
420.953	2.13
421.396	2.14
421.838	2.15
422.28	2.16
422.722	2.18
423.164	2.19
423.606	2.21
424.048	2.22
424.49	2.24
424.932	2.24
425.374	2.23
425.816	2.22
426.258	2.22
426.699	2.22
427.141	2.22
427.582	2.22
428.024	2.24
428.465	2.23
428.907	2.23
429.348	2.22
429.789	2.22
430.231	2.25
430.672	2.29
431.113	2.32
431.554	2.33
431.995	2.35
432.436	2.37
432.877	2.37
433.318	2.41
433.759	2.45
434.2	2.48
434.64	2.5
435.081	2.51
435.522	2.53
435.962	2.54
436.403	2.57
436.843	2.6
437.284	2.59
437.724	2.61
438.164	2.6
438.604	2.6
439.045	2.61
439.485	2.61
439.925	2.61
440.365	2.62
440.805	2.62
441.245	2.62
441.685	2.63
442.125	2.65
442.564	2.65
443.004	2.65
443.444	2.64
443.883	2.64
444.323	2.64
444.762	2.64
445.202	2.64
445.641	2.67
446.081	2.68
446.52	2.67
446.959	2.69
447.398	2.71
447.837	2.72
448.276	2.74
448.716	2.76
449.154	2.79
449.593	2.82
450.032	2.82
450.471	2.8
450.91	2.79
451.349	2.81
451.787	2.81
452.226	2.8
452.664	2.8
453.103	2.81
453.541	2.81
453.98	2.82
454.418	2.8
454.856	2.79
455.295	2.79
455.733	2.78
456.171	2.78
456.609	2.78
457.047	2.77
457.485	2.76
457.923	2.75
458.361	2.75
458.798	2.74
459.236	2.75
459.674	2.76
460.111	2.76
460.549	2.78
460.987	2.78
461.424	2.79
461.862	2.81
462.299	2.83
462.736	2.84
463.173	2.84
463.611	2.86
464.048	2.87
464.485	2.88
464.922	2.89
465.359	2.9
465.796	2.91
466.233	2.93
466.67	2.92
467.106	2.94
467.543	2.94
467.98	2.93
468.416	2.94
468.853	2.94
469.29	2.93
469.726	2.94
470.162	2.94
470.599	2.93
471.035	2.92
471.471	2.92
471.907	2.91
472.344	2.92
472.78	2.94
473.216	2.93
473.652	2.93
474.088	2.93
474.523	2.93
474.959	2.93
475.395	2.91
475.831	2.91
476.266	2.91
476.702	2.9
477.138	2.89
477.573	2.89
478.008	2.89
478.444	2.89
478.879	2.9
479.314	2.89
479.75	2.89
480.185	2.88
480.62	2.88
481.055	2.88
481.49	2.88
481.925	2.88
482.36	2.88
482.795	2.87
483.229	2.87
483.664	2.87
484.099	2.87
484.534	2.87
484.968	2.89
485.403	2.89
485.837	2.9
486.271	2.91
486.706	2.92
487.14	2.93
487.574	2.95
488.009	2.96
488.443	2.97
488.877	2.99
489.311	3.01
489.745	3.02
490.179	3.04
490.613	3.07
491.046	3.08
491.48	3.11
491.914	3.14
492.348	3.16
492.781	3.19
493.215	3.22
493.648	3.26
494.082	3.29
494.515	3.32
494.948	3.35
495.382	3.38
495.815	3.42
496.248	3.46
496.681	3.5
497.114	3.54
497.547	3.58
497.98	3.62
498.413	3.66
498.846	3.71
499.279	3.74
499.711	3.79
500.144	3.84
500.577	3.89
501.009	3.94
501.442	3.99
501.874	4.04
502.306	4.1
502.739	4.16
503.171	4.22
503.603	4.27
504.036	4.34
504.468	4.39
504.9	4.44
505.332	4.5
505.764	4.57
506.196	4.62
506.627	4.68
507.059	4.75
507.491	4.79
507.923	4.86
508.354	4.94
508.786	5
509.217	5.07
509.649	5.14
510.08	5.21
510.512	5.28
510.943	5.35
511.374	5.42
511.805	5.48
512.237	5.55
512.668	5.6
513.099	5.67
513.53	5.73
513.961	5.81
514.391	5.88
514.822	5.95
515.253	6.02
515.684	6.08
516.114	6.15
516.545	6.21
516.975	6.28
517.406	6.34
517.836	6.39
518.267	6.45
518.697	6.49
519.127	6.53
519.558	6.56
519.988	6.59
520.418	6.64
520.848	6.67
521.278	6.71
521.708	6.93
522.138	6.98
522.567	7.01
522.997	7.04
523.427	7.08
523.857	7.11
524.286	7.15
524.716	7.18
525.145	7.2
525.575	7.24
526.004	7.27
526.433	7.09
526.863	7.1
527.292	7.13
527.721	7.15
528.15	7.16
528.579	7.18
529.008	7.19
529.437	7.21
529.866	7.22
530.295	7.22
530.724	7.22
531.152	7.24
531.581	7.25
532.01	7.26
532.438	7.28
532.867	7.29
533.295	7.29
533.723	7.3
534.152	7.3
534.58	7.31
535.008	7.32
535.436	7.33
535.865	7.32
536.293	7.33
536.721	7.32
537.149	7.32
537.576	7.32
538.004	7.33
538.432	7.33
538.86	7.34
539.287	7.34
539.715	7.35
540.143	7.33
540.57	7.35
540.998	7.36
541.425	7.37
541.852	7.38
542.28	7.39
542.707	7.39
543.134	7.38
543.561	7.4
543.988	7.42
544.415	7.43
544.842	7.45
545.269	7.46
545.696	7.47
546.123	7.48
546.549	7.48
546.976	7.49
547.403	7.5
547.829	7.52
548.256	7.53
548.682	7.53
549.108	7.55
549.535	7.55
549.961	7.56
550.387	7.57
550.813	7.59
551.24	7.6
551.666	7.61
552.092	7.63
552.518	7.65
552.943	7.66
553.369	7.69
553.795	7.69
554.221	7.72
554.646	7.73
555.072	7.74
555.498	7.75
555.923	7.75
556.349	7.76
556.774	7.76
557.199	7.77
557.625	7.78
558.05	7.79
558.475	7.8
558.9	7.81
559.325	7.83
559.75	7.83
560.175	7.84
560.6	7.86
561.025	7.88
561.449	7.89
561.874	7.9
562.299	7.9
562.723	7.92
563.148	7.92
563.572	7.92
563.997	7.93
564.421	7.93
564.846	7.94
565.27	7.94
565.694	7.96
566.118	7.96
566.542	7.97
566.966	7.98
567.39	7.98
567.814	8
568.238	8.01
568.662	8.02
569.086	8.03
569.509	8.04
569.933	8.05
570.357	8.06
570.78	8.06
571.204	8.07
571.627	8.09
572.05	8.09
572.474	8.11
572.897	8.11
573.32	8.13
573.743	8.14
574.166	8.16
574.589	8.17
575.012	8.18
575.435	8.2
575.858	8.22
576.281	8.23
576.704	8.25
577.126	8.27
577.549	8.3
577.972	8.31
578.394	8.31
578.817	8.34
579.239	8.36
579.661	8.38
580.084	8.41
580.506	8.44
580.928	8.47
581.35	8.49
581.772	8.5
582.194	8.53
582.616	8.55
583.038	8.58
583.46	8.6
583.882	8.62
584.303	8.64
584.725	8.66
585.147	8.69
585.568	8.71
585.99	8.75
586.411	8.78
586.833	8.8
587.254	8.82
587.675	8.85
588.096	8.88
588.518	8.91
588.939	8.95
589.36	8.98
589.781	8.99
590.202	9.03
590.623	9.06
591.043	9.09
591.464	9.13
591.885	9.16
592.305	9.2
592.726	9.25
593.147	9.28
593.567	9.31
593.987	9.36
594.408	9.39
594.828	9.42
595.248	9.46
595.669	9.5
596.089	9.55
596.509	9.59
596.929	9.63
597.349	9.67
597.769	9.72
598.189	9.77
598.608	9.82
599.028	9.87
599.448	9.92
599.867	9.97
600.287	10.02
600.706	10.08
601.126	10.13
601.545	10.18
601.965	10.24
602.384	10.28
602.803	10.33
603.222	10.39
603.641	10.45
604.061	10.51
604.48	10.56
604.898	10.62
605.317	10.66
605.736	10.72
606.155	10.78
606.574	10.82
606.992	10.87
607.411	10.93
607.829	10.94
608.248	10.98
608.666	11.03
609.085	11.08
609.503	11.13
609.921	11.18
610.339	11.22
610.758	11.27
611.176	11.3
611.594	11.34
612.012	11.38
612.43	11.45
612.847	11.48
613.265	11.52
613.683	11.56
614.101	11.6
614.518	11.64
614.936	11.67
615.353	11.69
615.771	11.73
616.188	11.78
616.606	11.82
617.023	11.87
617.44	11.93
617.857	11.97
618.274	11.99
618.691	12.04
619.108	12.08
619.525	12.13
619.942	12.19
620.359	12.24
620.776	12.28
621.192	12.33
621.609	12.37
622.026	12.42
622.442	12.48
622.859	12.54
623.275	12.6
623.691	12.66
624.108	12.72
624.524	12.78
624.94	12.83
625.356	12.89
625.772	12.95
626.188	13.02
626.604	13.08
627.02	13.13
627.436	13.19
627.852	13.25
628.268	13.3
628.683	13.35
629.099	13.41
629.514	13.47
629.93	13.51
630.345	13.54
630.761	13.56
631.176	13.58
631.591	13.6
632.007	13.6
632.422	13.6
632.837	13.59
633.252	13.57
633.667	13.54
634.082	13.5
634.497	13.46
634.911	13.4
635.326	13.35
635.741	13.28
636.155	13.21
636.57	13.13
636.984	13.04
637.399	12.94
637.813	12.83
638.228	12.69
638.642	12.56
639.056	12.43
639.47	12.32
639.884	12.17
640.298	12.03
640.712	11.88
641.126	11.73
641.54	11.58
641.954	11.42
642.368	11.27
642.781	11.14
643.195	11
643.609	10.87
644.022	10.72
644.436	10.59
644.849	10.46
645.262	10.34
645.676	10.22
646.089	10.12
646.502	10.03
646.915	9.94
647.328	9.86
647.741	9.78
648.154	9.7
648.567	9.65
648.98	9.6
649.393	9.55
649.805	9.51
650.218	9.47
650.631	9.43
651.043	9.4
651.456	9.37
651.868	9.34
652.28	9.32
652.693	9.31
653.105	9.27
653.517	9.24
653.929	9.21
654.341	9.17
654.753	9.13
655.165	9.08
655.577	9.02
655.989	8.96
656.401	8.89
656.813	8.81
657.224	8.71
657.636	8.62
658.047	8.53
658.459	8.42
658.87	8.31
659.282	8.2
659.693	8.09
660.104	7.96
660.515	7.85
660.926	7.73
661.338	7.6
661.749	7.49
662.159	7.37
662.57	7.26
662.981	7.14
663.392	7.03
663.803	6.91
664.213	6.8
664.624	6.69
665.035	6.59
665.445	6.49
665.855	6.39
666.266	6.31
666.676	6.22
667.086	6.12
667.497	6.05
667.907	5.98
668.317	5.93
668.727	5.87
669.137	5.82
669.547	5.77
669.956	5.72
670.366	5.68
670.776	5.64
671.186	5.61
671.595	5.59
672.005	5.56
672.414	5.54
672.824	5.52
673.233	5.51
673.642	5.51
674.052	5.51
674.461	5.51
674.87	5.52
675.279	5.53
675.688	5.55
676.097	5.57
676.506	5.61
676.915	5.64
677.323	5.69
677.732	5.74
678.141	5.81
678.549	5.87
678.958	5.97
679.366	6.09
679.775	6.21
680.183	6.37
680.592	6.55
681	6.75
681.408	6.98
681.816	7.23
682.224	7.5
682.632	7.81
683.04	8.16
683.448	8.54
683.856	8.92
684.264	9.36
684.671	9.81
685.079	10.3
685.487	10.83
685.894	11.39
686.302	11.98
686.709	12.61
687.116	13.25
687.524	13.93
687.931	14.62
688.338	15.35
688.745	16.07
689.152	16.8
689.559	17.55
689.966	18.29
690.373	19.05
690.78	19.79
691.187	20.53
691.593	21.27
692	21.98
692.407	22.68
692.813	23.4
693.22	24.07
693.626	24.76
694.032	25.44
694.439	26.1
694.845	26.74
695.251	27.36
695.657	27.96
696.063	28.51
696.469	29.1
696.875	29.65
697.281	30.15
697.687	30.68
698.093	31.17
698.498	31.64
698.904	32.11
699.31	32.52
699.715	32.96
700.12	33.38
700.526	33.81
700.931	34.18
701.337	34.57
701.742	34.95
702.147	35.29
702.552	35.64
702.957	35.93
703.362	36.24
703.767	36.53
704.172	36.81
704.577	37.07
704.981	37.36
705.386	37.61
705.791	37.85
706.195	38.08
706.6	38.33
707.004	38.54
707.408	38.78
707.813	39
708.217	39.24
708.621	39.46
709.025	39.66
709.43	39.81
709.834	40.02
710.237	40.21
710.641	40.38
711.045	40.55
711.449	40.74
711.853	40.94
712.256	41.09
712.66	41.24
713.064	41.38
713.467	41.55
713.87	41.72
714.274	41.84
714.677	41.99
715.08	42.13
715.484	42.28
715.887	42.43
716.29	42.53
716.693	42.66
717.096	42.8
717.499	42.9
717.901	43.01
718.304	43.12
718.707	43.23
719.109	43.32
719.512	43.43
719.915	43.51
720.317	43.56
720.719	43.63
721.122	43.71
721.524	43.8
721.926	43.9
722.328	43.98
722.731	44.05
723.133	44.16
723.535	44.25
723.937	44.36
724.338	44.44
724.74	44.52
725.142	44.71
725.544	44.78
725.945	44.86
726.347	44.9
726.748	44.94
727.15	44.99
727.551	45.05
727.952	45.08
728.354	45.12
728.755	45.16
729.156	45.22
729.557	45.17
729.958	45.21
730.359	45.23
730.76	45.29
731.161	45.36
731.562	45.42
731.962	45.43
732.363	45.49
732.763	45.53
733.164	45.55
733.564	45.6
733.965	45.63
734.365	45.67
734.766	45.71
735.166	45.72
735.566	45.75
735.966	45.78
736.366	45.84
736.766	45.86
737.166	45.88
737.566	45.93
737.966	45.94
738.365	45.97
738.765	46
739.165	46.01
739.564	46.06
739.964	46.07
740.363	46.09
740.763	46.07
741.162	46.06
741.561	46.07
741.96	46.07
742.36	46.1
742.759	46.1
743.158	46.12
743.557	46.11
743.955	46.15
744.354	46.15
744.753	46.17
745.152	46.23
745.55	46.25
745.949	46.26
746.348	46.28
746.746	46.27
747.144	46.3
747.543	46.29
747.941	46.31
748.339	46.27
748.737	46.28
749.136	46.28
749.534	46.25
749.932	46.26
750.33	46.28
750.727	46.31
751.125	46.32
751.523	46.3
751.921	46.31
752.318	46.32
752.716	46.34
753.113	46.36
753.511	46.39
753.908	46.44
754.305	46.45
754.703	46.44
755.1	46.44
755.497	46.45
755.894	46.46
756.291	46.48
756.688	46.47
757.085	46.48
757.482	46.48
757.878	46.44
758.275	46.42
758.672	46.41
759.068	46.44
759.465	46.44
759.861	46.46
760.258	46.48
760.654	46.49
761.05	46.5
761.447	46.51
761.843	46.51
762.239	46.53
762.635	46.53
763.031	46.56
763.427	46.54
763.822	46.54
764.218	46.54
764.614	46.53
765.01	46.49
765.405	46.5
765.801	46.48
766.196	46.47
766.592	46.47
766.987	46.47
767.382	46.45
767.778	46.46
768.173	46.47
768.568	46.44
768.963	46.45
769.358	46.49
769.753	46.47
770.148	46.48
770.542	46.48
770.937	46.49
771.332	46.5
771.726	46.49
772.121	46.48
772.515	46.47
772.91	46.49
773.304	46.5
773.699	46.49
774.093	46.51
774.487	46.53
774.881	46.55
775.275	46.53
775.669	46.52
776.063	46.5
776.457	46.49
776.851	46.47
777.245	46.44
777.638	46.42
778.032	46.43
778.425	46.43
778.819	46.43
779.212	46.41
779.606	46.43
779.999	46.41
780.392	46.43
780.786	46.43
781.179	46.44
781.572	46.46
781.965	46.49
782.358	46.49
782.751	46.47
783.143	46.46
783.536	46.45
783.929	46.45
784.322	46.47
784.714	46.47
785.107	46.5
785.499	46.5
785.891	46.51
786.284	46.55
786.676	46.56
787.068	46.58
787.46	46.59
787.852	46.59
788.245	46.59
788.636	46.59
789.028	46.58
789.42	46.54
789.812	46.57
790.204	46.54
790.595	46.51
790.987	46.48
791.378	46.51
791.77	46.5
792.161	46.51
792.553	46.52
792.944	46.52
793.335	46.53
793.726	46.54
794.117	46.49
794.508	46.49
794.899	46.46
795.29	46.46
795.681	46.42
796.072	46.44
796.463	46.48
796.853	46.44
797.244	46.43
797.634	46.44
798.025	46.46
798.415	46.46
798.806	46.46
799.196	46.5
799.586	46.48
799.976	46.51
800.366	46.49
800.756	46.46
801.146	46.47
801.536	46.48
801.926	46.46
802.316	46.44
802.706	46.43
803.095	46.42
803.485	46.38
803.874	46.38
804.264	46.38
804.653	46.37
805.043	46.36
805.432	46.36
805.821	46.33
806.21	46.34
806.599	46.34
806.988	46.37
807.377	46.37
807.766	46.39
808.155	46.37
808.544	46.34
808.933	46.32
809.321	46.29
809.71	46.27
810.098	46.23
810.487	46.19
810.875	46.18
811.264	46.13
811.652	46.13
812.04	46.1
812.428	46.1
812.816	46.1
813.204	46.08
813.592	46.07
813.98	46.06
814.368	46.09
814.756	46.09
815.144	46.07
815.531	46.06
815.919	46.03
816.306	46.01
816.694	45.98
817.081	45.98
817.469	45.99
817.856	45.98
818.243	45.94
818.63	45.91
819.017	45.88
819.404	45.88
819.791	45.88
820.178	45.89
820.565	45.89
820.952	45.88
821.339	45.86
821.725	45.84
822.112	45.85
822.498	45.88
822.885	45.89
823.271	45.92
823.657	45.85
824.044	45.84
824.43	45.83
824.816	45.82
825.202	45.8
825.588	45.78
825.974	45.76
826.36	45.76
826.746	45.73
827.132	45.72
827.517	45.71
827.903	45.74
828.289	45.74
828.674	45.73
829.06	45.73
829.445	45.72
829.83	45.72
830.216	45.7
830.601	45.67
830.986	45.7
831.371	45.68
831.756	45.69
832.141	45.69
832.526	45.7
832.911	45.69
833.295	45.66
833.68	45.68
834.065	45.7
834.449	45.69
834.834	45.67
835.218	45.66
835.603	45.67
835.987	45.63
836.371	45.61
836.755	45.58
837.139	45.56
837.524	45.57
837.908	45.57
838.291	45.58
838.675	45.58
839.059	45.59
839.443	45.58
839.827	45.55
840.21	45.55
840.594	45.58
840.977	45.58
841.361	45.58
841.744	45.56
842.127	45.54
842.511	45.52
842.894	45.5
843.277	45.48
843.66	45.44
844.043	45.45
844.426	45.44
844.809	45.42
845.191	45.42
845.574	45.41
845.957	45.43
846.339	45.41
846.722	45.4
847.104	45.42
847.487	45.43
847.869	45.44
848.252	45.42
848.634	45.41
849.016	45.43
849.398	45.43
849.78	45.41
850.162	45.39
850.544	45.4
850.926	45.38
851.307	45.38
851.689	45.37
852.071	45.35
852.452	45.35
852.834	45.35
853.215	45.32
853.597	45.3
853.978	45.31
854.359	45.31
854.741	45.3
855.122	45.31
855.503	45.29
855.884	45.29
856.265	45.31
856.646	45.31
857.026	45.32
857.407	45.31
857.788	45.29
858.169	45.27
858.549	45.28
858.93	45.26
859.31	45.26
859.69	45.25
860.071	45.24
860.451	45.23
860.831	45.22
861.211	45.2
861.591	45.2
861.971	45.19
862.351	45.21
862.731	45.18
863.111	45.18
863.491	45.17
863.87	45.16
864.25	45.15
864.629	45.14
865.009	45.12
865.388	45.1
865.768	45.1
866.147	45.09
866.526	45.06
866.905	45.07
867.284	45.08
867.663	45.09
868.042	45.09
868.421	45.12
868.8	45.13
869.179	45.16
869.558	45.15
869.936	45.14
870.315	45.16
870.693	45.18
871.072	45.18
871.45	45.17
871.828	45.18
872.207	45.19
872.585	45.15
872.963	45.14
873.341	45.13
873.719	45.15
874.097	45.17
874.475	45.17
874.853	45.17
875.23	45.17
875.608	45.16
875.986	45.18
876.363	45.18
876.741	45.2
877.118	45.21
877.495	45.22
877.873	45.22
878.25	45.23
878.627	45.25
879.004	45.23
879.381	45.24
879.758	45.23
880.135	45.2
880.512	45.16
880.889	45.15
881.265	45.12
881.642	45.12
882.019	45.12
882.395	45.09
882.772	45.06
883.148	45.05
883.524	45.02
883.901	45.04
884.277	45.05
884.653	45.06
885.029	45.06
885.405	45.08
885.781	45.05
886.157	45.03
886.532	45.05
886.908	45.04
887.284	45.03
887.659	45
888.035	44.98
888.411	44.95
888.786	44.96
889.161	44.95
889.537	44.92
889.912	44.92
890.287	44.92
890.662	44.9
891.037	44.91
891.412	44.9
891.787	44.9
892.162	44.89
892.536	44.88
892.911	44.84
893.286	44.83
893.66	44.83
894.035	44.82
894.409	44.82
894.784	44.82
895.158	44.8
895.532	44.82
895.906	44.82
896.281	44.82
896.655	44.82
897.029	44.85
897.402	44.84
897.776	44.84
898.15	44.84
898.524	44.83
898.898	44.82
899.271	44.82
899.645	44.84
900.018	44.86
900.392	44.84
900.765	44.89
901.138	44.87
901.511	44.88
901.884	44.89
902.258	44.9
902.631	44.92
903.003	44.93
903.376	44.95
903.749	44.92
904.122	44.93
904.495	44.95
904.867	44.93
905.24	44.97
905.612	44.98
905.985	44.96
906.357	44.95
906.729	44.94
907.102	44.93
907.474	44.92
907.846	44.96
908.218	44.93
908.59	44.96
908.962	44.95
909.334	44.95
909.705	44.94
910.077	44.95
910.449	44.97
910.82	44.98
911.192	44.99
911.563	44.99
911.935	44.97
912.306	45.02
912.677	45.01
913.048	45.04
913.419	45
913.79	45.02
914.161	45.03
914.532	45.03
914.903	45.03
915.274	45.05
915.645	45.08
916.015	45.07
916.386	45.05
916.756	45.02
917.127	45.04
917.497	45.07
917.868	45.07
918.238	45.05
918.608	45.08
918.978	45.07
919.348	45.05
919.718	45.02
920.088	45.03
920.458	45.05
920.828	45.02
921.198	44.97
921.567	44.97
921.937	44.98
922.306	44.98
922.676	44.94
923.045	44.92
923.415	44.92
923.784	44.91
924.153	44.92
924.522	44.89
924.891	44.9
925.26	44.92
925.629	44.92
925.998	44.88
926.367	44.89
926.736	44.91
927.104	44.91
927.473	44.91
927.842	44.87
928.21	44.87
928.578	44.87
928.947	44.91
929.315	44.89
929.683	44.87
930.051	44.85
930.42	44.83
930.788	44.79
931.156	44.79
931.523	44.8
931.891	44.86
932.259	44.85
932.627	44.84
932.994	44.82
933.362	44.82
933.729	44.83
934.097	44.85
934.464	44.9
934.831	44.91
935.199	44.95
935.566	44.9
935.933	44.8
936.3	44.78
936.667	44.77
937.034	44.8
937.401	44.79
937.767	44.75
938.134	44.72
938.501	44.68
938.867	44.63
939.234	44.55
939.6	44.55
939.967	44.57
940.333	44.52
940.699	44.48
941.065	44.33
941.431	44.3
941.798	44.23
942.163	44.18
942.529	44.09
942.895	44.11
943.261	44.06
943.627	44
943.992	43.98
944.358	43.97
944.723	43.94
945.089	43.89
945.454	43.89
945.82	43.9
946.185	43.9
946.55	43.86
946.915	43.79
947.28	43.8
947.645	43.8
948.01	43.8
948.375	43.8
948.74	43.82
949.104	43.84
949.469	43.8
949.834	43.79
950.198	43.81
950.562	43.8
950.927	43.8
951.291	43.76
951.655	43.75
952.02	43.72
952.384	43.67
952.748	43.64
953.112	43.66
953.476	43.65
953.839	43.64
954.203	43.62
954.567	43.62
954.931	43.6
955.294	43.62
955.658	43.66
956.021	43.65
956.385	43.63
956.748	43.6
957.111	43.59
957.474	43.6
957.837	43.6
958.2	43.57
958.563	43.61
958.926	43.63
959.289	43.64
959.652	43.6
960.015	43.62
960.377	43.63
960.74	43.68
961.102	43.67
961.465	43.73
961.827	43.8
962.189	43.88
962.552	43.87
962.914	43.89
963.276	43.91
963.638	43.93
964	43.95
964.362	44.02
964.724	43.99
965.085	44.04
965.447	44.01
965.809	43.95
966.17	43.9
966.532	43.94
966.893	43.98
967.255	43.98
967.616	44.01
967.977	44.02
968.338	44.02
968.699	44.07
969.061	44.08
969.421	44.09
969.782	44.14
970.143	44.19
970.504	44.21
970.865	44.2
971.225	44.22
971.586	44.16
971.946	44.11
972.307	44.11
972.667	44.04
973.027	44.04
973.388	44.04
973.748	44.06
974.108	44.13
974.468	44.05
974.828	44.1
975.188	44.09
975.548	44.14
975.907	44.23
976.267	44.2
976.627	44.26
976.986	44.23
977.346	44.22
977.705	44.2
978.064	44.18
978.424	44.26
978.783	44.22
979.142	44.22
979.501	44.27
979.86	44.26
980.219	44.3
980.578	44.32
980.937	44.35
981.296	44.36
981.654	44.35
982.013	44.35
982.371	44.35
982.73	44.41
983.088	44.42
983.447	44.38
983.805	44.4
984.163	44.37
984.521	44.4
984.879	44.36
985.237	44.36
985.595	44.39
985.953	44.36
986.311	44.31
986.669	44.28
987.026	44.24
987.384	44.28
987.741	44.24
988.099	44.4
988.456	44.4
988.814	44.51
989.171	44.52
989.528	44.54
989.885	44.58
990.242	44.68
990.599	44.63
990.956	44.75
991.313	44.79
991.67	44.88
992.027	44.95
992.383	44.96
992.74	44.98
993.096	44.96
993.453	45.02
993.809	44.99
994.165	44.93
994.522	45.05
994.878	44.98
995.234	45
995.59	44.93
995.946	44.85
996.302	44.92
996.658	45.03
997.013	45.12
997.369	45.07
997.725	45.14
998.08	45.19
998.436	45.1
998.791	45.12
999.147	45.08
999.502	45.14
999.857	45.1
1000.212	45
1000.567	44.89
1000.922	44.74
1001.277	44.68
1001.632	44.52
1001.987	44.48
1002.342	44.44
1002.696	44.5
1003.051	44.63
1003.406	44.67
1003.76	44.73
1004.114	44.72
1004.469	44.73
1004.823	45.05
1005.177	45.05
1005.531	45.29
1005.885	45.36
1006.239	45.5
1006.593	45.58
1006.947	45.56
1007.301	45.51
1007.655	45.45
1008.008	45.52
1008.362	45.67
1008.715	45.62
1009.069	45.81
1009.422	45.83
1009.776	45.88
1010.129	45.81
1010.482	45.75
1010.835	45.8
1011.188	45.77
1011.541	45.8
1011.894	45.86
1012.247	45.7
1012.6	45.59
1012.952	45.52
1013.305	45.38
1013.657	45.41
1014.01	45.52
1014.362	45.52
1014.715	45.52
1015.067	45.71
1015.419	45.88
1015.771	45.8
1016.123	45.84
1016.475	46.04
1016.827	46.14
1017.179	46.31
1017.531	46.38
1017.883	46.13
1018.234	46.35
1018.586	46.31
1018.938	46.39
1019.289	46.18
1019.64	46.21
1019.992	46.31
1020.343	46.24
1020.694	46.05
1021.045	46
1021.396	45.9
1021.747	46.2
1022.098	46.06
1022.449	46.04
1022.8	46.03
1023.151	45.93
1023.501	46.31
1023.852	46.19
1024.202	45.96
1024.553	46.04
1024.903	46.22
1025.253	46.39
1025.604	46.42
1025.954	46.16
1026.304	46.17
1026.654	46.01
1027.004	46.09
1027.354	45.8
1027.703	45.68
1028.053	46.03
1028.403	46.11
1028.753	45.68
1029.102	45.6
1029.452	45.56
1029.801	45.92
1030.15	45.9
1030.499	45.89
897.758	1245.77
901.051	1254.29
904.343	1251.91
907.636	1273.78
910.928	1240.84
914.22	1242.43
917.511	1222.42
920.803	1169.51
924.094	1162.66
927.384	1136.02
930.675	1091.51
933.965	1086.45
937.255	1024.19
940.544	982.29
943.834	937.55
947.123	929.81
950.411	873.33
953.7	856.62
956.988	810.25
960.276	776
963.563	764.25
966.851	737.87
970.138	730.68
973.424	706.62
976.711	711.09
979.997	674.24
983.283	669.59
986.568	655.77
989.853	636.77
993.138	625.67
996.423	602.49
999.708	584.9
1002.992	577.17
1006.275	551.67
1009.559	546.09
1012.842	525.43
1016.125	512.21
1019.408	503.01
1022.69	496.43
1025.972	485.56
1029.254	473.8
1032.536	466.84
1035.817	457.5
1039.098	452.56
1042.379	442.86
1045.659	438.29
1048.939	428.05
1052.219	419.54
1055.498	413.12
1058.778	402.85
1062.057	394.66
1065.335	390.5
1068.614	385.48
1071.892	381.52
1075.17	368.62
1078.447	361.96
1081.724	358.83
1085.001	357.66
1088.278	348.35
1091.554	342.31
1094.83	342.28
1098.106	339.01
1101.382	336.37
1104.657	334.86
1107.932	328.76
1111.206	330.66
1114.481	323.78
1117.755	320.19
1121.029	316.03
1124.302	317.52
1127.575	310.02
1130.848	306.85
1134.121	303.26
1137.393	301.04
1140.665	293.76
1143.937	291.92
1147.208	290.52
1150.48	288.78
1153.75	285.36
1157.021	281.44
1160.291	280.91
1163.561	278.64
1166.831	278.55
1170.101	276.35
1173.37	275.97
1176.639	277.21
1179.907	274.88
1183.176	270.89
1186.444	270.75
1189.711	270.7
1192.979	269.8
1196.246	267.85
1199.513	268.63
1202.78	266.58
1206.046	266.84
1209.312	264.21
1212.578	263.76
1215.843	266.29
1219.108	265.33
1222.373	270.25
1225.638	272.32
1228.902	276.16
1232.166	276.36
1235.43	278.73
1238.693	282.25
1241.956	284.21
1245.219	289.14
1248.482	289.54
1251.744	288.35
1255.006	289.91
1258.268	282.28
1261.529	279.68
1264.79	278.15
1268.051	277.41
1271.312	272.93
1274.572	270.91
1277.832	267.94
1281.092	263.04
1284.351	261.15
1287.61	260.89
1290.869	257.01
1294.128	256.5
1297.386	255.91
1300.644	252.92
1303.902	253.02
1307.159	252.4
1310.416	252.08
1313.673	251.58
1316.93	253.93
1320.186	253.8
1323.442	254.45
1326.697	258.54
1329.953	259.19
1333.208	260.01
1336.463	262.78
1339.717	263.21
1342.972	266.99
1346.226	269.06
1349.479	269.49
1352.733	270.97
1355.986	273.08
1359.238	273.06
1362.491	274.33
1365.743	276.47
1368.995	276.74
1372.247	275.83
1375.498	275.96
1378.749	277.21
1382	274.31
1385.251	274.72
1388.501	273.13
1391.751	272.83
1395	272.24
1398.25	269.53
1401.499	268.39
1404.748	268.08
1407.996	266.24
1411.244	264.82
1414.492	263.4
1417.74	260.56
1420.987	256.97
1424.234	256.23
1427.481	253.25
1430.728	252.48
1433.974	250.71
1437.22	248.19
1440.465	247.38
1443.711	245.36
1446.956	243.36
1450.201	240.18
1453.445	238.07
1456.689	237.32
1459.933	233.32
1463.177	231.26
1466.42	227.18
1469.663	224.36
1472.906	222.95
1476.148	217.29
1479.391	214.21
1482.633	212.58
1485.874	209.17
1489.115	207.22
1492.356	205.35
1495.597	205.09
1498.838	201.82
1502.078	201.14
1505.318	200.06
1508.557	200.05
1511.797	199.39
1515.036	198.46
1518.274	198.07
1521.513	196.15
1524.751	196.08
1527.989	194.73
1531.227	193.68
1534.464	194.19
1537.701	192.43
1540.938	191.82
1544.174	189.74
1547.41	189.79
1550.646	188.7
1553.882	188
1557.117	186.56
1560.352	185.16
1563.587	184.5
1566.821	183.1
1570.055	181.67
1573.289	180.22
1576.523	180.18
1579.756	178.42
1582.989	176.62
1586.222	176.63
1589.454	175.24
1592.686	176.16
1595.918	175.42
1599.15	175.38
1602.381	175.83
1605.612	175.37
1608.843	176.2
1612.073	175.3
1615.303	176.55
1618.533	177.08
1621.762	176.82
1624.992	177.69
1628.221	177.37
1631.449	177.28
1634.678	176.85
1637.906	177.72
1641.134	177.43
1644.361	177.23
1647.588	178.1
1650.815	177.1
1654.042	176.28
1657.269	177.39
1660.495	177.41
1663.72	177.42
1666.946	177.73
1670.171	178.08
1673.396	177.36
1676.621	178.03
1679.845	177.96
1683.069	178.05
1686.293	179.51
1689.517	180.58
1692.74	180.25
1695.963	180.43
1699.185	181.56
1702.408	182
1705.63	182.87
1708.852	183.43
1712.073	182.96
1715.294	183.84
1718.515	184.95
1721.736	183.98
1724.956	184.43
1728.176	184.6
1731.396	186.01
1734.616	185.36
1737.835	186.26
1741.054	184.29
1744.272	185.26
1747.491	187.16
1750.709	187.51
1753.927	187.02
1757.144	187.05
1760.361	188
1763.578	188.29
1766.795	187.89
1770.011	189.22
1773.227	188.9
1776.443	191.91
1779.658	192.34
1782.874	191.57
1786.089	192.07
1789.303	193.05
1792.518	195.01
1795.732	194.92
1798.945	196.31
1802.159	196.67
1805.372	197.24
1808.585	200.61
1811.797	201.58
1815.01	201.87
1818.222	204.1
1821.434	205.52
1824.645	206.01
1827.856	209.52
1831.067	210.93
1834.278	210.89
1837.488	212.72
1840.698	214.25
1843.908	212.36
1847.117	212.69
1850.326	214.42
1853.535	213.74
1856.744	217.07
1859.952	217
1863.16	215.58
1866.368	214.77
1869.575	217.46
1872.782	214.34
1875.989	213.4
1879.196	213.01
1882.402	212.13
1885.608	212.77
1888.814	213.51
1892.019	212.95
1895.224	212.46
1898.429	211.67
1901.634	213.37
1904.838	213.72
1908.042	215.9
1911.246	217.02
1914.449	218.71
1917.652	218.33
1920.855	218.27
1924.058	218
1927.26	217.05
1930.462	217.88
1933.664	220.49
1936.865	218.48
1940.066	218.1
1943.267	216.83
1946.467	217.05
1949.668	217.99
1952.868	220.83
1956.067	220.55
1959.267	221.3
1962.466	222.23
1965.665	221.49
1968.863	221.55
1972.061	224.7
1975.259	226.6
1978.457	229.01
1981.654	229.51
1984.852	230
1988.048	229.82
1991.245	231.65
1994.441	234.37
1997.637	235.3
2000.833	239.79
2004.028	243.12
2007.223	244.43
2010.418	246.05
2013.613	249.99
2016.807	253.51
2020.001	255.85
2023.194	259.74
2026.388	265.17
2029.581	271.05
2032.774	273.3
2035.966	278.58
2039.158	279.21
2042.35	284.86
2045.542	286.47
2048.733	290.62
2051.924	294.58
2055.115	300.31
2058.306	300.66
2061.496	303.7
2064.686	302.7
2067.875	308.45
2071.065	309.2
2074.254	307.85
2077.442	311.07
2080.631	313.56
2083.819	316.71
2087.007	316.71
2090.195	319.92
2093.382	322.67
2096.569	321.03
2099.756	326.17
2102.942	327.66
2106.128	330.7
2109.314	338.1
2112.5	336.44
2115.685	342.86
2118.87	343.42
2122.055	349.94
2125.239	351.89
2128.424	356.17
2131.608	359.1
2134.791	363.45
2137.974	364.67
2141.157	366.13
2144.34	367.44
2147.523	373.38
2150.705	371.01
2153.887	375.79
2157.068	376.8
2160.25	373.01
2163.431	374.66
2166.611	379.46
2169.792	386.9
2172.972	390.87
2176.152	392.56
2179.331	397.13
2182.511	404.25
2185.69	407.81
2188.868	415.46
2192.047	416.93
2195.225	429.79
2198.403	440.36
2201.58	447.32
2204.758	455.54
2207.935	465.11
2211.111	474.32
2214.288	479.96
2217.464	480.43
2220.64	491.21
2223.815	497.13
2226.991	516.47
2230.166	516.66
2233.34	526.07
2236.515	535.53
2239.689	536.17
2242.863	540.36
2246.036	556.91
2249.209	552.61
2252.382	562.09
2255.555	578.08
2258.727	579.86
2261.9	586.7
2265.071	592.7
2268.243	602.14
2271.414	608.62
2274.585	623.5
2277.756	627.71
2280.926	634.26
2284.096	649.57
2287.266	664.86
2290.436	668.12
2293.605	684.18
2296.774	700.71
2299.942	722.08
2303.111	728.31
2306.279	745.36
2309.447	754.37
2312.614	774.32
2315.781	790.19
2318.948	826.85
2322.115	815.78
2325.281	859.45
2328.447	843.29
2331.613	878.89
2334.779	869.84
2337.944	905.65
2341.109	915.34
2344.274	941.56
2347.438	977.74
2350.602	979.12
2353.766	1009.91
2356.929	1024.77
2360.092	1017.62
2363.255	1087.91
2366.418	1085.87
2369.58	1109.2
2372.742	1176.03
2375.904	1205.78
2379.066	1198.69
2382.227	1174.48
2385.388	1275.21
2388.548	1269.38
2391.709	1285.8
2394.869	1435.9
2398.029	1375.95
2401.188	1415.52
2404.347	1406.59
2407.506	1388.31
2410.665	1423.85
2413.823	1509.24
2416.981	1598.15
2420.139	1545.92
2423.296	1538.09
2426.453	1601.82
2429.61	1540.7
2432.767	1611.77
2435.923	1595.89
2439.079	1743.25
2442.235	1762.06
2445.391	1750.61
2448.546	1733.74
2451.701	1682.1
2454.855	1679.99
2458.009	1776.29
2461.163	1857.78
2464.317	1922.07
2467.471	1971.43
2470.624	1977.15
2473.777	1924.42
2476.929	1878.81
2480.082	1824.16
2483.234	1808.42
2486.385	1901.81
2489.537	1910.6
2492.688	1983.05
2495.839	1920.45
2498.989	1876.7
2502.14	1889.6
2505.29	1900
2508.439	1936.36
2511.589	1927.39
2514.738	2103.98
2517.887	2058.73
2521.035	2172.23
2524.183	2194.32
2527.331	2212.8
2530.479	2203.87
2533.627	2226.75
