Data from C_2_DEC_CT_2N_Splice17_13-29-57-860.txt Node
Date: Sat Mar 07 13:29:57 EST 2020
User: sa697716
Spectrometer: NQ5500242
Trigger mode: 0
Integration Time (sec): 1.450000E-1
Scans to average: 20
Nonlinearity correction enabled: false
Boxcar width: 5
Storing dark spectrum: false
XAxis mode: Wavelengths
Number of Pixels in Spectrum: 512
>>>>>Begin Spectral Data<<<<<
187.83	93.09
188.298	93.86
188.766	76.91
189.233	61.7
189.701	69.83
190.169	97.84
190.636	52.16
191.104	-27.32
191.571	-518.66
192.039	-423.1
192.506	-199.37
192.974	8.21
193.441	-21.32
193.908	-29.84
194.375	12.38
194.842	-26
195.31	48.36
195.777	-30.61
196.244	44.59
196.711	47.82
197.177	52.82
197.644	54.42
198.111	54.52
198.578	53.9
199.045	53.77
199.511	53.62
199.978	54.11
200.445	53.9
200.911	53.94
201.378	54.06
201.844	54.07
202.31	53.47
202.777	53.16
203.243	53.16
203.709	52.85
204.176	52.39
204.642	51.69
205.108	51.23
205.574	50.72
206.04	49.82
206.506	49.04
206.972	48.95
207.438	48.46
207.903	47.82
208.369	46.74
208.835	46.27
209.301	45.48
209.766	44.6
210.232	43.2
210.697	42.25
211.163	41.45
211.628	40.83
212.094	39.75
212.559	38.91
213.024	38
213.49	37.26
213.955	36.24
214.42	35.27
214.885	34.19
215.35	33.17
215.815	31.71
216.28	29.68
216.745	27.36
217.21	25.17
217.675	23.17
218.14	21.47
218.604	19.97
219.069	18.74
219.534	17.78
219.998	16.89
220.463	16.16
220.927	15.42
221.392	14.93
221.856	14.51
222.32	14.12
222.785	13.79
223.249	13.49
223.713	13.2
224.177	12.93
224.642	12.67
225.106	12.42
225.57	12.19
226.034	12.02
226.497	11.82
226.961	11.65
227.425	11.46
227.889	11.28
228.353	11.08
228.816	10.89
229.28	10.74
229.744	10.57
230.207	10.42
230.671	10.27
231.134	10.12
231.597	10.01
232.061	9.87
232.524	9.74
232.987	9.63
233.45	9.53
233.914	9.42
234.377	9.31
234.84	9.2
235.303	9.12
235.766	9.03
236.229	8.93
236.691	8.82
237.154	8.72
237.617	8.63
238.08	8.54
238.542	8.44
239.005	8.37
239.468	8.28
239.93	8.21
240.393	8.14
240.855	8.04
241.317	7.97
241.78	7.88
242.242	7.8
242.704	7.73
243.166	7.66
243.629	7.61
244.091	7.53
244.553	7.46
245.015	7.38
245.477	7.31
245.939	7.25
246.4	7.19
246.862	7.12
247.324	7.07
247.786	7.01
248.247	6.94
248.709	6.87
249.17	6.81
249.632	6.76
250.093	6.72
250.555	6.67
251.016	6.62
251.477	6.58
251.939	6.55
252.4	6.51
252.861	6.48
253.322	6.44
253.783	6.4
254.244	6.37
254.705	6.33
255.166	6.29
255.627	6.25
256.088	6.22
256.549	6.18
257.009	6.13
257.47	6.08
257.931	6.02
258.391	5.97
258.852	5.94
259.312	5.9
259.773	5.86
260.233	5.83
260.694	5.79
261.154	5.75
261.614	5.72
262.074	5.69
262.534	5.66
262.994	5.64
263.455	5.62
263.915	5.59
264.374	5.57
264.834	5.55
265.294	5.52
265.754	5.51
266.214	5.49
266.673	5.48
267.133	5.47
267.593	5.45
268.052	5.44
268.512	5.43
268.971	5.41
269.431	5.4
269.89	5.38
270.349	5.37
270.809	5.36
271.268	5.34
271.727	5.33
272.186	5.31
272.645	5.3
273.104	5.28
273.563	5.27
274.022	5.26
274.481	5.25
274.94	5.25
275.399	5.23
275.857	5.23
276.316	5.21
276.775	5.21
277.233	5.2
277.692	5.19
278.15	5.17
278.609	5.16
279.067	5.15
279.525	5.14
279.984	5.12
280.442	5.11
280.9	5.09
281.358	5.08
281.816	5.06
282.274	5.05
282.732	5.03
283.19	5.03
283.648	5.01
284.106	5
284.564	4.99
285.021	4.98
285.479	4.97
285.937	4.96
286.394	4.95
286.852	4.95
287.309	4.93
287.767	4.92
288.224	4.9
288.682	4.89
289.139	4.86
289.596	4.85
290.053	4.82
290.511	4.8
290.968	4.78
291.425	4.76
291.882	4.76
292.339	4.74
292.796	4.72
293.252	4.71
293.709	4.7
294.166	4.69
294.623	4.67
295.079	4.67
295.536	4.66
295.992	4.65
296.449	4.64
296.905	4.63
297.362	4.62
297.818	4.61
298.274	4.61
298.731	4.61
299.187	4.6
299.643	4.59
300.099	4.58
300.555	4.57
301.011	4.56
301.467	4.55
301.923	4.54
302.379	4.53
302.835	4.52
303.291	4.5
303.746	4.5
304.202	4.5
304.658	4.49
305.113	4.49
305.569	4.49
306.024	4.49
306.479	4.48
306.935	4.48
307.39	4.48
307.845	4.47
308.301	4.48
308.756	4.47
309.211	4.46
309.666	4.47
310.121	4.46
310.576	4.46
311.031	4.45
311.486	4.45
311.94	4.45
312.395	4.44
312.85	4.45
313.305	4.44
313.759	4.44
314.214	4.44
314.668	4.42
315.123	4.42
315.577	4.41
316.032	4.41
316.486	4.4
316.94	4.39
317.394	4.37
317.849	4.35
318.303	4.34
318.757	4.32
319.211	4.31
319.665	4.29
320.119	4.27
320.572	4.27
321.026	4.26
321.48	4.25
321.934	4.23
322.387	4.23
322.841	4.22
323.295	4.23
323.748	4.23
324.202	4.23
324.655	4.23
325.108	4.22
325.562	4.21
326.015	4.2
326.468	4.2
326.921	4.2
327.374	4.19
327.827	4.19
328.28	4.17
328.733	4.16
329.186	4.15
329.639	4.14
330.092	4.14
330.545	4.14
330.997	4.14
331.45	4.14
331.903	4.15
332.355	4.16
332.808	4.15
333.26	4.14
333.713	4.14
334.165	4.15
334.617	4.15
335.069	4.15
335.522	4.16
335.974	4.15
336.426	4.14
336.878	4.12
337.33	4.11
337.782	4.11
338.234	4.12
338.686	4.11
339.137	4.11
339.589	4.09
340.041	4.07
340.493	4.06
340.944	4.04
341.396	4.03
341.847	4.02
342.299	4
342.75	3.99
343.201	3.97
343.653	3.97
344.104	3.96
344.555	3.95
345.006	3.94
345.457	3.94
345.908	3.93
346.359	3.92
346.81	3.92
347.261	3.91
347.712	3.9
348.163	3.9
348.613	3.89
349.064	3.89
349.515	3.88
349.965	3.88
350.416	3.87
350.866	3.86
351.317	3.85
351.767	3.85
352.217	3.85
352.668	3.85
353.118	3.85
353.568	3.85
354.018	3.85
354.468	3.85
354.918	3.85
355.368	3.86
355.818	3.86
356.268	3.87
356.718	3.87
357.168	3.87
357.617	3.86
358.067	3.85
358.517	3.87
358.966	3.87
359.416	3.87
359.865	3.87
360.315	3.87
360.764	3.87
361.213	3.87
361.663	3.87
362.112	3.87
362.561	3.87
363.01	3.88
363.459	3.85
363.908	3.84
364.357	3.84
364.806	3.83
365.255	3.83
365.703	3.83
366.152	3.83
366.601	3.84
367.05	3.83
367.498	3.83
367.947	3.82
368.395	3.83
368.844	3.82
369.292	3.82
369.74	3.82
370.189	3.82
370.637	3.83
371.085	3.82
371.533	3.81
371.981	3.81
372.429	3.8
372.877	3.81
373.325	3.81
373.773	3.81
374.221	3.8
374.669	3.8
375.116	3.79
375.564	3.78
376.012	3.78
376.459	3.77
376.907	3.77
377.354	3.78
377.801	3.78
378.249	3.78
378.696	3.78
379.143	3.79
379.591	3.8
380.038	3.8
380.485	3.81
380.932	3.81
381.379	3.83
381.826	3.83
382.273	3.84
382.72	3.83
383.166	3.83
383.613	3.83
384.06	3.83
384.506	3.82
384.953	3.82
385.4	3.83
385.846	3.83
386.292	3.83
386.739	3.83
387.185	3.83
387.631	3.84
388.078	3.85
388.524	3.85
388.97	3.86
389.416	3.87
389.862	3.88
390.308	3.9
390.754	3.92
391.2	3.94
391.645	3.96
392.091	3.98
392.537	4.01
392.983	4.02
393.428	4.05
393.874	4.08
394.319	4.1
394.765	4.12
395.21	4.13
395.655	4.14
396.101	4.17
396.546	4.19
396.991	4.22
397.436	4.24
397.881	4.29
398.326	4.31
398.771	4.35
399.216	4.38
399.661	4.42
400.106	4.46
400.551	4.5
400.995	4.51
401.44	4.54
401.885	4.56
402.329	4.6
402.774	4.61
403.218	4.66
403.663	4.69
404.107	4.72
404.551	4.73
404.995	4.76
405.44	4.77
405.884	4.81
406.328	4.84
406.772	4.87
407.216	4.89
407.66	4.92
408.104	4.91
408.547	4.94
408.991	4.98
409.435	5.01
409.879	5.04
410.322	5.08
410.766	5.12
411.209	5.16
411.653	5.2
412.096	5.22
412.54	5.25
412.983	5.28
413.426	5.34
413.869	5.37
414.312	5.41
414.756	5.44
415.199	5.47
415.642	5.49
416.085	5.51
416.527	5.51
416.97	5.53
417.413	5.55
417.856	5.57
418.298	5.56
418.741	5.57
419.184	5.58
419.626	5.58
420.069	5.6
420.511	5.6
420.953	5.62
421.396	5.64
421.838	5.67
422.28	5.68
422.722	5.71
423.164	5.71
423.606	5.72
424.048	5.72
424.49	5.73
424.932	5.73
425.374	5.73
425.816	5.71
426.258	5.7
426.699	5.69
427.141	5.69
427.582	5.67
428.024	5.69
428.465	5.7
428.907	5.69
429.348	5.68
429.789	5.67
430.231	5.68
430.672	5.7
431.113	5.73
431.554	5.73
431.995	5.75
432.436	5.77
432.877	5.77
433.318	5.78
433.759	5.82
434.2	5.85
434.64	5.89
435.081	5.89
435.522	5.9
435.962	5.9
436.403	5.93
436.843	5.95
437.284	5.94
437.724	5.95
438.164	5.95
438.604	5.95
439.045	5.96
439.485	5.97
439.925	5.97
440.365	6
440.805	6.02
441.245	6.05
441.685	6.07
442.125	6.11
442.564	6.14
443.004	6.16
443.444	6.19
443.883	6.2
444.323	6.23
444.762	6.26
445.202	6.27
445.641	6.31
446.081	6.33
446.52	6.35
446.959	6.38
447.398	6.43
447.837	6.46
448.276	6.49
448.716	6.53
449.154	6.57
449.593	6.62
450.032	6.66
450.471	6.67
450.91	6.7
451.349	6.72
451.787	6.73
452.226	6.73
452.664	6.74
453.103	6.74
453.541	6.75
453.98	6.76
454.418	6.75
454.856	6.75
455.295	6.76
455.733	6.74
456.171	6.72
456.609	6.71
457.047	6.69
457.485	6.68
457.923	6.69
458.361	6.69
458.798	6.68
459.236	6.68
459.674	6.67
460.111	6.66
460.549	6.66
460.987	6.66
461.424	6.67
461.862	6.7
462.299	6.71
462.736	6.71
463.173	6.71
463.611	6.71
464.048	6.73
464.485	6.73
464.922	6.74
465.359	6.75
465.796	6.77
466.233	6.77
466.67	6.77
467.106	6.78
467.543	6.78
467.98	6.77
468.416	6.78
468.853	6.77
469.29	6.78
469.726	6.78
470.162	6.78
470.599	6.77
471.035	6.77
471.471	6.77
471.907	6.77
472.344	6.78
472.78	6.79
473.216	6.79
473.652	6.81
474.088	6.8
474.523	6.81
474.959	6.81
475.395	6.8
475.831	6.8
476.266	6.8
476.702	6.78
477.138	6.77
477.573	6.77
478.008	6.77
478.444	6.75
478.879	6.76
479.314	6.76
479.75	6.76
480.185	6.75
480.62	6.75
481.055	6.75
481.49	6.76
481.925	6.76
482.36	6.76
482.795	6.76
483.229	6.76
483.664	6.77
484.099	6.77
484.534	6.78
484.968	6.8
485.403	6.82
485.837	6.83
486.271	6.86
486.706	6.88
487.14	6.9
487.574	6.95
488.009	6.98
488.443	7.02
488.877	7.07
489.311	7.11
489.745	7.16
490.179	7.21
490.613	7.28
491.046	7.33
491.48	7.4
491.914	7.47
492.348	7.54
492.781	7.62
493.215	7.7
493.648	7.78
494.082	7.85
494.515	7.93
494.948	8.03
495.382	8.13
495.815	8.23
496.248	8.34
496.681	8.45
497.114	8.56
497.547	8.67
497.98	8.79
498.413	8.91
498.846	9.06
499.279	9.21
499.711	9.35
500.144	9.5
500.577	9.66
501.009	9.82
501.442	9.98
501.874	10.16
502.306	10.34
502.739	10.54
503.171	10.73
503.603	10.92
504.036	11.11
504.468	11.3
504.9	11.5
505.332	11.71
505.764	11.93
506.196	12.15
506.627	12.38
507.059	12.6
507.491	12.82
507.923	13.06
508.354	13.33
508.786	13.59
509.217	13.86
509.649	14.13
510.08	14.39
510.512	14.66
510.943	14.93
511.374	15.2
511.805	15.48
512.237	15.76
512.668	16.03
513.099	16.3
513.53	16.59
513.961	16.87
514.391	17.15
514.822	17.42
515.253	17.7
515.684	17.97
516.114	18.25
516.545	18.52
516.975	18.81
517.406	19.09
517.836	19.36
518.267	19.64
518.697	19.89
519.127	20.15
519.558	20.41
519.988	20.67
520.418	20.93
520.848	21.17
521.278	21.43
521.708	21.82
522.138	22.03
522.567	22.25
522.997	22.45
523.427	22.66
523.857	22.87
524.286	23.06
524.716	23.24
525.145	23.42
525.575	23.59
526.004	23.76
526.433	23.76
526.863	23.93
527.292	24.09
527.721	24.23
528.15	24.36
528.579	24.49
529.008	24.63
529.437	24.74
529.866	24.86
530.295	24.99
530.724	25.1
531.152	25.21
531.581	25.3
532.01	25.39
532.438	25.49
532.867	25.58
533.295	25.66
533.723	25.73
534.152	25.79
534.58	25.86
535.008	25.91
535.436	25.97
535.865	26
536.293	26.05
536.721	26.1
537.149	26.14
537.576	26.18
538.004	26.23
538.432	26.27
538.86	26.32
539.287	26.35
539.715	26.38
540.143	26.39
540.57	26.42
540.998	26.43
541.425	26.46
541.852	26.49
542.28	26.51
542.707	26.53
543.134	26.55
543.561	26.58
543.988	26.6
544.415	26.61
544.842	26.63
545.269	26.66
545.696	26.71
546.123	26.72
546.549	26.74
546.976	26.76
547.403	26.78
547.829	26.8
548.256	26.81
548.682	26.81
549.108	26.84
549.535	26.86
549.961	26.86
550.387	26.85
550.813	26.86
551.24	26.85
551.666	26.84
552.092	26.84
552.518	26.83
552.943	26.82
553.369	26.82
553.795	26.78
554.221	26.76
554.646	26.74
555.072	26.72
555.498	26.7
555.923	26.67
556.349	26.63
556.774	26.57
557.199	26.53
557.625	26.5
558.05	26.45
558.475	26.41
558.9	26.35
559.325	26.31
559.75	26.24
560.175	26.17
560.6	26.11
561.025	26.04
561.449	25.98
561.874	25.89
562.299	25.81
562.723	25.72
563.148	25.63
563.572	25.54
563.997	25.44
564.421	25.34
564.846	25.24
565.27	25.13
565.694	25.04
566.118	24.92
566.542	24.82
566.966	24.7
567.39	24.6
567.814	24.48
568.238	24.36
568.662	24.24
569.086	24.14
569.509	24.03
569.933	23.91
570.357	23.79
570.78	23.68
571.204	23.55
571.627	23.44
572.05	23.32
572.474	23.22
572.897	23.11
573.32	23.01
573.743	22.89
574.166	22.78
574.589	22.68
575.012	22.59
575.435	22.5
575.858	22.4
576.281	22.29
576.704	22.2
577.126	22.11
577.549	22.02
577.972	21.94
578.394	21.84
578.817	21.77
579.239	21.69
579.661	21.61
580.084	21.53
580.506	21.46
580.928	21.39
581.35	21.34
581.772	21.26
582.194	21.2
582.616	21.13
583.038	21.06
583.46	20.98
583.882	20.91
584.303	20.84
584.725	20.77
585.147	20.72
585.568	20.66
585.99	20.59
586.411	20.56
586.833	20.49
587.254	20.43
587.675	20.39
588.096	20.35
588.518	20.31
588.939	20.29
589.36	20.25
589.781	20.2
590.202	20.18
590.623	20.15
591.043	20.09
591.464	20.06
591.885	20.02
592.305	19.99
592.726	19.97
593.147	19.93
593.567	19.89
593.987	19.86
594.408	19.82
594.828	19.79
595.248	19.76
595.669	19.73
596.089	19.7
596.509	19.68
596.929	19.65
597.349	19.61
597.769	19.59
598.189	19.54
598.608	19.51
599.028	19.49
599.448	19.45
599.867	19.41
600.287	19.39
600.706	19.35
601.126	19.3
601.545	19.26
601.965	19.21
602.384	19.16
602.803	19.11
603.222	19.07
603.641	19.01
604.061	18.96
604.48	18.9
604.898	18.81
605.317	18.75
605.736	18.68
606.155	18.62
606.574	18.55
606.992	18.47
607.411	18.39
607.829	18.29
608.248	18.2
608.666	18.11
609.085	18.03
609.503	17.96
609.921	17.88
610.339	17.81
610.758	17.73
611.176	17.64
611.594	17.57
612.012	17.49
612.43	17.43
612.847	17.37
613.265	17.29
613.683	17.22
614.101	17.13
614.518	17.06
614.936	16.99
615.353	16.91
615.771	16.85
616.188	16.77
616.606	16.71
617.023	16.64
617.44	16.58
617.857	16.53
618.274	16.48
618.691	16.43
619.108	16.37
619.525	16.32
619.942	16.27
620.359	16.23
620.776	16.19
621.192	16.16
621.609	16.13
622.026	16.09
622.442	16.06
622.859	16.02
623.275	16
623.691	15.97
624.108	15.95
624.524	15.94
624.94	15.92
625.356	15.91
625.772	15.9
626.188	15.89
626.604	15.88
627.02	15.88
627.436	15.87
627.852	15.87
628.268	15.87
628.683	15.86
629.099	15.85
629.514	15.84
629.93	15.82
630.345	15.8
630.761	15.76
631.176	15.74
631.591	15.71
632.007	15.67
632.422	15.63
632.837	15.57
633.252	15.5
633.667	15.43
634.082	15.36
634.497	15.29
634.911	15.21
635.326	15.12
635.741	15.03
636.155	14.92
636.57	14.82
636.984	14.7
637.399	14.6
637.813	14.49
638.228	14.38
638.642	14.26
639.056	14.13
639.47	14.01
639.884	13.89
640.298	13.76
640.712	13.63
641.126	13.49
641.54	13.36
641.954	13.21
642.368	13.08
642.781	12.95
643.195	12.82
643.609	12.7
644.022	12.57
644.436	12.44
644.849	12.31
645.262	12.2
645.676	12.09
646.089	11.99
646.502	11.9
646.915	11.81
647.328	11.71
647.741	11.62
648.154	11.53
648.567	11.47
648.98	11.4
649.393	11.32
649.805	11.25
650.218	11.19
650.631	11.13
651.043	11.07
651.456	11.02
651.868	10.96
652.28	10.91
652.693	10.84
653.105	10.76
653.517	10.68
653.929	10.62
654.341	10.54
654.753	10.44
655.165	10.34
655.577	10.25
655.989	10.15
656.401	10.03
656.813	9.92
657.224	9.81
657.636	9.69
658.047	9.57
658.459	9.45
658.87	9.33
659.282	9.2
659.693	9.08
660.104	8.93
660.515	8.8
660.926	8.67
661.338	8.53
661.749	8.4
662.159	8.27
662.57	8.15
662.981	8.03
663.392	7.92
663.803	7.81
664.213	7.7
664.624	7.61
665.035	7.51
665.445	7.43
665.855	7.35
666.266	7.29
666.676	7.23
667.086	7.16
667.497	7.09
667.907	7.03
668.317	6.98
668.727	6.93
669.137	6.89
669.547	6.86
669.956	6.82
670.366	6.79
670.776	6.75
671.186	6.73
671.595	6.7
672.005	6.67
672.414	6.67
672.824	6.65
673.233	6.64
673.642	6.64
674.052	6.64
674.461	6.65
674.87	6.65
675.279	6.68
675.688	6.7
676.097	6.73
676.506	6.76
676.915	6.79
677.323	6.83
677.732	6.87
678.141	6.92
678.549	6.97
678.958	7.04
679.366	7.12
679.775	7.19
680.183	7.29
680.592	7.41
681	7.54
681.408	7.68
681.816	7.84
682.224	8.03
682.632	8.22
683.04	8.44
683.448	8.68
683.856	8.93
684.264	9.24
684.671	9.54
685.079	9.86
685.487	10.22
685.894	10.6
686.302	11.02
686.709	11.45
687.116	11.9
687.524	12.37
687.931	12.86
688.338	13.36
688.745	13.86
689.152	14.38
689.559	14.93
689.966	15.48
690.373	16.04
690.78	16.6
691.187	17.17
691.593	17.73
692	18.29
692.407	18.83
692.813	19.39
693.22	19.94
693.626	20.47
694.032	20.99
694.439	21.5
694.845	22.01
695.251	22.5
695.657	22.96
696.063	23.44
696.469	23.91
696.875	24.38
697.281	24.82
697.687	25.27
698.093	25.71
698.498	26.12
698.904	26.52
699.31	26.92
699.715	27.31
700.12	27.7
700.526	28.06
700.931	28.4
701.337	28.73
701.742	29.03
702.147	29.34
702.552	29.65
702.957	29.94
703.362	30.24
703.767	30.49
704.172	30.74
704.577	31
704.981	31.25
705.386	31.5
705.791	31.75
706.195	32.02
706.6	32.27
707.004	32.49
707.408	32.72
707.813	32.95
708.217	33.16
708.621	33.37
709.025	33.54
709.43	33.74
709.834	33.94
710.237	34.11
710.641	34.27
711.045	34.43
711.449	34.61
711.853	34.78
712.256	34.94
712.66	35.11
713.064	35.26
713.467	35.43
713.87	35.59
714.274	35.73
714.677	35.87
715.08	36
715.484	36.15
715.887	36.28
716.29	36.38
716.693	36.52
717.096	36.64
717.499	36.76
717.901	36.88
718.304	36.99
718.707	37.12
719.109	37.23
719.512	37.36
719.915	37.45
720.317	37.55
720.719	37.63
721.122	37.71
721.524	37.8
721.926	37.89
722.328	38
722.731	38.05
723.133	38.12
723.535	38.21
723.937	38.29
724.338	38.36
724.74	38.42
725.142	38.6
725.544	38.66
725.945	38.77
726.347	38.82
726.748	38.86
727.15	38.95
727.551	39.02
727.952	39.07
728.354	39.11
728.755	39.17
729.156	39.22
729.557	39.16
729.958	39.18
730.359	39.19
730.76	39.24
731.161	39.28
731.562	39.31
731.962	39.32
732.363	39.34
732.763	39.39
733.164	39.43
733.564	39.49
733.965	39.52
734.365	39.58
734.766	39.6
735.166	39.64
735.566	39.66
735.966	39.7
736.366	39.72
736.766	39.76
737.166	39.76
737.566	39.76
737.966	39.76
738.365	39.8
738.765	39.82
739.165	39.83
739.564	39.86
739.964	39.88
740.363	39.88
740.763	39.88
741.162	39.88
741.561	39.89
741.96	39.91
742.36	39.92
742.759	39.93
743.158	39.94
743.557	39.94
743.955	39.95
744.354	39.97
744.753	39.98
745.152	39.99
745.55	40.02
745.949	40.05
746.348	40.07
746.746	40.07
747.144	40.07
747.543	40.09
747.941	40.11
748.339	40.08
748.737	40.07
749.136	40.08
749.534	40.09
749.932	40.1
750.33	40.1
750.727	40.1
751.125	40.11
751.523	40.11
751.921	40.11
752.318	40.11
752.716	40.13
753.113	40.15
753.511	40.15
753.908	40.17
754.305	40.18
754.703	40.17
755.1	40.16
755.497	40.18
755.894	40.17
756.291	40.15
756.688	40.12
757.085	40.14
757.482	40.13
757.878	40.14
758.275	40.13
758.672	40.12
759.068	40.11
759.465	40.13
759.861	40.13
760.258	40.14
760.654	40.16
761.05	40.19
761.447	40.2
761.843	40.19
762.239	40.19
762.635	40.18
763.031	40.17
763.427	40.16
763.822	40.15
764.218	40.16
764.614	40.14
765.01	40.12
765.405	40.14
765.801	40.13
766.196	40.13
766.592	40.11
766.987	40.11
767.382	40.12
767.778	40.13
768.173	40.12
768.568	40.09
768.963	40.09
769.358	40.11
769.753	40.09
770.148	40.09
770.542	40.1
770.937	40.14
771.332	40.12
771.726	40.13
772.121	40.15
772.515	40.2
772.91	40.2
773.304	40.23
773.699	40.2
774.093	40.2
774.487	40.21
774.881	40.22
775.275	40.19
775.669	40.17
776.063	40.17
776.457	40.15
776.851	40.11
777.245	40.12
777.638	40.12
778.032	40.13
778.425	40.15
778.819	40.14
779.212	40.15
779.606	40.17
779.999	40.18
780.392	40.2
780.786	40.21
781.179	40.22
781.572	40.21
781.965	40.21
782.358	40.21
782.751	40.19
783.143	40.21
783.536	40.21
783.929	40.2
784.322	40.23
784.714	40.24
785.107	40.24
785.499	40.26
785.891	40.28
786.284	40.3
786.676	40.31
787.068	40.31
787.46	40.32
787.852	40.31
788.245	40.33
788.636	40.32
789.028	40.32
789.42	40.32
789.812	40.33
790.204	40.33
790.595	40.33
790.987	40.36
791.378	40.38
791.77	40.38
792.161	40.38
792.553	40.38
792.944	40.35
793.335	40.35
793.726	40.37
794.117	40.36
794.508	40.36
794.899	40.36
795.29	40.34
795.681	40.34
796.072	40.32
796.463	40.36
796.853	40.37
797.244	40.39
797.634	40.38
798.025	40.41
798.415	40.4
798.806	40.39
799.196	40.4
799.586	40.4
799.976	40.41
800.366	40.4
800.756	40.39
801.146	40.39
801.536	40.4
801.926	40.4
802.316	40.39
802.706	40.43
803.095	40.45
803.485	40.46
803.874	40.46
804.264	40.48
804.653	40.5
805.043	40.52
805.432	40.54
805.821	40.56
806.21	40.57
806.599	40.57
806.988	40.57
807.377	40.57
807.766	40.56
808.155	40.56
808.544	40.56
808.933	40.56
809.321	40.55
809.71	40.55
810.098	40.55
810.487	40.53
810.875	40.56
811.264	40.56
811.652	40.58
812.04	40.56
812.428	40.61
812.816	40.61
813.204	40.61
813.592	40.62
813.98	40.64
814.368	40.66
814.756	40.66
815.144	40.64
815.531	40.65
815.919	40.64
816.306	40.65
816.694	40.64
817.081	40.67
817.469	40.66
817.856	40.66
818.243	40.65
818.63	40.65
819.017	40.68
819.404	40.69
819.791	40.68
820.178	40.69
820.565	40.69
820.952	40.69
821.339	40.66
821.725	40.67
822.112	40.69
822.498	40.7
822.885	40.71
823.271	40.69
823.657	40.67
824.044	40.69
824.43	40.68
824.816	40.68
825.202	40.65
825.588	40.64
825.974	40.62
826.36	40.61
826.746	40.6
827.132	40.58
827.517	40.59
827.903	40.61
828.289	40.61
828.674	40.64
829.06	40.65
829.445	40.63
829.83	40.66
830.216	40.65
830.601	40.66
830.986	40.66
831.371	40.65
831.756	40.65
832.141	40.64
832.526	40.63
832.911	40.6
833.295	40.6
833.68	40.63
834.065	40.64
834.449	40.66
834.834	40.64
835.218	40.65
835.603	40.66
835.987	40.63
836.371	40.61
836.755	40.6
837.139	40.6
837.524	40.61
837.908	40.61
838.291	40.6
838.675	40.6
839.059	40.61
839.443	40.59
839.827	40.57
840.21	40.57
840.594	40.6
840.977	40.61
841.361	40.6
841.744	40.58
842.127	40.56
842.511	40.55
842.894	40.56
843.277	40.54
843.66	40.52
844.043	40.54
844.426	40.56
844.809	40.56
845.191	40.56
845.574	40.56
845.957	40.59
846.339	40.58
846.722	40.59
847.104	40.61
847.487	40.62
847.869	40.65
848.252	40.65
848.634	40.66
849.016	40.66
849.398	40.67
849.78	40.69
850.162	40.67
850.544	40.67
850.926	40.66
851.307	40.64
851.689	40.65
852.071	40.66
852.452	40.67
852.834	40.66
853.215	40.66
853.597	40.66
853.978	40.66
854.359	40.66
854.741	40.67
855.122	40.69
855.503	40.71
855.884	40.7
856.265	40.7
856.646	40.69
857.026	40.7
857.407	40.71
857.788	40.7
858.169	40.73
858.549	40.76
858.93	40.77
859.31	40.78
859.69	40.79
860.071	40.81
860.451	40.8
860.831	40.82
861.211	40.79
861.591	40.78
861.971	40.8
862.351	40.79
862.731	40.8
863.111	40.78
863.491	40.77
863.87	40.76
864.25	40.75
864.629	40.77
865.009	40.76
865.388	40.78
865.768	40.78
866.147	40.77
866.526	40.77
866.905	40.75
867.284	40.76
867.663	40.76
868.042	40.76
868.421	40.76
868.8	40.76
869.179	40.77
869.558	40.77
869.936	40.78
870.315	40.79
870.693	40.79
871.072	40.81
871.45	40.82
871.828	40.84
872.207	40.87
872.585	40.86
872.963	40.86
873.341	40.85
873.719	40.86
874.097	40.87
874.475	40.9
874.853	40.89
875.23	40.89
875.608	40.89
875.986	40.9
876.363	40.9
876.741	40.9
877.118	40.9
877.495	40.92
877.873	40.91
878.25	40.93
878.627	40.91
879.004	40.9
879.381	40.91
879.758	40.88
880.135	40.85
880.512	40.84
880.889	40.86
881.265	40.86
881.642	40.83
882.019	40.84
882.395	40.82
882.772	40.8
883.148	40.79
883.524	40.78
883.901	40.8
884.277	40.78
884.653	40.76
885.029	40.73
885.405	40.73
885.781	40.73
886.157	40.73
886.532	40.71
886.908	40.71
887.284	40.71
887.659	40.69
888.035	40.68
888.411	40.67
888.786	40.67
889.161	40.71
889.537	40.71
889.912	40.72
890.287	40.72
890.662	40.73
891.037	40.74
891.412	40.75
891.787	40.75
892.162	40.76
892.536	40.77
892.911	40.78
893.286	40.77
893.66	40.76
894.035	40.77
894.409	40.77
894.784	40.76
895.158	40.75
895.532	40.76
895.906	40.77
896.281	40.76
896.655	40.77
897.029	40.77
897.402	40.75
897.776	40.75
898.15	40.72
898.524	40.74
898.898	40.75
899.271	40.75
899.645	40.76
900.018	40.76
900.392	40.77
900.765	40.78
901.138	40.78
901.511	40.8
901.884	40.8
902.258	40.81
902.631	40.79
903.003	40.79
903.376	40.81
903.749	40.8
904.122	40.81
904.495	40.82
904.867	40.84
905.24	40.84
905.612	40.86
905.985	40.89
906.357	40.91
906.729	40.94
907.102	40.96
907.474	40.97
907.846	40.97
908.218	40.97
908.59	40.97
908.962	40.96
909.334	40.98
909.705	40.98
910.077	40.98
910.449	40.99
910.82	40.96
911.192	40.95
911.563	40.94
911.935	40.91
912.306	40.9
912.677	40.89
913.048	40.89
913.419	40.84
913.79	40.83
914.161	40.83
914.532	40.81
914.903	40.81
915.274	40.79
915.645	40.8
916.015	40.84
916.386	40.84
916.756	40.86
917.127	40.88
917.497	40.88
917.868	40.87
918.238	40.86
918.608	40.85
918.978	40.88
919.348	40.89
919.718	40.88
920.088	40.89
920.458	40.9
920.828	40.88
921.198	40.85
921.567	40.86
921.937	40.89
922.306	40.88
922.676	40.88
923.045	40.89
923.415	40.88
923.784	40.88
924.153	40.9
924.522	40.87
924.891	40.87
925.26	40.88
925.629	40.89
925.998	40.87
926.367	40.87
926.736	40.85
927.104	40.83
927.473	40.85
927.842	40.85
928.21	40.81
928.578	40.82
928.947	40.83
929.315	40.82
929.683	40.8
930.051	40.77
930.42	40.79
930.788	40.79
931.156	40.75
931.523	40.72
931.891	40.73
932.259	40.74
932.627	40.72
932.994	40.71
933.362	40.73
933.729	40.73
934.097	40.77
934.464	40.77
934.831	40.79
935.199	40.85
935.566	40.88
935.933	40.83
936.3	40.82
936.667	40.85
937.034	40.91
937.401	40.9
937.767	40.93
938.134	40.9
938.501	40.91
938.867	40.93
939.234	40.91
939.6	40.9
939.967	40.94
940.333	40.94
940.699	40.94
941.065	40.87
941.431	40.88
941.798	40.89
942.163	40.88
942.529	40.88
942.895	40.92
943.261	40.9
943.627	40.91
943.992	40.99
944.358	41.01
944.723	41.02
945.089	41
945.454	41.02
945.82	40.99
946.185	41.05
946.55	41.03
946.915	40.98
947.28	40.94
947.645	40.94
948.01	40.89
948.375	40.84
948.74	40.81
949.104	40.83
949.469	40.77
949.834	40.72
950.198	40.65
950.562	40.61
950.927	40.59
951.291	40.56
951.655	40.48
952.02	40.46
952.384	40.41
952.748	40.39
953.112	40.37
953.476	40.38
953.839	40.32
954.203	40.32
954.567	40.3
954.931	40.24
955.294	40.26
955.658	40.32
956.021	40.3
956.385	40.31
956.748	40.27
957.111	40.2
957.474	40.15
957.837	40.14
958.2	40.1
958.563	40.1
958.926	40.1
959.289	40.05
959.652	39.99
960.015	39.94
960.377	39.91
960.74	39.91
961.102	39.91
961.465	39.96
961.827	40.02
962.189	40.05
962.552	40.01
962.914	40.04
963.276	40.1
963.638	40.09
964	40.14
964.362	40.16
964.724	40.17
965.085	40.19
965.447	40.15
965.809	40.1
966.17	40.08
966.532	40.05
966.893	40.03
967.255	39.99
967.616	39.96
967.977	39.92
968.338	39.89
968.699	39.89
969.061	39.9
969.421	39.89
969.782	39.91
970.143	39.89
970.504	39.95
970.865	39.93
971.225	39.94
971.586	39.94
971.946	39.94
972.307	39.91
972.667	39.88
973.027	39.87
973.388	39.92
973.748	39.87
974.108	39.91
974.468	39.87
974.828	39.89
975.188	39.9
975.548	39.93
975.907	39.94
976.267	39.96
976.627	39.98
976.986	39.97
977.346	39.94
977.705	39.99
978.064	40.01
978.424	40.07
978.783	40.08
979.142	40.06
979.501	40.04
979.86	40.08
980.219	40.1
980.578	40.15
980.937	40.18
981.296	40.15
981.654	40.12
982.013	40.12
982.371	40.04
982.73	40.06
983.088	40.06
983.447	40
983.805	40.01
984.163	40.03
984.521	39.92
984.879	39.85
985.237	39.87
985.595	39.91
985.953	39.87
986.311	39.91
986.669	39.8
987.026	39.79
987.384	39.89
987.741	39.86
988.099	39.82
988.456	39.86
988.814	39.94
989.171	39.97
989.528	39.95
989.885	40.02
990.242	40.03
990.599	40.12
990.956	40.18
991.313	40.27
991.67	40.23
992.027	40.35
992.383	40.38
992.74	40.47
993.096	40.44
993.453	40.43
993.809	40.46
994.165	40.52
994.522	40.53
994.878	40.55
995.234	40.51
995.59	40.65
995.946	40.61
996.302	40.65
996.658	40.61
997.013	40.63
997.369	40.68
997.725	40.66
998.08	40.69
998.436	40.72
998.791	40.71
999.147	40.6
999.502	40.55
999.857	40.54
1000.212	40.55
1000.567	40.6
1000.922	40.63
1001.277	40.57
1001.632	40.59
1001.987	40.5
1002.342	40.47
1002.696	40.49
1003.051	40.67
1003.406	40.8
1003.76	40.82
1004.114	40.88
1004.469	40.83
1004.823	41.08
1005.177	41.16
1005.531	41.13
1005.885	41.2
1006.239	41.26
1006.593	41.4
1006.947	41.43
1007.301	41.25
1007.655	41.23
1008.008	41.29
1008.362	41.38
1008.715	41.33
1009.069	41.37
1009.422	41.52
1009.776	41.53
1010.129	41.56
1010.482	41.44
1010.835	41.54
1011.188	41.75
1011.541	41.98
1011.894	41.98
1012.247	41.88
1012.6	41.75
1012.952	41.8
1013.305	41.84
1013.657	42
1014.01	42.17
1014.362	42.33
1014.715	42.43
1015.067	42.53
1015.419	42.59
1015.771	42.66
1016.123	42.79
1016.475	42.91
1016.827	43.03
1017.179	43.2
1017.531	43.14
1017.883	42.99
1018.234	43.12
1018.586	42.87
1018.938	42.9
1019.289	42.81
1019.64	42.88
1019.992	42.87
1020.343	42.87
1020.694	42.86
1021.045	42.7
1021.396	42.89
1021.747	43.12
1022.098	43.32
1022.449	43.43
1022.8	43.71
1023.151	43.68
1023.501	43.88
1023.852	44.09
1024.202	44.26
1024.553	44.31
1024.903	44.46
1025.253	44.51
1025.604	44.58
1025.954	44.15
1026.304	44.25
1026.654	44.26
1027.004	44.27
1027.354	44.03
1027.703	43.86
1028.053	44
1028.403	44.13
1028.753	44.11
1029.102	44.37
1029.452	44.6
1029.801	45.17
1030.15	45.28
1030.499	44.99
897.758	1410.98
901.051	1422.98
904.343	1415.44
907.636	1443.78
910.928	1405.6
914.22	1407.48
917.511	1389.12
920.803	1330.29
924.094	1328.54
927.384	1296.57
930.675	1243.37
933.965	1237.85
937.255	1161.81
940.544	1118.55
943.834	1061.54
947.123	1053.54
950.411	990.96
953.7	972.4
956.988	918.15
960.276	879.07
963.563	865
966.851	833.69
970.138	826.26
973.424	801.05
976.711	806.24
979.997	766.98
983.283	762.71
986.568	745.74
989.853	724.74
993.138	712.59
996.423	686.82
999.708	666.17
1002.992	659.55
1006.275	631.19
1009.559	625.58
1012.842	601.66
1016.125	585.24
1019.408	574.56
1022.69	566.23
1025.972	553.16
1029.254	540.64
1032.536	530.29
1035.817	520.69
1039.098	513.61
1042.379	503.16
1045.659	496.97
1048.939	485.43
1052.219	477.2
1055.498	469.39
1058.778	459.01
1062.057	448.91
1065.335	443.18
1068.614	438.65
1071.892	434.1
1075.17	420.52
1078.447	411.93
1081.724	410.35
1085.001	407
1088.278	397.43
1091.554	389.61
1094.83	390.38
1098.106	387.61
1101.382	384.84
1104.657	381.22
1107.932	375.28
1111.206	376.68
1114.481	366.86
1117.755	363.01
1121.029	359.93
1124.302	360.37
1127.575	352.96
1130.848	348.82
1134.121	345.08
1137.393	343.55
1140.665	335.21
1143.937	333.45
1147.208	331.47
1150.48	331.18
1153.75	326.72
1157.021	321.72
1160.291	321.87
1163.561	319.31
1166.831	318.81
1170.101	316.46
1173.37	315.38
1176.639	317.13
1179.907	313.84
1183.176	310.07
1186.444	310.04
1189.711	309.28
1192.979	309.67
1196.246	306.97
1199.513	307.85
1202.78	305.86
1206.046	305.85
1209.312	302.1
1212.578	302.81
1215.843	305.26
1219.108	304.01
1222.373	310.34
1225.638	312.95
1228.902	316.5
1232.166	317.72
1235.43	320.59
1238.693	324.46
1241.956	326.11
1245.219	332.36
1248.482	331.94
1251.744	331.53
1255.006	333.32
1258.268	323.92
1261.529	321.08
1264.79	317.93
1268.051	315.59
1271.312	311.95
1274.572	308.16
1277.832	305.5
1281.092	300.13
1284.351	297.79
1287.61	298.01
1290.869	293.11
1294.128	291.97
1297.386	291.28
1300.644	288.7
1303.902	289.63
1307.159	288.35
1310.416	288.69
1313.673	288.15
1316.93	291.62
1320.186	291.72
1323.442	292.2
1326.697	296.82
1329.953	298.32
1333.208	300.04
1336.463	304
1339.717	303.8
1342.972	307.77
1346.226	309.83
1349.479	309.91
1352.733	310.89
1355.986	311.62
1359.238	311.84
1362.491	313.59
1365.743	316.57
1368.995	316.47
1372.247	315.81
1375.498	316.35
1378.749	318.32
1382	315.13
1385.251	316.97
1388.501	314.87
1391.751	317.29
1395	315.8
1398.25	313.26
1401.499	311.19
1404.748	310.51
1407.996	307.71
1411.244	306.34
1414.492	304.61
1417.74	302.49
1420.987	297.55
1424.234	297.58
1427.481	293.55
1430.728	293.13
1433.974	290.95
1437.22	288.19
1440.465	287.26
1443.711	285.26
1446.956	283.59
1450.201	278.69
1453.445	277.06
1456.689	276.3
1459.933	271.41
1463.177	269.06
1466.42	265
1469.663	261.47
1472.906	260.12
1476.148	253.92
1479.391	250.11
1482.633	247.93
1485.874	245.49
1489.115	242.93
1492.356	240.14
1495.597	240.42
1498.838	236.63
1502.078	235.21
1505.318	234.28
1508.557	234.03
1511.797	233.79
1515.036	233.08
1518.274	231.85
1521.513	229.72
1524.751	229.44
1527.989	228.73
1531.227	227.3
1534.464	228.17
1537.701	226.27
1540.938	225.6
1544.174	222.86
1547.41	222.7
1550.646	221.63
1553.882	221.87
1557.117	218.55
1560.352	217.4
1563.587	216.76
1566.821	215.39
1570.055	213.41
1573.289	211.63
1576.523	211.54
1579.756	209.93
1582.989	208.71
1586.222	208.79
1589.454	207.13
1592.686	209.3
1595.918	207.74
1599.15	207.1
1602.381	207.71
1605.612	207.29
1608.843	208.74
1612.073	208.11
1615.303	209.34
1618.533	209.19
1621.762	208.56
1624.992	209.13
1628.221	208.7
1631.449	209.22
1634.678	208.5
1637.906	208.58
1641.134	208.88
1644.361	208.3
1647.588	209.08
1650.815	207.99
1654.042	206.99
1657.269	208.4
1660.495	208.41
1663.72	207.33
1666.946	207.85
1670.171	208.58
1673.396	208.84
1676.621	208.79
1679.845	208.98
1683.069	208.64
1686.293	209.98
1689.517	211.6
1692.74	210.8
1695.963	211.89
1699.185	214.37
1702.408	214.28
1705.63	215.15
1708.852	215.34
1712.073	215.65
1715.294	216.28
1718.515	218.1
1721.736	217.82
1724.956	218.5
1728.176	218.63
1731.396	220.51
1734.616	219.42
1737.835	220.58
1741.054	219.19
1744.272	220.34
1747.491	222.54
1750.709	222.5
1753.927	222.27
1757.144	221.85
1760.361	222.74
1763.578	223.01
1766.795	222.14
1770.011	223.92
1773.227	223.8
1776.443	226.34
1779.658	226.94
1782.874	226.6
1786.089	227.62
1789.303	228.38
1792.518	230.52
1795.732	230.24
1798.945	232.88
1802.159	232.9
1805.372	233.39
1808.585	237.33
1811.797	238.4
1815.01	238.38
1818.222	239.95
1821.434	241.47
1824.645	242.39
1827.856	246.86
1831.067	248.86
1834.278	247.27
1837.488	249.14
1840.698	250.73
1843.908	248.43
1847.117	249.89
1850.326	251.44
1853.535	251.26
1856.744	255.28
1859.952	255.27
1863.16	253.67
1866.368	251.41
1869.575	254.89
1872.782	250.54
1875.989	250.2
1879.196	249.24
1882.402	247.2
1885.608	247.92
1888.814	248.29
1892.019	247.94
1895.224	246.57
1898.429	245.16
1901.634	246.93
1904.838	247.3
1908.042	250.39
1911.246	250.85
1914.449	252.45
1917.652	252.53
1920.855	252.61
1924.058	251.42
1927.26	249.41
1930.462	250.89
1933.664	253.86
1936.865	252.05
1940.066	251.19
1943.267	249.73
1946.467	249.74
1949.668	251.7
1952.868	254.54
1956.067	254.22
1959.267	255.53
1962.466	256.57
1965.665	254.37
1968.863	255
1972.061	258.6
1975.259	261.09
1978.457	263.16
1981.654	265.6
1984.852	265.7
1988.048	265.16
1991.245	267.57
1994.441	270.58
1997.637	272.32
2000.833	279.34
2004.028	282.75
2007.223	283.37
2010.418	285.94
2013.613	291.56
2016.807	294.26
2020.001	296.65
2023.194	300.85
2026.388	307.56
2029.581	313.22
2032.774	316.27
2035.966	321.2
2039.158	321.51
2042.35	328.76
2045.542	331.68
2048.733	335.34
2051.924	340.2
2055.115	346.18
2058.306	346.94
2061.496	350.91
2064.686	351.56
2067.875	357.78
2071.065	359.23
2074.254	357.91
2077.442	361.5
2080.631	362.9
2083.819	367.24
2087.007	367.37
2090.195	371.45
2093.382	375.13
2096.569	372.16
2099.756	377.61
2102.942	378.2
2106.128	381.78
2109.314	391.6
2112.5	390.71
2115.685	399.29
2118.87	399.42
2122.055	407.95
2125.239	410.94
2128.424	415.43
2131.608	419.57
2134.791	425.97
2137.974	427.28
2141.157	428.53
2144.34	428.44
2147.523	435.98
2150.705	432.19
2153.887	437.18
2157.068	437.19
2160.25	432.25
2163.431	434.65
2166.611	438.71
2169.792	447.69
2172.972	451.83
2176.152	454.58
2179.331	460.24
2182.511	467.72
2185.69	473.47
2188.868	482.39
2192.047	483.71
2195.225	499.06
2198.403	511.5
2201.58	521.16
2204.758	530.13
2207.935	543.01
2211.111	553.24
2214.288	559.63
2217.464	560.99
2220.64	568.64
2223.815	575.8
2226.991	599.57
2230.166	599.85
2233.34	609.51
2236.515	620.27
2239.689	619.82
2242.863	622.48
2246.036	641.19
2249.209	635.46
2252.382	646.58
2255.555	665.17
2258.727	667.9
2261.9	671.33
2265.071	678.36
2268.243	690.23
2271.414	696.35
2274.585	712.32
2277.756	721.42
2280.926	724.12
2284.096	741.87
2287.266	757.34
2290.436	765.1
2293.605	781.89
2296.774	805.46
2299.942	831.71
2303.111	836.56
2306.279	856.15
2309.447	868.92
2312.614	887.68
2315.781	913.08
2318.948	955.41
2322.115	941.1
2325.281	991.29
2328.447	972.75
2331.613	1012.45
2334.779	1000.42
2337.944	1041.56
2341.109	1050.87
2344.274	1077.86
2347.438	1118.08
2350.602	1116.32
2353.766	1152.66
2356.929	1167.86
2360.092	1157.49
2363.255	1240.27
2366.418	1235.68
2369.58	1261.12
2372.742	1342.73
2375.904	1376.38
2379.066	1367.22
2382.227	1340.77
2385.388	1454.5
2388.548	1452.66
2391.709	1473.46
2394.869	1641.3
2398.029	1570.87
2401.188	1616.82
2404.347	1605.32
2407.506	1573.6
2410.665	1623.44
2413.823	1719.62
2416.981	1820.34
2420.139	1763.18
2423.296	1743.9
2426.453	1818.55
2429.61	1754.79
2432.767	1836.27
2435.923	1816.48
2439.079	1985
2442.235	2012.39
2445.391	1992.37
2448.546	1978.14
2451.701	1922.52
2454.855	1920.18
2458.009	2045.55
2461.163	2122.8
2464.317	2195.32
2467.471	2253.94
2470.624	2257.27
2473.777	2196.86
2476.929	2142.95
2480.082	2075.93
2483.234	2055.24
2486.385	2160.95
2489.537	2170.85
2492.688	2243.62
2495.839	2188.52
2498.989	2140.45
2502.14	2149.74
2505.29	2169.89
2508.439	2207.28
2511.589	2201.4
2514.738	2405.68
2517.887	2354.33
2521.035	2489.47
2524.183	2513.78
2527.331	2528.78
2530.479	2519.7
2533.627	2541.83
