Data from C_2_DIV_PA_2N_Splice17_13-42-43-115.txt Node
Date: Sat Mar 07 13:42:43 EST 2020
User: sa697716
Spectrometer: NQ5500242
Trigger mode: 0
Integration Time (sec): 1.450000E-1
Scans to average: 20
Nonlinearity correction enabled: false
Boxcar width: 5
Storing dark spectrum: false
XAxis mode: Wavelengths
Number of Pixels in Spectrum: 512
>>>>>Begin Spectral Data<<<<<
187.83	237.07
188.298	247.7
188.766	232.05
189.233	184.09
189.701	206.32
190.169	234.32
190.636	247.47
191.104	322.56
191.571	24.7
192.039	-297.31
192.506	-460.16
192.974	62.64
193.441	114.93
193.908	86.14
194.375	66.39
194.842	54.71
195.31	115.14
195.777	409.16
196.244	92.96
196.711	72.65
197.177	72.3
197.644	71.08
198.111	71.15
198.578	70.59
199.045	70.98
199.511	70.66
199.978	71.12
200.445	71.26
200.911	71.04
201.378	70.77
201.844	70.71
202.31	70.53
202.777	70.36
203.243	70.37
203.709	69.98
204.176	69.01
204.642	68.35
205.108	67.84
205.574	67.16
206.04	66.1
206.506	65.79
206.972	65.42
207.438	64.71
207.903	63.99
208.369	62.65
208.835	61.69
209.301	60.58
209.766	59.01
210.232	57.22
210.697	55.48
211.163	54.15
211.628	52.55
212.094	50.88
212.559	49.92
213.024	48.6
213.49	47.52
213.955	46.36
214.42	45.08
214.885	43.87
215.35	42.27
215.815	40.33
216.28	37.57
216.745	34.62
217.21	31.69
217.675	28.72
218.14	26.36
218.604	24.32
219.069	22.56
219.534	21.27
219.998	20.07
220.463	19.08
220.927	18.17
221.392	17.53
221.856	17.02
222.32	16.55
222.785	16.17
223.249	15.79
223.713	15.44
224.177	15.2
224.642	14.88
225.106	14.6
225.57	14.35
226.034	14.16
226.497	13.96
226.961	13.73
227.425	13.56
227.889	13.36
228.353	13.2
228.816	13.03
229.28	12.85
229.744	12.69
230.207	12.53
230.671	12.36
231.134	12.2
231.597	12.08
232.061	11.94
232.524	11.78
232.987	11.66
233.45	11.55
233.914	11.41
234.377	11.28
234.84	11.17
235.303	11.09
235.766	11
236.229	10.89
236.691	10.77
237.154	10.68
237.617	10.61
238.08	10.51
238.542	10.41
239.005	10.35
239.468	10.26
239.93	10.17
240.393	10.09
240.855	9.98
241.317	9.89
241.78	9.8
242.242	9.71
242.704	9.63
243.166	9.56
243.629	9.49
244.091	9.4
244.553	9.32
245.015	9.23
245.477	9.15
245.939	9.09
246.4	9.01
246.862	8.94
247.324	8.88
247.786	8.79
248.247	8.71
248.709	8.62
249.17	8.55
249.632	8.5
250.093	8.45
250.555	8.4
251.016	8.34
251.477	8.29
251.939	8.25
252.4	8.19
252.861	8.14
253.322	8.1
253.783	8.06
254.244	8.02
254.705	7.97
255.166	7.92
255.627	7.88
256.088	7.83
256.549	7.79
257.009	7.73
257.47	7.67
257.931	7.62
258.391	7.56
258.852	7.51
259.312	7.46
259.773	7.41
260.233	7.37
260.694	7.32
261.154	7.27
261.614	7.23
262.074	7.18
262.534	7.15
262.994	7.13
263.455	7.1
263.915	7.07
264.374	7.05
264.834	7.03
265.294	7.01
265.754	7
266.214	6.98
266.673	6.97
267.133	6.96
267.593	6.95
268.052	6.94
268.512	6.93
268.971	6.93
269.431	6.92
269.89	6.9
270.349	6.9
270.809	6.89
271.268	6.88
271.727	6.87
272.186	6.86
272.645	6.86
273.104	6.84
273.563	6.83
274.022	6.82
274.481	6.82
274.94	6.82
275.399	6.8
275.857	6.79
276.316	6.79
276.775	6.78
277.233	6.77
277.692	6.77
278.15	6.76
278.609	6.76
279.067	6.74
279.525	6.74
279.984	6.73
280.442	6.72
280.9	6.71
281.358	6.71
281.816	6.72
282.274	6.71
282.732	6.7
283.19	6.69
283.648	6.68
284.106	6.68
284.564	6.67
285.021	6.67
285.479	6.66
285.937	6.65
286.394	6.63
286.852	6.6
287.309	6.6
287.767	6.59
288.224	6.57
288.682	6.55
289.139	6.52
289.596	6.5
290.053	6.46
290.511	6.44
290.968	6.42
291.425	6.4
291.882	6.4
292.339	6.37
292.796	6.35
293.252	6.34
293.709	6.33
294.166	6.32
294.623	6.31
295.079	6.31
295.536	6.31
295.992	6.3
296.449	6.29
296.905	6.28
297.362	6.27
297.818	6.26
298.274	6.27
298.731	6.26
299.187	6.25
299.643	6.23
300.099	6.22
300.555	6.21
301.011	6.2
301.467	6.2
301.923	6.18
302.379	6.17
302.835	6.17
303.291	6.15
303.746	6.14
304.202	6.14
304.658	6.14
305.113	6.13
305.569	6.13
306.024	6.12
306.479	6.12
306.935	6.1
307.39	6.1
307.845	6.1
308.301	6.11
308.756	6.1
309.211	6.1
309.666	6.11
310.121	6.11
310.576	6.1
311.031	6.1
311.486	6.09
311.94	6.1
312.395	6.09
312.85	6.09
313.305	6.09
313.759	6.09
314.214	6.08
314.668	6.07
315.123	6.06
315.577	6.05
316.032	6.05
316.486	6.04
316.94	6.03
317.394	6.03
317.849	6.01
318.303	5.99
318.757	5.96
319.211	5.96
319.665	5.93
320.119	5.91
320.572	5.9
321.026	5.89
321.48	5.88
321.934	5.86
322.387	5.84
322.841	5.83
323.295	5.84
323.748	5.83
324.202	5.83
324.655	5.83
325.108	5.84
325.562	5.84
326.015	5.84
326.468	5.85
326.921	5.86
327.374	5.85
327.827	5.86
328.28	5.86
328.733	5.86
329.186	5.86
329.639	5.87
330.092	5.87
330.545	5.86
330.997	5.85
331.45	5.86
331.903	5.86
332.355	5.87
332.808	5.87
333.26	5.87
333.713	5.87
334.165	5.87
334.617	5.87
335.069	5.86
335.522	5.86
335.974	5.87
336.426	5.85
336.878	5.84
337.33	5.83
337.782	5.84
338.234	5.85
338.686	5.83
339.137	5.83
339.589	5.82
340.041	5.81
340.493	5.8
340.944	5.77
341.396	5.77
341.847	5.77
342.299	5.74
342.75	5.73
343.201	5.7
343.653	5.69
344.104	5.67
344.555	5.66
345.006	5.64
345.457	5.63
345.908	5.63
346.359	5.63
346.81	5.62
347.261	5.62
347.712	5.61
348.163	5.6
348.613	5.61
349.064	5.62
349.515	5.62
349.965	5.63
350.416	5.63
350.866	5.62
351.317	5.6
351.767	5.6
352.217	5.6
352.668	5.6
353.118	5.61
353.568	5.6
354.018	5.61
354.468	5.61
354.918	5.61
355.368	5.62
355.818	5.63
356.268	5.64
356.718	5.65
357.168	5.65
357.617	5.64
358.067	5.64
358.517	5.65
358.966	5.64
359.416	5.63
359.865	5.63
360.315	5.62
360.764	5.63
361.213	5.63
361.663	5.62
362.112	5.63
362.561	5.64
363.01	5.64
363.459	5.62
363.908	5.62
364.357	5.63
364.806	5.62
365.255	5.63
365.703	5.64
366.152	5.64
366.601	5.66
367.05	5.67
367.498	5.67
367.947	5.67
368.395	5.69
368.844	5.7
369.292	5.7
369.74	5.7
370.189	5.7
370.637	5.7
371.085	5.69
371.533	5.7
371.981	5.7
372.429	5.72
372.877	5.72
373.325	5.73
373.773	5.72
374.221	5.72
374.669	5.73
375.116	5.73
375.564	5.74
376.012	5.75
376.459	5.76
376.907	5.76
377.354	5.77
377.801	5.78
378.249	5.78
378.696	5.81
379.143	5.82
379.591	5.84
380.038	5.85
380.485	5.86
380.932	5.87
381.379	5.88
381.826	5.89
382.273	5.89
382.72	5.89
383.166	5.9
383.613	5.9
384.06	5.9
384.506	5.91
384.953	5.93
385.4	5.95
385.846	5.98
386.292	5.99
386.739	6
387.185	6.01
387.631	6.03
388.078	6.05
388.524	6.07
388.97	6.09
389.416	6.12
389.862	6.14
390.308	6.15
390.754	6.18
391.2	6.2
391.645	6.22
392.091	6.26
392.537	6.28
392.983	6.31
393.428	6.34
393.874	6.35
394.319	6.37
394.765	6.39
395.21	6.4
395.655	6.41
396.101	6.43
396.546	6.45
396.991	6.47
397.436	6.5
397.881	6.53
398.326	6.55
398.771	6.59
399.216	6.6
399.661	6.61
400.106	6.64
400.551	6.65
400.995	6.65
401.44	6.66
401.885	6.68
402.329	6.69
402.774	6.71
403.218	6.74
403.663	6.76
404.107	6.77
404.551	6.78
404.995	6.79
405.44	6.79
405.884	6.82
406.328	6.83
406.772	6.83
407.216	6.84
407.66	6.83
408.104	6.82
408.547	6.81
408.991	6.84
409.435	6.85
409.879	6.86
410.322	6.9
410.766	6.91
411.209	6.94
411.653	6.96
412.096	6.99
412.54	7.02
412.983	7.04
413.426	7.08
413.869	7.1
414.312	7.14
414.756	7.16
415.199	7.15
415.642	7.16
416.085	7.17
416.527	7.15
416.97	7.12
417.413	7.11
417.856	7.09
418.298	7.08
418.741	7.08
419.184	7.07
419.626	7.07
420.069	7.08
420.511	7.08
420.953	7.07
421.396	7.11
421.838	7.15
422.28	7.16
422.722	7.19
423.164	7.19
423.606	7.19
424.048	7.19
424.49	7.19
424.932	7.18
425.374	7.15
425.816	7.13
426.258	7.09
426.699	7.07
427.141	7.08
427.582	7.08
428.024	7.09
428.465	7.09
428.907	7.09
429.348	7.08
429.789	7.09
430.231	7.14
430.672	7.18
431.113	7.21
431.554	7.22
431.995	7.22
432.436	7.23
432.877	7.23
433.318	7.27
433.759	7.29
434.2	7.33
434.64	7.36
435.081	7.36
435.522	7.37
435.962	7.38
436.403	7.42
436.843	7.42
437.284	7.4
437.724	7.4
438.164	7.38
438.604	7.38
439.045	7.38
439.485	7.37
439.925	7.35
440.365	7.34
440.805	7.34
441.245	7.31
441.685	7.33
442.125	7.35
442.564	7.34
443.004	7.34
443.444	7.34
443.883	7.34
444.323	7.33
444.762	7.31
445.202	7.3
445.641	7.31
446.081	7.31
446.52	7.3
446.959	7.32
447.398	7.33
447.837	7.32
448.276	7.32
448.716	7.31
449.154	7.33
449.593	7.34
450.032	7.32
450.471	7.28
450.91	7.28
451.349	7.28
451.787	7.23
452.226	7.21
452.664	7.2
453.103	7.17
453.541	7.15
453.98	7.14
454.418	7.11
454.856	7.11
455.295	7.1
455.733	7.07
456.171	7.05
456.609	7.06
457.047	7.03
457.485	7.02
457.923	7
458.361	6.99
458.798	6.98
459.236	6.97
459.674	6.96
460.111	6.95
460.549	6.97
460.987	6.96
461.424	6.96
461.862	6.97
462.299	6.98
462.736	6.99
463.173	7
463.611	7.02
464.048	7.03
464.485	7.03
464.922	7.04
465.359	7.04
465.796	7.08
466.233	7.1
466.67	7.11
467.106	7.1
467.543	7.09
467.98	7.08
468.416	7.05
468.853	7.04
469.29	7.03
469.726	7.02
470.162	7
470.599	6.95
471.035	6.91
471.471	6.88
471.907	6.87
472.344	6.86
472.78	6.84
473.216	6.81
473.652	6.8
474.088	6.76
474.523	6.76
474.959	6.75
475.395	6.72
475.831	6.71
476.266	6.69
476.702	6.67
477.138	6.67
477.573	6.66
478.008	6.66
478.444	6.65
478.879	6.65
479.314	6.63
479.75	6.61
480.185	6.59
480.62	6.57
481.055	6.55
481.49	6.53
481.925	6.51
482.36	6.52
482.795	6.49
483.229	6.47
483.664	6.46
484.099	6.45
484.534	6.44
484.968	6.44
485.403	6.44
485.837	6.44
486.271	6.44
486.706	6.43
487.14	6.41
487.574	6.42
488.009	6.41
488.443	6.41
488.877	6.41
489.311	6.42
489.745	6.42
490.179	6.43
490.613	6.44
491.046	6.44
491.48	6.45
491.914	6.46
492.348	6.47
492.781	6.48
493.215	6.5
493.648	6.51
494.082	6.51
494.515	6.51
494.948	6.52
495.382	6.52
495.815	6.53
496.248	6.53
496.681	6.55
497.114	6.55
497.547	6.56
497.98	6.57
498.413	6.57
498.846	6.6
499.279	6.62
499.711	6.62
500.144	6.64
500.577	6.67
501.009	6.69
501.442	6.71
501.874	6.74
502.306	6.75
502.739	6.79
503.171	6.83
503.603	6.86
504.036	6.88
504.468	6.91
504.9	6.93
505.332	6.96
505.764	7
506.196	7.04
506.627	7.08
507.059	7.13
507.491	7.16
507.923	7.21
508.354	7.27
508.786	7.34
509.217	7.42
509.649	7.49
510.08	7.56
510.512	7.64
510.943	7.71
511.374	7.79
511.805	7.87
512.237	7.95
512.668	8.03
513.099	8.11
513.53	8.19
513.961	8.28
514.391	8.38
514.822	8.5
515.253	8.6
515.684	8.72
516.114	8.83
516.545	8.94
516.975	9.06
517.406	9.19
517.836	9.31
518.267	9.45
518.697	9.57
519.127	9.69
519.558	9.81
519.988	9.94
520.418	10.06
520.848	10.19
521.278	10.33
521.708	10.7
522.138	10.84
522.567	10.97
522.997	11.09
523.427	11.23
523.857	11.37
524.286	11.48
524.716	11.6
525.145	11.73
525.575	11.85
526.004	11.97
526.433	11.83
526.863	11.94
527.292	12.07
527.721	12.17
528.15	12.27
528.579	12.37
529.008	12.47
529.437	12.57
529.866	12.64
530.295	12.74
530.724	12.81
531.152	12.89
531.581	12.97
532.01	13.03
532.438	13.1
532.867	13.17
533.295	13.23
533.723	13.29
534.152	13.34
534.58	13.39
535.008	13.43
535.436	13.48
535.865	13.53
536.293	13.56
536.721	13.59
537.149	13.63
537.576	13.67
538.004	13.7
538.432	13.72
538.86	13.75
539.287	13.77
539.715	13.81
540.143	13.82
540.57	13.85
540.998	13.86
541.425	13.89
541.852	13.92
542.28	13.93
542.707	13.94
543.134	13.97
543.561	14
543.988	14.03
544.415	14.04
544.842	14.05
545.269	14.08
545.696	14.11
546.123	14.13
546.549	14.14
546.976	14.17
547.403	14.2
547.829	14.22
548.256	14.22
548.682	14.24
549.108	14.26
549.535	14.29
549.961	14.29
550.387	14.29
550.813	14.3
551.24	14.31
551.666	14.3
552.092	14.29
552.518	14.27
552.943	14.27
553.369	14.26
553.795	14.22
554.221	14.19
554.646	14.16
555.072	14.14
555.498	14.08
555.923	14.03
556.349	13.98
556.774	13.94
557.199	13.91
557.625	13.87
558.05	13.82
558.475	13.77
558.9	13.73
559.325	13.67
559.75	13.61
560.175	13.56
560.6	13.49
561.025	13.43
561.449	13.36
561.874	13.26
562.299	13.18
562.723	13.08
563.148	12.98
563.572	12.88
563.997	12.79
564.421	12.69
564.846	12.6
565.27	12.5
565.694	12.4
566.118	12.29
566.542	12.2
566.966	12.09
567.39	12
567.814	11.91
568.238	11.82
568.662	11.73
569.086	11.65
569.509	11.55
569.933	11.48
570.357	11.39
570.78	11.31
571.204	11.22
571.627	11.16
572.05	11.08
572.474	11.02
572.897	10.96
573.32	10.88
573.743	10.81
574.166	10.75
574.589	10.68
575.012	10.62
575.435	10.55
575.858	10.5
576.281	10.43
576.704	10.37
577.126	10.3
577.549	10.23
577.972	10.18
578.394	10.13
578.817	10.09
579.239	10.05
579.661	9.99
580.084	9.96
580.506	9.92
580.928	9.87
581.35	9.84
581.772	9.8
582.194	9.77
582.616	9.74
583.038	9.69
583.46	9.64
583.882	9.6
584.303	9.56
584.725	9.52
585.147	9.52
585.568	9.5
585.99	9.46
586.411	9.44
586.833	9.41
587.254	9.37
587.675	9.34
588.096	9.32
588.518	9.28
588.939	9.28
589.36	9.24
589.781	9.19
590.202	9.19
590.623	9.17
591.043	9.14
591.464	9.12
591.885	9.11
592.305	9.1
592.726	9.1
593.147	9.09
593.567	9.06
593.987	9.03
594.408	9.01
594.828	8.96
595.248	8.95
595.669	8.93
596.089	8.92
596.509	8.9
596.929	8.87
597.349	8.84
597.769	8.82
598.189	8.79
598.608	8.79
599.028	8.78
599.448	8.77
599.867	8.74
600.287	8.73
600.706	8.7
601.126	8.68
601.545	8.67
601.965	8.65
602.384	8.62
602.803	8.61
603.222	8.59
603.641	8.55
604.061	8.53
604.48	8.5
604.898	8.46
605.317	8.44
605.736	8.41
606.155	8.39
606.574	8.35
606.992	8.32
607.411	8.28
607.829	8.21
608.248	8.17
608.666	8.14
609.085	8.11
609.503	8.08
609.921	8.05
610.339	8.02
610.758	7.99
611.176	7.95
611.594	7.94
612.012	7.91
612.43	7.91
612.847	7.89
613.265	7.86
613.683	7.83
614.101	7.81
614.518	7.78
614.936	7.75
615.353	7.72
615.771	7.69
616.188	7.65
616.606	7.64
617.023	7.62
617.44	7.61
617.857	7.59
618.274	7.56
618.691	7.54
619.108	7.52
619.525	7.51
619.942	7.5
620.359	7.49
620.776	7.48
621.192	7.47
621.609	7.45
622.026	7.45
622.442	7.44
622.859	7.43
623.275	7.41
623.691	7.4
624.108	7.4
624.524	7.39
624.94	7.39
625.356	7.39
625.772	7.37
626.188	7.36
626.604	7.35
627.02	7.34
627.436	7.34
627.852	7.35
628.268	7.35
628.683	7.34
629.099	7.34
629.514	7.35
629.93	7.35
630.345	7.35
630.761	7.35
631.176	7.35
631.591	7.35
632.007	7.34
632.422	7.33
632.837	7.32
633.252	7.31
633.667	7.28
634.082	7.25
634.497	7.23
634.911	7.21
635.326	7.19
635.741	7.18
636.155	7.14
636.57	7.13
636.984	7.1
637.399	7.09
637.813	7.06
638.228	7.03
638.642	7.01
639.056	6.98
639.47	6.95
639.884	6.93
640.298	6.89
640.712	6.87
641.126	6.84
641.54	6.81
641.954	6.78
642.368	6.75
642.781	6.75
643.195	6.72
643.609	6.71
644.022	6.68
644.436	6.66
644.849	6.63
645.262	6.61
645.676	6.57
646.089	6.56
646.502	6.55
646.915	6.54
647.328	6.51
647.741	6.5
648.154	6.47
648.567	6.47
648.98	6.46
649.393	6.45
649.805	6.44
650.218	6.44
650.631	6.43
651.043	6.42
651.456	6.4
651.868	6.39
652.28	6.38
652.693	6.37
653.105	6.35
653.517	6.34
653.929	6.33
654.341	6.32
654.753	6.3
655.165	6.29
655.577	6.27
655.989	6.26
656.401	6.25
656.813	6.25
657.224	6.23
657.636	6.22
658.047	6.22
658.459	6.19
658.87	6.18
659.282	6.17
659.693	6.16
660.104	6.14
660.515	6.12
660.926	6.1
661.338	6.08
661.749	6.07
662.159	6.06
662.57	6.04
662.981	6.04
663.392	6.03
663.803	6.03
664.213	6.01
664.624	6
665.035	6.01
665.445	6
665.855	6
666.266	6
666.676	6
667.086	5.99
667.497	5.98
667.907	5.98
668.317	5.98
668.727	5.99
669.137	5.99
669.547	5.99
669.956	5.98
670.366	6
670.776	6
671.186	6.01
671.595	6.01
672.005	6.02
672.414	6.03
672.824	6.03
673.233	6.02
673.642	6.03
674.052	6.05
674.461	6.06
674.87	6.07
675.279	6.08
675.688	6.11
676.097	6.13
676.506	6.15
676.915	6.17
677.323	6.19
677.732	6.2
678.141	6.22
678.549	6.22
678.958	6.24
679.366	6.27
679.775	6.28
680.183	6.31
680.592	6.33
681	6.35
681.408	6.37
681.816	6.4
682.224	6.43
682.632	6.47
683.04	6.5
683.448	6.53
683.856	6.54
684.264	6.58
684.671	6.59
685.079	6.62
685.487	6.67
685.894	6.71
686.302	6.75
686.709	6.81
687.116	6.87
687.524	6.95
687.931	7.04
688.338	7.13
688.745	7.23
689.152	7.34
689.559	7.49
689.966	7.62
690.373	7.77
690.78	7.95
691.187	8.12
691.593	8.31
692	8.51
692.407	8.72
692.813	8.97
693.22	9.22
693.626	9.49
694.032	9.77
694.439	10.08
694.845	10.39
695.251	10.7
695.657	11.04
696.063	11.38
696.469	11.74
696.875	12.11
697.281	12.48
697.687	12.87
698.093	13.27
698.498	13.66
698.904	14.05
699.31	14.45
699.715	14.89
700.12	15.32
700.526	15.75
700.931	16.19
701.337	16.62
701.742	17.06
702.147	17.48
702.552	17.92
702.957	18.36
703.362	18.79
703.767	19.23
704.172	19.65
704.577	20.08
704.981	20.52
705.386	20.97
705.791	21.43
706.195	21.88
706.6	22.34
707.004	22.78
707.408	23.22
707.813	23.68
708.217	24.13
708.621	24.58
709.025	25.02
709.43	25.45
709.834	25.89
710.237	26.32
710.641	26.74
711.045	27.19
711.449	27.63
711.853	28.09
712.256	28.51
712.66	28.94
713.064	29.35
713.467	29.79
713.87	30.22
714.274	30.63
714.677	31.05
715.08	31.45
715.484	31.85
715.887	32.29
716.29	32.66
716.693	33.08
717.096	33.51
717.499	33.93
717.901	34.3
718.304	34.68
718.707	35.07
719.109	35.45
719.512	35.85
719.915	36.21
720.317	36.55
720.719	36.89
721.122	37.22
721.524	37.53
721.926	37.86
722.328	38.22
722.731	38.53
723.133	38.85
723.535	39.15
723.937	39.46
724.338	39.76
724.74	40.06
725.142	40.55
725.544	40.82
725.945	41.15
726.347	41.38
726.748	41.64
727.15	41.89
727.551	42.15
727.952	42.36
728.354	42.58
728.755	42.79
729.156	43
729.557	43.01
729.958	43.23
730.359	43.4
730.76	43.61
731.161	43.78
731.562	43.98
731.962	44.15
732.363	44.33
732.763	44.49
733.164	44.66
733.564	44.84
733.965	44.99
734.365	45.14
734.766	45.3
735.166	45.45
735.566	45.58
735.966	45.72
736.366	45.84
736.766	45.98
737.166	46.11
737.566	46.22
737.966	46.33
738.365	46.44
738.765	46.55
739.165	46.64
739.564	46.73
739.964	46.83
740.363	46.9
740.763	47.01
741.162	47.09
741.561	47.18
741.96	47.26
742.36	47.34
742.759	47.43
743.158	47.47
743.557	47.54
743.955	47.62
744.354	47.66
744.753	47.75
745.152	47.81
745.55	47.87
745.949	47.92
746.348	47.98
746.746	48
747.144	48.04
747.543	48.09
747.941	48.13
748.339	48.13
748.737	48.15
749.136	48.14
749.534	48.13
749.932	48.15
750.33	48.17
750.727	48.19
751.125	48.24
751.523	48.24
751.921	48.28
752.318	48.32
752.716	48.38
753.113	48.44
753.511	48.49
753.908	48.56
754.305	48.62
754.703	48.66
755.1	48.7
755.497	48.71
755.894	48.72
756.291	48.75
756.688	48.76
757.085	48.78
757.482	48.81
757.878	48.84
758.275	48.85
758.672	48.85
759.068	48.88
759.465	48.88
759.861	48.91
760.258	48.92
760.654	48.93
761.05	48.96
761.447	48.98
761.843	48.98
762.239	49
762.635	49.01
763.031	49.01
763.427	48.99
763.822	49.01
764.218	49.03
764.614	49.05
765.01	49.05
765.405	49.06
765.801	49.04
766.196	49.05
766.592	49.02
766.987	49.05
767.382	49.08
767.778	49.11
768.173	49.11
768.568	49.11
768.963	49.13
769.358	49.17
769.753	49.16
770.148	49.18
770.542	49.19
770.937	49.21
771.332	49.19
771.726	49.16
772.121	49.15
772.515	49.16
772.91	49.16
773.304	49.16
773.699	49.14
774.093	49.13
774.487	49.13
774.881	49.15
775.275	49.11
775.669	49.14
776.063	49.14
776.457	49.15
776.851	49.13
777.245	49.1
777.638	49.09
778.032	49.1
778.425	49.13
778.819	49.12
779.212	49.12
779.606	49.18
779.999	49.18
780.392	49.21
780.786	49.22
781.179	49.26
781.572	49.32
781.965	49.35
782.358	49.36
782.751	49.34
783.143	49.34
783.536	49.32
783.929	49.33
784.322	49.36
784.714	49.35
785.107	49.37
785.499	49.37
785.891	49.37
786.284	49.38
786.676	49.36
787.068	49.38
787.46	49.42
787.852	49.45
788.245	49.43
788.636	49.39
789.028	49.41
789.42	49.36
789.812	49.36
790.204	49.36
790.595	49.36
790.987	49.36
791.378	49.36
791.77	49.37
792.161	49.35
792.553	49.38
792.944	49.38
793.335	49.38
793.726	49.41
794.117	49.39
794.508	49.37
794.899	49.34
795.29	49.36
795.681	49.33
796.072	49.33
796.463	49.43
796.853	49.43
797.244	49.45
797.634	49.46
798.025	49.47
798.415	49.49
798.806	49.5
799.196	49.55
799.586	49.53
799.976	49.55
800.366	49.55
800.756	49.48
801.146	49.49
801.536	49.5
801.926	49.49
802.316	49.47
802.706	49.5
803.095	49.55
803.485	49.54
803.874	49.59
804.264	49.59
804.653	49.62
805.043	49.63
805.432	49.63
805.821	49.61
806.21	49.63
806.599	49.63
806.988	49.62
807.377	49.58
807.766	49.56
808.155	49.53
808.544	49.55
808.933	49.52
809.321	49.53
809.71	49.53
810.098	49.56
810.487	49.54
810.875	49.55
811.264	49.54
811.652	49.59
812.04	49.62
812.428	49.68
812.816	49.66
813.204	49.66
813.592	49.64
813.98	49.64
814.368	49.64
814.756	49.66
815.144	49.66
815.531	49.65
815.919	49.62
816.306	49.61
816.694	49.55
817.081	49.58
817.469	49.6
817.856	49.61
818.243	49.61
818.63	49.61
819.017	49.6
819.404	49.58
819.791	49.6
820.178	49.61
820.565	49.58
820.952	49.6
821.339	49.57
821.725	49.54
822.112	49.52
822.498	49.53
822.885	49.54
823.271	49.55
823.657	49.52
824.044	49.5
824.43	49.52
824.816	49.54
825.202	49.51
825.588	49.52
825.974	49.53
826.36	49.56
826.746	49.53
827.132	49.53
827.517	49.54
827.903	49.58
828.289	49.6
828.674	49.59
829.06	49.58
829.445	49.59
829.83	49.59
830.216	49.58
830.601	49.57
830.986	49.6
831.371	49.58
831.756	49.58
832.141	49.59
832.526	49.58
832.911	49.57
833.295	49.58
833.68	49.6
834.065	49.6
834.449	49.59
834.834	49.58
835.218	49.58
835.603	49.58
835.987	49.54
836.371	49.52
836.755	49.49
837.139	49.46
837.524	49.46
837.908	49.45
838.291	49.49
838.675	49.49
839.059	49.47
839.443	49.44
839.827	49.41
840.21	49.41
840.594	49.44
840.977	49.46
841.361	49.5
841.744	49.45
842.127	49.42
842.511	49.37
842.894	49.37
843.277	49.38
843.66	49.36
844.043	49.4
844.426	49.39
844.809	49.37
845.191	49.37
845.574	49.36
845.957	49.4
846.339	49.42
846.722	49.43
847.104	49.44
847.487	49.43
847.869	49.44
848.252	49.45
848.634	49.47
849.016	49.48
849.398	49.48
849.78	49.48
850.162	49.46
850.544	49.46
850.926	49.47
851.307	49.46
851.689	49.48
852.071	49.5
852.452	49.49
852.834	49.5
853.215	49.49
853.597	49.48
853.978	49.47
854.359	49.49
854.741	49.5
855.122	49.5
855.503	49.5
855.884	49.49
856.265	49.49
856.646	49.49
857.026	49.48
857.407	49.5
857.788	49.52
858.169	49.54
858.549	49.54
858.93	49.54
859.31	49.56
859.69	49.58
860.071	49.61
860.451	49.59
860.831	49.6
861.211	49.6
861.591	49.58
861.971	49.56
862.351	49.56
862.731	49.56
863.111	49.54
863.491	49.54
863.87	49.53
864.25	49.5
864.629	49.51
865.009	49.53
865.388	49.53
865.768	49.55
866.147	49.55
866.526	49.54
866.905	49.55
867.284	49.58
867.663	49.55
868.042	49.56
868.421	49.6
868.8	49.63
869.179	49.64
869.558	49.67
869.936	49.65
870.315	49.67
870.693	49.7
871.072	49.72
871.45	49.71
871.828	49.75
872.207	49.75
872.585	49.73
872.963	49.72
873.341	49.72
873.719	49.71
874.097	49.69
874.475	49.71
874.853	49.71
875.23	49.72
875.608	49.73
875.986	49.76
876.363	49.77
876.741	49.79
877.118	49.78
877.495	49.79
877.873	49.77
878.25	49.82
878.627	49.82
879.004	49.8
879.381	49.78
879.758	49.79
880.135	49.75
880.512	49.74
880.889	49.7
881.265	49.68
881.642	49.65
882.019	49.63
882.395	49.61
882.772	49.58
883.148	49.56
883.524	49.55
883.901	49.52
884.277	49.48
884.653	49.43
885.029	49.43
885.405	49.42
885.781	49.42
886.157	49.43
886.532	49.42
886.908	49.4
887.284	49.4
887.659	49.36
888.035	49.34
888.411	49.33
888.786	49.34
889.161	49.35
889.537	49.37
889.912	49.36
890.287	49.35
890.662	49.34
891.037	49.33
891.412	49.33
891.787	49.34
892.162	49.36
892.536	49.39
892.911	49.4
893.286	49.4
893.66	49.41
894.035	49.39
894.409	49.38
894.784	49.4
895.158	49.41
895.532	49.44
895.906	49.46
896.281	49.46
896.655	49.47
897.029	49.48
897.402	49.49
897.776	49.49
898.15	49.51
898.524	49.57
898.898	49.58
899.271	49.62
899.645	49.63
900.018	49.66
900.392	49.67
900.765	49.67
901.138	49.65
901.511	49.65
901.884	49.68
902.258	49.68
902.631	49.66
903.003	49.66
903.376	49.66
903.749	49.66
904.122	49.65
904.495	49.69
904.867	49.71
905.24	49.75
905.612	49.8
905.985	49.79
906.357	49.81
906.729	49.83
907.102	49.85
907.474	49.86
907.846	49.87
908.218	49.86
908.59	49.86
908.962	49.88
909.334	49.9
909.705	49.89
910.077	49.9
910.449	49.89
910.82	49.9
911.192	49.89
911.563	49.86
911.935	49.85
912.306	49.86
912.677	49.88
913.048	49.89
913.419	49.87
913.79	49.86
914.161	49.87
914.532	49.9
914.903	49.91
915.274	49.93
915.645	49.98
916.015	50
916.386	50.01
916.756	50.01
917.127	50
917.497	50.03
917.868	50.03
918.238	50.03
918.608	50.05
918.978	50.05
919.348	50.08
919.718	50.07
920.088	50.08
920.458	50.07
920.828	50.04
921.198	50.03
921.567	50.04
921.937	50.06
922.306	50.04
922.676	50
923.045	49.98
923.415	49.98
923.784	49.98
924.153	49.98
924.522	50.01
924.891	50
925.26	50.01
925.629	50.01
925.998	49.98
926.367	50.02
926.736	50.07
927.104	50.08
927.473	50.05
927.842	50
928.21	50.01
928.578	49.97
928.947	50.01
929.315	50
929.683	49.99
930.051	50
930.42	49.99
930.788	49.94
931.156	49.96
931.523	50
931.891	50.1
932.259	50.11
932.627	50.15
932.994	50.2
933.362	50.23
933.729	50.27
934.097	50.31
934.464	50.37
934.831	50.44
935.199	50.46
935.566	50.47
935.933	50.46
936.3	50.49
936.667	50.55
937.034	50.6
937.401	50.64
937.767	50.66
938.134	50.7
938.501	50.7
938.867	50.73
939.234	50.75
939.6	50.71
939.967	50.72
940.333	50.67
940.699	50.66
941.065	50.54
941.431	50.57
941.798	50.55
942.163	50.52
942.529	50.45
942.895	50.35
943.261	50.28
943.627	50.24
943.992	50.18
944.358	50.17
944.723	50.09
945.089	50
945.454	49.95
945.82	49.89
946.185	49.86
946.55	49.81
946.915	49.82
947.28	49.79
947.645	49.78
948.01	49.79
948.375	49.77
948.74	49.73
949.104	49.78
949.469	49.69
949.834	49.65
950.198	49.62
950.562	49.58
950.927	49.53
951.291	49.49
951.655	49.44
952.02	49.42
952.384	49.4
952.748	49.36
953.112	49.36
953.476	49.32
953.839	49.26
954.203	49.24
954.567	49.22
954.931	49.19
955.294	49.18
955.658	49.26
956.021	49.24
956.385	49.19
956.748	49.16
957.111	49.08
957.474	49.1
957.837	49.08
958.2	49.07
958.563	49.08
958.926	49.13
959.289	49.16
959.652	49.08
960.015	49.09
960.377	49.09
960.74	49.19
961.102	49.23
961.465	49.25
961.827	49.4
962.189	49.41
962.552	49.41
962.914	49.39
963.276	49.41
963.638	49.43
964	49.39
964.362	49.39
964.724	49.33
965.085	49.31
965.447	49.32
965.809	49.22
966.17	49.21
966.532	49.17
966.893	49.16
967.255	49.12
967.616	49.12
967.977	49.16
968.338	49.16
968.699	49.2
969.061	49.19
969.421	49.17
969.782	49.21
970.143	49.21
970.504	49.31
970.865	49.39
971.225	49.41
971.586	49.38
971.946	49.38
972.307	49.42
972.667	49.4
973.027	49.47
973.388	49.53
973.748	49.53
974.108	49.58
974.468	49.56
974.828	49.6
975.188	49.63
975.548	49.73
975.907	49.76
976.267	49.73
976.627	49.74
976.986	49.66
977.346	49.63
977.705	49.6
978.064	49.63
978.424	49.64
978.783	49.56
979.142	49.58
979.501	49.6
979.86	49.64
980.219	49.63
980.578	49.65
980.937	49.72
981.296	49.66
981.654	49.75
982.013	49.7
982.371	49.73
982.73	49.8
983.088	49.74
983.447	49.71
983.805	49.7
984.163	49.74
984.521	49.77
984.879	49.77
985.237	49.93
985.595	49.96
985.953	49.96
986.311	49.91
986.669	49.84
987.026	49.78
987.384	49.82
987.741	49.73
988.099	49.83
988.456	49.81
988.814	49.85
989.171	49.78
989.528	49.7
989.885	49.69
990.242	49.77
990.599	49.83
990.956	49.93
991.313	49.93
991.67	50.04
992.027	50.21
992.383	50.29
992.74	50.36
993.096	50.41
993.453	50.47
993.809	50.57
994.165	50.6
994.522	50.79
994.878	50.85
995.234	50.8
995.59	50.73
995.946	50.62
996.302	50.74
996.658	50.75
997.013	50.78
997.369	50.91
997.725	50.99
998.08	51.12
998.436	50.98
998.791	51.01
999.147	51.14
999.502	51.25
999.857	51.16
1000.212	51.06
1000.567	51.12
1000.922	51.21
1001.277	51.24
1001.632	51.18
1001.987	51.14
1002.342	51.14
1002.696	51.21
1003.051	51.39
1003.406	51.56
1003.76	51.68
1004.114	51.69
1004.469	51.71
1004.823	51.91
1005.177	51.78
1005.531	51.92
1005.885	51.9
1006.239	52.1
1006.593	52.23
1006.947	52.2
1007.301	52.14
1007.655	52.09
1008.008	52.26
1008.362	52.41
1008.715	52.26
1009.069	52.42
1009.422	52.57
1009.776	52.66
1010.129	52.65
1010.482	52.64
1010.835	52.53
1011.188	52.59
1011.541	52.69
1011.894	52.73
1012.247	52.66
1012.6	52.57
1012.952	52.52
1013.305	52.51
1013.657	52.66
1014.01	52.67
1014.362	52.72
1014.715	53.05
1015.067	53.3
1015.419	53.46
1015.771	53.35
1016.123	53.56
1016.475	53.83
1016.827	54.11
1017.179	54.17
1017.531	54.09
1017.883	54.13
1018.234	54.38
1018.586	54.42
1018.938	54.65
1019.289	54.58
1019.64	54.79
1019.992	54.61
1020.343	54.57
1020.694	54.69
1021.045	54.86
1021.396	55.01
1021.747	55.13
1022.098	55.16
1022.449	55.14
1022.8	55.13
1023.151	55.33
1023.501	55.68
1023.852	56.13
1024.202	56.26
1024.553	56.17
1024.903	56.34
1025.253	56.78
1025.604	56.91
1025.954	56.48
1026.304	56.49
1026.654	56.28
1027.004	56.23
1027.354	55.86
1027.703	55.62
1028.053	55.72
1028.403	55.87
1028.753	55.68
1029.102	55.64
1029.452	55.79
1029.801	56.45
1030.15	56.57
1030.499	56.63
897.758	2040.43
901.051	2040.14
904.343	2027.89
907.636	2070.14
910.928	2017.12
914.22	2012.71
917.511	1983.25
920.803	1897.72
924.094	1889.91
927.384	1851.56
930.675	1763.76
933.965	1751.18
937.255	1653.49
940.544	1588.58
943.834	1505.29
947.123	1490.9
950.411	1403.84
953.7	1373.34
956.988	1296.98
960.276	1241.79
963.563	1221.31
966.851	1180.47
970.138	1171.98
973.424	1133.71
976.711	1139.97
979.997	1085.13
983.283	1079.84
986.568	1057.03
989.853	1020.89
993.138	1005.21
996.423	965.99
999.708	940.52
1002.992	930.89
1006.275	883.8
1009.559	874.14
1012.842	843.73
1016.125	819.09
1019.408	805.41
1022.69	791.76
1025.972	779.44
1029.254	758.65
1032.536	746.43
1035.817	727.09
1039.098	717.53
1042.379	702.72
1045.659	696.91
1048.939	679.23
1052.219	665.34
1055.498	652.22
1058.778	640.7
1062.057	622.04
1065.335	615.3
1068.614	607.42
1071.892	603.54
1075.17	581.42
1078.447	571.11
1081.724	566.79
1085.001	561.85
1088.278	549.58
1091.554	538.25
1094.83	537.44
1098.106	535.69
1101.382	530.15
1104.657	527.1
1107.932	517.26
1111.206	522.53
1114.481	508.22
1117.755	501.54
1121.029	498.01
1124.302	499.49
1127.575	488.97
1130.848	482.13
1134.121	476.79
1137.393	475.66
1140.665	463.91
1143.937	462.89
1147.208	455.6
1150.48	457.03
1153.75	451.6
1157.021	443.21
1160.291	442.62
1163.561	439.7
1166.831	438.68
1170.101	436.29
1173.37	433.49
1176.639	435.24
1179.907	429.79
1183.176	426.81
1186.444	425.33
1189.711	425.23
1192.979	424.93
1196.246	420.89
1199.513	422.07
1202.78	420.07
1206.046	419.51
1209.312	415.06
1212.578	416.11
1215.843	419.83
1219.108	417.13
1222.373	426.66
1225.638	429.31
1228.902	437.16
1232.166	436.99
1235.43	441.22
1238.693	447.53
1241.956	449.37
1245.219	458.56
1248.482	456.38
1251.744	456.51
1255.006	458.12
1258.268	445.74
1261.529	441.47
1264.79	436.16
1268.051	434.18
1271.312	428.28
1274.572	422.61
1277.832	417.81
1281.092	410.16
1284.351	407.85
1287.61	407.36
1290.869	401.1
1294.128	398.71
1297.386	398.6
1300.644	394.31
1303.902	396.08
1307.159	392.64
1310.416	393.81
1313.673	394.58
1316.93	398.32
1320.186	399.17
1323.442	400.18
1326.697	408.13
1329.953	409.18
1333.208	411.3
1336.463	415.79
1339.717	416.87
1342.972	422.47
1346.226	424.74
1349.479	424.46
1352.733	428.25
1355.986	428.96
1359.238	429.12
1362.491	431.84
1365.743	436.17
1368.995	435.63
1372.247	434.77
1375.498	435.48
1378.749	441.27
1382	435.23
1385.251	438.29
1388.501	433.99
1391.751	437.91
1395	435.03
1398.25	432.19
1401.499	430.41
1404.748	430.5
1407.996	426.08
1411.244	423.65
1414.492	421.53
1417.74	419.3
1420.987	412.44
1424.234	413.7
1427.481	406.49
1430.728	407.87
1433.974	402.8
1437.22	399.35
1440.465	397.99
1443.711	396.82
1446.956	394.81
1450.201	387.96
1453.445	385.06
1456.689	383.99
1459.933	377.49
1463.177	374.97
1466.42	367.72
1469.663	363.7
1472.906	362
1476.148	351.6
1479.391	345.86
1482.633	341.78
1485.874	337.89
1489.115	335.49
1492.356	329.62
1495.597	328.67
1498.838	323.22
1502.078	321.24
1505.318	319.29
1508.557	319.01
1511.797	319.56
1515.036	318.59
1518.274	317.49
1521.513	312.44
1524.751	312.17
1527.989	312
1531.227	310.18
1534.464	312.2
1537.701	308.89
1540.938	307.89
1544.174	303.59
1547.41	302.18
1550.646	301.04
1553.882	300.97
1557.117	298.25
1560.352	295.46
1563.587	294.9
1566.821	292.2
1570.055	288.1
1573.289	286.49
1576.523	286.7
1579.756	283.8
1582.989	282.85
1586.222	282.17
1589.454	279.47
1592.686	281.7
1595.918	280.79
1599.15	279.54
1602.381	279.7
1605.612	279.92
1608.843	281.46
1612.073	280.15
1615.303	282.4
1618.533	282.54
1621.762	280.88
1624.992	281.85
1628.221	281.83
1631.449	281.33
1634.678	280.66
1637.906	282.18
1641.134	281.63
1644.361	280.89
1647.588	282.12
1650.815	280.42
1654.042	278.82
1657.269	281.32
1660.495	281.28
1663.72	278.27
1666.946	279.72
1670.171	280.25
1673.396	279.69
1676.621	280.5
1679.845	280.22
1683.069	279.87
1686.293	282.16
1689.517	283.82
1692.74	283.11
1695.963	284.69
1699.185	289.27
1702.408	288.79
1705.63	289.88
1708.852	291.02
1712.073	291.25
1715.294	292.17
1718.515	293.13
1721.736	292.51
1724.956	293.01
1728.176	292.99
1731.396	295.68
1734.616	294.73
1737.835	296.28
1741.054	294.21
1744.272	295.44
1747.491	298.76
1750.709	299.1
1753.927	299.91
1757.144	298.28
1760.361	301.14
1763.578	301.64
1766.795	300.75
1770.011	301.97
1773.227	302.36
1776.443	306.35
1779.658	308.16
1782.874	306.21
1786.089	307.9
1789.303	308.92
1792.518	313.1
1795.732	311.97
1798.945	316.06
1802.159	315.67
1805.372	317.8
1808.585	323.6
1811.797	325.08
1815.01	323.78
1818.222	327.15
1821.434	329.45
1824.645	331.02
1827.856	337.12
1831.067	341.26
1834.278	338.07
1837.488	341.57
1840.698	344.05
1843.908	340.02
1847.117	342.65
1850.326	345.94
1853.535	344.27
1856.744	350.73
1859.952	350.14
1863.16	349.03
1866.368	345.97
1869.575	352.88
1872.782	346.91
1875.989	345.79
1879.196	345.33
1882.402	343.16
1885.608	345.46
1888.814	348.22
1892.019	346.73
1895.224	346.36
1898.429	344.22
1901.634	347.69
1904.838	346.75
1908.042	352.32
1911.246	353.74
1914.449	356.03
1917.652	356.45
1920.855	355.84
1924.058	355.23
1927.26	353.65
1930.462	356.31
1933.664	360.81
1936.865	356.8
1940.066	357.58
1943.267	355.09
1946.467	354.48
1949.668	357.25
1952.868	361.75
1956.067	361.01
1959.267	360.53
1962.466	361.8
1965.665	359.7
1968.863	359.91
1972.061	365.03
1975.259	368.43
1978.457	370.55
1981.654	373.63
1984.852	374.43
1988.048	372.3
1991.245	376.28
1994.441	382.08
1997.637	383.97
2000.833	390.53
2004.028	396.4
2007.223	399.2
2010.418	403.03
2013.613	409.55
2016.807	414.48
2020.001	417.01
2023.194	423.19
2026.388	433.09
2029.581	441.36
2032.774	446.54
2035.966	455.04
2039.158	456.16
2042.35	465.51
2045.542	467.07
2048.733	474.36
2051.924	480.06
2055.115	488.36
2058.306	489.53
2061.496	495.36
2064.686	494.96
2067.875	503.7
2071.065	504.88
2074.254	502.45
2077.442	506.57
2080.631	509.79
2083.819	515.04
2087.007	516.27
2090.195	521.66
2093.382	526.66
2096.569	520.96
2099.756	530.06
2102.942	530.2
2106.128	538.16
2109.314	549.13
2112.5	547.02
2115.685	559.08
2118.87	560.34
2122.055	570.71
2125.239	576.39
2128.424	584.45
2131.608	588.74
2134.791	596.48
2137.974	600.01
2141.157	599.78
2144.34	601.14
2147.523	611.24
2150.705	606.41
2153.887	611.07
2157.068	612.75
2160.25	605.67
2163.431	606.45
2166.611	614.03
2169.792	625.99
2172.972	633.75
2176.152	636.18
2179.331	645.55
2182.511	657.17
2185.69	666.13
2188.868	680.45
2192.047	681.93
2195.225	702.58
2198.403	721.5
2201.58	732.68
2204.758	747.43
2207.935	762.38
2211.111	777.76
2214.288	787.91
2217.464	790.33
2220.64	798.75
2223.815	810.53
2226.991	843.19
2230.166	846.27
2233.34	863.45
2236.515	877.31
2239.689	876.6
2242.863	880.27
2246.036	909.7
2249.209	898.99
2252.382	912.35
2255.555	943.65
2258.727	945.97
2261.9	950.17
2265.071	958.73
2268.243	972.59
2271.414	986.02
2274.585	1010.77
2277.756	1021.97
2280.926	1025
2284.096	1050.21
2287.266	1075.7
2290.436	1082.83
2293.605	1108.86
2296.774	1148.4
2299.942	1184.59
2303.111	1189.52
2306.279	1220.62
2309.447	1234.45
2312.614	1265.27
2315.781	1300.39
2318.948	1361.54
2322.115	1339.39
2325.281	1411.73
2328.447	1380.92
2331.613	1436.92
2334.779	1418.15
2337.944	1481.71
2341.109	1495.82
2344.274	1536.98
2347.438	1593.85
2350.602	1598.63
2353.766	1643.22
2356.929	1665.37
2360.092	1655.99
2363.255	1782.08
2366.418	1770.47
2369.58	1811.73
2372.742	1920.19
2375.904	1966.77
2379.066	1952.33
2382.227	1914.89
2385.388	2075.26
2388.548	2085.67
2391.709	2117.01
2394.869	2354.46
2398.029	2238.19
2401.188	2305.17
2404.347	2294.89
2407.506	2260.69
2410.665	2324.86
2413.823	2470.63
2416.981	2614.98
2420.139	2525.88
2423.296	2495.4
2426.453	2603.75
2429.61	2503.51
2432.767	2637.01
2435.923	2619.64
2439.079	2842
2442.235	2876.41
2445.391	2850
2448.546	2832.48
2451.701	2750.68
2454.855	2753.31
2458.009	2916.72
2461.163	3033.75
2464.317	3146.19
2467.471	3227.94
2470.624	3223.35
2473.777	3146.06
2476.929	3076
2480.082	2993.1
2483.234	2950.06
2486.385	3088.39
2489.537	3104.45
2492.688	3230.01
2495.839	3129.56
2498.989	3073
2502.14	3090.76
2505.29	3126.48
2508.439	3172.4
2511.589	3159.87
2514.738	3435
2517.887	3369.09
2521.035	3575.81
2524.183	3597.03
2527.331	3623.93
2530.479	3625.94
2533.627	3643.43
