Data from C_2_DIV_OH_2N_Splice17_13-25-27-769.txt Node
Date: Sat Mar 07 13:25:27 EST 2020
User: sa697716
Spectrometer: NQ5500242
Trigger mode: 0
Integration Time (sec): 1.450000E-1
Scans to average: 20
Nonlinearity correction enabled: false
Boxcar width: 5
Storing dark spectrum: false
XAxis mode: Wavelengths
Number of Pixels in Spectrum: 512
>>>>>Begin Spectral Data<<<<<
187.83	163.16
188.298	187.34
188.766	156
189.233	127.86
189.701	129.68
190.169	143.19
190.636	144.13
191.104	133.86
191.571	12.75
192.039	-151.03
192.506	-297.56
192.974	34.57
193.441	94.81
193.908	-35.66
194.375	-10.27
194.842	-17.95
195.31	-13.49
195.777	-197.9
196.244	32.97
196.711	44.39
197.177	46.15
197.644	45.85
198.111	46.52
198.578	46.47
199.045	46.68
199.511	46.46
199.978	46.26
200.445	46.45
200.911	46.85
201.378	46.74
201.844	46.8
202.31	46.7
202.777	46.91
203.243	46.82
203.709	46.94
204.176	46.86
204.642	46.95
205.108	47.19
205.574	47
206.04	46.53
206.506	46.21
206.972	45.85
207.438	45.45
207.903	44.97
208.369	44.26
208.835	43.49
209.301	42.81
209.766	41.68
210.232	40.45
210.697	39.36
211.163	38.7
211.628	37.98
212.094	37.43
212.559	36.87
213.024	36.09
213.49	35.39
213.955	34.82
214.42	34.27
214.885	33.58
215.35	32.61
215.815	31.64
216.28	30
216.745	28.28
217.21	26.43
217.675	24.83
218.14	23.52
218.604	22.41
219.069	21.43
219.534	20.6
219.998	19.92
220.463	19.42
220.927	18.85
221.392	18.41
221.856	18.06
222.32	17.76
222.785	17.5
223.249	17.23
223.713	16.97
224.177	16.73
224.642	16.48
225.106	16.2
225.57	15.95
226.034	15.77
226.497	15.56
226.961	15.34
227.425	15.16
227.889	14.97
228.353	14.78
228.816	14.56
229.28	14.36
229.744	14.18
230.207	14.01
230.671	13.83
231.134	13.64
231.597	13.51
232.061	13.35
232.524	13.17
232.987	13.02
233.45	12.87
233.914	12.74
234.377	12.6
234.84	12.46
235.303	12.35
235.766	12.22
236.229	12.1
236.691	11.96
237.154	11.84
237.617	11.72
238.08	11.59
238.542	11.46
239.005	11.36
239.468	11.25
239.93	11.14
240.393	11.04
240.855	10.92
241.317	10.81
241.78	10.69
242.242	10.58
242.704	10.49
243.166	10.39
243.629	10.3
244.091	10.19
244.553	10.09
245.015	9.99
245.477	9.9
245.939	9.81
246.4	9.71
246.862	9.62
247.324	9.54
247.786	9.44
248.247	9.34
248.709	9.24
249.17	9.15
249.632	9.08
250.093	9.01
250.555	8.93
251.016	8.87
251.477	8.8
251.939	8.74
252.4	8.67
252.861	8.61
253.322	8.56
253.783	8.51
254.244	8.45
254.705	8.38
255.166	8.31
255.627	8.25
256.088	8.19
256.549	8.12
257.009	8.06
257.47	8
257.931	7.93
258.391	7.86
258.852	7.8
259.312	7.75
259.773	7.7
260.233	7.65
260.694	7.6
261.154	7.54
261.614	7.49
262.074	7.43
262.534	7.39
262.994	7.35
263.455	7.31
263.915	7.27
264.374	7.23
264.834	7.2
265.294	7.16
265.754	7.13
266.214	7.1
266.673	7.07
267.133	7.05
267.593	7.02
268.052	6.99
268.512	6.97
268.971	6.95
269.431	6.92
269.89	6.89
270.349	6.87
270.809	6.85
271.268	6.83
271.727	6.81
272.186	6.79
272.645	6.77
273.104	6.74
273.563	6.71
274.022	6.69
274.481	6.68
274.94	6.65
275.399	6.63
275.857	6.6
276.316	6.57
276.775	6.55
277.233	6.53
277.692	6.5
278.15	6.48
278.609	6.46
279.067	6.44
279.525	6.42
279.984	6.4
280.442	6.38
280.9	6.36
281.358	6.34
281.816	6.32
282.274	6.3
282.732	6.28
283.19	6.26
283.648	6.23
284.106	6.21
284.564	6.18
285.021	6.17
285.479	6.14
285.937	6.12
286.394	6.11
286.852	6.08
287.309	6.06
287.767	6.04
288.224	6.02
288.682	5.99
289.139	5.97
289.596	5.94
290.053	5.91
290.511	5.88
290.968	5.86
291.425	5.82
291.882	5.8
292.339	5.77
292.796	5.76
293.252	5.73
293.709	5.71
294.166	5.69
294.623	5.67
295.079	5.65
295.536	5.64
295.992	5.62
296.449	5.6
296.905	5.59
297.362	5.58
297.818	5.55
298.274	5.54
298.731	5.51
299.187	5.49
299.643	5.48
300.099	5.47
300.555	5.45
301.011	5.43
301.467	5.42
301.923	5.39
302.379	5.37
302.835	5.36
303.291	5.34
303.746	5.33
304.202	5.33
304.658	5.31
305.113	5.28
305.569	5.27
306.024	5.25
306.479	5.24
306.935	5.23
307.39	5.22
307.845	5.21
308.301	5.2
308.756	5.19
309.211	5.18
309.666	5.18
310.121	5.17
310.576	5.16
311.031	5.16
311.486	5.14
311.94	5.14
312.395	5.13
312.85	5.11
313.305	5.1
313.759	5.09
314.214	5.08
314.668	5.06
315.123	5.05
315.577	5.04
316.032	5.02
316.486	5.01
316.94	5
317.394	4.98
317.849	4.95
318.303	4.94
318.757	4.91
319.211	4.9
319.665	4.88
320.119	4.85
320.572	4.83
321.026	4.82
321.48	4.79
321.934	4.77
322.387	4.76
322.841	4.74
323.295	4.74
323.748	4.73
324.202	4.72
324.655	4.71
325.108	4.71
325.562	4.7
326.015	4.69
326.468	4.7
326.921	4.69
327.374	4.67
327.827	4.67
328.28	4.66
328.733	4.65
329.186	4.65
329.639	4.64
330.092	4.63
330.545	4.62
330.997	4.62
331.45	4.61
331.903	4.62
332.355	4.63
332.808	4.62
333.26	4.61
333.713	4.59
334.165	4.58
334.617	4.58
335.069	4.57
335.522	4.56
335.974	4.55
336.426	4.54
336.878	4.51
337.33	4.51
337.782	4.5
338.234	4.51
338.686	4.51
339.137	4.52
339.589	4.51
340.041	4.5
340.493	4.49
340.944	4.48
341.396	4.48
341.847	4.47
342.299	4.45
342.75	4.44
343.201	4.42
343.653	4.4
344.104	4.38
344.555	4.36
345.006	4.35
345.457	4.34
345.908	4.34
346.359	4.33
346.81	4.32
347.261	4.31
347.712	4.3
348.163	4.28
348.613	4.28
349.064	4.28
349.515	4.27
349.965	4.27
350.416	4.26
350.866	4.25
351.317	4.24
351.767	4.24
352.217	4.23
352.668	4.23
353.118	4.24
353.568	4.23
354.018	4.22
354.468	4.22
354.918	4.21
355.368	4.21
355.818	4.21
356.268	4.21
356.718	4.21
357.168	4.21
357.617	4.2
358.067	4.19
358.517	4.19
358.966	4.19
359.416	4.18
359.865	4.17
360.315	4.17
360.764	4.17
361.213	4.16
361.663	4.15
362.112	4.16
362.561	4.16
363.01	4.16
363.459	4.14
363.908	4.14
364.357	4.14
364.806	4.13
365.255	4.13
365.703	4.12
366.152	4.12
366.601	4.12
367.05	4.12
367.498	4.11
367.947	4.11
368.395	4.12
368.844	4.11
369.292	4.11
369.74	4.11
370.189	4.1
370.637	4.09
371.085	4.09
371.533	4.07
371.981	4.07
372.429	4.06
372.877	4.06
373.325	4.05
373.773	4.04
374.221	4.03
374.669	4.02
375.116	4.01
375.564	4
376.012	4
376.459	4
376.907	4
377.354	4
377.801	4
378.249	4
378.696	4
379.143	4.01
379.591	4.01
380.038	4.02
380.485	4.02
380.932	4.01
381.379	4.01
381.826	4
382.273	3.99
382.72	3.98
383.166	3.97
383.613	3.97
384.06	3.96
384.506	3.95
384.953	3.95
385.4	3.95
385.846	3.96
386.292	3.95
386.739	3.95
387.185	3.96
387.631	3.96
388.078	3.96
388.524	3.97
388.97	3.97
389.416	3.98
389.862	3.98
390.308	3.99
390.754	3.99
391.2	4
391.645	4
392.091	4.01
392.537	4.02
392.983	4.01
393.428	4.01
393.874	4.01
394.319	4.01
394.765	4.01
395.21	4
395.655	4
396.101	4
396.546	4
396.991	4.01
397.436	4.01
397.881	4.03
398.326	4.04
398.771	4.05
399.216	4.06
399.661	4.06
400.106	4.07
400.551	4.08
400.995	4.08
401.44	4.08
401.885	4.08
402.329	4.08
402.774	4.09
403.218	4.11
403.663	4.12
404.107	4.13
404.551	4.15
404.995	4.16
405.44	4.17
405.884	4.18
406.328	4.19
406.772	4.2
407.216	4.21
407.66	4.21
408.104	4.18
408.547	4.18
408.991	4.19
409.435	4.19
409.879	4.19
410.322	4.2
410.766	4.21
411.209	4.23
411.653	4.25
412.096	4.27
412.54	4.29
412.983	4.31
413.426	4.35
413.869	4.37
414.312	4.39
414.756	4.41
415.199	4.42
415.642	4.43
416.085	4.45
416.527	4.43
416.97	4.43
417.413	4.43
417.856	4.42
418.298	4.4
418.741	4.4
419.184	4.4
419.626	4.4
420.069	4.4
420.511	4.4
420.953	4.4
421.396	4.42
421.838	4.44
422.28	4.46
422.722	4.47
423.164	4.48
423.606	4.49
424.048	4.5
424.49	4.51
424.932	4.52
425.374	4.5
425.816	4.47
426.258	4.46
426.699	4.45
427.141	4.45
427.582	4.46
428.024	4.48
428.465	4.48
428.907	4.48
429.348	4.46
429.789	4.46
430.231	4.48
430.672	4.51
431.113	4.53
431.554	4.56
431.995	4.57
432.436	4.57
432.877	4.57
433.318	4.59
433.759	4.61
434.2	4.64
434.64	4.66
435.081	4.66
435.522	4.68
435.962	4.7
436.403	4.72
436.843	4.73
437.284	4.71
437.724	4.71
438.164	4.7
438.604	4.7
439.045	4.7
439.485	4.7
439.925	4.7
440.365	4.71
440.805	4.7
441.245	4.7
441.685	4.73
442.125	4.75
442.564	4.76
443.004	4.76
443.444	4.77
443.883	4.8
444.323	4.79
444.762	4.8
445.202	4.79
445.641	4.82
446.081	4.84
446.52	4.82
446.959	4.84
447.398	4.87
447.837	4.87
448.276	4.87
448.716	4.88
449.154	4.91
449.593	4.92
450.032	4.91
450.471	4.89
450.91	4.88
451.349	4.91
451.787	4.89
452.226	4.87
452.664	4.87
453.103	4.87
453.541	4.87
453.98	4.86
454.418	4.84
454.856	4.83
455.295	4.82
455.733	4.8
456.171	4.78
456.609	4.77
457.047	4.76
457.485	4.74
457.923	4.74
458.361	4.72
458.798	4.71
459.236	4.71
459.674	4.7
460.111	4.71
460.549	4.72
460.987	4.71
461.424	4.72
461.862	4.72
462.299	4.73
462.736	4.73
463.173	4.73
463.611	4.75
464.048	4.76
464.485	4.77
464.922	4.76
465.359	4.76
465.796	4.79
466.233	4.8
466.67	4.8
467.106	4.8
467.543	4.8
467.98	4.79
468.416	4.77
468.853	4.76
469.29	4.76
469.726	4.77
470.162	4.76
470.599	4.75
471.035	4.74
471.471	4.74
471.907	4.73
472.344	4.73
472.78	4.73
473.216	4.72
473.652	4.71
474.088	4.7
474.523	4.69
474.959	4.68
475.395	4.66
475.831	4.65
476.266	4.65
476.702	4.64
477.138	4.62
477.573	4.61
478.008	4.61
478.444	4.6
478.879	4.6
479.314	4.6
479.75	4.59
480.185	4.58
480.62	4.58
481.055	4.57
481.49	4.55
481.925	4.54
482.36	4.54
482.795	4.53
483.229	4.52
483.664	4.52
484.099	4.51
484.534	4.51
484.968	4.51
485.403	4.51
485.837	4.52
486.271	4.54
486.706	4.55
487.14	4.56
487.574	4.57
488.009	4.58
488.443	4.59
488.877	4.61
489.311	4.64
489.745	4.65
490.179	4.69
490.613	4.71
491.046	4.74
491.48	4.77
491.914	4.8
492.348	4.83
492.781	4.87
493.215	4.92
493.648	4.95
494.082	4.99
494.515	5.03
494.948	5.08
495.382	5.13
495.815	5.18
496.248	5.23
496.681	5.3
497.114	5.35
497.547	5.42
497.98	5.49
498.413	5.55
498.846	5.64
499.279	5.72
499.711	5.8
500.144	5.9
500.577	6
501.009	6.09
501.442	6.19
501.874	6.32
502.306	6.43
502.739	6.56
503.171	6.69
503.603	6.82
504.036	6.97
504.468	7.11
504.9	7.26
505.332	7.4
505.764	7.58
506.196	7.74
506.627	7.92
507.059	8.11
507.491	8.29
507.923	8.49
508.354	8.7
508.786	8.91
509.217	9.13
509.649	9.35
510.08	9.58
510.512	9.8
510.943	10.04
511.374	10.28
511.805	10.52
512.237	10.78
512.668	11.03
513.099	11.28
513.53	11.55
513.961	11.83
514.391	12.12
514.822	12.41
515.253	12.7
515.684	13
516.114	13.29
516.545	13.58
516.975	13.87
517.406	14.17
517.836	14.46
518.267	14.76
518.697	15.05
519.127	15.32
519.558	15.61
519.988	15.89
520.418	16.16
520.848	16.44
521.278	16.71
521.708	17.15
522.138	17.42
522.567	17.69
522.997	17.93
523.427	18.19
523.857	18.44
524.286	18.67
524.716	18.9
525.145	19.14
525.575	19.36
526.004	19.59
526.433	19.65
526.863	19.85
527.292	20.04
527.721	20.25
528.15	20.42
528.579	20.59
529.008	20.76
529.437	20.92
529.866	21.06
530.295	21.21
530.724	21.35
531.152	21.47
531.581	21.6
532.01	21.72
532.438	21.83
532.867	21.93
533.295	22.04
533.723	22.14
534.152	22.25
534.58	22.34
535.008	22.42
535.436	22.49
535.865	22.57
536.293	22.64
536.721	22.71
537.149	22.78
537.576	22.83
538.004	22.89
538.432	22.94
538.86	22.96
539.287	22.99
539.715	23.04
540.143	23.07
540.57	23.1
540.998	23.11
541.425	23.14
541.852	23.16
542.28	23.19
542.707	23.23
543.134	23.25
543.561	23.29
543.988	23.33
544.415	23.34
544.842	23.35
545.269	23.37
545.696	23.42
546.123	23.43
546.549	23.46
546.976	23.49
547.403	23.5
547.829	23.52
548.256	23.54
548.682	23.54
549.108	23.56
549.535	23.59
549.961	23.61
550.387	23.61
550.813	23.62
551.24	23.59
551.666	23.58
552.092	23.56
552.518	23.56
552.943	23.54
553.369	23.52
553.795	23.48
554.221	23.45
554.646	23.4
555.072	23.36
555.498	23.31
555.923	23.26
556.349	23.19
556.774	23.13
557.199	23.05
557.625	22.98
558.05	22.91
558.475	22.83
558.9	22.75
559.325	22.67
559.75	22.58
560.175	22.49
560.6	22.39
561.025	22.3
561.449	22.19
561.874	22.07
562.299	21.95
562.723	21.83
563.148	21.7
563.572	21.56
563.997	21.42
564.421	21.27
564.846	21.12
565.27	20.98
565.694	20.82
566.118	20.68
566.542	20.53
566.966	20.37
567.39	20.22
567.814	20.06
568.238	19.91
568.662	19.76
569.086	19.62
569.509	19.47
569.933	19.31
570.357	19.16
570.78	19
571.204	18.86
571.627	18.72
572.05	18.56
572.474	18.43
572.897	18.3
573.32	18.16
573.743	18.03
574.166	17.9
574.589	17.77
575.012	17.66
575.435	17.53
575.858	17.41
576.281	17.29
576.704	17.19
577.126	17.09
577.549	16.97
577.972	16.87
578.394	16.77
578.817	16.67
579.239	16.58
579.661	16.49
580.084	16.42
580.506	16.34
580.928	16.26
581.35	16.18
581.772	16.09
582.194	16.01
582.616	15.93
583.038	15.86
583.46	15.78
583.882	15.7
584.303	15.59
584.725	15.51
585.147	15.45
585.568	15.38
585.99	15.31
586.411	15.24
586.833	15.17
587.254	15.1
587.675	15.03
588.096	14.98
588.518	14.92
588.939	14.88
589.36	14.82
589.781	14.76
590.202	14.71
590.623	14.66
591.043	14.62
591.464	14.58
591.885	14.53
592.305	14.51
592.726	14.47
593.147	14.43
593.567	14.39
593.987	14.37
594.408	14.33
594.828	14.3
595.248	14.27
595.669	14.24
596.089	14.21
596.509	14.19
596.929	14.15
597.349	14.11
597.769	14.08
598.189	14.05
598.608	14.01
599.028	13.97
599.448	13.93
599.867	13.88
600.287	13.83
600.706	13.78
601.126	13.72
601.545	13.67
601.965	13.62
602.384	13.58
602.803	13.52
603.222	13.46
603.641	13.4
604.061	13.34
604.48	13.28
604.898	13.22
605.317	13.16
605.736	13.11
606.155	13.04
606.574	12.98
606.992	12.9
607.411	12.83
607.829	12.73
608.248	12.65
608.666	12.57
609.085	12.49
609.503	12.41
609.921	12.33
610.339	12.24
610.758	12.15
611.176	12.06
611.594	11.99
612.012	11.89
612.43	11.85
612.847	11.78
613.265	11.7
613.683	11.63
614.101	11.55
614.518	11.48
614.936	11.42
615.353	11.34
615.771	11.29
616.188	11.23
616.606	11.18
617.023	11.12
617.44	11.08
617.857	11.03
618.274	10.98
618.691	10.93
619.108	10.87
619.525	10.82
619.942	10.78
620.359	10.74
620.776	10.71
621.192	10.66
621.609	10.63
622.026	10.58
622.442	10.57
622.859	10.52
623.275	10.5
623.691	10.48
624.108	10.47
624.524	10.45
624.94	10.43
625.356	10.41
625.772	10.39
626.188	10.38
626.604	10.37
627.02	10.35
627.436	10.35
627.852	10.34
628.268	10.32
628.683	10.3
629.099	10.3
629.514	10.28
629.93	10.26
630.345	10.24
630.761	10.21
631.176	10.17
631.591	10.13
632.007	10.1
632.422	10.06
632.837	10.02
633.252	9.97
633.667	9.91
634.082	9.84
634.497	9.78
634.911	9.71
635.326	9.63
635.741	9.55
636.155	9.45
636.57	9.36
636.984	9.26
637.399	9.16
637.813	9.06
638.228	8.95
638.642	8.85
639.056	8.72
639.47	8.61
639.884	8.5
640.298	8.39
640.712	8.28
641.126	8.16
641.54	8.03
641.954	7.91
642.368	7.8
642.781	7.69
643.195	7.58
643.609	7.49
644.022	7.39
644.436	7.31
644.849	7.21
645.262	7.12
645.676	7.04
646.089	6.97
646.502	6.9
646.915	6.83
647.328	6.78
647.741	6.72
648.154	6.65
648.567	6.59
648.98	6.53
649.393	6.49
649.805	6.45
650.218	6.4
650.631	6.37
651.043	6.33
651.456	6.3
651.868	6.25
652.28	6.21
652.693	6.19
653.105	6.15
653.517	6.11
653.929	6.07
654.341	6.02
654.753	5.98
655.165	5.93
655.577	5.88
655.989	5.81
656.401	5.75
656.813	5.7
657.224	5.62
657.636	5.53
658.047	5.47
658.459	5.4
658.87	5.32
659.282	5.25
659.693	5.18
660.104	5.09
660.515	5.03
660.926	4.95
661.338	4.88
661.749	4.82
662.159	4.76
662.57	4.7
662.981	4.65
663.392	4.6
663.803	4.55
664.213	4.49
664.624	4.45
665.035	4.41
665.445	4.38
665.855	4.35
666.266	4.31
666.676	4.29
667.086	4.25
667.497	4.23
667.907	4.21
668.317	4.19
668.727	4.19
669.137	4.18
669.547	4.17
669.956	4.16
670.366	4.16
670.776	4.16
671.186	4.16
671.595	4.16
672.005	4.16
672.414	4.18
672.824	4.18
673.233	4.19
673.642	4.21
674.052	4.22
674.461	4.23
674.87	4.25
675.279	4.28
675.688	4.3
676.097	4.32
676.506	4.34
676.915	4.37
677.323	4.41
677.732	4.42
678.141	4.46
678.549	4.49
678.958	4.52
679.366	4.57
679.775	4.6
680.183	4.65
680.592	4.72
681	4.79
681.408	4.87
681.816	4.95
682.224	5.04
682.632	5.14
683.04	5.26
683.448	5.38
683.856	5.5
684.264	5.65
684.671	5.82
685.079	6
685.487	6.21
685.894	6.44
686.302	6.69
686.709	6.96
687.116	7.25
687.524	7.57
687.931	7.91
688.338	8.29
688.745	8.7
689.152	9.11
689.559	9.56
689.966	10.01
690.373	10.49
690.78	10.98
691.187	11.49
691.593	12.02
692	12.56
692.407	13.11
692.813	13.7
693.22	14.25
693.626	14.83
694.032	15.42
694.439	16
694.845	16.6
695.251	17.19
695.657	17.78
696.063	18.37
696.469	18.97
696.875	19.56
697.281	20.12
697.687	20.72
698.093	21.31
698.498	21.86
698.904	22.44
699.31	22.98
699.715	23.54
700.12	24.09
700.526	24.63
700.931	25.16
701.337	25.68
701.742	26.19
702.147	26.69
702.552	27.19
702.957	27.67
703.362	28.13
703.767	28.58
704.172	29.03
704.577	29.47
704.981	29.89
705.386	30.31
705.791	30.73
706.195	31.15
706.6	31.56
707.004	31.93
707.408	32.34
707.813	32.74
708.217	33.12
708.621	33.51
709.025	33.88
709.43	34.25
709.834	34.61
710.237	34.94
710.641	35.26
711.045	35.59
711.449	35.96
711.853	36.28
712.256	36.57
712.66	36.89
713.064	37.17
713.467	37.46
713.87	37.77
714.274	38.05
714.677	38.37
715.08	38.65
715.484	38.93
715.887	39.21
716.29	39.45
716.693	39.73
717.096	39.99
717.499	40.25
717.901	40.51
718.304	40.76
718.707	41
719.109	41.22
719.512	41.46
719.915	41.7
720.317	41.9
720.719	42.09
721.122	42.3
721.524	42.52
721.926	42.73
722.328	42.93
722.731	43.1
723.133	43.32
723.535	43.51
723.937	43.66
724.338	43.79
724.74	43.94
725.142	44.2
725.544	44.35
725.945	44.49
726.347	44.61
726.748	44.72
727.15	44.84
727.551	44.97
727.952	45.05
728.354	45.18
728.755	45.3
729.156	45.41
729.557	45.42
729.958	45.51
730.359	45.6
730.76	45.71
731.161	45.82
731.562	45.94
731.962	45.98
732.363	46.09
732.763	46.18
733.164	46.29
733.564	46.38
733.965	46.45
734.365	46.54
734.766	46.6
735.166	46.65
735.566	46.72
735.966	46.77
736.366	46.84
736.766	46.88
737.166	46.92
737.566	46.98
737.966	47.04
738.365	47.08
738.765	47.12
739.165	47.16
739.564	47.23
739.964	47.25
740.363	47.27
740.763	47.3
741.162	47.35
741.561	47.36
741.96	47.34
742.36	47.36
742.759	47.4
743.158	47.41
743.557	47.42
743.955	47.42
744.354	47.49
744.753	47.54
745.152	47.61
745.55	47.61
745.949	47.66
746.348	47.7
746.746	47.72
747.144	47.75
747.543	47.77
747.941	47.8
748.339	47.8
748.737	47.78
749.136	47.77
749.534	47.76
749.932	47.77
750.33	47.77
750.727	47.77
751.125	47.78
751.523	47.78
751.921	47.8
752.318	47.81
752.716	47.82
753.113	47.81
753.511	47.83
753.908	47.85
754.305	47.87
754.703	47.89
755.1	47.89
755.497	47.91
755.894	47.91
756.291	47.89
756.688	47.88
757.085	47.88
757.482	47.89
757.878	47.88
758.275	47.86
758.672	47.84
759.068	47.85
759.465	47.87
759.861	47.84
760.258	47.86
760.654	47.88
761.05	47.89
761.447	47.91
761.843	47.9
762.239	47.91
762.635	47.89
763.031	47.89
763.427	47.87
763.822	47.84
764.218	47.87
764.614	47.86
765.01	47.84
765.405	47.83
765.801	47.8
766.196	47.81
766.592	47.8
766.987	47.81
767.382	47.82
767.778	47.83
768.173	47.85
768.568	47.82
768.963	47.82
769.358	47.84
769.753	47.83
770.148	47.88
770.542	47.88
770.937	47.89
771.332	47.9
771.726	47.9
772.121	47.91
772.515	47.92
772.91	47.91
773.304	47.96
773.699	47.95
774.093	47.95
774.487	47.95
774.881	47.96
775.275	47.95
775.669	47.95
776.063	47.95
776.457	47.93
776.851	47.92
777.245	47.91
777.638	47.87
778.032	47.9
778.425	47.95
778.819	47.92
779.212	47.93
779.606	47.94
779.999	47.91
780.392	47.91
780.786	47.92
781.179	47.92
781.572	47.96
781.965	47.99
782.358	47.98
782.751	47.93
783.143	47.94
783.536	47.92
783.929	47.92
784.322	47.97
784.714	47.98
785.107	47.99
785.499	47.99
785.891	47.96
786.284	47.93
786.676	47.9
787.068	47.91
787.46	47.9
787.852	47.92
788.245	47.9
788.636	47.86
789.028	47.83
789.42	47.83
789.812	47.84
790.204	47.85
790.595	47.84
790.987	47.87
791.378	47.88
791.77	47.88
792.161	47.87
792.553	47.88
792.944	47.88
793.335	47.88
793.726	47.88
794.117	47.85
794.508	47.83
794.899	47.83
795.29	47.83
795.681	47.77
796.072	47.74
796.463	47.76
796.853	47.74
797.244	47.74
797.634	47.75
798.025	47.78
798.415	47.78
798.806	47.79
799.196	47.82
799.586	47.83
799.976	47.88
800.366	47.89
800.756	47.87
801.146	47.89
801.536	47.91
801.926	47.91
802.316	47.91
802.706	47.91
803.095	47.93
803.485	47.92
803.874	47.91
804.264	47.91
804.653	47.92
805.043	47.94
805.432	47.95
805.821	47.94
806.21	47.95
806.599	47.95
806.988	47.98
807.377	47.97
807.766	47.96
808.155	47.97
808.544	47.97
808.933	47.96
809.321	47.95
809.71	47.95
810.098	47.94
810.487	47.92
810.875	47.94
811.264	47.91
811.652	47.93
812.04	47.94
812.428	47.98
812.816	47.98
813.204	47.98
813.592	47.96
813.98	47.96
814.368	48
814.756	48
815.144	47.99
815.531	48.01
815.919	47.98
816.306	47.98
816.694	47.93
817.081	47.92
817.469	47.94
817.856	47.97
818.243	47.97
818.63	47.96
819.017	47.93
819.404	47.92
819.791	47.92
820.178	47.93
820.565	47.89
820.952	47.89
821.339	47.9
821.725	47.9
822.112	47.9
822.498	47.89
822.885	47.89
823.271	47.88
823.657	47.84
824.044	47.84
824.43	47.84
824.816	47.84
825.202	47.84
825.588	47.82
825.974	47.79
826.36	47.77
826.746	47.77
827.132	47.75
827.517	47.76
827.903	47.79
828.289	47.79
828.674	47.78
829.06	47.77
829.445	47.76
829.83	47.76
830.216	47.76
830.601	47.75
830.986	47.76
831.371	47.75
831.756	47.76
832.141	47.75
832.526	47.74
832.911	47.74
833.295	47.75
833.68	47.76
834.065	47.76
834.449	47.76
834.834	47.75
835.218	47.74
835.603	47.74
835.987	47.71
836.371	47.7
836.755	47.69
837.139	47.65
837.524	47.63
837.908	47.64
838.291	47.63
838.675	47.6
839.059	47.62
839.443	47.59
839.827	47.59
840.21	47.6
840.594	47.6
840.977	47.59
841.361	47.62
841.744	47.6
842.127	47.57
842.511	47.54
842.894	47.57
843.277	47.56
843.66	47.56
844.043	47.57
844.426	47.57
844.809	47.59
845.191	47.6
845.574	47.6
845.957	47.63
846.339	47.63
846.722	47.68
847.104	47.69
847.487	47.7
847.869	47.72
848.252	47.72
848.634	47.7
849.016	47.7
849.398	47.72
849.78	47.72
850.162	47.71
850.544	47.7
850.926	47.69
851.307	47.67
851.689	47.67
852.071	47.67
852.452	47.69
852.834	47.71
853.215	47.68
853.597	47.68
853.978	47.67
854.359	47.68
854.741	47.67
855.122	47.68
855.503	47.66
855.884	47.65
856.265	47.65
856.646	47.62
857.026	47.62
857.407	47.64
857.788	47.62
858.169	47.64
858.549	47.66
858.93	47.68
859.31	47.68
859.69	47.7
860.071	47.7
860.451	47.69
860.831	47.69
861.211	47.67
861.591	47.66
861.971	47.66
862.351	47.65
862.731	47.62
863.111	47.6
863.491	47.6
863.87	47.59
864.25	47.57
864.629	47.59
865.009	47.57
865.388	47.57
865.768	47.55
866.147	47.57
866.526	47.57
866.905	47.57
867.284	47.57
867.663	47.56
868.042	47.58
868.421	47.6
868.8	47.58
869.179	47.59
869.558	47.59
869.936	47.59
870.315	47.57
870.693	47.56
871.072	47.56
871.45	47.54
871.828	47.54
872.207	47.52
872.585	47.48
872.963	47.47
873.341	47.47
873.719	47.46
874.097	47.46
874.475	47.45
874.853	47.46
875.23	47.47
875.608	47.47
875.986	47.5
876.363	47.49
876.741	47.52
877.118	47.54
877.495	47.54
877.873	47.56
878.25	47.57
878.627	47.6
879.004	47.59
879.381	47.57
879.758	47.56
880.135	47.55
880.512	47.56
880.889	47.56
881.265	47.55
881.642	47.56
882.019	47.54
882.395	47.52
882.772	47.48
883.148	47.46
883.524	47.46
883.901	47.46
884.277	47.45
884.653	47.43
885.029	47.42
885.405	47.42
885.781	47.4
886.157	47.39
886.532	47.4
886.908	47.41
887.284	47.43
887.659	47.43
888.035	47.43
888.411	47.43
888.786	47.42
889.161	47.43
889.537	47.44
889.912	47.44
890.287	47.42
890.662	47.42
891.037	47.43
891.412	47.4
891.787	47.38
892.162	47.37
892.536	47.36
892.911	47.36
893.286	47.35
893.66	47.33
894.035	47.33
894.409	47.35
894.784	47.35
895.158	47.33
895.532	47.33
895.906	47.34
896.281	47.35
896.655	47.36
897.029	47.38
897.402	47.37
897.776	47.4
898.15	47.39
898.524	47.4
898.898	47.39
899.271	47.41
899.645	47.44
900.018	47.46
900.392	47.46
900.765	47.48
901.138	47.46
901.511	47.47
901.884	47.46
902.258	47.48
902.631	47.48
903.003	47.49
903.376	47.48
903.749	47.48
904.122	47.48
904.495	47.49
904.867	47.49
905.24	47.51
905.612	47.53
905.985	47.55
906.357	47.54
906.729	47.56
907.102	47.56
907.474	47.57
907.846	47.57
908.218	47.55
908.59	47.56
908.962	47.53
909.334	47.55
909.705	47.55
910.077	47.54
910.449	47.53
910.82	47.51
911.192	47.5
911.563	47.48
911.935	47.46
912.306	47.48
912.677	47.47
913.048	47.51
913.419	47.48
913.79	47.47
914.161	47.48
914.532	47.48
914.903	47.49
915.274	47.48
915.645	47.49
916.015	47.51
916.386	47.49
916.756	47.48
917.127	47.47
917.497	47.48
917.868	47.47
918.238	47.46
918.608	47.47
918.978	47.45
919.348	47.48
919.718	47.51
920.088	47.51
920.458	47.52
920.828	47.52
921.198	47.48
921.567	47.44
921.937	47.46
922.306	47.42
922.676	47.39
923.045	47.38
923.415	47.35
923.784	47.33
924.153	47.34
924.522	47.34
924.891	47.35
925.26	47.35
925.629	47.4
925.998	47.37
926.367	47.41
926.736	47.4
927.104	47.43
927.473	47.41
927.842	47.37
928.21	47.39
928.578	47.37
928.947	47.37
929.315	47.36
929.683	47.33
930.051	47.33
930.42	47.32
930.788	47.33
931.156	47.31
931.523	47.34
931.891	47.39
932.259	47.37
932.627	47.39
932.994	47.38
933.362	47.37
933.729	47.37
934.097	47.38
934.464	47.4
934.831	47.38
935.199	47.39
935.566	47.38
935.933	47.32
936.3	47.29
936.667	47.27
937.034	47.33
937.401	47.37
937.767	47.37
938.134	47.4
938.501	47.37
938.867	47.43
939.234	47.42
939.6	47.42
939.967	47.5
940.333	47.51
940.699	47.58
941.065	47.49
941.431	47.48
941.798	47.44
942.163	47.41
942.529	47.38
942.895	47.35
943.261	47.3
943.627	47.29
943.992	47.27
944.358	47.25
944.723	47.19
945.089	47.17
945.454	47.16
945.82	47.13
946.185	47.09
946.55	47.08
946.915	47.04
947.28	47.08
947.645	47.05
948.01	47.04
948.375	47.06
948.74	47.02
949.104	47.05
949.469	47.02
949.834	46.97
950.198	47
950.562	46.94
950.927	46.91
951.291	46.78
951.655	46.75
952.02	46.73
952.384	46.64
952.748	46.6
953.112	46.56
953.476	46.53
953.839	46.54
954.203	46.47
954.567	46.47
954.931	46.4
955.294	46.45
955.658	46.48
956.021	46.47
956.385	46.4
956.748	46.39
957.111	46.35
957.474	46.35
957.837	46.33
958.2	46.36
958.563	46.37
958.926	46.41
959.289	46.47
959.652	46.46
960.015	46.44
960.377	46.51
960.74	46.54
961.102	46.54
961.465	46.58
961.827	46.69
962.189	46.71
962.552	46.72
962.914	46.69
963.276	46.68
963.638	46.65
964	46.65
964.362	46.69
964.724	46.68
965.085	46.65
965.447	46.61
965.809	46.57
966.17	46.54
966.532	46.5
966.893	46.55
967.255	46.5
967.616	46.5
967.977	46.51
968.338	46.47
968.699	46.44
969.061	46.45
969.421	46.45
969.782	46.45
970.143	46.42
970.504	46.45
970.865	46.5
971.225	46.49
971.586	46.51
971.946	46.51
972.307	46.49
972.667	46.47
973.027	46.53
973.388	46.58
973.748	46.56
974.108	46.64
974.468	46.62
974.828	46.58
975.188	46.61
975.548	46.63
975.907	46.64
976.267	46.66
976.627	46.73
976.986	46.62
977.346	46.55
977.705	46.56
978.064	46.54
978.424	46.56
978.783	46.49
979.142	46.44
979.501	46.45
979.86	46.55
980.219	46.54
980.578	46.54
980.937	46.66
981.296	46.69
981.654	46.68
982.013	46.68
982.371	46.69
982.73	46.79
983.088	46.86
983.447	46.76
983.805	46.67
984.163	46.69
984.521	46.69
984.879	46.61
985.237	46.69
985.595	46.7
985.953	46.67
986.311	46.67
986.669	46.64
987.026	46.59
987.384	46.75
987.741	46.76
988.099	46.78
988.456	46.75
988.814	46.89
989.171	46.86
989.528	46.89
989.885	46.88
990.242	46.89
990.599	46.96
990.956	47.06
991.313	47.03
991.67	47
992.027	47.11
992.383	47.2
992.74	47.15
993.096	47.12
993.453	47.11
993.809	47.17
994.165	47.2
994.522	47.22
994.878	47.18
995.234	47.16
995.59	47.16
995.946	47.08
996.302	47.06
996.658	47.08
997.013	47.1
997.369	47.06
997.725	47.08
998.08	47.09
998.436	47.01
998.791	47.09
999.147	47.13
999.502	47.27
999.857	47.35
1000.212	47.27
1000.567	47.28
1000.922	47.39
1001.277	47.41
1001.632	47.43
1001.987	47.44
1002.342	47.5
1002.696	47.46
1003.051	47.56
1003.406	47.53
1003.76	47.49
1004.114	47.63
1004.469	47.6
1004.823	47.77
1005.177	47.91
1005.531	47.89
1005.885	47.87
1006.239	47.85
1006.593	47.96
1006.947	47.85
1007.301	47.79
1007.655	47.79
1008.008	47.81
1008.362	47.9
1008.715	47.77
1009.069	47.7
1009.422	47.82
1009.776	48.08
1010.129	48.14
1010.482	48.06
1010.835	48.18
1011.188	48.19
1011.541	48.3
1011.894	48.33
1012.247	48.34
1012.6	48.32
1012.952	48.35
1013.305	48.39
1013.657	48.12
1014.01	48.27
1014.362	48.19
1014.715	48.26
1015.067	48.36
1015.419	48.42
1015.771	48.41
1016.123	48.38
1016.475	48.33
1016.827	48.41
1017.179	48.5
1017.531	48.76
1017.883	48.75
1018.234	48.93
1018.586	48.8
1018.938	48.97
1019.289	48.75
1019.64	48.64
1019.992	48.6
1020.343	48.6
1020.694	48.63
1021.045	48.38
1021.396	48.33
1021.747	48.38
1022.098	48.47
1022.449	48.66
1022.8	48.75
1023.151	48.81
1023.501	48.98
1023.852	49.29
1024.202	49.24
1024.553	49.14
1024.903	49.17
1025.253	49.21
1025.604	48.97
1025.954	48.51
1026.304	48.46
1026.654	48.28
1027.004	48.29
1027.354	48.4
1027.703	48
1028.053	48.18
1028.403	48.39
1028.753	48.25
1029.102	48.2
1029.452	48.36
1029.801	48.88
1030.15	48.7
1030.499	48.59
897.758	1398.79
901.051	1403.63
904.343	1400.01
907.636	1425.9
910.928	1385.17
914.22	1387.39
917.511	1370.98
920.803	1312.91
924.094	1305.34
927.384	1274.86
930.675	1225.31
933.965	1218.22
937.255	1146.08
940.544	1100.26
943.834	1046.3
947.123	1038.37
950.411	976.65
953.7	955.67
956.988	901.45
960.276	866.69
963.563	851.66
966.851	821.36
970.138	811.54
973.424	787.41
976.711	791.56
979.997	752.64
983.283	748.1
986.568	731.8
989.853	708.8
993.138	698.24
996.423	670.12
999.708	652.88
1002.992	644.07
1006.275	616.37
1009.559	610.44
1012.842	587.58
1016.125	571.75
1019.408	561.28
1022.69	553.83
1025.972	543.51
1029.254	528.94
1032.536	520.75
1035.817	508.89
1039.098	501.72
1042.379	492.45
1045.659	486.85
1048.939	474.46
1052.219	465.77
1055.498	459.57
1058.778	448.73
1062.057	437.81
1065.335	433.4
1068.614	427.73
1071.892	423.88
1075.17	410.07
1078.447	401.97
1081.724	399.45
1085.001	396.67
1088.278	387.46
1091.554	379.89
1094.83	380.26
1098.106	378.16
1101.382	374.69
1104.657	372.48
1107.932	366.33
1111.206	368.94
1114.481	359.79
1117.755	355.94
1121.029	353.6
1124.302	353.57
1127.575	345.27
1130.848	340.71
1134.121	337.41
1137.393	335.94
1140.665	327.58
1143.937	325.98
1147.208	323.84
1150.48	323.01
1153.75	318.02
1157.021	314.42
1160.291	314.43
1163.561	311.51
1166.831	312.32
1170.101	309.27
1173.37	309.21
1176.639	310.72
1179.907	306.79
1183.176	303.84
1186.444	303.16
1189.711	303.81
1192.979	302.22
1196.246	300.29
1199.513	301.54
1202.78	299.07
1206.046	298.87
1209.312	295.49
1212.578	296.09
1215.843	299.46
1219.108	296.5
1222.373	302.82
1225.638	304.6
1228.902	309
1232.166	308.92
1235.43	311.41
1238.693	315.85
1241.956	317.62
1245.219	322.63
1248.482	322.14
1251.744	321.53
1255.006	323.48
1258.268	315.38
1261.529	312.5
1264.79	309.78
1268.051	308.28
1271.312	305.03
1274.572	300.05
1277.832	297.44
1281.092	292.67
1284.351	290.65
1287.61	290.32
1290.869	285.39
1294.128	283.77
1297.386	284.09
1300.644	280.41
1303.902	281.2
1307.159	279.96
1310.416	280.36
1313.673	280.28
1316.93	282.47
1320.186	282.6
1323.442	283.3
1326.697	288.66
1329.953	289.35
1333.208	290.42
1336.463	294.46
1339.717	295.16
1342.972	297.63
1346.226	300.99
1349.479	300.95
1352.733	302.98
1355.986	304.43
1359.238	305.01
1362.491	305.65
1365.743	309.45
1368.995	308.89
1372.247	307.51
1375.498	306.83
1378.749	310.51
1382	306.64
1385.251	307.93
1388.501	305.59
1391.751	307.13
1395	305.5
1398.25	303.68
1401.499	301.63
1404.748	301.1
1407.996	300.18
1411.244	299.16
1414.492	297.09
1417.74	293.89
1420.987	289.05
1424.234	290.01
1427.481	285.25
1430.728	285.39
1433.974	282.69
1437.22	279.37
1440.465	278.89
1443.711	275.96
1446.956	274.41
1450.201	270.84
1453.445	268.77
1456.689	268.06
1459.933	262.74
1463.177	261.12
1466.42	256.71
1469.663	253.74
1472.906	252.64
1476.148	245.57
1479.391	242.83
1482.633	240.38
1485.874	236.65
1489.115	235.18
1492.356	232.49
1495.597	232.05
1498.838	228.49
1502.078	226.98
1505.318	225.85
1508.557	225.34
1511.797	225.43
1515.036	224.45
1518.274	223.81
1521.513	221.62
1524.751	221.02
1527.989	220.42
1531.227	219.25
1534.464	219.69
1537.701	218.08
1540.938	217.61
1544.174	215.21
1547.41	214.91
1550.646	213.05
1553.882	212.95
1557.117	210.78
1560.352	209.73
1563.587	208.82
1566.821	207.28
1570.055	204.96
1573.289	203.74
1576.523	203.17
1579.756	201.91
1582.989	200.7
1586.222	200.67
1589.454	199.39
1592.686	200.99
1595.918	199.72
1599.15	199.13
1602.381	199.55
1605.612	199.68
1608.843	200.19
1612.073	200.19
1615.303	200.79
1618.533	200.66
1621.762	200.67
1624.992	200.98
1628.221	200.4
1631.449	200.63
1634.678	200.12
1637.906	200.72
1641.134	200.73
1644.361	200.13
1647.588	200.82
1650.815	200.17
1654.042	199.56
1657.269	200.31
1660.495	200.05
1663.72	199.75
1666.946	200.41
1670.171	201.02
1673.396	200.96
1676.621	200.91
1679.845	201.82
1683.069	201.18
1686.293	202.56
1689.517	204.22
1692.74	203.88
1695.963	204.88
1699.185	206.3
1702.408	206.4
1705.63	207.36
1708.852	207.27
1712.073	208.31
1715.294	208.09
1718.515	209.71
1721.736	209.17
1724.956	209.4
1728.176	209.7
1731.396	211.14
1734.616	210.6
1737.835	211.46
1741.054	209.76
1744.272	211.05
1747.491	212.16
1750.709	212.8
1753.927	212.62
1757.144	211.85
1760.361	212.47
1763.578	212.97
1766.795	212.16
1770.011	213.82
1773.227	213.68
1776.443	216.65
1779.658	217.44
1782.874	217.18
1786.089	218.24
1789.303	218.74
1792.518	222.18
1795.732	222.02
1798.945	224.23
1802.159	224.52
1805.372	225.11
1808.585	229.04
1811.797	229.79
1815.01	229.63
1818.222	231.7
1821.434	232.99
1824.645	233.95
1827.856	237.1
1831.067	238.92
1834.278	237.58
1837.488	240.02
1840.698	241.74
1843.908	239.45
1847.117	240.32
1850.326	242.35
1853.535	241.46
1856.744	245.02
1859.952	245.14
1863.16	243.83
1866.368	242.13
1869.575	245.37
1872.782	241.43
1875.989	241.15
1879.196	239.94
1882.402	239.04
1885.608	239.72
1888.814	240.36
1892.019	239.85
1895.224	239.05
1898.429	238.12
1901.634	239.92
1904.838	240.41
1908.042	243.22
1911.246	243.75
1914.449	245.97
1917.652	245.51
1920.855	245.4
1924.058	244.89
1927.26	243.24
1930.462	244.45
1933.664	246.8
1936.865	245
1940.066	244.56
1943.267	243.39
1946.467	242.73
1949.668	244.1
1952.868	247.5
1956.067	246.94
1959.267	248.32
1962.466	249.41
1965.665	247.87
1968.863	248.93
1972.061	252.82
1975.259	254.88
1978.457	256.52
1981.654	259.08
1984.852	259.6
1988.048	258.73
1991.245	261.02
1994.441	263.47
1997.637	265.51
2000.833	271.43
2004.028	274.38
2007.223	274.6
2010.418	277.73
2013.613	282.18
2016.807	284.91
2020.001	287.48
2023.194	291.91
2026.388	298.56
2029.581	304.81
2032.774	308.36
2035.966	312.89
2039.158	313.75
2042.35	320.33
2045.542	323.33
2048.733	328.08
2051.924	332.76
2055.115	338.42
2058.306	338.9
2061.496	342.13
2064.686	342.76
2067.875	347.47
2071.065	349.25
2074.254	347.89
2077.442	352.2
2080.631	352.42
2083.819	356.26
2087.007	356.19
2090.195	360.69
2093.382	364.69
2096.569	362.26
2099.756	367.72
2102.942	368.39
2106.128	372.44
2109.314	381.29
2112.5	379.98
2115.685	388.49
2118.87	389.22
2122.055	397.35
2125.239	400.04
2128.424	404
2131.608	407.95
2134.791	413.38
2137.974	415.49
2141.157	416.77
2144.34	417.11
2147.523	423.4
2150.705	420.07
2153.887	423.62
2157.068	424.71
2160.25	419.33
2163.431	421.88
2166.611	426.15
2169.792	435.07
2172.972	439.53
2176.152	441.98
2179.331	448.38
2182.511	455.76
2185.69	460.91
2188.868	470.84
2192.047	471.4
2195.225	486.58
2198.403	498.87
2201.58	508.96
2204.758	516.74
2207.935	527.76
2211.111	536.5
2214.288	542.59
2217.464	544.15
2220.64	552.59
2223.815	560.48
2226.991	583.86
2230.166	584.93
2233.34	594.18
2236.515	601.58
2239.689	602.68
2242.863	607.61
2246.036	625.79
2249.209	621.41
2252.382	633.31
2255.555	652.72
2258.727	654.6
2261.9	656.34
2265.071	663.41
2268.243	675.19
2271.414	683.46
2274.585	699.72
2277.756	705.43
2280.926	709.95
2284.096	727.55
2287.266	741.4
2290.436	747.67
2293.605	765.16
2296.774	790.71
2299.942	814.76
2303.111	818.04
2306.279	837.45
2309.447	849.43
2312.614	871.45
2315.781	894.88
2318.948	935.83
2322.115	923.07
2325.281	972.75
2328.447	951.32
2331.613	990.08
2334.779	978.67
2337.944	1022
2341.109	1032.99
2344.274	1057.3
2347.438	1096.24
2350.602	1097.76
2353.766	1129.8
2356.929	1146.45
2360.092	1138.64
2363.255	1223.3
2366.418	1217.77
2369.58	1241.42
2372.742	1320.12
2375.904	1352.86
2379.066	1346.2
2382.227	1317.79
2385.388	1432.02
2388.548	1429.13
2391.709	1447.33
2394.869	1614.28
2398.029	1541.86
2401.188	1588.09
2404.347	1577.93
2407.506	1547.58
2410.665	1590.13
2413.823	1689.62
2416.981	1788.21
2420.139	1727.4
2423.296	1716.89
2426.453	1787.34
2429.61	1716.71
2432.767	1799.9
2435.923	1777.52
2439.079	1946.68
2442.235	1973.36
2445.391	1960.34
2448.546	1943.04
2451.701	1889.18
2454.855	1887.43
2458.009	2003.06
2461.163	2088.65
2464.317	2163.94
2467.471	2217.42
2470.624	2220.23
2473.777	2162.62
2476.929	2110.35
2480.082	2047.19
2483.234	2025.05
2486.385	2125.88
2489.537	2136.78
2492.688	2209.79
2495.839	2144.82
2498.989	2100.68
2502.14	2109.6
2505.29	2135.6
2508.439	2171.08
2511.589	2158.93
2514.738	2353.48
2517.887	2303.98
2521.035	2439.06
2524.183	2461.61
2527.331	2476.29
2530.479	2474.2
2533.627	2490.84
