Data from C_2_DIV_PA_2N_Splice17_13-42-37-674.txt Node
Date: Sat Mar 07 13:42:37 EST 2020
User: sa697716
Spectrometer: NQ5500242
Trigger mode: 0
Integration Time (sec): 1.450000E-1
Scans to average: 20
Nonlinearity correction enabled: false
Boxcar width: 5
Storing dark spectrum: false
XAxis mode: Wavelengths
Number of Pixels in Spectrum: 512
>>>>>Begin Spectral Data<<<<<
187.83	170.3
188.298	191.16
188.766	195.72
189.233	167.25
189.701	188.88
190.169	211.48
190.636	261.91
191.104	421.91
191.571	437.51
192.039	-133.19
192.506	-408.75
192.974	102.8
193.441	155.13
193.908	107.51
194.375	135.76
194.842	126.05
195.31	229.74
195.777	693.3
196.244	108.49
196.711	77.8
197.177	75.12
197.644	73.26
198.111	72.76
198.578	72.97
199.045	73.55
199.511	72.89
199.978	73.02
200.445	72.79
200.911	72.65
201.378	72.29
201.844	72
202.31	71.65
202.777	71.48
203.243	71.36
203.709	70.72
204.176	69.85
204.642	69.12
205.108	68.6
205.574	67.65
206.04	66.6
206.506	65.95
206.972	65.66
207.438	64.74
207.903	63.79
208.369	62.37
208.835	61.09
209.301	59.78
209.766	58.17
210.232	56.48
210.697	55.07
211.163	53.84
211.628	52.6
212.094	51.24
212.559	50.25
213.024	49.01
213.49	48.2
213.955	47.16
214.42	46.07
214.885	44.7
215.35	43.07
215.815	40.99
216.28	38.21
216.745	35.09
217.21	32.05
217.675	29.19
218.14	26.89
218.604	24.79
219.069	23.09
219.534	21.72
219.998	20.62
220.463	19.66
220.927	18.78
221.392	18.15
221.856	17.64
222.32	17.18
222.785	16.81
223.249	16.43
223.713	16.11
224.177	15.81
224.642	15.54
225.106	15.26
225.57	14.99
226.034	14.79
226.497	14.57
226.961	14.38
227.425	14.19
227.889	13.99
228.353	13.79
228.816	13.59
229.28	13.43
229.744	13.26
230.207	13.09
230.671	12.94
231.134	12.78
231.597	12.66
232.061	12.5
232.524	12.36
232.987	12.23
233.45	12.13
233.914	12.01
234.377	11.87
234.84	11.74
235.303	11.66
235.766	11.57
236.229	11.46
236.691	11.33
237.154	11.23
237.617	11.14
238.08	11.06
238.542	10.96
239.005	10.89
239.468	10.8
239.93	10.72
240.393	10.62
240.855	10.51
241.317	10.43
241.78	10.35
242.242	10.26
242.704	10.18
243.166	10.07
243.629	10
244.091	9.91
244.553	9.83
245.015	9.75
245.477	9.66
245.939	9.58
246.4	9.49
246.862	9.41
247.324	9.35
247.786	9.27
248.247	9.2
248.709	9.11
249.17	9.03
249.632	8.98
250.093	8.93
250.555	8.87
251.016	8.82
251.477	8.76
251.939	8.72
252.4	8.66
252.861	8.61
253.322	8.57
253.783	8.52
254.244	8.48
254.705	8.41
255.166	8.35
255.627	8.3
256.088	8.26
256.549	8.21
257.009	8.16
257.47	8.11
257.931	8.05
258.391	7.98
258.852	7.93
259.312	7.88
259.773	7.83
260.233	7.79
260.694	7.75
261.154	7.71
261.614	7.67
262.074	7.62
262.534	7.59
262.994	7.56
263.455	7.53
263.915	7.5
264.374	7.48
264.834	7.46
265.294	7.44
265.754	7.42
266.214	7.4
266.673	7.38
267.133	7.38
267.593	7.36
268.052	7.34
268.512	7.34
268.971	7.34
269.431	7.33
269.89	7.32
270.349	7.31
270.809	7.3
271.268	7.29
271.727	7.29
272.186	7.27
272.645	7.27
273.104	7.26
273.563	7.25
274.022	7.23
274.481	7.23
274.94	7.23
275.399	7.22
275.857	7.21
276.316	7.21
276.775	7.21
277.233	7.21
277.692	7.21
278.15	7.21
278.609	7.21
279.067	7.2
279.525	7.2
279.984	7.18
280.442	7.18
280.9	7.18
281.358	7.18
281.816	7.16
282.274	7.16
282.732	7.15
283.19	7.14
283.648	7.12
284.106	7.1
284.564	7.09
285.021	7.09
285.479	7.08
285.937	7.07
286.394	7.05
286.852	7.03
287.309	7.01
287.767	6.99
288.224	6.97
288.682	6.95
289.139	6.94
289.596	6.92
290.053	6.89
290.511	6.87
290.968	6.85
291.425	6.83
291.882	6.82
292.339	6.8
292.796	6.79
293.252	6.78
293.709	6.77
294.166	6.76
294.623	6.75
295.079	6.74
295.536	6.72
295.992	6.71
296.449	6.7
296.905	6.7
297.362	6.68
297.818	6.67
298.274	6.67
298.731	6.65
299.187	6.63
299.643	6.62
300.099	6.62
300.555	6.62
301.011	6.61
301.467	6.6
301.923	6.58
302.379	6.58
302.835	6.58
303.291	6.57
303.746	6.57
304.202	6.58
304.658	6.58
305.113	6.57
305.569	6.56
306.024	6.56
306.479	6.55
306.935	6.55
307.39	6.54
307.845	6.53
308.301	6.53
308.756	6.53
309.211	6.51
309.666	6.51
310.121	6.51
310.576	6.51
311.031	6.5
311.486	6.5
311.94	6.5
312.395	6.49
312.85	6.49
313.305	6.48
313.759	6.48
314.214	6.48
314.668	6.47
315.123	6.46
315.577	6.45
316.032	6.43
316.486	6.42
316.94	6.42
317.394	6.4
317.849	6.38
318.303	6.37
318.757	6.35
319.211	6.33
319.665	6.32
320.119	6.32
320.572	6.3
321.026	6.29
321.48	6.29
321.934	6.27
322.387	6.27
322.841	6.27
323.295	6.27
323.748	6.26
324.202	6.26
324.655	6.25
325.108	6.25
325.562	6.25
326.015	6.26
326.468	6.25
326.921	6.26
327.374	6.25
327.827	6.25
328.28	6.25
328.733	6.26
329.186	6.26
329.639	6.26
330.092	6.26
330.545	6.26
330.997	6.25
331.45	6.27
331.903	6.28
332.355	6.28
332.808	6.27
333.26	6.26
333.713	6.26
334.165	6.26
334.617	6.26
335.069	6.25
335.522	6.25
335.974	6.25
336.426	6.24
336.878	6.22
337.33	6.22
337.782	6.22
338.234	6.22
338.686	6.21
339.137	6.21
339.589	6.19
340.041	6.19
340.493	6.18
340.944	6.15
341.396	6.14
341.847	6.14
342.299	6.12
342.75	6.11
343.201	6.08
343.653	6.08
344.104	6.05
344.555	6.05
345.006	6.03
345.457	6.03
345.908	6.02
346.359	6.02
346.81	6
347.261	6
347.712	5.99
348.163	5.98
348.613	5.99
349.064	5.99
349.515	5.98
349.965	5.98
350.416	5.98
350.866	5.98
351.317	5.97
351.767	5.97
352.217	5.97
352.668	5.98
353.118	5.99
353.568	5.98
354.018	5.97
354.468	5.99
354.918	6
355.368	6
355.818	6
356.268	6.01
356.718	6.01
357.168	6.01
357.617	6.01
358.067	6.01
358.517	6.02
358.966	6.02
359.416	6.01
359.865	6.01
360.315	6.01
360.764	6.01
361.213	6.01
361.663	6.01
362.112	6.02
362.561	6.03
363.01	6.03
363.459	6.01
363.908	6.01
364.357	6.03
364.806	6.03
365.255	6.03
365.703	6.04
366.152	6.05
366.601	6.06
367.05	6.06
367.498	6.05
367.947	6.06
368.395	6.07
368.844	6.08
369.292	6.07
369.74	6.08
370.189	6.09
370.637	6.08
371.085	6.08
371.533	6.08
371.981	6.08
372.429	6.09
372.877	6.1
373.325	6.1
373.773	6.1
374.221	6.1
374.669	6.09
375.116	6.09
375.564	6.09
376.012	6.1
376.459	6.11
376.907	6.12
377.354	6.13
377.801	6.14
378.249	6.15
378.696	6.15
379.143	6.17
379.591	6.18
380.038	6.19
380.485	6.21
380.932	6.22
381.379	6.23
381.826	6.25
382.273	6.26
382.72	6.26
383.166	6.27
383.613	6.29
384.06	6.29
384.506	6.31
384.953	6.34
385.4	6.35
385.846	6.37
386.292	6.38
386.739	6.39
387.185	6.4
387.631	6.41
388.078	6.42
388.524	6.43
388.97	6.45
389.416	6.47
389.862	6.49
390.308	6.52
390.754	6.55
391.2	6.57
391.645	6.59
392.091	6.63
392.537	6.67
392.983	6.69
393.428	6.72
393.874	6.73
394.319	6.76
394.765	6.77
395.21	6.77
395.655	6.78
396.101	6.81
396.546	6.82
396.991	6.85
397.436	6.86
397.881	6.9
398.326	6.9
398.771	6.94
399.216	6.94
399.661	6.97
400.106	7
400.551	7.01
400.995	7.01
401.44	7.04
401.885	7.05
402.329	7.07
402.774	7.09
403.218	7.12
403.663	7.13
404.107	7.16
404.551	7.16
404.995	7.17
405.44	7.17
405.884	7.19
406.328	7.21
406.772	7.21
407.216	7.23
407.66	7.23
408.104	7.22
408.547	7.23
408.991	7.25
409.435	7.26
409.879	7.28
410.322	7.29
410.766	7.31
411.209	7.33
411.653	7.36
412.096	7.37
412.54	7.39
412.983	7.41
413.426	7.46
413.869	7.47
414.312	7.5
414.756	7.51
415.199	7.53
415.642	7.54
416.085	7.55
416.527	7.52
416.97	7.49
417.413	7.48
417.856	7.48
418.298	7.46
418.741	7.45
419.184	7.44
419.626	7.44
420.069	7.45
420.511	7.45
420.953	7.46
421.396	7.49
421.838	7.52
422.28	7.54
422.722	7.57
423.164	7.57
423.606	7.58
424.048	7.59
424.49	7.59
424.932	7.57
425.374	7.53
425.816	7.49
426.258	7.48
426.699	7.47
427.141	7.46
427.582	7.46
428.024	7.47
428.465	7.47
428.907	7.44
429.348	7.43
429.789	7.45
430.231	7.5
430.672	7.54
431.113	7.57
431.554	7.58
431.995	7.59
432.436	7.6
432.877	7.61
433.318	7.63
433.759	7.68
434.2	7.71
434.64	7.73
435.081	7.74
435.522	7.75
435.962	7.75
436.403	7.77
436.843	7.77
437.284	7.76
437.724	7.75
438.164	7.74
438.604	7.74
439.045	7.73
439.485	7.72
439.925	7.72
440.365	7.72
440.805	7.7
441.245	7.72
441.685	7.72
442.125	7.73
442.564	7.73
443.004	7.72
443.444	7.73
443.883	7.73
444.323	7.72
444.762	7.7
445.202	7.68
445.641	7.71
446.081	7.7
446.52	7.69
446.959	7.72
447.398	7.72
447.837	7.73
448.276	7.71
448.716	7.7
449.154	7.71
449.593	7.72
450.032	7.71
450.471	7.67
450.91	7.65
451.349	7.64
451.787	7.6
452.226	7.58
452.664	7.55
453.103	7.53
453.541	7.52
453.98	7.51
454.418	7.47
454.856	7.46
455.295	7.44
455.733	7.41
456.171	7.39
456.609	7.38
457.047	7.36
457.485	7.35
457.923	7.34
458.361	7.31
458.798	7.3
459.236	7.29
459.674	7.29
460.111	7.29
460.549	7.31
460.987	7.31
461.424	7.31
461.862	7.31
462.299	7.32
462.736	7.32
463.173	7.33
463.611	7.35
464.048	7.36
464.485	7.36
464.922	7.37
465.359	7.35
465.796	7.41
466.233	7.43
466.67	7.44
467.106	7.45
467.543	7.45
467.98	7.44
468.416	7.42
468.853	7.41
469.29	7.39
469.726	7.38
470.162	7.37
470.599	7.32
471.035	7.29
471.471	7.25
471.907	7.23
472.344	7.2
472.78	7.19
473.216	7.17
473.652	7.16
474.088	7.14
474.523	7.14
474.959	7.11
475.395	7.08
475.831	7.08
476.266	7.07
476.702	7.05
477.138	7.05
477.573	7.04
478.008	7.03
478.444	7.01
478.879	7.01
479.314	6.99
479.75	6.98
480.185	6.96
480.62	6.94
481.055	6.92
481.49	6.9
481.925	6.89
482.36	6.89
482.795	6.86
483.229	6.84
483.664	6.83
484.099	6.81
484.534	6.8
484.968	6.8
485.403	6.79
485.837	6.78
486.271	6.78
486.706	6.78
487.14	6.76
487.574	6.76
488.009	6.77
488.443	6.77
488.877	6.78
489.311	6.78
489.745	6.78
490.179	6.79
490.613	6.81
491.046	6.81
491.48	6.82
491.914	6.83
492.348	6.83
492.781	6.85
493.215	6.85
493.648	6.86
494.082	6.87
494.515	6.87
494.948	6.87
495.382	6.87
495.815	6.88
496.248	6.89
496.681	6.9
497.114	6.9
497.547	6.9
497.98	6.93
498.413	6.94
498.846	6.95
499.279	6.97
499.711	6.98
500.144	7.01
500.577	7.03
501.009	7.05
501.442	7.07
501.874	7.1
502.306	7.12
502.739	7.15
503.171	7.17
503.603	7.21
504.036	7.23
504.468	7.27
504.9	7.29
505.332	7.33
505.764	7.37
506.196	7.39
506.627	7.44
507.059	7.48
507.491	7.51
507.923	7.56
508.354	7.62
508.786	7.69
509.217	7.74
509.649	7.81
510.08	7.87
510.512	7.94
510.943	8.02
511.374	8.09
511.805	8.18
512.237	8.25
512.668	8.33
513.099	8.41
513.53	8.51
513.961	8.6
514.391	8.71
514.822	8.82
515.253	8.93
515.684	9.03
516.114	9.16
516.545	9.27
516.975	9.4
517.406	9.52
517.836	9.63
518.267	9.76
518.697	9.89
519.127	10
519.558	10.13
519.988	10.26
520.418	10.38
520.848	10.5
521.278	10.62
521.708	11
522.138	11.14
522.567	11.27
522.997	11.38
523.427	11.51
523.857	11.64
524.286	11.75
524.716	11.88
525.145	12
525.575	12.13
526.004	12.25
526.433	12.12
526.863	12.22
527.292	12.34
527.721	12.46
528.15	12.56
528.579	12.66
529.008	12.77
529.437	12.85
529.866	12.94
530.295	13.04
530.724	13.13
531.152	13.21
531.581	13.29
532.01	13.35
532.438	13.41
532.867	13.48
533.295	13.54
533.723	13.58
534.152	13.64
534.58	13.7
535.008	13.73
535.436	13.78
535.865	13.81
536.293	13.85
536.721	13.88
537.149	13.92
537.576	13.95
538.004	13.99
538.432	14.02
538.86	14.04
539.287	14.08
539.715	14.11
540.143	14.14
540.57	14.17
540.998	14.19
541.425	14.22
541.852	14.24
542.28	14.27
542.707	14.29
543.134	14.33
543.561	14.37
543.988	14.38
544.415	14.4
544.842	14.41
545.269	14.43
545.696	14.46
546.123	14.47
546.549	14.48
546.976	14.5
547.403	14.51
547.829	14.53
548.256	14.53
548.682	14.55
549.108	14.57
549.535	14.59
549.961	14.6
550.387	14.61
550.813	14.63
551.24	14.63
551.666	14.62
552.092	14.62
552.518	14.62
552.943	14.61
553.369	14.6
553.795	14.57
554.221	14.55
554.646	14.51
555.072	14.49
555.498	14.44
555.923	14.4
556.349	14.35
556.774	14.3
557.199	14.26
557.625	14.21
558.05	14.17
558.475	14.1
558.9	14.04
559.325	13.99
559.75	13.94
560.175	13.87
560.6	13.81
561.025	13.75
561.449	13.68
561.874	13.6
562.299	13.5
562.723	13.41
563.148	13.32
563.572	13.23
563.997	13.13
564.421	13.02
564.846	12.93
565.27	12.84
565.694	12.75
566.118	12.65
566.542	12.56
566.966	12.45
567.39	12.36
567.814	12.27
568.238	12.17
568.662	12.08
569.086	12
569.509	11.91
569.933	11.83
570.357	11.74
570.78	11.65
571.204	11.57
571.627	11.5
572.05	11.42
572.474	11.36
572.897	11.3
573.32	11.23
573.743	11.15
574.166	11.09
574.589	11.02
575.012	10.96
575.435	10.91
575.858	10.84
576.281	10.79
576.704	10.74
577.126	10.68
577.549	10.62
577.972	10.56
578.394	10.51
578.817	10.47
579.239	10.43
579.661	10.38
580.084	10.34
580.506	10.31
580.928	10.27
581.35	10.22
581.772	10.18
582.194	10.15
582.616	10.12
583.038	10.08
583.46	10.03
583.882	9.99
584.303	9.94
584.725	9.9
585.147	9.88
585.568	9.85
585.99	9.82
586.411	9.79
586.833	9.76
587.254	9.72
587.675	9.7
588.096	9.67
588.518	9.64
588.939	9.64
589.36	9.61
589.781	9.57
590.202	9.57
590.623	9.54
591.043	9.51
591.464	9.49
591.885	9.46
592.305	9.44
592.726	9.45
593.147	9.42
593.567	9.39
593.987	9.37
594.408	9.35
594.828	9.31
595.248	9.3
595.669	9.29
596.089	9.27
596.509	9.26
596.929	9.24
597.349	9.21
597.769	9.18
598.189	9.16
598.608	9.14
599.028	9.13
599.448	9.11
599.867	9.07
600.287	9.05
600.706	9.03
601.126	9.01
601.545	8.99
601.965	8.98
602.384	8.96
602.803	8.93
603.222	8.91
603.641	8.89
604.061	8.86
604.48	8.84
604.898	8.81
605.317	8.78
605.736	8.76
606.155	8.74
606.574	8.7
606.992	8.67
607.411	8.66
607.829	8.6
608.248	8.56
608.666	8.52
609.085	8.49
609.503	8.47
609.921	8.44
610.339	8.4
610.758	8.37
611.176	8.33
611.594	8.31
612.012	8.26
612.43	8.26
612.847	8.22
613.265	8.19
613.683	8.16
614.101	8.13
614.518	8.09
614.936	8.06
615.353	8.03
615.771	8.01
616.188	7.97
616.606	7.96
617.023	7.94
617.44	7.94
617.857	7.92
618.274	7.89
618.691	7.88
619.108	7.85
619.525	7.83
619.942	7.82
620.359	7.81
620.776	7.8
621.192	7.79
621.609	7.78
622.026	7.76
622.442	7.76
622.859	7.76
623.275	7.74
623.691	7.75
624.108	7.74
624.524	7.72
624.94	7.72
625.356	7.72
625.772	7.7
626.188	7.69
626.604	7.69
627.02	7.68
627.436	7.67
627.852	7.67
628.268	7.67
628.683	7.66
629.099	7.66
629.514	7.65
629.93	7.66
630.345	7.66
630.761	7.64
631.176	7.63
631.591	7.63
632.007	7.61
632.422	7.6
632.837	7.58
633.252	7.57
633.667	7.54
634.082	7.53
634.497	7.52
634.911	7.5
635.326	7.49
635.741	7.47
636.155	7.45
636.57	7.44
636.984	7.42
637.399	7.41
637.813	7.38
638.228	7.36
638.642	7.32
639.056	7.29
639.47	7.27
639.884	7.25
640.298	7.23
640.712	7.2
641.126	7.17
641.54	7.14
641.954	7.09
642.368	7.07
642.781	7.06
643.195	7.04
643.609	7.02
644.022	6.98
644.436	6.96
644.849	6.93
645.262	6.91
645.676	6.89
646.089	6.87
646.502	6.87
646.915	6.85
647.328	6.83
647.741	6.81
648.154	6.78
648.567	6.79
648.98	6.77
649.393	6.76
649.805	6.76
650.218	6.75
650.631	6.75
651.043	6.73
651.456	6.73
651.868	6.71
652.28	6.7
652.693	6.7
653.105	6.69
653.517	6.68
653.929	6.67
654.341	6.66
654.753	6.64
655.165	6.62
655.577	6.62
655.989	6.6
656.401	6.59
656.813	6.59
657.224	6.56
657.636	6.53
658.047	6.52
658.459	6.49
658.87	6.47
659.282	6.45
659.693	6.45
660.104	6.43
660.515	6.4
660.926	6.38
661.338	6.37
661.749	6.36
662.159	6.35
662.57	6.35
662.981	6.34
663.392	6.34
663.803	6.34
664.213	6.33
664.624	6.32
665.035	6.32
665.445	6.31
665.855	6.3
666.266	6.3
666.676	6.3
667.086	6.28
667.497	6.28
667.907	6.27
668.317	6.27
668.727	6.27
669.137	6.27
669.547	6.27
669.956	6.27
670.366	6.28
670.776	6.29
671.186	6.29
671.595	6.3
672.005	6.3
672.414	6.31
672.824	6.31
673.233	6.32
673.642	6.34
674.052	6.36
674.461	6.36
674.87	6.37
675.279	6.39
675.688	6.41
676.097	6.43
676.506	6.45
676.915	6.46
677.323	6.48
677.732	6.49
678.141	6.5
678.549	6.5
678.958	6.52
679.366	6.55
679.775	6.54
680.183	6.56
680.592	6.59
681	6.61
681.408	6.62
681.816	6.65
682.224	6.69
682.632	6.73
683.04	6.76
683.448	6.79
683.856	6.81
684.264	6.85
684.671	6.88
685.079	6.91
685.487	6.95
685.894	7
686.302	7.05
686.709	7.1
687.116	7.16
687.524	7.24
687.931	7.33
688.338	7.44
688.745	7.55
689.152	7.65
689.559	7.79
689.966	7.94
690.373	8.1
690.78	8.28
691.187	8.46
691.593	8.65
692	8.85
692.407	9.04
692.813	9.28
693.22	9.53
693.626	9.8
694.032	10.08
694.439	10.37
694.845	10.67
695.251	10.98
695.657	11.31
696.063	11.65
696.469	12.02
696.875	12.41
697.281	12.79
697.687	13.2
698.093	13.58
698.498	13.98
698.904	14.38
699.31	14.78
699.715	15.22
700.12	15.65
700.526	16.08
700.931	16.52
701.337	16.95
701.742	17.38
702.147	17.8
702.552	18.26
702.957	18.7
703.362	19.13
703.767	19.57
704.172	20
704.577	20.44
704.981	20.89
705.386	21.33
705.791	21.76
706.195	22.22
706.6	22.66
707.004	23.1
707.408	23.53
707.813	24
708.217	24.44
708.621	24.88
709.025	25.31
709.43	25.74
709.834	26.19
710.237	26.63
710.641	27.05
711.045	27.48
711.449	27.91
711.853	28.37
712.256	28.79
712.66	29.22
713.064	29.64
713.467	30.09
713.87	30.52
714.274	30.94
714.677	31.37
715.08	31.81
715.484	32.24
715.887	32.67
716.29	33.06
716.693	33.47
717.096	33.87
717.499	34.28
717.901	34.66
718.304	35.03
718.707	35.43
719.109	35.79
719.512	36.15
719.915	36.52
720.317	36.84
720.719	37.17
721.122	37.53
721.524	37.86
721.926	38.21
722.328	38.55
722.731	38.87
723.133	39.16
723.535	39.49
723.937	39.79
724.338	40.09
724.74	40.4
725.142	40.87
725.544	41.14
725.945	41.46
726.347	41.68
726.748	41.92
727.15	42.15
727.551	42.44
727.952	42.66
728.354	42.88
728.755	43.1
729.156	43.29
729.557	43.32
729.958	43.49
730.359	43.65
730.76	43.88
731.161	44.08
731.562	44.28
731.962	44.41
732.363	44.61
732.763	44.79
733.164	44.94
733.564	45.15
733.965	45.32
734.365	45.51
734.766	45.65
735.166	45.78
735.566	45.94
735.966	46.09
736.366	46.22
736.766	46.32
737.166	46.44
737.566	46.57
737.966	46.66
738.365	46.75
738.765	46.86
739.165	46.96
739.564	47.06
739.964	47.14
740.363	47.21
740.763	47.29
741.162	47.38
741.561	47.44
741.96	47.51
742.36	47.58
742.759	47.66
743.158	47.72
743.557	47.76
743.955	47.84
744.354	47.88
744.753	47.96
745.152	48.05
745.55	48.1
745.949	48.15
746.348	48.2
746.746	48.24
747.144	48.28
747.543	48.3
747.941	48.34
748.339	48.36
748.737	48.39
749.136	48.38
749.534	48.36
749.932	48.39
750.33	48.44
750.727	48.48
751.125	48.5
751.523	48.51
751.921	48.55
752.318	48.59
752.716	48.64
753.113	48.68
753.511	48.74
753.908	48.81
754.305	48.87
754.703	48.9
755.1	48.91
755.497	48.96
755.894	48.98
756.291	49.02
756.688	49.04
757.085	49.07
757.482	49.08
757.878	49.11
758.275	49.12
758.672	49.11
759.068	49.15
759.465	49.17
759.861	49.19
760.258	49.24
760.654	49.24
761.05	49.26
761.447	49.29
761.843	49.31
762.239	49.31
762.635	49.32
763.031	49.35
763.427	49.33
763.822	49.36
764.218	49.36
764.614	49.36
765.01	49.38
765.405	49.39
765.801	49.38
766.196	49.42
766.592	49.41
766.987	49.41
767.382	49.39
767.778	49.42
768.173	49.41
768.568	49.41
768.963	49.41
769.358	49.41
769.753	49.42
770.148	49.41
770.542	49.39
770.937	49.42
771.332	49.44
771.726	49.46
772.121	49.45
772.515	49.46
772.91	49.48
773.304	49.46
773.699	49.47
774.093	49.48
774.487	49.5
774.881	49.51
775.275	49.52
775.669	49.49
776.063	49.48
776.457	49.49
776.851	49.46
777.245	49.44
777.638	49.46
778.032	49.48
778.425	49.52
778.819	49.52
779.212	49.52
779.606	49.55
779.999	49.55
780.392	49.59
780.786	49.58
781.179	49.64
781.572	49.67
781.965	49.72
782.358	49.72
782.751	49.69
783.143	49.68
783.536	49.68
783.929	49.67
784.322	49.7
784.714	49.69
785.107	49.74
785.499	49.74
785.891	49.76
786.284	49.75
786.676	49.74
787.068	49.74
787.46	49.74
787.852	49.76
788.245	49.77
788.636	49.77
789.028	49.77
789.42	49.72
789.812	49.7
790.204	49.67
790.595	49.64
790.987	49.64
791.378	49.67
791.77	49.7
792.161	49.71
792.553	49.68
792.944	49.66
793.335	49.66
793.726	49.69
794.117	49.72
794.508	49.72
794.899	49.73
795.29	49.74
795.681	49.7
796.072	49.68
796.463	49.73
796.853	49.75
797.244	49.77
797.634	49.78
798.025	49.78
798.415	49.76
798.806	49.77
799.196	49.81
799.586	49.81
799.976	49.83
800.366	49.85
800.756	49.8
801.146	49.8
801.536	49.8
801.926	49.8
802.316	49.78
802.706	49.83
803.095	49.84
803.485	49.82
803.874	49.8
804.264	49.81
804.653	49.83
805.043	49.83
805.432	49.87
805.821	49.88
806.21	49.92
806.599	49.93
806.988	49.95
807.377	49.94
807.766	49.92
808.155	49.95
808.544	49.98
808.933	49.98
809.321	49.98
809.71	49.96
810.098	49.97
810.487	49.96
810.875	49.99
811.264	49.97
811.652	50.04
812.04	50.06
812.428	50.05
812.816	50.01
813.204	50.01
813.592	49.99
813.98	49.99
814.368	50.02
814.756	50.02
815.144	49.99
815.531	49.98
815.919	49.92
816.306	49.93
816.694	49.93
817.081	49.96
817.469	49.97
817.856	49.99
818.243	49.98
818.63	49.95
819.017	49.97
819.404	49.98
819.791	49.97
820.178	49.98
820.565	49.96
820.952	49.98
821.339	49.94
821.725	49.95
822.112	49.95
822.498	49.96
822.885	49.99
823.271	49.97
823.657	49.94
824.044	49.95
824.43	49.96
824.816	49.97
825.202	49.96
825.588	49.97
825.974	49.96
826.36	49.98
826.746	49.97
827.132	49.95
827.517	49.95
827.903	49.99
828.289	50
828.674	49.99
829.06	49.98
829.445	49.96
829.83	49.95
830.216	49.93
830.601	49.88
830.986	49.9
831.371	49.89
831.756	49.9
832.141	49.88
832.526	49.9
832.911	49.91
833.295	49.92
833.68	49.94
834.065	49.94
834.449	49.93
834.834	49.96
835.218	49.93
835.603	49.93
835.987	49.89
836.371	49.87
836.755	49.84
837.139	49.8
837.524	49.79
837.908	49.8
838.291	49.82
838.675	49.83
839.059	49.81
839.443	49.81
839.827	49.81
840.21	49.82
840.594	49.85
840.977	49.83
841.361	49.86
841.744	49.83
842.127	49.8
842.511	49.77
842.894	49.76
843.277	49.76
843.66	49.73
844.043	49.77
844.426	49.77
844.809	49.76
845.191	49.79
845.574	49.78
845.957	49.79
846.339	49.81
846.722	49.83
847.104	49.84
847.487	49.83
847.869	49.85
848.252	49.83
848.634	49.82
849.016	49.84
849.398	49.86
849.78	49.86
850.162	49.87
850.544	49.86
850.926	49.86
851.307	49.85
851.689	49.89
852.071	49.88
852.452	49.89
852.834	49.89
853.215	49.87
853.597	49.87
853.978	49.87
854.359	49.89
854.741	49.88
855.122	49.87
855.503	49.88
855.884	49.86
856.265	49.87
856.646	49.87
857.026	49.89
857.407	49.9
857.788	49.88
858.169	49.9
858.549	49.9
858.93	49.92
859.31	49.93
859.69	49.93
860.071	49.96
860.451	49.97
860.831	49.98
861.211	49.94
861.591	49.91
861.971	49.92
862.351	49.93
862.731	49.94
863.111	49.94
863.491	49.95
863.87	49.93
864.25	49.91
864.629	49.92
865.009	49.93
865.388	49.95
865.768	49.99
866.147	50
866.526	49.99
866.905	49.96
867.284	49.98
867.663	49.99
868.042	50.02
868.421	50.05
868.8	50.07
869.179	50.1
869.558	50.1
869.936	50.09
870.315	50.06
870.693	50.09
871.072	50.12
871.45	50.14
871.828	50.15
872.207	50.15
872.585	50.13
872.963	50.15
873.341	50.12
873.719	50.12
874.097	50.11
874.475	50.15
874.853	50.15
875.23	50.16
875.608	50.13
875.986	50.13
876.363	50.15
876.741	50.16
877.118	50.15
877.495	50.16
877.873	50.18
878.25	50.2
878.627	50.18
879.004	50.17
879.381	50.15
879.758	50.13
880.135	50.13
880.512	50.1
880.889	50.09
881.265	50.06
881.642	50.03
882.019	50
882.395	49.99
882.772	49.97
883.148	49.95
883.524	49.93
883.901	49.94
884.277	49.9
884.653	49.87
885.029	49.84
885.405	49.83
885.781	49.81
886.157	49.8
886.532	49.79
886.908	49.77
887.284	49.76
887.659	49.74
888.035	49.7
888.411	49.7
888.786	49.71
889.161	49.73
889.537	49.73
889.912	49.74
890.287	49.75
890.662	49.74
891.037	49.76
891.412	49.76
891.787	49.75
892.162	49.77
892.536	49.78
892.911	49.79
893.286	49.8
893.66	49.81
894.035	49.82
894.409	49.84
894.784	49.84
895.158	49.82
895.532	49.84
895.906	49.88
896.281	49.9
896.655	49.88
897.029	49.89
897.402	49.88
897.776	49.9
898.15	49.92
898.524	49.94
898.898	49.97
899.271	50.03
899.645	50.04
900.018	50.08
900.392	50.1
900.765	50.13
901.138	50.12
901.511	50.15
901.884	50.16
902.258	50.16
902.631	50.16
903.003	50.17
903.376	50.18
903.749	50.16
904.122	50.14
904.495	50.14
904.867	50.17
905.24	50.18
905.612	50.18
905.985	50.17
906.357	50.17
906.729	50.17
907.102	50.16
907.474	50.15
907.846	50.17
908.218	50.16
908.59	50.2
908.962	50.22
909.334	50.24
909.705	50.25
910.077	50.24
910.449	50.24
910.82	50.23
911.192	50.23
911.563	50.23
911.935	50.2
912.306	50.23
912.677	50.21
913.048	50.23
913.419	50.2
913.79	50.21
914.161	50.24
914.532	50.26
914.903	50.26
915.274	50.28
915.645	50.31
916.015	50.35
916.386	50.37
916.756	50.37
917.127	50.34
917.497	50.39
917.868	50.4
918.238	50.41
918.608	50.43
918.978	50.47
919.348	50.48
919.718	50.46
920.088	50.46
920.458	50.46
920.828	50.47
921.198	50.45
921.567	50.44
921.937	50.46
922.306	50.43
922.676	50.42
923.045	50.39
923.415	50.39
923.784	50.41
924.153	50.41
924.522	50.38
924.891	50.37
925.26	50.4
925.629	50.41
925.998	50.35
926.367	50.37
926.736	50.37
927.104	50.36
927.473	50.3
927.842	50.25
928.21	50.26
928.578	50.28
928.947	50.31
929.315	50.29
929.683	50.28
930.051	50.32
930.42	50.28
930.788	50.31
931.156	50.32
931.523	50.36
931.891	50.42
932.259	50.43
932.627	50.44
932.994	50.47
933.362	50.49
933.729	50.51
934.097	50.55
934.464	50.64
934.831	50.64
935.199	50.68
935.566	50.75
935.933	50.74
936.3	50.78
936.667	50.78
937.034	50.85
937.401	50.93
937.767	50.97
938.134	50.98
938.501	51
938.867	51.09
939.234	51.12
939.6	51.07
939.967	51.12
940.333	51.09
940.699	51.11
941.065	50.97
941.431	50.9
941.798	50.86
942.163	50.82
942.529	50.75
942.895	50.65
943.261	50.54
943.627	50.55
943.992	50.51
944.358	50.48
944.723	50.48
945.089	50.43
945.454	50.45
945.82	50.38
946.185	50.34
946.55	50.27
946.915	50.24
947.28	50.25
947.645	50.22
948.01	50.22
948.375	50.21
948.74	50.15
949.104	50.19
949.469	50.1
949.834	50.09
950.198	50.08
950.562	50.07
950.927	50.04
951.291	49.99
951.655	49.97
952.02	49.92
952.384	49.89
952.748	49.9
953.112	49.91
953.476	49.92
953.839	49.89
954.203	49.89
954.567	49.86
954.931	49.84
955.294	49.86
955.658	49.86
956.021	49.82
956.385	49.78
956.748	49.75
957.111	49.65
957.474	49.65
957.837	49.6
958.2	49.55
958.563	49.51
958.926	49.46
959.289	49.43
959.652	49.43
960.015	49.46
960.377	49.44
960.74	49.44
961.102	49.46
961.465	49.47
961.827	49.64
962.189	49.67
962.552	49.68
962.914	49.7
963.276	49.77
963.638	49.77
964	49.76
964.362	49.78
964.724	49.76
965.085	49.74
965.447	49.73
965.809	49.59
966.17	49.56
966.532	49.59
966.893	49.62
967.255	49.58
967.616	49.56
967.977	49.58
968.338	49.65
968.699	49.69
969.061	49.7
969.421	49.72
969.782	49.77
970.143	49.82
970.504	49.9
970.865	49.96
971.225	49.97
971.586	49.98
971.946	49.95
972.307	49.89
972.667	49.87
973.027	49.91
973.388	49.92
973.748	49.91
974.108	49.98
974.468	49.91
974.828	49.93
975.188	49.91
975.548	49.88
975.907	49.88
976.267	49.86
976.627	49.94
976.986	49.92
977.346	49.86
977.705	49.88
978.064	49.82
978.424	49.88
978.783	49.77
979.142	49.78
979.501	49.88
979.86	49.97
980.219	50.04
980.578	49.97
980.937	50.07
981.296	50.07
981.654	50.03
982.013	50.09
982.371	50.07
982.73	50.16
983.088	50.15
983.447	50.16
983.805	50.08
984.163	50.07
984.521	50.12
984.879	50.04
985.237	50.09
985.595	50.17
985.953	50.08
986.311	50.06
986.669	50.09
987.026	50.1
987.384	50.17
987.741	50.21
988.099	50.35
988.456	50.34
988.814	50.45
989.171	50.49
989.528	50.44
989.885	50.45
990.242	50.48
990.599	50.41
990.956	50.49
991.313	50.39
991.67	50.45
992.027	50.58
992.383	50.68
992.74	50.74
993.096	50.8
993.453	50.9
993.809	50.97
994.165	51.12
994.522	51.33
994.878	51.37
995.234	51.42
995.59	51.36
995.946	51.2
996.302	51.25
996.658	51.19
997.013	51.18
997.369	51.32
997.725	51.41
998.08	51.36
998.436	51.3
998.791	51.3
999.147	51.32
999.502	51.43
999.857	51.44
1000.212	51.33
1000.567	51.37
1000.922	51.41
1001.277	51.35
1001.632	51.23
1001.987	51.24
1002.342	51.2
1002.696	51.16
1003.051	51.33
1003.406	51.5
1003.76	51.53
1004.114	51.62
1004.469	51.72
1004.823	52.01
1005.177	51.95
1005.531	52.15
1005.885	52.33
1006.239	52.36
1006.593	52.56
1006.947	52.64
1007.301	52.46
1007.655	52.4
1008.008	52.43
1008.362	52.48
1008.715	52.28
1009.069	52.39
1009.422	52.53
1009.776	52.47
1010.129	52.53
1010.482	52.49
1010.835	52.5
1011.188	52.66
1011.541	52.82
1011.894	53
1012.247	52.88
1012.6	52.82
1012.952	52.9
1013.305	52.82
1013.657	52.95
1014.01	53.1
1014.362	53.09
1014.715	53.29
1015.067	53.44
1015.419	53.59
1015.771	53.5
1016.123	53.85
1016.475	53.96
1016.827	53.97
1017.179	54.09
1017.531	54.08
1017.883	54.06
1018.234	54.66
1018.586	54.7
1018.938	54.88
1019.289	54.86
1019.64	54.9
1019.992	54.61
1020.343	54.82
1020.694	55.1
1021.045	55.15
1021.396	55.23
1021.747	55.47
1022.098	55.13
1022.449	54.84
1022.8	54.76
1023.151	54.87
1023.501	55.11
1023.852	55.38
1024.202	55.31
1024.553	55.17
1024.903	55.38
1025.253	55.73
1025.604	55.85
1025.954	55.64
1026.304	55.8
1026.654	55.97
1027.004	55.98
1027.354	55.86
1027.703	55.85
1028.053	56.01
1028.403	56.3
1028.753	55.88
1029.102	55.81
1029.452	55.73
1029.801	56.12
1030.15	56.2
1030.499	55.93
897.758	2037.81
901.051	2038.29
904.343	2025.2
907.636	2067.06
910.928	2014.92
914.22	2010.82
917.511	1980.14
920.803	1895.47
924.094	1887.88
927.384	1850.15
930.675	1762.1
933.965	1748.5
937.255	1650.44
940.544	1585.48
943.834	1503.32
947.123	1488.11
950.411	1400.51
953.7	1370.33
956.988	1294.37
960.276	1239.2
963.563	1218.16
966.851	1179.22
970.138	1169.66
973.424	1131.58
976.711	1138.98
979.997	1083.22
983.283	1078.32
986.568	1056.08
989.853	1020.32
993.138	1003.81
996.423	964.78
999.708	939.34
1002.992	929.55
1006.275	883.09
1009.559	873.58
1012.842	842.82
1016.125	818.65
1019.408	803.91
1022.69	790.29
1025.972	777.91
1029.254	757.42
1032.536	745.11
1035.817	726.85
1039.098	715.68
1042.379	701.79
1045.659	695.75
1048.939	677.79
1052.219	663.39
1055.498	651.44
1058.778	639.54
1062.057	621.35
1065.335	614.84
1068.614	606.41
1071.892	602.32
1075.17	581.71
1078.447	570.57
1081.724	566.34
1085.001	561.03
1088.278	549.43
1091.554	538.45
1094.83	537.28
1098.106	535.35
1101.382	530.15
1104.657	526.93
1107.932	517.15
1111.206	521.68
1114.481	508.17
1117.755	501.52
1121.029	498.56
1124.302	499.48
1127.575	488.57
1130.848	482.1
1134.121	477.01
1137.393	475.3
1140.665	464.3
1143.937	462.74
1147.208	455.86
1150.48	456.86
1153.75	451.08
1157.021	442.65
1160.291	442.43
1163.561	439.53
1166.831	438.6
1170.101	435.65
1173.37	432.87
1176.639	434.6
1179.907	429.7
1183.176	426.08
1186.444	424.88
1189.711	424.87
1192.979	424.2
1196.246	420.34
1199.513	421.36
1202.78	419.65
1206.046	419.23
1209.312	415.14
1212.578	416
1215.843	419.33
1219.108	417.06
1222.373	426.2
1225.638	429.33
1228.902	437.57
1232.166	437
1235.43	441.52
1238.693	447.86
1241.956	449.49
1245.219	458.27
1248.482	456.38
1251.744	456.7
1255.006	458.08
1258.268	446.12
1261.529	441.2
1264.79	436
1268.051	434.2
1271.312	427.91
1274.572	422.04
1277.832	417.43
1281.092	410.26
1284.351	407.63
1287.61	406.98
1290.869	400.95
1294.128	398.19
1297.386	398.81
1300.644	394.38
1303.902	396.02
1307.159	393.02
1310.416	394.31
1313.673	394.86
1316.93	398.32
1320.186	399.15
1323.442	400.35
1326.697	407.89
1329.953	408.99
1333.208	410.31
1336.463	415.39
1339.717	416.57
1342.972	421.13
1346.226	423.79
1349.479	423.74
1352.733	427.18
1355.986	428.43
1359.238	428.56
1362.491	431.7
1365.743	435.92
1368.995	435.99
1372.247	433.87
1375.498	434.72
1378.749	441.04
1382	434.74
1385.251	437.7
1388.501	433.7
1391.751	437.55
1395	434.39
1398.25	431.67
1401.499	429.8
1404.748	429.54
1407.996	426.32
1411.244	423.68
1414.492	421.68
1417.74	419.2
1420.987	412.06
1424.234	413.54
1427.481	405.67
1430.728	407.42
1433.974	402.09
1437.22	398.66
1440.465	397.28
1443.711	395.62
1446.956	393.73
1450.201	387.04
1453.445	383.94
1456.689	383.15
1459.933	376.42
1463.177	374.19
1466.42	367
1469.663	362.72
1472.906	361.47
1476.148	351.04
1479.391	345.38
1482.633	341.23
1485.874	337.15
1489.115	335.06
1492.356	329.21
1495.597	328.3
1498.838	322.9
1502.078	320.74
1505.318	319.24
1508.557	318.53
1511.797	319.01
1515.036	318.14
1518.274	317.24
1521.513	312.41
1524.751	311.86
1527.989	311.8
1531.227	309.9
1534.464	311.94
1537.701	308.5
1540.938	307.49
1544.174	303.32
1547.41	302.33
1550.646	300.79
1553.882	300.49
1557.117	297.81
1560.352	295.48
1563.587	294.3
1566.821	292.03
1570.055	287.94
1573.289	286.35
1576.523	286.58
1579.756	283.78
1582.989	282.57
1586.222	282.12
1589.454	280.15
1592.686	282.08
1595.918	280.96
1599.15	280.24
1602.381	280.14
1605.612	280.24
1608.843	281.94
1612.073	280.66
1615.303	282.82
1618.533	283.05
1621.762	281.34
1624.992	281.84
1628.221	282.07
1631.449	281.59
1634.678	280.78
1637.906	282.33
1641.134	281.88
1644.361	281.14
1647.588	282.18
1650.815	280.47
1654.042	279.18
1657.269	281.54
1660.495	281.36
1663.72	278.46
1666.946	280.05
1670.171	280.7
1673.396	279.98
1676.621	280.71
1679.845	280.35
1683.069	280.06
1686.293	282.23
1689.517	283.72
1692.74	283.12
1695.963	284.52
1699.185	289.01
1702.408	288.44
1705.63	289.36
1708.852	290.42
1712.073	290.98
1715.294	291.91
1718.515	292.81
1721.736	292.43
1724.956	293.04
1728.176	293
1731.396	295.79
1734.616	294.88
1737.835	296.21
1741.054	294.55
1744.272	295.61
1747.491	298.78
1750.709	299.28
1753.927	300.22
1757.144	298.47
1760.361	300.78
1763.578	301.48
1766.795	300.74
1770.011	301.92
1773.227	302.33
1776.443	306.11
1779.658	308.16
1782.874	306.3
1786.089	307.74
1789.303	308.8
1792.518	312.77
1795.732	312.12
1798.945	316.04
1802.159	315.57
1805.372	317.64
1808.585	323.53
1811.797	324.91
1815.01	323.62
1818.222	326.73
1821.434	329.07
1824.645	330.46
1827.856	337.03
1831.067	340.68
1834.278	337.83
1837.488	341.14
1840.698	343.82
1843.908	339.7
1847.117	342.42
1850.326	345.92
1853.535	343.94
1856.744	350.61
1859.952	350.02
1863.16	348.72
1866.368	346
1869.575	352.79
1872.782	346.72
1875.989	345.09
1879.196	344.65
1882.402	342.66
1885.608	344.87
1888.814	347.89
1892.019	346.09
1895.224	345.87
1898.429	343.78
1901.634	347.23
1904.838	346.3
1908.042	352.25
1911.246	353.92
1914.449	356.39
1917.652	356.22
1920.855	355.94
1924.058	355.11
1927.26	353.65
1930.462	356.42
1933.664	360.86
1936.865	356.73
1940.066	357.45
1943.267	355.13
1946.467	354.03
1949.668	356.81
1952.868	361.46
1956.067	360.33
1959.267	360.41
1962.466	361.67
1965.665	359.97
1968.863	360.32
1972.061	365.45
1975.259	368.99
1978.457	370.6
1981.654	374.31
1984.852	375.01
1988.048	373.23
1991.245	376.81
1994.441	382.08
1997.637	383.84
2000.833	390.11
2004.028	396.03
2007.223	398.07
2010.418	401.78
2013.613	408.63
2016.807	413.16
2020.001	415.73
2023.194	422.31
2026.388	432.04
2029.581	440.87
2032.774	445.87
2035.966	454.43
2039.158	454.99
2042.35	465.1
2045.542	466.58
2048.733	473.42
2051.924	479.78
2055.115	488.01
2058.306	488.37
2061.496	494.52
2064.686	493.9
2067.875	503.21
2071.065	503.48
2074.254	501.63
2077.442	505.23
2080.631	508.4
2083.819	513.99
2087.007	514.22
2090.195	520.16
2093.382	525.04
2096.569	519.69
2099.756	529.04
2102.942	528.8
2106.128	537.01
2109.314	547.5
2112.5	545.99
2115.685	557.85
2118.87	558.85
2122.055	569.74
2125.239	574.56
2128.424	583.11
2131.608	587.02
2134.791	594.49
2137.974	599.16
2141.157	599.33
2144.34	600.5
2147.523	611.03
2150.705	606.35
2153.887	611.07
2157.068	612.61
2160.25	605.87
2163.431	606.58
2166.611	614.86
2169.792	626.22
2172.972	633.99
2176.152	635.03
2179.331	645.29
2182.511	655.98
2185.69	665.87
2188.868	679.61
2192.047	681.16
2195.225	701.84
2198.403	720.81
2201.58	731.62
2204.758	746.69
2207.935	760.85
2211.111	777.33
2214.288	786.68
2217.464	789.47
2220.64	797.03
2223.815	810.49
2226.991	843.14
2230.166	845.68
2233.34	863.15
2236.515	877.33
2239.689	877.25
2242.863	880
2246.036	910.03
2249.209	899.35
2252.382	912.24
2255.555	943.71
2258.727	944.82
2261.9	949.68
2265.071	958.65
2268.243	972.43
2271.414	983.76
2274.585	1008.75
2277.756	1020.87
2280.926	1024.15
2284.096	1049.25
2287.266	1074.39
2290.436	1081.16
2293.605	1108.29
2296.774	1146.99
2299.942	1183.12
2303.111	1187.88
2306.279	1219.97
2309.447	1232.59
2312.614	1262.22
2315.781	1297.6
2318.948	1359.6
2322.115	1338.44
2325.281	1409.85
2328.447	1379.29
2331.613	1433.79
2334.779	1415.49
2337.944	1477.5
2341.109	1493.6
2344.274	1534.88
2347.438	1591.83
2350.602	1595.8
2353.766	1640.34
2356.929	1663.25
2360.092	1652.88
2363.255	1778.37
2366.418	1769.12
2369.58	1808.37
2372.742	1917.94
2375.904	1964.12
2379.066	1950.21
2382.227	1912.76
2385.388	2070.69
2388.548	2078.99
2391.709	2111.79
2394.869	2352.19
2398.029	2233.88
2401.188	2300.96
2404.347	2291.66
2407.506	2257.74
2410.665	2322.31
2413.823	2465.3
2416.981	2609.92
2420.139	2524
2423.296	2492.17
2426.453	2597.61
2429.61	2495.23
2432.767	2627.88
2435.923	2610.21
2439.079	2832.2
2442.235	2863.59
2445.391	2835.97
2448.546	2821.84
2451.701	2742.4
2454.855	2743.21
2458.009	2909.49
2461.163	3022.76
2464.317	3135.65
2467.471	3220.21
2470.624	3213.49
2473.777	3139.25
2476.929	3070.31
2480.082	2981.62
2483.234	2938.26
2486.385	3075.17
2489.537	3091.5
2492.688	3217.41
2495.839	3118.69
2498.989	3064.12
2502.14	3076.91
2505.29	3112.82
2508.439	3160.48
2511.589	3150.07
2514.738	3432.46
2517.887	3364.09
2521.035	3568.63
2524.183	3592.32
2527.331	3614.09
2530.479	3620.04
2533.627	3636.03
