Data from C_2_DIV_WI_4N_Splice17_13-21-37-369.txt Node
Date: Sat Mar 07 13:21:37 EST 2020
User: sa697716
Spectrometer: NQ5500242
Trigger mode: 0
Integration Time (sec): 1.450000E-1
Scans to average: 20
Nonlinearity correction enabled: false
Boxcar width: 5
Storing dark spectrum: false
XAxis mode: Wavelengths
Number of Pixels in Spectrum: 512
>>>>>Begin Spectral Data<<<<<
187.83	92.98
188.298	122.62
188.766	96.4
189.233	74.62
189.701	85.18
190.169	107.51
190.636	118.94
191.104	173.81
191.571	-18.17
192.039	-5.46
192.506	-587.2
192.974	192.73
193.441	384.39
193.908	112.57
194.375	28.63
194.842	-3.51
195.31	68.79
195.777	200.55
196.244	58.87
196.711	45.99
197.177	49.09
197.644	47.93
198.111	46.86
198.578	47.22
199.045	47.7
199.511	47.94
199.978	48.26
200.445	48.34
200.911	48.51
201.378	48.51
201.844	48.81
202.31	48.32
202.777	48.4
203.243	48.43
203.709	48.16
204.176	47.73
204.642	47.22
205.108	46.85
205.574	46.37
206.04	45.48
206.506	44.87
206.972	44.34
207.438	43.7
207.903	42.91
208.369	41.84
208.835	40.97
209.301	40.24
209.766	39.15
210.232	37.91
210.697	36.92
211.163	36.1
211.628	35.23
212.094	34.26
212.559	33.73
213.024	33.06
213.49	32.59
213.955	31.72
214.42	30.87
214.885	30.12
215.35	29.09
215.815	27.63
216.28	25.8
216.745	23.68
217.21	21.73
217.675	19.8
218.14	18.18
218.604	16.68
219.069	15.53
219.534	14.55
219.998	13.69
220.463	13.03
220.927	12.39
221.392	11.93
221.856	11.57
222.32	11.21
222.785	10.94
223.249	10.65
223.713	10.44
224.177	10.22
224.642	10.01
225.106	9.79
225.57	9.59
226.034	9.41
226.497	9.23
226.961	9.05
227.425	8.88
227.889	8.73
228.353	8.57
228.816	8.42
229.28	8.28
229.744	8.15
230.207	8.03
230.671	7.9
231.134	7.79
231.597	7.68
232.061	7.57
232.524	7.47
232.987	7.35
233.45	7.27
233.914	7.18
234.377	7.08
234.84	7
235.303	6.93
235.766	6.86
236.229	6.79
236.691	6.7
237.154	6.64
237.617	6.57
238.08	6.51
238.542	6.44
239.005	6.37
239.468	6.31
239.93	6.26
240.393	6.2
240.855	6.13
241.317	6.06
241.78	6.01
242.242	5.93
242.704	5.88
243.166	5.82
243.629	5.78
244.091	5.71
244.553	5.65
245.015	5.58
245.477	5.52
245.939	5.46
246.4	5.41
246.862	5.36
247.324	5.31
247.786	5.25
248.247	5.21
248.709	5.15
249.17	5.09
249.632	5.06
250.093	5.02
250.555	4.98
251.016	4.95
251.477	4.9
251.939	4.86
252.4	4.82
252.861	4.79
253.322	4.76
253.783	4.73
254.244	4.7
254.705	4.66
255.166	4.63
255.627	4.58
256.088	4.56
256.549	4.52
257.009	4.48
257.47	4.44
257.931	4.4
258.391	4.35
258.852	4.31
259.312	4.28
259.773	4.24
260.233	4.22
260.694	4.18
261.154	4.15
261.614	4.13
262.074	4.09
262.534	4.06
262.994	4.04
263.455	4.01
263.915	3.99
264.374	3.96
264.834	3.95
265.294	3.92
265.754	3.91
266.214	3.89
266.673	3.86
267.133	3.85
267.593	3.84
268.052	3.83
268.512	3.82
268.971	3.81
269.431	3.8
269.89	3.78
270.349	3.77
270.809	3.76
271.268	3.75
271.727	3.74
272.186	3.72
272.645	3.71
273.104	3.7
273.563	3.68
274.022	3.67
274.481	3.66
274.94	3.65
275.399	3.64
275.857	3.63
276.316	3.62
276.775	3.62
277.233	3.61
277.692	3.61
278.15	3.6
278.609	3.6
279.067	3.59
279.525	3.58
279.984	3.57
280.442	3.57
280.9	3.57
281.358	3.56
281.816	3.56
282.274	3.56
282.732	3.55
283.19	3.54
283.648	3.53
284.106	3.52
284.564	3.51
285.021	3.51
285.479	3.5
285.937	3.48
286.394	3.47
286.852	3.46
287.309	3.45
287.767	3.43
288.224	3.42
288.682	3.41
289.139	3.39
289.596	3.38
290.053	3.36
290.511	3.34
290.968	3.32
291.425	3.3
291.882	3.29
292.339	3.27
292.796	3.26
293.252	3.24
293.709	3.23
294.166	3.23
294.623	3.21
295.079	3.21
295.536	3.2
295.992	3.2
296.449	3.19
296.905	3.19
297.362	3.18
297.818	3.17
298.274	3.17
298.731	3.16
299.187	3.14
299.643	3.13
300.099	3.13
300.555	3.12
301.011	3.11
301.467	3.11
301.923	3.09
302.379	3.09
302.835	3.1
303.291	3.09
303.746	3.09
304.202	3.09
304.658	3.09
305.113	3.09
305.569	3.08
306.024	3.09
306.479	3.08
306.935	3.08
307.39	3.08
307.845	3.07
308.301	3.08
308.756	3.08
309.211	3.07
309.666	3.07
310.121	3.08
310.576	3.08
311.031	3.08
311.486	3.08
311.94	3.09
312.395	3.08
312.85	3.08
313.305	3.08
313.759	3.08
314.214	3.08
314.668	3.07
315.123	3.06
315.577	3.06
316.032	3.05
316.486	3.04
316.94	3.05
317.394	3.04
317.849	3.03
318.303	3.02
318.757	3.01
319.211	3
319.665	2.99
320.119	2.98
320.572	2.97
321.026	2.95
321.48	2.94
321.934	2.92
322.387	2.91
322.841	2.91
323.295	2.91
323.748	2.91
324.202	2.91
324.655	2.91
325.108	2.91
325.562	2.92
326.015	2.92
326.468	2.93
326.921	2.93
327.374	2.94
327.827	2.94
328.28	2.94
328.733	2.94
329.186	2.92
329.639	2.93
330.092	2.92
330.545	2.92
330.997	2.92
331.45	2.92
331.903	2.93
332.355	2.94
332.808	2.93
333.26	2.93
333.713	2.93
334.165	2.93
334.617	2.93
335.069	2.94
335.522	2.94
335.974	2.94
336.426	2.93
336.878	2.93
337.33	2.93
337.782	2.93
338.234	2.94
338.686	2.94
339.137	2.95
339.589	2.94
340.041	2.94
340.493	2.93
340.944	2.92
341.396	2.91
341.847	2.9
342.299	2.88
342.75	2.87
343.201	2.85
343.653	2.83
344.104	2.82
344.555	2.81
345.006	2.8
345.457	2.79
345.908	2.78
346.359	2.79
346.81	2.79
347.261	2.78
347.712	2.77
348.163	2.77
348.613	2.79
349.064	2.79
349.515	2.79
349.965	2.79
350.416	2.79
350.866	2.79
351.317	2.78
351.767	2.78
352.217	2.78
352.668	2.79
353.118	2.79
353.568	2.78
354.018	2.78
354.468	2.79
354.918	2.79
355.368	2.79
355.818	2.8
356.268	2.8
356.718	2.81
357.168	2.81
357.617	2.8
358.067	2.8
358.517	2.81
358.966	2.82
359.416	2.82
359.865	2.81
360.315	2.82
360.764	2.82
361.213	2.82
361.663	2.82
362.112	2.82
362.561	2.83
363.01	2.83
363.459	2.81
363.908	2.81
364.357	2.82
364.806	2.82
365.255	2.81
365.703	2.82
366.152	2.82
366.601	2.84
367.05	2.85
367.498	2.85
367.947	2.86
368.395	2.87
368.844	2.88
369.292	2.87
369.74	2.89
370.189	2.9
370.637	2.9
371.085	2.9
371.533	2.91
371.981	2.91
372.429	2.93
372.877	2.94
373.325	2.95
373.773	2.94
374.221	2.95
374.669	2.95
375.116	2.96
375.564	2.97
376.012	2.99
376.459	2.99
376.907	3.01
377.354	3.03
377.801	3.05
378.249	3.07
378.696	3.1
379.143	3.13
379.591	3.14
380.038	3.17
380.485	3.19
380.932	3.21
381.379	3.23
381.826	3.24
382.273	3.25
382.72	3.25
383.166	3.27
383.613	3.28
384.06	3.29
384.506	3.31
384.953	3.33
385.4	3.35
385.846	3.38
386.292	3.4
386.739	3.42
387.185	3.45
387.631	3.49
388.078	3.51
388.524	3.54
388.97	3.57
389.416	3.6
389.862	3.64
390.308	3.66
390.754	3.7
391.2	3.72
391.645	3.75
392.091	3.79
392.537	3.83
392.983	3.86
393.428	3.9
393.874	3.92
394.319	3.96
394.765	3.98
395.21	4
395.655	4.02
396.101	4.06
396.546	4.09
396.991	4.12
397.436	4.15
397.881	4.19
398.326	4.22
398.771	4.26
399.216	4.28
399.661	4.31
400.106	4.34
400.551	4.36
400.995	4.37
401.44	4.39
401.885	4.4
402.329	4.41
402.774	4.43
403.218	4.47
403.663	4.48
404.107	4.5
404.551	4.52
404.995	4.53
405.44	4.54
405.884	4.57
406.328	4.59
406.772	4.59
407.216	4.61
407.66	4.61
408.104	4.6
408.547	4.61
408.991	4.63
409.435	4.64
409.879	4.66
410.322	4.69
410.766	4.72
411.209	4.74
411.653	4.76
412.096	4.78
412.54	4.8
412.983	4.82
413.426	4.87
413.869	4.88
414.312	4.91
414.756	4.93
415.199	4.94
415.642	4.94
416.085	4.96
416.527	4.95
416.97	4.95
417.413	4.96
417.856	4.96
418.298	4.95
418.741	4.95
419.184	4.95
419.626	4.94
420.069	4.96
420.511	4.96
420.953	4.96
421.396	4.98
421.838	5
422.28	5
422.722	5.02
423.164	5.01
423.606	5.01
424.048	5.02
424.49	5.02
424.932	4.99
425.374	4.97
425.816	4.94
426.258	4.92
426.699	4.9
427.141	4.89
427.582	4.88
428.024	4.9
428.465	4.91
428.907	4.9
429.348	4.89
429.789	4.89
430.231	4.93
430.672	4.94
431.113	4.97
431.554	4.98
431.995	4.99
432.436	4.99
432.877	5
433.318	5.02
433.759	5.05
434.2	5.08
434.64	5.1
435.081	5.1
435.522	5.13
435.962	5.16
436.403	5.19
436.843	5.2
437.284	5.21
437.724	5.21
438.164	5.2
438.604	5.22
439.045	5.22
439.485	5.23
439.925	5.24
440.365	5.25
440.805	5.26
441.245	5.27
441.685	5.3
442.125	5.35
442.564	5.37
443.004	5.39
443.444	5.4
443.883	5.42
444.323	5.44
444.762	5.47
445.202	5.49
445.641	5.54
446.081	5.56
446.52	5.56
446.959	5.6
447.398	5.65
447.837	5.68
448.276	5.71
448.716	5.75
449.154	5.8
449.593	5.82
450.032	5.84
450.471	5.84
450.91	5.85
451.349	5.88
451.787	5.87
452.226	5.86
452.664	5.86
453.103	5.86
453.541	5.86
453.98	5.86
454.418	5.86
454.856	5.84
455.295	5.84
455.733	5.82
456.171	5.82
456.609	5.83
457.047	5.81
457.485	5.82
457.923	5.82
458.361	5.82
458.798	5.82
459.236	5.81
459.674	5.81
460.111	5.81
460.549	5.83
460.987	5.84
461.424	5.83
461.862	5.85
462.299	5.86
462.736	5.86
463.173	5.86
463.611	5.86
464.048	5.86
464.485	5.87
464.922	5.87
465.359	5.87
465.796	5.88
466.233	5.88
466.67	5.89
467.106	5.9
467.543	5.9
467.98	5.89
468.416	5.89
468.853	5.9
469.29	5.89
469.726	5.9
470.162	5.89
470.599	5.87
471.035	5.85
471.471	5.85
471.907	5.84
472.344	5.84
472.78	5.86
473.216	5.85
473.652	5.85
474.088	5.83
474.523	5.82
474.959	5.83
475.395	5.81
475.831	5.82
476.266	5.83
476.702	5.82
477.138	5.83
477.573	5.82
478.008	5.82
478.444	5.81
478.879	5.82
479.314	5.82
479.75	5.82
480.185	5.82
480.62	5.8
481.055	5.79
481.49	5.78
481.925	5.78
482.36	5.78
482.795	5.77
483.229	5.77
483.664	5.78
484.099	5.79
484.534	5.78
484.968	5.8
485.403	5.82
485.837	5.84
486.271	5.86
486.706	5.88
487.14	5.9
487.574	5.93
488.009	5.96
488.443	5.99
488.877	6.03
489.311	6.07
489.745	6.11
490.179	6.16
490.613	6.2
491.046	6.24
491.48	6.29
491.914	6.35
492.348	6.42
492.781	6.48
493.215	6.55
493.648	6.61
494.082	6.68
494.515	6.75
494.948	6.83
495.382	6.91
495.815	7
496.248	7.09
496.681	7.18
497.114	7.26
497.547	7.36
497.98	7.46
498.413	7.57
498.846	7.68
499.279	7.79
499.711	7.91
500.144	8.04
500.577	8.17
501.009	8.29
501.442	8.43
501.874	8.58
502.306	8.73
502.739	8.9
503.171	9.06
503.603	9.23
504.036	9.41
504.468	9.58
504.9	9.76
505.332	9.96
505.764	10.16
506.196	10.37
506.627	10.58
507.059	10.78
507.491	10.99
507.923	11.21
508.354	11.44
508.786	11.68
509.217	11.93
509.649	12.16
510.08	12.4
510.512	12.65
510.943	12.9
511.374	13.16
511.805	13.44
512.237	13.7
512.668	13.98
513.099	14.24
513.53	14.52
513.961	14.8
514.391	15.08
514.822	15.38
515.253	15.67
515.684	15.96
516.114	16.24
516.545	16.52
516.975	16.81
517.406	17.11
517.836	17.39
518.267	17.69
518.697	17.96
519.127	18.24
519.558	18.53
519.988	18.8
520.418	19.06
520.848	19.33
521.278	19.6
521.708	19.94
522.138	20.19
522.567	20.45
522.997	20.71
523.427	20.94
523.857	21.18
524.286	21.39
524.716	21.61
525.145	21.83
525.575	22.04
526.004	22.25
526.433	22.37
526.863	22.56
527.292	22.73
527.721	22.89
528.15	23.06
528.579	23.22
529.008	23.38
529.437	23.52
529.866	23.64
530.295	23.76
530.724	23.9
531.152	24.01
531.581	24.13
532.01	24.24
532.438	24.35
532.867	24.45
533.295	24.54
533.723	24.61
534.152	24.69
534.58	24.78
535.008	24.85
535.436	24.92
535.865	24.99
536.293	25.03
536.721	25.08
537.149	25.14
537.576	25.19
538.004	25.24
538.432	25.3
538.86	25.33
539.287	25.36
539.715	25.4
540.143	25.41
540.57	25.44
540.998	25.49
541.425	25.52
541.852	25.54
542.28	25.56
542.707	25.56
543.134	25.58
543.561	25.62
543.988	25.65
544.415	25.67
544.842	25.7
545.269	25.72
545.696	25.75
546.123	25.76
546.549	25.8
546.976	25.83
547.403	25.86
547.829	25.87
548.256	25.88
548.682	25.89
549.108	25.93
549.535	25.95
549.961	25.95
550.387	25.95
550.813	25.96
551.24	25.95
551.666	25.94
552.092	25.96
552.518	25.95
552.943	25.95
553.369	25.94
553.795	25.91
554.221	25.85
554.646	25.81
555.072	25.78
555.498	25.72
555.923	25.65
556.349	25.61
556.774	25.55
557.199	25.48
557.625	25.41
558.05	25.34
558.475	25.29
558.9	25.22
559.325	25.16
559.75	25.09
560.175	25.04
560.6	24.96
561.025	24.86
561.449	24.77
561.874	24.68
562.299	24.59
562.723	24.48
563.148	24.35
563.572	24.22
563.997	24.1
564.421	23.97
564.846	23.83
565.27	23.71
565.694	23.59
566.118	23.45
566.542	23.31
566.966	23.17
567.39	23.03
567.814	22.9
568.238	22.76
568.662	22.62
569.086	22.49
569.509	22.35
569.933	22.23
570.357	22.08
570.78	21.95
571.204	21.82
571.627	21.7
572.05	21.56
572.474	21.46
572.897	21.36
573.32	21.23
573.743	21.1
574.166	20.99
574.589	20.87
575.012	20.75
575.435	20.64
575.858	20.52
576.281	20.41
576.704	20.32
577.126	20.2
577.549	20.1
577.972	20
578.394	19.91
578.817	19.83
579.239	19.76
579.661	19.68
580.084	19.61
580.506	19.54
580.928	19.46
581.35	19.38
581.772	19.31
582.194	19.24
582.616	19.18
583.038	19.11
583.46	19.02
583.882	18.94
584.303	18.87
584.725	18.79
585.147	18.74
585.568	18.67
585.99	18.61
586.411	18.55
586.833	18.48
587.254	18.42
587.675	18.36
588.096	18.3
588.518	18.25
588.939	18.23
589.36	18.16
589.781	18.09
590.202	18.05
590.623	18
591.043	17.95
591.464	17.92
591.885	17.86
592.305	17.82
592.726	17.79
593.147	17.75
593.567	17.7
593.987	17.68
594.408	17.64
594.828	17.59
595.248	17.55
595.669	17.52
596.089	17.48
596.509	17.45
596.929	17.41
597.349	17.37
597.769	17.33
598.189	17.29
598.608	17.26
599.028	17.23
599.448	17.19
599.867	17.15
600.287	17.11
600.706	17.08
601.126	17.04
601.545	17.01
601.965	16.98
602.384	16.92
602.803	16.87
603.222	16.81
603.641	16.76
604.061	16.71
604.48	16.64
604.898	16.58
605.317	16.51
605.736	16.45
606.155	16.38
606.574	16.31
606.992	16.25
607.411	16.18
607.829	16.09
608.248	16.02
608.666	15.94
609.085	15.88
609.503	15.82
609.921	15.75
610.339	15.67
610.758	15.6
611.176	15.51
611.594	15.44
612.012	15.36
612.43	15.31
612.847	15.23
613.265	15.16
613.683	15.08
614.101	15
614.518	14.92
614.936	14.85
615.353	14.77
615.771	14.71
616.188	14.63
616.606	14.58
617.023	14.52
617.44	14.47
617.857	14.41
618.274	14.35
618.691	14.31
619.108	14.26
619.525	14.21
619.942	14.17
620.359	14.12
620.776	14.09
621.192	14.05
621.609	14.01
622.026	13.98
622.442	13.96
622.859	13.94
623.275	13.91
623.691	13.89
624.108	13.87
624.524	13.85
624.94	13.84
625.356	13.82
625.772	13.8
626.188	13.8
626.604	13.79
627.02	13.78
627.436	13.76
627.852	13.75
628.268	13.74
628.683	13.72
629.099	13.71
629.514	13.69
629.93	13.68
630.345	13.66
630.761	13.61
631.176	13.58
631.591	13.54
632.007	13.5
632.422	13.45
632.837	13.4
633.252	13.34
633.667	13.26
634.082	13.2
634.497	13.13
634.911	13.04
635.326	12.97
635.741	12.87
636.155	12.76
636.57	12.67
636.984	12.56
637.399	12.44
637.813	12.33
638.228	12.21
638.642	12.08
639.056	11.94
639.47	11.82
639.884	11.69
640.298	11.56
640.712	11.43
641.126	11.29
641.54	11.15
641.954	11.02
642.368	10.89
642.781	10.77
643.195	10.65
643.609	10.53
644.022	10.4
644.436	10.28
644.849	10.16
645.262	10.05
645.676	9.95
646.089	9.85
646.502	9.76
646.915	9.68
647.328	9.6
647.741	9.52
648.154	9.45
648.567	9.4
648.98	9.34
649.393	9.29
649.805	9.24
650.218	9.2
650.631	9.16
651.043	9.12
651.456	9.07
651.868	9.03
652.28	8.98
652.693	8.94
653.105	8.88
653.517	8.83
653.929	8.76
654.341	8.71
654.753	8.63
655.165	8.55
655.577	8.48
655.989	8.41
656.401	8.32
656.813	8.24
657.224	8.14
657.636	8.05
658.047	7.96
658.459	7.86
658.87	7.76
659.282	7.66
659.693	7.56
660.104	7.45
660.515	7.35
660.926	7.26
661.338	7.16
661.749	7.07
662.159	6.97
662.57	6.89
662.981	6.81
663.392	6.72
663.803	6.65
664.213	6.56
664.624	6.5
665.035	6.43
665.445	6.37
665.855	6.3
666.266	6.25
666.676	6.21
667.086	6.15
667.497	6.1
667.907	6.07
668.317	6.03
668.727	6
669.137	5.98
669.547	5.95
669.956	5.93
670.366	5.91
670.776	5.89
671.186	5.87
671.595	5.86
672.005	5.86
672.414	5.87
672.824	5.87
673.233	5.87
673.642	5.88
674.052	5.89
674.461	5.89
674.87	5.92
675.279	5.94
675.688	5.97
676.097	6
676.506	6.04
676.915	6.07
677.323	6.11
677.732	6.15
678.141	6.2
678.549	6.25
678.958	6.31
679.366	6.39
679.775	6.45
680.183	6.54
680.592	6.64
681	6.75
681.408	6.87
681.816	7
682.224	7.16
682.632	7.32
683.04	7.5
683.448	7.69
683.856	7.88
684.264	8.11
684.671	8.35
685.079	8.61
685.487	8.91
685.894	9.22
686.302	9.56
686.709	9.91
687.116	10.3
687.524	10.71
687.931	11.13
688.338	11.6
688.745	12.07
689.152	12.56
689.559	13.06
689.966	13.58
690.373	14.11
690.78	14.66
691.187	15.2
691.593	15.76
692	16.33
692.407	16.89
692.813	17.46
693.22	18.03
693.626	18.59
694.032	19.17
694.439	19.73
694.845	20.3
695.251	20.84
695.657	21.39
696.063	21.93
696.469	22.47
696.875	23.01
697.281	23.53
697.687	24.05
698.093	24.58
698.498	25.09
698.904	25.6
699.31	26.07
699.715	26.56
700.12	27.03
700.526	27.5
700.931	27.95
701.337	28.38
701.742	28.79
702.147	29.21
702.552	29.61
702.957	29.98
703.362	30.35
703.767	30.71
704.172	31.06
704.577	31.41
704.981	31.75
705.386	32.08
705.791	32.41
706.195	32.76
706.6	33.1
707.004	33.39
707.408	33.71
707.813	34.02
708.217	34.33
708.621	34.63
709.025	34.91
709.43	35.18
709.834	35.48
710.237	35.75
710.641	36.01
711.045	36.26
711.449	36.52
711.853	36.77
712.256	37.02
712.66	37.26
713.064	37.47
713.467	37.7
713.87	37.93
714.274	38.14
714.677	38.35
715.08	38.53
715.484	38.75
715.887	38.97
716.29	39.16
716.693	39.35
717.096	39.54
717.499	39.73
717.901	39.92
718.304	40.11
718.707	40.28
719.109	40.47
719.512	40.64
719.915	40.79
720.317	40.92
720.719	41.04
721.122	41.19
721.524	41.35
721.926	41.49
722.328	41.65
722.731	41.75
723.133	41.89
723.535	41.99
723.937	42.13
724.338	42.24
724.74	42.37
725.142	42.59
725.544	42.69
725.945	42.8
726.347	42.88
726.748	42.96
727.15	43.05
727.551	43.14
727.952	43.23
728.354	43.31
728.755	43.38
729.156	43.44
729.557	43.43
729.958	43.47
730.359	43.51
730.76	43.59
731.161	43.63
731.562	43.71
731.962	43.75
732.363	43.82
732.763	43.86
733.164	43.91
733.564	43.99
733.965	44.03
734.365	44.12
734.766	44.17
735.166	44.23
735.566	44.28
735.966	44.34
736.366	44.38
736.766	44.41
737.166	44.47
737.566	44.49
737.966	44.5
738.365	44.55
738.765	44.56
739.165	44.58
739.564	44.61
739.964	44.66
740.363	44.64
740.763	44.66
741.162	44.68
741.561	44.69
741.96	44.68
742.36	44.71
742.759	44.74
743.158	44.77
743.557	44.78
743.955	44.79
744.354	44.81
744.753	44.86
745.152	44.9
745.55	44.91
745.949	44.92
746.348	44.97
746.746	44.99
747.144	45
747.543	44.99
747.941	45
748.339	45.01
748.737	44.99
749.136	44.99
749.534	44.98
749.932	44.99
750.33	44.99
750.727	45
751.125	44.99
751.523	44.96
751.921	44.96
752.318	44.95
752.716	44.95
753.113	44.97
753.511	44.98
753.908	45
754.305	45
754.703	45.02
755.1	45.03
755.497	45.04
755.894	45.06
756.291	45.08
756.688	45.07
757.085	45.07
757.482	45.06
757.878	45.08
758.275	45.07
758.672	45.07
759.068	45.08
759.465	45.07
759.861	45.08
760.258	45.09
760.654	45.09
761.05	45.12
761.447	45.13
761.843	45.13
762.239	45.13
762.635	45.12
763.031	45.12
763.427	45.1
763.822	45.1
764.218	45.11
764.614	45.13
765.01	45.11
765.405	45.1
765.801	45.08
766.196	45.09
766.592	45.07
766.987	45.07
767.382	45.07
767.778	45.07
768.173	45.08
768.568	45.04
768.963	45.02
769.358	45.04
769.753	45.06
770.148	45.09
770.542	45.08
770.937	45.1
771.332	45.1
771.726	45.1
772.121	45.11
772.515	45.1
772.91	45.14
773.304	45.16
773.699	45.14
774.093	45.11
774.487	45.09
774.881	45.1
775.275	45.09
775.669	45.1
776.063	45.08
776.457	45.09
776.851	45.08
777.245	45.05
777.638	45.04
778.032	45.07
778.425	45.11
778.819	45.1
779.212	45.08
779.606	45.07
779.999	45.04
780.392	45.09
780.786	45.07
781.179	45.08
781.572	45.12
781.965	45.13
782.358	45.12
782.751	45.11
783.143	45.12
783.536	45.14
783.929	45.15
784.322	45.2
784.714	45.18
785.107	45.21
785.499	45.21
785.891	45.2
786.284	45.21
786.676	45.22
787.068	45.22
787.46	45.23
787.852	45.22
788.245	45.23
788.636	45.19
789.028	45.21
789.42	45.18
789.812	45.2
790.204	45.19
790.595	45.19
790.987	45.19
791.378	45.21
791.77	45.22
792.161	45.22
792.553	45.22
792.944	45.24
793.335	45.24
793.726	45.24
794.117	45.2
794.508	45.2
794.899	45.16
795.29	45.19
795.681	45.16
796.072	45.14
796.463	45.18
796.853	45.17
797.244	45.19
797.634	45.19
798.025	45.23
798.415	45.26
798.806	45.28
799.196	45.3
799.586	45.27
799.976	45.31
800.366	45.34
800.756	45.3
801.146	45.32
801.536	45.32
801.926	45.29
802.316	45.31
802.706	45.32
803.095	45.33
803.485	45.34
803.874	45.35
804.264	45.33
804.653	45.34
805.043	45.36
805.432	45.36
805.821	45.35
806.21	45.38
806.599	45.36
806.988	45.36
807.377	45.37
807.766	45.4
808.155	45.36
808.544	45.37
808.933	45.38
809.321	45.38
809.71	45.37
810.098	45.39
810.487	45.34
810.875	45.33
811.264	45.33
811.652	45.33
812.04	45.28
812.428	45.34
812.816	45.32
813.204	45.3
813.592	45.3
813.98	45.34
814.368	45.33
814.756	45.35
815.144	45.36
815.531	45.34
815.919	45.32
816.306	45.32
816.694	45.3
817.081	45.3
817.469	45.32
817.856	45.32
818.243	45.3
818.63	45.28
819.017	45.31
819.404	45.3
819.791	45.31
820.178	45.3
820.565	45.3
820.952	45.29
821.339	45.3
821.725	45.28
822.112	45.3
822.498	45.31
822.885	45.33
823.271	45.32
823.657	45.29
824.044	45.31
824.43	45.32
824.816	45.34
825.202	45.34
825.588	45.33
825.974	45.34
826.36	45.34
826.746	45.31
827.132	45.32
827.517	45.31
827.903	45.35
828.289	45.37
828.674	45.37
829.06	45.36
829.445	45.35
829.83	45.34
830.216	45.32
830.601	45.33
830.986	45.33
831.371	45.31
831.756	45.32
832.141	45.29
832.526	45.26
832.911	45.26
833.295	45.24
833.68	45.28
834.065	45.29
834.449	45.3
834.834	45.29
835.218	45.3
835.603	45.31
835.987	45.3
836.371	45.32
836.755	45.31
837.139	45.28
837.524	45.29
837.908	45.28
838.291	45.29
838.675	45.29
839.059	45.27
839.443	45.25
839.827	45.24
840.21	45.24
840.594	45.24
840.977	45.23
841.361	45.25
841.744	45.23
842.127	45.23
842.511	45.21
842.894	45.18
843.277	45.19
843.66	45.19
844.043	45.19
844.426	45.19
844.809	45.18
845.191	45.21
845.574	45.22
845.957	45.25
846.339	45.23
846.722	45.23
847.104	45.24
847.487	45.21
847.869	45.22
848.252	45.22
848.634	45.21
849.016	45.24
849.398	45.23
849.78	45.23
850.162	45.2
850.544	45.2
850.926	45.2
851.307	45.2
851.689	45.21
852.071	45.21
852.452	45.21
852.834	45.23
853.215	45.22
853.597	45.21
853.978	45.24
854.359	45.26
854.741	45.27
855.122	45.27
855.503	45.28
855.884	45.27
856.265	45.26
856.646	45.25
857.026	45.24
857.407	45.24
857.788	45.23
858.169	45.23
858.549	45.25
858.93	45.23
859.31	45.23
859.69	45.24
860.071	45.28
860.451	45.29
860.831	45.32
861.211	45.31
861.591	45.29
861.971	45.31
862.351	45.3
862.731	45.28
863.111	45.29
863.491	45.31
863.87	45.31
864.25	45.28
864.629	45.31
865.009	45.29
865.388	45.26
865.768	45.29
866.147	45.29
866.526	45.27
866.905	45.28
867.284	45.31
867.663	45.3
868.042	45.28
868.421	45.3
868.8	45.28
869.179	45.3
869.558	45.32
869.936	45.31
870.315	45.31
870.693	45.31
871.072	45.3
871.45	45.29
871.828	45.3
872.207	45.3
872.585	45.29
872.963	45.3
873.341	45.29
873.719	45.28
874.097	45.27
874.475	45.27
874.853	45.29
875.23	45.31
875.608	45.3
875.986	45.32
876.363	45.32
876.741	45.34
877.118	45.35
877.495	45.35
877.873	45.38
878.25	45.41
878.627	45.41
879.004	45.42
879.381	45.42
879.758	45.39
880.135	45.38
880.512	45.39
880.889	45.38
881.265	45.35
881.642	45.36
882.019	45.36
882.395	45.34
882.772	45.33
883.148	45.3
883.524	45.28
883.901	45.31
884.277	45.28
884.653	45.27
885.029	45.28
885.405	45.29
885.781	45.27
886.157	45.28
886.532	45.29
886.908	45.28
887.284	45.27
887.659	45.25
888.035	45.24
888.411	45.23
888.786	45.24
889.161	45.21
889.537	45.21
889.912	45.21
890.287	45.18
890.662	45.17
891.037	45.17
891.412	45.15
891.787	45.16
892.162	45.17
892.536	45.17
892.911	45.15
893.286	45.14
893.66	45.14
894.035	45.16
894.409	45.17
894.784	45.19
895.158	45.2
895.532	45.24
895.906	45.25
896.281	45.25
896.655	45.25
897.029	45.26
897.402	45.28
897.776	45.28
898.15	45.25
898.524	45.25
898.898	45.22
899.271	45.21
899.645	45.21
900.018	45.22
900.392	45.23
900.765	45.26
901.138	45.25
901.511	45.25
901.884	45.26
902.258	45.28
902.631	45.3
903.003	45.32
903.376	45.33
903.749	45.33
904.122	45.34
904.495	45.35
904.867	45.31
905.24	45.33
905.612	45.36
905.985	45.35
906.357	45.32
906.729	45.36
907.102	45.35
907.474	45.35
907.846	45.34
908.218	45.32
908.59	45.32
908.962	45.35
909.334	45.35
909.705	45.34
910.077	45.36
910.449	45.36
910.82	45.33
911.192	45.34
911.563	45.33
911.935	45.32
912.306	45.32
912.677	45.32
913.048	45.33
913.419	45.34
913.79	45.32
914.161	45.33
914.532	45.35
914.903	45.33
915.274	45.31
915.645	45.33
916.015	45.38
916.386	45.4
916.756	45.4
917.127	45.41
917.497	45.41
917.868	45.41
918.238	45.38
918.608	45.37
918.978	45.39
919.348	45.43
919.718	45.39
920.088	45.35
920.458	45.33
920.828	45.33
921.198	45.27
921.567	45.25
921.937	45.26
922.306	45.25
922.676	45.26
923.045	45.25
923.415	45.23
923.784	45.26
924.153	45.3
924.522	45.34
924.891	45.33
925.26	45.33
925.629	45.34
925.998	45.33
926.367	45.35
926.736	45.35
927.104	45.34
927.473	45.31
927.842	45.27
928.21	45.25
928.578	45.19
928.947	45.22
929.315	45.22
929.683	45.22
930.051	45.24
930.42	45.22
930.788	45.21
931.156	45.23
931.523	45.24
931.891	45.27
932.259	45.29
932.627	45.28
932.994	45.26
933.362	45.23
933.729	45.25
934.097	45.2
934.464	45.21
934.831	45.2
935.199	45.21
935.566	45.21
935.933	45.18
936.3	45.12
936.667	45.14
937.034	45.16
937.401	45.22
937.767	45.2
938.134	45.26
938.501	45.26
938.867	45.3
939.234	45.24
939.6	45.26
939.967	45.32
940.333	45.39
940.699	45.44
941.065	45.36
941.431	45.39
941.798	45.36
942.163	45.35
942.529	45.36
942.895	45.32
943.261	45.34
943.627	45.29
943.992	45.26
944.358	45.21
944.723	45.21
945.089	45.17
945.454	45.14
945.82	45.13
946.185	45.1
946.55	44.99
946.915	44.99
947.28	45.01
947.645	45.03
948.01	44.99
948.375	44.95
948.74	44.87
949.104	44.92
949.469	44.89
949.834	44.86
950.198	44.88
950.562	44.91
950.927	44.9
951.291	44.76
951.655	44.68
952.02	44.71
952.384	44.69
952.748	44.66
953.112	44.65
953.476	44.62
953.839	44.56
954.203	44.54
954.567	44.52
954.931	44.47
955.294	44.53
955.658	44.6
956.021	44.59
956.385	44.58
956.748	44.58
957.111	44.53
957.474	44.52
957.837	44.55
958.2	44.54
958.563	44.51
958.926	44.57
959.289	44.58
959.652	44.56
960.015	44.54
960.377	44.58
960.74	44.63
961.102	44.66
961.465	44.73
961.827	44.8
962.189	44.82
962.552	44.84
962.914	44.82
963.276	44.84
963.638	44.85
964	44.85
964.362	44.85
964.724	44.81
965.085	44.78
965.447	44.74
965.809	44.68
966.17	44.64
966.532	44.63
966.893	44.64
967.255	44.6
967.616	44.59
967.977	44.57
968.338	44.54
968.699	44.53
969.061	44.52
969.421	44.56
969.782	44.58
970.143	44.58
970.504	44.58
970.865	44.6
971.225	44.62
971.586	44.61
971.946	44.64
972.307	44.65
972.667	44.62
973.027	44.66
973.388	44.68
973.748	44.65
974.108	44.75
974.468	44.73
974.828	44.77
975.188	44.76
975.548	44.78
975.907	44.83
976.267	44.8
976.627	44.89
976.986	44.87
977.346	44.82
977.705	44.82
978.064	44.74
978.424	44.81
978.783	44.71
979.142	44.75
979.501	44.78
979.86	44.79
980.219	44.84
980.578	44.81
980.937	44.84
981.296	44.87
981.654	44.93
982.013	44.93
982.371	44.92
982.73	44.97
983.088	44.93
983.447	44.89
983.805	44.85
984.163	44.82
984.521	44.87
984.879	44.85
985.237	44.89
985.595	44.87
985.953	44.94
986.311	44.92
986.669	44.91
987.026	44.92
987.384	44.96
987.741	44.91
988.099	44.98
988.456	44.95
988.814	44.95
989.171	44.86
989.528	44.9
989.885	44.84
990.242	44.8
990.599	44.86
990.956	44.89
991.313	44.89
991.67	44.98
992.027	45.06
992.383	45.08
992.74	45.19
993.096	45.22
993.453	45.16
993.809	45.19
994.165	45.27
994.522	45.36
994.878	45.36
995.234	45.38
995.59	45.37
995.946	45.3
996.302	45.28
996.658	45.23
997.013	45.27
997.369	45.3
997.725	45.32
998.08	45.34
998.436	45.21
998.791	45.27
999.147	45.28
999.502	45.34
999.857	45.33
1000.212	45.39
1000.567	45.44
1000.922	45.36
1001.277	45.48
1001.632	45.43
1001.987	45.52
1002.342	45.58
1002.696	45.53
1003.051	45.61
1003.406	45.72
1003.76	45.75
1004.114	45.75
1004.469	45.71
1004.823	45.97
1005.177	45.87
1005.531	45.98
1005.885	45.91
1006.239	45.96
1006.593	46.07
1006.947	46.07
1007.301	45.87
1007.655	45.94
1008.008	45.99
1008.362	46.12
1008.715	46.04
1009.069	46.25
1009.422	46.24
1009.776	46.16
1010.129	46.22
1010.482	46.17
1010.835	46.14
1011.188	46.24
1011.541	46.12
1011.894	46.13
1012.247	46.18
1012.6	46.2
1012.952	46.05
1013.305	46.23
1013.657	46.45
1014.01	46.54
1014.362	46.54
1014.715	46.61
1015.067	46.68
1015.419	46.96
1015.771	46.99
1016.123	46.95
1016.475	47
1016.827	47.15
1017.179	47.14
1017.531	47.02
1017.883	46.88
1018.234	47.15
1018.586	47.19
1018.938	47.22
1019.289	47.05
1019.64	47.22
1019.992	47.15
1020.343	47.14
1020.694	47.16
1021.045	47.15
1021.396	47.38
1021.747	47.55
1022.098	47.48
1022.449	47.51
1022.8	47.76
1023.151	47.86
1023.501	47.92
1023.852	48.14
1024.202	48.12
1024.553	47.98
1024.903	47.89
1025.253	47.86
1025.604	47.88
1025.954	47.59
1026.304	47.62
1026.654	47.5
1027.004	47.46
1027.354	47.28
1027.703	47.01
1028.053	47.09
1028.403	47.4
1028.753	47.32
1029.102	47.47
1029.452	47.56
1029.801	48.04
1030.15	48.13
1030.499	47.99
897.758	1367.39
901.051	1376.19
904.343	1371.07
907.636	1394.68
910.928	1358.16
914.22	1357.05
917.511	1339.89
920.803	1280.09
924.094	1274.56
927.384	1239.01
930.675	1194.14
933.965	1188.98
937.255	1117.42
940.544	1073.75
943.834	1020.14
947.123	1012.31
950.411	951.66
953.7	932.82
956.988	880.1
960.276	844.14
963.563	834.74
966.851	802.86
970.138	795.19
973.424	770.62
976.711	773.97
979.997	739.32
983.283	733.23
986.568	718.34
989.853	695.42
993.138	686.27
996.423	658.88
999.708	637.89
1002.992	630.99
1006.275	602.52
1009.559	597.56
1012.842	575.63
1016.125	558.4
1019.408	546.85
1022.69	540.12
1025.972	529.88
1029.254	515.96
1032.536	507.78
1035.817	496.6
1039.098	490.09
1042.379	479.57
1045.659	474.35
1048.939	462.67
1052.219	452.64
1055.498	447.78
1058.778	436.39
1062.057	425.71
1065.335	421.14
1068.614	416.8
1071.892	411.42
1075.17	397.64
1078.447	390.85
1081.724	387.54
1085.001	384.79
1088.278	377.38
1091.554	368.46
1094.83	369.8
1098.106	367.51
1101.382	363.44
1104.657	360.64
1107.932	355.42
1111.206	358.04
1114.481	349.15
1117.755	345.03
1121.029	341.92
1124.302	341.3
1127.575	334.97
1130.848	330.4
1134.121	327.01
1137.393	325.63
1140.665	317.58
1143.937	315.6
1147.208	313.78
1150.48	312.8
1153.75	309.19
1157.021	305.51
1160.291	305.98
1163.561	302.43
1166.831	302.51
1170.101	300.01
1173.37	299.25
1176.639	300.67
1179.907	297.45
1183.176	293.34
1186.444	293.25
1189.711	292.7
1192.979	291.15
1196.246	289.17
1199.513	290.66
1202.78	288.61
1206.046	288.5
1209.312	285.31
1212.578	285.83
1215.843	289.16
1219.108	288.22
1222.373	293.86
1225.638	295.67
1228.902	300.7
1232.166	300.55
1235.43	302.94
1238.693	306.62
1241.956	308.61
1245.219	314.22
1248.482	313.43
1251.744	312.74
1255.006	313.48
1258.268	305.08
1261.529	302.55
1264.79	299.9
1268.051	298.26
1271.312	295.06
1274.572	290.57
1277.832	287.79
1281.092	283.03
1284.351	280.94
1287.61	280.72
1290.869	276.49
1294.128	275.25
1297.386	275.44
1300.644	271.85
1303.902	272.61
1307.159	271.95
1310.416	272.54
1313.673	271.99
1316.93	274.52
1320.186	275.16
1323.442	276.13
1326.697	281.24
1329.953	282.23
1333.208	283.1
1336.463	286.96
1339.717	287.68
1342.972	290.09
1346.226	293.16
1349.479	293.48
1352.733	295.04
1355.986	296.46
1359.238	296.28
1362.491	297.67
1365.743	301.01
1368.995	301.21
1372.247	299.06
1375.498	299.18
1378.749	301.98
1382	298.29
1385.251	299.53
1388.501	298.55
1391.751	298.98
1395	297.9
1398.25	295.3
1401.499	293.47
1404.748	293.16
1407.996	292.19
1411.244	290.72
1414.492	288.84
1417.74	287.01
1420.987	282.6
1424.234	281.83
1427.481	278.65
1430.728	278.22
1433.974	275.76
1437.22	273.91
1440.465	272.85
1443.711	271.19
1446.956	269.23
1450.201	265.9
1453.445	263.42
1456.689	262.64
1459.933	257.62
1463.177	256
1466.42	251.74
1469.663	248.68
1472.906	246.57
1476.148	239.89
1479.391	237.41
1482.633	235.25
1485.874	231.79
1489.115	230.01
1492.356	227.9
1495.597	227.62
1498.838	223.34
1502.078	222.4
1505.318	221.31
1508.557	221.27
1511.797	221.52
1515.036	219.23
1518.274	218.69
1521.513	216.53
1524.751	216.29
1527.989	215.19
1531.227	214.06
1534.464	214.97
1537.701	212.85
1540.938	212.55
1544.174	209.59
1547.41	208.84
1550.646	208.26
1553.882	207.75
1557.117	205.37
1560.352	204.46
1563.587	203.21
1566.821	202.01
1570.055	199.75
1573.289	198.64
1576.523	198
1579.756	196.79
1582.989	196.21
1586.222	195.56
1589.454	194.44
1592.686	196.09
1595.918	194.51
1599.15	194.36
1602.381	194.42
1605.612	194.45
1608.843	195.09
1612.073	195
1615.303	196.06
1618.533	195.51
1621.762	194.93
1624.992	195.67
1628.221	195.24
1631.449	195.11
1634.678	194.27
1637.906	195.19
1641.134	195.1
1644.361	194.6
1647.588	195.41
1650.815	194.23
1654.042	193.86
1657.269	195.44
1660.495	195
1663.72	193.71
1666.946	195.1
1670.171	195.82
1673.396	195.73
1676.621	195.92
1679.845	196.61
1683.069	195.8
1686.293	197.45
1689.517	198.52
1692.74	198.05
1695.963	198.75
1699.185	201.55
1702.408	200.85
1705.63	202.02
1708.852	202.06
1712.073	202.46
1715.294	202.48
1718.515	204.38
1721.736	203.71
1724.956	204.51
1728.176	204.69
1731.396	206.64
1734.616	205.39
1737.835	206.7
1741.054	205.39
1744.272	206.26
1747.491	208.14
1750.709	208.34
1753.927	208.23
1757.144	207.54
1760.361	208.3
1763.578	208.99
1766.795	207.88
1770.011	209.86
1773.227	209.28
1776.443	211.75
1779.658	212.6
1782.874	212.27
1786.089	212.76
1789.303	213.22
1792.518	216.77
1795.732	216.5
1798.945	218.46
1802.159	218.83
1805.372	219.33
1808.585	223.39
1811.797	224.07
1815.01	224.14
1818.222	225.84
1821.434	227.9
1824.645	228.99
1827.856	231.88
1831.067	233.88
1834.278	232.98
1837.488	235.76
1840.698	236.96
1843.908	234.94
1847.117	236.3
1850.326	238.19
1853.535	237.12
1856.744	241.38
1859.952	240.82
1863.16	239.45
1866.368	237.62
1869.575	241.73
1872.782	236.67
1875.989	236.74
1879.196	235.88
1882.402	234.21
1885.608	235.23
1888.814	236.4
1892.019	234.68
1895.224	234.31
1898.429	233.32
1901.634	235.67
1904.838	234.4
1908.042	237.97
1911.246	238.62
1914.449	240.42
1917.652	240.53
1920.855	240.45
1924.058	240.24
1927.26	239.68
1930.462	240.54
1933.664	243.36
1936.865	240.86
1940.066	241.44
1943.267	239.57
1946.467	238.86
1949.668	240.8
1952.868	243.56
1956.067	242.98
1959.267	243.62
1962.466	244.3
1965.665	243.44
1968.863	243.86
1972.061	247.79
1975.259	249.83
1978.457	252.2
1981.654	254.58
1984.852	254.72
1988.048	254
1991.245	256.63
1994.441	259.17
1997.637	261.06
2000.833	266.38
2004.028	269.56
2007.223	270.17
2010.418	272.47
2013.613	277.64
2016.807	280.5
2020.001	282.59
2023.194	286.86
2026.388	293.06
2029.581	299.98
2032.774	302.75
2035.966	307.6
2039.158	308.12
2042.35	314.95
2045.542	317.15
2048.733	322.3
2051.924	326.81
2055.115	331.77
2058.306	332.7
2061.496	335.83
2064.686	335.8
2067.875	340.93
2071.065	343.31
2074.254	342.28
2077.442	345.38
2080.631	346.56
2083.819	348.97
2087.007	349.29
2090.195	353.83
2093.382	356.77
2096.569	354.76
2099.756	359
2102.942	360.61
2106.128	363.77
2109.314	372.23
2112.5	371.48
2115.685	380
2118.87	380.24
2122.055	387.97
2125.239	391.23
2128.424	395.7
2131.608	399.6
2134.791	406.03
2137.974	407.99
2141.157	408.54
2144.34	409.37
2147.523	415.74
2150.705	412.73
2153.887	417.12
2157.068	418.16
2160.25	413.57
2163.431	416.89
2166.611	420.57
2169.792	429.14
2172.972	432.95
2176.152	435.53
2179.331	440.92
2182.511	448.35
2185.69	453.45
2188.868	462.22
2192.047	462.41
2195.225	476.63
2198.403	488.16
2201.58	498.58
2204.758	505.1
2207.935	516.06
2211.111	525.21
2214.288	532.03
2217.464	533.17
2220.64	541.22
2223.815	548.61
2226.991	572.31
2230.166	573.31
2233.34	582.86
2236.515	589.67
2239.689	591.42
2242.863	594.76
2246.036	612.57
2249.209	608.16
2252.382	619.89
2255.555	638.17
2258.727	640.9
2261.9	643.99
2265.071	651.14
2268.243	659.78
2271.414	668.94
2274.585	685.75
2277.756	692.26
2280.926	697.46
2284.096	712.74
2287.266	728.51
2290.436	733.67
2293.605	751.36
2296.774	773.68
2299.942	795.44
2303.111	802.56
2306.279	822.03
2309.447	832.95
2312.614	854.42
2315.781	876.23
2318.948	919.53
2322.115	903.55
2325.281	953.49
2328.447	932.63
2331.613	972.09
2334.779	963.21
2337.944	1004.09
2341.109	1013.17
2344.274	1037.63
2347.438	1076.97
2350.602	1078.48
2353.766	1108.6
2356.929	1126.09
2360.092	1120.63
2363.255	1201.49
2366.418	1196.59
2369.58	1222.25
2372.742	1298.18
2375.904	1329.52
2379.066	1323.63
2382.227	1297.95
2385.388	1410.92
2388.548	1410.82
2391.709	1425.04
2394.869	1586.73
2398.029	1518.32
2401.188	1562.48
2404.347	1550.42
2407.506	1522.7
2410.665	1563.94
2413.823	1664.12
2416.981	1760.27
2420.139	1698.77
2423.296	1680.57
2426.453	1757.38
2429.61	1691.34
2432.767	1768.33
2435.923	1748.92
2439.079	1917.6
2442.235	1941.13
2445.391	1929.52
2448.546	1910.24
2451.701	1857.83
2454.855	1855.79
2458.009	1971.33
2461.163	2052.58
2464.317	2122.71
2467.471	2179.93
2470.624	2179.71
2473.777	2123.77
2476.929	2071.21
2480.082	2009.51
2483.234	1988.44
2486.385	2084.93
2489.537	2096.65
2492.688	2175.28
2495.839	2114.39
2498.989	2072.29
2502.14	2084.96
2505.29	2108.33
2508.439	2128.55
2511.589	2124.17
2514.738	2321.5
2517.887	2268.92
2521.035	2399.4
2524.183	2421.66
2527.331	2437.69
2530.479	2427.53
2533.627	2443.14
