Data from C_2_DIV_OH_2N_Splice17_13-25-39-641.txt Node
Date: Sat Mar 07 13:25:39 EST 2020
User: sa697716
Spectrometer: NQ5500242
Trigger mode: 0
Integration Time (sec): 1.450000E-1
Scans to average: 20
Nonlinearity correction enabled: false
Boxcar width: 5
Storing dark spectrum: false
XAxis mode: Wavelengths
Number of Pixels in Spectrum: 512
>>>>>Begin Spectral Data<<<<<
187.83	102.16
188.298	123.97
188.766	92.74
189.233	84.21
189.701	88.04
190.169	89.39
190.636	50.32
191.104	-2.02
191.571	-314.43
192.039	-87.87
192.506	23.45
192.974	60.99
193.441	187.31
193.908	23.05
194.375	23.46
194.842	15.55
195.31	-11.26
195.777	-135.09
196.244	39.94
196.711	42.45
197.177	44.39
197.644	44.93
198.111	44.76
198.578	45.27
199.045	46.05
199.511	46.79
199.978	46.31
200.445	46.47
200.911	46.57
201.378	46.66
201.844	46.72
202.31	46.48
202.777	46.51
203.243	46.55
203.709	46.1
204.176	45.77
204.642	45.22
205.108	45.52
205.574	45.41
206.04	44.79
206.506	44.39
206.972	44.22
207.438	44.23
207.903	43.75
208.369	42.95
208.835	42.48
209.301	41.71
209.766	40.55
210.232	39.67
210.697	38.7
211.163	38.1
211.628	37.45
212.094	36.74
212.559	36.06
213.024	35.33
213.49	34.94
213.955	34.36
214.42	33.71
214.885	33.2
215.35	32.3
215.815	31.32
216.28	29.89
216.745	28.17
217.21	26.48
217.675	24.94
218.14	23.61
218.604	22.36
219.069	21.36
219.534	20.56
219.998	19.84
220.463	19.27
220.927	18.68
221.392	18.27
221.856	17.91
222.32	17.59
222.785	17.32
223.249	17.04
223.713	16.8
224.177	16.6
224.642	16.36
225.106	16.13
225.57	15.86
226.034	15.67
226.497	15.46
226.961	15.25
227.425	15.04
227.889	14.85
228.353	14.65
228.816	14.45
229.28	14.22
229.744	14.03
230.207	13.83
230.671	13.65
231.134	13.46
231.597	13.29
232.061	13.12
232.524	12.96
232.987	12.79
233.45	12.66
233.914	12.51
234.377	12.37
234.84	12.22
235.303	12.11
235.766	11.99
236.229	11.88
236.691	11.76
237.154	11.64
237.617	11.53
238.08	11.41
238.542	11.29
239.005	11.19
239.468	11.08
239.93	10.98
240.393	10.88
240.855	10.77
241.317	10.66
241.78	10.55
242.242	10.44
242.704	10.35
243.166	10.25
243.629	10.16
244.091	10.05
244.553	9.96
245.015	9.86
245.477	9.76
245.939	9.67
246.4	9.57
246.862	9.49
247.324	9.4
247.786	9.3
248.247	9.21
248.709	9.11
249.17	9.01
249.632	8.94
250.093	8.87
250.555	8.79
251.016	8.71
251.477	8.64
251.939	8.58
252.4	8.51
252.861	8.45
253.322	8.39
253.783	8.33
254.244	8.28
254.705	8.22
255.166	8.15
255.627	8.09
256.088	8.04
256.549	7.98
257.009	7.91
257.47	7.86
257.931	7.8
258.391	7.73
258.852	7.68
259.312	7.62
259.773	7.56
260.233	7.51
260.694	7.46
261.154	7.39
261.614	7.34
262.074	7.29
262.534	7.24
262.994	7.2
263.455	7.16
263.915	7.12
264.374	7.07
264.834	7.04
265.294	7
265.754	6.96
266.214	6.93
266.673	6.9
267.133	6.88
267.593	6.85
268.052	6.82
268.512	6.8
268.971	6.77
269.431	6.75
269.89	6.72
270.349	6.71
270.809	6.68
271.268	6.66
271.727	6.63
272.186	6.61
272.645	6.6
273.104	6.57
273.563	6.54
274.022	6.52
274.481	6.5
274.94	6.48
275.399	6.45
275.857	6.43
276.316	6.41
276.775	6.39
277.233	6.37
277.692	6.34
278.15	6.32
278.609	6.3
279.067	6.29
279.525	6.26
279.984	6.24
280.442	6.22
280.9	6.2
281.358	6.18
281.816	6.17
282.274	6.15
282.732	6.13
283.19	6.1
283.648	6.08
284.106	6.05
284.564	6.03
285.021	6.01
285.479	6
285.937	5.97
286.394	5.95
286.852	5.91
287.309	5.89
287.767	5.86
288.224	5.84
288.682	5.81
289.139	5.78
289.596	5.75
290.053	5.72
290.511	5.69
290.968	5.66
291.425	5.63
291.882	5.61
292.339	5.58
292.796	5.56
293.252	5.53
293.709	5.51
294.166	5.5
294.623	5.48
295.079	5.46
295.536	5.44
295.992	5.43
296.449	5.42
296.905	5.4
297.362	5.38
297.818	5.36
298.274	5.35
298.731	5.33
299.187	5.3
299.643	5.29
300.099	5.28
300.555	5.26
301.011	5.23
301.467	5.22
301.923	5.2
302.379	5.19
302.835	5.18
303.291	5.16
303.746	5.14
304.202	5.14
304.658	5.12
305.113	5.11
305.569	5.1
306.024	5.09
306.479	5.07
306.935	5.05
307.39	5.04
307.845	5.03
308.301	5.03
308.756	5.02
309.211	5.01
309.666	5
310.121	4.99
310.576	4.98
311.031	4.97
311.486	4.97
311.94	4.96
312.395	4.96
312.85	4.95
313.305	4.94
313.759	4.93
314.214	4.92
314.668	4.9
315.123	4.89
315.577	4.88
316.032	4.88
316.486	4.86
316.94	4.84
317.394	4.82
317.849	4.8
318.303	4.78
318.757	4.76
319.211	4.74
319.665	4.72
320.119	4.7
320.572	4.69
321.026	4.67
321.48	4.65
321.934	4.63
322.387	4.62
322.841	4.61
323.295	4.6
323.748	4.59
324.202	4.58
324.655	4.57
325.108	4.57
325.562	4.56
326.015	4.55
326.468	4.55
326.921	4.54
327.374	4.53
327.827	4.53
328.28	4.51
328.733	4.5
329.186	4.49
329.639	4.48
330.092	4.46
330.545	4.45
330.997	4.44
331.45	4.43
331.903	4.44
332.355	4.44
332.808	4.43
333.26	4.43
333.713	4.43
334.165	4.42
334.617	4.43
335.069	4.42
335.522	4.43
335.974	4.43
336.426	4.42
336.878	4.41
337.33	4.4
337.782	4.39
338.234	4.4
338.686	4.39
339.137	4.39
339.589	4.37
340.041	4.36
340.493	4.34
340.944	4.32
341.396	4.3
341.847	4.28
342.299	4.27
342.75	4.25
343.201	4.22
343.653	4.21
344.104	4.19
344.555	4.17
345.006	4.16
345.457	4.14
345.908	4.13
346.359	4.12
346.81	4.12
347.261	4.11
347.712	4.11
348.163	4.09
348.613	4.09
349.064	4.09
349.515	4.08
349.965	4.08
350.416	4.08
350.866	4.08
351.317	4.07
351.767	4.06
352.217	4.06
352.668	4.06
353.118	4.07
353.568	4.06
354.018	4.06
354.468	4.06
354.918	4.05
355.368	4.05
355.818	4.05
356.268	4.04
356.718	4.04
357.168	4.03
357.617	4.01
358.067	3.99
358.517	4
358.966	4.01
359.416	4.01
359.865	4.01
360.315	4
360.764	4
361.213	4
361.663	3.99
362.112	4
362.561	4
363.01	4
363.459	3.98
363.908	3.96
364.357	3.95
364.806	3.94
365.255	3.93
365.703	3.93
366.152	3.92
366.601	3.92
367.05	3.91
367.498	3.9
367.947	3.89
368.395	3.89
368.844	3.9
369.292	3.89
369.74	3.89
370.189	3.88
370.637	3.87
371.085	3.85
371.533	3.85
371.981	3.84
372.429	3.84
372.877	3.83
373.325	3.83
373.773	3.82
374.221	3.82
374.669	3.81
375.116	3.79
375.564	3.79
376.012	3.79
376.459	3.79
376.907	3.79
377.354	3.79
377.801	3.79
378.249	3.78
378.696	3.77
379.143	3.76
379.591	3.77
380.038	3.77
380.485	3.77
380.932	3.77
381.379	3.76
381.826	3.75
382.273	3.74
382.72	3.73
383.166	3.72
383.613	3.72
384.06	3.71
384.506	3.69
384.953	3.68
385.4	3.68
385.846	3.68
386.292	3.66
386.739	3.66
387.185	3.64
387.631	3.64
388.078	3.64
388.524	3.63
388.97	3.63
389.416	3.64
389.862	3.64
390.308	3.65
390.754	3.65
391.2	3.66
391.645	3.66
392.091	3.69
392.537	3.69
392.983	3.69
393.428	3.7
393.874	3.7
394.319	3.7
394.765	3.69
395.21	3.68
395.655	3.67
396.101	3.68
396.546	3.68
396.991	3.69
397.436	3.7
397.881	3.72
398.326	3.73
398.771	3.74
399.216	3.74
399.661	3.76
400.106	3.77
400.551	3.78
400.995	3.78
401.44	3.79
401.885	3.79
402.329	3.79
402.774	3.8
403.218	3.82
403.663	3.84
404.107	3.86
404.551	3.86
404.995	3.87
405.44	3.87
405.884	3.88
406.328	3.89
406.772	3.9
407.216	3.91
407.66	3.9
408.104	3.89
408.547	3.89
408.991	3.89
409.435	3.9
409.879	3.91
410.322	3.92
410.766	3.94
411.209	3.96
411.653	3.97
412.096	3.98
412.54	4
412.983	4.02
413.426	4.05
413.869	4.07
414.312	4.11
414.756	4.11
415.199	4.12
415.642	4.12
416.085	4.13
416.527	4.13
416.97	4.12
417.413	4.12
417.856	4.13
418.298	4.12
418.741	4.12
419.184	4.1
419.626	4.11
420.069	4.12
420.511	4.13
420.953	4.12
421.396	4.13
421.838	4.15
422.28	4.16
422.722	4.18
423.164	4.18
423.606	4.17
424.048	4.19
424.49	4.2
424.932	4.18
425.374	4.16
425.816	4.15
426.258	4.14
426.699	4.13
427.141	4.14
427.582	4.12
428.024	4.14
428.465	4.15
428.907	4.14
429.348	4.13
429.789	4.14
430.231	4.18
430.672	4.21
431.113	4.23
431.554	4.24
431.995	4.23
432.436	4.25
432.877	4.26
433.318	4.27
433.759	4.3
434.2	4.32
434.64	4.35
435.081	4.34
435.522	4.35
435.962	4.36
436.403	4.38
436.843	4.4
437.284	4.39
437.724	4.38
438.164	4.38
438.604	4.39
439.045	4.4
439.485	4.38
439.925	4.39
440.365	4.39
440.805	4.4
441.245	4.4
441.685	4.42
442.125	4.44
442.564	4.46
443.004	4.45
443.444	4.46
443.883	4.48
444.323	4.48
444.762	4.49
445.202	4.5
445.641	4.52
446.081	4.53
446.52	4.53
446.959	4.55
447.398	4.56
447.837	4.57
448.276	4.57
448.716	4.57
449.154	4.6
449.593	4.59
450.032	4.6
450.471	4.59
450.91	4.58
451.349	4.6
451.787	4.59
452.226	4.58
452.664	4.6
453.103	4.6
453.541	4.6
453.98	4.59
454.418	4.58
454.856	4.58
455.295	4.57
455.733	4.55
456.171	4.54
456.609	4.53
457.047	4.52
457.485	4.49
457.923	4.48
458.361	4.47
458.798	4.47
459.236	4.47
459.674	4.47
460.111	4.46
460.549	4.48
460.987	4.47
461.424	4.48
461.862	4.48
462.299	4.49
462.736	4.5
463.173	4.5
463.611	4.5
464.048	4.5
464.485	4.51
464.922	4.52
465.359	4.53
465.796	4.54
466.233	4.53
466.67	4.54
467.106	4.56
467.543	4.55
467.98	4.54
468.416	4.53
468.853	4.53
469.29	4.52
469.726	4.51
470.162	4.49
470.599	4.46
471.035	4.46
471.471	4.45
471.907	4.43
472.344	4.43
472.78	4.44
473.216	4.42
473.652	4.43
474.088	4.43
474.523	4.43
474.959	4.42
475.395	4.41
475.831	4.41
476.266	4.4
476.702	4.39
477.138	4.38
477.573	4.36
478.008	4.36
478.444	4.35
478.879	4.35
479.314	4.34
479.75	4.34
480.185	4.33
480.62	4.32
481.055	4.32
481.49	4.3
481.925	4.3
482.36	4.3
482.795	4.29
483.229	4.28
483.664	4.28
484.099	4.27
484.534	4.27
484.968	4.29
485.403	4.29
485.837	4.3
486.271	4.31
486.706	4.31
487.14	4.32
487.574	4.33
488.009	4.35
488.443	4.35
488.877	4.37
489.311	4.39
489.745	4.4
490.179	4.43
490.613	4.46
491.046	4.48
491.48	4.52
491.914	4.55
492.348	4.59
492.781	4.64
493.215	4.68
493.648	4.72
494.082	4.76
494.515	4.81
494.948	4.85
495.382	4.89
495.815	4.95
496.248	5
496.681	5.06
497.114	5.12
497.547	5.17
497.98	5.25
498.413	5.32
498.846	5.41
499.279	5.48
499.711	5.56
500.144	5.66
500.577	5.75
501.009	5.85
501.442	5.96
501.874	6.08
502.306	6.19
502.739	6.32
503.171	6.45
503.603	6.58
504.036	6.72
504.468	6.86
504.9	6.99
505.332	7.14
505.764	7.3
506.196	7.45
506.627	7.62
507.059	7.81
507.491	7.99
507.923	8.18
508.354	8.38
508.786	8.59
509.217	8.8
509.649	9.04
510.08	9.26
510.512	9.5
510.943	9.74
511.374	10
511.805	10.24
512.237	10.5
512.668	10.74
513.099	11
513.53	11.28
513.961	11.56
514.391	11.83
514.822	12.13
515.253	12.41
515.684	12.69
516.114	12.98
516.545	13.27
516.975	13.56
517.406	13.86
517.836	14.15
518.267	14.45
518.697	14.73
519.127	15.02
519.558	15.31
519.988	15.59
520.418	15.87
520.848	16.15
521.278	16.41
521.708	16.85
522.138	17.12
522.567	17.38
522.997	17.62
523.427	17.88
523.857	18.12
524.286	18.35
524.716	18.58
525.145	18.81
525.575	19.03
526.004	19.25
526.433	19.29
526.863	19.5
527.292	19.7
527.721	19.88
528.15	20.06
528.579	20.23
529.008	20.4
529.437	20.55
529.866	20.7
530.295	20.85
530.724	21
531.152	21.13
531.581	21.25
532.01	21.36
532.438	21.49
532.867	21.6
533.295	21.72
533.723	21.81
534.152	21.91
534.58	22
535.008	22.06
535.436	22.14
535.865	22.21
536.293	22.27
536.721	22.32
537.149	22.38
537.576	22.43
538.004	22.48
538.432	22.53
538.86	22.56
539.287	22.61
539.715	22.65
540.143	22.67
540.57	22.72
540.998	22.75
541.425	22.8
541.852	22.83
542.28	22.87
542.707	22.88
543.134	22.91
543.561	22.94
543.988	22.98
544.415	22.98
544.842	23.01
545.269	23.05
545.696	23.08
546.123	23.09
546.549	23.09
546.976	23.11
547.403	23.12
547.829	23.13
548.256	23.16
548.682	23.16
549.108	23.19
549.535	23.2
549.961	23.2
550.387	23.19
550.813	23.2
551.24	23.21
551.666	23.2
552.092	23.2
552.518	23.2
552.943	23.17
553.369	23.17
553.795	23.14
554.221	23.1
554.646	23.06
555.072	23.03
555.498	22.97
555.923	22.91
556.349	22.86
556.774	22.79
557.199	22.72
557.625	22.64
558.05	22.55
558.475	22.47
558.9	22.41
559.325	22.33
559.75	22.24
560.175	22.14
560.6	22.04
561.025	21.92
561.449	21.82
561.874	21.7
562.299	21.59
562.723	21.47
563.148	21.34
563.572	21.19
563.997	21.05
564.421	20.9
564.846	20.77
565.27	20.64
565.694	20.51
566.118	20.36
566.542	20.22
566.966	20.06
567.39	19.9
567.814	19.75
568.238	19.59
568.662	19.45
569.086	19.29
569.509	19.15
569.933	19
570.357	18.84
570.78	18.7
571.204	18.55
571.627	18.42
572.05	18.28
572.474	18.15
572.897	18.02
573.32	17.88
573.743	17.76
574.166	17.63
574.589	17.49
575.012	17.37
575.435	17.23
575.858	17.13
576.281	17.02
576.704	16.9
577.126	16.8
577.549	16.69
577.972	16.58
578.394	16.48
578.817	16.38
579.239	16.3
579.661	16.22
580.084	16.14
580.506	16.04
580.928	15.95
581.35	15.88
581.772	15.78
582.194	15.71
582.616	15.64
583.038	15.56
583.46	15.48
583.882	15.39
584.303	15.31
584.725	15.24
585.147	15.17
585.568	15.11
585.99	15.05
586.411	14.98
586.833	14.9
587.254	14.84
587.675	14.78
588.096	14.73
588.518	14.68
588.939	14.64
589.36	14.57
589.781	14.52
590.202	14.46
590.623	14.41
591.043	14.36
591.464	14.33
591.885	14.28
592.305	14.24
592.726	14.21
593.147	14.17
593.567	14.12
593.987	14.09
594.408	14.05
594.828	14.01
595.248	13.97
595.669	13.94
596.089	13.9
596.509	13.87
596.929	13.83
597.349	13.79
597.769	13.75
598.189	13.7
598.608	13.67
599.028	13.65
599.448	13.61
599.867	13.57
600.287	13.53
600.706	13.5
601.126	13.46
601.545	13.41
601.965	13.36
602.384	13.32
602.803	13.28
603.222	13.22
603.641	13.15
604.061	13.09
604.48	13.02
604.898	12.95
605.317	12.89
605.736	12.82
606.155	12.76
606.574	12.69
606.992	12.61
607.411	12.54
607.829	12.45
608.248	12.37
608.666	12.3
609.085	12.23
609.503	12.17
609.921	12.09
610.339	12.02
610.758	11.93
611.176	11.87
611.594	11.8
612.012	11.72
612.43	11.66
612.847	11.59
613.265	11.52
613.683	11.45
614.101	11.38
614.518	11.29
614.936	11.21
615.353	11.13
615.771	11.06
616.188	10.98
616.606	10.92
617.023	10.86
617.44	10.81
617.857	10.75
618.274	10.7
618.691	10.64
619.108	10.59
619.525	10.55
619.942	10.52
620.359	10.49
620.776	10.46
621.192	10.43
621.609	10.4
622.026	10.37
622.442	10.34
622.859	10.3
623.275	10.29
623.691	10.26
624.108	10.24
624.524	10.22
624.94	10.2
625.356	10.19
625.772	10.16
626.188	10.16
626.604	10.14
627.02	10.13
627.436	10.12
627.852	10.1
628.268	10.08
628.683	10.07
629.099	10.06
629.514	10.03
629.93	10.01
630.345	10
630.761	9.96
631.176	9.94
631.591	9.91
632.007	9.88
632.422	9.84
632.837	9.8
633.252	9.74
633.667	9.69
634.082	9.62
634.497	9.55
634.911	9.49
635.326	9.41
635.741	9.33
636.155	9.23
636.57	9.14
636.984	9.04
637.399	8.94
637.813	8.83
638.228	8.72
638.642	8.61
639.056	8.5
639.47	8.37
639.884	8.26
640.298	8.15
640.712	8.04
641.126	7.94
641.54	7.81
641.954	7.69
642.368	7.59
642.781	7.5
643.195	7.39
643.609	7.29
644.022	7.19
644.436	7.09
644.849	6.98
645.262	6.89
645.676	6.79
646.089	6.72
646.502	6.65
646.915	6.58
647.328	6.51
647.741	6.46
648.154	6.4
648.567	6.36
648.98	6.31
649.393	6.28
649.805	6.24
650.218	6.2
650.631	6.17
651.043	6.14
651.456	6.11
651.868	6.07
652.28	6.03
652.693	5.99
653.105	5.95
653.517	5.91
653.929	5.87
654.341	5.82
654.753	5.77
655.165	5.72
655.577	5.67
655.989	5.59
656.401	5.53
656.813	5.47
657.224	5.41
657.636	5.33
658.047	5.27
658.459	5.18
658.87	5.12
659.282	5.04
659.693	4.97
660.104	4.88
660.515	4.82
660.926	4.76
661.338	4.67
661.749	4.6
662.159	4.54
662.57	4.48
662.981	4.42
663.392	4.37
663.803	4.32
664.213	4.26
664.624	4.21
665.035	4.17
665.445	4.13
665.855	4.11
666.266	4.08
666.676	4.06
667.086	4.03
667.497	4
667.907	3.98
668.317	3.96
668.727	3.95
669.137	3.94
669.547	3.93
669.956	3.91
670.366	3.9
670.776	3.9
671.186	3.89
671.595	3.89
672.005	3.89
672.414	3.9
672.824	3.91
673.233	3.92
673.642	3.94
674.052	3.95
674.461	3.96
674.87	3.98
675.279	4.01
675.688	4.03
676.097	4.05
676.506	4.07
676.915	4.1
677.323	4.13
677.732	4.16
678.141	4.2
678.549	4.24
678.958	4.29
679.366	4.33
679.775	4.36
680.183	4.42
680.592	4.48
681	4.56
681.408	4.63
681.816	4.7
682.224	4.79
682.632	4.89
683.04	4.99
683.448	5.11
683.856	5.24
684.264	5.39
684.671	5.55
685.079	5.73
685.487	5.94
685.894	6.16
686.302	6.41
686.709	6.67
687.116	6.96
687.524	7.29
687.931	7.63
688.338	8
688.745	8.4
689.152	8.81
689.559	9.25
689.966	9.69
690.373	10.17
690.78	10.66
691.187	11.17
691.593	11.7
692	12.24
692.407	12.78
692.813	13.34
693.22	13.9
693.626	14.48
694.032	15.06
694.439	15.65
694.845	16.24
695.251	16.84
695.657	17.42
696.063	18
696.469	18.59
696.875	19.17
697.281	19.75
697.687	20.33
698.093	20.92
698.498	21.48
698.904	22.04
699.31	22.59
699.715	23.13
700.12	23.68
700.526	24.22
700.931	24.74
701.337	25.27
701.742	25.75
702.147	26.25
702.552	26.73
702.957	27.2
703.362	27.68
703.767	28.13
704.172	28.59
704.577	29.02
704.981	29.47
705.386	29.9
705.791	30.32
706.195	30.76
706.6	31.18
707.004	31.58
707.408	31.99
707.813	32.38
708.217	32.76
708.621	33.14
709.025	33.51
709.43	33.85
709.834	34.23
710.237	34.57
710.641	34.92
711.045	35.23
711.449	35.56
711.853	35.9
712.256	36.23
712.66	36.55
713.064	36.85
713.467	37.16
713.87	37.47
714.274	37.76
714.677	38.07
715.08	38.35
715.484	38.65
715.887	38.94
716.29	39.19
716.693	39.46
717.096	39.72
717.499	40
717.901	40.25
718.304	40.48
718.707	40.71
719.109	40.95
719.512	41.18
719.915	41.41
720.317	41.62
720.719	41.81
721.122	41.99
721.524	42.2
721.926	42.4
722.328	42.6
722.731	42.79
723.133	42.97
723.535	43.13
723.937	43.29
724.338	43.44
724.74	43.6
725.142	43.85
725.544	43.99
725.945	44.17
726.347	44.27
726.748	44.41
727.15	44.52
727.551	44.67
727.952	44.77
728.354	44.87
728.755	44.99
729.156	45.09
729.557	45.1
729.958	45.21
730.359	45.28
730.76	45.37
731.161	45.46
731.562	45.57
731.962	45.63
732.363	45.73
732.763	45.85
733.164	45.9
733.564	46
733.965	46.08
734.365	46.17
734.766	46.23
735.166	46.31
735.566	46.36
735.966	46.42
736.366	46.48
736.766	46.53
737.166	46.58
737.566	46.66
737.966	46.71
738.365	46.74
738.765	46.79
739.165	46.82
739.564	46.88
739.964	46.92
740.363	46.96
740.763	47.01
741.162	47.08
741.561	47.08
741.96	47.1
742.36	47.13
742.759	47.18
743.158	47.19
743.557	47.2
743.955	47.24
744.354	47.28
744.753	47.33
745.152	47.35
745.55	47.35
745.949	47.4
746.348	47.41
746.746	47.42
747.144	47.44
747.543	47.45
747.941	47.5
748.339	47.5
748.737	47.51
749.136	47.5
749.534	47.48
749.932	47.48
750.33	47.47
750.727	47.48
751.125	47.51
751.523	47.52
751.921	47.53
752.318	47.51
752.716	47.53
753.113	47.54
753.511	47.56
753.908	47.59
754.305	47.6
754.703	47.6
755.1	47.61
755.497	47.6
755.894	47.6
756.291	47.61
756.688	47.61
757.085	47.6
757.482	47.58
757.878	47.57
758.275	47.58
758.672	47.57
759.068	47.59
759.465	47.59
759.861	47.57
760.258	47.55
760.654	47.55
761.05	47.57
761.447	47.6
761.843	47.62
762.239	47.62
762.635	47.6
763.031	47.62
763.427	47.59
763.822	47.6
764.218	47.65
764.614	47.66
765.01	47.64
765.405	47.63
765.801	47.61
766.196	47.59
766.592	47.57
766.987	47.58
767.382	47.57
767.778	47.6
768.173	47.57
768.568	47.54
768.963	47.54
769.358	47.54
769.753	47.55
770.148	47.55
770.542	47.55
770.937	47.57
771.332	47.54
771.726	47.55
772.121	47.55
772.515	47.54
772.91	47.54
773.304	47.58
773.699	47.59
774.093	47.59
774.487	47.57
774.881	47.58
775.275	47.57
775.669	47.61
776.063	47.58
776.457	47.57
776.851	47.57
777.245	47.55
777.638	47.52
778.032	47.5
778.425	47.51
778.819	47.54
779.212	47.56
779.606	47.58
779.999	47.55
780.392	47.59
780.786	47.61
781.179	47.62
781.572	47.66
781.965	47.67
782.358	47.7
782.751	47.69
783.143	47.68
783.536	47.64
783.929	47.63
784.322	47.64
784.714	47.64
785.107	47.65
785.499	47.64
785.891	47.61
786.284	47.61
786.676	47.61
787.068	47.61
787.46	47.63
787.852	47.64
788.245	47.64
788.636	47.62
789.028	47.61
789.42	47.59
789.812	47.6
790.204	47.6
790.595	47.6
790.987	47.59
791.378	47.59
791.77	47.59
792.161	47.58
792.553	47.57
792.944	47.55
793.335	47.56
793.726	47.58
794.117	47.55
794.508	47.52
794.899	47.47
795.29	47.46
795.681	47.45
796.072	47.43
796.463	47.48
796.853	47.48
797.244	47.49
797.634	47.48
798.025	47.47
798.415	47.49
798.806	47.52
799.196	47.56
799.586	47.56
799.976	47.56
800.366	47.56
800.756	47.54
801.146	47.55
801.536	47.56
801.926	47.54
802.316	47.53
802.706	47.55
803.095	47.56
803.485	47.56
803.874	47.56
804.264	47.57
804.653	47.57
805.043	47.57
805.432	47.57
805.821	47.6
806.21	47.62
806.599	47.64
806.988	47.64
807.377	47.61
807.766	47.64
808.155	47.63
808.544	47.65
808.933	47.65
809.321	47.66
809.71	47.67
810.098	47.65
810.487	47.63
810.875	47.63
811.264	47.6
811.652	47.65
812.04	47.62
812.428	47.65
812.816	47.64
813.204	47.62
813.592	47.58
813.98	47.57
814.368	47.57
814.756	47.57
815.144	47.59
815.531	47.58
815.919	47.54
816.306	47.55
816.694	47.54
817.081	47.55
817.469	47.55
817.856	47.54
818.243	47.52
818.63	47.51
819.017	47.52
819.404	47.48
819.791	47.46
820.178	47.45
820.565	47.42
820.952	47.41
821.339	47.39
821.725	47.38
822.112	47.4
822.498	47.42
822.885	47.45
823.271	47.43
823.657	47.41
824.044	47.43
824.43	47.43
824.816	47.44
825.202	47.41
825.588	47.39
825.974	47.38
826.36	47.38
826.746	47.35
827.132	47.33
827.517	47.34
827.903	47.36
828.289	47.36
828.674	47.35
829.06	47.32
829.445	47.34
829.83	47.35
830.216	47.35
830.601	47.33
830.986	47.33
831.371	47.3
831.756	47.31
832.141	47.31
832.526	47.31
832.911	47.31
833.295	47.31
833.68	47.31
834.065	47.31
834.449	47.29
834.834	47.29
835.218	47.29
835.603	47.27
835.987	47.25
836.371	47.21
836.755	47.19
837.139	47.17
837.524	47.18
837.908	47.17
838.291	47.16
838.675	47.17
839.059	47.18
839.443	47.16
839.827	47.18
840.21	47.18
840.594	47.18
840.977	47.19
841.361	47.21
841.744	47.19
842.127	47.15
842.511	47.15
842.894	47.15
843.277	47.15
843.66	47.15
844.043	47.16
844.426	47.17
844.809	47.18
845.191	47.2
845.574	47.19
845.957	47.19
846.339	47.23
846.722	47.25
847.104	47.25
847.487	47.24
847.869	47.26
848.252	47.24
848.634	47.22
849.016	47.22
849.398	47.22
849.78	47.21
850.162	47.23
850.544	47.2
850.926	47.19
851.307	47.17
851.689	47.17
852.071	47.16
852.452	47.18
852.834	47.18
853.215	47.18
853.597	47.19
853.978	47.19
854.359	47.19
854.741	47.19
855.122	47.2
855.503	47.18
855.884	47.16
856.265	47.16
856.646	47.14
857.026	47.17
857.407	47.16
857.788	47.14
858.169	47.17
858.549	47.18
858.93	47.19
859.31	47.19
859.69	47.2
860.071	47.23
860.451	47.21
860.831	47.22
861.211	47.19
861.591	47.18
861.971	47.16
862.351	47.16
862.731	47.15
863.111	47.16
863.491	47.16
863.87	47.15
864.25	47.14
864.629	47.16
865.009	47.15
865.388	47.14
865.768	47.15
866.147	47.14
866.526	47.11
866.905	47.1
867.284	47.09
867.663	47.08
868.042	47.07
868.421	47.07
868.8	47.06
869.179	47.09
869.558	47.08
869.936	47.08
870.315	47.05
870.693	47.04
871.072	47.05
871.45	47.04
871.828	47.03
872.207	47.04
872.585	47.01
872.963	47.02
873.341	46.97
873.719	46.96
874.097	46.95
874.475	46.99
874.853	46.97
875.23	46.99
875.608	46.96
875.986	46.99
876.363	46.99
876.741	46.99
877.118	46.98
877.495	47
877.873	47
878.25	47.01
878.627	47.01
879.004	47.03
879.381	47.01
879.758	47.01
880.135	46.99
880.512	46.98
880.889	46.98
881.265	46.99
881.642	46.97
882.019	46.99
882.395	46.99
882.772	46.99
883.148	46.96
883.524	46.95
883.901	46.96
884.277	46.95
884.653	46.95
885.029	46.96
885.405	46.96
885.781	46.97
886.157	46.96
886.532	46.97
886.908	46.95
887.284	46.97
887.659	46.95
888.035	46.94
888.411	46.94
888.786	46.94
889.161	46.93
889.537	46.92
889.912	46.91
890.287	46.92
890.662	46.89
891.037	46.9
891.412	46.87
891.787	46.87
892.162	46.87
892.536	46.86
892.911	46.85
893.286	46.84
893.66	46.83
894.035	46.83
894.409	46.82
894.784	46.82
895.158	46.81
895.532	46.83
895.906	46.84
896.281	46.85
896.655	46.85
897.029	46.87
897.402	46.87
897.776	46.89
898.15	46.88
898.524	46.89
898.898	46.89
899.271	46.9
899.645	46.89
900.018	46.9
900.392	46.89
900.765	46.92
901.138	46.88
901.511	46.89
901.884	46.9
902.258	46.91
902.631	46.91
903.003	46.92
903.376	46.94
903.749	46.94
904.122	46.94
904.495	46.96
904.867	46.93
905.24	46.97
905.612	46.99
905.985	46.96
906.357	46.97
906.729	46.97
907.102	46.98
907.474	46.99
907.846	46.99
908.218	46.99
908.59	46.99
908.962	47
909.334	46.99
909.705	46.96
910.077	46.95
910.449	46.94
910.82	46.94
911.192	46.92
911.563	46.9
911.935	46.87
912.306	46.89
912.677	46.88
913.048	46.9
913.419	46.88
913.79	46.9
914.161	46.94
914.532	46.96
914.903	46.96
915.274	46.96
915.645	46.98
916.015	46.98
916.386	46.97
916.756	46.97
917.127	46.98
917.497	47.01
917.868	46.99
918.238	46.97
918.608	46.96
918.978	46.97
919.348	46.96
919.718	46.93
920.088	46.98
920.458	46.98
920.828	46.95
921.198	46.93
921.567	46.92
921.937	46.91
922.306	46.87
922.676	46.86
923.045	46.83
923.415	46.81
923.784	46.82
924.153	46.81
924.522	46.82
924.891	46.83
925.26	46.82
925.629	46.83
925.998	46.84
926.367	46.86
926.736	46.86
927.104	46.87
927.473	46.87
927.842	46.83
928.21	46.81
928.578	46.8
928.947	46.81
929.315	46.81
929.683	46.8
930.051	46.79
930.42	46.79
930.788	46.77
931.156	46.77
931.523	46.78
931.891	46.86
932.259	46.81
932.627	46.78
932.994	46.77
933.362	46.76
933.729	46.77
934.097	46.77
934.464	46.79
934.831	46.76
935.199	46.78
935.566	46.79
935.933	46.7
936.3	46.73
936.667	46.78
937.034	46.78
937.401	46.78
937.767	46.75
938.134	46.76
938.501	46.75
938.867	46.81
939.234	46.8
939.6	46.78
939.967	46.85
940.333	46.83
940.699	46.85
941.065	46.81
941.431	46.83
941.798	46.77
942.163	46.74
942.529	46.72
942.895	46.69
943.261	46.65
943.627	46.66
943.992	46.64
944.358	46.64
944.723	46.58
945.089	46.55
945.454	46.5
945.82	46.5
946.185	46.46
946.55	46.43
946.915	46.37
947.28	46.32
947.645	46.29
948.01	46.29
948.375	46.26
948.74	46.28
949.104	46.27
949.469	46.25
949.834	46.25
950.198	46.3
950.562	46.26
950.927	46.26
951.291	46.23
951.655	46.15
952.02	46.15
952.384	46.1
952.748	46.04
953.112	46.05
953.476	46
953.839	45.97
954.203	45.94
954.567	45.95
954.931	45.92
955.294	45.91
955.658	45.95
956.021	45.9
956.385	45.9
956.748	45.89
957.111	45.84
957.474	45.86
957.837	45.88
958.2	45.81
958.563	45.86
958.926	45.91
959.289	45.92
959.652	45.9
960.015	45.89
960.377	45.91
960.74	45.91
961.102	45.96
961.465	45.98
961.827	45.98
962.189	46.05
962.552	45.96
962.914	45.94
963.276	45.97
963.638	46
964	46.02
964.362	46.03
964.724	46.01
965.085	45.95
965.447	45.96
965.809	45.94
966.17	45.94
966.532	45.94
966.893	45.94
967.255	45.96
967.616	45.91
967.977	45.93
968.338	45.9
968.699	45.9
969.061	45.89
969.421	45.9
969.782	45.92
970.143	45.94
970.504	46.01
970.865	46.04
971.225	46.05
971.586	46.11
971.946	46.12
972.307	46.13
972.667	46.16
973.027	46.18
973.388	46.18
973.748	46.2
974.108	46.18
974.468	46.12
974.828	46.19
975.188	46.16
975.548	46.12
975.907	46.14
976.267	46.21
976.627	46.23
976.986	46.22
977.346	46.16
977.705	46.18
978.064	46.17
978.424	46.21
978.783	46.11
979.142	46.1
979.501	46.12
979.86	46.13
980.219	46.08
980.578	46.07
980.937	46.13
981.296	46.12
981.654	46.09
982.013	46.13
982.371	46.13
982.73	46.15
983.088	46.21
983.447	46.16
983.805	46.17
984.163	46.14
984.521	46.12
984.879	46.03
985.237	46.13
985.595	46.13
985.953	46.06
986.311	45.99
986.669	45.99
987.026	45.93
987.384	46
987.741	45.94
988.099	46.05
988.456	46.07
988.814	46.15
989.171	46.16
989.528	46.2
989.885	46.27
990.242	46.39
990.599	46.39
990.956	46.41
991.313	46.38
991.67	46.44
992.027	46.46
992.383	46.48
992.74	46.58
993.096	46.58
993.453	46.51
993.809	46.48
994.165	46.56
994.522	46.63
994.878	46.76
995.234	46.79
995.59	46.76
995.946	46.74
996.302	46.8
996.658	46.79
997.013	46.82
997.369	46.94
997.725	46.98
998.08	46.88
998.436	46.88
998.791	46.88
999.147	46.93
999.502	47.01
999.857	46.93
1000.212	46.88
1000.567	46.84
1000.922	46.81
1001.277	46.78
1001.632	46.64
1001.987	46.61
1002.342	46.5
1002.696	46.34
1003.051	46.45
1003.406	46.51
1003.76	46.56
1004.114	46.55
1004.469	46.6
1004.823	46.83
1005.177	46.81
1005.531	47.05
1005.885	47.1
1006.239	47.27
1006.593	47.47
1006.947	47.41
1007.301	47.21
1007.655	47.18
1008.008	47.25
1008.362	47.29
1008.715	47.17
1009.069	47.28
1009.422	47.23
1009.776	47.19
1010.129	47.08
1010.482	46.96
1010.835	47.03
1011.188	47.15
1011.541	47.27
1011.894	47.32
1012.247	47.25
1012.6	47.15
1012.952	47.07
1013.305	47.15
1013.657	47.3
1014.01	47.42
1014.362	47.41
1014.715	47.45
1015.067	47.57
1015.419	47.62
1015.771	47.7
1016.123	47.7
1016.475	47.64
1016.827	47.77
1017.179	47.7
1017.531	47.66
1017.883	47.63
1018.234	48.03
1018.586	47.92
1018.938	48.08
1019.289	47.99
1019.64	47.81
1019.992	47.81
1020.343	47.99
1020.694	47.81
1021.045	47.87
1021.396	47.77
1021.747	47.94
1022.098	47.63
1022.449	47.58
1022.8	47.54
1023.151	47.56
1023.501	47.94
1023.852	48.23
1024.202	48.16
1024.553	48.14
1024.903	48.39
1025.253	48.77
1025.604	48.77
1025.954	48.47
1026.304	48.63
1026.654	48.57
1027.004	48.51
1027.354	48.26
1027.703	48.11
1028.053	48.19
1028.403	48.18
1028.753	47.54
1029.102	47.44
1029.452	47.31
1029.801	47.7
1030.15	47.61
1030.499	47.39
897.758	1402.24
901.051	1409.18
904.343	1401.06
907.636	1425.1
910.928	1384.63
914.22	1387.8
917.511	1370.72
920.803	1309.03
924.094	1305.33
927.384	1273.28
930.675	1220.9
933.965	1212.98
937.255	1141.47
940.544	1097.19
943.834	1045
947.123	1037.85
950.411	975.14
953.7	953.43
956.988	902.65
960.276	864.71
963.563	852.16
966.851	822.47
970.138	812.57
973.424	787.16
976.711	791.18
979.997	753.35
983.283	747.9
986.568	731.49
989.853	709.83
993.138	698.07
996.423	671.59
999.708	652.3
1002.992	644.06
1006.275	617.54
1009.559	611.81
1012.842	589.16
1016.125	571.97
1019.408	561.95
1022.69	554.32
1025.972	543.73
1029.254	529.41
1032.536	520.74
1035.817	509.29
1039.098	502.36
1042.379	491.93
1045.659	486.27
1048.939	474.75
1052.219	464.97
1055.498	458.72
1058.778	448.24
1062.057	437.34
1065.335	433.14
1068.614	428.4
1071.892	424.03
1075.17	410.24
1078.447	402.54
1081.724	399.36
1085.001	397.1
1088.278	388.4
1091.554	380.97
1094.83	380.62
1098.106	378.2
1101.382	374.37
1104.657	371.93
1107.932	365.55
1111.206	367.98
1114.481	358.75
1117.755	354.96
1121.029	351.37
1124.302	351.59
1127.575	343.68
1130.848	339.57
1134.121	336.31
1137.393	334.83
1140.665	326.48
1143.937	325.08
1147.208	323.06
1150.48	321.97
1153.75	317.73
1157.021	314.49
1160.291	314.37
1163.561	311.07
1166.831	312.11
1170.101	308.94
1173.37	308.97
1176.639	309.9
1179.907	306.28
1183.176	303.33
1186.444	302.75
1189.711	302.52
1192.979	300.73
1196.246	298.48
1199.513	299.81
1202.78	296.99
1206.046	297.29
1209.312	293.76
1212.578	294.52
1215.843	297.23
1219.108	294.23
1222.373	300.98
1225.638	303.34
1228.902	307.29
1232.166	308
1235.43	310.56
1238.693	314.98
1241.956	317.02
1245.219	322.14
1248.482	321.37
1251.744	321.33
1255.006	323.54
1258.268	314.71
1261.529	311.84
1264.79	309.88
1268.051	308.37
1271.312	304.7
1274.572	299.86
1277.832	296.92
1281.092	292.06
1284.351	290.35
1287.61	290.15
1290.869	285.22
1294.128	283.85
1297.386	284.16
1300.644	280.62
1303.902	281.51
1307.159	280.35
1310.416	280.64
1313.673	280.12
1316.93	282.14
1320.186	282.92
1323.442	283.72
1326.697	288.93
1329.953	289.93
1333.208	290.99
1336.463	294.76
1339.717	295.19
1342.972	297.84
1346.226	301.24
1349.479	301.33
1352.733	303.49
1355.986	304.67
1359.238	304.93
1362.491	306.15
1365.743	309.15
1368.995	308.16
1372.247	306.72
1375.498	306.29
1378.749	309.75
1382	305.45
1385.251	306.89
1388.501	305.09
1391.751	305.9
1395	304.19
1398.25	302.07
1401.499	300.45
1404.748	300.49
1407.996	298.79
1411.244	297.8
1414.492	295.38
1417.74	293.08
1420.987	288.64
1424.234	288.94
1427.481	284.64
1430.728	285.1
1433.974	282.23
1437.22	279.04
1440.465	278.25
1443.711	275.88
1446.956	274.31
1450.201	270.65
1453.445	268.34
1456.689	267.51
1459.933	262.7
1463.177	260.95
1466.42	256.21
1469.663	253.11
1472.906	251.77
1476.148	245.24
1479.391	242.4
1482.633	239.93
1485.874	236.62
1489.115	234.91
1492.356	232.02
1495.597	231.07
1498.838	228.1
1502.078	226.88
1505.318	225.91
1508.557	225.53
1511.797	225.16
1515.036	223.96
1518.274	223.31
1521.513	221.26
1524.751	220.83
1527.989	220.25
1531.227	219.47
1534.464	219.18
1537.701	217.66
1540.938	217.05
1544.174	214.53
1547.41	214.28
1550.646	212.99
1553.882	212.53
1557.117	210.22
1560.352	209.36
1563.587	208.25
1566.821	206.87
1570.055	204.59
1573.289	203.23
1576.523	202.91
1579.756	201.52
1582.989	200.45
1586.222	200.27
1589.454	198.7
1592.686	200.23
1595.918	198.56
1599.15	198.41
1602.381	198.65
1605.612	198.68
1608.843	199.21
1612.073	198.86
1615.303	199.87
1618.533	199.72
1621.762	199.42
1624.992	200.46
1628.221	199.88
1631.449	200.12
1634.678	199.76
1637.906	200.01
1641.134	200.22
1644.361	199.64
1647.588	200.3
1650.815	199.21
1654.042	199
1657.269	200
1660.495	199.69
1663.72	198.81
1666.946	199.81
1670.171	199.85
1673.396	200.09
1676.621	200.14
1679.845	200.87
1683.069	200.52
1686.293	202.13
1689.517	203.15
1692.74	202.89
1695.963	203.34
1699.185	205.58
1702.408	205.41
1705.63	206.67
1708.852	206.75
1712.073	207.45
1715.294	207.47
1718.515	209.14
1721.736	208.62
1724.956	209.01
1728.176	208.9
1731.396	210.64
1734.616	210.02
1737.835	211.02
1741.054	209.24
1744.272	210.13
1747.491	211.82
1750.709	212.07
1753.927	211.94
1757.144	211.13
1760.361	211.9
1763.578	212.43
1766.795	212.4
1770.011	213.69
1773.227	213.51
1776.443	216.23
1779.658	217.26
1782.874	216.66
1786.089	217.43
1789.303	217.99
1792.518	221.39
1795.732	220.91
1798.945	223.54
1802.159	223.03
1805.372	223.77
1808.585	227.72
1811.797	228.41
1815.01	228.65
1818.222	230.42
1821.434	232.54
1824.645	233.64
1827.856	236.54
1831.067	238.78
1834.278	237.78
1837.488	240.31
1840.698	241.77
1843.908	239.4
1847.117	240.71
1850.326	242.89
1853.535	241.54
1856.744	245.11
1859.952	244.79
1863.16	243.75
1866.368	242.11
1869.575	244.99
1872.782	240.95
1875.989	241.18
1879.196	240.1
1882.402	238.71
1885.608	239.26
1888.814	240.46
1892.019	239.59
1895.224	239
1898.429	238.17
1901.634	239.75
1904.838	240.06
1908.042	243.05
1911.246	243.38
1914.449	245.38
1917.652	245.41
1920.855	244.44
1924.058	244.49
1927.26	243.11
1930.462	244.23
1933.664	246.46
1936.865	245.06
1940.066	244.21
1943.267	243.47
1946.467	243.01
1949.668	244.34
1952.868	247.1
1956.067	247.25
1959.267	247.87
1962.466	249.2
1965.665	247.83
1968.863	248.31
1972.061	251.86
1975.259	254.09
1978.457	255.25
1981.654	258.13
1984.852	258.69
1988.048	258.53
1991.245	260.67
1994.441	263.66
1997.637	265.11
2000.833	270.48
2004.028	274.2
2007.223	274.32
2010.418	277.59
2013.613	282.56
2016.807	284.61
2020.001	286.78
2023.194	291.36
2026.388	298.03
2029.581	303.52
2032.774	307.04
2035.966	312.32
2039.158	312.64
2042.35	318.8
2045.542	321.65
2048.733	326.49
2051.924	331.13
2055.115	337.49
2058.306	337.46
2061.496	340.73
2064.686	341.62
2067.875	346.92
2071.065	348.37
2074.254	347.49
2077.442	351.9
2080.631	352.51
2083.819	355.85
2087.007	355.88
2090.195	360.39
2093.382	364.16
2096.569	362.01
2099.756	366.94
2102.942	367.59
2106.128	371.14
2109.314	379.74
2112.5	378.61
2115.685	387.22
2118.87	387.95
2122.055	395.91
2125.239	398.22
2128.424	402.7
2131.608	406.5
2134.791	412.47
2137.974	413.89
2141.157	415.44
2144.34	415.26
2147.523	422.24
2150.705	418.6
2153.887	422.75
2157.068	423.81
2160.25	419.37
2163.431	420.83
2166.611	425.18
2169.792	433.8
2172.972	438.75
2176.152	441.1
2179.331	447.93
2182.511	455.25
2185.69	460.25
2188.868	469.86
2192.047	469.88
2195.225	484.21
2198.403	496.73
2201.58	506.35
2204.758	514.94
2207.935	526.22
2211.111	536.15
2214.288	541.2
2217.464	542.5
2220.64	551.34
2223.815	558.78
2226.991	582.68
2230.166	583.91
2233.34	594.39
2236.515	603.11
2239.689	603.92
2242.863	606.6
2246.036	624.75
2249.209	621.54
2252.382	633.12
2255.555	651.31
2258.727	653.16
2261.9	656.05
2265.071	662.35
2268.243	672.67
2271.414	680.98
2274.585	696.07
2277.756	703.34
2280.926	706.46
2284.096	724.63
2287.266	739.63
2290.436	745.82
2293.605	763.49
2296.774	788.14
2299.942	812.41
2303.111	816.56
2306.279	835.55
2309.447	848.9
2312.614	872.18
2315.781	896.83
2318.948	934.22
2322.115	920.1
2325.281	971.09
2328.447	951.37
2331.613	988.54
2334.779	977.06
2337.944	1020.81
2341.109	1029.66
2344.274	1054.23
2347.438	1092.52
2350.602	1093.63
2353.766	1129.18
2356.929	1145.63
2360.092	1140.09
2363.255	1223.24
2366.418	1219.86
2369.58	1242.42
2372.742	1322.25
2375.904	1356.39
2379.066	1349.52
2382.227	1317.38
2385.388	1431.74
2388.548	1430.56
2391.709	1446.43
2394.869	1611.27
2398.029	1540.29
2401.188	1584.93
2404.347	1576.49
2407.506	1545.06
2410.665	1586.62
2413.823	1687.77
2416.981	1790.67
2420.139	1729.33
2423.296	1713.68
2426.453	1791.54
2429.61	1719.98
2432.767	1800.43
2435.923	1780.95
2439.079	1946.6
2442.235	1975.24
2445.391	1960.84
2448.546	1942.36
2451.701	1886.43
2454.855	1883.45
2458.009	2004.28
2461.163	2082.95
2464.317	2160.55
2467.471	2218.58
2470.624	2218.14
2473.777	2158.97
2476.929	2103.45
2480.082	2044.9
2483.234	2020.84
2486.385	2124.57
2489.537	2133.85
2492.688	2208.99
2495.839	2141.65
2498.989	2094.99
2502.14	2098.98
2505.29	2126.35
2508.439	2168.87
2511.589	2157.87
2514.738	2352.96
2517.887	2302.53
2521.035	2437.73
2524.183	2461.86
2527.331	2472.8
2530.479	2474.78
2533.627	2490.53
