Data from C_2_DEC_VA_2N_Splice17_13-08-47-744.txt Node
Date: Sat Mar 07 13:08:47 EST 2020
User: sa697716
Spectrometer: NQ5500242
Trigger mode: 0
Integration Time (sec): 1.450000E-1
Scans to average: 20
Nonlinearity correction enabled: false
Boxcar width: 5
Storing dark spectrum: false
XAxis mode: Wavelengths
Number of Pixels in Spectrum: 512
>>>>>Begin Spectral Data<<<<<
187.83	265.51
188.298	285
188.766	244.31
189.233	208.41
189.701	200.63
190.169	231.43
190.636	244.09
191.104	351.34
191.571	6.39
192.039	-135.14
192.506	-1000.31
192.974	192.92
193.441	242.84
193.908	41.79
194.375	80.29
194.842	1.19
195.31	43.87
195.777	77.76
196.244	36.25
196.711	31.41
197.177	32.34
197.644	31.96
198.111	32.88
198.578	33.44
199.045	34.11
199.511	33.8
199.978	33.82
200.445	34.01
200.911	34.05
201.378	34.08
201.844	34.1
202.31	34.3
202.777	34.28
203.243	34.37
203.709	34.2
204.176	33.76
204.642	33.66
205.108	33.54
205.574	33.15
206.04	32.69
206.506	32.76
206.972	32.8
207.438	32.14
207.903	31.8
208.369	31.31
208.835	31
209.301	30.53
209.766	29.56
210.232	28.82
210.697	28.13
211.163	27.5
211.628	26.67
212.094	26
212.559	25.81
213.024	25.1
213.49	24.51
213.955	23.76
214.42	23.23
214.885	22.78
215.35	22.04
215.815	21.06
216.28	19.79
216.745	18.35
217.21	16.87
217.675	15.52
218.14	14.53
218.604	13.5
219.069	12.72
219.534	12.09
219.998	11.54
220.463	11.11
220.927	10.67
221.392	10.36
221.856	10.12
222.32	9.88
222.785	9.68
223.249	9.48
223.713	9.33
224.177	9.19
224.642	9.03
225.106	8.88
225.57	8.72
226.034	8.6
226.497	8.47
226.961	8.34
227.425	8.23
227.889	8.13
228.353	8
228.816	7.89
229.28	7.79
229.744	7.67
230.207	7.57
230.671	7.48
231.134	7.39
231.597	7.32
232.061	7.24
232.524	7.15
232.987	7.06
233.45	7.01
233.914	6.93
234.377	6.86
234.84	6.8
235.303	6.74
235.766	6.69
236.229	6.63
236.691	6.56
237.154	6.5
237.617	6.45
238.08	6.4
238.542	6.33
239.005	6.29
239.468	6.24
239.93	6.18
240.393	6.14
240.855	6.08
241.317	6.02
241.78	5.96
242.242	5.9
242.704	5.86
243.166	5.82
243.629	5.78
244.091	5.73
244.553	5.68
245.015	5.64
245.477	5.59
245.939	5.55
246.4	5.5
246.862	5.46
247.324	5.42
247.786	5.37
248.247	5.33
248.709	5.28
249.17	5.23
249.632	5.21
250.093	5.17
250.555	5.13
251.016	5.08
251.477	5.05
251.939	5.03
252.4	5
252.861	4.96
253.322	4.93
253.783	4.91
254.244	4.89
254.705	4.84
255.166	4.82
255.627	4.79
256.088	4.77
256.549	4.76
257.009	4.72
257.47	4.69
257.931	4.65
258.391	4.63
258.852	4.59
259.312	4.56
259.773	4.54
260.233	4.52
260.694	4.5
261.154	4.46
261.614	4.44
262.074	4.41
262.534	4.38
262.994	4.36
263.455	4.33
263.915	4.32
264.374	4.31
264.834	4.29
265.294	4.26
265.754	4.24
266.214	4.22
266.673	4.21
267.133	4.2
267.593	4.19
268.052	4.18
268.512	4.17
268.971	4.15
269.431	4.13
269.89	4.12
270.349	4.12
270.809	4.1
271.268	4.09
271.727	4.07
272.186	4.06
272.645	4.05
273.104	4.04
273.563	4.03
274.022	4.01
274.481	4
274.94	3.99
275.399	3.97
275.857	3.96
276.316	3.95
276.775	3.94
277.233	3.93
277.692	3.92
278.15	3.91
278.609	3.9
279.067	3.9
279.525	3.89
279.984	3.89
280.442	3.88
280.9	3.88
281.358	3.87
281.816	3.87
282.274	3.87
282.732	3.86
283.19	3.84
283.648	3.83
284.106	3.82
284.564	3.81
285.021	3.81
285.479	3.8
285.937	3.79
286.394	3.79
286.852	3.78
287.309	3.77
287.767	3.75
288.224	3.75
288.682	3.74
289.139	3.73
289.596	3.72
290.053	3.71
290.511	3.69
290.968	3.67
291.425	3.65
291.882	3.64
292.339	3.62
292.796	3.62
293.252	3.6
293.709	3.59
294.166	3.59
294.623	3.58
295.079	3.57
295.536	3.57
295.992	3.56
296.449	3.55
296.905	3.55
297.362	3.55
297.818	3.54
298.274	3.54
298.731	3.53
299.187	3.52
299.643	3.51
300.099	3.51
300.555	3.5
301.011	3.5
301.467	3.5
301.923	3.49
302.379	3.48
302.835	3.49
303.291	3.49
303.746	3.48
304.202	3.48
304.658	3.48
305.113	3.48
305.569	3.47
306.024	3.47
306.479	3.45
306.935	3.45
307.39	3.45
307.845	3.45
308.301	3.45
308.756	3.44
309.211	3.44
309.666	3.44
310.121	3.44
310.576	3.45
311.031	3.45
311.486	3.46
311.94	3.46
312.395	3.46
312.85	3.46
313.305	3.45
313.759	3.46
314.214	3.46
314.668	3.46
315.123	3.46
315.577	3.45
316.032	3.45
316.486	3.43
316.94	3.43
317.394	3.42
317.849	3.41
318.303	3.4
318.757	3.38
319.211	3.38
319.665	3.36
320.119	3.35
320.572	3.34
321.026	3.33
321.48	3.32
321.934	3.31
322.387	3.3
322.841	3.3
323.295	3.3
323.748	3.3
324.202	3.29
324.655	3.29
325.108	3.3
325.562	3.3
326.015	3.3
326.468	3.3
326.921	3.3
327.374	3.29
327.827	3.3
328.28	3.3
328.733	3.3
329.186	3.3
329.639	3.3
330.092	3.29
330.545	3.29
330.997	3.28
331.45	3.29
331.903	3.3
332.355	3.31
332.808	3.3
333.26	3.3
333.713	3.29
334.165	3.28
334.617	3.28
335.069	3.27
335.522	3.28
335.974	3.29
336.426	3.29
336.878	3.28
337.33	3.27
337.782	3.28
338.234	3.29
338.686	3.3
339.137	3.31
339.589	3.3
340.041	3.31
340.493	3.29
340.944	3.28
341.396	3.27
341.847	3.26
342.299	3.25
342.75	3.24
343.201	3.21
343.653	3.2
344.104	3.18
344.555	3.18
345.006	3.17
345.457	3.17
345.908	3.17
346.359	3.17
346.81	3.17
347.261	3.17
347.712	3.17
348.163	3.17
348.613	3.17
349.064	3.18
349.515	3.17
349.965	3.17
350.416	3.17
350.866	3.17
351.317	3.17
351.767	3.18
352.217	3.17
352.668	3.18
353.118	3.2
353.568	3.2
354.018	3.2
354.468	3.21
354.918	3.22
355.368	3.23
355.818	3.24
356.268	3.24
356.718	3.25
357.168	3.25
357.617	3.25
358.067	3.25
358.517	3.26
358.966	3.27
359.416	3.27
359.865	3.28
360.315	3.29
360.764	3.3
361.213	3.3
361.663	3.31
362.112	3.33
362.561	3.35
363.01	3.36
363.459	3.36
363.908	3.35
364.357	3.36
364.806	3.36
365.255	3.37
365.703	3.39
366.152	3.4
366.601	3.42
367.05	3.43
367.498	3.43
367.947	3.45
368.395	3.47
368.844	3.49
369.292	3.51
369.74	3.53
370.189	3.54
370.637	3.55
371.085	3.55
371.533	3.56
371.981	3.57
372.429	3.6
372.877	3.61
373.325	3.63
373.773	3.64
374.221	3.66
374.669	3.67
375.116	3.69
375.564	3.71
376.012	3.73
376.459	3.76
376.907	3.79
377.354	3.8
377.801	3.82
378.249	3.84
378.696	3.86
379.143	3.88
379.591	3.9
380.038	3.94
380.485	3.96
380.932	3.98
381.379	4.01
381.826	4.03
382.273	4.05
382.72	4.07
383.166	4.1
383.613	4.12
384.06	4.14
384.506	4.16
384.953	4.18
385.4	4.21
385.846	4.23
386.292	4.25
386.739	4.27
387.185	4.29
387.631	4.32
388.078	4.34
388.524	4.37
388.97	4.4
389.416	4.43
389.862	4.45
390.308	4.47
390.754	4.5
391.2	4.51
391.645	4.54
392.091	4.58
392.537	4.61
392.983	4.64
393.428	4.66
393.874	4.68
394.319	4.71
394.765	4.74
395.21	4.75
395.655	4.78
396.101	4.81
396.546	4.82
396.991	4.84
397.436	4.85
397.881	4.87
398.326	4.89
398.771	4.91
399.216	4.92
399.661	4.93
400.106	4.94
400.551	4.94
400.995	4.94
401.44	4.94
401.885	4.95
402.329	4.95
402.774	4.96
403.218	4.98
403.663	4.99
404.107	4.98
404.551	4.99
404.995	4.99
405.44	4.99
405.884	5
406.328	5.01
406.772	4.99
407.216	5
407.66	4.99
408.104	4.97
408.547	4.96
408.991	4.96
409.435	4.96
409.879	4.96
410.322	4.97
410.766	4.97
411.209	4.97
411.653	4.99
412.096	4.99
412.54	4.99
412.983	5
413.426	5.03
413.869	5.04
414.312	5.05
414.756	5.04
415.199	5.04
415.642	5.05
416.085	5.05
416.527	5.04
416.97	5.02
417.413	5.02
417.856	5.02
418.298	5
418.741	4.98
419.184	4.98
419.626	4.97
420.069	4.97
420.511	4.97
420.953	4.97
421.396	4.98
421.838	4.97
422.28	4.98
422.722	4.99
423.164	4.98
423.606	4.99
424.048	4.99
424.49	4.99
424.932	4.98
425.374	4.95
425.816	4.91
426.258	4.9
426.699	4.89
427.141	4.87
427.582	4.86
428.024	4.86
428.465	4.84
428.907	4.82
429.348	4.8
429.789	4.8
430.231	4.82
430.672	4.85
431.113	4.85
431.554	4.86
431.995	4.85
432.436	4.85
432.877	4.86
433.318	4.9
433.759	4.92
434.2	4.94
434.64	4.96
435.081	4.96
435.522	4.97
435.962	4.98
436.403	5.01
436.843	5.03
437.284	5.03
437.724	5.04
438.164	5.02
438.604	5.02
439.045	5.03
439.485	5.04
439.925	5.04
440.365	5.05
440.805	5.06
441.245	5.06
441.685	5.08
442.125	5.1
442.564	5.13
443.004	5.15
443.444	5.17
443.883	5.19
444.323	5.21
444.762	5.24
445.202	5.25
445.641	5.28
446.081	5.31
446.52	5.33
446.959	5.36
447.398	5.37
447.837	5.39
448.276	5.4
448.716	5.41
449.154	5.43
449.593	5.45
450.032	5.47
450.471	5.47
450.91	5.48
451.349	5.49
451.787	5.5
452.226	5.5
452.664	5.51
453.103	5.52
453.541	5.54
453.98	5.55
454.418	5.54
454.856	5.54
455.295	5.55
455.733	5.53
456.171	5.53
456.609	5.52
457.047	5.52
457.485	5.5
457.923	5.5
458.361	5.48
458.798	5.48
459.236	5.49
459.674	5.49
460.111	5.49
460.549	5.49
460.987	5.5
461.424	5.5
461.862	5.51
462.299	5.52
462.736	5.52
463.173	5.53
463.611	5.53
464.048	5.52
464.485	5.52
464.922	5.52
465.359	5.53
465.796	5.55
466.233	5.56
466.67	5.56
467.106	5.57
467.543	5.57
467.98	5.56
468.416	5.55
468.853	5.55
469.29	5.55
469.726	5.55
470.162	5.54
470.599	5.52
471.035	5.52
471.471	5.51
471.907	5.51
472.344	5.52
472.78	5.53
473.216	5.52
473.652	5.53
474.088	5.52
474.523	5.53
474.959	5.53
475.395	5.51
475.831	5.5
476.266	5.51
476.702	5.51
477.138	5.5
477.573	5.51
478.008	5.52
478.444	5.5
478.879	5.51
479.314	5.5
479.75	5.51
480.185	5.51
480.62	5.51
481.055	5.5
481.49	5.5
481.925	5.5
482.36	5.5
482.795	5.5
483.229	5.5
483.664	5.51
484.099	5.52
484.534	5.52
484.968	5.54
485.403	5.56
485.837	5.57
486.271	5.59
486.706	5.61
487.14	5.63
487.574	5.65
488.009	5.68
488.443	5.7
488.877	5.73
489.311	5.77
489.745	5.8
490.179	5.85
490.613	5.9
491.046	5.95
491.48	5.99
491.914	6.05
492.348	6.11
492.781	6.17
493.215	6.23
493.648	6.3
494.082	6.36
494.515	6.42
494.948	6.49
495.382	6.55
495.815	6.63
496.248	6.72
496.681	6.8
497.114	6.89
497.547	6.97
497.98	7.08
498.413	7.18
498.846	7.28
499.279	7.38
499.711	7.49
500.144	7.61
500.577	7.74
501.009	7.85
501.442	7.98
501.874	8.11
502.306	8.25
502.739	8.4
503.171	8.53
503.603	8.69
504.036	8.86
504.468	9.02
504.9	9.18
505.332	9.35
505.764	9.53
506.196	9.72
506.627	9.92
507.059	10.11
507.491	10.3
507.923	10.52
508.354	10.73
508.786	10.95
509.217	11.17
509.649	11.4
510.08	11.62
510.512	11.86
510.943	12.09
511.374	12.32
511.805	12.57
512.237	12.81
512.668	13.05
513.099	13.3
513.53	13.55
513.961	13.81
514.391	14.07
514.822	14.33
515.253	14.58
515.684	14.83
516.114	15.1
516.545	15.36
516.975	15.63
517.406	15.89
517.836	16.16
518.267	16.42
518.697	16.68
519.127	16.91
519.558	17.16
519.988	17.41
520.418	17.65
520.848	17.89
521.278	18.11
521.708	18.43
522.138	18.65
522.567	18.85
522.997	19.05
523.427	19.26
523.857	19.48
524.286	19.67
524.716	19.86
525.145	20.04
525.575	20.22
526.004	20.42
526.433	20.49
526.863	20.66
527.292	20.83
527.721	20.99
528.15	21.13
528.579	21.27
529.008	21.41
529.437	21.53
529.866	21.64
530.295	21.75
530.724	21.85
531.152	21.95
531.581	22.04
532.01	22.12
532.438	22.21
532.867	22.28
533.295	22.34
533.723	22.41
534.152	22.47
534.58	22.55
535.008	22.6
535.436	22.65
535.865	22.7
536.293	22.75
536.721	22.8
537.149	22.85
537.576	22.89
538.004	22.95
538.432	22.98
538.86	23.03
539.287	23.05
539.715	23.09
540.143	23.11
540.57	23.14
540.998	23.15
541.425	23.19
541.852	23.22
542.28	23.25
542.707	23.25
543.134	23.28
543.561	23.3
543.988	23.33
544.415	23.33
544.842	23.34
545.269	23.38
545.696	23.41
546.123	23.42
546.549	23.44
546.976	23.45
547.403	23.48
547.829	23.48
548.256	23.48
548.682	23.48
549.108	23.51
549.535	23.53
549.961	23.52
550.387	23.51
550.813	23.51
551.24	23.5
551.666	23.49
552.092	23.48
552.518	23.48
552.943	23.47
553.369	23.46
553.795	23.43
554.221	23.4
554.646	23.37
555.072	23.36
555.498	23.31
555.923	23.28
556.349	23.23
556.774	23.16
557.199	23.09
557.625	23.03
558.05	22.98
558.475	22.91
558.9	22.86
559.325	22.79
559.75	22.71
560.175	22.64
560.6	22.54
561.025	22.45
561.449	22.38
561.874	22.3
562.299	22.2
562.723	22.09
563.148	22
563.572	21.89
563.997	21.78
564.421	21.67
564.846	21.55
565.27	21.45
565.694	21.34
566.118	21.23
566.542	21.12
566.966	21
567.39	20.88
567.814	20.75
568.238	20.62
568.662	20.5
569.086	20.38
569.509	20.27
569.933	20.15
570.357	20.02
570.78	19.89
571.204	19.77
571.627	19.64
572.05	19.54
572.474	19.43
572.897	19.33
573.32	19.23
573.743	19.11
574.166	19.01
574.589	18.91
575.012	18.8
575.435	18.69
575.858	18.59
576.281	18.49
576.704	18.4
577.126	18.3
577.549	18.2
577.972	18.1
578.394	18.01
578.817	17.94
579.239	17.85
579.661	17.77
580.084	17.7
580.506	17.62
580.928	17.55
581.35	17.47
581.772	17.41
582.194	17.34
582.616	17.27
583.038	17.2
583.46	17.11
583.882	17.04
584.303	16.97
584.725	16.9
585.147	16.85
585.568	16.81
585.99	16.75
586.411	16.68
586.833	16.62
587.254	16.57
587.675	16.53
588.096	16.49
588.518	16.44
588.939	16.41
589.36	16.37
589.781	16.32
590.202	16.28
590.623	16.24
591.043	16.2
591.464	16.16
591.885	16.13
592.305	16.09
592.726	16.05
593.147	16.02
593.567	15.99
593.987	15.95
594.408	15.91
594.828	15.87
595.248	15.83
595.669	15.8
596.089	15.77
596.509	15.73
596.929	15.71
597.349	15.67
597.769	15.64
598.189	15.59
598.608	15.57
599.028	15.53
599.448	15.48
599.867	15.45
600.287	15.41
600.706	15.37
601.126	15.33
601.545	15.29
601.965	15.26
602.384	15.22
602.803	15.18
603.222	15.13
603.641	15.09
604.061	15.06
604.48	15.02
604.898	14.95
605.317	14.9
605.736	14.84
606.155	14.8
606.574	14.74
606.992	14.67
607.411	14.61
607.829	14.52
608.248	14.44
608.666	14.37
609.085	14.31
609.503	14.27
609.921	14.19
610.339	14.12
610.758	14.05
611.176	13.97
611.594	13.91
612.012	13.84
612.43	13.79
612.847	13.73
613.265	13.67
613.683	13.6
614.101	13.53
614.518	13.47
614.936	13.41
615.353	13.32
615.771	13.27
616.188	13.21
616.606	13.16
617.023	13.11
617.44	13.06
617.857	13.01
618.274	12.94
618.691	12.89
619.108	12.84
619.525	12.79
619.942	12.77
620.359	12.73
620.776	12.69
621.192	12.65
621.609	12.62
622.026	12.59
622.442	12.57
622.859	12.55
623.275	12.53
623.691	12.5
624.108	12.5
624.524	12.48
624.94	12.47
625.356	12.47
625.772	12.46
626.188	12.44
626.604	12.42
627.02	12.4
627.436	12.4
627.852	12.38
628.268	12.37
628.683	12.35
629.099	12.34
629.514	12.32
629.93	12.3
630.345	12.27
630.761	12.24
631.176	12.21
631.591	12.17
632.007	12.13
632.422	12.09
632.837	12.04
633.252	11.99
633.667	11.94
634.082	11.87
634.497	11.82
634.911	11.75
635.326	11.68
635.741	11.6
636.155	11.52
636.57	11.43
636.984	11.34
637.399	11.24
637.813	11.14
638.228	11.02
638.642	10.92
639.056	10.79
639.47	10.68
639.884	10.57
640.298	10.46
640.712	10.34
641.126	10.21
641.54	10.09
641.954	9.97
642.368	9.86
642.781	9.76
643.195	9.65
643.609	9.54
644.022	9.43
644.436	9.32
644.849	9.21
645.262	9.12
645.676	9.03
646.089	8.95
646.502	8.87
646.915	8.79
647.328	8.72
647.741	8.65
648.154	8.57
648.567	8.53
648.98	8.46
649.393	8.42
649.805	8.37
650.218	8.31
650.631	8.27
651.043	8.22
651.456	8.17
651.868	8.12
652.28	8.08
652.693	8.05
653.105	8
653.517	7.95
653.929	7.9
654.341	7.85
654.753	7.79
655.165	7.73
655.577	7.67
655.989	7.6
656.401	7.53
656.813	7.46
657.224	7.38
657.636	7.29
658.047	7.22
658.459	7.14
658.87	7.05
659.282	6.97
659.693	6.89
660.104	6.8
660.515	6.71
660.926	6.63
661.338	6.54
661.749	6.45
662.159	6.37
662.57	6.29
662.981	6.22
663.392	6.15
663.803	6.09
664.213	6
664.624	5.94
665.035	5.88
665.445	5.83
665.855	5.78
666.266	5.74
666.676	5.7
667.086	5.64
667.497	5.61
667.907	5.57
668.317	5.54
668.727	5.52
669.137	5.5
669.547	5.48
669.956	5.46
670.366	5.45
670.776	5.44
671.186	5.42
671.595	5.42
672.005	5.42
672.414	5.41
672.824	5.41
673.233	5.42
673.642	5.43
674.052	5.44
674.461	5.46
674.87	5.47
675.279	5.5
675.688	5.53
676.097	5.56
676.506	5.58
676.915	5.62
677.323	5.65
677.732	5.69
678.141	5.73
678.549	5.77
678.958	5.81
679.366	5.88
679.775	5.94
680.183	6
680.592	6.08
681	6.18
681.408	6.27
681.816	6.38
682.224	6.48
682.632	6.63
683.04	6.77
683.448	6.93
683.856	7.1
684.264	7.28
684.671	7.48
685.079	7.69
685.487	7.93
685.894	8.2
686.302	8.49
686.709	8.81
687.116	9.13
687.524	9.48
687.931	9.85
688.338	10.24
688.745	10.64
689.152	11.06
689.559	11.51
689.966	11.98
690.373	12.43
690.78	12.9
691.187	13.37
691.593	13.87
692	14.37
692.407	14.87
692.813	15.37
693.22	15.87
693.626	16.39
694.032	16.91
694.439	17.41
694.845	17.94
695.251	18.44
695.657	18.94
696.063	19.44
696.469	19.92
696.875	20.43
697.281	20.91
697.687	21.4
698.093	21.86
698.498	22.31
698.904	22.76
699.31	23.18
699.715	23.63
700.12	24.05
700.526	24.46
700.931	24.89
701.337	25.28
701.742	25.68
702.147	26.06
702.552	26.45
702.957	26.78
703.362	27.14
703.767	27.48
704.172	27.81
704.577	28.17
704.981	28.5
705.386	28.81
705.791	29.13
706.195	29.42
706.6	29.75
707.004	30.02
707.408	30.32
707.813	30.61
708.217	30.87
708.621	31.15
709.025	31.4
709.43	31.66
709.834	31.92
710.237	32.16
710.641	32.41
711.045	32.64
711.449	32.9
711.853	33.16
712.256	33.39
712.66	33.61
713.064	33.84
713.467	34.06
713.87	34.27
714.274	34.47
714.677	34.67
715.08	34.85
715.484	35.06
715.887	35.27
716.29	35.44
716.693	35.63
717.096	35.83
717.499	36
717.901	36.18
718.304	36.34
718.707	36.5
719.109	36.66
719.512	36.81
719.915	36.96
720.317	37.06
720.719	37.18
721.122	37.31
721.524	37.43
721.926	37.55
722.328	37.66
722.731	37.79
723.133	37.91
723.535	38.03
723.937	38.14
724.338	38.25
724.74	38.38
725.142	38.59
725.544	38.69
725.945	38.83
726.347	38.93
726.748	39.05
727.15	39.12
727.551	39.21
727.952	39.3
728.354	39.39
728.755	39.44
729.156	39.52
729.557	39.49
729.958	39.54
730.359	39.57
730.76	39.64
731.161	39.68
731.562	39.77
731.962	39.79
732.363	39.85
732.763	39.9
733.164	39.96
733.564	40
733.965	40.04
734.365	40.09
734.766	40.14
735.166	40.17
735.566	40.21
735.966	40.23
736.366	40.28
736.766	40.3
737.166	40.32
737.566	40.35
737.966	40.38
738.365	40.4
738.765	40.45
739.165	40.48
739.564	40.51
739.964	40.54
740.363	40.57
740.763	40.59
741.162	40.61
741.561	40.63
741.96	40.65
742.36	40.66
742.759	40.69
743.158	40.68
743.557	40.69
743.955	40.69
744.354	40.72
744.753	40.73
745.152	40.76
745.55	40.79
745.949	40.83
746.348	40.85
746.746	40.85
747.144	40.87
747.543	40.87
747.941	40.87
748.339	40.88
748.737	40.86
749.136	40.87
749.534	40.86
749.932	40.87
750.33	40.85
750.727	40.84
751.125	40.87
751.523	40.85
751.921	40.89
752.318	40.91
752.716	40.92
753.113	40.94
753.511	40.93
753.908	40.96
754.305	40.96
754.703	40.95
755.1	40.97
755.497	40.96
755.894	40.97
756.291	40.96
756.688	40.94
757.085	40.96
757.482	40.96
757.878	40.97
758.275	40.95
758.672	40.94
759.068	40.97
759.465	40.95
759.861	40.97
760.258	40.99
760.654	40.99
761.05	41
761.447	41
761.843	40.99
762.239	40.99
762.635	40.98
763.031	41.01
763.427	40.99
763.822	40.99
764.218	40.99
764.614	40.98
765.01	40.96
765.405	40.96
765.801	40.92
766.196	40.93
766.592	40.93
766.987	40.92
767.382	40.9
767.778	40.89
768.173	40.9
768.568	40.88
768.963	40.89
769.358	40.88
769.753	40.87
770.148	40.87
770.542	40.86
770.937	40.86
771.332	40.89
771.726	40.89
772.121	40.89
772.515	40.88
772.91	40.87
773.304	40.86
773.699	40.88
774.093	40.85
774.487	40.84
774.881	40.87
775.275	40.86
775.669	40.83
776.063	40.81
776.457	40.82
776.851	40.82
777.245	40.84
777.638	40.84
778.032	40.85
778.425	40.87
778.819	40.88
779.212	40.88
779.606	40.88
779.999	40.89
780.392	40.92
780.786	40.9
781.179	40.91
781.572	40.93
781.965	40.93
782.358	40.93
782.751	40.92
783.143	40.91
783.536	40.91
783.929	40.92
784.322	40.93
784.714	40.91
785.107	40.93
785.499	40.92
785.891	40.91
786.284	40.89
786.676	40.89
787.068	40.93
787.46	40.95
787.852	40.95
788.245	40.93
788.636	40.91
789.028	40.93
789.42	40.94
789.812	40.95
790.204	40.95
790.595	40.95
790.987	40.94
791.378	40.92
791.77	40.93
792.161	40.9
792.553	40.92
792.944	40.93
793.335	40.93
793.726	40.91
794.117	40.88
794.508	40.84
794.899	40.82
795.29	40.81
795.681	40.78
796.072	40.76
796.463	40.8
796.853	40.8
797.244	40.8
797.634	40.8
798.025	40.82
798.415	40.82
798.806	40.83
799.196	40.85
799.586	40.89
799.976	40.9
800.366	40.92
800.756	40.9
801.146	40.91
801.536	40.9
801.926	40.87
802.316	40.84
802.706	40.89
803.095	40.91
803.485	40.89
803.874	40.88
804.264	40.89
804.653	40.87
805.043	40.87
805.432	40.87
805.821	40.91
806.21	40.94
806.599	40.96
806.988	40.93
807.377	40.92
807.766	40.93
808.155	40.91
808.544	40.9
808.933	40.92
809.321	40.94
809.71	40.94
810.098	40.89
810.487	40.89
810.875	40.87
811.264	40.87
811.652	40.87
812.04	40.85
812.428	40.9
812.816	40.89
813.204	40.86
813.592	40.83
813.98	40.86
814.368	40.85
814.756	40.86
815.144	40.84
815.531	40.83
815.919	40.83
816.306	40.83
816.694	40.8
817.081	40.82
817.469	40.84
817.856	40.84
818.243	40.81
818.63	40.83
819.017	40.8
819.404	40.82
819.791	40.82
820.178	40.82
820.565	40.81
820.952	40.81
821.339	40.8
821.725	40.79
822.112	40.79
822.498	40.8
822.885	40.78
823.271	40.79
823.657	40.75
824.044	40.76
824.43	40.77
824.816	40.77
825.202	40.76
825.588	40.74
825.974	40.75
826.36	40.76
826.746	40.76
827.132	40.76
827.517	40.75
827.903	40.8
828.289	40.82
828.674	40.83
829.06	40.82
829.445	40.82
829.83	40.83
830.216	40.81
830.601	40.8
830.986	40.83
831.371	40.83
831.756	40.84
832.141	40.81
832.526	40.79
832.911	40.77
833.295	40.76
833.68	40.77
834.065	40.77
834.449	40.75
834.834	40.75
835.218	40.72
835.603	40.72
835.987	40.7
836.371	40.7
836.755	40.7
837.139	40.69
837.524	40.71
837.908	40.71
838.291	40.73
838.675	40.73
839.059	40.71
839.443	40.7
839.827	40.69
840.21	40.71
840.594	40.72
840.977	40.71
841.361	40.74
841.744	40.69
842.127	40.67
842.511	40.66
842.894	40.67
843.277	40.67
843.66	40.66
844.043	40.67
844.426	40.66
844.809	40.65
845.191	40.65
845.574	40.65
845.957	40.68
846.339	40.68
846.722	40.68
847.104	40.67
847.487	40.69
847.869	40.71
848.252	40.7
848.634	40.7
849.016	40.72
849.398	40.73
849.78	40.73
850.162	40.72
850.544	40.73
850.926	40.75
851.307	40.75
851.689	40.72
852.071	40.72
852.452	40.73
852.834	40.73
853.215	40.71
853.597	40.7
853.978	40.7
854.359	40.71
854.741	40.71
855.122	40.7
855.503	40.69
855.884	40.7
856.265	40.7
856.646	40.69
857.026	40.7
857.407	40.7
857.788	40.71
858.169	40.72
858.549	40.73
858.93	40.72
859.31	40.72
859.69	40.74
860.071	40.76
860.451	40.75
860.831	40.75
861.211	40.73
861.591	40.74
861.971	40.73
862.351	40.72
862.731	40.72
863.111	40.7
863.491	40.69
863.87	40.67
864.25	40.64
864.629	40.66
865.009	40.66
865.388	40.66
865.768	40.65
866.147	40.63
866.526	40.64
866.905	40.62
867.284	40.64
867.663	40.64
868.042	40.66
868.421	40.68
868.8	40.67
869.179	40.67
869.558	40.67
869.936	40.68
870.315	40.69
870.693	40.69
871.072	40.73
871.45	40.73
871.828	40.72
872.207	40.71
872.585	40.71
872.963	40.72
873.341	40.69
873.719	40.7
874.097	40.68
874.475	40.69
874.853	40.69
875.23	40.68
875.608	40.67
875.986	40.71
876.363	40.72
876.741	40.73
877.118	40.73
877.495	40.76
877.873	40.77
878.25	40.79
878.627	40.81
879.004	40.81
879.381	40.8
879.758	40.8
880.135	40.77
880.512	40.76
880.889	40.76
881.265	40.74
881.642	40.74
882.019	40.75
882.395	40.74
882.772	40.73
883.148	40.71
883.524	40.69
883.901	40.69
884.277	40.68
884.653	40.66
885.029	40.66
885.405	40.67
885.781	40.68
886.157	40.67
886.532	40.67
886.908	40.65
887.284	40.63
887.659	40.63
888.035	40.6
888.411	40.6
888.786	40.62
889.161	40.62
889.537	40.61
889.912	40.6
890.287	40.61
890.662	40.6
891.037	40.62
891.412	40.63
891.787	40.61
892.162	40.63
892.536	40.62
892.911	40.62
893.286	40.6
893.66	40.59
894.035	40.58
894.409	40.56
894.784	40.55
895.158	40.54
895.532	40.56
895.906	40.55
896.281	40.55
896.655	40.54
897.029	40.54
897.402	40.55
897.776	40.55
898.15	40.53
898.524	40.55
898.898	40.55
899.271	40.52
899.645	40.54
900.018	40.56
900.392	40.57
900.765	40.59
901.138	40.56
901.511	40.56
901.884	40.57
902.258	40.6
902.631	40.6
903.003	40.61
903.376	40.62
903.749	40.59
904.122	40.59
904.495	40.6
904.867	40.61
905.24	40.64
905.612	40.65
905.985	40.66
906.357	40.64
906.729	40.66
907.102	40.66
907.474	40.68
907.846	40.67
908.218	40.69
908.59	40.71
908.962	40.72
909.334	40.72
909.705	40.73
910.077	40.74
910.449	40.78
910.82	40.74
911.192	40.74
911.563	40.74
911.935	40.75
912.306	40.72
912.677	40.69
913.048	40.69
913.419	40.69
913.79	40.67
914.161	40.62
914.532	40.61
914.903	40.62
915.274	40.62
915.645	40.6
916.015	40.58
916.386	40.58
916.756	40.6
917.127	40.6
917.497	40.59
917.868	40.59
918.238	40.6
918.608	40.6
918.978	40.62
919.348	40.6
919.718	40.62
920.088	40.64
920.458	40.64
920.828	40.63
921.198	40.6
921.567	40.59
921.937	40.62
922.306	40.62
922.676	40.6
923.045	40.58
923.415	40.6
923.784	40.6
924.153	40.62
924.522	40.64
924.891	40.63
925.26	40.64
925.629	40.66
925.998	40.6
926.367	40.62
926.736	40.61
927.104	40.6
927.473	40.58
927.842	40.55
928.21	40.54
928.578	40.53
928.947	40.54
929.315	40.52
929.683	40.52
930.051	40.52
930.42	40.52
930.788	40.49
931.156	40.49
931.523	40.5
931.891	40.54
932.259	40.55
932.627	40.53
932.994	40.52
933.362	40.53
933.729	40.54
934.097	40.54
934.464	40.58
934.831	40.6
935.199	40.61
935.566	40.6
935.933	40.53
936.3	40.5
936.667	40.49
937.034	40.51
937.401	40.5
937.767	40.46
938.134	40.47
938.501	40.42
938.867	40.42
939.234	40.38
939.6	40.41
939.967	40.45
940.333	40.38
940.699	40.36
941.065	40.28
941.431	40.26
941.798	40.27
942.163	40.24
942.529	40.21
942.895	40.2
943.261	40.21
943.627	40.15
943.992	40.13
944.358	40.17
944.723	40.15
945.089	40.09
945.454	40.16
945.82	40.13
946.185	40.11
946.55	40.08
946.915	40.07
947.28	40.06
947.645	40.09
948.01	40.12
948.375	40.17
948.74	40.16
949.104	40.19
949.469	40.12
949.834	40.11
950.198	40.11
950.562	40.08
950.927	40.05
951.291	40.01
951.655	39.94
952.02	39.91
952.384	39.82
952.748	39.81
953.112	39.81
953.476	39.77
953.839	39.74
954.203	39.74
954.567	39.74
954.931	39.69
955.294	39.71
955.658	39.77
956.021	39.79
956.385	39.8
956.748	39.77
957.111	39.76
957.474	39.84
957.837	39.8
958.2	39.8
958.563	39.78
958.926	39.79
959.289	39.79
959.652	39.74
960.015	39.71
960.377	39.7
960.74	39.76
961.102	39.78
961.465	39.78
961.827	39.87
962.189	39.88
962.552	39.88
962.914	39.92
963.276	39.91
963.638	39.98
964	39.98
964.362	40.03
964.724	40
965.085	39.96
965.447	39.92
965.809	39.9
966.17	39.89
966.532	39.9
966.893	39.89
967.255	39.91
967.616	39.85
967.977	39.87
968.338	39.86
968.699	39.89
969.061	39.92
969.421	39.94
969.782	39.95
970.143	39.95
970.504	40
970.865	40
971.225	40.03
971.586	40.09
971.946	40.08
972.307	40.09
972.667	40.07
973.027	40.1
973.388	40.1
973.748	40.06
974.108	40.12
974.468	40.07
974.828	40.11
975.188	40.06
975.548	39.99
975.907	39.98
976.267	39.96
976.627	40.02
976.986	39.97
977.346	39.95
977.705	39.96
978.064	39.91
978.424	39.99
978.783	39.92
979.142	39.95
979.501	40
979.86	40.06
980.219	40.03
980.578	40
980.937	40.04
981.296	40
981.654	40.02
982.013	40.02
982.371	39.97
982.73	40.03
983.088	40.04
983.447	40.02
983.805	39.96
984.163	39.97
984.521	39.94
984.879	39.89
985.237	39.95
985.595	40.03
985.953	40.05
986.311	40.03
986.669	40.02
987.026	40.03
987.384	40.04
987.741	40.03
988.099	40.07
988.456	40.05
988.814	40.14
989.171	40.1
989.528	40
989.885	39.97
990.242	40.01
990.599	40.02
990.956	40.03
991.313	40.02
991.67	40.02
992.027	40.11
992.383	40.14
992.74	40.15
993.096	40.17
993.453	40.13
993.809	40.13
994.165	40.16
994.522	40.24
994.878	40.2
995.234	40.23
995.59	40.19
995.946	40.09
996.302	40.08
996.658	40.01
997.013	40.11
997.369	40.19
997.725	40.23
998.08	40.24
998.436	40.17
998.791	40.24
999.147	40.18
999.502	40.34
999.857	40.35
1000.212	40.27
1000.567	40.27
1000.922	40.15
1001.277	40.14
1001.632	40.05
1001.987	40.04
1002.342	39.93
1002.696	39.87
1003.051	39.93
1003.406	39.86
1003.76	39.79
1004.114	39.83
1004.469	39.97
1004.823	40.22
1005.177	40.23
1005.531	40.33
1005.885	40.26
1006.239	40.28
1006.593	40.43
1006.947	40.42
1007.301	40.24
1007.655	40.28
1008.008	40.45
1008.362	40.56
1008.715	40.31
1009.069	40.32
1009.422	40.27
1009.776	40.33
1010.129	40.47
1010.482	40.37
1010.835	40.37
1011.188	40.58
1011.541	40.6
1011.894	40.59
1012.247	40.49
1012.6	40.52
1012.952	40.49
1013.305	40.57
1013.657	40.58
1014.01	40.31
1014.362	40.29
1014.715	40.39
1015.067	40.41
1015.419	40.48
1015.771	40.38
1016.123	40.38
1016.475	40.39
1016.827	40.37
1017.179	40.45
1017.531	40.63
1017.883	40.83
1018.234	40.85
1018.586	40.9
1018.938	41.02
1019.289	40.92
1019.64	40.73
1019.992	40.65
1020.343	40.63
1020.694	40.65
1021.045	40.82
1021.396	40.55
1021.747	40.59
1022.098	40.78
1022.449	40.71
1022.8	40.71
1023.151	40.71
1023.501	41.06
1023.852	41.18
1024.202	41.25
1024.553	41.26
1024.903	41.03
1025.253	41.15
1025.604	41.34
1025.954	41.16
1026.304	41.14
1026.654	41.18
1027.004	41.45
1027.354	41.31
1027.703	40.95
1028.053	40.91
1028.403	41.09
1028.753	40.85
1029.102	40.95
1029.452	40.74
1029.801	40.71
1030.15	40.7
1030.499	40.45
897.758	1253.25
901.051	1264.32
904.343	1259.03
907.636	1281.88
910.928	1248.01
914.22	1248.25
917.511	1232.79
920.803	1180.42
924.094	1173.72
927.384	1146.55
930.675	1096.52
933.965	1092.9
937.255	1028.56
940.544	988.73
943.834	938.53
947.123	931.48
950.411	875.43
953.7	857.62
956.988	809.54
960.276	775.26
963.563	762.55
966.851	737.9
970.138	730.7
973.424	706.68
976.711	709.17
979.997	675.61
983.283	671.1
986.568	657.13
989.853	636.8
993.138	625.18
996.423	599.58
999.708	583.44
1002.992	577.36
1006.275	550.9
1009.559	545.31
1012.842	526.18
1016.125	511.06
1019.408	501.89
1022.69	494.86
1025.972	484.54
1029.254	472.54
1032.536	466.64
1035.817	456.89
1039.098	450.76
1042.379	441.9
1045.659	436.95
1048.939	425.91
1052.219	417.48
1055.498	410.91
1058.778	401.25
1062.057	392.19
1065.335	388.62
1068.614	383.26
1071.892	378.82
1075.17	366.59
1078.447	358.61
1081.724	355.83
1085.001	353.17
1088.278	346.25
1091.554	338.04
1094.83	338.85
1098.106	336.4
1101.382	333.47
1104.657	331.51
1107.932	325.68
1111.206	326.84
1114.481	319.75
1117.755	316.31
1121.029	313.28
1124.302	312.41
1127.575	307.21
1130.848	303.27
1134.121	299.91
1137.393	297.78
1140.665	291.5
1143.937	289.56
1147.208	287.83
1150.48	286.86
1153.75	283.37
1157.021	280.15
1160.291	279.94
1163.561	277.19
1166.831	277.06
1170.101	274.99
1173.37	273.82
1176.639	274.34
1179.907	272.35
1183.176	268.77
1186.444	269.35
1189.711	268.13
1192.979	267.14
1196.246	265.69
1199.513	266.59
1202.78	264.26
1206.046	263.8
1209.312	262.04
1212.578	261.82
1215.843	263.92
1219.108	262.98
1222.373	267.51
1225.638	270.14
1228.902	273.55
1232.166	274.53
1235.43	276.41
1238.693	280.62
1241.956	282.33
1245.219	287.12
1248.482	286.87
1251.744	286.35
1255.006	287.26
1258.268	279.26
1261.529	277.12
1264.79	275.21
1268.051	273.47
1271.312	270.15
1274.572	266.52
1277.832	263.85
1281.092	259.7
1284.351	257.97
1287.61	257.99
1290.869	254.23
1294.128	253.15
1297.386	252.82
1300.644	250.13
1303.902	250.46
1307.159	249.52
1310.416	249.94
1313.673	249.43
1316.93	251.28
1320.186	251.24
1323.442	251.89
1326.697	256.03
1329.953	257.5
1333.208	258.34
1336.463	261.49
1339.717	261.85
1342.972	265.59
1346.226	267.81
1349.479	268.94
1352.733	270.27
1355.986	272.05
1359.238	272.36
1362.491	273.73
1365.743	275.98
1368.995	276.33
1372.247	275.6
1375.498	275.99
1378.749	277.84
1382	275.1
1385.251	275.76
1388.501	274.72
1391.751	275.38
1395	274.82
1398.25	273.07
1401.499	272.01
1404.748	272.01
1407.996	270.96
1411.244	269.55
1414.492	268.06
1417.74	266.26
1420.987	262.41
1424.234	262.75
1427.481	259.53
1430.728	258.71
1433.974	256.68
1437.22	254.06
1440.465	252.9
1443.711	250.63
1446.956	248.17
1450.201	245.98
1453.445	243.11
1456.689	242.35
1459.933	237.82
1463.177	236.08
1466.42	232.14
1469.663	229.68
1472.906	228.5
1476.148	223.11
1479.391	220.16
1482.633	218.96
1485.874	214.69
1489.115	213.47
1492.356	210.95
1495.597	210.6
1498.838	207.24
1502.078	206.16
1505.318	204.58
1508.557	204.28
1511.797	203.72
1515.036	202.62
1518.274	201.95
1521.513	200.03
1524.751	199.88
1527.989	198.52
1531.227	197.45
1534.464	197.78
1537.701	196.4
1540.938	195.82
1544.174	193.52
1547.41	193.78
1550.646	192.04
1553.882	191.79
1557.117	189.9
1560.352	188.66
1563.587	188.93
1566.821	187.31
1570.055	185.42
1573.289	183.77
1576.523	183.41
1579.756	181.84
1582.989	180.55
1586.222	180.78
1589.454	179.18
1592.686	180.68
1595.918	179.28
1599.15	178.28
1602.381	178.92
1605.612	178.76
1608.843	179.49
1612.073	179.04
1615.303	179.85
1618.533	179.44
1621.762	179.49
1624.992	180.15
1628.221	179.17
1631.449	179.3
1634.678	179.34
1637.906	180.08
1641.134	179.67
1644.361	179.36
1647.588	180.09
1650.815	179.66
1654.042	178.89
1657.269	179.71
1660.495	179.72
1663.72	179.61
1666.946	180.13
1670.171	180.32
1673.396	179.68
1676.621	180.55
1679.845	181.03
1683.069	180.51
1686.293	181.71
1689.517	183.22
1692.74	182.89
1695.963	183.08
1699.185	184.5
1702.408	184.5
1705.63	185.29
1708.852	186.07
1712.073	185.9
1715.294	186.09
1718.515	187.43
1721.736	187
1724.956	186.99
1728.176	187.09
1731.396	188.83
1734.616	188.15
1737.835	189.33
1741.054	187.39
1744.272	187.98
1747.491	190.1
1750.709	190.12
1753.927	190.24
1757.144	189.87
1760.361	190.57
1763.578	190.95
1766.795	190.35
1770.011	192.03
1773.227	192.05
1776.443	195.19
1779.658	195.82
1782.874	194.77
1786.089	196.17
1789.303	196.74
1792.518	199.37
1795.732	199.44
1798.945	201.17
1802.159	201.64
1805.372	202.25
1808.585	205.39
1811.797	206.09
1815.01	206.43
1818.222	208.41
1821.434	210.26
1824.645	210.84
1827.856	214.4
1831.067	216.09
1834.278	215.78
1837.488	217.48
1840.698	218.76
1843.908	216.89
1847.117	217.84
1850.326	219.41
1853.535	219.11
1856.744	221.85
1859.952	222.14
1863.16	220.21
1866.368	219.62
1869.575	222.29
1872.782	218.77
1875.989	218.58
1879.196	218.3
1882.402	216.97
1885.608	217.79
1888.814	218.6
1892.019	218.45
1895.224	217.92
1898.429	217.55
1901.634	218.6
1904.838	218.52
1908.042	221.25
1911.246	222.28
1914.449	223.82
1917.652	224.03
1920.855	223.72
1924.058	223.1
1927.26	221.54
1930.462	221.97
1933.664	224.66
1936.865	222.75
1940.066	222.75
1943.267	221.53
1946.467	220.13
1949.668	221.48
1952.868	224.24
1956.067	224
1959.267	224.77
1962.466	225.57
1965.665	225.29
1968.863	225.11
1972.061	228.05
1975.259	229.85
1978.457	232.23
1981.654	235.12
1984.852	234.96
1988.048	234.17
1991.245	236.82
1994.441	239.84
1997.637	240.43
2000.833	245.89
2004.028	249.19
2007.223	250.12
2010.418	252.81
2013.613	257.29
2016.807	259.44
2020.001	262.31
2023.194	265.94
2026.388	271.1
2029.581	277.04
2032.774	280.03
2035.966	284.82
2039.158	285.39
2042.35	291.93
2045.542	293.57
2048.733	297.68
2051.924	301.45
2055.115	306.75
2058.306	307.77
2061.496	310.86
2064.686	309.87
2067.875	316.43
2071.065	316.47
2074.254	314.8
2077.442	319.24
2080.631	320.92
2083.819	323.56
2087.007	323.94
2090.195	328.14
2093.382	330.51
2096.569	328.26
2099.756	334.7
2102.942	334.92
2106.128	338.05
2109.314	346.43
2112.5	343.66
2115.685	350.8
2118.87	351.47
2122.055	359.17
2125.239	360.58
2128.424	365.34
2131.608	367.92
2134.791	370.48
2137.974	373.66
2141.157	374.84
2144.34	375.07
2147.523	381.7
2150.705	379.23
2153.887	382.45
2157.068	382.57
2160.25	378.85
2163.431	381.64
2166.611	386.75
2169.792	394.74
2172.972	397.77
2176.152	399.54
2179.331	404.73
2182.511	410.89
2185.69	415.56
2188.868	424.28
2192.047	425.05
2195.225	438.5
2198.403	448.58
2201.58	457.15
2204.758	464.24
2207.935	473.55
2211.111	483.15
2214.288	488.59
2217.464	489.81
2220.64	499.14
2223.815	505.82
2226.991	527.56
2230.166	527.45
2233.34	535.58
2236.515	543.39
2239.689	544.95
2242.863	548.05
2246.036	563.71
2249.209	560.6
2252.382	569.65
2255.555	584.45
2258.727	586
2261.9	588.11
2265.071	594.93
2268.243	605.47
2271.414	610.92
2274.585	625.77
2277.756	631.3
2280.926	635.58
2284.096	650.11
2287.266	664.25
2290.436	669.05
2293.605	685.11
2296.774	704.95
2299.942	726.72
2303.111	730.9
2306.279	750.98
2309.447	759.39
2312.614	780.43
2315.781	802.66
2318.948	837.44
2322.115	827.27
2325.281	872.88
2328.447	856.35
2331.613	889.18
2334.779	878.87
2337.944	917.69
2341.109	925
2344.274	952.67
2347.438	982.14
2350.602	982.38
2353.766	1014.74
2356.929	1029.14
2360.092	1020.34
2363.255	1093.33
2366.418	1095.14
2369.58	1117.05
2372.742	1182.86
2375.904	1212.36
2379.066	1202.89
2382.227	1186.29
2385.388	1290.44
2388.548	1288.93
2391.709	1306.71
2394.869	1455.35
2398.029	1397.73
2401.188	1436.26
2404.347	1426.29
2407.506	1404.74
2410.665	1439.32
2413.823	1525.01
2416.981	1615.98
2420.139	1559.4
2423.296	1545.75
2426.453	1606.36
2429.61	1550.35
2432.767	1612.48
2435.923	1594.72
2439.079	1749.77
2442.235	1769.81
2445.391	1760
2448.546	1750.17
2451.701	1697.37
2454.855	1692.88
2458.009	1795.05
2461.163	1876.44
2464.317	1943.39
2467.471	1995.76
2470.624	1999.06
2473.777	1944.17
2476.929	1900.03
2480.082	1843.88
2483.234	1819.55
2486.385	1919.93
2489.537	1928.33
2492.688	2000.58
2495.839	1940.56
2498.989	1895.47
2502.14	1908.06
2505.29	1922.9
2508.439	1952.6
2511.589	1946.33
2514.738	2128.25
2517.887	2082.05
2521.035	2185.52
2524.183	2218.82
2527.331	2234.32
2530.479	2227.1
2533.627	2246.11
