Data from C_2_DIV_IL_4N_Splice17_13-41-01-346.txt Node
Date: Sat Mar 07 13:41:01 EST 2020
User: sa697716
Spectrometer: NQ5500242
Trigger mode: 0
Integration Time (sec): 1.450000E-1
Scans to average: 20
Nonlinearity correction enabled: false
Boxcar width: 5
Storing dark spectrum: false
XAxis mode: Wavelengths
Number of Pixels in Spectrum: 512
>>>>>Begin Spectral Data<<<<<
187.83	159.67
188.298	166.9
188.766	163.27
189.233	133.63
189.701	132.36
190.169	167.05
190.636	149.85
191.104	126.07
191.571	-178.38
192.039	-237.96
192.506	-498.47
192.974	10.09
193.441	27.88
193.908	65.9
194.375	23.01
194.842	-30.11
195.31	33.2
195.777	114.06
196.244	94.38
196.711	94.85
197.177	96.62
197.644	96.12
198.111	96.81
198.578	96.52
199.045	96.51
199.511	96.48
199.978	96.76
200.445	97.03
200.911	96.58
201.378	96.74
201.844	96.43
202.31	95.83
202.777	95.61
203.243	95.35
203.709	94.89
204.176	94.11
204.642	93.58
205.108	92.74
205.574	91.78
206.04	91.18
206.506	90.01
206.972	89.31
207.438	88.48
207.903	87.33
208.369	85.8
208.835	84.04
209.301	82.31
209.766	79.68
210.232	77.56
210.697	75.22
211.163	73.01
211.628	71.28
212.094	69.43
212.559	68.06
213.024	66.37
213.49	64.72
213.955	63.09
214.42	61.46
214.885	59.88
215.35	57.45
215.815	54.59
216.28	50.85
216.745	46.56
217.21	42.43
217.675	38.41
218.14	35.01
218.604	31.93
219.069	29.51
219.534	27.46
219.998	25.74
220.463	24.41
220.927	23.16
221.392	22.21
221.856	21.45
222.32	20.75
222.785	20.16
223.249	19.64
223.713	19.16
224.177	18.73
224.642	18.32
225.106	17.88
225.57	17.45
226.034	17.11
226.497	16.79
226.961	16.44
227.425	16.15
227.889	15.85
228.353	15.54
228.816	15.26
229.28	14.96
229.744	14.71
230.207	14.5
230.671	14.27
231.134	14.03
231.597	13.84
232.061	13.63
232.524	13.43
232.987	13.25
233.45	13.09
233.914	12.93
234.377	12.77
234.84	12.61
235.303	12.47
235.766	12.35
236.229	12.21
236.691	12.07
237.154	11.95
237.617	11.82
238.08	11.69
238.542	11.56
239.005	11.46
239.468	11.34
239.93	11.22
240.393	11.1
240.855	10.96
241.317	10.85
241.78	10.73
242.242	10.6
242.704	10.49
243.166	10.38
243.629	10.29
244.091	10.16
244.553	10.06
245.015	9.95
245.477	9.85
245.939	9.75
246.4	9.66
246.862	9.56
247.324	9.47
247.786	9.39
248.247	9.29
248.709	9.18
249.17	9.08
249.632	9.02
250.093	8.95
250.555	8.87
251.016	8.8
251.477	8.73
251.939	8.67
252.4	8.61
252.861	8.54
253.322	8.49
253.783	8.44
254.244	8.4
254.705	8.33
255.166	8.27
255.627	8.22
256.088	8.17
256.549	8.12
257.009	8.05
257.47	7.99
257.931	7.92
258.391	7.84
258.852	7.77
259.312	7.71
259.773	7.65
260.233	7.59
260.694	7.53
261.154	7.45
261.614	7.4
262.074	7.34
262.534	7.3
262.994	7.25
263.455	7.21
263.915	7.17
264.374	7.12
264.834	7.09
265.294	7.05
265.754	7.02
266.214	6.99
266.673	6.97
267.133	6.95
267.593	6.93
268.052	6.91
268.512	6.9
268.971	6.88
269.431	6.85
269.89	6.84
270.349	6.82
270.809	6.8
271.268	6.79
271.727	6.77
272.186	6.75
272.645	6.73
273.104	6.7
273.563	6.68
274.022	6.66
274.481	6.65
274.94	6.64
275.399	6.62
275.857	6.59
276.316	6.57
276.775	6.56
277.233	6.54
277.692	6.53
278.15	6.53
278.609	6.52
279.067	6.5
279.525	6.49
279.984	6.48
280.442	6.47
280.9	6.47
281.358	6.46
281.816	6.45
282.274	6.44
282.732	6.43
283.19	6.41
283.648	6.39
284.106	6.38
284.564	6.37
285.021	6.34
285.479	6.33
285.937	6.3
286.394	6.28
286.852	6.26
287.309	6.24
287.767	6.2
288.224	6.17
288.682	6.15
289.139	6.11
289.596	6.07
290.053	6.04
290.511	6
290.968	5.97
291.425	5.93
291.882	5.91
292.339	5.88
292.796	5.86
293.252	5.84
293.709	5.83
294.166	5.82
294.623	5.8
295.079	5.79
295.536	5.77
295.992	5.77
296.449	5.76
296.905	5.75
297.362	5.74
297.818	5.73
298.274	5.72
298.731	5.7
299.187	5.68
299.643	5.67
300.099	5.67
300.555	5.65
301.011	5.63
301.467	5.63
301.923	5.6
302.379	5.59
302.835	5.59
303.291	5.6
303.746	5.59
304.202	5.59
304.658	5.59
305.113	5.58
305.569	5.59
306.024	5.59
306.479	5.58
306.935	5.59
307.39	5.59
307.845	5.58
308.301	5.58
308.756	5.57
309.211	5.57
309.666	5.58
310.121	5.58
310.576	5.57
311.031	5.58
311.486	5.57
311.94	5.57
312.395	5.57
312.85	5.57
313.305	5.56
313.759	5.56
314.214	5.55
314.668	5.54
315.123	5.53
315.577	5.51
316.032	5.5
316.486	5.49
316.94	5.49
317.394	5.47
317.849	5.44
318.303	5.43
318.757	5.41
319.211	5.4
319.665	5.38
320.119	5.36
320.572	5.35
321.026	5.33
321.48	5.31
321.934	5.29
322.387	5.28
322.841	5.27
323.295	5.27
323.748	5.26
324.202	5.26
324.655	5.26
325.108	5.27
325.562	5.27
326.015	5.27
326.468	5.28
326.921	5.28
327.374	5.28
327.827	5.28
328.28	5.27
328.733	5.28
329.186	5.27
329.639	5.27
330.092	5.27
330.545	5.27
330.997	5.26
331.45	5.26
331.903	5.28
332.355	5.29
332.808	5.3
333.26	5.31
333.713	5.31
334.165	5.31
334.617	5.31
335.069	5.31
335.522	5.31
335.974	5.32
336.426	5.31
336.878	5.28
337.33	5.27
337.782	5.26
338.234	5.26
338.686	5.26
339.137	5.26
339.589	5.24
340.041	5.23
340.493	5.21
340.944	5.19
341.396	5.17
341.847	5.16
342.299	5.13
342.75	5.12
343.201	5.08
343.653	5.06
344.104	5.03
344.555	5.01
345.006	4.99
345.457	4.99
345.908	4.98
346.359	4.98
346.81	4.97
347.261	4.97
347.712	4.96
348.163	4.96
348.613	4.96
349.064	4.96
349.515	4.97
349.965	4.96
350.416	4.96
350.866	4.96
351.317	4.95
351.767	4.96
352.217	4.95
352.668	4.95
353.118	4.97
353.568	4.96
354.018	4.97
354.468	4.98
354.918	4.98
355.368	4.99
355.818	5
356.268	5
356.718	5
357.168	5.01
357.617	5.01
358.067	5
358.517	5.01
358.966	5.01
359.416	5.01
359.865	5
360.315	5
360.764	5
361.213	4.99
361.663	4.99
362.112	4.99
362.561	4.98
363.01	4.98
363.459	4.96
363.908	4.95
364.357	4.96
364.806	4.95
365.255	4.95
365.703	4.95
366.152	4.96
366.601	4.96
367.05	4.96
367.498	4.95
367.947	4.95
368.395	4.97
368.844	4.98
369.292	4.96
369.74	4.97
370.189	4.96
370.637	4.96
371.085	4.95
371.533	4.96
371.981	4.95
372.429	4.95
372.877	4.95
373.325	4.92
373.773	4.91
374.221	4.9
374.669	4.89
375.116	4.89
375.564	4.87
376.012	4.88
376.459	4.87
376.907	4.88
377.354	4.87
377.801	4.88
378.249	4.89
378.696	4.89
379.143	4.9
379.591	4.9
380.038	4.9
380.485	4.9
380.932	4.9
381.379	4.9
381.826	4.9
382.273	4.92
382.72	4.9
383.166	4.89
383.613	4.88
384.06	4.88
384.506	4.89
384.953	4.9
385.4	4.91
385.846	4.92
386.292	4.93
386.739	4.93
387.185	4.93
387.631	4.95
388.078	4.97
388.524	5
388.97	5.01
389.416	5.04
389.862	5.06
390.308	5.09
390.754	5.11
391.2	5.14
391.645	5.16
392.091	5.21
392.537	5.24
392.983	5.26
393.428	5.29
393.874	5.31
394.319	5.34
394.765	5.37
395.21	5.38
395.655	5.41
396.101	5.43
396.546	5.45
396.991	5.48
397.436	5.5
397.881	5.55
398.326	5.58
398.771	5.63
399.216	5.66
399.661	5.69
400.106	5.72
400.551	5.75
400.995	5.77
401.44	5.81
401.885	5.84
402.329	5.86
402.774	5.89
403.218	5.96
403.663	5.99
404.107	6.02
404.551	6.05
404.995	6.08
405.44	6.11
405.884	6.15
406.328	6.19
406.772	6.21
407.216	6.24
407.66	6.26
408.104	6.25
408.547	6.27
408.991	6.29
409.435	6.33
409.879	6.37
410.322	6.42
410.766	6.46
411.209	6.5
411.653	6.55
412.096	6.6
412.54	6.64
412.983	6.69
413.426	6.77
413.869	6.82
414.312	6.87
414.756	6.9
415.199	6.92
415.642	6.93
416.085	6.96
416.527	6.96
416.97	6.95
417.413	6.96
417.856	6.97
418.298	6.96
418.741	6.97
419.184	6.97
419.626	6.97
420.069	6.99
420.511	7.03
420.953	7.05
421.396	7.11
421.838	7.14
422.28	7.18
422.722	7.22
423.164	7.24
423.606	7.25
424.048	7.26
424.49	7.27
424.932	7.27
425.374	7.24
425.816	7.21
426.258	7.19
426.699	7.19
427.141	7.19
427.582	7.2
428.024	7.21
428.465	7.23
428.907	7.22
429.348	7.21
429.789	7.23
430.231	7.29
430.672	7.34
431.113	7.37
431.554	7.41
431.995	7.42
432.436	7.44
432.877	7.47
433.318	7.51
433.759	7.56
434.2	7.62
434.64	7.66
435.081	7.66
435.522	7.68
435.962	7.69
436.403	7.71
436.843	7.74
437.284	7.73
437.724	7.74
438.164	7.74
438.604	7.74
439.045	7.74
439.485	7.75
439.925	7.76
440.365	7.77
440.805	7.79
441.245	7.81
441.685	7.83
442.125	7.85
442.564	7.85
443.004	7.86
443.444	7.9
443.883	7.92
444.323	7.92
444.762	7.94
445.202	7.96
445.641	7.99
446.081	7.99
446.52	8
446.959	8.03
447.398	8.06
447.837	8.07
448.276	8.07
448.716	8.09
449.154	8.13
449.593	8.15
450.032	8.14
450.471	8.12
450.91	8.11
451.349	8.15
451.787	8.13
452.226	8.11
452.664	8.1
453.103	8.08
453.541	8.06
453.98	8.05
454.418	8.02
454.856	8.03
455.295	8.02
455.733	8
456.171	7.95
456.609	7.95
457.047	7.94
457.485	7.92
457.923	7.91
458.361	7.89
458.798	7.88
459.236	7.88
459.674	7.86
460.111	7.85
460.549	7.86
460.987	7.88
461.424	7.89
461.862	7.89
462.299	7.9
462.736	7.92
463.173	7.94
463.611	7.94
464.048	7.95
464.485	7.96
464.922	7.97
465.359	7.97
465.796	8.01
466.233	8.02
466.67	8.03
467.106	8.05
467.543	8.03
467.98	8.02
468.416	8.02
468.853	8.02
469.29	8.01
469.726	8.01
470.162	8
470.599	7.96
471.035	7.94
471.471	7.93
471.907	7.9
472.344	7.9
472.78	7.9
473.216	7.88
473.652	7.88
474.088	7.85
474.523	7.84
474.959	7.82
475.395	7.8
475.831	7.78
476.266	7.77
476.702	7.76
477.138	7.74
477.573	7.73
478.008	7.72
478.444	7.7
478.879	7.72
479.314	7.69
479.75	7.69
480.185	7.68
480.62	7.67
481.055	7.66
481.49	7.65
481.925	7.64
482.36	7.63
482.795	7.61
483.229	7.6
483.664	7.6
484.099	7.6
484.534	7.59
484.968	7.6
485.403	7.59
485.837	7.6
486.271	7.61
486.706	7.62
487.14	7.63
487.574	7.65
488.009	7.67
488.443	7.69
488.877	7.72
489.311	7.74
489.745	7.76
490.179	7.81
490.613	7.84
491.046	7.87
491.48	7.89
491.914	7.93
492.348	7.98
492.781	8.02
493.215	8.07
493.648	8.1
494.082	8.15
494.515	8.19
494.948	8.24
495.382	8.29
495.815	8.35
496.248	8.42
496.681	8.48
497.114	8.55
497.547	8.61
497.98	8.68
498.413	8.76
498.846	8.85
499.279	8.94
499.711	9.02
500.144	9.13
500.577	9.23
501.009	9.34
501.442	9.46
501.874	9.58
502.306	9.7
502.739	9.84
503.171	9.97
503.603	10.1
504.036	10.25
504.468	10.4
504.9	10.55
505.332	10.7
505.764	10.87
506.196	11.04
506.627	11.22
507.059	11.42
507.491	11.59
507.923	11.8
508.354	12.01
508.786	12.22
509.217	12.44
509.649	12.67
510.08	12.89
510.512	13.13
510.943	13.37
511.374	13.62
511.805	13.88
512.237	14.13
512.668	14.38
513.099	14.65
513.53	14.93
513.961	15.22
514.391	15.5
514.822	15.81
515.253	16.1
515.684	16.4
516.114	16.7
516.545	17
516.975	17.31
517.406	17.62
517.836	17.92
518.267	18.23
518.697	18.52
519.127	18.82
519.558	19.12
519.988	19.41
520.418	19.69
520.848	19.97
521.278	20.25
521.708	20.78
522.138	21.07
522.567	21.34
522.997	21.59
523.427	21.86
523.857	22.12
524.286	22.37
524.716	22.63
525.145	22.9
525.575	23.14
526.004	23.37
526.433	23.36
526.863	23.56
527.292	23.77
527.721	23.97
528.15	24.17
528.579	24.34
529.008	24.53
529.437	24.69
529.866	24.84
530.295	24.99
530.724	25.16
531.152	25.31
531.581	25.45
532.01	25.6
532.438	25.75
532.867	25.89
533.295	26.01
533.723	26.14
534.152	26.24
534.58	26.35
535.008	26.44
535.436	26.53
535.865	26.62
536.293	26.72
536.721	26.79
537.149	26.87
537.576	26.93
538.004	27.01
538.432	27.06
538.86	27.13
539.287	27.16
539.715	27.23
540.143	27.28
540.57	27.33
540.998	27.37
541.425	27.43
541.852	27.46
542.28	27.51
542.707	27.54
543.134	27.6
543.561	27.65
543.988	27.71
544.415	27.75
544.842	27.79
545.269	27.83
545.696	27.87
546.123	27.9
546.549	27.93
546.976	27.97
547.403	28.02
547.829	28.04
548.256	28.07
548.682	28.1
549.108	28.13
549.535	28.16
549.961	28.18
550.387	28.2
550.813	28.22
551.24	28.23
551.666	28.24
552.092	28.23
552.518	28.23
552.943	28.22
553.369	28.22
553.795	28.19
554.221	28.15
554.646	28.12
555.072	28.1
555.498	28.04
555.923	28
556.349	27.93
556.774	27.88
557.199	27.82
557.625	27.77
558.05	27.69
558.475	27.63
558.9	27.56
559.325	27.51
559.75	27.4
560.175	27.32
560.6	27.23
561.025	27.14
561.449	27.05
561.874	26.94
562.299	26.83
562.723	26.71
563.148	26.58
563.572	26.44
563.997	26.3
564.421	26.16
564.846	26.01
565.27	25.87
565.694	25.72
566.118	25.58
566.542	25.43
566.966	25.28
567.39	25.13
567.814	24.98
568.238	24.85
568.662	24.69
569.086	24.55
569.509	24.41
569.933	24.26
570.357	24.12
570.78	23.97
571.204	23.84
571.627	23.7
572.05	23.57
572.474	23.46
572.897	23.32
573.32	23.21
573.743	23.08
574.166	22.97
574.589	22.85
575.012	22.72
575.435	22.62
575.858	22.49
576.281	22.38
576.704	22.26
577.126	22.15
577.549	22.04
577.972	21.93
578.394	21.82
578.817	21.72
579.239	21.63
579.661	21.55
580.084	21.47
580.506	21.39
580.928	21.3
581.35	21.22
581.772	21.13
582.194	21.05
582.616	20.97
583.038	20.89
583.46	20.81
583.882	20.74
584.303	20.66
584.725	20.57
585.147	20.51
585.568	20.46
585.99	20.4
586.411	20.33
586.833	20.27
587.254	20.2
587.675	20.14
588.096	20.08
588.518	20.02
588.939	19.97
589.36	19.91
589.781	19.84
590.202	19.78
590.623	19.72
591.043	19.67
591.464	19.63
591.885	19.59
592.305	19.55
592.726	19.51
593.147	19.47
593.567	19.42
593.987	19.37
594.408	19.32
594.828	19.29
595.248	19.26
595.669	19.24
596.089	19.19
596.509	19.15
596.929	19.12
597.349	19.1
597.769	19.05
598.189	19.02
598.608	19
599.028	18.97
599.448	18.92
599.867	18.88
600.287	18.84
600.706	18.8
601.126	18.75
601.545	18.7
601.965	18.64
602.384	18.59
602.803	18.54
603.222	18.49
603.641	18.44
604.061	18.39
604.48	18.33
604.898	18.25
605.317	18.18
605.736	18.12
606.155	18.05
606.574	17.98
606.992	17.9
607.411	17.82
607.829	17.71
608.248	17.62
608.666	17.52
609.085	17.45
609.503	17.38
609.921	17.29
610.339	17.21
610.758	17.14
611.176	17.05
611.594	16.96
612.012	16.87
612.43	16.81
612.847	16.73
613.265	16.65
613.683	16.57
614.101	16.49
614.518	16.4
614.936	16.32
615.353	16.23
615.771	16.17
616.188	16.1
616.606	16.04
617.023	15.98
617.44	15.93
617.857	15.88
618.274	15.82
618.691	15.76
619.108	15.71
619.525	15.67
619.942	15.64
620.359	15.61
620.776	15.57
621.192	15.54
621.609	15.5
622.026	15.46
622.442	15.43
622.859	15.41
623.275	15.38
623.691	15.34
624.108	15.31
624.524	15.28
624.94	15.26
625.356	15.24
625.772	15.22
626.188	15.21
626.604	15.2
627.02	15.19
627.436	15.19
627.852	15.2
628.268	15.2
628.683	15.19
629.099	15.18
629.514	15.16
629.93	15.16
630.345	15.14
630.761	15.11
631.176	15.08
631.591	15.05
632.007	15
632.422	14.95
632.837	14.89
633.252	14.84
633.667	14.79
634.082	14.73
634.497	14.65
634.911	14.58
635.326	14.51
635.741	14.44
636.155	14.34
636.57	14.27
636.984	14.17
637.399	14.1
637.813	14
638.228	13.89
638.642	13.77
639.056	13.67
639.47	13.56
639.884	13.43
640.298	13.3
640.712	13.19
641.126	13.07
641.54	12.95
641.954	12.81
642.368	12.7
642.781	12.6
643.195	12.48
643.609	12.36
644.022	12.24
644.436	12.14
644.849	12.03
645.262	11.91
645.676	11.8
646.089	11.7
646.502	11.61
646.915	11.54
647.328	11.45
647.741	11.37
648.154	11.31
648.567	11.26
648.98	11.2
649.393	11.14
649.805	11.1
650.218	11.05
650.631	11
651.043	10.95
651.456	10.9
651.868	10.84
652.28	10.78
652.693	10.73
653.105	10.67
653.517	10.61
653.929	10.56
654.341	10.49
654.753	10.42
655.165	10.36
655.577	10.29
655.989	10.2
656.401	10.12
656.813	10.05
657.224	9.95
657.636	9.85
658.047	9.76
658.459	9.66
658.87	9.57
659.282	9.46
659.693	9.36
660.104	9.25
660.515	9.16
660.926	9.06
661.338	8.95
661.749	8.86
662.159	8.78
662.57	8.7
662.981	8.62
663.392	8.53
663.803	8.46
664.213	8.39
664.624	8.33
665.035	8.25
665.445	8.2
665.855	8.16
666.266	8.11
666.676	8.06
667.086	8
667.497	7.95
667.907	7.92
668.317	7.9
668.727	7.87
669.137	7.85
669.547	7.83
669.956	7.81
670.366	7.8
670.776	7.78
671.186	7.78
671.595	7.76
672.005	7.76
672.414	7.76
672.824	7.76
673.233	7.75
673.642	7.76
674.052	7.76
674.461	7.78
674.87	7.79
675.279	7.81
675.688	7.82
676.097	7.85
676.506	7.87
676.915	7.9
677.323	7.92
677.732	7.95
678.141	7.99
678.549	8.02
678.958	8.07
679.366	8.14
679.775	8.18
680.183	8.26
680.592	8.35
681	8.44
681.408	8.54
681.816	8.65
682.224	8.78
682.632	8.92
683.04	9.07
683.448	9.23
683.856	9.39
684.264	9.59
684.671	9.8
685.079	10.03
685.487	10.29
685.894	10.57
686.302	10.88
686.709	11.22
687.116	11.57
687.524	11.96
687.931	12.37
688.338	12.81
688.745	13.26
689.152	13.73
689.559	14.24
689.966	14.76
690.373	15.3
690.78	15.86
691.187	16.42
691.593	17
692	17.59
692.407	18.17
692.813	18.8
693.22	19.41
693.626	20.03
694.032	20.66
694.439	21.27
694.845	21.89
695.251	22.52
695.657	23.13
696.063	23.76
696.469	24.38
696.875	25.02
697.281	25.62
697.687	26.23
698.093	26.84
698.498	27.43
698.904	28.01
699.31	28.58
699.715	29.14
700.12	29.7
700.526	30.25
700.931	30.79
701.337	31.29
701.742	31.81
702.147	32.32
702.552	32.81
702.957	33.27
703.362	33.73
703.767	34.18
704.172	34.62
704.577	35.08
704.981	35.52
705.386	35.94
705.791	36.35
706.195	36.76
706.6	37.16
707.004	37.53
707.408	37.93
707.813	38.33
708.217	38.72
708.621	39.1
709.025	39.44
709.43	39.78
709.834	40.13
710.237	40.48
710.641	40.82
711.045	41.13
711.449	41.49
711.853	41.83
712.256	42.13
712.66	42.43
713.064	42.73
713.467	43.03
713.87	43.33
714.274	43.64
714.677	43.93
715.08	44.19
715.484	44.48
715.887	44.75
716.29	44.98
716.693	45.23
717.096	45.5
717.499	45.73
717.901	45.98
718.304	46.19
718.707	46.39
719.109	46.61
719.512	46.83
719.915	47.06
720.317	47.23
720.719	47.4
721.122	47.57
721.524	47.76
721.926	47.96
722.328	48.13
722.731	48.31
723.133	48.5
723.535	48.65
723.937	48.81
724.338	48.94
724.74	49.09
725.142	49.44
725.544	49.6
725.945	49.79
726.347	49.89
726.748	50.01
727.15	50.12
727.551	50.24
727.952	50.34
728.354	50.44
728.755	50.55
729.156	50.64
729.557	50.55
729.958	50.64
730.359	50.67
730.76	50.77
731.161	50.86
731.562	50.98
731.962	51.01
732.363	51.1
732.763	51.17
733.164	51.23
733.564	51.31
733.965	51.41
734.365	51.48
734.766	51.54
735.166	51.62
735.566	51.66
735.966	51.71
736.366	51.78
736.766	51.83
737.166	51.93
737.566	51.98
737.966	52.01
738.365	52.03
738.765	52.11
739.165	52.17
739.564	52.2
739.964	52.25
740.363	52.26
740.763	52.31
741.162	52.36
741.561	52.36
741.96	52.38
742.36	52.44
742.759	52.46
743.158	52.47
743.557	52.48
743.955	52.52
744.354	52.56
744.753	52.6
745.152	52.66
745.55	52.67
745.949	52.68
746.348	52.73
746.746	52.71
747.144	52.76
747.543	52.77
747.941	52.77
748.339	52.73
748.737	52.72
749.136	52.72
749.534	52.66
749.932	52.66
750.33	52.69
750.727	52.68
751.125	52.69
751.523	52.68
751.921	52.69
752.318	52.69
752.716	52.73
753.113	52.75
753.511	52.77
753.908	52.82
754.305	52.86
754.703	52.83
755.1	52.86
755.497	52.9
755.894	52.91
756.291	52.92
756.688	52.96
757.085	52.98
757.482	52.98
757.878	52.99
758.275	52.98
758.672	52.98
759.068	53.04
759.465	53.03
759.861	53.03
760.258	53.06
760.654	53.07
761.05	53.06
761.447	53.07
761.843	53.07
762.239	53.08
762.635	53.11
763.031	53.11
763.427	53.09
763.822	53.11
764.218	53.11
764.614	53.11
765.01	53.14
765.405	53.14
765.801	53.12
766.196	53.09
766.592	53.05
766.987	53.05
767.382	53.05
767.778	53.03
768.173	53.04
768.568	53.04
768.963	53.03
769.358	53.02
769.753	53.01
770.148	53.02
770.542	53.06
770.937	53.08
771.332	53.06
771.726	53.08
772.121	53.11
772.515	53.09
772.91	53.1
773.304	53.11
773.699	53.1
774.093	53.11
774.487	53.1
774.881	53.13
775.275	53.12
775.669	53.1
776.063	53.09
776.457	53.1
776.851	53.08
777.245	53.07
777.638	53.06
778.032	53.09
778.425	53.13
778.819	53.15
779.212	53.18
779.606	53.19
779.999	53.21
780.392	53.22
780.786	53.21
781.179	53.27
781.572	53.31
781.965	53.33
782.358	53.33
782.751	53.31
783.143	53.3
783.536	53.25
783.929	53.25
784.322	53.27
784.714	53.27
785.107	53.3
785.499	53.27
785.891	53.25
786.284	53.27
786.676	53.27
787.068	53.26
787.46	53.28
787.852	53.29
788.245	53.3
788.636	53.29
789.028	53.31
789.42	53.28
789.812	53.3
790.204	53.31
790.595	53.29
790.987	53.3
791.378	53.33
791.77	53.33
792.161	53.37
792.553	53.38
792.944	53.37
793.335	53.37
793.726	53.4
794.117	53.37
794.508	53.36
794.899	53.37
795.29	53.37
795.681	53.35
796.072	53.33
796.463	53.38
796.853	53.4
797.244	53.43
797.634	53.44
798.025	53.42
798.415	53.42
798.806	53.42
799.196	53.43
799.586	53.44
799.976	53.46
800.366	53.46
800.756	53.39
801.146	53.37
801.536	53.38
801.926	53.36
802.316	53.37
802.706	53.42
803.095	53.43
803.485	53.43
803.874	53.44
804.264	53.43
804.653	53.44
805.043	53.47
805.432	53.47
805.821	53.45
806.21	53.47
806.599	53.48
806.988	53.45
807.377	53.43
807.766	53.43
808.155	53.43
808.544	53.46
808.933	53.45
809.321	53.44
809.71	53.44
810.098	53.44
810.487	53.41
810.875	53.4
811.264	53.4
811.652	53.46
812.04	53.43
812.428	53.44
812.816	53.41
813.204	53.4
813.592	53.36
813.98	53.37
814.368	53.39
814.756	53.38
815.144	53.38
815.531	53.36
815.919	53.31
816.306	53.31
816.694	53.28
817.081	53.28
817.469	53.32
817.856	53.36
818.243	53.33
818.63	53.33
819.017	53.32
819.404	53.3
819.791	53.31
820.178	53.33
820.565	53.34
820.952	53.36
821.339	53.33
821.725	53.3
822.112	53.32
822.498	53.35
822.885	53.38
823.271	53.37
823.657	53.35
824.044	53.36
824.43	53.35
824.816	53.36
825.202	53.33
825.588	53.33
825.974	53.34
826.36	53.31
826.746	53.28
827.132	53.24
827.517	53.24
827.903	53.28
828.289	53.28
828.674	53.28
829.06	53.25
829.445	53.27
829.83	53.27
830.216	53.26
830.601	53.25
830.986	53.27
831.371	53.25
831.756	53.27
832.141	53.25
832.526	53.23
832.911	53.22
833.295	53.21
833.68	53.21
834.065	53.2
834.449	53.18
834.834	53.15
835.218	53.13
835.603	53.14
835.987	53.1
836.371	53.09
836.755	53.06
837.139	53.02
837.524	53.03
837.908	53.04
838.291	53.05
838.675	53.04
839.059	53.06
839.443	53.03
839.827	53.01
840.21	53
840.594	53.01
840.977	53.03
841.361	53.05
841.744	53.04
842.127	53
842.511	52.98
842.894	52.97
843.277	52.95
843.66	52.93
844.043	52.96
844.426	52.97
844.809	52.97
845.191	52.99
845.574	52.96
845.957	52.96
846.339	52.97
846.722	52.98
847.104	53.01
847.487	52.99
847.869	53.01
848.252	53
848.634	53
849.016	53
849.398	53
849.78	53
850.162	53
850.544	52.99
850.926	52.97
851.307	52.97
851.689	53
852.071	53
852.452	52.97
852.834	52.99
853.215	52.97
853.597	52.96
853.978	52.99
854.359	53
854.741	52.99
855.122	53
855.503	52.98
855.884	52.96
856.265	52.96
856.646	52.98
857.026	52.98
857.407	53.01
857.788	53
858.169	53.01
858.549	53.01
858.93	53.02
859.31	53.01
859.69	53.02
860.071	53.04
860.451	53.03
860.831	53.03
861.211	53
861.591	52.98
861.971	52.98
862.351	52.99
862.731	53.01
863.111	52.99
863.491	52.99
863.87	52.98
864.25	52.95
864.629	52.97
865.009	52.96
865.388	52.97
865.768	52.98
866.147	53
866.526	52.98
866.905	52.96
867.284	52.99
867.663	52.98
868.042	53
868.421	53.05
868.8	53.08
869.179	53.1
869.558	53.08
869.936	53.07
870.315	53.05
870.693	53.05
871.072	53.08
871.45	53.1
871.828	53.12
872.207	53.13
872.585	53.09
872.963	53.09
873.341	53.09
873.719	53.13
874.097	53.14
874.475	53.18
874.853	53.19
875.23	53.19
875.608	53.17
875.986	53.22
876.363	53.21
876.741	53.23
877.118	53.22
877.495	53.23
877.873	53.23
878.25	53.25
878.627	53.22
879.004	53.18
879.381	53.18
879.758	53.17
880.135	53.13
880.512	53.11
880.889	53.12
881.265	53.1
881.642	53.06
882.019	53.03
882.395	52.98
882.772	52.97
883.148	52.98
883.524	52.95
883.901	52.93
884.277	52.88
884.653	52.85
885.029	52.8
885.405	52.79
885.781	52.77
886.157	52.74
886.532	52.74
886.908	52.72
887.284	52.7
887.659	52.68
888.035	52.67
888.411	52.65
888.786	52.65
889.161	52.67
889.537	52.66
889.912	52.66
890.287	52.68
890.662	52.66
891.037	52.66
891.412	52.65
891.787	52.62
892.162	52.62
892.536	52.64
892.911	52.64
893.286	52.63
893.66	52.63
894.035	52.63
894.409	52.62
894.784	52.63
895.158	52.65
895.532	52.68
895.906	52.73
896.281	52.76
896.655	52.78
897.029	52.81
897.402	52.79
897.776	52.82
898.15	52.82
898.524	52.85
898.898	52.86
899.271	52.88
899.645	52.9
900.018	52.91
900.392	52.91
900.765	52.93
901.138	52.9
901.511	52.93
901.884	52.94
902.258	52.97
902.631	52.97
903.003	53.01
903.376	53.01
903.749	53
904.122	53.01
904.495	53.02
904.867	53.03
905.24	53.08
905.612	53.1
905.985	53.1
906.357	53.11
906.729	53.13
907.102	53.12
907.474	53.11
907.846	53.1
908.218	53.1
908.59	53.14
908.962	53.17
909.334	53.19
909.705	53.19
910.077	53.2
910.449	53.2
910.82	53.19
911.192	53.17
911.563	53.16
911.935	53.16
912.306	53.18
912.677	53.19
913.048	53.17
913.419	53.17
913.79	53.19
914.161	53.18
914.532	53.19
914.903	53.22
915.274	53.25
915.645	53.32
916.015	53.35
916.386	53.36
916.756	53.35
917.127	53.36
917.497	53.34
917.868	53.35
918.238	53.39
918.608	53.44
918.978	53.45
919.348	53.48
919.718	53.44
920.088	53.39
920.458	53.39
920.828	53.38
921.198	53.37
921.567	53.38
921.937	53.38
922.306	53.37
922.676	53.35
923.045	53.33
923.415	53.34
923.784	53.37
924.153	53.46
924.522	53.5
924.891	53.5
925.26	53.52
925.629	53.53
925.998	53.54
926.367	53.53
926.736	53.54
927.104	53.54
927.473	53.47
927.842	53.42
928.21	53.42
928.578	53.36
928.947	53.39
929.315	53.38
929.683	53.37
930.051	53.36
930.42	53.39
930.788	53.35
931.156	53.34
931.523	53.38
931.891	53.45
932.259	53.45
932.627	53.48
932.994	53.52
933.362	53.58
933.729	53.63
934.097	53.7
934.464	53.74
934.831	53.78
935.199	53.9
935.566	53.98
935.933	53.96
936.3	53.97
936.667	54.04
937.034	54.1
937.401	54.12
937.767	54.15
938.134	54.18
938.501	54.21
938.867	54.3
939.234	54.25
939.6	54.26
939.967	54.34
940.333	54.36
940.699	54.38
941.065	54.26
941.431	54.23
941.798	54.23
942.163	54.18
942.529	54.1
942.895	54.05
943.261	54.06
943.627	54.02
943.992	53.97
944.358	53.97
944.723	53.89
945.089	53.86
945.454	53.87
945.82	53.76
946.185	53.75
946.55	53.68
946.915	53.61
947.28	53.6
947.645	53.6
948.01	53.57
948.375	53.54
948.74	53.55
949.104	53.58
949.469	53.47
949.834	53.44
950.198	53.44
950.562	53.43
950.927	53.38
951.291	53.33
951.655	53.24
952.02	53.2
952.384	53.07
952.748	53
953.112	52.96
953.476	52.97
953.839	52.95
954.203	52.9
954.567	52.88
954.931	52.87
955.294	52.84
955.658	52.85
956.021	52.85
956.385	52.9
956.748	52.91
957.111	52.86
957.474	52.83
957.837	52.83
958.2	52.79
958.563	52.78
958.926	52.79
959.289	52.86
959.652	52.85
960.015	52.85
960.377	52.85
960.74	52.87
961.102	52.92
961.465	53
961.827	53.1
962.189	53.16
962.552	53.17
962.914	53.16
963.276	53.13
963.638	53.16
964	53.17
964.362	53.21
964.724	53.18
965.085	53.12
965.447	53.09
965.809	53.01
966.17	52.97
966.532	52.96
966.893	53.02
967.255	52.98
967.616	52.94
967.977	52.9
968.338	52.85
968.699	52.88
969.061	52.87
969.421	52.9
969.782	52.95
970.143	53.02
970.504	53.11
970.865	53.13
971.225	53.19
971.586	53.19
971.946	53.18
972.307	53.23
972.667	53.23
973.027	53.32
973.388	53.28
973.748	53.27
974.108	53.26
974.468	53.22
974.828	53.26
975.188	53.2
975.548	53.23
975.907	53.34
976.267	53.34
976.627	53.39
976.986	53.37
977.346	53.35
977.705	53.37
978.064	53.38
978.424	53.4
978.783	53.31
979.142	53.34
979.501	53.37
979.86	53.44
980.219	53.39
980.578	53.39
980.937	53.41
981.296	53.47
981.654	53.5
982.013	53.5
982.371	53.53
982.73	53.65
983.088	53.67
983.447	53.67
983.805	53.69
984.163	53.77
984.521	53.76
984.879	53.75
985.237	53.81
985.595	53.85
985.953	53.87
986.311	53.81
986.669	53.84
987.026	53.86
987.384	53.88
987.741	53.77
988.099	53.87
988.456	53.91
988.814	53.97
989.171	53.97
989.528	54.01
989.885	54.04
990.242	54.14
990.599	54.16
990.956	54.25
991.313	54.37
991.67	54.51
992.027	54.7
992.383	54.81
992.74	54.95
993.096	55.02
993.453	55.02
993.809	55.07
994.165	55.17
994.522	55.26
994.878	55.3
995.234	55.3
995.59	55.25
995.946	55.17
996.302	55.24
996.658	55.22
997.013	55.2
997.369	55.28
997.725	55.48
998.08	55.57
998.436	55.55
998.791	55.62
999.147	55.68
999.502	55.87
999.857	55.84
1000.212	55.8
1000.567	55.92
1000.922	56
1001.277	56.13
1001.632	56.06
1001.987	55.99
1002.342	55.98
1002.696	55.99
1003.051	56.18
1003.406	56.25
1003.76	56.32
1004.114	56.41
1004.469	56.55
1004.823	56.88
1005.177	56.82
1005.531	57.05
1005.885	57.16
1006.239	57.28
1006.593	57.62
1006.947	57.62
1007.301	57.44
1007.655	57.53
1008.008	57.59
1008.362	57.61
1008.715	57.51
1009.069	57.57
1009.422	57.61
1009.776	57.6
1010.129	57.76
1010.482	57.59
1010.835	57.7
1011.188	58.06
1011.541	58.24
1011.894	58.38
1012.247	58.44
1012.6	58.52
1012.952	58.66
1013.305	58.76
1013.657	58.92
1014.01	59.01
1014.362	59.08
1014.715	59.32
1015.067	59.46
1015.419	59.56
1015.771	59.55
1016.123	59.67
1016.475	59.83
1016.827	60.14
1017.179	60.24
1017.531	60.48
1017.883	60.57
1018.234	60.97
1018.586	60.98
1018.938	61.31
1019.289	61.29
1019.64	61.5
1019.992	61.85
1020.343	61.95
1020.694	61.97
1021.045	62.14
1021.396	62.31
1021.747	62.63
1022.098	62.55
1022.449	62.64
1022.8	62.74
1023.151	62.96
1023.501	63.19
1023.852	63.15
1024.202	63.33
1024.553	63.41
1024.903	63.76
1025.253	64.08
1025.604	64.01
1025.954	63.95
1026.304	64.09
1026.654	64.18
1027.004	64.14
1027.354	64.38
1027.703	64.46
1028.053	64.51
1028.403	64.83
1028.753	64.42
1029.102	64.57
1029.452	64.9
1029.801	65.5
1030.15	65.56
1030.499	65.21
897.758	1934.87
901.051	1938.9
904.343	1929.98
907.636	1967.75
910.928	1918.14
914.22	1912.12
917.511	1883.44
920.803	1803.27
924.094	1794.46
927.384	1755.51
930.675	1676.05
933.965	1664.65
937.255	1571.13
940.544	1508.48
943.834	1430.44
947.123	1415.16
950.411	1337.04
953.7	1308.26
956.988	1234.89
960.276	1184.01
963.563	1167.87
966.851	1126.36
970.138	1117.21
973.424	1080.39
976.711	1088.14
979.997	1034.83
983.283	1032.12
986.568	1008.01
989.853	972.83
993.138	958.49
996.423	921.77
999.708	894.28
1002.992	887.56
1006.275	843.66
1009.559	835.27
1012.842	804.85
1016.125	783.64
1019.408	766.94
1022.69	755.29
1025.972	744.04
1029.254	724.82
1032.536	712.75
1035.817	697.04
1039.098	687.27
1042.379	673.29
1045.659	666.01
1048.939	648.58
1052.219	635.73
1055.498	625.42
1058.778	612.98
1062.057	596.28
1065.335	589.39
1068.614	582.25
1071.892	576.69
1075.17	555.37
1078.447	545.77
1081.724	542.07
1085.001	538.23
1088.278	525.39
1091.554	515.86
1094.83	514.94
1098.106	512.94
1101.382	508.27
1104.657	504.62
1107.932	495.29
1111.206	500.99
1114.481	487.74
1117.755	481.74
1121.029	478.23
1124.302	479.44
1127.575	468.59
1130.848	462.94
1134.121	456.77
1137.393	455.21
1140.665	444.42
1143.937	443.15
1147.208	437.14
1150.48	438.03
1153.75	431.94
1157.021	424.23
1160.291	424.67
1163.561	421.42
1166.831	420.45
1170.101	418.19
1173.37	416.08
1176.639	417.56
1179.907	412.87
1183.176	409.4
1186.444	407.71
1189.711	408.52
1192.979	407.65
1196.246	403.72
1199.513	404.79
1202.78	403
1206.046	402.95
1209.312	398.83
1212.578	399.91
1215.843	403.01
1219.108	399.92
1222.373	409.14
1225.638	411.75
1228.902	419.35
1232.166	418.71
1235.43	423.67
1238.693	429.17
1241.956	430.65
1245.219	438.79
1248.482	437.3
1251.744	438.2
1255.006	439.42
1258.268	428.43
1261.529	424.05
1264.79	418.97
1268.051	417.54
1271.312	411.05
1274.572	405.4
1277.832	401.59
1281.092	395.12
1284.351	392.83
1287.61	392.5
1290.869	386.57
1294.128	383.61
1297.386	383.23
1300.644	379.64
1303.902	380.55
1307.159	378.53
1310.416	379.96
1313.673	380.56
1316.93	383.62
1320.186	383.8
1323.442	384.77
1326.697	392.79
1329.953	393.4
1333.208	395.36
1336.463	400.22
1339.717	401.74
1342.972	405.54
1346.226	408.79
1349.479	408.26
1352.733	411.03
1355.986	412.7
1359.238	412.19
1362.491	415.49
1365.743	419.68
1368.995	420.36
1372.247	418.19
1375.498	418.96
1378.749	424.42
1382	418.04
1385.251	421.12
1388.501	418.04
1391.751	421.43
1395	418.11
1398.25	414.91
1401.499	413.11
1404.748	412.21
1407.996	408.78
1411.244	406.22
1414.492	404.51
1417.74	401.73
1420.987	394.75
1424.234	395.28
1427.481	388.01
1430.728	390.02
1433.974	384.42
1437.22	381.47
1440.465	380.83
1443.711	379.13
1446.956	377.54
1450.201	370.96
1453.445	367.36
1456.689	366.79
1459.933	360
1463.177	357.55
1466.42	350.67
1469.663	347.54
1472.906	345.86
1476.148	336.11
1479.391	330.87
1482.633	326.89
1485.874	322.86
1489.115	321.43
1492.356	316.08
1495.597	315.35
1498.838	311.11
1502.078	309.32
1505.318	307.26
1508.557	306.71
1511.797	307.22
1515.036	306.17
1518.274	305.24
1521.513	300.99
1524.751	301.02
1527.989	300.48
1531.227	298.86
1534.464	300.58
1537.701	297.36
1540.938	296.67
1544.174	293.09
1547.41	291.85
1550.646	290.74
1553.882	290.74
1557.117	288.18
1560.352	285.43
1563.587	285.2
1566.821	282.83
1570.055	278.8
1573.289	277.32
1576.523	277.18
1579.756	274.54
1582.989	273
1586.222	272.7
1589.454	270.46
1592.686	272.32
1595.918	271.73
1599.15	270.45
1602.381	270.73
1605.612	270.74
1608.843	272.7
1612.073	271.2
1615.303	273.33
1618.533	274.14
1621.762	272.73
1624.992	272.97
1628.221	272.99
1631.449	272.65
1634.678	271.79
1637.906	273.15
1641.134	273.15
1644.361	272.02
1647.588	273.68
1650.815	272.08
1654.042	270.06
1657.269	272.35
1660.495	272.76
1663.72	270.18
1666.946	271.19
1670.171	271.93
1673.396	271.94
1676.621	271.64
1679.845	271.27
1683.069	270.98
1686.293	272.8
1689.517	275.11
1692.74	274.13
1695.963	275.61
1699.185	279.68
1702.408	279.47
1705.63	280.34
1708.852	281.1
1712.073	281.71
1715.294	282.89
1718.515	283.69
1721.736	283.57
1724.956	283.55
1728.176	283.74
1731.396	286.4
1734.616	285.31
1737.835	286.45
1741.054	285.26
1744.272	285.64
1747.491	289.26
1750.709	289.72
1753.927	290.51
1757.144	288.48
1760.361	291.2
1763.578	291.38
1766.795	290.13
1770.011	292.03
1773.227	292.34
1776.443	295.67
1779.658	297.94
1782.874	295.63
1786.089	297.43
1789.303	298.48
1792.518	302.6
1795.732	301.48
1798.945	305.34
1802.159	305.26
1805.372	306.93
1808.585	312.48
1811.797	313.4
1815.01	312.76
1818.222	316.25
1821.434	317.47
1824.645	319.03
1827.856	324.77
1831.067	328.24
1834.278	325.41
1837.488	328.14
1840.698	330.6
1843.908	326.68
1847.117	329.29
1850.326	332.04
1853.535	330.67
1856.744	336.61
1859.952	336.17
1863.16	335.04
1866.368	331.93
1869.575	338.77
1872.782	332.4
1875.989	331.44
1879.196	330.69
1882.402	328.48
1885.608	329.96
1888.814	331.87
1892.019	330.93
1895.224	330.11
1898.429	328.07
1901.634	331.31
1904.838	330.37
1908.042	336.61
1911.246	336.87
1914.449	339.3
1917.652	339.59
1920.855	339.69
1924.058	338.36
1927.26	336.56
1930.462	338.9
1933.664	342.93
1936.865	339.49
1940.066	339.9
1943.267	336.95
1946.467	337.17
1949.668	340.02
1952.868	344.14
1956.067	343.11
1959.267	343.92
1962.466	345.18
1965.665	343.13
1968.863	343.25
1972.061	348.52
1975.259	351.16
1978.457	354.12
1981.654	356.22
1984.852	356.91
1988.048	355.26
1991.245	358.41
1994.441	363.72
1997.637	365.28
2000.833	372.3
2004.028	377.86
2007.223	379.01
2010.418	383.55
2013.613	389.27
2016.807	394.46
2020.001	396.26
2023.194	402.98
2026.388	412.82
2029.581	420.8
2032.774	425.95
2035.966	433.46
2039.158	434.97
2042.35	443.76
2045.542	445.58
2048.733	452
2051.924	458.48
2055.115	466.99
2058.306	467.06
2061.496	472.89
2064.686	472.04
2067.875	480.38
2071.065	481.85
2074.254	479.3
2077.442	485.03
2080.631	487.24
2083.819	492.71
2087.007	492.3
2090.195	498.05
2093.382	502.46
2096.569	496.91
2099.756	506.71
2102.942	506.71
2106.128	514.21
2109.314	524.91
2112.5	522.55
2115.685	534.14
2118.87	535.39
2122.055	546.19
2125.239	551.2
2128.424	557.99
2131.608	562.45
2134.791	568.39
2137.974	571.47
2141.157	571.74
2144.34	572.58
2147.523	582.38
2150.705	577.75
2153.887	583.18
2157.068	584.15
2160.25	578.18
2163.431	580.45
2166.611	587.5
2169.792	598.95
2172.972	606.88
2176.152	608.63
2179.331	618.38
2182.511	630.03
2185.69	637.71
2188.868	649.77
2192.047	652.15
2195.225	670.35
2198.403	688.58
2201.58	699.29
2204.758	713.31
2207.935	728.57
2211.111	742.48
2214.288	751.17
2217.464	753.08
2220.64	762.2
2223.815	775.31
2226.991	805.39
2230.166	808.56
2233.34	824.51
2236.515	837.16
2239.689	837.05
2242.863	839.73
2246.036	868.03
2249.209	858.44
2252.382	869.53
2255.555	900.27
2258.727	900.95
2261.9	905.08
2265.071	914.28
2268.243	926.17
2271.414	938.8
2274.585	963.36
2277.756	973.87
2280.926	976.25
2284.096	1000.1
2287.266	1024.92
2290.436	1031.76
2293.605	1058.33
2296.774	1094.67
2299.942	1126.63
2303.111	1132.99
2306.279	1161.79
2309.447	1173.4
2312.614	1201.32
2315.781	1237.32
2318.948	1295.3
2322.115	1274.72
2325.281	1342.95
2328.447	1312.08
2331.613	1364.78
2334.779	1348.9
2337.944	1410.61
2341.109	1424.42
2344.274	1463.95
2347.438	1519.44
2350.602	1519.65
2353.766	1561.31
2356.929	1584.88
2360.092	1571.13
2363.255	1691.5
2366.418	1683.78
2369.58	1721.33
2372.742	1821.18
2375.904	1866.77
2379.066	1854.01
2382.227	1818.41
2385.388	1971.21
2388.548	1978.52
2391.709	2009.88
2394.869	2235.99
2398.029	2131.79
2401.188	2195.18
2404.347	2181.23
2407.506	2151.89
2410.665	2216.96
2413.823	2345.16
2416.981	2483.77
2420.139	2400.55
2423.296	2374.1
2426.453	2466.26
2429.61	2377.92
2432.767	2493.79
2435.923	2474.79
2439.079	2690.79
2442.235	2719.77
2445.391	2686.01
2448.546	2680.81
2451.701	2600.54
2454.855	2601.49
2458.009	2760.07
2461.163	2879.07
2464.317	2982.77
2467.471	3058.72
2470.624	3056.42
2473.777	2985.88
2476.929	2917.77
2480.082	2839.38
2483.234	2797.59
2486.385	2932.68
2489.537	2946.15
2492.688	3063.81
2495.839	2969.76
2498.989	2909.8
2502.14	2928.58
2505.29	2963.71
2508.439	3011.12
2511.589	3000.73
2514.738	3266.74
2517.887	3200.19
2521.035	3397.84
2524.183	3415.35
2527.331	3441.32
2530.479	3440.71
2533.627	3463.44
