Data from C_2_DIV_WI_4N_Splice17_13-21-31-009.txt Node
Date: Sat Mar 07 13:21:31 EST 2020
User: sa697716
Spectrometer: NQ5500242
Trigger mode: 0
Integration Time (sec): 1.450000E-1
Scans to average: 20
Nonlinearity correction enabled: false
Boxcar width: 5
Storing dark spectrum: false
XAxis mode: Wavelengths
Number of Pixels in Spectrum: 512
>>>>>Begin Spectral Data<<<<<
187.83	162.09
188.298	186.39
188.766	176.66
189.233	144.48
189.701	141.31
190.169	160.91
190.636	168.82
191.104	264.66
191.571	165.68
192.039	44.1
192.506	-368.16
192.974	45.57
193.441	166.82
193.908	85.1
194.375	60.54
194.842	-8.27
195.31	-55.85
195.777	-245.74
196.244	27.68
196.711	41.02
197.177	46.7
197.644	47.08
198.111	47.12
198.578	47.02
199.045	47.34
199.511	47.41
199.978	47.63
200.445	48.14
200.911	48.24
201.378	48.39
201.844	48.33
202.31	47.9
202.777	47.81
203.243	47.67
203.709	47.49
204.176	47.07
204.642	46.62
205.108	46.47
205.574	46.16
206.04	45.46
206.506	44.87
206.972	44.67
207.438	44.21
207.903	43.45
208.369	42.55
208.835	41.72
209.301	40.93
209.766	39.81
210.232	38.66
210.697	37.43
211.163	36.62
211.628	35.85
212.094	34.79
212.559	34
213.024	33.24
213.49	32.61
213.955	32.03
214.42	31.36
214.885	30.51
215.35	29.47
215.815	28.12
216.28	26.22
216.745	24.02
217.21	22.02
217.675	20.03
218.14	18.22
218.604	16.82
219.069	15.53
219.534	14.49
219.998	13.68
220.463	12.97
220.927	12.29
221.392	11.8
221.856	11.42
222.32	11.06
222.785	10.78
223.249	10.57
223.713	10.32
224.177	10.13
224.642	9.9
225.106	9.69
225.57	9.47
226.034	9.32
226.497	9.16
226.961	8.98
227.425	8.83
227.889	8.68
228.353	8.52
228.816	8.36
229.28	8.21
229.744	8.1
230.207	7.96
230.671	7.85
231.134	7.72
231.597	7.62
232.061	7.54
232.524	7.42
232.987	7.32
233.45	7.24
233.914	7.15
234.377	7.06
234.84	6.98
235.303	6.9
235.766	6.83
236.229	6.76
236.691	6.69
237.154	6.61
237.617	6.56
238.08	6.49
238.542	6.41
239.005	6.36
239.468	6.29
239.93	6.23
240.393	6.17
240.855	6.1
241.317	6.03
241.78	5.96
242.242	5.89
242.704	5.84
243.166	5.78
243.629	5.74
244.091	5.68
244.553	5.63
245.015	5.57
245.477	5.52
245.939	5.47
246.4	5.42
246.862	5.37
247.324	5.32
247.786	5.26
248.247	5.22
248.709	5.14
249.17	5.09
249.632	5.06
250.093	5.01
250.555	4.97
251.016	4.94
251.477	4.9
251.939	4.86
252.4	4.83
252.861	4.8
253.322	4.77
253.783	4.75
254.244	4.71
254.705	4.67
255.166	4.64
255.627	4.59
256.088	4.57
256.549	4.53
257.009	4.49
257.47	4.45
257.931	4.41
258.391	4.37
258.852	4.33
259.312	4.3
259.773	4.26
260.233	4.23
260.694	4.19
261.154	4.16
261.614	4.13
262.074	4.1
262.534	4.06
262.994	4.03
263.455	4
263.915	3.98
264.374	3.95
264.834	3.93
265.294	3.9
265.754	3.89
266.214	3.87
266.673	3.85
267.133	3.84
267.593	3.83
268.052	3.82
268.512	3.81
268.971	3.8
269.431	3.79
269.89	3.78
270.349	3.77
270.809	3.76
271.268	3.75
271.727	3.74
272.186	3.72
272.645	3.71
273.104	3.69
273.563	3.68
274.022	3.66
274.481	3.66
274.94	3.64
275.399	3.63
275.857	3.62
276.316	3.61
276.775	3.6
277.233	3.6
277.692	3.59
278.15	3.59
278.609	3.59
279.067	3.58
279.525	3.57
279.984	3.56
280.442	3.55
280.9	3.55
281.358	3.54
281.816	3.54
282.274	3.53
282.732	3.52
283.19	3.52
283.648	3.51
284.106	3.5
284.564	3.49
285.021	3.49
285.479	3.49
285.937	3.48
286.394	3.46
286.852	3.44
287.309	3.43
287.767	3.42
288.224	3.41
288.682	3.39
289.139	3.38
289.596	3.35
290.053	3.33
290.511	3.31
290.968	3.3
291.425	3.28
291.882	3.27
292.339	3.26
292.796	3.25
293.252	3.23
293.709	3.22
294.166	3.22
294.623	3.21
295.079	3.2
295.536	3.2
295.992	3.2
296.449	3.19
296.905	3.19
297.362	3.18
297.818	3.17
298.274	3.18
298.731	3.17
299.187	3.15
299.643	3.15
300.099	3.14
300.555	3.13
301.011	3.11
301.467	3.11
301.923	3.1
302.379	3.09
302.835	3.09
303.291	3.08
303.746	3.08
304.202	3.08
304.658	3.08
305.113	3.08
305.569	3.08
306.024	3.09
306.479	3.08
306.935	3.08
307.39	3.08
307.845	3.09
308.301	3.08
308.756	3.08
309.211	3.07
309.666	3.08
310.121	3.08
310.576	3.08
311.031	3.07
311.486	3.07
311.94	3.08
312.395	3.07
312.85	3.07
313.305	3.07
313.759	3.07
314.214	3.07
314.668	3.06
315.123	3.05
315.577	3.05
316.032	3.05
316.486	3.05
316.94	3.04
317.394	3.04
317.849	3.03
318.303	3.02
318.757	3
319.211	3
319.665	2.98
320.119	2.97
320.572	2.96
321.026	2.95
321.48	2.94
321.934	2.92
322.387	2.92
322.841	2.91
323.295	2.91
323.748	2.91
324.202	2.9
324.655	2.91
325.108	2.92
325.562	2.92
326.015	2.91
326.468	2.92
326.921	2.92
327.374	2.92
327.827	2.93
328.28	2.92
328.733	2.93
329.186	2.93
329.639	2.93
330.092	2.93
330.545	2.92
330.997	2.92
331.45	2.92
331.903	2.93
332.355	2.93
332.808	2.92
333.26	2.93
333.713	2.92
334.165	2.92
334.617	2.92
335.069	2.92
335.522	2.93
335.974	2.94
336.426	2.93
336.878	2.92
337.33	2.92
337.782	2.93
338.234	2.94
338.686	2.93
339.137	2.94
339.589	2.93
340.041	2.93
340.493	2.92
340.944	2.9
341.396	2.89
341.847	2.88
342.299	2.86
342.75	2.85
343.201	2.84
343.653	2.83
344.104	2.8
344.555	2.79
345.006	2.78
345.457	2.78
345.908	2.78
346.359	2.77
346.81	2.77
347.261	2.76
347.712	2.76
348.163	2.75
348.613	2.75
349.064	2.76
349.515	2.76
349.965	2.76
350.416	2.75
350.866	2.75
351.317	2.74
351.767	2.75
352.217	2.76
352.668	2.76
353.118	2.76
353.568	2.76
354.018	2.76
354.468	2.78
354.918	2.78
355.368	2.79
355.818	2.79
356.268	2.8
356.718	2.8
357.168	2.8
357.617	2.79
358.067	2.79
358.517	2.8
358.966	2.81
359.416	2.81
359.865	2.81
360.315	2.81
360.764	2.81
361.213	2.81
361.663	2.8
362.112	2.8
362.561	2.81
363.01	2.81
363.459	2.8
363.908	2.8
364.357	2.8
364.806	2.8
365.255	2.8
365.703	2.81
366.152	2.83
366.601	2.84
367.05	2.85
367.498	2.86
367.947	2.88
368.395	2.9
368.844	2.9
369.292	2.91
369.74	2.92
370.189	2.92
370.637	2.91
371.085	2.91
371.533	2.92
371.981	2.92
372.429	2.93
372.877	2.93
373.325	2.93
373.773	2.93
374.221	2.94
374.669	2.96
375.116	2.97
375.564	2.98
376.012	3
376.459	3.01
376.907	3.03
377.354	3.04
377.801	3.05
378.249	3.08
378.696	3.09
379.143	3.11
379.591	3.13
380.038	3.15
380.485	3.17
380.932	3.2
381.379	3.22
381.826	3.23
382.273	3.25
382.72	3.26
383.166	3.28
383.613	3.31
384.06	3.31
384.506	3.33
384.953	3.34
385.4	3.37
385.846	3.4
386.292	3.41
386.739	3.43
387.185	3.46
387.631	3.49
388.078	3.51
388.524	3.54
388.97	3.57
389.416	3.6
389.862	3.63
390.308	3.67
390.754	3.69
391.2	3.72
391.645	3.76
392.091	3.79
392.537	3.82
392.983	3.86
393.428	3.89
393.874	3.91
394.319	3.95
394.765	3.98
395.21	4
395.655	4.03
396.101	4.07
396.546	4.09
396.991	4.13
397.436	4.15
397.881	4.19
398.326	4.22
398.771	4.25
399.216	4.27
399.661	4.31
400.106	4.33
400.551	4.35
400.995	4.36
401.44	4.38
401.885	4.4
402.329	4.42
402.774	4.44
403.218	4.47
403.663	4.5
404.107	4.52
404.551	4.53
404.995	4.55
405.44	4.56
405.884	4.57
406.328	4.59
406.772	4.6
407.216	4.62
407.66	4.63
408.104	4.62
408.547	4.63
408.991	4.64
409.435	4.65
409.879	4.66
410.322	4.69
410.766	4.71
411.209	4.75
411.653	4.76
412.096	4.78
412.54	4.8
412.983	4.82
413.426	4.86
413.869	4.89
414.312	4.92
414.756	4.93
415.199	4.93
415.642	4.95
416.085	4.96
416.527	4.96
416.97	4.95
417.413	4.96
417.856	4.97
418.298	4.96
418.741	4.95
419.184	4.94
419.626	4.94
420.069	4.96
420.511	4.96
420.953	4.95
421.396	4.96
421.838	4.96
422.28	4.97
422.722	4.98
423.164	4.98
423.606	4.98
424.048	4.99
424.49	4.99
424.932	4.98
425.374	4.96
425.816	4.93
426.258	4.92
426.699	4.91
427.141	4.89
427.582	4.89
428.024	4.89
428.465	4.89
428.907	4.89
429.348	4.88
429.789	4.89
430.231	4.9
430.672	4.94
431.113	4.97
431.554	4.98
431.995	5
432.436	5
432.877	5.01
433.318	5.04
433.759	5.06
434.2	5.08
434.64	5.1
435.081	5.12
435.522	5.13
435.962	5.13
436.403	5.16
436.843	5.18
437.284	5.19
437.724	5.19
438.164	5.19
438.604	5.2
439.045	5.22
439.485	5.23
439.925	5.23
440.365	5.24
440.805	5.26
441.245	5.27
441.685	5.3
442.125	5.34
442.564	5.36
443.004	5.37
443.444	5.41
443.883	5.43
444.323	5.43
444.762	5.46
445.202	5.48
445.641	5.51
446.081	5.55
446.52	5.56
446.959	5.61
447.398	5.64
447.837	5.69
448.276	5.7
448.716	5.74
449.154	5.79
449.593	5.83
450.032	5.85
450.471	5.85
450.91	5.85
451.349	5.87
451.787	5.87
452.226	5.87
452.664	5.87
453.103	5.88
453.541	5.87
453.98	5.87
454.418	5.86
454.856	5.85
455.295	5.85
455.733	5.83
456.171	5.83
456.609	5.82
457.047	5.81
457.485	5.8
457.923	5.81
458.361	5.8
458.798	5.81
459.236	5.81
459.674	5.81
460.111	5.81
460.549	5.84
460.987	5.84
461.424	5.85
461.862	5.86
462.299	5.86
462.736	5.85
463.173	5.85
463.611	5.86
464.048	5.85
464.485	5.87
464.922	5.87
465.359	5.86
465.796	5.88
466.233	5.88
466.67	5.88
467.106	5.89
467.543	5.89
467.98	5.89
468.416	5.88
468.853	5.88
469.29	5.87
469.726	5.87
470.162	5.87
470.599	5.85
471.035	5.85
471.471	5.84
471.907	5.83
472.344	5.84
472.78	5.84
473.216	5.84
473.652	5.84
474.088	5.84
474.523	5.85
474.959	5.85
475.395	5.83
475.831	5.84
476.266	5.85
476.702	5.84
477.138	5.83
477.573	5.83
478.008	5.84
478.444	5.82
478.879	5.83
479.314	5.83
479.75	5.83
480.185	5.82
480.62	5.81
481.055	5.81
481.49	5.81
481.925	5.8
482.36	5.8
482.795	5.8
483.229	5.8
483.664	5.82
484.099	5.82
484.534	5.82
484.968	5.84
485.403	5.85
485.837	5.87
486.271	5.89
486.706	5.91
487.14	5.93
487.574	5.95
488.009	5.98
488.443	5.99
488.877	6.03
489.311	6.07
489.745	6.1
490.179	6.15
490.613	6.2
491.046	6.25
491.48	6.31
491.914	6.36
492.348	6.42
492.781	6.49
493.215	6.56
493.648	6.62
494.082	6.68
494.515	6.75
494.948	6.82
495.382	6.9
495.815	6.98
496.248	7.06
496.681	7.16
497.114	7.25
497.547	7.35
497.98	7.44
498.413	7.56
498.846	7.67
499.279	7.79
499.711	7.89
500.144	8.03
500.577	8.15
501.009	8.28
501.442	8.42
501.874	8.57
502.306	8.72
502.739	8.89
503.171	9.05
503.603	9.23
504.036	9.41
504.468	9.59
504.9	9.75
505.332	9.94
505.764	10.14
506.196	10.32
506.627	10.54
507.059	10.75
507.491	10.95
507.923	11.17
508.354	11.42
508.786	11.65
509.217	11.9
509.649	12.16
510.08	12.42
510.512	12.68
510.943	12.95
511.374	13.19
511.805	13.45
512.237	13.72
512.668	14
513.099	14.26
513.53	14.54
513.961	14.81
514.391	15.1
514.822	15.39
515.253	15.67
515.684	15.95
516.114	16.26
516.545	16.55
516.975	16.85
517.406	17.14
517.836	17.42
518.267	17.71
518.697	17.99
519.127	18.26
519.558	18.54
519.988	18.82
520.418	19.11
520.848	19.36
521.278	19.62
521.708	19.95
522.138	20.19
522.567	20.44
522.997	20.68
523.427	20.93
523.857	21.16
524.286	21.38
524.716	21.6
525.145	21.82
525.575	22.03
526.004	22.26
526.433	22.38
526.863	22.59
527.292	22.78
527.721	22.94
528.15	23.1
528.579	23.26
529.008	23.42
529.437	23.57
529.866	23.69
530.295	23.83
530.724	23.94
531.152	24.05
531.581	24.16
532.01	24.26
532.438	24.36
532.867	24.47
533.295	24.57
533.723	24.65
534.152	24.73
534.58	24.81
535.008	24.86
535.436	24.93
535.865	24.99
536.293	25.04
536.721	25.1
537.149	25.15
537.576	25.18
538.004	25.24
538.432	25.28
538.86	25.32
539.287	25.34
539.715	25.39
540.143	25.43
540.57	25.46
540.998	25.48
541.425	25.51
541.852	25.54
542.28	25.59
542.707	25.6
543.134	25.64
543.561	25.67
543.988	25.7
544.415	25.72
544.842	25.74
545.269	25.77
545.696	25.81
546.123	25.84
546.549	25.85
546.976	25.89
547.403	25.91
547.829	25.9
548.256	25.92
548.682	25.92
549.108	25.94
549.535	25.96
549.961	25.96
550.387	25.96
550.813	25.97
551.24	25.97
551.666	25.97
552.092	25.96
552.518	25.95
552.943	25.94
553.369	25.93
553.795	25.9
554.221	25.87
554.646	25.84
555.072	25.81
555.498	25.76
555.923	25.71
556.349	25.64
556.774	25.59
557.199	25.53
557.625	25.48
558.05	25.41
558.475	25.34
558.9	25.26
559.325	25.2
559.75	25.11
560.175	25.05
560.6	24.95
561.025	24.86
561.449	24.77
561.874	24.67
562.299	24.55
562.723	24.45
563.148	24.32
563.572	24.19
563.997	24.07
564.421	23.96
564.846	23.82
565.27	23.7
565.694	23.58
566.118	23.45
566.542	23.33
566.966	23.2
567.39	23.07
567.814	22.94
568.238	22.81
568.662	22.67
569.086	22.54
569.509	22.42
569.933	22.28
570.357	22.15
570.78	22
571.204	21.88
571.627	21.75
572.05	21.62
572.474	21.51
572.897	21.38
573.32	21.27
573.743	21.13
574.166	21
574.589	20.88
575.012	20.77
575.435	20.66
575.858	20.55
576.281	20.44
576.704	20.33
577.126	20.24
577.549	20.13
577.972	20.04
578.394	19.95
578.817	19.86
579.239	19.79
579.661	19.7
580.084	19.61
580.506	19.51
580.928	19.42
581.35	19.35
581.772	19.26
582.194	19.2
582.616	19.13
583.038	19.06
583.46	18.98
583.882	18.91
584.303	18.84
584.725	18.77
585.147	18.73
585.568	18.68
585.99	18.61
586.411	18.55
586.833	18.48
587.254	18.41
587.675	18.36
588.096	18.3
588.518	18.24
588.939	18.21
589.36	18.15
589.781	18.08
590.202	18.03
590.623	17.97
591.043	17.92
591.464	17.88
591.885	17.83
592.305	17.78
592.726	17.76
593.147	17.72
593.567	17.66
593.987	17.62
594.408	17.59
594.828	17.55
595.248	17.53
595.669	17.51
596.089	17.48
596.509	17.45
596.929	17.43
597.349	17.39
597.769	17.34
598.189	17.3
598.608	17.27
599.028	17.23
599.448	17.19
599.867	17.15
600.287	17.1
600.706	17.05
601.126	17.01
601.545	16.96
601.965	16.93
602.384	16.89
602.803	16.84
603.222	16.8
603.641	16.74
604.061	16.69
604.48	16.64
604.898	16.58
605.317	16.53
605.736	16.48
606.155	16.41
606.574	16.33
606.992	16.26
607.411	16.2
607.829	16.11
608.248	16.03
608.666	15.96
609.085	15.88
609.503	15.81
609.921	15.74
610.339	15.65
610.758	15.59
611.176	15.51
611.594	15.44
612.012	15.35
612.43	15.29
612.847	15.22
613.265	15.13
613.683	15.07
614.101	14.99
614.518	14.91
614.936	14.84
615.353	14.76
615.771	14.68
616.188	14.61
616.606	14.54
617.023	14.49
617.44	14.43
617.857	14.38
618.274	14.32
618.691	14.27
619.108	14.21
619.525	14.16
619.942	14.12
620.359	14.1
620.776	14.06
621.192	14.02
621.609	13.99
622.026	13.96
622.442	13.92
622.859	13.89
623.275	13.86
623.691	13.84
624.108	13.82
624.524	13.81
624.94	13.79
625.356	13.79
625.772	13.78
626.188	13.78
626.604	13.77
627.02	13.77
627.436	13.76
627.852	13.76
628.268	13.75
628.683	13.74
629.099	13.72
629.514	13.7
629.93	13.67
630.345	13.64
630.761	13.6
631.176	13.56
631.591	13.52
632.007	13.48
632.422	13.43
632.837	13.37
633.252	13.31
633.667	13.24
634.082	13.17
634.497	13.1
634.911	13.02
635.326	12.94
635.741	12.85
636.155	12.74
636.57	12.65
636.984	12.55
637.399	12.43
637.813	12.32
638.228	12.19
638.642	12.07
639.056	11.94
639.47	11.81
639.884	11.68
640.298	11.55
640.712	11.43
641.126	11.28
641.54	11.15
641.954	11.01
642.368	10.88
642.781	10.77
643.195	10.65
643.609	10.53
644.022	10.4
644.436	10.29
644.849	10.17
645.262	10.06
645.676	9.96
646.089	9.88
646.502	9.79
646.915	9.7
647.328	9.61
647.741	9.55
648.154	9.47
648.567	9.42
648.98	9.36
649.393	9.3
649.805	9.25
650.218	9.19
650.631	9.15
651.043	9.1
651.456	9.06
651.868	9.01
652.28	8.96
652.693	8.91
653.105	8.86
653.517	8.8
653.929	8.74
654.341	8.68
654.753	8.62
655.165	8.54
655.577	8.47
655.989	8.39
656.401	8.31
656.813	8.23
657.224	8.14
657.636	8.03
658.047	7.94
658.459	7.85
658.87	7.75
659.282	7.64
659.693	7.55
660.104	7.44
660.515	7.33
660.926	7.23
661.338	7.12
661.749	7.03
662.159	6.94
662.57	6.85
662.981	6.76
663.392	6.67
663.803	6.6
664.213	6.51
664.624	6.44
665.035	6.37
665.445	6.3
665.855	6.25
666.266	6.19
666.676	6.14
667.086	6.1
667.497	6.05
667.907	6.02
668.317	5.99
668.727	5.97
669.137	5.94
669.547	5.92
669.956	5.89
670.366	5.88
670.776	5.87
671.186	5.85
671.595	5.84
672.005	5.83
672.414	5.83
672.824	5.83
673.233	5.83
673.642	5.85
674.052	5.86
674.461	5.88
674.87	5.89
675.279	5.91
675.688	5.94
676.097	5.97
676.506	6
676.915	6.03
677.323	6.07
677.732	6.11
678.141	6.16
678.549	6.22
678.958	6.28
679.366	6.35
679.775	6.42
680.183	6.51
680.592	6.61
681	6.73
681.408	6.86
681.816	6.99
682.224	7.15
682.632	7.3
683.04	7.47
683.448	7.67
683.856	7.87
684.264	8.1
684.671	8.34
685.079	8.61
685.487	8.88
685.894	9.21
686.302	9.54
686.709	9.89
687.116	10.27
687.524	10.67
687.931	11.08
688.338	11.53
688.745	11.99
689.152	12.48
689.559	12.99
689.966	13.51
690.373	14.04
690.78	14.58
691.187	15.13
691.593	15.72
692	16.29
692.407	16.86
692.813	17.44
693.22	18.02
693.626	18.6
694.032	19.18
694.439	19.74
694.845	20.31
695.251	20.87
695.657	21.42
696.063	21.96
696.469	22.5
696.875	23.04
697.281	23.55
697.687	24.07
698.093	24.58
698.498	25.07
698.904	25.58
699.31	26.05
699.715	26.53
700.12	27.01
700.526	27.48
700.931	27.93
701.337	28.36
701.742	28.8
702.147	29.23
702.552	29.63
702.957	30.01
703.362	30.39
703.767	30.76
704.172	31.13
704.577	31.49
704.981	31.82
705.386	32.16
705.791	32.48
706.195	32.81
706.6	33.13
707.004	33.44
707.408	33.77
707.813	34.07
708.217	34.35
708.621	34.65
709.025	34.92
709.43	35.19
709.834	35.49
710.237	35.77
710.641	36
711.045	36.27
711.449	36.54
711.853	36.79
712.256	37.03
712.66	37.29
713.064	37.52
713.467	37.76
713.87	37.99
714.274	38.2
714.677	38.43
715.08	38.65
715.484	38.85
715.887	39.08
716.29	39.26
716.693	39.46
717.096	39.65
717.499	39.85
717.901	40.04
718.304	40.22
718.707	40.4
719.109	40.56
719.512	40.73
719.915	40.88
720.317	41
720.719	41.14
721.122	41.28
721.524	41.41
721.926	41.55
722.328	41.67
722.731	41.81
723.133	41.93
723.535	42.04
723.937	42.16
724.338	42.27
724.74	42.38
725.142	42.58
725.544	42.66
725.945	42.79
726.347	42.89
726.748	43
727.15	43.07
727.551	43.18
727.952	43.26
728.354	43.36
728.755	43.43
729.156	43.5
729.557	43.47
729.958	43.54
730.359	43.61
730.76	43.67
731.161	43.73
731.562	43.82
731.962	43.85
732.363	43.93
732.763	44
733.164	44.06
733.564	44.11
733.965	44.17
734.365	44.24
734.766	44.27
735.166	44.32
735.566	44.34
735.966	44.38
736.366	44.42
736.766	44.43
737.166	44.44
737.566	44.48
737.966	44.52
738.365	44.55
738.765	44.59
739.165	44.63
739.564	44.64
739.964	44.67
740.363	44.69
740.763	44.72
741.162	44.76
741.561	44.78
741.96	44.8
742.36	44.81
742.759	44.84
743.158	44.84
743.557	44.82
743.955	44.87
744.354	44.89
744.753	44.89
745.152	44.93
745.55	44.95
745.949	44.95
746.348	44.98
746.746	44.99
747.144	45.01
747.543	45.01
747.941	45.05
748.339	45.04
748.737	45.05
749.136	45.05
749.534	45
749.932	45.02
750.33	45.03
750.727	45.02
751.125	45.04
751.523	45.03
751.921	45.05
752.318	45.04
752.716	45.06
753.113	45.09
753.511	45.11
753.908	45.16
754.305	45.17
754.703	45.16
755.1	45.17
755.497	45.18
755.894	45.19
756.291	45.17
756.688	45.18
757.085	45.19
757.482	45.17
757.878	45.19
758.275	45.17
758.672	45.16
759.068	45.19
759.465	45.19
759.861	45.21
760.258	45.22
760.654	45.23
761.05	45.25
761.447	45.24
761.843	45.24
762.239	45.22
762.635	45.2
763.031	45.2
763.427	45.18
763.822	45.17
764.218	45.16
764.614	45.15
765.01	45.13
765.405	45.12
765.801	45.11
766.196	45.09
766.592	45.11
766.987	45.12
767.382	45.1
767.778	45.14
768.173	45.14
768.568	45.15
768.963	45.14
769.358	45.18
769.753	45.2
770.148	45.19
770.542	45.21
770.937	45.2
771.332	45.19
771.726	45.21
772.121	45.18
772.515	45.18
772.91	45.16
773.304	45.18
773.699	45.14
774.093	45.12
774.487	45.12
774.881	45.13
775.275	45.12
775.669	45.13
776.063	45.12
776.457	45.12
776.851	45.1
777.245	45.09
777.638	45.06
778.032	45.09
778.425	45.13
778.819	45.14
779.212	45.15
779.606	45.17
779.999	45.16
780.392	45.18
780.786	45.19
781.179	45.21
781.572	45.25
781.965	45.29
782.358	45.29
782.751	45.25
783.143	45.26
783.536	45.25
783.929	45.25
784.322	45.27
784.714	45.26
785.107	45.29
785.499	45.31
785.891	45.3
786.284	45.28
786.676	45.3
787.068	45.32
787.46	45.33
787.852	45.34
788.245	45.34
788.636	45.33
789.028	45.36
789.42	45.33
789.812	45.31
790.204	45.31
790.595	45.33
790.987	45.32
791.378	45.31
791.77	45.3
792.161	45.3
792.553	45.31
792.944	45.32
793.335	45.3
793.726	45.3
794.117	45.3
794.508	45.26
794.899	45.27
795.29	45.25
795.681	45.23
796.072	45.26
796.463	45.29
796.853	45.26
797.244	45.25
797.634	45.26
798.025	45.28
798.415	45.28
798.806	45.32
799.196	45.32
799.586	45.36
799.976	45.42
800.366	45.4
800.756	45.39
801.146	45.41
801.536	45.44
801.926	45.44
802.316	45.45
802.706	45.48
803.095	45.48
803.485	45.5
803.874	45.46
804.264	45.44
804.653	45.44
805.043	45.43
805.432	45.44
805.821	45.46
806.21	45.45
806.599	45.46
806.988	45.48
807.377	45.47
807.766	45.46
808.155	45.45
808.544	45.45
808.933	45.44
809.321	45.43
809.71	45.44
810.098	45.4
810.487	45.39
810.875	45.37
811.264	45.34
811.652	45.35
812.04	45.34
812.428	45.38
812.816	45.35
813.204	45.36
813.592	45.34
813.98	45.36
814.368	45.39
814.756	45.4
815.144	45.39
815.531	45.39
815.919	45.37
816.306	45.38
816.694	45.37
817.081	45.4
817.469	45.43
817.856	45.42
818.243	45.38
818.63	45.34
819.017	45.34
819.404	45.35
819.791	45.35
820.178	45.37
820.565	45.35
820.952	45.34
821.339	45.35
821.725	45.35
822.112	45.38
822.498	45.4
822.885	45.45
823.271	45.44
823.657	45.44
824.044	45.46
824.43	45.48
824.816	45.49
825.202	45.48
825.588	45.46
825.974	45.44
826.36	45.43
826.746	45.42
827.132	45.41
827.517	45.42
827.903	45.44
828.289	45.43
828.674	45.41
829.06	45.39
829.445	45.4
829.83	45.4
830.216	45.41
830.601	45.4
830.986	45.41
831.371	45.4
831.756	45.42
832.141	45.41
832.526	45.4
832.911	45.4
833.295	45.38
833.68	45.38
834.065	45.39
834.449	45.37
834.834	45.38
835.218	45.38
835.603	45.37
835.987	45.33
836.371	45.31
836.755	45.29
837.139	45.29
837.524	45.34
837.908	45.34
838.291	45.34
838.675	45.34
839.059	45.34
839.443	45.31
839.827	45.32
840.21	45.33
840.594	45.35
840.977	45.36
841.361	45.36
841.744	45.33
842.127	45.32
842.511	45.31
842.894	45.3
843.277	45.29
843.66	45.3
844.043	45.31
844.426	45.29
844.809	45.28
845.191	45.3
845.574	45.3
845.957	45.3
846.339	45.3
846.722	45.3
847.104	45.32
847.487	45.32
847.869	45.32
848.252	45.31
848.634	45.33
849.016	45.34
849.398	45.34
849.78	45.34
850.162	45.33
850.544	45.33
850.926	45.32
851.307	45.32
851.689	45.29
852.071	45.3
852.452	45.3
852.834	45.3
853.215	45.28
853.597	45.27
853.978	45.29
854.359	45.28
854.741	45.29
855.122	45.3
855.503	45.3
855.884	45.31
856.265	45.32
856.646	45.3
857.026	45.33
857.407	45.32
857.788	45.31
858.169	45.33
858.549	45.35
858.93	45.33
859.31	45.35
859.69	45.33
860.071	45.35
860.451	45.33
860.831	45.35
861.211	45.33
861.591	45.33
861.971	45.32
862.351	45.31
862.731	45.31
863.111	45.31
863.491	45.31
863.87	45.34
864.25	45.32
864.629	45.31
865.009	45.29
865.388	45.28
865.768	45.28
866.147	45.29
866.526	45.29
866.905	45.3
867.284	45.31
867.663	45.29
868.042	45.3
868.421	45.31
868.8	45.32
869.179	45.36
869.558	45.37
869.936	45.35
870.315	45.37
870.693	45.36
871.072	45.35
871.45	45.35
871.828	45.36
872.207	45.36
872.585	45.36
872.963	45.36
873.341	45.35
873.719	45.35
874.097	45.37
874.475	45.36
874.853	45.36
875.23	45.39
875.608	45.39
875.986	45.41
876.363	45.42
876.741	45.43
877.118	45.46
877.495	45.46
877.873	45.47
878.25	45.5
878.627	45.54
879.004	45.55
879.381	45.53
879.758	45.52
880.135	45.51
880.512	45.47
880.889	45.46
881.265	45.43
881.642	45.45
882.019	45.45
882.395	45.42
882.772	45.4
883.148	45.35
883.524	45.34
883.901	45.35
884.277	45.33
884.653	45.33
885.029	45.32
885.405	45.33
885.781	45.33
886.157	45.31
886.532	45.31
886.908	45.29
887.284	45.3
887.659	45.29
888.035	45.29
888.411	45.3
888.786	45.29
889.161	45.29
889.537	45.27
889.912	45.25
890.287	45.23
890.662	45.22
891.037	45.23
891.412	45.22
891.787	45.21
892.162	45.2
892.536	45.18
892.911	45.17
893.286	45.15
893.66	45.16
894.035	45.18
894.409	45.18
894.784	45.19
895.158	45.2
895.532	45.23
895.906	45.23
896.281	45.26
896.655	45.26
897.029	45.28
897.402	45.29
897.776	45.29
898.15	45.29
898.524	45.29
898.898	45.27
899.271	45.27
899.645	45.24
900.018	45.26
900.392	45.23
900.765	45.25
901.138	45.24
901.511	45.24
901.884	45.25
902.258	45.25
902.631	45.26
903.003	45.27
903.376	45.28
903.749	45.3
904.122	45.31
904.495	45.35
904.867	45.32
905.24	45.35
905.612	45.38
905.985	45.36
906.357	45.35
906.729	45.35
907.102	45.35
907.474	45.38
907.846	45.36
908.218	45.35
908.59	45.34
908.962	45.35
909.334	45.33
909.705	45.33
910.077	45.37
910.449	45.4
910.82	45.4
911.192	45.4
911.563	45.36
911.935	45.36
912.306	45.38
912.677	45.37
913.048	45.41
913.419	45.41
913.79	45.41
914.161	45.42
914.532	45.42
914.903	45.43
915.274	45.44
915.645	45.47
916.015	45.48
916.386	45.48
916.756	45.48
917.127	45.47
917.497	45.48
917.868	45.48
918.238	45.45
918.608	45.45
918.978	45.45
919.348	45.44
919.718	45.39
920.088	45.38
920.458	45.4
920.828	45.38
921.198	45.33
921.567	45.36
921.937	45.35
922.306	45.34
922.676	45.34
923.045	45.33
923.415	45.31
923.784	45.35
924.153	45.37
924.522	45.37
924.891	45.38
925.26	45.42
925.629	45.41
925.998	45.4
926.367	45.39
926.736	45.38
927.104	45.4
927.473	45.42
927.842	45.4
928.21	45.39
928.578	45.35
928.947	45.36
929.315	45.32
929.683	45.29
930.051	45.28
930.42	45.28
930.788	45.27
931.156	45.24
931.523	45.23
931.891	45.28
932.259	45.31
932.627	45.32
932.994	45.34
933.362	45.34
933.729	45.36
934.097	45.37
934.464	45.37
934.831	45.37
935.199	45.4
935.566	45.38
935.933	45.27
936.3	45.23
936.667	45.22
937.034	45.22
937.401	45.24
937.767	45.25
938.134	45.28
938.501	45.29
938.867	45.34
939.234	45.3
939.6	45.32
939.967	45.38
940.333	45.39
940.699	45.39
941.065	45.28
941.431	45.28
941.798	45.21
942.163	45.16
942.529	45.16
942.895	45.13
943.261	45.12
943.627	45.07
943.992	45.05
944.358	45.05
944.723	45.07
945.089	45.06
945.454	45.12
945.82	45.13
946.185	45.18
946.55	45.09
946.915	45.03
947.28	45.03
947.645	45.06
948.01	45.08
948.375	45.05
948.74	44.99
949.104	45.06
949.469	44.98
949.834	44.94
950.198	44.91
950.562	44.94
950.927	44.95
951.291	44.9
951.655	44.88
952.02	44.88
952.384	44.83
952.748	44.8
953.112	44.8
953.476	44.78
953.839	44.76
954.203	44.7
954.567	44.65
954.931	44.63
955.294	44.6
955.658	44.65
956.021	44.64
956.385	44.62
956.748	44.6
957.111	44.52
957.474	44.48
957.837	44.48
958.2	44.46
958.563	44.46
958.926	44.49
959.289	44.51
959.652	44.45
960.015	44.41
960.377	44.45
960.74	44.49
961.102	44.48
961.465	44.54
961.827	44.56
962.189	44.65
962.552	44.64
962.914	44.57
963.276	44.6
963.638	44.61
964	44.65
964.362	44.66
964.724	44.64
965.085	44.64
965.447	44.64
965.809	44.6
966.17	44.53
966.532	44.54
966.893	44.61
967.255	44.57
967.616	44.58
967.977	44.55
968.338	44.52
968.699	44.53
969.061	44.53
969.421	44.51
969.782	44.54
970.143	44.57
970.504	44.61
970.865	44.61
971.225	44.65
971.586	44.62
971.946	44.62
972.307	44.65
972.667	44.66
973.027	44.72
973.388	44.75
973.748	44.76
974.108	44.8
974.468	44.75
974.828	44.77
975.188	44.78
975.548	44.76
975.907	44.77
976.267	44.74
976.627	44.75
976.986	44.68
977.346	44.63
977.705	44.58
978.064	44.54
978.424	44.59
978.783	44.53
979.142	44.55
979.501	44.59
979.86	44.66
980.219	44.69
980.578	44.7
980.937	44.77
981.296	44.8
981.654	44.86
982.013	44.87
982.371	44.92
982.73	44.99
983.088	44.97
983.447	44.95
983.805	44.93
984.163	44.89
984.521	44.88
984.879	44.82
985.237	44.78
985.595	44.83
985.953	44.84
986.311	44.76
986.669	44.67
987.026	44.64
987.384	44.64
987.741	44.63
988.099	44.72
988.456	44.68
988.814	44.75
989.171	44.81
989.528	44.74
989.885	44.75
990.242	44.79
990.599	44.89
990.956	44.96
991.313	44.96
991.67	45.03
992.027	45.15
992.383	45.21
992.74	45.22
993.096	45.21
993.453	45.27
993.809	45.29
994.165	45.38
994.522	45.45
994.878	45.48
995.234	45.59
995.59	45.51
995.946	45.36
996.302	45.38
996.658	45.38
997.013	45.39
997.369	45.36
997.725	45.36
998.08	45.34
998.436	45.27
998.791	45.33
999.147	45.19
999.502	45.2
999.857	45.18
1000.212	45.18
1000.567	45.21
1000.922	45.19
1001.277	45.2
1001.632	45.07
1001.987	45.08
1002.342	44.97
1002.696	44.84
1003.051	45
1003.406	45.19
1003.76	45.22
1004.114	45.19
1004.469	45.3
1004.823	45.55
1005.177	45.51
1005.531	45.74
1005.885	45.75
1006.239	45.92
1006.593	46.08
1006.947	46.14
1007.301	45.92
1007.655	45.98
1008.008	46.05
1008.362	45.97
1008.715	45.88
1009.069	46.06
1009.422	45.99
1009.776	45.91
1010.129	45.87
1010.482	45.77
1010.835	45.73
1011.188	45.82
1011.541	45.78
1011.894	45.72
1012.247	45.72
1012.6	45.69
1012.952	45.57
1013.305	45.72
1013.657	45.83
1014.01	45.87
1014.362	45.78
1014.715	45.9
1015.067	46.06
1015.419	46.36
1015.771	46.5
1016.123	46.66
1016.475	46.82
1016.827	46.98
1017.179	46.92
1017.531	46.96
1017.883	47
1018.234	47.23
1018.586	47.04
1018.938	46.97
1019.289	46.66
1019.64	46.62
1019.992	46.48
1020.343	46.39
1020.694	46.45
1021.045	46.45
1021.396	46.6
1021.747	46.76
1022.098	46.91
1022.449	47.01
1022.8	47.3
1023.151	47.5
1023.501	47.61
1023.852	47.85
1024.202	47.76
1024.553	47.67
1024.903	47.85
1025.253	47.88
1025.604	47.85
1025.954	47.56
1026.304	47.74
1026.654	47.66
1027.004	47.6
1027.354	47.67
1027.703	47.46
1028.053	47.57
1028.403	47.57
1028.753	47.3
1029.102	47.2
1029.452	47.14
1029.801	47.32
1030.15	47.09
1030.499	46.87
897.758	1369.17
901.051	1380.69
904.343	1371.57
907.636	1393.73
910.928	1357.61
914.22	1357.89
917.511	1341.1
920.803	1280.73
924.094	1274.16
927.384	1239.26
930.675	1194.71
933.965	1187.9
937.255	1114.12
940.544	1072.17
943.834	1019.93
947.123	1011.23
950.411	949.91
953.7	929.72
956.988	877.77
960.276	843.31
963.563	832.14
966.851	800.51
970.138	793.11
973.424	769.42
976.711	772.65
979.997	737.09
983.283	732.33
986.568	718
989.853	695.47
993.138	685.84
996.423	657.91
999.708	638.25
1002.992	631.3
1006.275	603.37
1009.559	598.1
1012.842	576.31
1016.125	559.97
1019.408	548.85
1022.69	541.02
1025.972	531.07
1029.254	517.49
1032.536	509.77
1035.817	497.88
1039.098	491.67
1042.379	481.32
1045.659	475.75
1048.939	464.39
1052.219	454.08
1055.498	448.23
1058.778	437.9
1062.057	426.93
1065.335	422.56
1068.614	417.95
1071.892	413.24
1075.17	399.25
1078.447	392.37
1081.724	389.24
1085.001	385.96
1088.278	378.37
1091.554	370.07
1094.83	370.79
1098.106	368.51
1101.382	364.63
1104.657	361.42
1107.932	356.03
1111.206	358.39
1114.481	349.03
1117.755	345.71
1121.029	343.16
1124.302	342.79
1127.575	336.03
1130.848	331.5
1134.121	328.06
1137.393	326.03
1140.665	318.63
1143.937	316.71
1147.208	315.07
1150.48	314.48
1153.75	310.24
1157.021	306.48
1160.291	306.6
1163.561	303.45
1166.831	303.61
1170.101	301.5
1173.37	301.1
1176.639	302.31
1179.907	298.99
1183.176	295.18
1186.444	294.66
1189.711	294.11
1192.979	292.53
1196.246	290.29
1199.513	291.41
1202.78	289.19
1206.046	288.72
1209.312	285.71
1212.578	286
1215.843	289.49
1219.108	287.34
1222.373	293.38
1225.638	295.53
1228.902	299.93
1232.166	300.36
1235.43	303.07
1238.693	306.81
1241.956	308.9
1245.219	313.94
1248.482	313.78
1251.744	312.64
1255.006	314.63
1258.268	305.98
1261.529	303.04
1264.79	300.84
1268.051	299.12
1271.312	295.77
1274.572	291.62
1277.832	289.12
1281.092	284.3
1284.351	282.06
1287.61	282.17
1290.869	277.72
1294.128	276.38
1297.386	276.59
1300.644	272.89
1303.902	273.52
1307.159	272.33
1310.416	272.73
1313.673	272.01
1316.93	274.74
1320.186	275.14
1323.442	275.94
1326.697	281.02
1329.953	282.37
1333.208	283.31
1336.463	287.01
1339.717	288.1
1342.972	290.44
1346.226	293.65
1349.479	294.1
1352.733	295.43
1355.986	297.17
1359.238	297.09
1362.491	298.53
1365.743	301.37
1368.995	301.59
1372.247	300.16
1375.498	300.02
1378.749	303.38
1382	299.04
1385.251	300.27
1388.501	299.58
1391.751	299.87
1395	298.66
1398.25	296.55
1401.499	295.04
1404.748	294.63
1407.996	292.68
1411.244	291.16
1414.492	289.14
1417.74	287.77
1420.987	283.32
1424.234	282.43
1427.481	279.29
1430.728	278.84
1433.974	275.64
1437.22	273.31
1440.465	272.51
1443.711	271.04
1446.956	269.52
1450.201	266.06
1453.445	263.54
1456.689	262.63
1459.933	257.85
1463.177	255.67
1466.42	251.72
1469.663	248.94
1472.906	247.14
1476.148	240.67
1479.391	237.84
1482.633	235.57
1485.874	232.27
1489.115	230.42
1492.356	227.81
1495.597	227.35
1498.838	224.02
1502.078	222.81
1505.318	221.68
1508.557	221.64
1511.797	221.29
1515.036	219.65
1518.274	218.88
1521.513	216.81
1524.751	216.51
1527.989	215.87
1531.227	214.52
1534.464	215.13
1537.701	212.88
1540.938	212.64
1544.174	209.88
1547.41	209.26
1550.646	208.5
1553.882	208.01
1557.117	205.74
1560.352	204.5
1563.587	203.51
1566.821	202.2
1570.055	200.21
1573.289	198.92
1576.523	198.45
1579.756	197.13
1582.989	196.28
1586.222	195.61
1589.454	194.8
1592.686	196.22
1595.918	194.89
1599.15	194.43
1602.381	194.76
1605.612	194.28
1608.843	195.36
1612.073	195.24
1615.303	195.93
1618.533	195.88
1621.762	195.49
1624.992	195.75
1628.221	195.42
1631.449	195.55
1634.678	194.58
1637.906	195.13
1641.134	195.28
1644.361	194.86
1647.588	195.2
1650.815	194.43
1654.042	193.69
1657.269	195.16
1660.495	194.94
1663.72	193.84
1666.946	194.89
1670.171	195.76
1673.396	195.9
1676.621	195.81
1679.845	196.38
1683.069	195.73
1686.293	197.44
1689.517	198.62
1692.74	198.07
1695.963	198.82
1699.185	201.12
1702.408	200.52
1705.63	201.69
1708.852	201.87
1712.073	202.63
1715.294	202.65
1718.515	204.57
1721.736	203.8
1724.956	204.74
1728.176	204.86
1731.396	206.66
1734.616	205.71
1737.835	207.25
1741.054	205.73
1744.272	206.62
1747.491	208.2
1750.709	208.47
1753.927	208.25
1757.144	207.92
1760.361	208.6
1763.578	209.07
1766.795	208.3
1770.011	210.24
1773.227	209.57
1776.443	212.48
1779.658	213.22
1782.874	213.06
1786.089	213.85
1789.303	214.53
1792.518	217.22
1795.732	216.98
1798.945	219.43
1802.159	219.5
1805.372	220.14
1808.585	223.95
1811.797	224.59
1815.01	224.42
1818.222	226
1821.434	227.94
1824.645	229.19
1827.856	232.63
1831.067	234.41
1834.278	233.21
1837.488	235.73
1840.698	236.82
1843.908	234.98
1847.117	236.24
1850.326	238.38
1853.535	237.65
1856.744	241.53
1859.952	240.96
1863.16	239.37
1866.368	237.92
1869.575	241.78
1872.782	237.55
1875.989	237.47
1879.196	236.57
1882.402	234.91
1885.608	235.98
1888.814	236.65
1892.019	235.23
1895.224	234.71
1898.429	233.65
1901.634	235.86
1904.838	234.63
1908.042	237.74
1911.246	238.54
1914.449	240.43
1917.652	240.74
1920.855	240.52
1924.058	240.01
1927.26	239.12
1930.462	240.37
1933.664	242.94
1936.865	240.3
1940.066	241.43
1943.267	239.02
1946.467	238.85
1949.668	240.32
1952.868	242.8
1956.067	242.4
1959.267	243.54
1962.466	244.2
1965.665	243.18
1968.863	243.95
1972.061	247.39
1975.259	249.55
1978.457	252.26
1981.654	254.13
1984.852	254.85
1988.048	254.16
1991.245	256.22
1994.441	258.97
1997.637	261.18
2000.833	266.63
2004.028	270
2007.223	271.44
2010.418	273.2
2013.613	278.63
2016.807	281.66
2020.001	283.61
2023.194	287.68
2026.388	293.89
2029.581	300.5
2032.774	303.05
2035.966	307.49
2039.158	308.33
2042.35	314.74
2045.542	316.89
2048.733	321.55
2051.924	326.21
2055.115	331.48
2058.306	332.46
2061.496	336.11
2064.686	335.63
2067.875	341.19
2071.065	343.92
2074.254	342.06
2077.442	345.78
2080.631	347.52
2083.819	350.24
2087.007	350.62
2090.195	354.91
2093.382	357.88
2096.569	355.76
2099.756	361.25
2102.942	362.53
2106.128	365.04
2109.314	373.4
2112.5	372.19
2115.685	380.29
2118.87	380.38
2122.055	387.98
2125.239	390.96
2128.424	396.03
2131.608	400.06
2134.791	405.44
2137.974	407.8
2141.157	408.28
2144.34	409.57
2147.523	416.85
2150.705	413.71
2153.887	418.01
2157.068	418.9
2160.25	414.57
2163.431	417.11
2166.611	421.04
2169.792	428.9
2172.972	433.11
2176.152	435.58
2179.331	441.28
2182.511	448.15
2185.69	452.69
2188.868	462.24
2192.047	462.38
2195.225	475.99
2198.403	488.36
2201.58	498.32
2204.758	506.33
2207.935	516.1
2211.111	525.82
2214.288	531.99
2217.464	532.53
2220.64	541.77
2223.815	548.05
2226.991	572.23
2230.166	573.49
2233.34	582.06
2236.515	589.53
2239.689	591.81
2242.863	594.68
2246.036	613.7
2249.209	609.06
2252.382	619.91
2255.555	638.56
2258.727	641.43
2261.9	644.38
2265.071	651.73
2268.243	661.23
2271.414	671.09
2274.585	685.82
2277.756	694.46
2280.926	699.12
2284.096	715.13
2287.266	731.38
2290.436	736.22
2293.605	753.81
2296.774	778.04
2299.942	799.08
2303.111	804.65
2306.279	822.73
2309.447	834.31
2312.614	852.63
2315.781	874.4
2318.948	918.04
2322.115	903.85
2325.281	953.34
2328.447	932.59
2331.613	970.83
2334.779	962.97
2337.944	1002.6
2341.109	1011.39
2344.274	1038.13
2347.438	1078.08
2350.602	1077.68
2353.766	1108.51
2356.929	1125.53
2360.092	1117.39
2363.255	1197.37
2366.418	1191.04
2369.58	1216.71
2372.742	1293.16
2375.904	1326.27
2379.066	1318.02
2382.227	1294.99
2385.388	1407.07
2388.548	1407.28
2391.709	1422.12
2394.869	1587.17
2398.029	1520.87
2401.188	1562.75
2404.347	1550.78
2407.506	1525.59
2410.665	1568.41
2413.823	1669.2
2416.981	1765.67
2420.139	1705.92
2423.296	1685.49
2426.453	1764.06
2429.61	1695.78
2432.767	1773.23
2435.923	1754.99
2439.079	1926
2442.235	1949.09
2445.391	1936.8
2448.546	1914.96
2451.701	1861.53
2454.855	1860.48
2458.009	1974.9
2461.163	2054.88
2464.317	2130.81
2467.471	2185.08
2470.624	2188
2473.777	2127.79
2476.929	2076.71
2480.082	2012.21
2483.234	1990.74
2486.385	2092.3
2489.537	2103.41
2492.688	2184.76
2495.839	2120.26
2498.989	2074.15
2502.14	2087.29
2505.29	2109.75
2508.439	2134.13
2511.589	2128.72
2514.738	2324.23
2517.887	2274.97
2521.035	2399.46
2524.183	2422.36
2527.331	2439.46
2530.479	2431.59
2533.627	2450.24
