Data from C_2_DEC_ON_6N_Splice17_13-17-03-195.txt Node
Date: Sat Mar 07 13:17:03 EST 2020
User: sa697716
Spectrometer: NQ5500242
Trigger mode: 0
Integration Time (sec): 1.450000E-1
Scans to average: 20
Nonlinearity correction enabled: false
Boxcar width: 5
Storing dark spectrum: false
XAxis mode: Wavelengths
Number of Pixels in Spectrum: 512
>>>>>Begin Spectral Data<<<<<
187.83	146.13
188.298	166.96
188.766	147.21
189.233	126.17
189.701	132.02
190.169	166.44
190.636	194.99
191.104	232.03
191.571	83.35
192.039	0.35
192.506	-80.91
192.974	118.95
193.441	172.16
193.908	109.7
194.375	69.94
194.842	28.88
195.31	114.29
195.777	395.87
196.244	57.63
196.711	46.56
197.177	46.77
197.644	45.81
198.111	44.9
198.578	45.2
199.045	45.28
199.511	45.69
199.978	45.85
200.445	45.85
200.911	45.68
201.378	45.9
201.844	45.81
202.31	45.35
202.777	45.1
203.243	45.08
203.709	44.55
204.176	43.85
204.642	43.48
205.108	43.17
205.574	42.85
206.04	42.14
206.506	41.66
206.972	41.48
207.438	41.36
207.903	40.9
208.369	39.88
208.835	39.31
209.301	38.78
209.766	37.6
210.232	36.49
210.697	35.33
211.163	34.75
211.628	33.97
212.094	33.18
212.559	32.25
213.024	31.51
213.49	30.9
213.955	30.1
214.42	29.31
214.885	28.46
215.35	27.47
215.815	26.24
216.28	24.19
216.745	22.1
217.21	19.91
217.675	18.05
218.14	16.39
218.604	14.96
219.069	13.78
219.534	12.83
219.998	12.04
220.463	11.38
220.927	10.71
221.392	10.28
221.856	9.9
222.32	9.61
222.785	9.33
223.249	9.07
223.713	8.85
224.177	8.68
224.642	8.47
225.106	8.25
225.57	8.05
226.034	7.92
226.497	7.76
226.961	7.61
227.425	7.48
227.889	7.35
228.353	7.24
228.816	7.09
229.28	6.95
229.744	6.83
230.207	6.72
230.671	6.6
231.134	6.5
231.597	6.42
232.061	6.31
232.524	6.21
232.987	6.11
233.45	6.02
233.914	5.95
234.377	5.87
234.84	5.79
235.303	5.74
235.766	5.67
236.229	5.6
236.691	5.53
237.154	5.48
237.617	5.42
238.08	5.36
238.542	5.31
239.005	5.25
239.468	5.19
239.93	5.15
240.393	5.11
240.855	5.05
241.317	5
241.78	4.94
242.242	4.89
242.704	4.85
243.166	4.8
243.629	4.76
244.091	4.71
244.553	4.68
245.015	4.62
245.477	4.56
245.939	4.52
246.4	4.48
246.862	4.43
247.324	4.39
247.786	4.34
248.247	4.29
248.709	4.24
249.17	4.2
249.632	4.16
250.093	4.13
250.555	4.09
251.016	4.06
251.477	4.02
251.939	3.99
252.4	3.96
252.861	3.94
253.322	3.92
253.783	3.89
254.244	3.87
254.705	3.84
255.166	3.81
255.627	3.79
256.088	3.77
256.549	3.75
257.009	3.71
257.47	3.68
257.931	3.64
258.391	3.61
258.852	3.59
259.312	3.55
259.773	3.52
260.233	3.5
260.694	3.47
261.154	3.44
261.614	3.41
262.074	3.38
262.534	3.35
262.994	3.34
263.455	3.32
263.915	3.3
264.374	3.28
264.834	3.26
265.294	3.24
265.754	3.22
266.214	3.21
266.673	3.19
267.133	3.18
267.593	3.18
268.052	3.16
268.512	3.15
268.971	3.14
269.431	3.12
269.89	3.11
270.349	3.1
270.809	3.09
271.268	3.08
271.727	3.07
272.186	3.06
272.645	3.05
273.104	3.04
273.563	3.03
274.022	3.02
274.481	3.01
274.94	3.01
275.399	2.99
275.857	2.98
276.316	2.98
276.775	2.97
277.233	2.96
277.692	2.96
278.15	2.95
278.609	2.95
279.067	2.94
279.525	2.94
279.984	2.93
280.442	2.93
280.9	2.93
281.358	2.92
281.816	2.93
282.274	2.92
282.732	2.92
283.19	2.92
283.648	2.91
284.106	2.91
284.564	2.9
285.021	2.9
285.479	2.9
285.937	2.89
286.394	2.89
286.852	2.88
287.309	2.88
287.767	2.87
288.224	2.86
288.682	2.85
289.139	2.83
289.596	2.82
290.053	2.8
290.511	2.78
290.968	2.77
291.425	2.75
291.882	2.74
292.339	2.72
292.796	2.72
293.252	2.71
293.709	2.71
294.166	2.7
294.623	2.7
295.079	2.7
295.536	2.7
295.992	2.69
296.449	2.69
296.905	2.68
297.362	2.68
297.818	2.67
298.274	2.67
298.731	2.66
299.187	2.65
299.643	2.64
300.099	2.63
300.555	2.63
301.011	2.62
301.467	2.62
301.923	2.61
302.379	2.61
302.835	2.61
303.291	2.61
303.746	2.6
304.202	2.6
304.658	2.6
305.113	2.6
305.569	2.6
306.024	2.6
306.479	2.6
306.935	2.6
307.39	2.6
307.845	2.6
308.301	2.6
308.756	2.61
309.211	2.6
309.666	2.61
310.121	2.62
310.576	2.62
311.031	2.62
311.486	2.63
311.94	2.64
312.395	2.64
312.85	2.64
313.305	2.64
313.759	2.64
314.214	2.64
314.668	2.63
315.123	2.63
315.577	2.61
316.032	2.61
316.486	2.6
316.94	2.6
317.394	2.59
317.849	2.58
318.303	2.57
318.757	2.56
319.211	2.55
319.665	2.54
320.119	2.53
320.572	2.53
321.026	2.52
321.48	2.51
321.934	2.5
322.387	2.49
322.841	2.49
323.295	2.49
323.748	2.48
324.202	2.48
324.655	2.48
325.108	2.49
325.562	2.49
326.015	2.49
326.468	2.48
326.921	2.48
327.374	2.48
327.827	2.48
328.28	2.47
328.733	2.48
329.186	2.47
329.639	2.47
330.092	2.47
330.545	2.46
330.997	2.46
331.45	2.47
331.903	2.48
332.355	2.48
332.808	2.48
333.26	2.48
333.713	2.48
334.165	2.47
334.617	2.47
335.069	2.46
335.522	2.46
335.974	2.46
336.426	2.45
336.878	2.44
337.33	2.44
337.782	2.44
338.234	2.44
338.686	2.45
339.137	2.46
339.589	2.46
340.041	2.46
340.493	2.45
340.944	2.44
341.396	2.44
341.847	2.44
342.299	2.43
342.75	2.42
343.201	2.41
343.653	2.4
344.104	2.38
344.555	2.37
345.006	2.36
345.457	2.35
345.908	2.35
346.359	2.35
346.81	2.34
347.261	2.33
347.712	2.33
348.163	2.32
348.613	2.32
349.064	2.33
349.515	2.33
349.965	2.33
350.416	2.33
350.866	2.33
351.317	2.32
351.767	2.33
352.217	2.34
352.668	2.34
353.118	2.34
353.568	2.34
354.018	2.34
354.468	2.34
354.918	2.35
355.368	2.35
355.818	2.35
356.268	2.36
356.718	2.36
357.168	2.35
357.617	2.35
358.067	2.35
358.517	2.37
358.966	2.38
359.416	2.38
359.865	2.39
360.315	2.39
360.764	2.39
361.213	2.4
361.663	2.39
362.112	2.41
362.561	2.42
363.01	2.43
363.459	2.42
363.908	2.42
364.357	2.43
364.806	2.43
365.255	2.45
365.703	2.46
366.152	2.47
366.601	2.49
367.05	2.51
367.498	2.51
367.947	2.53
368.395	2.55
368.844	2.56
369.292	2.57
369.74	2.59
370.189	2.61
370.637	2.62
371.085	2.63
371.533	2.64
371.981	2.66
372.429	2.67
372.877	2.68
373.325	2.7
373.773	2.72
374.221	2.74
374.669	2.76
375.116	2.77
375.564	2.78
376.012	2.8
376.459	2.82
376.907	2.84
377.354	2.86
377.801	2.88
378.249	2.9
378.696	2.92
379.143	2.94
379.591	2.96
380.038	2.99
380.485	3.01
380.932	3.02
381.379	3.04
381.826	3.06
382.273	3.08
382.72	3.1
383.166	3.13
383.613	3.15
384.06	3.18
384.506	3.19
384.953	3.21
385.4	3.24
385.846	3.27
386.292	3.3
386.739	3.33
387.185	3.35
387.631	3.38
388.078	3.41
388.524	3.43
388.97	3.45
389.416	3.49
389.862	3.52
390.308	3.55
390.754	3.58
391.2	3.62
391.645	3.64
392.091	3.68
392.537	3.71
392.983	3.72
393.428	3.75
393.874	3.77
394.319	3.78
394.765	3.8
395.21	3.82
395.655	3.84
396.101	3.86
396.546	3.87
396.991	3.88
397.436	3.89
397.881	3.92
398.326	3.94
398.771	3.96
399.216	3.97
399.661	3.98
400.106	3.98
400.551	3.97
400.995	3.98
401.44	3.98
401.885	3.98
402.329	3.98
402.774	3.98
403.218	4
403.663	4
404.107	4.01
404.551	4.02
404.995	4.01
405.44	4.01
405.884	4.01
406.328	4.03
406.772	4.02
407.216	4.03
407.66	4.03
408.104	4.01
408.547	4
408.991	4
409.435	3.99
409.879	4.01
410.322	4.02
410.766	4.03
411.209	4.03
411.653	4.04
412.096	4.04
412.54	4.05
412.983	4.05
413.426	4.09
413.869	4.1
414.312	4.12
414.756	4.13
415.199	4.12
415.642	4.12
416.085	4.13
416.527	4.13
416.97	4.13
417.413	4.11
417.856	4.11
418.298	4.08
418.741	4.08
419.184	4.06
419.626	4.06
420.069	4.06
420.511	4.06
420.953	4.06
421.396	4.07
421.838	4.06
422.28	4.08
422.722	4.09
423.164	4.09
423.606	4.1
424.048	4.11
424.49	4.11
424.932	4.09
425.374	4.07
425.816	4.05
426.258	4.03
426.699	4.02
427.141	4.01
427.582	4.02
428.024	4.02
428.465	4.01
428.907	4
429.348	3.98
429.789	3.99
430.231	4.03
430.672	4.05
431.113	4.07
431.554	4.09
431.995	4.1
432.436	4.11
432.877	4.12
433.318	4.14
433.759	4.17
434.2	4.2
434.64	4.2
435.081	4.21
435.522	4.22
435.962	4.22
436.403	4.25
436.843	4.27
437.284	4.26
437.724	4.27
438.164	4.27
438.604	4.28
439.045	4.29
439.485	4.31
439.925	4.32
440.365	4.34
440.805	4.36
441.245	4.37
441.685	4.39
442.125	4.41
442.564	4.42
443.004	4.42
443.444	4.45
443.883	4.46
444.323	4.47
444.762	4.48
445.202	4.48
445.641	4.51
446.081	4.52
446.52	4.52
446.959	4.56
447.398	4.59
447.837	4.61
448.276	4.63
448.716	4.65
449.154	4.69
449.593	4.72
450.032	4.73
450.471	4.73
450.91	4.73
451.349	4.74
451.787	4.73
452.226	4.73
452.664	4.73
453.103	4.72
453.541	4.73
453.98	4.73
454.418	4.7
454.856	4.7
455.295	4.69
455.733	4.68
456.171	4.67
456.609	4.66
457.047	4.64
457.485	4.64
457.923	4.63
458.361	4.62
458.798	4.61
459.236	4.61
459.674	4.61
460.111	4.61
460.549	4.63
460.987	4.64
461.424	4.64
461.862	4.65
462.299	4.66
462.736	4.67
463.173	4.68
463.611	4.69
464.048	4.7
464.485	4.71
464.922	4.71
465.359	4.71
465.796	4.72
466.233	4.73
466.67	4.74
467.106	4.75
467.543	4.73
467.98	4.72
468.416	4.71
468.853	4.7
469.29	4.7
469.726	4.7
470.162	4.68
470.599	4.67
471.035	4.67
471.471	4.67
471.907	4.66
472.344	4.66
472.78	4.66
473.216	4.65
473.652	4.66
474.088	4.64
474.523	4.64
474.959	4.64
475.395	4.62
475.831	4.62
476.266	4.6
476.702	4.58
477.138	4.58
477.573	4.58
478.008	4.58
478.444	4.56
478.879	4.57
479.314	4.56
479.75	4.55
480.185	4.54
480.62	4.53
481.055	4.53
481.49	4.52
481.925	4.53
482.36	4.53
482.795	4.53
483.229	4.53
483.664	4.53
484.099	4.54
484.534	4.54
484.968	4.57
485.403	4.58
485.837	4.6
486.271	4.62
486.706	4.63
487.14	4.64
487.574	4.66
488.009	4.69
488.443	4.7
488.877	4.73
489.311	4.76
489.745	4.79
490.179	4.82
490.613	4.86
491.046	4.89
491.48	4.93
491.914	4.97
492.348	5.02
492.781	5.07
493.215	5.13
493.648	5.18
494.082	5.24
494.515	5.3
494.948	5.36
495.382	5.42
495.815	5.5
496.248	5.57
496.681	5.65
497.114	5.72
497.547	5.8
497.98	5.89
498.413	5.98
498.846	6.08
499.279	6.17
499.711	6.27
500.144	6.38
500.577	6.49
501.009	6.59
501.442	6.71
501.874	6.84
502.306	6.96
502.739	7.1
503.171	7.25
503.603	7.38
504.036	7.54
504.468	7.7
504.9	7.85
505.332	8.01
505.764	8.19
506.196	8.37
506.627	8.56
507.059	8.76
507.491	8.94
507.923	9.14
508.354	9.36
508.786	9.56
509.217	9.78
509.649	10
510.08	10.24
510.512	10.47
510.943	10.7
511.374	10.94
511.805	11.18
512.237	11.43
512.668	11.69
513.099	11.94
513.53	12.2
513.961	12.47
514.391	12.74
514.822	13.01
515.253	13.28
515.684	13.56
516.114	13.84
516.545	14.12
516.975	14.41
517.406	14.7
517.836	14.98
518.267	15.27
518.697	15.54
519.127	15.82
519.558	16.09
519.988	16.36
520.418	16.62
520.848	16.88
521.278	17.14
521.708	17.47
522.138	17.73
522.567	17.98
522.997	18.21
523.427	18.46
523.857	18.67
524.286	18.88
524.716	19.09
525.145	19.31
525.575	19.52
526.004	19.73
526.433	19.84
526.863	20.01
527.292	20.18
527.721	20.35
528.15	20.52
528.579	20.7
529.008	20.88
529.437	21.02
529.866	21.15
530.295	21.29
530.724	21.42
531.152	21.55
531.581	21.68
532.01	21.8
532.438	21.92
532.867	22.01
533.295	22.09
533.723	22.17
534.152	22.27
534.58	22.36
535.008	22.42
535.436	22.5
535.865	22.55
536.293	22.61
536.721	22.66
537.149	22.72
537.576	22.78
538.004	22.84
538.432	22.89
538.86	22.93
539.287	22.96
539.715	23.02
540.143	23.05
540.57	23.1
540.998	23.14
541.425	23.17
541.852	23.21
542.28	23.23
542.707	23.26
543.134	23.3
543.561	23.34
543.988	23.38
544.415	23.39
544.842	23.42
545.269	23.44
545.696	23.47
546.123	23.49
546.549	23.5
546.976	23.54
547.403	23.55
547.829	23.58
548.256	23.59
548.682	23.62
549.108	23.64
549.535	23.67
549.961	23.67
550.387	23.67
550.813	23.68
551.24	23.68
551.666	23.67
552.092	23.66
552.518	23.65
552.943	23.63
553.369	23.59
553.795	23.55
554.221	23.52
554.646	23.49
555.072	23.46
555.498	23.43
555.923	23.39
556.349	23.32
556.774	23.27
557.199	23.21
557.625	23.15
558.05	23.08
558.475	23.01
558.9	22.93
559.325	22.84
559.75	22.75
560.175	22.66
560.6	22.55
561.025	22.44
561.449	22.33
561.874	22.2
562.299	22.08
562.723	21.94
563.148	21.81
563.572	21.66
563.997	21.53
564.421	21.39
564.846	21.24
565.27	21.1
565.694	20.96
566.118	20.81
566.542	20.68
566.966	20.53
567.39	20.38
567.814	20.24
568.238	20.12
568.662	19.98
569.086	19.83
569.509	19.7
569.933	19.56
570.357	19.42
570.78	19.28
571.204	19.14
571.627	19.01
572.05	18.89
572.474	18.77
572.897	18.63
573.32	18.51
573.743	18.39
574.166	18.27
574.589	18.15
575.012	18.04
575.435	17.94
575.858	17.85
576.281	17.73
576.704	17.62
577.126	17.51
577.549	17.43
577.972	17.34
578.394	17.25
578.817	17.15
579.239	17.06
579.661	16.97
580.084	16.88
580.506	16.81
580.928	16.74
581.35	16.67
581.772	16.6
582.194	16.51
582.616	16.43
583.038	16.35
583.46	16.28
583.882	16.21
584.303	16.14
584.725	16.06
585.147	15.99
585.568	15.92
585.99	15.85
586.411	15.78
586.833	15.72
587.254	15.66
587.675	15.6
588.096	15.54
588.518	15.47
588.939	15.42
589.36	15.38
589.781	15.3
590.202	15.26
590.623	15.21
591.043	15.16
591.464	15.11
591.885	15.05
592.305	15.02
592.726	14.98
593.147	14.94
593.567	14.89
593.987	14.85
594.408	14.81
594.828	14.75
595.248	14.71
595.669	14.68
596.089	14.64
596.509	14.61
596.929	14.58
597.349	14.53
597.769	14.5
598.189	14.45
598.608	14.41
599.028	14.37
599.448	14.35
599.867	14.3
600.287	14.25
600.706	14.21
601.126	14.17
601.545	14.12
601.965	14.09
602.384	14.04
602.803	14.01
603.222	13.97
603.641	13.92
604.061	13.87
604.48	13.83
604.898	13.78
605.317	13.73
605.736	13.67
606.155	13.62
606.574	13.56
606.992	13.51
607.411	13.46
607.829	13.37
608.248	13.31
608.666	13.24
609.085	13.19
609.503	13.14
609.921	13.08
610.339	13.03
610.758	12.98
611.176	12.92
611.594	12.85
612.012	12.79
612.43	12.75
612.847	12.7
613.265	12.63
613.683	12.57
614.101	12.5
614.518	12.43
614.936	12.37
615.353	12.29
615.771	12.23
616.188	12.18
616.606	12.13
617.023	12.07
617.44	12.03
617.857	11.99
618.274	11.94
618.691	11.9
619.108	11.86
619.525	11.82
619.942	11.81
620.359	11.76
620.776	11.72
621.192	11.7
621.609	11.67
622.026	11.65
622.442	11.62
622.859	11.6
623.275	11.59
623.691	11.58
624.108	11.57
624.524	11.55
624.94	11.55
625.356	11.55
625.772	11.54
626.188	11.53
626.604	11.52
627.02	11.51
627.436	11.52
627.852	11.51
628.268	11.49
628.683	11.48
629.099	11.47
629.514	11.45
629.93	11.43
630.345	11.4
630.761	11.36
631.176	11.32
631.591	11.28
632.007	11.23
632.422	11.17
632.837	11.11
633.252	11.03
633.667	10.96
634.082	10.87
634.497	10.79
634.911	10.69
635.326	10.6
635.741	10.5
636.155	10.37
636.57	10.26
636.984	10.14
637.399	10.02
637.813	9.9
638.228	9.76
638.642	9.63
639.056	9.49
639.47	9.36
639.884	9.23
640.298	9.08
640.712	8.95
641.126	8.82
641.54	8.67
641.954	8.53
642.368	8.39
642.781	8.28
643.195	8.16
643.609	8.04
644.022	7.91
644.436	7.82
644.849	7.7
645.262	7.59
645.676	7.5
646.089	7.43
646.502	7.36
646.915	7.29
647.328	7.22
647.741	7.16
648.154	7.1
648.567	7.07
648.98	7.02
649.393	6.99
649.805	6.97
650.218	6.93
650.631	6.91
651.043	6.88
651.456	6.85
651.868	6.82
652.28	6.79
652.693	6.78
653.105	6.75
653.517	6.73
653.929	6.71
654.341	6.67
654.753	6.64
655.165	6.6
655.577	6.57
655.989	6.53
656.401	6.5
656.813	6.46
657.224	6.4
657.636	6.33
658.047	6.27
658.459	6.2
658.87	6.14
659.282	6.07
659.693	6
660.104	5.93
660.515	5.86
660.926	5.8
661.338	5.72
661.749	5.67
662.159	5.61
662.57	5.55
662.981	5.5
663.392	5.45
663.803	5.4
664.213	5.35
664.624	5.31
665.035	5.26
665.445	5.22
665.855	5.17
666.266	5.14
666.676	5.11
667.086	5.08
667.497	5.05
667.907	5.03
668.317	5.01
668.727	4.99
669.137	4.97
669.547	4.97
669.956	4.97
670.366	4.97
670.776	4.97
671.186	4.98
671.595	4.97
672.005	4.97
672.414	4.99
672.824	5
673.233	5.02
673.642	5.05
674.052	5.06
674.461	5.08
674.87	5.1
675.279	5.14
675.688	5.17
676.097	5.21
676.506	5.26
676.915	5.31
677.323	5.35
677.732	5.39
678.141	5.45
678.549	5.51
678.958	5.58
679.366	5.65
679.775	5.71
680.183	5.8
680.592	5.89
681	5.99
681.408	6.1
681.816	6.22
682.224	6.37
682.632	6.52
683.04	6.67
683.448	6.85
683.856	7.05
684.264	7.26
684.671	7.5
685.079	7.75
685.487	8.03
685.894	8.34
686.302	8.67
686.709	9.03
687.116	9.42
687.524	9.84
687.931	10.27
688.338	10.73
688.745	11.2
689.152	11.7
689.559	12.22
689.966	12.77
690.373	13.32
690.78	13.89
691.187	14.48
691.593	15.07
692	15.68
692.407	16.28
692.813	16.91
693.22	17.54
693.626	18.19
694.032	18.82
694.439	19.46
694.845	20.1
695.251	20.73
695.657	21.35
696.063	21.97
696.469	22.6
696.875	23.22
697.281	23.83
697.687	24.45
698.093	25.04
698.498	25.63
698.904	26.21
699.31	26.78
699.715	27.35
700.12	27.9
700.526	28.44
700.931	28.96
701.337	29.47
701.742	29.95
702.147	30.45
702.552	30.94
702.957	31.41
703.362	31.87
703.767	32.31
704.172	32.74
704.577	33.17
704.981	33.59
705.386	34.02
705.791	34.43
706.195	34.84
706.6	35.23
707.004	35.59
707.408	35.98
707.813	36.35
708.217	36.71
708.621	37.08
709.025	37.43
709.43	37.77
709.834	38.11
710.237	38.43
710.641	38.75
711.045	39.05
711.449	39.37
711.853	39.69
712.256	39.98
712.66	40.27
713.064	40.55
713.467	40.85
713.87	41.12
714.274	41.38
714.677	41.66
715.08	41.91
715.484	42.18
715.887	42.43
716.29	42.67
716.693	42.92
717.096	43.15
717.499	43.41
717.901	43.61
718.304	43.82
718.707	44.04
719.109	44.25
719.512	44.47
719.915	44.67
720.317	44.83
720.719	44.99
721.122	45.17
721.524	45.36
721.926	45.53
722.328	45.71
722.731	45.87
723.133	46.04
723.535	46.18
723.937	46.32
724.338	46.47
724.74	46.64
725.142	46.87
725.544	46.99
725.945	47.14
726.347	47.23
726.748	47.36
727.15	47.45
727.551	47.57
727.952	47.66
728.354	47.8
728.755	47.87
729.156	47.97
729.557	47.96
729.958	48.04
730.359	48.12
730.76	48.2
731.161	48.28
731.562	48.39
731.962	48.44
732.363	48.53
732.763	48.6
733.164	48.69
733.564	48.78
733.965	48.83
734.365	48.92
734.766	48.96
735.166	49.05
735.566	49.11
735.966	49.15
736.366	49.2
736.766	49.22
737.166	49.24
737.566	49.3
737.966	49.31
738.365	49.35
738.765	49.39
739.165	49.42
739.564	49.42
739.964	49.44
740.363	49.46
740.763	49.51
741.162	49.55
741.561	49.57
741.96	49.55
742.36	49.58
742.759	49.61
743.158	49.62
743.557	49.64
743.955	49.66
744.354	49.7
744.753	49.74
745.152	49.76
745.55	49.78
745.949	49.81
746.348	49.85
746.746	49.83
747.144	49.86
747.543	49.87
747.941	49.93
748.339	49.92
748.737	49.9
749.136	49.89
749.534	49.88
749.932	49.89
750.33	49.88
750.727	49.9
751.125	49.9
751.523	49.89
751.921	49.89
752.318	49.89
752.716	49.9
753.113	49.95
753.511	49.96
753.908	49.98
754.305	49.99
754.703	49.98
755.1	49.98
755.497	50
755.894	50.01
756.291	50
756.688	49.97
757.085	49.97
757.482	49.94
757.878	49.94
758.275	49.94
758.672	49.92
759.068	49.95
759.465	49.96
759.861	49.95
760.258	49.95
760.654	49.97
761.05	49.99
761.447	50
761.843	50.01
762.239	50.01
762.635	49.98
763.031	49.97
763.427	49.97
763.822	49.96
764.218	49.98
764.614	49.99
765.01	49.97
765.405	49.97
765.801	49.94
766.196	49.94
766.592	49.92
766.987	49.91
767.382	49.89
767.778	49.87
768.173	49.86
768.568	49.84
768.963	49.82
769.358	49.85
769.753	49.85
770.148	49.88
770.542	49.87
770.937	49.88
771.332	49.9
771.726	49.94
772.121	49.95
772.515	49.94
772.91	49.94
773.304	49.95
773.699	49.91
774.093	49.88
774.487	49.85
774.881	49.85
775.275	49.82
775.669	49.78
776.063	49.75
776.457	49.74
776.851	49.73
777.245	49.71
777.638	49.69
778.032	49.69
778.425	49.73
778.819	49.75
779.212	49.74
779.606	49.76
779.999	49.76
780.392	49.8
780.786	49.8
781.179	49.81
781.572	49.85
781.965	49.84
782.358	49.85
782.751	49.83
783.143	49.82
783.536	49.81
783.929	49.8
784.322	49.84
784.714	49.82
785.107	49.81
785.499	49.81
785.891	49.79
786.284	49.81
786.676	49.82
787.068	49.8
787.46	49.8
787.852	49.82
788.245	49.81
788.636	49.79
789.028	49.81
789.42	49.81
789.812	49.8
790.204	49.8
790.595	49.82
790.987	49.8
791.378	49.83
791.77	49.82
792.161	49.83
792.553	49.86
792.944	49.87
793.335	49.87
793.726	49.87
794.117	49.86
794.508	49.85
794.899	49.85
795.29	49.85
795.681	49.79
796.072	49.82
796.463	49.82
796.853	49.8
797.244	49.8
797.634	49.79
798.025	49.83
798.415	49.84
798.806	49.84
799.196	49.84
799.586	49.85
799.976	49.88
800.366	49.89
800.756	49.88
801.146	49.88
801.536	49.9
801.926	49.9
802.316	49.88
802.706	49.89
803.095	49.9
803.485	49.89
803.874	49.88
804.264	49.91
804.653	49.91
805.043	49.89
805.432	49.9
805.821	49.9
806.21	49.92
806.599	49.92
806.988	49.92
807.377	49.92
807.766	49.94
808.155	49.94
808.544	49.94
808.933	49.9
809.321	49.93
809.71	49.92
810.098	49.92
810.487	49.9
810.875	49.87
811.264	49.87
811.652	49.92
812.04	49.89
812.428	49.91
812.816	49.9
813.204	49.92
813.592	49.9
813.98	49.88
814.368	49.89
814.756	49.89
815.144	49.89
815.531	49.88
815.919	49.84
816.306	49.83
816.694	49.82
817.081	49.81
817.469	49.82
817.856	49.82
818.243	49.82
818.63	49.79
819.017	49.79
819.404	49.79
819.791	49.78
820.178	49.78
820.565	49.75
820.952	49.73
821.339	49.73
821.725	49.72
822.112	49.72
822.498	49.75
822.885	49.75
823.271	49.75
823.657	49.73
824.044	49.75
824.43	49.75
824.816	49.78
825.202	49.78
825.588	49.8
825.974	49.8
826.36	49.81
826.746	49.83
827.132	49.83
827.517	49.84
827.903	49.88
828.289	49.88
828.674	49.89
829.06	49.88
829.445	49.86
829.83	49.85
830.216	49.84
830.601	49.82
830.986	49.8
831.371	49.79
831.756	49.8
832.141	49.79
832.526	49.79
832.911	49.79
833.295	49.8
833.68	49.83
834.065	49.84
834.449	49.85
834.834	49.84
835.218	49.83
835.603	49.84
835.987	49.8
836.371	49.8
836.755	49.77
837.139	49.75
837.524	49.76
837.908	49.76
838.291	49.78
838.675	49.77
839.059	49.8
839.443	49.79
839.827	49.77
840.21	49.79
840.594	49.81
840.977	49.82
841.361	49.84
841.744	49.8
842.127	49.78
842.511	49.76
842.894	49.77
843.277	49.75
843.66	49.74
844.043	49.75
844.426	49.74
844.809	49.73
845.191	49.74
845.574	49.74
845.957	49.75
846.339	49.76
846.722	49.75
847.104	49.76
847.487	49.76
847.869	49.77
848.252	49.78
848.634	49.76
849.016	49.76
849.398	49.75
849.78	49.74
850.162	49.74
850.544	49.75
850.926	49.76
851.307	49.75
851.689	49.74
852.071	49.76
852.452	49.76
852.834	49.79
853.215	49.78
853.597	49.79
853.978	49.81
854.359	49.8
854.741	49.78
855.122	49.75
855.503	49.72
855.884	49.72
856.265	49.71
856.646	49.7
857.026	49.68
857.407	49.7
857.788	49.67
858.169	49.68
858.549	49.68
858.93	49.69
859.31	49.7
859.69	49.74
860.071	49.75
860.451	49.75
860.831	49.77
861.211	49.73
861.591	49.74
861.971	49.72
862.351	49.71
862.731	49.7
863.111	49.71
863.491	49.71
863.87	49.69
864.25	49.66
864.629	49.66
865.009	49.67
865.388	49.69
865.768	49.67
866.147	49.7
866.526	49.71
866.905	49.73
867.284	49.75
867.663	49.74
868.042	49.75
868.421	49.77
868.8	49.76
869.179	49.76
869.558	49.76
869.936	49.76
870.315	49.76
870.693	49.74
871.072	49.74
871.45	49.73
871.828	49.74
872.207	49.75
872.585	49.74
872.963	49.76
873.341	49.74
873.719	49.75
874.097	49.75
874.475	49.75
874.853	49.78
875.23	49.79
875.608	49.8
875.986	49.82
876.363	49.82
876.741	49.85
877.118	49.86
877.495	49.88
877.873	49.9
878.25	49.89
878.627	49.9
879.004	49.91
879.381	49.91
879.758	49.89
880.135	49.88
880.512	49.86
880.889	49.85
881.265	49.82
881.642	49.83
882.019	49.8
882.395	49.8
882.772	49.78
883.148	49.76
883.524	49.75
883.901	49.77
884.277	49.74
884.653	49.75
885.029	49.73
885.405	49.75
885.781	49.75
886.157	49.76
886.532	49.77
886.908	49.77
887.284	49.76
887.659	49.72
888.035	49.68
888.411	49.67
888.786	49.65
889.161	49.66
889.537	49.64
889.912	49.61
890.287	49.61
890.662	49.59
891.037	49.59
891.412	49.58
891.787	49.58
892.162	49.58
892.536	49.56
892.911	49.57
893.286	49.56
893.66	49.56
894.035	49.56
894.409	49.51
894.784	49.5
895.158	49.49
895.532	49.5
895.906	49.51
896.281	49.52
896.655	49.52
897.029	49.51
897.402	49.52
897.776	49.51
898.15	49.53
898.524	49.56
898.898	49.57
899.271	49.59
899.645	49.61
900.018	49.63
900.392	49.64
900.765	49.69
901.138	49.68
901.511	49.66
901.884	49.69
902.258	49.7
902.631	49.71
903.003	49.7
903.376	49.71
903.749	49.7
904.122	49.69
904.495	49.69
904.867	49.68
905.24	49.72
905.612	49.74
905.985	49.7
906.357	49.71
906.729	49.72
907.102	49.73
907.474	49.71
907.846	49.69
908.218	49.7
908.59	49.71
908.962	49.71
909.334	49.71
909.705	49.71
910.077	49.74
910.449	49.74
910.82	49.72
911.192	49.71
911.563	49.71
911.935	49.73
912.306	49.74
912.677	49.76
913.048	49.76
913.419	49.75
913.79	49.76
914.161	49.78
914.532	49.75
914.903	49.79
915.274	49.79
915.645	49.8
916.015	49.78
916.386	49.78
916.756	49.76
917.127	49.78
917.497	49.78
917.868	49.78
918.238	49.77
918.608	49.81
918.978	49.78
919.348	49.8
919.718	49.79
920.088	49.84
920.458	49.82
920.828	49.85
921.198	49.83
921.567	49.83
921.937	49.82
922.306	49.81
922.676	49.84
923.045	49.84
923.415	49.81
923.784	49.81
924.153	49.79
924.522	49.81
924.891	49.78
925.26	49.78
925.629	49.78
925.998	49.76
926.367	49.77
926.736	49.7
927.104	49.71
927.473	49.69
927.842	49.66
928.21	49.67
928.578	49.65
928.947	49.67
929.315	49.64
929.683	49.62
930.051	49.61
930.42	49.58
930.788	49.56
931.156	49.53
931.523	49.56
931.891	49.6
932.259	49.59
932.627	49.59
932.994	49.57
933.362	49.57
933.729	49.6
934.097	49.61
934.464	49.62
934.831	49.66
935.199	49.7
935.566	49.67
935.933	49.6
936.3	49.62
936.667	49.59
937.034	49.62
937.401	49.64
937.767	49.62
938.134	49.61
938.501	49.62
938.867	49.61
939.234	49.58
939.6	49.6
939.967	49.64
940.333	49.63
940.699	49.67
941.065	49.57
941.431	49.58
941.798	49.55
942.163	49.57
942.529	49.59
942.895	49.58
943.261	49.54
943.627	49.5
943.992	49.47
944.358	49.44
944.723	49.41
945.089	49.4
945.454	49.39
945.82	49.39
946.185	49.37
946.55	49.29
946.915	49.26
947.28	49.27
947.645	49.29
948.01	49.3
948.375	49.3
948.74	49.27
949.104	49.37
949.469	49.27
949.834	49.24
950.198	49.23
950.562	49.25
950.927	49.22
951.291	49.16
951.655	49.1
952.02	49.09
952.384	48.99
952.748	48.97
953.112	48.88
953.476	48.88
953.839	48.85
954.203	48.82
954.567	48.79
954.931	48.77
955.294	48.73
955.658	48.77
956.021	48.73
956.385	48.75
956.748	48.72
957.111	48.66
957.474	48.65
957.837	48.6
958.2	48.57
958.563	48.59
958.926	48.6
959.289	48.67
959.652	48.64
960.015	48.61
960.377	48.62
960.74	48.67
961.102	48.67
961.465	48.71
961.827	48.82
962.189	48.84
962.552	48.79
962.914	48.79
963.276	48.78
963.638	48.78
964	48.78
964.362	48.82
964.724	48.74
965.085	48.71
965.447	48.67
965.809	48.59
966.17	48.54
966.532	48.56
966.893	48.53
967.255	48.55
967.616	48.58
967.977	48.59
968.338	48.59
968.699	48.65
969.061	48.7
969.421	48.72
969.782	48.76
970.143	48.81
970.504	48.84
970.865	48.92
971.225	48.91
971.586	48.87
971.946	48.82
972.307	48.76
972.667	48.75
973.027	48.83
973.388	48.83
973.748	48.85
974.108	48.88
974.468	48.87
974.828	48.82
975.188	48.79
975.548	48.81
975.907	48.85
976.267	48.91
976.627	48.94
976.986	48.85
977.346	48.87
977.705	48.88
978.064	48.87
978.424	48.92
978.783	48.89
979.142	48.92
979.501	48.92
979.86	48.95
980.219	48.92
980.578	48.89
980.937	48.95
981.296	48.88
981.654	48.88
982.013	48.87
982.371	48.77
982.73	48.79
983.088	48.8
983.447	48.75
983.805	48.72
984.163	48.73
984.521	48.7
984.879	48.65
985.237	48.69
985.595	48.78
985.953	48.76
986.311	48.71
986.669	48.73
987.026	48.74
987.384	48.76
987.741	48.77
988.099	48.87
988.456	48.92
988.814	48.9
989.171	48.88
989.528	48.79
989.885	48.79
990.242	48.95
990.599	48.99
990.956	48.98
991.313	49.08
991.67	49.08
992.027	49.15
992.383	49.14
992.74	49.28
993.096	49.3
993.453	49.27
993.809	49.25
994.165	49.27
994.522	49.3
994.878	49.31
995.234	49.24
995.59	49.25
995.946	49.06
996.302	49.17
996.658	49.16
997.013	49.23
997.369	49.3
997.725	49.41
998.08	49.39
998.436	49.36
998.791	49.49
999.147	49.43
999.502	49.42
999.857	49.4
1000.212	49.28
1000.567	49.2
1000.922	49.18
1001.277	49.11
1001.632	49.06
1001.987	48.99
1002.342	48.97
1002.696	48.87
1003.051	49.06
1003.406	49.14
1003.76	49.22
1004.114	49.14
1004.469	49.22
1004.823	49.45
1005.177	49.53
1005.531	49.6
1005.885	49.66
1006.239	49.63
1006.593	49.67
1006.947	49.51
1007.301	49.46
1007.655	49.45
1008.008	49.62
1008.362	49.56
1008.715	49.24
1009.069	49.2
1009.422	49.22
1009.776	49.09
1010.129	49.13
1010.482	49.15
1010.835	49.36
1011.188	49.48
1011.541	49.5
1011.894	49.49
1012.247	49.63
1012.6	49.69
1012.952	49.78
1013.305	49.82
1013.657	50
1014.01	50.12
1014.362	50.01
1014.715	50.1
1015.067	50.05
1015.419	50.24
1015.771	50.24
1016.123	50.2
1016.475	50.44
1016.827	50.3
1017.179	50.28
1017.531	50.34
1017.883	50.31
1018.234	50.42
1018.586	50.3
1018.938	50.45
1019.289	50.23
1019.64	50.2
1019.992	50.21
1020.343	50.12
1020.694	50.31
1021.045	50.16
1021.396	50.11
1021.747	50.12
1022.098	50.34
1022.449	50.34
1022.8	50.52
1023.151	50.66
1023.501	50.96
1023.852	50.97
1024.202	50.89
1024.553	50.67
1024.903	51
1025.253	51.22
1025.604	51.35
1025.954	50.94
1026.304	50.79
1026.654	50.51
1027.004	50.51
1027.354	50.15
1027.703	50.15
1028.053	50.15
1028.403	50.33
1028.753	49.88
1029.102	49.72
1029.452	49.55
1029.801	49.69
1030.15	49.8
1030.499	49.7
897.758	1332.56
901.051	1339.36
904.343	1336.11
907.636	1358.62
910.928	1318.18
914.22	1320.88
917.511	1299.59
920.803	1242.62
924.094	1238.96
927.384	1210.61
930.675	1163.58
933.965	1158.04
937.255	1088.83
940.544	1045.14
943.834	992.44
947.123	986.72
950.411	926.68
953.7	908.55
956.988	859.07
960.276	824.42
963.563	810.91
966.851	780.13
970.138	774.15
973.424	750.45
976.711	753.63
979.997	718.83
983.283	715.3
986.568	700.2
989.853	679.65
993.138	669.06
996.423	640.78
999.708	623.65
1002.992	617.38
1006.275	589.68
1009.559	585.54
1012.842	563.92
1016.125	549.75
1019.408	539.22
1022.69	532.93
1025.972	521.33
1029.254	508.77
1032.536	501.77
1035.817	490.35
1039.098	484.26
1042.379	473.63
1045.659	467.8
1048.939	458.18
1052.219	447.7
1055.498	441.59
1058.778	430.51
1062.057	420.48
1065.335	415.84
1068.614	411.35
1071.892	407.79
1075.17	393.26
1078.447	387.06
1081.724	383.66
1085.001	380.58
1088.278	373.78
1091.554	365.34
1094.83	366.68
1098.106	364.53
1101.382	361.36
1104.657	358.85
1107.932	353.2
1111.206	356.27
1114.481	347.09
1117.755	344.07
1121.029	341.12
1124.302	340.69
1127.575	335.11
1130.848	330.29
1134.121	326.62
1137.393	324.69
1140.665	317.87
1143.937	315.29
1147.208	313.81
1150.48	312.34
1153.75	309.05
1157.021	304.41
1160.291	303.95
1163.561	301.21
1166.831	300.66
1170.101	299.09
1173.37	297.97
1176.639	298.78
1179.907	296.36
1183.176	292.24
1186.444	293.14
1189.711	292.27
1192.979	291.63
1196.246	289.77
1199.513	290.06
1202.78	288.4
1206.046	288.36
1209.312	285.23
1212.578	285.53
1215.843	288.12
1219.108	287.06
1222.373	292.68
1225.638	294.59
1228.902	298.03
1232.166	299.06
1235.43	300.96
1238.693	305.27
1241.956	306.21
1245.219	312.36
1248.482	311.38
1251.744	310.99
1255.006	311.57
1258.268	303.25
1261.529	300.13
1264.79	299.14
1268.051	296.7
1271.312	294.13
1274.572	290.01
1277.832	287.98
1281.092	282.59
1284.351	280.8
1287.61	280.58
1290.869	276.5
1294.128	274.98
1297.386	275.62
1300.644	271.73
1303.902	272.36
1307.159	272
1310.416	272.12
1313.673	271.65
1316.93	274.91
1320.186	274.89
1323.442	275.42
1326.697	280.27
1329.953	280.73
1333.208	281.03
1336.463	284.86
1339.717	285.82
1342.972	287.34
1346.226	290.78
1349.479	290.77
1352.733	291.77
1355.986	293.27
1359.238	293.27
1362.491	294.69
1365.743	297.83
1368.995	297.76
1372.247	297.37
1375.498	297.37
1378.749	299.78
1382	295.76
1385.251	296.67
1388.501	295.37
1391.751	296.61
1395	294.9
1398.25	292.41
1401.499	290.67
1404.748	290.38
1407.996	287.86
1411.244	286.09
1414.492	284.52
1417.74	281.39
1420.987	277.43
1424.234	276.09
1427.481	271.76
1430.728	271.6
1433.974	268.87
1437.22	266.28
1440.465	265.94
1443.711	262.7
1446.956	260.96
1450.201	257.51
1453.445	254.96
1456.689	254.18
1459.933	249.65
1463.177	248.17
1466.42	243.78
1469.663	241.34
1472.906	239.85
1476.148	233.45
1479.391	230.64
1482.633	228.76
1485.874	225.19
1489.115	224.08
1492.356	221.16
1495.597	221.3
1498.838	217.83
1502.078	216.75
1505.318	215.45
1508.557	215.69
1511.797	215.47
1515.036	214.3
1518.274	213.75
1521.513	212.02
1524.751	212.04
1527.989	211.52
1531.227	210.28
1534.464	211.11
1537.701	209.7
1540.938	209.34
1544.174	206.82
1547.41	206.31
1550.646	205.41
1553.882	205.11
1557.117	203.41
1560.352	201.98
1563.587	201.16
1566.821	200
1570.055	197.99
1573.289	196.28
1576.523	196.33
1579.756	194.38
1582.989	193.68
1586.222	193.41
1589.454	192.35
1592.686	193.8
1595.918	192.84
1599.15	192.51
1602.381	192.69
1605.612	192.72
1608.843	193.82
1612.073	193.32
1615.303	194.95
1618.533	194.65
1621.762	194.29
1624.992	194.45
1628.221	193.94
1631.449	193.8
1634.678	193.07
1637.906	194.27
1641.134	193.93
1644.361	193.61
1647.588	194.31
1650.815	193.24
1654.042	192.77
1657.269	194.54
1660.495	194.55
1663.72	193.72
1666.946	194.7
1670.171	195.77
1673.396	194.67
1676.621	195.12
1679.845	195.68
1683.069	194.68
1686.293	196.6
1689.517	197.8
1692.74	197.1
1695.963	197.94
1699.185	200.01
1702.408	199.77
1705.63	200.24
1708.852	201.06
1712.073	201.55
1715.294	201.74
1718.515	203.44
1721.736	202.08
1724.956	202.85
1728.176	203.09
1731.396	204.86
1734.616	203.55
1737.835	204.53
1741.054	203.14
1744.272	203.75
1747.491	205.25
1750.709	205.53
1753.927	205.27
1757.144	204.98
1760.361	205.53
1763.578	205.88
1766.795	205.04
1770.011	207.05
1773.227	206.59
1776.443	209.26
1779.658	210.43
1782.874	210.08
1786.089	210.84
1789.303	211.67
1792.518	214.22
1795.732	214.38
1798.945	216.04
1802.159	216.49
1805.372	217.14
1808.585	221.47
1811.797	221.85
1815.01	221.89
1818.222	223.45
1821.434	225.29
1824.645	225.75
1827.856	230
1831.067	231.31
1834.278	230.83
1837.488	232.33
1840.698	233.86
1843.908	231.33
1847.117	233.02
1850.326	234.31
1853.535	233.69
1856.744	237.13
1859.952	236.78
1863.16	234.28
1866.368	232.92
1869.575	236.12
1872.782	232.4
1875.989	231.2
1879.196	230.07
1882.402	228.51
1885.608	228.99
1888.814	229.26
1892.019	227.69
1895.224	227.49
1898.429	226.68
1901.634	228.14
1904.838	227.83
1908.042	230.35
1911.246	231.49
1914.449	233.39
1917.652	233.34
1920.855	233.59
1924.058	233.53
1927.26	232.83
1930.462	233.91
1933.664	236.21
1936.865	234.77
1940.066	233.76
1943.267	232.62
1946.467	232.16
1949.668	233.72
1952.868	235.99
1956.067	235.7
1959.267	236.17
1962.466	236.74
1965.665	235.89
1968.863	236.61
1972.061	239.4
1975.259	242.08
1978.457	244.19
1981.654	245.89
1984.852	246.18
1988.048	245.61
1991.245	248.19
1994.441	250.33
1997.637	252.5
2000.833	257.11
2004.028	260.16
2007.223	261.78
2010.418	264.35
2013.613	268.67
2016.807	271.83
2020.001	273.79
2023.194	278.94
2026.388	284.64
2029.581	291.46
2032.774	293.77
2035.966	299.33
2039.158	300.4
2042.35	306.33
2045.542	307.4
2048.733	312.3
2051.924	316.61
2055.115	322.14
2058.306	321.86
2061.496	325.16
2064.686	325.38
2067.875	332
2071.065	332.74
2074.254	331.3
2077.442	335.16
2080.631	337.32
2083.819	340.24
2087.007	340.39
2090.195	345.03
2093.382	348.5
2096.569	346.13
2099.756	350.73
2102.942	351.17
2106.128	355.01
2109.314	362.68
2112.5	360.5
2115.685	368.4
2118.87	368.76
2122.055	376.39
2125.239	378.41
2128.424	382.19
2131.608	384.66
2134.791	390.86
2137.974	392.41
2141.157	393.14
2144.34	394.64
2147.523	401.25
2150.705	398.42
2153.887	402.9
2157.068	403.8
2160.25	401.46
2163.431	402.82
2166.611	409.11
2169.792	416.3
2172.972	421.08
2176.152	424.1
2179.331	429.44
2182.511	436.54
2185.69	441.65
2188.868	450.23
2192.047	450.58
2195.225	463.25
2198.403	476.72
2201.58	484.09
2204.758	492.36
2207.935	504
2211.111	512.26
2214.288	518.04
2217.464	519.6
2220.64	526.95
2223.815	534.37
2226.991	557.65
2230.166	557.95
2233.34	566.3
2236.515	575.32
2239.689	577.28
2242.863	578.5
2246.036	595.67
2249.209	591.24
2252.382	601.15
2255.555	620.9
2258.727	623.11
2261.9	626.16
2265.071	633.01
2268.243	643.51
2271.414	650.92
2274.585	664.78
2277.756	672.16
2280.926	678.72
2284.096	693.72
2287.266	710.32
2290.436	713.05
2293.605	729.26
2296.774	751.32
2299.942	775.15
2303.111	777.16
2306.279	796.51
2309.447	807.81
2312.614	827.2
2315.781	847.58
2318.948	889.98
2322.115	874.11
2325.281	925.32
2328.447	906.02
2331.613	938.29
2334.779	926.88
2337.944	970.88
2341.109	980.5
2344.274	1006.6
2347.438	1040.99
2350.602	1041.92
2353.766	1072.71
2356.929	1089.4
2360.092	1080.48
2363.255	1158.99
2366.418	1159.98
2369.58	1182.31
2372.742	1253.88
2375.904	1284.98
2379.066	1276.28
2382.227	1256.59
2385.388	1360.36
2388.548	1359.26
2391.709	1375.46
2394.869	1530.15
2398.029	1467.5
2401.188	1508.34
2404.347	1500.89
2407.506	1475.15
2410.665	1520.78
2413.823	1611.81
2416.981	1706.79
2420.139	1652.97
2423.296	1639.68
2426.453	1707.87
2429.61	1645.84
2432.767	1719.19
2435.923	1704.57
2439.079	1865.41
2442.235	1886.17
2445.391	1865.86
2448.546	1854.83
2451.701	1798.77
2454.855	1795.64
2458.009	1906.36
2461.163	1986.79
2464.317	2054.49
2467.471	2109.56
2470.624	2108.08
2473.777	2051.07
2476.929	2001.06
2480.082	1944.07
2483.234	1921.51
2486.385	2022.22
2489.537	2032.11
2492.688	2105.1
2495.839	2046.77
2498.989	2004.05
2502.14	2014.33
2505.29	2037.64
2508.439	2066.34
2511.589	2065
2514.738	2250.03
2517.887	2200.46
2521.035	2320.66
2524.183	2350.78
2527.331	2363.08
2530.479	2359.34
2533.627	2379.03
