Data from C_2_HIR_IL_4N_Splice17_13-13-11-682.txt Node
Date: Sat Mar 07 13:13:11 EST 2020
User: sa697716
Spectrometer: NQ5500242
Trigger mode: 0
Integration Time (sec): 1.450000E-1
Scans to average: 20
Nonlinearity correction enabled: false
Boxcar width: 5
Storing dark spectrum: false
XAxis mode: Wavelengths
Number of Pixels in Spectrum: 512
>>>>>Begin Spectral Data<<<<<
187.83	177.55
188.298	191.13
188.766	172.65
189.233	148.6
189.701	157.56
190.169	198.75
190.636	238.93
191.104	398.41
191.571	658.97
192.039	413.22
192.506	376.85
192.974	-94.76
193.441	-108.06
193.908	-85.27
194.375	7.02
194.842	3.26
195.31	77.77
195.777	73.97
196.244	54.41
196.711	53.01
197.177	53.66
197.644	53.08
198.111	52.34
198.578	52.26
199.045	52.43
199.511	51.78
199.978	51.47
200.445	51.26
200.911	50.97
201.378	50.91
201.844	50.75
202.31	50.32
202.777	50.21
203.243	50.04
203.709	49.65
204.176	49.03
204.642	48.97
205.108	49.09
205.574	48.76
206.04	48.44
206.506	47.85
206.972	47.85
207.438	47.44
207.903	46.44
208.369	45.57
208.835	44.72
209.301	43.87
209.766	42.59
210.232	41.24
210.697	40.16
211.163	39.32
211.628	38.54
212.094	37.31
212.559	36.52
213.024	35.95
213.49	35.34
213.955	34.57
214.42	33.95
214.885	33.2
215.35	32.25
215.815	31.11
216.28	29.38
216.745	27.41
217.21	25.44
217.675	23.63
218.14	22.08
218.604	20.7
219.069	19.55
219.534	18.61
219.998	17.77
220.463	17.11
220.927	16.46
221.392	15.97
221.856	15.57
222.32	15.23
222.785	14.94
223.249	14.66
223.713	14.41
224.177	14.2
224.642	13.95
225.106	13.72
225.57	13.49
226.034	13.3
226.497	13.1
226.961	12.91
227.425	12.72
227.889	12.56
228.353	12.38
228.816	12.19
229.28	12
229.744	11.85
230.207	11.7
230.671	11.56
231.134	11.39
231.597	11.27
232.061	11.13
232.524	11.01
232.987	10.87
233.45	10.75
233.914	10.64
234.377	10.53
234.84	10.41
235.303	10.3
235.766	10.19
236.229	10.09
236.691	9.98
237.154	9.88
237.617	9.79
238.08	9.69
238.542	9.59
239.005	9.5
239.468	9.41
239.93	9.33
240.393	9.24
240.855	9.14
241.317	9.06
241.78	8.97
242.242	8.89
242.704	8.82
243.166	8.73
243.629	8.67
244.091	8.6
244.553	8.52
245.015	8.45
245.477	8.38
245.939	8.31
246.4	8.24
246.862	8.17
247.324	8.12
247.786	8.05
248.247	7.98
248.709	7.9
249.17	7.83
249.632	7.79
250.093	7.74
250.555	7.69
251.016	7.64
251.477	7.59
251.939	7.54
252.4	7.49
252.861	7.45
253.322	7.41
253.783	7.37
254.244	7.33
254.705	7.28
255.166	7.23
255.627	7.19
256.088	7.16
256.549	7.13
257.009	7.1
257.47	7.06
257.931	7.01
258.391	6.97
258.852	6.93
259.312	6.89
259.773	6.86
260.233	6.83
260.694	6.8
261.154	6.76
261.614	6.73
262.074	6.7
262.534	6.67
262.994	6.64
263.455	6.62
263.915	6.59
264.374	6.57
264.834	6.55
265.294	6.52
265.754	6.51
266.214	6.49
266.673	6.47
267.133	6.46
267.593	6.45
268.052	6.43
268.512	6.43
268.971	6.42
269.431	6.4
269.89	6.38
270.349	6.38
270.809	6.36
271.268	6.36
271.727	6.34
272.186	6.33
272.645	6.32
273.104	6.31
273.563	6.29
274.022	6.28
274.481	6.27
274.94	6.26
275.399	6.25
275.857	6.24
276.316	6.23
276.775	6.22
277.233	6.22
277.692	6.21
278.15	6.2
278.609	6.2
279.067	6.2
279.525	6.19
279.984	6.18
280.442	6.18
280.9	6.16
281.358	6.15
281.816	6.15
282.274	6.14
282.732	6.12
283.19	6.11
283.648	6.09
284.106	6.07
284.564	6.06
285.021	6.06
285.479	6.05
285.937	6.04
286.394	6.03
286.852	6.01
287.309	6
287.767	5.99
288.224	5.97
288.682	5.95
289.139	5.94
289.596	5.92
290.053	5.9
290.511	5.87
290.968	5.86
291.425	5.84
291.882	5.84
292.339	5.82
292.796	5.8
293.252	5.79
293.709	5.79
294.166	5.78
294.623	5.77
295.079	5.76
295.536	5.76
295.992	5.75
296.449	5.74
296.905	5.74
297.362	5.73
297.818	5.72
298.274	5.73
298.731	5.71
299.187	5.7
299.643	5.7
300.099	5.7
300.555	5.7
301.011	5.68
301.467	5.68
301.923	5.66
302.379	5.66
302.835	5.66
303.291	5.65
303.746	5.65
304.202	5.65
304.658	5.64
305.113	5.63
305.569	5.63
306.024	5.62
306.479	5.61
306.935	5.61
307.39	5.61
307.845	5.61
308.301	5.61
308.756	5.6
309.211	5.59
309.666	5.6
310.121	5.6
310.576	5.6
311.031	5.61
311.486	5.61
311.94	5.62
312.395	5.62
312.85	5.61
313.305	5.61
313.759	5.61
314.214	5.61
314.668	5.6
315.123	5.59
315.577	5.59
316.032	5.57
316.486	5.56
316.94	5.54
317.394	5.53
317.849	5.52
318.303	5.5
318.757	5.49
319.211	5.47
319.665	5.47
320.119	5.46
320.572	5.45
321.026	5.44
321.48	5.43
321.934	5.41
322.387	5.4
322.841	5.39
323.295	5.39
323.748	5.38
324.202	5.38
324.655	5.37
325.108	5.37
325.562	5.37
326.015	5.36
326.468	5.36
326.921	5.36
327.374	5.36
327.827	5.36
328.28	5.36
328.733	5.36
329.186	5.35
329.639	5.34
330.092	5.34
330.545	5.33
330.997	5.33
331.45	5.32
331.903	5.33
332.355	5.34
332.808	5.34
333.26	5.33
333.713	5.32
334.165	5.33
334.617	5.34
335.069	5.33
335.522	5.33
335.974	5.34
336.426	5.33
336.878	5.32
337.33	5.31
337.782	5.3
338.234	5.31
338.686	5.31
339.137	5.31
339.589	5.29
340.041	5.29
340.493	5.28
340.944	5.27
341.396	5.26
341.847	5.24
342.299	5.23
342.75	5.23
343.201	5.19
343.653	5.17
344.104	5.14
344.555	5.12
345.006	5.1
345.457	5.08
345.908	5.07
346.359	5.06
346.81	5.06
347.261	5.05
347.712	5.03
348.163	5.02
348.613	5.02
349.064	5.01
349.515	5.01
349.965	5.01
350.416	5.01
350.866	5.01
351.317	4.99
351.767	4.99
352.217	4.99
352.668	4.99
353.118	5
353.568	5
354.018	5.01
354.468	5.01
354.918	5.02
355.368	5.02
355.818	5.02
356.268	5.03
356.718	5.03
357.168	5.02
357.617	5.01
358.067	5.01
358.517	5.01
358.966	5.01
359.416	5.02
359.865	5.01
360.315	5.02
360.764	5.02
361.213	5.02
361.663	5.02
362.112	5.03
362.561	5.04
363.01	5.04
363.459	5.04
363.908	5.03
364.357	5.04
364.806	5.03
365.255	5.03
365.703	5.04
366.152	5.06
366.601	5.08
367.05	5.09
367.498	5.1
367.947	5.13
368.395	5.15
368.844	5.18
369.292	5.2
369.74	5.25
370.189	5.29
370.637	5.31
371.085	5.34
371.533	5.38
371.981	5.43
372.429	5.49
372.877	5.56
373.325	5.62
373.773	5.68
374.221	5.76
374.669	5.84
375.116	5.93
375.564	6.03
376.012	6.14
376.459	6.25
376.907	6.38
377.354	6.5
377.801	6.62
378.249	6.76
378.696	6.9
379.143	7.05
379.591	7.19
380.038	7.35
380.485	7.51
380.932	7.67
381.379	7.84
381.826	8.01
382.273	8.2
382.72	8.37
383.166	8.57
383.613	8.76
384.06	8.95
384.506	9.14
384.953	9.33
385.4	9.53
385.846	9.73
386.292	9.92
386.739	10.1
387.185	10.26
387.631	10.46
388.078	10.63
388.524	10.81
388.97	10.99
389.416	11.16
389.862	11.33
390.308	11.49
390.754	11.65
391.2	11.8
391.645	11.96
392.091	12.11
392.537	12.26
392.983	12.4
393.428	12.52
393.874	12.62
394.319	12.73
394.765	12.83
395.21	12.91
395.655	12.99
396.101	13.07
396.546	13.12
396.991	13.18
397.436	13.23
397.881	13.3
398.326	13.38
398.771	13.44
399.216	13.48
399.661	13.51
400.106	13.54
400.551	13.56
400.995	13.56
401.44	13.58
401.885	13.59
402.329	13.61
402.774	13.6
403.218	13.59
403.663	13.58
404.107	13.57
404.551	13.57
404.995	13.54
405.44	13.53
405.884	13.52
406.328	13.52
406.772	13.48
407.216	13.46
407.66	13.44
408.104	13.4
408.547	13.38
408.991	13.36
409.435	13.32
409.879	13.31
410.322	13.29
410.766	13.27
411.209	13.25
411.653	13.25
412.096	13.23
412.54	13.22
412.983	13.21
413.426	13.21
413.869	13.2
414.312	13.21
414.756	13.2
415.199	13.18
415.642	13.15
416.085	13.11
416.527	13.05
416.97	13
417.413	12.95
417.856	12.91
418.298	12.86
418.741	12.82
419.184	12.76
419.626	12.73
420.069	12.7
420.511	12.67
420.953	12.64
421.396	12.64
421.838	12.62
422.28	12.59
422.722	12.57
423.164	12.54
423.606	12.52
424.048	12.49
424.49	12.47
424.932	12.42
425.374	12.38
425.816	12.33
426.258	12.28
426.699	12.23
427.141	12.22
427.582	12.22
428.024	12.2
428.465	12.19
428.907	12.17
429.348	12.15
429.789	12.13
430.231	12.16
430.672	12.18
431.113	12.2
431.554	12.22
431.995	12.24
432.436	12.24
432.877	12.26
433.318	12.27
433.759	12.3
434.2	12.33
434.64	12.37
435.081	12.38
435.522	12.4
435.962	12.41
436.403	12.44
436.843	12.46
437.284	12.46
437.724	12.48
438.164	12.49
438.604	12.52
439.045	12.54
439.485	12.56
439.925	12.61
440.365	12.65
440.805	12.69
441.245	12.74
441.685	12.79
442.125	12.86
442.564	12.92
443.004	12.98
443.444	13.04
443.883	13.12
444.323	13.17
444.762	13.23
445.202	13.3
445.641	13.38
446.081	13.46
446.52	13.52
446.959	13.6
447.398	13.68
447.837	13.76
448.276	13.84
448.716	13.91
449.154	14
449.593	14.06
450.032	14.12
450.471	14.19
450.91	14.22
451.349	14.29
451.787	14.35
452.226	14.38
452.664	14.42
453.103	14.46
453.541	14.51
453.98	14.56
454.418	14.6
454.856	14.66
455.295	14.7
455.733	14.73
456.171	14.78
456.609	14.82
457.047	14.87
457.485	14.9
457.923	14.95
458.361	14.99
458.798	15.03
459.236	15.07
459.674	15.09
460.111	15.13
460.549	15.2
460.987	15.24
461.424	15.27
461.862	15.31
462.299	15.35
462.736	15.38
463.173	15.41
463.611	15.44
464.048	15.45
464.485	15.48
464.922	15.48
465.359	15.5
465.796	15.52
466.233	15.52
466.67	15.53
467.106	15.55
467.543	15.53
467.98	15.51
468.416	15.49
468.853	15.48
469.29	15.48
469.726	15.49
470.162	15.46
470.599	15.42
471.035	15.39
471.471	15.38
471.907	15.34
472.344	15.33
472.78	15.31
473.216	15.3
473.652	15.28
474.088	15.23
474.523	15.21
474.959	15.2
475.395	15.18
475.831	15.17
476.266	15.17
476.702	15.16
477.138	15.15
477.573	15.14
478.008	15.14
478.444	15.15
478.879	15.17
479.314	15.18
479.75	15.2
480.185	15.22
480.62	15.24
481.055	15.26
481.49	15.28
481.925	15.33
482.36	15.39
482.795	15.45
483.229	15.51
483.664	15.59
484.099	15.66
484.534	15.73
484.968	15.82
485.403	15.92
485.837	16.03
486.271	16.16
486.706	16.28
487.14	16.42
487.574	16.56
488.009	16.71
488.443	16.85
488.877	17.03
489.311	17.22
489.745	17.41
490.179	17.62
490.613	17.84
491.046	18.04
491.48	18.28
491.914	18.5
492.348	18.74
492.781	18.98
493.215	19.25
493.648	19.51
494.082	19.77
494.515	20.02
494.948	20.29
495.382	20.56
495.815	20.84
496.248	21.13
496.681	21.42
497.114	21.71
497.547	22
497.98	22.3
498.413	22.6
498.846	22.92
499.279	23.25
499.711	23.57
500.144	23.91
500.577	24.24
501.009	24.58
501.442	24.93
501.874	25.29
502.306	25.64
502.739	26.01
503.171	26.38
503.603	26.74
504.036	27.11
504.468	27.49
504.9	27.85
505.332	28.23
505.764	28.63
506.196	29.01
506.627	29.41
507.059	29.81
507.491	30.2
507.923	30.6
508.354	31.01
508.786	31.4
509.217	31.79
509.649	32.2
510.08	32.6
510.512	32.99
510.943	33.37
511.374	33.75
511.805	34.13
512.237	34.5
512.668	34.87
513.099	35.21
513.53	35.6
513.961	35.97
514.391	36.32
514.822	36.69
515.253	37.02
515.684	37.34
516.114	37.67
516.545	37.99
516.975	38.32
517.406	38.67
517.836	39
518.267	39.29
518.697	39.56
519.127	39.82
519.558	40.1
519.988	40.37
520.418	40.65
520.848	40.88
521.278	41.13
521.708	41.51
522.138	41.71
522.567	41.91
522.997	42.12
523.427	42.34
523.857	42.54
524.286	42.72
524.716	42.91
525.145	43.09
525.575	43.28
526.004	43.46
526.433	43.47
526.863	43.64
527.292	43.81
527.721	43.94
528.15	44.07
528.579	44.22
529.008	44.38
529.437	44.49
529.866	44.61
530.295	44.72
530.724	44.83
531.152	44.93
531.581	45.04
532.01	45.13
532.438	45.24
532.867	45.34
533.295	45.42
533.723	45.5
534.152	45.56
534.58	45.65
535.008	45.7
535.436	45.78
535.865	45.84
536.293	45.9
536.721	45.97
537.149	46.03
537.576	46.1
538.004	46.16
538.432	46.21
538.86	46.28
539.287	46.32
539.715	46.39
540.143	46.42
540.57	46.46
540.998	46.5
541.425	46.53
541.852	46.56
542.28	46.58
542.707	46.6
543.134	46.63
543.561	46.65
543.988	46.67
544.415	46.69
544.842	46.72
545.269	46.73
545.696	46.77
546.123	46.8
546.549	46.83
546.976	46.86
547.403	46.88
547.829	46.89
548.256	46.91
548.682	46.93
549.108	46.96
549.535	46.96
549.961	46.99
550.387	46.98
550.813	46.97
551.24	46.98
551.666	46.97
552.092	46.98
552.518	47.01
552.943	47
553.369	46.99
553.795	46.98
554.221	46.99
554.646	46.96
555.072	46.96
555.498	46.95
555.923	46.94
556.349	46.89
556.774	46.85
557.199	46.8
557.625	46.76
558.05	46.73
558.475	46.68
558.9	46.63
559.325	46.61
559.75	46.56
560.175	46.52
560.6	46.47
561.025	46.44
561.449	46.38
561.874	46.31
562.299	46.28
562.723	46.21
563.148	46.15
563.572	46.07
563.997	45.97
564.421	45.87
564.846	45.79
565.27	45.69
565.694	45.6
566.118	45.51
566.542	45.42
566.966	45.31
567.39	45.25
567.814	45.14
568.238	45.05
568.662	44.97
569.086	44.9
569.509	44.8
569.933	44.73
570.357	44.62
570.78	44.53
571.204	44.46
571.627	44.38
572.05	44.27
572.474	44.21
572.897	44.12
573.32	44.01
573.743	43.91
574.166	43.82
574.589	43.72
575.012	43.66
575.435	43.58
575.858	43.48
576.281	43.4
576.704	43.32
577.126	43.25
577.549	43.18
577.972	43.11
578.394	43.04
578.817	42.98
579.239	42.93
579.661	42.84
580.084	42.79
580.506	42.74
580.928	42.66
581.35	42.59
581.772	42.51
582.194	42.45
582.616	42.41
583.038	42.35
583.46	42.28
583.882	42.21
584.303	42.17
584.725	42.12
585.147	42.06
585.568	42.03
585.99	41.96
586.411	41.93
586.833	41.86
587.254	41.81
587.675	41.75
588.096	41.71
588.518	41.66
588.939	41.61
589.36	41.55
589.781	41.48
590.202	41.42
590.623	41.39
591.043	41.32
591.464	41.29
591.885	41.23
592.305	41.19
592.726	41.16
593.147	41.11
593.567	41.05
593.987	41.01
594.408	40.98
594.828	40.94
595.248	40.89
595.669	40.85
596.089	40.81
596.509	40.78
596.929	40.73
597.349	40.68
597.769	40.65
598.189	40.6
598.608	40.56
599.028	40.5
599.448	40.44
599.867	40.39
600.287	40.36
600.706	40.3
601.126	40.26
601.545	40.23
601.965	40.16
602.384	40.11
602.803	40.09
603.222	40.03
603.641	40
604.061	39.96
604.48	39.92
604.898	39.86
605.317	39.82
605.736	39.77
606.155	39.71
606.574	39.66
606.992	39.58
607.411	39.52
607.829	39.44
608.248	39.36
608.666	39.29
609.085	39.23
609.503	39.18
609.921	39.1
610.339	39.01
610.758	38.94
611.176	38.86
611.594	38.8
612.012	38.73
612.43	38.68
612.847	38.61
613.265	38.53
613.683	38.44
614.101	38.37
614.518	38.27
614.936	38.2
615.353	38.1
615.771	38.04
616.188	37.97
616.606	37.89
617.023	37.85
617.44	37.81
617.857	37.75
618.274	37.7
618.691	37.63
619.108	37.6
619.525	37.54
619.942	37.5
620.359	37.46
620.776	37.42
621.192	37.39
621.609	37.35
622.026	37.3
622.442	37.27
622.859	37.26
623.275	37.24
623.691	37.22
624.108	37.22
624.524	37.2
624.94	37.2
625.356	37.19
625.772	37.17
626.188	37.15
626.604	37.15
627.02	37.14
627.436	37.12
627.852	37.11
628.268	37.1
628.683	37.09
629.099	37.08
629.514	37.05
629.93	37.03
630.345	37.01
630.761	36.98
631.176	36.94
631.591	36.88
632.007	36.83
632.422	36.74
632.837	36.68
633.252	36.6
633.667	36.51
634.082	36.39
634.497	36.28
634.911	36.14
635.326	36.01
635.741	35.85
636.155	35.7
636.57	35.52
636.984	35.36
637.399	35.16
637.813	34.97
638.228	34.74
638.642	34.54
639.056	34.3
639.47	34.08
639.884	33.83
640.298	33.58
640.712	33.33
641.126	33.09
641.54	32.81
641.954	32.55
642.368	32.27
642.781	32.02
643.195	31.76
643.609	31.5
644.022	31.24
644.436	31.01
644.849	30.78
645.262	30.54
645.676	30.31
646.089	30.11
646.502	29.93
646.915	29.78
647.328	29.62
647.741	29.45
648.154	29.31
648.567	29.18
648.98	29.06
649.393	28.93
649.805	28.84
650.218	28.76
650.631	28.68
651.043	28.6
651.456	28.5
651.868	28.41
652.28	28.33
652.693	28.27
653.105	28.19
653.517	28.11
653.929	28.03
654.341	27.92
654.753	27.8
655.165	27.68
655.577	27.56
655.989	27.41
656.401	27.27
656.813	27.12
657.224	26.94
657.636	26.75
658.047	26.57
658.459	26.37
658.87	26.18
659.282	25.97
659.693	25.75
660.104	25.52
660.515	25.3
660.926	25.06
661.338	24.83
661.749	24.59
662.159	24.35
662.57	24.11
662.981	23.89
663.392	23.64
663.803	23.43
664.213	23.2
664.624	22.97
665.035	22.77
665.445	22.58
665.855	22.38
666.266	22.21
666.676	22.06
667.086	21.88
667.497	21.74
667.907	21.61
668.317	21.47
668.727	21.36
669.137	21.25
669.547	21.14
669.956	21.05
670.366	20.99
670.776	20.9
671.186	20.86
671.595	20.82
672.005	20.77
672.414	20.75
672.824	20.74
673.233	20.73
673.642	20.75
674.052	20.77
674.461	20.79
674.87	20.82
675.279	20.9
675.688	20.95
676.097	21.03
676.506	21.13
676.915	21.24
677.323	21.37
677.732	21.52
678.141	21.7
678.549	21.9
678.958	22.12
679.366	22.38
679.775	22.65
680.183	22.98
680.592	23.34
681	23.74
681.408	24.18
681.816	24.64
682.224	25.13
682.632	25.65
683.04	26.22
683.448	26.81
683.856	27.43
684.264	28.06
684.671	28.74
685.079	29.42
685.487	30.12
685.894	30.85
686.302	31.58
686.709	32.33
687.116	33.09
687.524	33.83
687.931	34.58
688.338	35.34
688.745	36.09
689.152	36.81
689.559	37.54
689.966	38.27
690.373	38.97
690.78	39.65
691.187	40.3
691.593	40.94
692	41.57
692.407	42.16
692.813	42.75
693.22	43.3
693.626	43.84
694.032	44.37
694.439	44.86
694.845	45.34
695.251	45.82
695.657	46.27
696.063	46.71
696.469	47.12
696.875	47.54
697.281	47.9
697.687	48.27
698.093	48.65
698.498	48.97
698.904	49.29
699.31	49.59
699.715	49.87
700.12	50.16
700.526	50.43
700.931	50.71
701.337	50.93
701.742	51.17
702.147	51.41
702.552	51.62
702.957	51.8
703.362	51.99
703.767	52.16
704.172	52.34
704.577	52.51
704.981	52.67
705.386	52.81
705.791	52.96
706.195	53.12
706.6	53.25
707.004	53.39
707.408	53.55
707.813	53.72
708.217	53.87
708.621	54
709.025	54.13
709.43	54.23
709.834	54.37
710.237	54.49
710.641	54.6
711.045	54.7
711.449	54.81
711.853	54.92
712.256	55.02
712.66	55.09
713.064	55.17
713.467	55.25
713.87	55.36
714.274	55.42
714.677	55.52
715.08	55.59
715.484	55.68
715.887	55.79
716.29	55.83
716.693	55.9
717.096	56
717.499	56.08
717.901	56.16
718.304	56.24
718.707	56.32
719.109	56.37
719.512	56.46
719.915	56.51
720.317	56.53
720.719	56.58
721.122	56.64
721.524	56.68
721.926	56.73
722.328	56.77
722.731	56.8
723.133	56.86
723.535	56.9
723.937	56.93
724.338	56.95
724.74	57
725.142	57.13
725.544	57.15
725.945	57.22
726.347	57.24
726.748	57.27
727.15	57.29
727.551	57.32
727.952	57.32
728.354	57.34
728.755	57.38
729.156	57.39
729.557	57.31
729.958	57.31
730.359	57.33
730.76	57.34
731.161	57.35
731.562	57.39
731.962	57.37
732.363	57.42
732.763	57.44
733.164	57.44
733.564	57.46
733.965	57.5
734.365	57.54
734.766	57.52
735.166	57.54
735.566	57.55
735.966	57.54
736.366	57.56
736.766	57.51
737.166	57.53
737.566	57.52
737.966	57.54
738.365	57.54
738.765	57.53
739.165	57.56
739.564	57.56
739.964	57.56
740.363	57.53
740.763	57.54
741.162	57.55
741.561	57.52
741.96	57.53
742.36	57.5
742.759	57.49
743.158	57.5
743.557	57.46
743.955	57.48
744.354	57.48
744.753	57.52
745.152	57.53
745.55	57.53
745.949	57.56
746.348	57.61
746.746	57.62
747.144	57.64
747.543	57.64
747.941	57.65
748.339	57.59
748.737	57.57
749.136	57.56
749.534	57.53
749.932	57.52
750.33	57.49
750.727	57.45
751.125	57.43
751.523	57.4
751.921	57.39
752.318	57.38
752.716	57.42
753.113	57.45
753.511	57.44
753.908	57.47
754.305	57.49
754.703	57.46
755.1	57.46
755.497	57.47
755.894	57.47
756.291	57.48
756.688	57.47
757.085	57.46
757.482	57.46
757.878	57.46
758.275	57.43
758.672	57.4
759.068	57.43
759.465	57.45
759.861	57.45
760.258	57.47
760.654	57.46
761.05	57.49
761.447	57.49
761.843	57.47
762.239	57.48
762.635	57.47
763.031	57.46
763.427	57.44
763.822	57.45
764.218	57.41
764.614	57.41
765.01	57.39
765.405	57.37
765.801	57.33
766.196	57.31
766.592	57.27
766.987	57.29
767.382	57.3
767.778	57.31
768.173	57.27
768.568	57.27
768.963	57.25
769.358	57.25
769.753	57.25
770.148	57.24
770.542	57.23
770.937	57.24
771.332	57.22
771.726	57.23
772.121	57.22
772.515	57.21
772.91	57.21
773.304	57.23
773.699	57.2
774.093	57.18
774.487	57.18
774.881	57.2
775.275	57.19
775.669	57.19
776.063	57.16
776.457	57.15
776.851	57.14
777.245	57.13
777.638	57.1
778.032	57.11
778.425	57.17
778.819	57.15
779.212	57.13
779.606	57.14
779.999	57.12
780.392	57.13
780.786	57.16
781.179	57.2
781.572	57.22
781.965	57.23
782.358	57.24
782.751	57.21
783.143	57.22
783.536	57.22
783.929	57.21
784.322	57.25
784.714	57.25
785.107	57.24
785.499	57.21
785.891	57.19
786.284	57.2
786.676	57.2
787.068	57.16
787.46	57.17
787.852	57.17
788.245	57.17
788.636	57.13
789.028	57.12
789.42	57.1
789.812	57.14
790.204	57.15
790.595	57.16
790.987	57.13
791.378	57.16
791.77	57.17
792.161	57.18
792.553	57.18
792.944	57.2
793.335	57.19
793.726	57.2
794.117	57.14
794.508	57.11
794.899	57.09
795.29	57.11
795.681	57.07
796.072	57.06
796.463	57.09
796.853	57.08
797.244	57.08
797.634	57.07
798.025	57.08
798.415	57.11
798.806	57.13
799.196	57.13
799.586	57.12
799.976	57.15
800.366	57.15
800.756	57.12
801.146	57.14
801.536	57.13
801.926	57.15
802.316	57.16
802.706	57.19
803.095	57.21
803.485	57.22
803.874	57.22
804.264	57.21
804.653	57.21
805.043	57.22
805.432	57.21
805.821	57.26
806.21	57.25
806.599	57.25
806.988	57.22
807.377	57.2
807.766	57.2
808.155	57.16
808.544	57.2
808.933	57.19
809.321	57.16
809.71	57.17
810.098	57.13
810.487	57.11
810.875	57.12
811.264	57.11
811.652	57.1
812.04	57.1
812.428	57.13
812.816	57.1
813.204	57.08
813.592	57.07
813.98	57.06
814.368	57.06
814.756	57.03
815.144	56.98
815.531	56.96
815.919	56.97
816.306	56.92
816.694	56.92
817.081	56.91
817.469	56.95
817.856	56.94
818.243	56.9
818.63	56.89
819.017	56.9
819.404	56.9
819.791	56.88
820.178	56.87
820.565	56.9
820.952	56.87
821.339	56.86
821.725	56.84
822.112	56.87
822.498	56.91
822.885	56.96
823.271	56.98
823.657	56.96
824.044	56.98
824.43	57.01
824.816	57
825.202	57.02
825.588	57.02
825.974	57.01
826.36	57.01
826.746	56.98
827.132	56.95
827.517	56.95
827.903	56.97
828.289	56.99
828.674	56.97
829.06	56.98
829.445	56.97
829.83	56.97
830.216	56.97
830.601	56.95
830.986	56.94
831.371	56.92
831.756	56.91
832.141	56.91
832.526	56.9
832.911	56.9
833.295	56.9
833.68	56.9
834.065	56.91
834.449	56.89
834.834	56.89
835.218	56.88
835.603	56.88
835.987	56.85
836.371	56.87
836.755	56.83
837.139	56.8
837.524	56.77
837.908	56.76
838.291	56.76
838.675	56.77
839.059	56.76
839.443	56.74
839.827	56.72
840.21	56.72
840.594	56.68
840.977	56.67
841.361	56.68
841.744	56.62
842.127	56.62
842.511	56.6
842.894	56.58
843.277	56.58
843.66	56.56
844.043	56.57
844.426	56.56
844.809	56.58
845.191	56.59
845.574	56.57
845.957	56.64
846.339	56.63
846.722	56.62
847.104	56.65
847.487	56.66
847.869	56.67
848.252	56.67
848.634	56.68
849.016	56.67
849.398	56.68
849.78	56.71
850.162	56.68
850.544	56.68
850.926	56.66
851.307	56.64
851.689	56.63
852.071	56.63
852.452	56.63
852.834	56.62
853.215	56.61
853.597	56.58
853.978	56.56
854.359	56.56
854.741	56.54
855.122	56.54
855.503	56.52
855.884	56.51
856.265	56.51
856.646	56.5
857.026	56.52
857.407	56.55
857.788	56.55
858.169	56.57
858.549	56.56
858.93	56.55
859.31	56.56
859.69	56.58
860.071	56.6
860.451	56.6
860.831	56.61
861.211	56.57
861.591	56.55
861.971	56.54
862.351	56.52
862.731	56.55
863.111	56.51
863.491	56.5
863.87	56.48
864.25	56.44
864.629	56.44
865.009	56.43
865.388	56.45
865.768	56.43
866.147	56.44
866.526	56.43
866.905	56.41
867.284	56.44
867.663	56.46
868.042	56.47
868.421	56.5
868.8	56.51
869.179	56.53
869.558	56.52
869.936	56.52
870.315	56.51
870.693	56.51
871.072	56.52
871.45	56.53
871.828	56.52
872.207	56.52
872.585	56.49
872.963	56.47
873.341	56.46
873.719	56.46
874.097	56.45
874.475	56.49
874.853	56.49
875.23	56.5
875.608	56.5
875.986	56.54
876.363	56.54
876.741	56.56
877.118	56.59
877.495	56.6
877.873	56.6
878.25	56.64
878.627	56.63
879.004	56.64
879.381	56.62
879.758	56.58
880.135	56.55
880.512	56.53
880.889	56.51
881.265	56.48
881.642	56.48
882.019	56.49
882.395	56.44
882.772	56.4
883.148	56.37
883.524	56.37
883.901	56.37
884.277	56.33
884.653	56.31
885.029	56.29
885.405	56.27
885.781	56.25
886.157	56.22
886.532	56.22
886.908	56.22
887.284	56.22
887.659	56.21
888.035	56.21
888.411	56.24
888.786	56.23
889.161	56.24
889.537	56.24
889.912	56.23
890.287	56.22
890.662	56.22
891.037	56.23
891.412	56.22
891.787	56.19
892.162	56.17
892.536	56.15
892.911	56.15
893.286	56.15
893.66	56.14
894.035	56.16
894.409	56.15
894.784	56.16
895.158	56.14
895.532	56.14
895.906	56.18
896.281	56.17
896.655	56.17
897.029	56.16
897.402	56.14
897.776	56.14
898.15	56.13
898.524	56.15
898.898	56.12
899.271	56.14
899.645	56.16
900.018	56.18
900.392	56.22
900.765	56.24
901.138	56.26
901.511	56.3
901.884	56.32
902.258	56.34
902.631	56.32
903.003	56.36
903.376	56.35
903.749	56.33
904.122	56.33
904.495	56.31
904.867	56.34
905.24	56.36
905.612	56.37
905.985	56.34
906.357	56.34
906.729	56.37
907.102	56.37
907.474	56.39
907.846	56.42
908.218	56.37
908.59	56.4
908.962	56.37
909.334	56.36
909.705	56.34
910.077	56.37
910.449	56.37
910.82	56.35
911.192	56.32
911.563	56.33
911.935	56.29
912.306	56.31
912.677	56.28
913.048	56.31
913.419	56.3
913.79	56.28
914.161	56.25
914.532	56.21
914.903	56.19
915.274	56.2
915.645	56.2
916.015	56.25
916.386	56.25
916.756	56.23
917.127	56.22
917.497	56.25
917.868	56.28
918.238	56.29
918.608	56.32
918.978	56.35
919.348	56.39
919.718	56.36
920.088	56.36
920.458	56.36
920.828	56.38
921.198	56.37
921.567	56.36
921.937	56.37
922.306	56.38
922.676	56.37
923.045	56.38
923.415	56.33
923.784	56.35
924.153	56.35
924.522	56.35
924.891	56.36
925.26	56.36
925.629	56.37
925.998	56.34
926.367	56.35
926.736	56.33
927.104	56.29
927.473	56.29
927.842	56.24
928.21	56.25
928.578	56.23
928.947	56.25
929.315	56.21
929.683	56.19
930.051	56.15
930.42	56.11
930.788	56.08
931.156	56.08
931.523	56.07
931.891	56.11
932.259	56.05
932.627	56.01
932.994	55.97
933.362	55.97
933.729	55.96
934.097	55.99
934.464	55.99
934.831	55.97
935.199	55.96
935.566	55.96
935.933	55.87
936.3	55.9
936.667	55.92
937.034	55.92
937.401	55.92
937.767	55.9
938.134	55.9
938.501	55.91
938.867	55.95
939.234	55.9
939.6	55.86
939.967	55.9
940.333	55.86
940.699	55.91
941.065	55.83
941.431	55.81
941.798	55.76
942.163	55.75
942.529	55.72
942.895	55.73
943.261	55.77
943.627	55.77
943.992	55.8
944.358	55.8
944.723	55.74
945.089	55.71
945.454	55.71
945.82	55.69
946.185	55.64
946.55	55.53
946.915	55.48
947.28	55.41
947.645	55.37
948.01	55.34
948.375	55.32
948.74	55.32
949.104	55.35
949.469	55.29
949.834	55.29
950.198	55.26
950.562	55.28
950.927	55.26
951.291	55.18
951.655	55.14
952.02	55.12
952.384	55.11
952.748	55.04
953.112	55.01
953.476	54.98
953.839	54.9
954.203	54.88
954.567	54.85
954.931	54.82
955.294	54.82
955.658	54.89
956.021	54.86
956.385	54.78
956.748	54.76
957.111	54.76
957.474	54.77
957.837	54.81
958.2	54.84
958.563	54.86
958.926	54.87
959.289	54.91
959.652	54.83
960.015	54.85
960.377	54.89
960.74	54.89
961.102	54.87
961.465	54.93
961.827	54.94
962.189	54.98
962.552	54.96
962.914	54.95
963.276	54.97
963.638	55.04
964	55.02
964.362	55.01
964.724	54.97
965.085	54.95
965.447	54.87
965.809	54.84
966.17	54.76
966.532	54.73
966.893	54.73
967.255	54.72
967.616	54.67
967.977	54.67
968.338	54.66
968.699	54.76
969.061	54.76
969.421	54.82
969.782	54.86
970.143	54.85
970.504	54.9
970.865	54.97
971.225	54.97
971.586	54.96
971.946	54.97
972.307	54.89
972.667	54.83
973.027	54.89
973.388	54.85
973.748	54.87
974.108	54.97
974.468	54.9
974.828	54.9
975.188	54.84
975.548	54.88
975.907	54.92
976.267	55.06
976.627	55.1
976.986	55.03
977.346	55.03
977.705	55.02
978.064	55
978.424	55.07
978.783	55.01
979.142	55.05
979.501	55
979.86	55.01
980.219	54.95
980.578	54.94
980.937	55.05
981.296	55
981.654	55.02
982.013	55.01
982.371	55
982.73	55.04
983.088	55.02
983.447	55.03
983.805	54.99
984.163	54.95
984.521	54.92
984.879	54.81
985.237	54.92
985.595	54.96
985.953	54.93
986.311	54.9
986.669	54.92
987.026	54.88
987.384	54.94
987.741	54.89
988.099	55.04
988.456	55.06
988.814	55.14
989.171	55.05
989.528	54.91
989.885	54.85
990.242	54.9
990.599	54.91
990.956	54.98
991.313	55.02
991.67	55.11
992.027	55.09
992.383	55.08
992.74	55.09
993.096	55.18
993.453	55.3
993.809	55.33
994.165	55.4
994.522	55.45
994.878	55.52
995.234	55.53
995.59	55.43
995.946	55.43
996.302	55.47
996.658	55.47
997.013	55.42
997.369	55.39
997.725	55.5
998.08	55.55
998.436	55.56
998.791	55.54
999.147	55.48
999.502	55.55
999.857	55.47
1000.212	55.49
1000.567	55.47
1000.922	55.47
1001.277	55.47
1001.632	55.35
1001.987	55.17
1002.342	55.01
1002.696	55.03
1003.051	55.09
1003.406	55.22
1003.76	55.21
1004.114	55.11
1004.469	55.12
1004.823	55.3
1005.177	55.36
1005.531	55.41
1005.885	55.43
1006.239	55.62
1006.593	55.63
1006.947	55.64
1007.301	55.51
1007.655	55.49
1008.008	55.64
1008.362	55.72
1008.715	55.67
1009.069	55.67
1009.422	55.73
1009.776	55.74
1010.129	55.74
1010.482	55.67
1010.835	55.58
1011.188	55.55
1011.541	55.66
1011.894	55.54
1012.247	55.53
1012.6	55.67
1012.952	55.65
1013.305	55.75
1013.657	55.83
1014.01	55.79
1014.362	55.85
1014.715	56.1
1015.067	56.23
1015.419	56.31
1015.771	56.33
1016.123	56.42
1016.475	56.27
1016.827	56.29
1017.179	56.35
1017.531	56.51
1017.883	56.5
1018.234	56.79
1018.586	56.76
1018.938	56.95
1019.289	56.71
1019.64	57.03
1019.992	57.02
1020.343	57.06
1020.694	57.18
1021.045	57.16
1021.396	57.16
1021.747	57.14
1022.098	56.91
1022.449	56.77
1022.8	56.78
1023.151	56.74
1023.501	56.52
1023.852	56.53
1024.202	56.39
1024.553	56.35
1024.903	56.41
1025.253	56.4
1025.604	56.68
1025.954	56.55
1026.304	56.65
1026.654	56.6
1027.004	56.86
1027.354	56.84
1027.703	56.54
1028.053	56.44
1028.403	56.58
1028.753	56.31
1029.102	56.36
1029.452	56.26
1029.801	56.5
1030.15	56.5
1030.499	56.27
897.758	1270.44
901.051	1286.42
904.343	1280.54
907.636	1305.35
910.928	1268.56
914.22	1268.14
917.511	1249.82
920.803	1196.77
924.094	1192.33
927.384	1161.38
930.675	1118.69
933.965	1113.55
937.255	1045.01
940.544	1004.4
943.834	952.5
947.123	946.48
950.411	888.73
953.7	871.92
956.988	824.18
960.276	791.28
963.563	779.98
966.851	750.74
970.138	745.16
973.424	721.07
976.711	724.33
979.997	692.15
983.283	688.46
986.568	675.79
989.853	654.3
993.138	645.23
996.423	619.35
999.708	602.33
1002.992	597.27
1006.275	570.52
1009.559	566.27
1012.842	545.76
1016.125	530.74
1019.408	521.67
1022.69	515.1
1025.972	505.28
1029.254	492.41
1032.536	485.55
1035.817	474.48
1039.098	468.47
1042.379	459.77
1045.659	454.51
1048.939	444.18
1052.219	435.22
1055.498	428.97
1058.778	418.67
1062.057	409.67
1065.335	406.06
1068.614	400.65
1071.892	397.47
1075.17	383.59
1078.447	376.19
1081.724	373.11
1085.001	371.56
1088.278	363.82
1091.554	356.03
1094.83	357.1
1098.106	354.9
1101.382	351.65
1104.657	350
1107.932	343.77
1111.206	346.55
1114.481	337.75
1117.755	334.69
1121.029	331.76
1124.302	331.33
1127.575	324.89
1130.848	320.56
1134.121	316.89
1137.393	315.05
1140.665	308.36
1143.937	306.45
1147.208	305.29
1150.48	304.9
1153.75	301.64
1157.021	296.6
1160.291	297.02
1163.561	294.5
1166.831	294.39
1170.101	292.01
1173.37	291.52
1176.639	292.34
1179.907	289.28
1183.176	285.64
1186.444	285.54
1189.711	284.61
1192.979	284.08
1196.246	282.38
1199.513	282.48
1202.78	280.68
1206.046	280.85
1209.312	278.22
1212.578	278.13
1215.843	280.73
1219.108	279.66
1222.373	284.97
1225.638	287.26
1228.902	291.1
1232.166	290.21
1235.43	293.92
1238.693	297.53
1241.956	298.41
1245.219	303.63
1248.482	303.86
1251.744	303.82
1255.006	304.28
1258.268	296.96
1261.529	294.26
1264.79	292.19
1268.051	292.99
1271.312	287.94
1274.572	284.32
1277.832	282.74
1281.092	276.87
1284.351	275.01
1287.61	275.04
1290.869	270.7
1294.128	269
1297.386	269.3
1300.644	266.08
1303.902	265.97
1307.159	265.61
1310.416	265.82
1313.673	265.31
1316.93	268.2
1320.186	268.32
1323.442	268.46
1326.697	273.59
1329.953	274.41
1333.208	274.65
1336.463	278.06
1339.717	277.95
1342.972	280.96
1346.226	283.89
1349.479	284.14
1352.733	285.5
1355.986	286.67
1359.238	286.95
1362.491	287.71
1365.743	289.83
1368.995	289.53
1372.247	288.18
1375.498	288.4
1378.749	290.59
1382	285.97
1385.251	286.23
1388.501	284.32
1391.751	284.68
1395	282.76
1398.25	280.63
1401.499	278.46
1404.748	278.15
1407.996	275.67
1411.244	274.12
1414.492	271.88
1417.74	269.38
1420.987	264.99
1424.234	265.35
1427.481	261.07
1430.728	260.91
1433.974	258.56
1437.22	256.61
1440.465	255.71
1443.711	253.77
1446.956	251.78
1450.201	248.78
1453.445	246.88
1456.689	246.64
1459.933	241.5
1463.177	239.59
1466.42	235.91
1469.663	232.86
1472.906	231.29
1476.148	225.15
1479.391	222.94
1482.633	221.09
1485.874	217.67
1489.115	215.99
1492.356	213.19
1495.597	212.97
1498.838	209.88
1502.078	208.58
1505.318	207.75
1508.557	208.02
1511.797	207.98
1515.036	206.06
1518.274	205.85
1521.513	204.06
1524.751	204.11
1527.989	204.3
1531.227	203.26
1534.464	204.35
1537.701	202.85
1540.938	202.35
1544.174	199.71
1547.41	199.8
1550.646	199.06
1553.882	198.92
1557.117	196.89
1560.352	195.44
1563.587	194.87
1566.821	193.5
1570.055	192.23
1573.289	190.61
1576.523	190.21
1579.756	189.24
1582.989	188.31
1586.222	188.36
1589.454	186.92
1592.686	188.31
1595.918	187.33
1599.15	186.8
1602.381	187.55
1605.612	186.59
1608.843	188.05
1612.073	188.32
1615.303	189.19
1618.533	188.96
1621.762	188.97
1624.992	189
1628.221	188.87
1631.449	189.32
1634.678	188.56
1637.906	189.5
1641.134	189.74
1644.361	189.39
1647.588	189.23
1650.815	188.37
1654.042	187.77
1657.269	188.78
1660.495	189.17
1663.72	188.83
1666.946	189.34
1670.171	190.05
1673.396	189.78
1676.621	189.87
1679.845	190.17
1683.069	190.05
1686.293	191.5
1689.517	193.35
1692.74	192.86
1695.963	193.23
1699.185	194.73
1702.408	194.94
1705.63	195.41
1708.852	195.98
1712.073	195.89
1715.294	196.38
1718.515	197.66
1721.736	197.11
1724.956	196.61
1728.176	197.07
1731.396	198.94
1734.616	198.06
1737.835	198.68
1741.054	197.78
1744.272	197.64
1747.491	200.2
1750.709	199.92
1753.927	199.73
1757.144	199.43
1760.361	200.16
1763.578	200.45
1766.795	199.85
1770.011	201.61
1773.227	201.01
1776.443	203.33
1779.658	204.3
1782.874	203.46
1786.089	204.33
1789.303	205.14
1792.518	207.8
1795.732	207.74
1798.945	209.64
1802.159	209.79
1805.372	210.25
1808.585	214.48
1811.797	215.13
1815.01	215.07
1818.222	216.88
1821.434	218.27
1824.645	218.96
1827.856	222.04
1831.067	223.9
1834.278	222.96
1837.488	224.72
1840.698	226.3
1843.908	223.98
1847.117	224.8
1850.326	226.48
1853.535	225.77
1856.744	228.86
1859.952	228.74
1863.16	226.36
1866.368	225.55
1869.575	227.62
1872.782	223.3
1875.989	222.5
1879.196	221.61
1882.402	219.63
1885.608	220.34
1888.814	220.21
1892.019	219.51
1895.224	218.68
1898.429	218.29
1901.634	218.67
1904.838	219.2
1908.042	221.56
1911.246	222.1
1914.449	223.57
1917.652	223.94
1920.855	223.72
1924.058	223.16
1927.26	222.15
1930.462	222.85
1933.664	225.53
1936.865	223.9
1940.066	222.84
1943.267	222.5
1946.467	221.72
1949.668	222.97
1952.868	225.58
1956.067	225.07
1959.267	226.05
1962.466	226.88
1965.665	225.7
1968.863	225.52
1972.061	228.99
1975.259	230.93
1978.457	232.98
1981.654	235.22
1984.852	235.22
1988.048	234.44
1991.245	236.98
1994.441	239.51
1997.637	241.06
2000.833	246.1
2004.028	249.67
2007.223	250.32
2010.418	253.68
2013.613	257.15
2016.807	259.92
2020.001	261.75
2023.194	266.8
2026.388	272.39
2029.581	278.49
2032.774	281.14
2035.966	286.72
2039.158	287.35
2042.35	293.24
2045.542	295.25
2048.733	299.61
2051.924	302.61
2055.115	308.71
2058.306	308.54
2061.496	311.2
2064.686	311.06
2067.875	316.22
2071.065	317.28
2074.254	315.54
2077.442	319.48
2080.631	320.28
2083.819	323.77
2087.007	324.45
2090.195	328.37
2093.382	331.11
2096.569	329.63
2099.756	334.17
2102.942	335.13
2106.128	337.88
2109.314	346.56
2112.5	344.57
2115.685	351.84
2118.87	352.69
2122.055	360.6
2125.239	362.45
2128.424	368.12
2131.608	371.31
2134.791	376.26
2137.974	378.54
2141.157	380.25
2144.34	380.14
2147.523	385.71
2150.705	384.01
2153.887	388.31
2157.068	388.91
2160.25	385.05
2163.431	385.97
2166.611	390.91
2169.792	398.67
2172.972	402.54
2176.152	404.2
2179.331	409.77
2182.511	417.39
2185.69	421.43
2188.868	429.52
2192.047	430.79
2195.225	445.37
2198.403	455.3
2201.58	461.95
2204.758	470.75
2207.935	480.01
2211.111	490.31
2214.288	495.7
2217.464	495.88
2220.64	504.56
2223.815	510.58
2226.991	531.93
2230.166	531.39
2233.34	541.94
2236.515	551.3
2239.689	552.36
2242.863	553.9
2246.036	568.6
2249.209	566.21
2252.382	577.08
2255.555	592.94
2258.727	594.37
2261.9	598.22
2265.071	605.4
2268.243	614.84
2271.414	620.65
2274.585	634.35
2277.756	642.93
2280.926	648.36
2284.096	661.39
2287.266	675.49
2290.436	679.95
2293.605	696.21
2296.774	715.75
2299.942	739.71
2303.111	743.21
2306.279	760.96
2309.447	770.3
2312.614	789.82
2315.781	808.69
2318.948	849.35
2322.115	836.79
2325.281	884.99
2328.447	866.62
2331.613	900.37
2334.779	887.42
2337.944	928
2341.109	938.58
2344.274	966.74
2347.438	1000.03
2350.602	1003.03
2353.766	1032.29
2356.929	1047.67
2360.092	1039.4
2363.255	1113.88
2366.418	1112.69
2369.58	1134.44
2372.742	1201.91
2375.904	1231.99
2379.066	1221.27
2382.227	1195.89
2385.388	1296.98
2388.548	1297.18
2391.709	1314.78
2394.869	1466.37
2398.029	1401.51
2401.188	1443.25
2404.347	1427.59
2407.506	1405.03
2410.665	1444.77
2413.823	1530.15
2416.981	1624.89
2420.139	1569.62
2423.296	1552.27
2426.453	1616.33
2429.61	1551.93
2432.767	1626.98
2435.923	1604.69
2439.079	1766.33
2442.235	1786.66
2445.391	1770.27
2448.546	1761.13
2451.701	1713.8
2454.855	1710.84
2458.009	1814.36
2461.163	1896.03
2464.317	1964.44
2467.471	2014.54
2470.624	2016.94
2473.777	1961.59
2476.929	1919.54
2480.082	1863.13
2483.234	1841.88
2486.385	1932.41
2489.537	1941.69
2492.688	2009.94
2495.839	1958.03
2498.989	1911.72
2502.14	1924.64
2505.29	1943.51
2508.439	1978.27
2511.589	1966.36
2514.738	2145.92
2517.887	2099.25
2521.035	2214.11
2524.183	2239.65
2527.331	2255.03
2530.479	2235.81
2533.627	2260.4
