Data from C_2_DEC_CT_2N_Splice17_13-30-36-448.txt Node
Date: Sat Mar 07 13:30:36 EST 2020
User: sa697716
Spectrometer: NQ5500242
Trigger mode: 0
Integration Time (sec): 1.450000E-1
Scans to average: 20
Nonlinearity correction enabled: false
Boxcar width: 5
Storing dark spectrum: false
XAxis mode: Wavelengths
Number of Pixels in Spectrum: 512
>>>>>Begin Spectral Data<<<<<
187.83	192.11
188.298	200.01
188.766	173.24
189.233	137.32
189.701	144.24
190.169	171.6
190.636	200.19
191.104	288.83
191.571	130.64
192.039	-153.11
192.506	-621.22
192.974	244.52
193.441	283.6
193.908	66.38
194.375	28.18
194.842	-26.62
195.31	-21.17
195.777	-224.32
196.244	29.72
196.711	47.62
197.177	51.55
197.644	53.18
198.111	52.7
198.578	53.41
199.045	54.9
199.511	54.86
199.978	54.82
200.445	55.05
200.911	55.32
201.378	55.35
201.844	55.35
202.31	54.77
202.777	54.4
203.243	54.45
203.709	54.07
204.176	53.16
204.642	52.78
205.108	52.46
205.574	52.29
206.04	51.64
206.506	51.28
206.972	51.11
207.438	50.65
207.903	49.99
208.369	48.8
208.835	48.06
209.301	46.97
209.766	45.62
210.232	44.6
210.697	43.26
211.163	42.37
211.628	41.5
212.094	40.14
212.559	39.34
213.024	38.48
213.49	37.75
213.955	36.59
214.42	35.88
214.885	34.97
215.35	33.85
215.815	32.18
216.28	30.1
216.745	27.72
217.21	25.68
217.675	23.68
218.14	21.94
218.604	20.42
219.069	19.2
219.534	18.16
219.998	17.24
220.463	16.46
220.927	15.82
221.392	15.31
221.856	14.9
222.32	14.48
222.785	14.19
223.249	13.9
223.713	13.64
224.177	13.41
224.642	13.15
225.106	12.95
225.57	12.69
226.034	12.47
226.497	12.26
226.961	12.07
227.425	11.88
227.889	11.68
228.353	11.5
228.816	11.3
229.28	11.13
229.744	10.97
230.207	10.8
230.671	10.66
231.134	10.51
231.597	10.39
232.061	10.26
232.524	10.16
232.987	10.02
233.45	9.91
233.914	9.8
234.377	9.7
234.84	9.59
235.303	9.5
235.766	9.41
236.229	9.32
236.691	9.21
237.154	9.11
237.617	9.02
238.08	8.94
238.542	8.84
239.005	8.76
239.468	8.67
239.93	8.58
240.393	8.5
240.855	8.4
241.317	8.32
241.78	8.25
242.242	8.17
242.704	8.08
243.166	8.01
243.629	7.95
244.091	7.87
244.553	7.8
245.015	7.73
245.477	7.65
245.939	7.59
246.4	7.51
246.862	7.45
247.324	7.39
247.786	7.33
248.247	7.26
248.709	7.19
249.17	7.14
249.632	7.09
250.093	7.04
250.555	6.99
251.016	6.95
251.477	6.9
251.939	6.87
252.4	6.84
252.861	6.79
253.322	6.75
253.783	6.71
254.244	6.67
254.705	6.62
255.166	6.58
255.627	6.53
256.088	6.48
256.549	6.44
257.009	6.39
257.47	6.34
257.931	6.29
258.391	6.24
258.852	6.19
259.312	6.15
259.773	6.12
260.233	6.09
260.694	6.06
261.154	6.02
261.614	5.99
262.074	5.95
262.534	5.91
262.994	5.89
263.455	5.87
263.915	5.85
264.374	5.82
264.834	5.8
265.294	5.77
265.754	5.75
266.214	5.73
266.673	5.71
267.133	5.71
267.593	5.69
268.052	5.67
268.512	5.66
268.971	5.64
269.431	5.62
269.89	5.61
270.349	5.6
270.809	5.59
271.268	5.58
271.727	5.57
272.186	5.55
272.645	5.55
273.104	5.54
273.563	5.52
274.022	5.5
274.481	5.5
274.94	5.49
275.399	5.47
275.857	5.46
276.316	5.45
276.775	5.43
277.233	5.42
277.692	5.41
278.15	5.4
278.609	5.39
279.067	5.38
279.525	5.37
279.984	5.35
280.442	5.34
280.9	5.33
281.358	5.32
281.816	5.31
282.274	5.3
282.732	5.28
283.19	5.26
283.648	5.25
284.106	5.24
284.564	5.22
285.021	5.21
285.479	5.2
285.937	5.19
286.394	5.18
286.852	5.16
287.309	5.15
287.767	5.14
288.224	5.12
288.682	5.1
289.139	5.09
289.596	5.07
290.053	5.04
290.511	5.02
290.968	5.01
291.425	4.99
291.882	4.98
292.339	4.96
292.796	4.95
293.252	4.93
293.709	4.92
294.166	4.9
294.623	4.88
295.079	4.87
295.536	4.86
295.992	4.85
296.449	4.84
296.905	4.83
297.362	4.82
297.818	4.8
298.274	4.8
298.731	4.79
299.187	4.77
299.643	4.76
300.099	4.76
300.555	4.75
301.011	4.74
301.467	4.73
301.923	4.71
302.379	4.7
302.835	4.7
303.291	4.7
303.746	4.7
304.202	4.7
304.658	4.69
305.113	4.69
305.569	4.69
306.024	4.69
306.479	4.69
306.935	4.68
307.39	4.68
307.845	4.67
308.301	4.67
308.756	4.66
309.211	4.66
309.666	4.66
310.121	4.65
310.576	4.65
311.031	4.65
311.486	4.64
311.94	4.65
312.395	4.64
312.85	4.65
313.305	4.64
313.759	4.63
314.214	4.64
314.668	4.62
315.123	4.62
315.577	4.61
316.032	4.6
316.486	4.59
316.94	4.57
317.394	4.56
317.849	4.54
318.303	4.52
318.757	4.51
319.211	4.49
319.665	4.48
320.119	4.47
320.572	4.45
321.026	4.44
321.48	4.43
321.934	4.42
322.387	4.41
322.841	4.4
323.295	4.4
323.748	4.4
324.202	4.39
324.655	4.38
325.108	4.38
325.562	4.37
326.015	4.37
326.468	4.36
326.921	4.36
327.374	4.36
327.827	4.36
328.28	4.35
328.733	4.35
329.186	4.35
329.639	4.34
330.092	4.34
330.545	4.33
330.997	4.33
331.45	4.32
331.903	4.33
332.355	4.32
332.808	4.31
333.26	4.31
333.713	4.29
334.165	4.28
334.617	4.28
335.069	4.27
335.522	4.27
335.974	4.27
336.426	4.27
336.878	4.25
337.33	4.25
337.782	4.25
338.234	4.25
338.686	4.25
339.137	4.26
339.589	4.24
340.041	4.25
340.493	4.23
340.944	4.22
341.396	4.21
341.847	4.2
342.299	4.19
342.75	4.18
343.201	4.16
343.653	4.15
344.104	4.12
344.555	4.11
345.006	4.09
345.457	4.08
345.908	4.08
346.359	4.07
346.81	4.06
347.261	4.05
347.712	4.04
348.163	4.03
348.613	4.03
349.064	4.04
349.515	4.04
349.965	4.04
350.416	4.04
350.866	4.03
351.317	4.03
351.767	4.02
352.217	4.02
352.668	4.03
353.118	4.03
353.568	4.03
354.018	4.03
354.468	4.03
354.918	4.02
355.368	4.03
355.818	4.02
356.268	4.02
356.718	4.03
357.168	4.02
357.617	4.01
358.067	4
358.517	4.02
358.966	4.02
359.416	4.02
359.865	4.02
360.315	4.02
360.764	4.03
361.213	4.03
361.663	4.03
362.112	4.03
362.561	4.04
363.01	4.03
363.459	4.02
363.908	4.01
364.357	4
364.806	3.99
365.255	3.98
365.703	3.98
366.152	3.99
366.601	3.99
367.05	3.99
367.498	3.99
367.947	3.99
368.395	3.99
368.844	3.98
369.292	3.98
369.74	3.98
370.189	3.98
370.637	3.98
371.085	3.97
371.533	3.95
371.981	3.95
372.429	3.94
372.877	3.94
373.325	3.94
373.773	3.94
374.221	3.94
374.669	3.95
375.116	3.94
375.564	3.93
376.012	3.93
376.459	3.93
376.907	3.93
377.354	3.93
377.801	3.93
378.249	3.93
378.696	3.92
379.143	3.91
379.591	3.91
380.038	3.92
380.485	3.92
380.932	3.92
381.379	3.93
381.826	3.92
382.273	3.92
382.72	3.91
383.166	3.92
383.613	3.93
384.06	3.93
384.506	3.93
384.953	3.93
385.4	3.93
385.846	3.95
386.292	3.95
386.739	3.94
387.185	3.95
387.631	3.97
388.078	3.97
388.524	3.97
388.97	3.98
389.416	3.99
389.862	3.99
390.308	4.02
390.754	4.03
391.2	4.05
391.645	4.08
392.091	4.1
392.537	4.13
392.983	4.14
393.428	4.17
393.874	4.18
394.319	4.21
394.765	4.24
395.21	4.25
395.655	4.27
396.101	4.3
396.546	4.32
396.991	4.35
397.436	4.36
397.881	4.42
398.326	4.45
398.771	4.49
399.216	4.51
399.661	4.54
400.106	4.58
400.551	4.61
400.995	4.63
401.44	4.65
401.885	4.67
402.329	4.7
402.774	4.71
403.218	4.76
403.663	4.79
404.107	4.82
404.551	4.85
404.995	4.87
405.44	4.88
405.884	4.92
406.328	4.94
406.772	4.97
407.216	5
407.66	5.03
408.104	5.03
408.547	5.05
408.991	5.08
409.435	5.1
409.879	5.12
410.322	5.17
410.766	5.2
411.209	5.24
411.653	5.28
412.096	5.31
412.54	5.34
412.983	5.37
413.426	5.41
413.869	5.45
414.312	5.5
414.756	5.53
415.199	5.55
415.642	5.56
416.085	5.58
416.527	5.59
416.97	5.6
417.413	5.62
417.856	5.63
418.298	5.63
418.741	5.63
419.184	5.64
419.626	5.64
420.069	5.66
420.511	5.68
420.953	5.69
421.396	5.71
421.838	5.72
422.28	5.73
422.722	5.75
423.164	5.77
423.606	5.78
424.048	5.77
424.49	5.78
424.932	5.79
425.374	5.77
425.816	5.74
426.258	5.74
426.699	5.73
427.141	5.72
427.582	5.72
428.024	5.71
428.465	5.73
428.907	5.73
429.348	5.72
429.789	5.72
430.231	5.75
430.672	5.77
431.113	5.79
431.554	5.8
431.995	5.81
432.436	5.82
432.877	5.84
433.318	5.85
433.759	5.88
434.2	5.9
434.64	5.91
435.081	5.92
435.522	5.94
435.962	5.95
436.403	5.99
436.843	6.01
437.284	6.03
437.724	6.01
438.164	6.01
438.604	6.02
439.045	6.02
439.485	6.04
439.925	6.04
440.365	6.05
440.805	6.06
441.245	6.07
441.685	6.11
442.125	6.13
442.564	6.17
443.004	6.19
443.444	6.22
443.883	6.26
444.323	6.27
444.762	6.31
445.202	6.34
445.641	6.39
446.081	6.42
446.52	6.44
446.959	6.48
447.398	6.51
447.837	6.57
448.276	6.59
448.716	6.63
449.154	6.66
449.593	6.7
450.032	6.72
450.471	6.73
450.91	6.73
451.349	6.76
451.787	6.76
452.226	6.76
452.664	6.75
453.103	6.76
453.541	6.76
453.98	6.78
454.418	6.76
454.856	6.76
455.295	6.76
455.733	6.75
456.171	6.73
456.609	6.74
457.047	6.73
457.485	6.72
457.923	6.71
458.361	6.71
458.798	6.69
459.236	6.71
459.674	6.7
460.111	6.69
460.549	6.72
460.987	6.73
461.424	6.73
461.862	6.75
462.299	6.76
462.736	6.76
463.173	6.76
463.611	6.77
464.048	6.77
464.485	6.78
464.922	6.79
465.359	6.78
465.796	6.8
466.233	6.81
466.67	6.82
467.106	6.82
467.543	6.83
467.98	6.83
468.416	6.83
468.853	6.84
469.29	6.83
469.726	6.83
470.162	6.84
470.599	6.83
471.035	6.81
471.471	6.81
471.907	6.8
472.344	6.81
472.78	6.82
473.216	6.81
473.652	6.82
474.088	6.81
474.523	6.82
474.959	6.81
475.395	6.8
475.831	6.82
476.266	6.82
476.702	6.81
477.138	6.81
477.573	6.81
478.008	6.82
478.444	6.81
478.879	6.83
479.314	6.83
479.75	6.82
480.185	6.81
480.62	6.8
481.055	6.8
481.49	6.8
481.925	6.8
482.36	6.81
482.795	6.8
483.229	6.81
483.664	6.82
484.099	6.82
484.534	6.83
484.968	6.86
485.403	6.88
485.837	6.9
486.271	6.93
486.706	6.96
487.14	6.98
487.574	7.03
488.009	7.07
488.443	7.1
488.877	7.15
489.311	7.2
489.745	7.26
490.179	7.32
490.613	7.39
491.046	7.45
491.48	7.52
491.914	7.6
492.348	7.66
492.781	7.75
493.215	7.83
493.648	7.92
494.082	8.01
494.515	8.1
494.948	8.2
495.382	8.29
495.815	8.41
496.248	8.52
496.681	8.64
497.114	8.76
497.547	8.88
497.98	9.02
498.413	9.15
498.846	9.29
499.279	9.43
499.711	9.57
500.144	9.73
500.577	9.89
501.009	10.05
501.442	10.22
501.874	10.41
502.306	10.6
502.739	10.79
503.171	10.99
503.603	11.19
504.036	11.4
504.468	11.62
504.9	11.83
505.332	12.05
505.764	12.29
506.196	12.53
506.627	12.77
507.059	13.02
507.491	13.27
507.923	13.53
508.354	13.8
508.786	14.07
509.217	14.36
509.649	14.65
510.08	14.93
510.512	15.22
510.943	15.5
511.374	15.79
511.805	16.1
512.237	16.39
512.668	16.69
513.099	16.98
513.53	17.28
513.961	17.57
514.391	17.86
514.822	18.17
515.253	18.46
515.684	18.75
516.114	19.07
516.545	19.35
516.975	19.65
517.406	19.96
517.836	20.25
518.267	20.55
518.697	20.84
519.127	21.11
519.558	21.38
519.988	21.66
520.418	21.93
520.848	22.18
521.278	22.44
521.708	22.74
522.138	22.97
522.567	23.22
522.997	23.44
523.427	23.66
523.857	23.88
524.286	24.09
524.716	24.3
525.145	24.48
525.575	24.66
526.004	24.84
526.433	24.93
526.863	25.1
527.292	25.27
527.721	25.4
528.15	25.53
528.579	25.67
529.008	25.8
529.437	25.92
529.866	26.02
530.295	26.13
530.724	26.22
531.152	26.35
531.581	26.45
532.01	26.53
532.438	26.63
532.867	26.72
533.295	26.81
533.723	26.89
534.152	26.97
534.58	27.06
535.008	27.12
535.436	27.2
535.865	27.25
536.293	27.3
536.721	27.34
537.149	27.4
537.576	27.44
538.004	27.48
538.432	27.52
538.86	27.56
539.287	27.57
539.715	27.62
540.143	27.65
540.57	27.68
540.998	27.7
541.425	27.74
541.852	27.76
542.28	27.78
542.707	27.8
543.134	27.82
543.561	27.84
543.988	27.87
544.415	27.88
544.842	27.89
545.269	27.91
545.696	27.95
546.123	27.96
546.549	27.99
546.976	28.02
547.403	28.04
547.829	28.04
548.256	28.05
548.682	28.07
549.108	28.1
549.535	28.13
549.961	28.15
550.387	28.15
550.813	28.16
551.24	28.15
551.666	28.14
552.092	28.14
552.518	28.13
552.943	28.14
553.369	28.12
553.795	28.09
554.221	28.05
554.646	28.02
555.072	28
555.498	27.97
555.923	27.93
556.349	27.89
556.774	27.84
557.199	27.79
557.625	27.73
558.05	27.67
558.475	27.63
558.9	27.58
559.325	27.54
559.75	27.47
560.175	27.41
560.6	27.32
561.025	27.25
561.449	27.15
561.874	27.08
562.299	27.01
562.723	26.93
563.148	26.81
563.572	26.69
563.997	26.56
564.421	26.45
564.846	26.35
565.27	26.26
565.694	26.16
566.118	26.05
566.542	25.93
566.966	25.79
567.39	25.68
567.814	25.56
568.238	25.45
568.662	25.34
569.086	25.21
569.509	25.07
569.933	24.93
570.357	24.79
570.78	24.66
571.204	24.55
571.627	24.42
572.05	24.3
572.474	24.19
572.897	24.09
573.32	23.97
573.743	23.86
574.166	23.77
574.589	23.66
575.012	23.57
575.435	23.48
575.858	23.37
576.281	23.29
576.704	23.2
577.126	23.11
577.549	23.01
577.972	22.92
578.394	22.82
578.817	22.74
579.239	22.67
579.661	22.58
580.084	22.5
580.506	22.42
580.928	22.33
581.35	22.24
581.772	22.16
582.194	22.08
582.616	22
583.038	21.92
583.46	21.84
583.882	21.77
584.303	21.68
584.725	21.62
585.147	21.56
585.568	21.51
585.99	21.46
586.411	21.39
586.833	21.34
587.254	21.29
587.675	21.26
588.096	21.2
588.518	21.14
588.939	21.11
589.36	21.06
589.781	20.99
590.202	20.95
590.623	20.91
591.043	20.86
591.464	20.83
591.885	20.79
592.305	20.75
592.726	20.74
593.147	20.7
593.567	20.66
593.987	20.63
594.408	20.61
594.828	20.58
595.248	20.56
595.669	20.53
596.089	20.48
596.509	20.46
596.929	20.42
597.349	20.38
597.769	20.35
598.189	20.32
598.608	20.3
599.028	20.26
599.448	20.23
599.867	20.18
600.287	20.15
600.706	20.13
601.126	20.08
601.545	20.04
601.965	19.99
602.384	19.94
602.803	19.88
603.222	19.81
603.641	19.75
604.061	19.68
604.48	19.61
604.898	19.54
605.317	19.46
605.736	19.38
606.155	19.31
606.574	19.22
606.992	19.14
607.411	19.06
607.829	18.95
608.248	18.86
608.666	18.76
609.085	18.68
609.503	18.6
609.921	18.52
610.339	18.44
610.758	18.36
611.176	18.27
611.594	18.2
612.012	18.12
612.43	18.05
612.847	17.97
613.265	17.91
613.683	17.85
614.101	17.76
614.518	17.68
614.936	17.6
615.353	17.51
615.771	17.43
616.188	17.36
616.606	17.29
617.023	17.22
617.44	17.17
617.857	17.1
618.274	17.02
618.691	16.95
619.108	16.89
619.525	16.84
619.942	16.8
620.359	16.77
620.776	16.72
621.192	16.69
621.609	16.66
622.026	16.63
622.442	16.6
622.859	16.57
623.275	16.55
623.691	16.53
624.108	16.5
624.524	16.49
624.94	16.46
625.356	16.45
625.772	16.43
626.188	16.42
626.604	16.4
627.02	16.38
627.436	16.38
627.852	16.38
628.268	16.37
628.683	16.37
629.099	16.35
629.514	16.34
629.93	16.32
630.345	16.3
630.761	16.26
631.176	16.23
631.591	16.21
632.007	16.17
632.422	16.11
632.837	16.06
633.252	15.99
633.667	15.93
634.082	15.85
634.497	15.79
634.911	15.69
635.326	15.62
635.741	15.53
636.155	15.43
636.57	15.32
636.984	15.2
637.399	15.09
637.813	14.99
638.228	14.86
638.642	14.74
639.056	14.59
639.47	14.47
639.884	14.33
640.298	14.19
640.712	14.06
641.126	13.93
641.54	13.8
641.954	13.65
642.368	13.5
642.781	13.36
643.195	13.22
643.609	13.09
644.022	12.95
644.436	12.81
644.849	12.68
645.262	12.55
645.676	12.42
646.089	12.3
646.502	12.2
646.915	12.11
647.328	12.02
647.741	11.92
648.154	11.84
648.567	11.76
648.98	11.69
649.393	11.63
649.805	11.56
650.218	11.51
650.631	11.45
651.043	11.38
651.456	11.32
651.868	11.25
652.28	11.18
652.693	11.12
653.105	11.05
653.517	10.97
653.929	10.89
654.341	10.79
654.753	10.69
655.165	10.59
655.577	10.48
655.989	10.37
656.401	10.26
656.813	10.14
657.224	10.01
657.636	9.87
658.047	9.75
658.459	9.61
658.87	9.48
659.282	9.35
659.693	9.22
660.104	9.07
660.515	8.93
660.926	8.78
661.338	8.64
661.749	8.51
662.159	8.38
662.57	8.26
662.981	8.13
663.392	8.01
663.803	7.9
664.213	7.79
664.624	7.68
665.035	7.59
665.445	7.5
665.855	7.41
666.266	7.34
666.676	7.27
667.086	7.19
667.497	7.13
667.907	7.08
668.317	7.03
668.727	6.98
669.137	6.95
669.547	6.92
669.956	6.88
670.366	6.86
670.776	6.83
671.186	6.8
671.595	6.77
672.005	6.76
672.414	6.75
672.824	6.74
673.233	6.73
673.642	6.72
674.052	6.72
674.461	6.73
674.87	6.75
675.279	6.76
675.688	6.78
676.097	6.82
676.506	6.84
676.915	6.87
677.323	6.91
677.732	6.95
678.141	7
678.549	7.06
678.958	7.13
679.366	7.2
679.775	7.29
680.183	7.39
680.592	7.5
681	7.65
681.408	7.79
681.816	7.95
682.224	8.15
682.632	8.35
683.04	8.57
683.448	8.81
683.856	9.07
684.264	9.36
684.671	9.67
685.079	10
685.487	10.36
685.894	10.76
686.302	11.17
686.709	11.61
687.116	12.08
687.524	12.56
687.931	13.07
688.338	13.61
688.745	14.15
689.152	14.7
689.559	15.27
689.966	15.86
690.373	16.45
690.78	17.04
691.187	17.62
691.593	18.22
692	18.82
692.407	19.39
692.813	19.98
693.22	20.54
693.626	21.12
694.032	21.69
694.439	22.23
694.845	22.78
695.251	23.32
695.657	23.85
696.063	24.37
696.469	24.88
696.875	25.38
697.281	25.84
697.687	26.34
698.093	26.81
698.498	27.26
698.904	27.69
699.31	28.1
699.715	28.51
700.12	28.9
700.526	29.28
700.931	29.66
701.337	30.02
701.742	30.36
702.147	30.71
702.552	31.04
702.957	31.33
703.362	31.64
703.767	31.92
704.172	32.21
704.577	32.5
704.981	32.76
705.386	33.02
705.791	33.27
706.195	33.53
706.6	33.77
707.004	33.99
707.408	34.24
707.813	34.47
708.217	34.71
708.621	34.94
709.025	35.16
709.43	35.37
709.834	35.59
710.237	35.8
710.641	35.96
711.045	36.13
711.449	36.34
711.853	36.54
712.256	36.72
712.66	36.89
713.064	37.04
713.467	37.21
713.87	37.38
714.274	37.52
714.677	37.68
715.08	37.86
715.484	38.02
715.887	38.17
716.29	38.28
716.693	38.41
717.096	38.54
717.499	38.68
717.901	38.81
718.304	38.94
718.707	39.06
719.109	39.18
719.512	39.3
719.915	39.42
720.317	39.54
720.719	39.63
721.122	39.72
721.524	39.82
721.926	39.92
722.328	40.02
722.731	40.09
723.133	40.18
723.535	40.26
723.937	40.32
724.338	40.4
724.74	40.47
725.142	40.62
725.544	40.7
725.945	40.81
726.347	40.84
726.748	40.9
727.15	40.96
727.551	41.02
727.952	41.07
728.354	41.14
728.755	41.17
729.156	41.21
729.557	41.18
729.958	41.22
730.359	41.22
730.76	41.3
731.161	41.34
731.562	41.4
731.962	41.41
732.363	41.46
732.763	41.49
733.164	41.54
733.564	41.56
733.965	41.59
734.365	41.65
734.766	41.69
735.166	41.7
735.566	41.72
735.966	41.76
736.366	41.8
736.766	41.8
737.166	41.85
737.566	41.88
737.966	41.9
738.365	41.95
738.765	41.98
739.165	42.01
739.564	42.04
739.964	42.07
740.363	42.06
740.763	42.09
741.162	42.12
741.561	42.11
741.96	42.1
742.36	42.12
742.759	42.13
743.158	42.1
743.557	42.08
743.955	42.09
744.354	42.1
744.753	42.11
745.152	42.14
745.55	42.16
745.949	42.18
746.348	42.21
746.746	42.21
747.144	42.22
747.543	42.24
747.941	42.25
748.339	42.26
748.737	42.27
749.136	42.26
749.534	42.23
749.932	42.21
750.33	42.2
750.727	42.19
751.125	42.2
751.523	42.19
751.921	42.2
752.318	42.22
752.716	42.21
753.113	42.2
753.511	42.22
753.908	42.25
754.305	42.25
754.703	42.27
755.1	42.29
755.497	42.28
755.894	42.28
756.291	42.28
756.688	42.27
757.085	42.29
757.482	42.26
757.878	42.26
758.275	42.26
758.672	42.25
759.068	42.26
759.465	42.28
759.861	42.28
760.258	42.28
760.654	42.28
761.05	42.28
761.447	42.29
761.843	42.32
762.239	42.32
762.635	42.28
763.031	42.29
763.427	42.26
763.822	42.23
764.218	42.27
764.614	42.29
765.01	42.29
765.405	42.29
765.801	42.26
766.196	42.26
766.592	42.27
766.987	42.3
767.382	42.3
767.778	42.3
768.173	42.31
768.568	42.3
768.963	42.29
769.358	42.29
769.753	42.31
770.148	42.31
770.542	42.31
770.937	42.31
771.332	42.3
771.726	42.31
772.121	42.31
772.515	42.32
772.91	42.3
773.304	42.32
773.699	42.32
774.093	42.32
774.487	42.33
774.881	42.36
775.275	42.34
775.669	42.33
776.063	42.36
776.457	42.37
776.851	42.37
777.245	42.34
777.638	42.33
778.032	42.35
778.425	42.37
778.819	42.36
779.212	42.36
779.606	42.38
779.999	42.39
780.392	42.41
780.786	42.38
781.179	42.39
781.572	42.43
781.965	42.45
782.358	42.43
782.751	42.42
783.143	42.44
783.536	42.42
783.929	42.43
784.322	42.46
784.714	42.46
785.107	42.49
785.499	42.5
785.891	42.48
786.284	42.5
786.676	42.54
787.068	42.52
787.46	42.55
787.852	42.55
788.245	42.56
788.636	42.52
789.028	42.51
789.42	42.5
789.812	42.5
790.204	42.52
790.595	42.49
790.987	42.46
791.378	42.49
791.77	42.5
792.161	42.49
792.553	42.51
792.944	42.53
793.335	42.53
793.726	42.52
794.117	42.51
794.508	42.49
794.899	42.52
795.29	42.54
795.681	42.5
796.072	42.49
796.463	42.53
796.853	42.52
797.244	42.51
797.634	42.5
798.025	42.53
798.415	42.54
798.806	42.55
799.196	42.55
799.586	42.56
799.976	42.58
800.366	42.58
800.756	42.58
801.146	42.59
801.536	42.62
801.926	42.64
802.316	42.64
802.706	42.66
803.095	42.67
803.485	42.7
803.874	42.7
804.264	42.71
804.653	42.71
805.043	42.73
805.432	42.73
805.821	42.74
806.21	42.74
806.599	42.76
806.988	42.75
807.377	42.75
807.766	42.73
808.155	42.71
808.544	42.7
808.933	42.68
809.321	42.66
809.71	42.66
810.098	42.65
810.487	42.66
810.875	42.65
811.264	42.65
811.652	42.65
812.04	42.67
812.428	42.72
812.816	42.73
813.204	42.74
813.592	42.74
813.98	42.76
814.368	42.79
814.756	42.79
815.144	42.79
815.531	42.8
815.919	42.82
816.306	42.83
816.694	42.79
817.081	42.82
817.469	42.85
817.856	42.85
818.243	42.82
818.63	42.82
819.017	42.84
819.404	42.85
819.791	42.86
820.178	42.86
820.565	42.87
820.952	42.87
821.339	42.84
821.725	42.84
822.112	42.87
822.498	42.9
822.885	42.91
823.271	42.89
823.657	42.85
824.044	42.84
824.43	42.85
824.816	42.86
825.202	42.87
825.588	42.87
825.974	42.85
826.36	42.84
826.746	42.84
827.132	42.83
827.517	42.84
827.903	42.88
828.289	42.89
828.674	42.87
829.06	42.85
829.445	42.85
829.83	42.87
830.216	42.88
830.601	42.89
830.986	42.9
831.371	42.89
831.756	42.88
832.141	42.89
832.526	42.88
832.911	42.89
833.295	42.9
833.68	42.9
834.065	42.9
834.449	42.88
834.834	42.86
835.218	42.86
835.603	42.85
835.987	42.84
836.371	42.8
836.755	42.8
837.139	42.77
837.524	42.75
837.908	42.76
838.291	42.78
838.675	42.8
839.059	42.82
839.443	42.8
839.827	42.8
840.21	42.79
840.594	42.8
840.977	42.81
841.361	42.81
841.744	42.78
842.127	42.78
842.511	42.75
842.894	42.73
843.277	42.72
843.66	42.7
844.043	42.71
844.426	42.72
844.809	42.72
845.191	42.71
845.574	42.72
845.957	42.74
846.339	42.74
846.722	42.75
847.104	42.79
847.487	42.77
847.869	42.79
848.252	42.79
848.634	42.8
849.016	42.82
849.398	42.83
849.78	42.84
850.162	42.84
850.544	42.85
850.926	42.85
851.307	42.84
851.689	42.86
852.071	42.87
852.452	42.86
852.834	42.85
853.215	42.83
853.597	42.84
853.978	42.84
854.359	42.85
854.741	42.85
855.122	42.86
855.503	42.86
855.884	42.85
856.265	42.87
856.646	42.88
857.026	42.9
857.407	42.92
857.788	42.92
858.169	42.95
858.549	42.95
858.93	42.96
859.31	42.95
859.69	42.97
860.071	42.99
860.451	42.97
860.831	42.99
861.211	42.98
861.591	42.98
861.971	42.96
862.351	42.96
862.731	42.99
863.111	42.99
863.491	42.98
863.87	42.97
864.25	42.95
864.629	42.95
865.009	42.93
865.388	42.92
865.768	42.9
866.147	42.91
866.526	42.89
866.905	42.86
867.284	42.86
867.663	42.84
868.042	42.86
868.421	42.88
868.8	42.9
869.179	42.89
869.558	42.91
869.936	42.92
870.315	42.92
870.693	42.93
871.072	42.94
871.45	42.93
871.828	42.95
872.207	42.95
872.585	42.94
872.963	42.93
873.341	42.92
873.719	42.92
874.097	42.92
874.475	42.92
874.853	42.93
875.23	42.95
875.608	42.97
875.986	42.99
876.363	42.99
876.741	43
877.118	43.02
877.495	43.06
877.873	43.07
878.25	43.09
878.627	43.09
879.004	43.09
879.381	43.09
879.758	43.08
880.135	43.07
880.512	43.05
880.889	43.04
881.265	43.02
881.642	42.99
882.019	42.98
882.395	42.98
882.772	42.99
883.148	42.96
883.524	42.96
883.901	42.98
884.277	42.95
884.653	42.94
885.029	42.97
885.405	42.98
885.781	42.99
886.157	42.98
886.532	42.97
886.908	42.95
887.284	42.97
887.659	42.94
888.035	42.91
888.411	42.92
888.786	42.92
889.161	42.88
889.537	42.87
889.912	42.85
890.287	42.87
890.662	42.85
891.037	42.85
891.412	42.83
891.787	42.81
892.162	42.8
892.536	42.79
892.911	42.79
893.286	42.81
893.66	42.8
894.035	42.82
894.409	42.8
894.784	42.82
895.158	42.81
895.532	42.84
895.906	42.85
896.281	42.87
896.655	42.88
897.029	42.88
897.402	42.87
897.776	42.9
898.15	42.91
898.524	42.93
898.898	42.92
899.271	42.95
899.645	42.97
900.018	43
900.392	43
900.765	43.03
901.138	43.02
901.511	43.01
901.884	43.01
902.258	43.01
902.631	43
903.003	43
903.376	43
903.749	42.99
904.122	43.01
904.495	43.02
904.867	43
905.24	43.04
905.612	43.08
905.985	43.07
906.357	43.08
906.729	43.11
907.102	43.11
907.474	43.1
907.846	43.09
908.218	43.08
908.59	43.07
908.962	43.09
909.334	43.08
909.705	43.09
910.077	43.1
910.449	43.08
910.82	43.06
911.192	43.07
911.563	43.05
911.935	43.05
912.306	43.04
912.677	43.06
913.048	43.05
913.419	43.02
913.79	43.02
914.161	43.01
914.532	43.02
914.903	43.04
915.274	43.03
915.645	43.01
916.015	43.02
916.386	43.03
916.756	43
917.127	42.99
917.497	43.01
917.868	43.01
918.238	42.98
918.608	43
918.978	42.98
919.348	43.01
919.718	43.03
920.088	43.03
920.458	43.03
920.828	43.03
921.198	43
921.567	43.02
921.937	43.03
922.306	43.04
922.676	43.03
923.045	43.04
923.415	43.01
923.784	43.02
924.153	43.04
924.522	43.06
924.891	43.07
925.26	43.1
925.629	43.09
925.998	43.07
926.367	43.08
926.736	43.07
927.104	43.05
927.473	43.04
927.842	43.02
928.21	43
928.578	42.97
928.947	43.02
929.315	43
929.683	42.98
930.051	42.97
930.42	42.97
930.788	42.94
931.156	42.93
931.523	42.9
931.891	42.93
932.259	42.94
932.627	42.93
932.994	42.9
933.362	42.91
933.729	42.93
934.097	42.94
934.464	42.97
934.831	43.01
935.199	43.04
935.566	43.1
935.933	43.05
936.3	43.03
936.667	43.02
937.034	43.04
937.401	43.03
937.767	43
938.134	42.99
938.501	43
938.867	43
939.234	42.96
939.6	42.94
939.967	42.99
940.333	43.03
940.699	43.1
941.065	43.06
941.431	43.1
941.798	43.08
942.163	43.12
942.529	43.04
942.895	43.05
943.261	43.06
943.627	43.09
943.992	43.12
944.358	43.11
944.723	43.07
945.089	43.02
945.454	43.02
945.82	43.08
946.185	43.05
946.55	43.02
946.915	42.99
947.28	42.98
947.645	43.01
948.01	43.03
948.375	43
948.74	42.96
949.104	43.04
949.469	43
949.834	42.95
950.198	42.95
950.562	42.99
950.927	42.98
951.291	42.94
951.655	42.83
952.02	42.75
952.384	42.69
952.748	42.67
953.112	42.6
953.476	42.54
953.839	42.5
954.203	42.46
954.567	42.41
954.931	42.34
955.294	42.32
955.658	42.39
956.021	42.36
956.385	42.37
956.748	42.37
957.111	42.34
957.474	42.31
957.837	42.3
958.2	42.27
958.563	42.22
958.926	42.22
959.289	42.2
959.652	42.16
960.015	42.16
960.377	42.13
960.74	42.13
961.102	42.17
961.465	42.2
961.827	42.23
962.189	42.27
962.552	42.33
962.914	42.36
963.276	42.43
963.638	42.41
964	42.41
964.362	42.43
964.724	42.38
965.085	42.33
965.447	42.3
965.809	42.24
966.17	42.23
966.532	42.15
966.893	42.13
967.255	42.05
967.616	42
967.977	42.03
968.338	42.01
968.699	42
969.061	41.99
969.421	41.99
969.782	42.01
970.143	41.99
970.504	42.02
970.865	42.06
971.225	42.06
971.586	42.06
971.946	41.99
972.307	42.02
972.667	42.04
973.027	42.05
973.388	42.06
973.748	42.04
974.108	42.02
974.468	42.06
974.828	42.05
975.188	42.06
975.548	42.07
975.907	42.11
976.267	42.05
976.627	42.04
976.986	41.99
977.346	42
977.705	42.01
978.064	42.06
978.424	42
978.783	41.97
979.142	41.98
979.501	41.97
979.86	42.02
980.219	42.05
980.578	42.07
980.937	42.13
981.296	42.1
981.654	42.08
982.013	42.07
982.371	42.12
982.73	42.12
983.088	42.12
983.447	42.1
983.805	42.12
984.163	42.12
984.521	42.12
984.879	42.07
985.237	42.13
985.595	42.13
985.953	42.16
986.311	42.08
986.669	42.12
987.026	42.09
987.384	42.12
987.741	42.04
988.099	42.09
988.456	42.01
988.814	42.13
989.171	42.11
989.528	42.18
989.885	42.13
990.242	42.17
990.599	42.13
990.956	42.22
991.313	42.35
991.67	42.41
992.027	42.48
992.383	42.48
992.74	42.47
993.096	42.51
993.453	42.6
993.809	42.67
994.165	42.71
994.522	42.83
994.878	42.79
995.234	42.69
995.59	42.53
995.946	42.44
996.302	42.61
996.658	42.68
997.013	42.65
997.369	42.61
997.725	42.66
998.08	42.75
998.436	42.69
998.791	42.76
999.147	42.72
999.502	42.89
999.857	42.95
1000.212	42.89
1000.567	42.93
1000.922	42.93
1001.277	42.9
1001.632	42.78
1001.987	42.74
1002.342	42.71
1002.696	42.71
1003.051	42.92
1003.406	43.11
1003.76	43.09
1004.114	43.12
1004.469	43.05
1004.823	43.35
1005.177	43.27
1005.531	43.46
1005.885	43.38
1006.239	43.44
1006.593	43.52
1006.947	43.41
1007.301	43.19
1007.655	43.18
1008.008	43.26
1008.362	43.28
1008.715	43.04
1009.069	43.22
1009.422	43.16
1009.776	43.1
1010.129	43.13
1010.482	43.15
1010.835	43.33
1011.188	43.39
1011.541	43.53
1011.894	43.72
1012.247	43.74
1012.6	43.71
1012.952	43.67
1013.305	43.77
1013.657	44.1
1014.01	44.07
1014.362	44
1014.715	44.02
1015.067	44.16
1015.419	44.24
1015.771	44.14
1016.123	44.25
1016.475	44.46
1016.827	44.72
1017.179	44.66
1017.531	44.76
1017.883	44.77
1018.234	45.06
1018.586	45.05
1018.938	45.26
1019.289	45.11
1019.64	45.22
1019.992	45.14
1020.343	45.05
1020.694	44.9
1021.045	45.11
1021.396	44.87
1021.747	45.16
1022.098	45.07
1022.449	44.98
1022.8	44.8
1023.151	44.87
1023.501	44.84
1023.852	44.97
1024.202	45.06
1024.553	45.02
1024.903	45.04
1025.253	45.57
1025.604	45.62
1025.954	45.46
1026.304	45.65
1026.654	45.69
1027.004	45.79
1027.354	45.79
1027.703	45.82
1028.053	46.15
1028.403	46.41
1028.753	46.37
1029.102	46.24
1029.452	46.3
1029.801	46.68
1030.15	46.7
1030.499	46.84
897.758	1422.02
901.051	1431.49
904.343	1422.96
907.636	1449.71
910.928	1410.73
914.22	1413.83
917.511	1393.44
920.803	1336.18
924.094	1332.77
927.384	1303.03
930.675	1248.48
933.965	1243.58
937.255	1169.78
940.544	1126.06
943.834	1069.53
947.123	1062.32
950.411	997.61
953.7	978.31
956.988	922.97
960.276	884.61
963.563	871.14
966.851	839.54
970.138	831
973.424	806.15
976.711	810.13
979.997	770.43
983.283	765.13
986.568	749.24
989.853	725.39
993.138	714.28
996.423	687.67
999.708	667.11
1002.992	659.46
1006.275	631.88
1009.559	624.23
1012.842	602.05
1016.125	585.63
1019.408	575.29
1022.69	567.07
1025.972	556.32
1029.254	542.33
1032.536	532.21
1035.817	522.33
1039.098	515.97
1042.379	504.76
1045.659	499.47
1048.939	487.23
1052.219	478.31
1055.498	470.62
1058.778	460.12
1062.057	449.95
1065.335	444.81
1068.614	439.8
1071.892	434.79
1075.17	422.05
1078.447	413.29
1081.724	411.86
1085.001	408.23
1088.278	399.75
1091.554	391.42
1094.83	392.11
1098.106	388.84
1101.382	385.63
1104.657	382.86
1107.932	376.79
1111.206	378.03
1114.481	368.83
1117.755	364.34
1121.029	361.78
1124.302	360.92
1127.575	354.59
1130.848	349.87
1134.121	346.85
1137.393	345.53
1140.665	337.02
1143.937	335.43
1147.208	332.65
1150.48	332.28
1153.75	327.95
1157.021	323.37
1160.291	323.85
1163.561	320.69
1166.831	320.47
1170.101	317.38
1173.37	316.82
1176.639	318.48
1179.907	315.26
1183.176	311.86
1186.444	311
1189.711	310.65
1192.979	310.13
1196.246	308.06
1199.513	308.86
1202.78	306.7
1206.046	307
1209.312	303.12
1212.578	303.84
1215.843	306.2
1219.108	304.23
1222.373	311.14
1225.638	313.3
1228.902	317.31
1232.166	317.32
1235.43	320.07
1238.693	324.52
1241.956	326.46
1245.219	332.27
1248.482	331.23
1251.744	330.86
1255.006	333.43
1258.268	324.37
1261.529	321.38
1264.79	318.75
1268.051	317.29
1271.312	313.39
1274.572	309.3
1277.832	305.76
1281.092	301.43
1284.351	299.81
1287.61	299.66
1290.869	294.58
1294.128	293.38
1297.386	293.23
1300.644	290.51
1303.902	291
1307.159	289.76
1310.416	290.12
1313.673	290.07
1316.93	292.58
1320.186	292.74
1323.442	293.61
1326.697	298.7
1329.953	300.01
1333.208	300.99
1336.463	304.72
1339.717	305.42
1342.972	309.28
1346.226	311.82
1349.479	312.44
1352.733	313.89
1355.986	314.43
1359.238	314.2
1362.491	315.7
1365.743	318.12
1368.995	319.22
1372.247	317.89
1375.498	318.56
1378.749	321.35
1382	316.32
1385.251	318.41
1388.501	316.12
1391.751	318.59
1395	316.8
1398.25	314.49
1401.499	312.79
1404.748	311.88
1407.996	309.23
1411.244	307.58
1414.492	305.67
1417.74	304.61
1420.987	299.09
1424.234	299.08
1427.481	294.34
1430.728	294.87
1433.974	291.35
1437.22	289.34
1440.465	288.02
1443.711	285.89
1446.956	284.27
1450.201	279.27
1453.445	277.87
1456.689	277.23
1459.933	272.09
1463.177	269.89
1466.42	266.14
1469.663	263.3
1472.906	261.26
1476.148	254.96
1479.391	251.79
1482.633	249.24
1485.874	246.75
1489.115	244.19
1492.356	241.55
1495.597	241.81
1498.838	238.44
1502.078	236.49
1505.318	235.63
1508.557	235.43
1511.797	235.47
1515.036	234.29
1518.274	234.22
1521.513	231.33
1524.751	231.27
1527.989	230.09
1531.227	228.92
1534.464	229.59
1537.701	227.78
1540.938	227.17
1544.174	224.32
1547.41	224.03
1550.646	223.06
1553.882	222.75
1557.117	220.16
1560.352	218.53
1563.587	218.08
1566.821	216.28
1570.055	214.35
1573.289	212.57
1576.523	212.49
1579.756	211.27
1582.989	209.65
1586.222	209.62
1589.454	207.35
1592.686	209.74
1595.918	208.69
1599.15	207.86
1602.381	208.34
1605.612	207.79
1608.843	209.02
1612.073	208.21
1615.303	209.4
1618.533	209.44
1621.762	208.88
1624.992	209.91
1628.221	209.35
1631.449	209.35
1634.678	208.66
1637.906	209.24
1641.134	209.69
1644.361	209.09
1647.588	210.27
1650.815	209.18
1654.042	208.26
1657.269	209.97
1660.495	209.9
1663.72	209.07
1666.946	209.58
1670.171	210.44
1673.396	210.87
1676.621	210.94
1679.845	210.66
1683.069	210.24
1686.293	211.98
1689.517	213.12
1692.74	212.27
1695.963	212.92
1699.185	215.18
1702.408	215.36
1705.63	216.24
1708.852	216.25
1712.073	216.56
1715.294	217.63
1718.515	219.42
1721.736	218.43
1724.956	219.77
1728.176	219.59
1731.396	221.73
1734.616	220.43
1737.835	221.34
1741.054	220.08
1744.272	220.2
1747.491	222.49
1750.709	223.23
1753.927	222.6
1757.144	222.31
1760.361	222.91
1763.578	223.57
1766.795	222.44
1770.011	224.65
1773.227	224.72
1776.443	227.21
1779.658	228.63
1782.874	227.81
1786.089	228.3
1789.303	229.15
1792.518	231.77
1795.732	231.74
1798.945	234.07
1802.159	234.66
1805.372	234.66
1808.585	238.45
1811.797	239.43
1815.01	239.95
1818.222	241.76
1821.434	243.35
1824.645	244.35
1827.856	248.45
1831.067	250.39
1834.278	249.6
1837.488	250.87
1840.698	253.21
1843.908	250.6
1847.117	252.21
1850.326	253.31
1853.535	252.92
1856.744	256.53
1859.952	256.48
1863.16	254.47
1866.368	252.73
1869.575	255.86
1872.782	252.3
1875.989	251.09
1879.196	250.43
1882.402	248.02
1885.608	248.85
1888.814	249
1892.019	249.37
1895.224	248.05
1898.429	246.91
1901.634	248.27
1904.838	247.89
1908.042	250.64
1911.246	251.82
1914.449	253.49
1917.652	253.71
1920.855	253.42
1924.058	253.12
1927.26	250.63
1930.462	252.17
1933.664	255.1
1936.865	253.36
1940.066	252.82
1943.267	251.51
1946.467	250.73
1949.668	252.47
1952.868	256.29
1956.067	256.17
1959.267	256.55
1962.466	257.74
1965.665	256.19
1968.863	256.26
1972.061	260.04
1975.259	262.45
1978.457	264.31
1981.654	267.22
1984.852	267.55
1988.048	265.83
1991.245	268.67
1994.441	271.67
1997.637	273.66
2000.833	279.53
2004.028	283.17
2007.223	283.42
2010.418	286.16
2013.613	291.76
2016.807	294.23
2020.001	296.48
2023.194	300.92
2026.388	308.29
2029.581	314.31
2032.774	317.15
2035.966	322.88
2039.158	323.65
2042.35	330.98
2045.542	333.67
2048.733	338.2
2051.924	342.6
2055.115	348.85
2058.306	349.79
2061.496	352.51
2064.686	353.11
2067.875	359.4
2071.065	360.41
2074.254	359.5
2077.442	363.75
2080.631	365.35
2083.819	368.92
2087.007	369.24
2090.195	374.18
2093.382	377.06
2096.569	374.17
2099.756	379.94
2102.942	380.12
2106.128	384.83
2109.314	392.6
2112.5	391.04
2115.685	399.06
2118.87	399.92
2122.055	408.47
2125.239	410.88
2128.424	416.4
2131.608	420.44
2134.791	426.43
2137.974	429.1
2141.157	428.63
2144.34	430.32
2147.523	437.49
2150.705	434.51
2153.887	438.44
2157.068	439.21
2160.25	434.7
2163.431	437.85
2166.611	441.37
2169.792	450.72
2172.972	454.1
2176.152	457.92
2179.331	463.99
2182.511	471.3
2185.69	476.38
2188.868	486.46
2192.047	486.83
2195.225	500.86
2198.403	512.53
2201.58	523.56
2204.758	530.74
2207.935	543.38
2211.111	554.94
2214.288	560.7
2217.464	561.76
2220.64	570.33
2223.815	577.42
2226.991	600.98
2230.166	601.95
2233.34	612.23
2236.515	621.67
2239.689	623.23
2242.863	626.68
2246.036	641.25
2249.209	637.12
2252.382	648.1
2255.555	667.99
2258.727	670.31
2261.9	672.27
2265.071	680.36
2268.243	691.16
2271.414	699.04
2274.585	715.1
2277.756	721.7
2280.926	728.8
2284.096	745.66
2287.266	761.38
2290.436	766.39
2293.605	784.69
2296.774	809.97
2299.942	833.5
2303.111	837.32
2306.279	856.51
2309.447	869.52
2312.614	889.72
2315.781	912.89
2318.948	956.39
2322.115	943.27
2325.281	994.14
2328.447	970.77
2331.613	1013.74
2334.779	1002.94
2337.944	1047.45
2341.109	1055.63
2344.274	1081.05
2347.438	1121.99
2350.602	1120.27
2353.766	1153.76
2356.929	1170.46
2360.092	1161.43
2363.255	1247.26
2366.418	1239.9
2369.58	1264.78
2372.742	1346.56
2375.904	1381.17
2379.066	1373.57
2382.227	1348.41
2385.388	1465.66
2388.548	1466.1
2391.709	1486.58
2394.869	1658.27
2398.029	1585.99
2401.188	1633.43
2404.347	1624.53
2407.506	1591.7
2410.665	1642.77
2413.823	1735.58
2416.981	1836.78
2420.139	1776.51
2423.296	1755.74
2426.453	1827.34
2429.61	1763.27
2432.767	1847.54
2435.923	1824.53
2439.079	1995.4
2442.235	2021.96
2445.391	1995.72
2448.546	1988.83
2451.701	1929.56
2454.855	1923.29
2458.009	2048.99
2461.163	2130.47
2464.317	2202.97
2467.471	2258.98
2470.624	2262.88
2473.777	2195.06
2476.929	2144.11
2480.082	2083.61
2483.234	2060.78
2486.385	2164.69
2489.537	2178.28
2492.688	2250.47
2495.839	2191.5
2498.989	2144.42
2502.14	2152.69
2505.29	2175.66
2508.439	2215.17
2511.589	2206.35
2514.738	2405.24
2517.887	2352.22
2521.035	2491.62
2524.183	2512.8
2527.331	2530.58
2530.479	2523.41
2533.627	2538.89
