Data from C_2_DEC_NC_4N_Splice17_13-28-25-853.txt Node
Date: Sat Mar 07 13:28:25 EST 2020
User: sa697716
Spectrometer: NQ5500242
Trigger mode: 0
Integration Time (sec): 1.450000E-1
Scans to average: 20
Nonlinearity correction enabled: false
Boxcar width: 5
Storing dark spectrum: false
XAxis mode: Wavelengths
Number of Pixels in Spectrum: 512
>>>>>Begin Spectral Data<<<<<
187.83	128.53
188.298	123.74
188.766	102.83
189.233	82.91
189.701	97.24
190.169	113.83
190.636	94.34
191.104	112.11
191.571	85.98
192.039	-191.65
192.506	331.17
192.974	-115.26
193.441	-149.09
193.908	-79.71
194.375	-88.01
194.842	-31.43
195.31	28.17
195.777	81.87
196.244	48.79
196.711	48.26
197.177	47.94
197.644	48.05
198.111	48.3
198.578	47.72
199.045	47.85
199.511	47.89
199.978	47.42
200.445	47.46
200.911	47
201.378	46.91
201.844	46.89
202.31	46.37
202.777	46.28
203.243	46.02
203.709	45.81
204.176	45.28
204.642	45.05
205.108	44.77
205.574	44.09
206.04	43.56
206.506	43.51
206.972	43.05
207.438	42.67
207.903	41.83
208.369	40.87
208.835	39.99
209.301	39.05
209.766	37.76
210.232	36.56
210.697	35.46
211.163	34.75
211.628	33.76
212.094	33.03
212.559	32.4
213.024	31.78
213.49	31
213.955	30.29
214.42	29.43
214.885	28.51
215.35	27.48
215.815	26.12
216.28	24.23
216.745	22.17
217.21	20.12
217.675	18.24
218.14	16.61
218.604	15.33
219.069	14.16
219.534	13.21
219.998	12.4
220.463	11.71
220.927	11.08
221.392	10.62
221.856	10.22
222.32	9.89
222.785	9.62
223.249	9.37
223.713	9.12
224.177	8.94
224.642	8.76
225.106	8.58
225.57	8.39
226.034	8.26
226.497	8.11
226.961	7.98
227.425	7.85
227.889	7.71
228.353	7.58
228.816	7.46
229.28	7.34
229.744	7.23
230.207	7.12
230.671	7.02
231.134	6.92
231.597	6.86
232.061	6.78
232.524	6.7
232.987	6.62
233.45	6.57
233.914	6.48
234.377	6.41
234.84	6.33
235.303	6.29
235.766	6.24
236.229	6.18
236.691	6.1
237.154	6.04
237.617	5.98
238.08	5.93
238.542	5.86
239.005	5.82
239.468	5.76
239.93	5.73
240.393	5.68
240.855	5.62
241.317	5.57
241.78	5.53
242.242	5.47
242.704	5.43
243.166	5.39
243.629	5.36
244.091	5.32
244.553	5.29
245.015	5.23
245.477	5.19
245.939	5.15
246.4	5.12
246.862	5.07
247.324	5.03
247.786	4.98
248.247	4.93
248.709	4.88
249.17	4.83
249.632	4.79
250.093	4.76
250.555	4.72
251.016	4.69
251.477	4.65
251.939	4.63
252.4	4.61
252.861	4.59
253.322	4.57
253.783	4.55
254.244	4.53
254.705	4.5
255.166	4.47
255.627	4.45
256.088	4.43
256.549	4.41
257.009	4.39
257.47	4.36
257.931	4.33
258.391	4.3
258.852	4.27
259.312	4.24
259.773	4.22
260.233	4.2
260.694	4.18
261.154	4.14
261.614	4.13
262.074	4.1
262.534	4.08
262.994	4.06
263.455	4.05
263.915	4.03
264.374	4.01
264.834	4
265.294	3.98
265.754	3.97
266.214	3.96
266.673	3.95
267.133	3.94
267.593	3.93
268.052	3.92
268.512	3.92
268.971	3.91
269.431	3.9
269.89	3.89
270.349	3.89
270.809	3.89
271.268	3.88
271.727	3.87
272.186	3.87
272.645	3.87
273.104	3.85
273.563	3.85
274.022	3.85
274.481	3.85
274.94	3.84
275.399	3.83
275.857	3.82
276.316	3.82
276.775	3.81
277.233	3.81
277.692	3.8
278.15	3.8
278.609	3.8
279.067	3.79
279.525	3.79
279.984	3.79
280.442	3.79
280.9	3.8
281.358	3.79
281.816	3.79
282.274	3.79
282.732	3.79
283.19	3.78
283.648	3.77
284.106	3.76
284.564	3.75
285.021	3.75
285.479	3.75
285.937	3.74
286.394	3.73
286.852	3.72
287.309	3.72
287.767	3.71
288.224	3.7
288.682	3.69
289.139	3.68
289.596	3.66
290.053	3.64
290.511	3.62
290.968	3.61
291.425	3.59
291.882	3.58
292.339	3.57
292.796	3.56
293.252	3.56
293.709	3.55
294.166	3.55
294.623	3.54
295.079	3.54
295.536	3.54
295.992	3.53
296.449	3.53
296.905	3.53
297.362	3.53
297.818	3.52
298.274	3.52
298.731	3.51
299.187	3.5
299.643	3.49
300.099	3.49
300.555	3.48
301.011	3.48
301.467	3.48
301.923	3.46
302.379	3.46
302.835	3.46
303.291	3.46
303.746	3.46
304.202	3.46
304.658	3.46
305.113	3.45
305.569	3.45
306.024	3.44
306.479	3.44
306.935	3.43
307.39	3.43
307.845	3.43
308.301	3.43
308.756	3.42
309.211	3.42
309.666	3.43
310.121	3.43
310.576	3.43
311.031	3.43
311.486	3.43
311.94	3.44
312.395	3.44
312.85	3.44
313.305	3.44
313.759	3.44
314.214	3.43
314.668	3.42
315.123	3.42
315.577	3.42
316.032	3.42
316.486	3.41
316.94	3.4
317.394	3.4
317.849	3.38
318.303	3.38
318.757	3.36
319.211	3.36
319.665	3.35
320.119	3.33
320.572	3.32
321.026	3.32
321.48	3.31
321.934	3.3
322.387	3.3
322.841	3.29
323.295	3.29
323.748	3.29
324.202	3.28
324.655	3.28
325.108	3.29
325.562	3.29
326.015	3.28
326.468	3.28
326.921	3.27
327.374	3.27
327.827	3.27
328.28	3.26
328.733	3.26
329.186	3.26
329.639	3.27
330.092	3.27
330.545	3.26
330.997	3.27
331.45	3.28
331.903	3.29
332.355	3.29
332.808	3.29
333.26	3.29
333.713	3.29
334.165	3.28
334.617	3.27
335.069	3.26
335.522	3.26
335.974	3.26
336.426	3.24
336.878	3.23
337.33	3.23
337.782	3.22
338.234	3.23
338.686	3.23
339.137	3.24
339.589	3.23
340.041	3.23
340.493	3.22
340.944	3.21
341.396	3.21
341.847	3.2
342.299	3.19
342.75	3.19
343.201	3.18
343.653	3.17
344.104	3.15
344.555	3.14
345.006	3.13
345.457	3.13
345.908	3.12
346.359	3.12
346.81	3.12
347.261	3.12
347.712	3.11
348.163	3.1
348.613	3.1
349.064	3.11
349.515	3.11
349.965	3.11
350.416	3.1
350.866	3.1
351.317	3.1
351.767	3.09
352.217	3.09
352.668	3.09
353.118	3.1
353.568	3.08
354.018	3.08
354.468	3.09
354.918	3.09
355.368	3.1
355.818	3.1
356.268	3.1
356.718	3.1
357.168	3.09
357.617	3.09
358.067	3.09
358.517	3.1
358.966	3.11
359.416	3.1
359.865	3.1
360.315	3.1
360.764	3.11
361.213	3.1
361.663	3.1
362.112	3.11
362.561	3.11
363.01	3.11
363.459	3.1
363.908	3.1
364.357	3.1
364.806	3.09
365.255	3.09
365.703	3.09
366.152	3.11
366.601	3.11
367.05	3.1
367.498	3.09
367.947	3.1
368.395	3.1
368.844	3.1
369.292	3.08
369.74	3.09
370.189	3.09
370.637	3.09
371.085	3.08
371.533	3.08
371.981	3.08
372.429	3.08
372.877	3.08
373.325	3.08
373.773	3.08
374.221	3.08
374.669	3.08
375.116	3.06
375.564	3.06
376.012	3.07
376.459	3.07
376.907	3.07
377.354	3.07
377.801	3.07
378.249	3.07
378.696	3.08
379.143	3.08
379.591	3.08
380.038	3.09
380.485	3.09
380.932	3.09
381.379	3.1
381.826	3.1
382.273	3.1
382.72	3.1
383.166	3.09
383.613	3.09
384.06	3.08
384.506	3.09
384.953	3.09
385.4	3.09
385.846	3.11
386.292	3.1
386.739	3.11
387.185	3.11
387.631	3.13
388.078	3.14
388.524	3.15
388.97	3.16
389.416	3.17
389.862	3.19
390.308	3.2
390.754	3.22
391.2	3.24
391.645	3.26
392.091	3.28
392.537	3.3
392.983	3.31
393.428	3.33
393.874	3.36
394.319	3.38
394.765	3.38
395.21	3.39
395.655	3.41
396.101	3.43
396.546	3.44
396.991	3.47
397.436	3.49
397.881	3.52
398.326	3.54
398.771	3.56
399.216	3.57
399.661	3.61
400.106	3.64
400.551	3.65
400.995	3.67
401.44	3.68
401.885	3.69
402.329	3.71
402.774	3.72
403.218	3.74
403.663	3.76
404.107	3.78
404.551	3.79
404.995	3.79
405.44	3.8
405.884	3.81
406.328	3.84
406.772	3.86
407.216	3.87
407.66	3.88
408.104	3.88
408.547	3.89
408.991	3.91
409.435	3.92
409.879	3.95
410.322	3.97
410.766	3.99
411.209	4.01
411.653	4.02
412.096	4.04
412.54	4.06
412.983	4.08
413.426	4.12
413.869	4.14
414.312	4.17
414.756	4.18
415.199	4.19
415.642	4.2
416.085	4.21
416.527	4.2
416.97	4.19
417.413	4.19
417.856	4.2
418.298	4.19
418.741	4.18
419.184	4.17
419.626	4.17
420.069	4.18
420.511	4.18
420.953	4.19
421.396	4.21
421.838	4.23
422.28	4.25
422.722	4.27
423.164	4.27
423.606	4.29
424.048	4.3
424.49	4.3
424.932	4.29
425.374	4.28
425.816	4.26
426.258	4.24
426.699	4.22
427.141	4.23
427.582	4.22
428.024	4.23
428.465	4.22
428.907	4.22
429.348	4.22
429.789	4.22
430.231	4.25
430.672	4.27
431.113	4.3
431.554	4.32
431.995	4.33
432.436	4.33
432.877	4.35
433.318	4.37
433.759	4.39
434.2	4.42
434.64	4.44
435.081	4.45
435.522	4.46
435.962	4.48
436.403	4.5
436.843	4.5
437.284	4.51
437.724	4.51
438.164	4.49
438.604	4.51
439.045	4.5
439.485	4.51
439.925	4.51
440.365	4.52
440.805	4.51
441.245	4.53
441.685	4.56
442.125	4.58
442.564	4.59
443.004	4.6
443.444	4.61
443.883	4.63
444.323	4.64
444.762	4.64
445.202	4.66
445.641	4.67
446.081	4.67
446.52	4.67
446.959	4.71
447.398	4.74
447.837	4.77
448.276	4.78
448.716	4.79
449.154	4.84
449.593	4.87
450.032	4.88
450.471	4.89
450.91	4.9
451.349	4.92
451.787	4.9
452.226	4.89
452.664	4.9
453.103	4.89
453.541	4.9
453.98	4.88
454.418	4.86
454.856	4.86
455.295	4.85
455.733	4.84
456.171	4.83
456.609	4.82
457.047	4.82
457.485	4.81
457.923	4.8
458.361	4.8
458.798	4.79
459.236	4.79
459.674	4.78
460.111	4.78
460.549	4.8
460.987	4.79
461.424	4.8
461.862	4.8
462.299	4.81
462.736	4.81
463.173	4.81
463.611	4.82
464.048	4.83
464.485	4.84
464.922	4.85
465.359	4.85
465.796	4.87
466.233	4.86
466.67	4.87
467.106	4.87
467.543	4.87
467.98	4.87
468.416	4.87
468.853	4.87
469.29	4.87
469.726	4.86
470.162	4.86
470.599	4.85
471.035	4.85
471.471	4.84
471.907	4.83
472.344	4.85
472.78	4.85
473.216	4.84
473.652	4.85
474.088	4.84
474.523	4.85
474.959	4.84
475.395	4.84
475.831	4.84
476.266	4.84
476.702	4.83
477.138	4.82
477.573	4.82
478.008	4.83
478.444	4.81
478.879	4.81
479.314	4.8
479.75	4.8
480.185	4.78
480.62	4.77
481.055	4.78
481.49	4.77
481.925	4.77
482.36	4.76
482.795	4.75
483.229	4.75
483.664	4.76
484.099	4.76
484.534	4.76
484.968	4.78
485.403	4.79
485.837	4.79
486.271	4.82
486.706	4.83
487.14	4.85
487.574	4.86
488.009	4.89
488.443	4.91
488.877	4.94
489.311	4.97
489.745	4.99
490.179	5.03
490.613	5.06
491.046	5.09
491.48	5.13
491.914	5.17
492.348	5.22
492.781	5.27
493.215	5.32
493.648	5.37
494.082	5.43
494.515	5.49
494.948	5.55
495.382	5.61
495.815	5.68
496.248	5.76
496.681	5.84
497.114	5.91
497.547	5.98
497.98	6.07
498.413	6.16
498.846	6.25
499.279	6.34
499.711	6.44
500.144	6.55
500.577	6.67
501.009	6.78
501.442	6.89
501.874	7.03
502.306	7.16
502.739	7.31
503.171	7.45
503.603	7.6
504.036	7.76
504.468	7.92
504.9	8.08
505.332	8.25
505.764	8.43
506.196	8.61
506.627	8.8
507.059	8.99
507.491	9.18
507.923	9.38
508.354	9.6
508.786	9.82
509.217	10.04
509.649	10.27
510.08	10.5
510.512	10.74
510.943	10.98
511.374	11.21
511.805	11.46
512.237	11.71
512.668	11.97
513.099	12.22
513.53	12.49
513.961	12.75
514.391	13.02
514.822	13.31
515.253	13.57
515.684	13.85
516.114	14.14
516.545	14.43
516.975	14.7
517.406	14.97
517.836	15.26
518.267	15.53
518.697	15.81
519.127	16.07
519.558	16.33
519.988	16.61
520.418	16.87
520.848	17.11
521.278	17.36
521.708	17.79
522.138	18.04
522.567	18.27
522.997	18.49
523.427	18.73
523.857	18.96
524.286	19.16
524.716	19.38
525.145	19.59
525.575	19.79
526.004	19.99
526.433	20.01
526.863	20.19
527.292	20.38
527.721	20.56
528.15	20.7
528.579	20.86
529.008	21.03
529.437	21.17
529.866	21.3
530.295	21.45
530.724	21.58
531.152	21.7
531.581	21.82
532.01	21.92
532.438	22.03
532.867	22.14
533.295	22.23
533.723	22.32
534.152	22.4
534.58	22.48
535.008	22.53
535.436	22.6
535.865	22.66
536.293	22.73
536.721	22.79
537.149	22.84
537.576	22.88
538.004	22.93
538.432	22.97
538.86	23.02
539.287	23.04
539.715	23.1
540.143	23.12
540.57	23.14
540.998	23.17
541.425	23.21
541.852	23.23
542.28	23.27
542.707	23.3
543.134	23.32
543.561	23.35
543.988	23.39
544.415	23.39
544.842	23.42
545.269	23.45
545.696	23.48
546.123	23.49
546.549	23.51
546.976	23.53
547.403	23.56
547.829	23.57
548.256	23.58
548.682	23.58
549.108	23.62
549.535	23.63
549.961	23.63
550.387	23.63
550.813	23.63
551.24	23.62
551.666	23.61
552.092	23.59
552.518	23.59
552.943	23.58
553.369	23.56
553.795	23.53
554.221	23.5
554.646	23.46
555.072	23.45
555.498	23.4
555.923	23.36
556.349	23.32
556.774	23.26
557.199	23.21
557.625	23.14
558.05	23.09
558.475	23.02
558.9	22.96
559.325	22.92
559.75	22.83
560.175	22.77
560.6	22.7
561.025	22.61
561.449	22.51
561.874	22.4
562.299	22.32
562.723	22.22
563.148	22.11
563.572	21.99
563.997	21.86
564.421	21.74
564.846	21.61
565.27	21.49
565.694	21.36
566.118	21.24
566.542	21.12
566.966	20.98
567.39	20.86
567.814	20.73
568.238	20.61
568.662	20.48
569.086	20.34
569.509	20.21
569.933	20.07
570.357	19.94
570.78	19.8
571.204	19.66
571.627	19.54
572.05	19.4
572.474	19.3
572.897	19.18
573.32	19.06
573.743	18.94
574.166	18.83
574.589	18.73
575.012	18.62
575.435	18.53
575.858	18.42
576.281	18.3
576.704	18.22
577.126	18.11
577.549	18.01
577.972	17.91
578.394	17.81
578.817	17.73
579.239	17.63
579.661	17.56
580.084	17.47
580.506	17.4
580.928	17.32
581.35	17.22
581.772	17.16
582.194	17.09
582.616	17.02
583.038	16.95
583.46	16.87
583.882	16.8
584.303	16.72
584.725	16.65
585.147	16.57
585.568	16.51
585.99	16.46
586.411	16.38
586.833	16.32
587.254	16.27
587.675	16.21
588.096	16.15
588.518	16.11
588.939	16.07
589.36	16.02
589.781	15.97
590.202	15.95
590.623	15.9
591.043	15.87
591.464	15.82
591.885	15.79
592.305	15.77
592.726	15.74
593.147	15.69
593.567	15.65
593.987	15.61
594.408	15.57
594.828	15.52
595.248	15.5
595.669	15.47
596.089	15.43
596.509	15.39
596.929	15.35
597.349	15.3
597.769	15.27
598.189	15.23
598.608	15.19
599.028	15.17
599.448	15.14
599.867	15.09
600.287	15.05
600.706	15.01
601.126	14.98
601.545	14.94
601.965	14.92
602.384	14.88
602.803	14.84
603.222	14.79
603.641	14.74
604.061	14.68
604.48	14.62
604.898	14.57
605.317	14.5
605.736	14.43
606.155	14.37
606.574	14.29
606.992	14.21
607.411	14.14
607.829	14.04
608.248	13.97
608.666	13.89
609.085	13.82
609.503	13.74
609.921	13.67
610.339	13.61
610.758	13.53
611.176	13.45
611.594	13.38
612.012	13.31
612.43	13.26
612.847	13.19
613.265	13.12
613.683	13.05
614.101	12.99
614.518	12.91
614.936	12.84
615.353	12.75
615.771	12.69
616.188	12.63
616.606	12.58
617.023	12.52
617.44	12.47
617.857	12.41
618.274	12.36
618.691	12.31
619.108	12.26
619.525	12.22
619.942	12.2
620.359	12.17
620.776	12.12
621.192	12.09
621.609	12.07
622.026	12.02
622.442	11.99
622.859	11.97
623.275	11.95
623.691	11.94
624.108	11.91
624.524	11.89
624.94	11.88
625.356	11.88
625.772	11.85
626.188	11.84
626.604	11.84
627.02	11.84
627.436	11.84
627.852	11.83
628.268	11.83
628.683	11.81
629.099	11.8
629.514	11.79
629.93	11.76
630.345	11.74
630.761	11.7
631.176	11.66
631.591	11.62
632.007	11.57
632.422	11.53
632.837	11.47
633.252	11.41
633.667	11.34
634.082	11.26
634.497	11.19
634.911	11.12
635.326	11.04
635.741	10.97
636.155	10.87
636.57	10.78
636.984	10.67
637.399	10.57
637.813	10.47
638.228	10.36
638.642	10.24
639.056	10.13
639.47	10.01
639.884	9.88
640.298	9.76
640.712	9.63
641.126	9.51
641.54	9.38
641.954	9.24
642.368	9.13
642.781	9.03
643.195	8.91
643.609	8.79
644.022	8.68
644.436	8.59
644.849	8.48
645.262	8.38
645.676	8.28
646.089	8.2
646.502	8.12
646.915	8.04
647.328	7.95
647.741	7.89
648.154	7.83
648.567	7.77
648.98	7.72
649.393	7.68
649.805	7.63
650.218	7.59
650.631	7.56
651.043	7.52
651.456	7.49
651.868	7.44
652.28	7.39
652.693	7.35
653.105	7.3
653.517	7.24
653.929	7.19
654.341	7.13
654.753	7.06
655.165	7
655.577	6.93
655.989	6.86
656.401	6.79
656.813	6.74
657.224	6.66
657.636	6.57
658.047	6.49
658.459	6.41
658.87	6.32
659.282	6.23
659.693	6.14
660.104	6.05
660.515	5.96
660.926	5.87
661.338	5.77
661.749	5.69
662.159	5.62
662.57	5.55
662.981	5.47
663.392	5.4
663.803	5.34
664.213	5.28
664.624	5.22
665.035	5.17
665.445	5.12
665.855	5.07
666.266	5.03
666.676	5
667.086	4.96
667.497	4.93
667.907	4.91
668.317	4.88
668.727	4.86
669.137	4.84
669.547	4.82
669.956	4.81
670.366	4.81
670.776	4.79
671.186	4.78
671.595	4.77
672.005	4.76
672.414	4.76
672.824	4.77
673.233	4.77
673.642	4.78
674.052	4.79
674.461	4.8
674.87	4.8
675.279	4.84
675.688	4.86
676.097	4.89
676.506	4.91
676.915	4.94
677.323	4.96
677.732	4.99
678.141	5.03
678.549	5.08
678.958	5.12
679.366	5.19
679.775	5.24
680.183	5.31
680.592	5.39
681	5.47
681.408	5.57
681.816	5.69
682.224	5.8
682.632	5.94
683.04	6.09
683.448	6.25
683.856	6.42
684.264	6.62
684.671	6.82
685.079	7.05
685.487	7.3
685.894	7.58
686.302	7.88
686.709	8.2
687.116	8.54
687.524	8.9
687.931	9.3
688.338	9.71
688.745	10.14
689.152	10.59
689.559	11.08
689.966	11.58
690.373	12.08
690.78	12.58
691.187	13.11
691.593	13.65
692	14.19
692.407	14.72
692.813	15.28
693.22	15.83
693.626	16.38
694.032	16.93
694.439	17.48
694.845	18.02
695.251	18.57
695.657	19.1
696.063	19.63
696.469	20.16
696.875	20.69
697.281	21.21
697.687	21.72
698.093	22.23
698.498	22.73
698.904	23.22
699.31	23.7
699.715	24.18
700.12	24.66
700.526	25.11
700.931	25.57
701.337	26.02
701.742	26.45
702.147	26.89
702.552	27.29
702.957	27.66
703.362	28.04
703.767	28.42
704.172	28.78
704.577	29.14
704.981	29.5
705.386	29.86
705.791	30.19
706.195	30.53
706.6	30.84
707.004	31.15
707.408	31.47
707.813	31.8
708.217	32.11
708.621	32.42
709.025	32.7
709.43	32.97
709.834	33.24
710.237	33.5
710.641	33.76
711.045	34.03
711.449	34.28
711.853	34.56
712.256	34.8
712.66	35.03
713.064	35.25
713.467	35.48
713.87	35.72
714.274	35.92
714.677	36.15
715.08	36.35
715.484	36.56
715.887	36.78
716.29	36.94
716.693	37.15
717.096	37.35
717.499	37.55
717.901	37.75
718.304	37.94
718.707	38.13
719.109	38.31
719.512	38.48
719.915	38.65
720.317	38.8
720.719	38.95
721.122	39.11
721.524	39.23
721.926	39.37
722.328	39.51
722.731	39.64
723.133	39.77
723.535	39.88
723.937	40.02
724.338	40.13
724.74	40.25
725.142	40.45
725.544	40.55
725.945	40.71
726.347	40.8
726.748	40.88
727.15	40.98
727.551	41.09
727.952	41.16
728.354	41.25
728.755	41.33
729.156	41.41
729.557	41.4
729.958	41.47
730.359	41.5
730.76	41.58
731.161	41.66
731.562	41.71
731.962	41.76
732.363	41.85
732.763	41.89
733.164	41.96
733.564	42
733.965	42.04
734.365	42.09
734.766	42.13
735.166	42.14
735.566	42.2
735.966	42.25
736.366	42.3
736.766	42.31
737.166	42.36
737.566	42.39
737.966	42.41
738.365	42.45
738.765	42.5
739.165	42.54
739.564	42.59
739.964	42.6
740.363	42.61
740.763	42.62
741.162	42.64
741.561	42.65
741.96	42.66
742.36	42.69
742.759	42.7
743.158	42.7
743.557	42.7
743.955	42.72
744.354	42.74
744.753	42.78
745.152	42.83
745.55	42.86
745.949	42.89
746.348	42.94
746.746	42.94
747.144	42.98
747.543	43.02
747.941	43.04
748.339	43.03
748.737	43.03
749.136	43.02
749.534	42.97
749.932	42.96
750.33	42.97
750.727	42.98
751.125	43
751.523	42.98
751.921	42.97
752.318	42.99
752.716	43
753.113	43.01
753.511	43.02
753.908	43.03
754.305	43.05
754.703	43.03
755.1	43.02
755.497	43
755.894	43.01
756.291	43.02
756.688	43.01
757.085	43.02
757.482	43.01
757.878	42.99
758.275	43.01
758.672	43.01
759.068	43.04
759.465	43.03
759.861	43.05
760.258	43.04
760.654	43.03
761.05	43.03
761.447	43.04
761.843	43.05
762.239	43.07
762.635	43.05
763.031	43.07
763.427	43.05
763.822	43.07
764.218	43.09
764.614	43.12
765.01	43.1
765.405	43.11
765.801	43.08
766.196	43.09
766.592	43.07
766.987	43.08
767.382	43.05
767.778	43.05
768.173	43.04
768.568	43.01
768.963	43
769.358	43.03
769.753	43.02
770.148	43.05
770.542	43.02
770.937	43.05
771.332	43.04
771.726	43.05
772.121	43.05
772.515	43.04
772.91	43.03
773.304	43.04
773.699	43.02
774.093	43.01
774.487	43
774.881	43.04
775.275	43
775.669	42.99
776.063	42.99
776.457	42.97
776.851	42.97
777.245	42.96
777.638	42.94
778.032	42.94
778.425	42.98
778.819	42.98
779.212	43.02
779.606	43.06
779.999	43.04
780.392	43.06
780.786	43.08
781.179	43.09
781.572	43.14
781.965	43.18
782.358	43.18
782.751	43.16
783.143	43.16
783.536	43.11
783.929	43.11
784.322	43.16
784.714	43.14
785.107	43.17
785.499	43.18
785.891	43.18
786.284	43.16
786.676	43.19
787.068	43.2
787.46	43.21
787.852	43.19
788.245	43.17
788.636	43.14
789.028	43.14
789.42	43.13
789.812	43.12
790.204	43.11
790.595	43.1
790.987	43.08
791.378	43.11
791.77	43.12
792.161	43.15
792.553	43.19
792.944	43.21
793.335	43.22
793.726	43.21
794.117	43.2
794.508	43.18
794.899	43.19
795.29	43.19
795.681	43.15
796.072	43.13
796.463	43.13
796.853	43.1
797.244	43.09
797.634	43.09
798.025	43.1
798.415	43.11
798.806	43.13
799.196	43.13
799.586	43.13
799.976	43.15
800.366	43.18
800.756	43.19
801.146	43.24
801.536	43.25
801.926	43.23
802.316	43.21
802.706	43.23
803.095	43.23
803.485	43.22
803.874	43.23
804.264	43.2
804.653	43.21
805.043	43.19
805.432	43.17
805.821	43.16
806.21	43.18
806.599	43.2
806.988	43.19
807.377	43.19
807.766	43.2
808.155	43.18
808.544	43.19
808.933	43.17
809.321	43.16
809.71	43.15
810.098	43.15
810.487	43.14
810.875	43.16
811.264	43.17
811.652	43.19
812.04	43.19
812.428	43.23
812.816	43.22
813.204	43.23
813.592	43.24
813.98	43.25
814.368	43.26
814.756	43.26
815.144	43.22
815.531	43.21
815.919	43.18
816.306	43.17
816.694	43.14
817.081	43.15
817.469	43.15
817.856	43.12
818.243	43.1
818.63	43.08
819.017	43.07
819.404	43.09
819.791	43.08
820.178	43.1
820.565	43.09
820.952	43.1
821.339	43.1
821.725	43.12
822.112	43.16
822.498	43.18
822.885	43.21
823.271	43.21
823.657	43.18
824.044	43.21
824.43	43.2
824.816	43.21
825.202	43.2
825.588	43.21
825.974	43.18
826.36	43.19
826.746	43.19
827.132	43.18
827.517	43.2
827.903	43.24
828.289	43.24
828.674	43.25
829.06	43.23
829.445	43.22
829.83	43.21
830.216	43.21
830.601	43.19
830.986	43.17
831.371	43.14
831.756	43.12
832.141	43.11
832.526	43.1
832.911	43.07
833.295	43.09
833.68	43.11
834.065	43.1
834.449	43.09
834.834	43.1
835.218	43.1
835.603	43.12
835.987	43.11
836.371	43.09
836.755	43.07
837.139	43.04
837.524	43.03
837.908	43.03
838.291	43.03
838.675	43.05
839.059	43.03
839.443	43.04
839.827	43.01
840.21	43.01
840.594	43.03
840.977	43.02
841.361	43.05
841.744	43.02
842.127	43.01
842.511	42.99
842.894	42.97
843.277	42.97
843.66	42.96
844.043	42.98
844.426	42.99
844.809	42.99
845.191	43.01
845.574	43
845.957	43.02
846.339	43.03
846.722	43.07
847.104	43.08
847.487	43.09
847.869	43.08
848.252	43.06
848.634	43.06
849.016	43.07
849.398	43.07
849.78	43.1
850.162	43.09
850.544	43.06
850.926	43.05
851.307	43.03
851.689	43.03
852.071	43.05
852.452	43.09
852.834	43.09
853.215	43.08
853.597	43.08
853.978	43.08
854.359	43.08
854.741	43.09
855.122	43.09
855.503	43.1
855.884	43.09
856.265	43.07
856.646	43.05
857.026	43.05
857.407	43.06
857.788	43.03
858.169	43.04
858.549	43.04
858.93	43.04
859.31	43.04
859.69	43.04
860.071	43.07
860.451	43.07
860.831	43.08
861.211	43.06
861.591	43.03
861.971	43.05
862.351	43.06
862.731	43.07
863.111	43.07
863.491	43.08
863.87	43.1
864.25	43.09
864.629	43.09
865.009	43.1
865.388	43.11
865.768	43.13
866.147	43.11
866.526	43.11
866.905	43.1
867.284	43.12
867.663	43.1
868.042	43.08
868.421	43.09
868.8	43.1
869.179	43.09
869.558	43.09
869.936	43.08
870.315	43.09
870.693	43.08
871.072	43.09
871.45	43.1
871.828	43.12
872.207	43.15
872.585	43.12
872.963	43.12
873.341	43.11
873.719	43.13
874.097	43.13
874.475	43.14
874.853	43.13
875.23	43.13
875.608	43.12
875.986	43.13
876.363	43.12
876.741	43.14
877.118	43.15
877.495	43.16
877.873	43.16
878.25	43.17
878.627	43.18
879.004	43.18
879.381	43.17
879.758	43.15
880.135	43.13
880.512	43.1
880.889	43.08
881.265	43.07
881.642	43.06
882.019	43.06
882.395	43.06
882.772	43.06
883.148	43.05
883.524	43.06
883.901	43.07
884.277	43.06
884.653	43.06
885.029	43.08
885.405	43.07
885.781	43.06
886.157	43.05
886.532	43.04
886.908	43.03
887.284	43.02
887.659	42.98
888.035	42.97
888.411	42.98
888.786	42.98
889.161	42.96
889.537	42.95
889.912	42.94
890.287	42.95
890.662	42.95
891.037	42.93
891.412	42.92
891.787	42.93
892.162	42.92
892.536	42.9
892.911	42.9
893.286	42.9
893.66	42.91
894.035	42.9
894.409	42.89
894.784	42.89
895.158	42.9
895.532	42.93
895.906	42.93
896.281	42.93
896.655	42.95
897.029	42.96
897.402	42.96
897.776	42.97
898.15	42.98
898.524	42.99
898.898	42.98
899.271	42.98
899.645	42.97
900.018	42.99
900.392	42.99
900.765	43
901.138	42.96
901.511	42.97
901.884	42.96
902.258	42.98
902.631	42.98
903.003	43
903.376	42.98
903.749	42.97
904.122	42.98
904.495	43.01
904.867	43
905.24	43.05
905.612	43.06
905.985	43.06
906.357	43.04
906.729	43.05
907.102	43.05
907.474	43.11
907.846	43.11
908.218	43.09
908.59	43.1
908.962	43.1
909.334	43.08
909.705	43.07
910.077	43.11
910.449	43.14
910.82	43.14
911.192	43.14
911.563	43.11
911.935	43.11
912.306	43.13
912.677	43.15
913.048	43.16
913.419	43.17
913.79	43.16
914.161	43.15
914.532	43.14
914.903	43.14
915.274	43.15
915.645	43.15
916.015	43.14
916.386	43.13
916.756	43.13
917.127	43.1
917.497	43.12
917.868	43.14
918.238	43.09
918.608	43.12
918.978	43.09
919.348	43.1
919.718	43.11
920.088	43.13
920.458	43.13
920.828	43.09
921.198	43.08
921.567	43.07
921.937	43.07
922.306	43.08
922.676	43.04
923.045	43.05
923.415	43.04
923.784	43.03
924.153	43.04
924.522	43.05
924.891	43.05
925.26	43.07
925.629	43.07
925.998	43.08
926.367	43.09
926.736	43.11
927.104	43.13
927.473	43.11
927.842	43.06
928.21	43.07
928.578	43.04
928.947	43.07
929.315	43.04
929.683	43.03
930.051	42.99
930.42	42.97
930.788	42.94
931.156	42.9
931.523	42.91
931.891	42.96
932.259	42.97
932.627	42.95
932.994	42.93
933.362	42.96
933.729	42.95
934.097	42.99
934.464	42.97
934.831	42.97
935.199	43.04
935.566	43.06
935.933	43
936.3	42.96
936.667	42.96
937.034	42.97
937.401	42.95
937.767	42.96
938.134	42.91
938.501	42.96
938.867	43
939.234	42.95
939.6	42.9
939.967	42.93
940.333	42.95
940.699	43.01
941.065	42.94
941.431	43.02
941.798	42.97
942.163	42.97
942.529	42.9
942.895	42.87
943.261	42.83
943.627	42.84
943.992	42.83
944.358	42.8
944.723	42.79
945.089	42.78
945.454	42.73
945.82	42.74
946.185	42.76
946.55	42.77
946.915	42.75
947.28	42.76
947.645	42.78
948.01	42.8
948.375	42.79
948.74	42.73
949.104	42.79
949.469	42.75
949.834	42.74
950.198	42.75
950.562	42.72
950.927	42.71
951.291	42.61
951.655	42.51
952.02	42.46
952.384	42.45
952.748	42.39
953.112	42.33
953.476	42.28
953.839	42.26
954.203	42.25
954.567	42.2
954.931	42.13
955.294	42.14
955.658	42.18
956.021	42.15
956.385	42.12
956.748	42.14
957.111	42.1
957.474	42.09
957.837	42.06
958.2	42
958.563	42.01
958.926	42.06
959.289	42.1
959.652	42.09
960.015	42.1
960.377	42.08
960.74	42.12
961.102	42.13
961.465	42.19
961.827	42.29
962.189	42.34
962.552	42.36
962.914	42.33
963.276	42.31
963.638	42.31
964	42.29
964.362	42.32
964.724	42.28
965.085	42.29
965.447	42.25
965.809	42.15
966.17	42.1
966.532	42.08
966.893	42.11
967.255	42.11
967.616	42.1
967.977	42.15
968.338	42.11
968.699	42.11
969.061	42.08
969.421	42.07
969.782	42.13
970.143	42.14
970.504	42.13
970.865	42.19
971.225	42.16
971.586	42.16
971.946	42.13
972.307	42.19
972.667	42.21
973.027	42.21
973.388	42.22
973.748	42.2
974.108	42.24
974.468	42.25
974.828	42.21
975.188	42.22
975.548	42.23
975.907	42.25
976.267	42.23
976.627	42.21
976.986	42.23
977.346	42.24
977.705	42.23
978.064	42.22
978.424	42.23
978.783	42.14
979.142	42.16
979.501	42.18
979.86	42.19
980.219	42.16
980.578	42.22
980.937	42.23
981.296	42.19
981.654	42.17
982.013	42.15
982.371	42.11
982.73	42.14
983.088	42.11
983.447	42.04
983.805	42.09
984.163	42.12
984.521	42.08
984.879	42.03
985.237	42.04
985.595	42.14
985.953	42.18
986.311	42.21
986.669	42.28
987.026	42.33
987.384	42.39
987.741	42.29
988.099	42.31
988.456	42.28
988.814	42.32
989.171	42.35
989.528	42.34
989.885	42.3
990.242	42.24
990.599	42.22
990.956	42.16
991.313	42.13
991.67	42.24
992.027	42.3
992.383	42.36
992.74	42.51
993.096	42.51
993.453	42.45
993.809	42.44
994.165	42.59
994.522	42.61
994.878	42.75
995.234	42.8
995.59	42.77
995.946	42.74
996.302	42.76
996.658	42.76
997.013	42.8
997.369	42.89
997.725	42.93
998.08	42.92
998.436	42.94
998.791	42.91
999.147	42.92
999.502	43.01
999.857	43.02
1000.212	42.89
1000.567	42.82
1000.922	42.81
1001.277	42.78
1001.632	42.75
1001.987	42.69
1002.342	42.68
1002.696	42.75
1003.051	42.9
1003.406	42.88
1003.76	42.77
1004.114	42.81
1004.469	42.79
1004.823	43.09
1005.177	43.06
1005.531	43.2
1005.885	43.23
1006.239	43.26
1006.593	43.27
1006.947	43.17
1007.301	43.04
1007.655	43.25
1008.008	43.43
1008.362	43.59
1008.715	43.4
1009.069	43.46
1009.422	43.44
1009.776	43.5
1010.129	43.51
1010.482	43.41
1010.835	43.43
1011.188	43.64
1011.541	43.58
1011.894	43.63
1012.247	43.55
1012.6	43.42
1012.952	43.37
1013.305	43.43
1013.657	43.59
1014.01	43.53
1014.362	43.57
1014.715	43.77
1015.067	43.79
1015.419	44.06
1015.771	44.01
1016.123	43.93
1016.475	44.05
1016.827	44.13
1017.179	44.02
1017.531	43.97
1017.883	44.13
1018.234	44.31
1018.586	44.23
1018.938	44.39
1019.289	44.29
1019.64	44.32
1019.992	44.42
1020.343	44.5
1020.694	44.54
1021.045	44.68
1021.396	44.77
1021.747	44.87
1022.098	44.93
1022.449	44.94
1022.8	44.8
1023.151	44.83
1023.501	45.1
1023.852	45.25
1024.202	45
1024.553	44.89
1024.903	44.83
1025.253	45.02
1025.604	44.83
1025.954	44.59
1026.304	44.63
1026.654	44.75
1027.004	44.67
1027.354	44.32
1027.703	44.36
1028.053	44.7
1028.403	44.74
1028.753	44.71
1029.102	44.65
1029.452	44.97
1029.801	45.36
1030.15	45.38
1030.499	45.19
897.758	1406.88
901.051	1413.25
904.343	1408.12
907.636	1430.2
910.928	1390.43
914.22	1393.37
917.511	1372.6
920.803	1316.54
924.094	1310.02
927.384	1277.41
930.675	1226.05
933.965	1219.49
937.255	1147.68
940.544	1102.43
943.834	1050.66
947.123	1042.04
950.411	977.51
953.7	956.5
956.988	904.6
960.276	868.54
963.563	854.15
966.851	823.75
970.138	815.7
973.424	789.73
976.711	794.83
979.997	754.24
983.283	750.52
986.568	735.71
989.853	714.67
993.138	700.57
996.423	674.34
999.708	655.18
1002.992	647.42
1006.275	620.61
1009.559	614.25
1012.842	591.28
1016.125	575.24
1019.408	565.01
1022.69	556.54
1025.972	544.06
1029.254	531.82
1032.536	522.19
1035.817	511.06
1039.098	504.23
1042.379	492.93
1045.659	487.95
1048.939	475.9
1052.219	467.15
1055.498	459.69
1058.778	449.08
1062.057	439.75
1065.335	434.62
1068.614	428.96
1071.892	424.42
1075.17	411.53
1078.447	402.85
1081.724	400
1085.001	396.89
1088.278	388.62
1091.554	380.53
1094.83	381.49
1098.106	378.59
1101.382	375.41
1104.657	373.09
1107.932	366.4
1111.206	367.22
1114.481	358.73
1117.755	355.41
1121.029	352.67
1124.302	352.52
1127.575	345.77
1130.848	341.12
1134.121	336.97
1137.393	334.71
1140.665	327.52
1143.937	326.23
1147.208	324.65
1150.48	323.99
1153.75	319.87
1157.021	314.87
1160.291	314.87
1163.561	311.79
1166.831	311.63
1170.101	309.33
1173.37	308.62
1176.639	309.44
1179.907	306.45
1183.176	302.89
1186.444	302.6
1189.711	301.63
1192.979	300.94
1196.246	298.52
1199.513	299.22
1202.78	297.02
1206.046	297.49
1209.312	294.52
1212.578	294.99
1215.843	297.18
1219.108	295.19
1222.373	301.08
1225.638	303.61
1228.902	307.58
1232.166	308.5
1235.43	311.44
1238.693	315.03
1241.956	316.87
1245.219	322.11
1248.482	321.47
1251.744	321.55
1255.006	323.01
1258.268	314.82
1261.529	311.64
1264.79	309.73
1268.051	307.2
1271.312	303.69
1274.572	299.93
1277.832	296.67
1281.092	292.1
1284.351	290.04
1287.61	289.73
1290.869	285.56
1294.128	283.73
1297.386	283.36
1300.644	280.31
1303.902	281.62
1307.159	280.42
1310.416	280.8
1313.673	280.1
1316.93	282.71
1320.186	282.71
1323.442	283.87
1326.697	288.41
1329.953	289.87
1333.208	291.07
1336.463	294.91
1339.717	295.28
1342.972	297.87
1346.226	301.21
1349.479	301.9
1352.733	303.11
1355.986	304.43
1359.238	304.37
1362.491	306.44
1365.743	308.04
1368.995	308.87
1372.247	308.52
1375.498	308.47
1378.749	311.88
1382	307.74
1385.251	309.46
1388.501	307.57
1391.751	309.31
1395	307.53
1398.25	304.35
1401.499	304.06
1404.748	303.36
1407.996	299.05
1411.244	297.79
1414.492	295.79
1417.74	293.35
1420.987	288.72
1424.234	288.37
1427.481	284.56
1430.728	284.52
1433.974	282.34
1437.22	278.96
1440.465	278.63
1443.711	277.15
1446.956	275.28
1450.201	271.33
1453.445	268.98
1456.689	268.23
1459.933	263.26
1463.177	261.03
1466.42	256.72
1469.663	253.38
1472.906	252.11
1476.148	245.04
1479.391	242.16
1482.633	239.81
1485.874	236.21
1489.115	234.62
1492.356	231.71
1495.597	231.77
1498.838	228.03
1502.078	226.85
1505.318	226.11
1508.557	225.62
1511.797	225.31
1515.036	224.1
1518.274	222.97
1521.513	221.36
1524.751	220.78
1527.989	219.72
1531.227	218.24
1534.464	219.02
1537.701	216.93
1540.938	216.27
1544.174	213.83
1547.41	214.18
1550.646	212.61
1553.882	212.77
1557.117	210.18
1560.352	208.9
1563.587	208.41
1566.821	206.99
1570.055	204.81
1573.289	203.47
1576.523	202.96
1579.756	201.6
1582.989	199.76
1586.222	199.9
1589.454	198.02
1592.686	199.91
1595.918	198.47
1599.15	197.65
1602.381	198.67
1605.612	198.39
1608.843	199.26
1612.073	198.87
1615.303	199.8
1618.533	199.87
1621.762	199.85
1624.992	200.77
1628.221	200.16
1631.449	200.48
1634.678	200.01
1637.906	200.37
1641.134	200.31
1644.361	199.76
1647.588	200.49
1650.815	199.66
1654.042	198.62
1657.269	199.53
1660.495	199.49
1663.72	198.63
1666.946	199.62
1670.171	200.26
1673.396	199.84
1676.621	200.49
1679.845	200.78
1683.069	200.62
1686.293	202.16
1689.517	203.66
1692.74	203.27
1695.963	204.06
1699.185	205.73
1702.408	206.17
1705.63	206.96
1708.852	207.18
1712.073	207.29
1715.294	207.88
1718.515	209.16
1721.736	208.34
1724.956	209.41
1728.176	209.23
1731.396	210.93
1734.616	210.62
1737.835	210.92
1741.054	209.28
1744.272	210.24
1747.491	212.15
1750.709	212.25
1753.927	212.24
1757.144	212.29
1760.361	212.65
1763.578	212.93
1766.795	212.26
1770.011	213.77
1773.227	214.08
1776.443	216.81
1779.658	217.63
1782.874	217.18
1786.089	218.28
1789.303	219.09
1792.518	220.92
1795.732	220.84
1798.945	223.52
1802.159	223.67
1805.372	224.2
1808.585	227.73
1811.797	228.86
1815.01	229.32
1818.222	231.23
1821.434	232.93
1824.645	233.18
1827.856	237.85
1831.067	240.09
1834.278	238.88
1837.488	240.87
1840.698	242.53
1843.908	240.23
1847.117	241.21
1850.326	242.77
1853.535	241.58
1856.744	245.57
1859.952	245.86
1863.16	243.64
1866.368	241.68
1869.575	245.5
1872.782	241.32
1875.989	241.42
1879.196	240.8
1882.402	239.37
1885.608	239.96
1888.814	241.64
1892.019	240.7
1895.224	240.38
1898.429	239.37
1901.634	241.46
1904.838	240.9
1908.042	244.63
1911.246	245.04
1914.449	246.72
1917.652	246.65
1920.855	247.11
1924.058	246.35
1927.26	245.18
1930.462	246.24
1933.664	249.42
1936.865	247.61
1940.066	247.81
1943.267	245.74
1946.467	245.15
1949.668	246.66
1952.868	250.78
1956.067	250.3
1959.267	250.77
1962.466	251.71
1965.665	249.82
1968.863	250.25
1972.061	253.74
1975.259	255.16
1978.457	257.44
1981.654	260.14
1984.852	260.39
1988.048	258.92
1991.245	261.06
1994.441	264.11
1997.637	265.54
2000.833	272.02
2004.028	275.44
2007.223	275.26
2010.418	278.06
2013.613	283.02
2016.807	285.26
2020.001	288.69
2023.194	292.67
2026.388	299.84
2029.581	305.33
2032.774	308.76
2035.966	314.36
2039.158	314.71
2042.35	321.94
2045.542	324.72
2048.733	328.92
2051.924	334.47
2055.115	338.75
2058.306	339.74
2061.496	342.61
2064.686	343.48
2067.875	349.12
2071.065	350.56
2074.254	349.37
2077.442	352.96
2080.631	354.95
2083.819	359.06
2087.007	357
2090.195	363.34
2093.382	365.83
2096.569	363.45
2099.756	369.08
2102.942	369.79
2106.128	372.55
2109.314	381.21
2112.5	380.5
2115.685	388.49
2118.87	389.24
2122.055	399.03
2125.239	400.59
2128.424	406.09
2131.608	409.45
2134.791	415.51
2137.974	417.56
2141.157	418.65
2144.34	419.21
2147.523	426.16
2150.705	422.77
2153.887	426.54
2157.068	426.69
2160.25	421.54
2163.431	424.67
2166.611	428.85
2169.792	437.44
2172.972	441.68
2176.152	444.05
2179.331	450.05
2182.511	456.64
2185.69	462.56
2188.868	471.84
2192.047	472.67
2195.225	487.28
2198.403	498.9
2201.58	508.9
2204.758	517.45
2207.935	528.64
2211.111	538.95
2214.288	545.06
2217.464	547.95
2220.64	555.14
2223.815	563.53
2226.991	588.12
2230.166	589.11
2233.34	598.42
2236.515	608.56
2239.689	608.88
2242.863	612.82
2246.036	631.45
2249.209	627.01
2252.382	636.56
2255.555	656.35
2258.727	658.39
2261.9	659.66
2265.071	667.24
2268.243	679.15
2271.414	687.18
2274.585	702.16
2277.756	709.19
2280.926	714.53
2284.096	731.37
2287.266	748.24
2290.436	752.86
2293.605	770.7
2296.774	795.75
2299.942	819.57
2303.111	822.42
2306.279	840.74
2309.447	853.92
2312.614	876.76
2315.781	898.97
2318.948	943.4
2322.115	928.47
2325.281	978.98
2328.447	957.17
2331.613	1000.47
2334.779	989.67
2337.944	1034.54
2341.109	1043.69
2344.274	1068.34
2347.438	1106.87
2350.602	1106.27
2353.766	1136.71
2356.929	1154.08
2360.092	1146.2
2363.255	1230.44
2366.418	1220.93
2369.58	1246.58
2372.742	1325.86
2375.904	1360.02
2379.066	1353.25
2382.227	1324.58
2385.388	1438.97
2388.548	1445.05
2391.709	1459.89
2394.869	1629.13
2398.029	1560.92
2401.188	1605.99
2404.347	1593.87
2407.506	1564.27
2410.665	1608.35
2413.823	1708.7
2416.981	1809.57
2420.139	1746.98
2423.296	1727.74
2426.453	1805.21
2429.61	1736.78
2432.767	1814
2435.923	1795.82
2439.079	1964.77
2442.235	1992.58
2445.391	1973.51
2448.546	1961.27
2451.701	1907.6
2454.855	1908.06
2458.009	2019.19
2461.163	2104.22
2464.317	2179.95
2467.471	2239.81
2470.624	2244.28
2473.777	2179.49
2476.929	2124.25
2480.082	2068.11
2483.234	2040.53
2486.385	2142.36
2489.537	2155.05
2492.688	2234.08
2495.839	2172.35
2498.989	2129.32
2502.14	2136.02
2505.29	2159.61
2508.439	2199.12
2511.589	2191.95
2514.738	2389.68
2517.887	2334.07
2521.035	2473.03
2524.183	2493.16
2527.331	2510.74
2530.479	2501.2
2533.627	2516.22
