Data from C_2_DEC_VA_2N_Splice17_13-09-02-378.txt Node
Date: Sat Mar 07 13:09:02 EST 2020
User: sa697716
Spectrometer: NQ5500242
Trigger mode: 0
Integration Time (sec): 1.450000E-1
Scans to average: 20
Nonlinearity correction enabled: false
Boxcar width: 5
Storing dark spectrum: false
XAxis mode: Wavelengths
Number of Pixels in Spectrum: 512
>>>>>Begin Spectral Data<<<<<
187.83	199.23
188.298	230.76
188.766	210.99
189.233	157.26
189.701	153.23
190.169	180.65
190.636	153.88
191.104	160.43
191.571	-89.17
192.039	-76.33
192.506	180.6
192.974	12.6
193.441	170.55
193.908	76.51
194.375	35.95
194.842	-11.9
195.31	-64.61
195.777	-359.68
196.244	9.53
196.711	27.77
197.177	33.55
197.644	33.68
198.111	33.1
198.578	33.62
199.045	33.88
199.511	33.68
199.978	33.81
200.445	34.33
200.911	34.67
201.378	34.78
201.844	35.08
202.31	34.79
202.777	35.07
203.243	35.41
203.709	35.23
204.176	34.91
204.642	34.87
205.108	34.79
205.574	34.58
206.04	33.6
206.506	33.14
206.972	32.88
207.438	32.54
207.903	31.97
208.369	31.24
208.835	30.51
209.301	29.92
209.766	28.92
210.232	28.17
210.697	27.25
211.163	26.89
211.628	26.43
212.094	25.83
212.559	25.4
213.024	24.78
213.49	24.29
213.955	23.87
214.42	23.51
214.885	23.09
215.35	22.31
215.815	21.63
216.28	20.25
216.745	18.73
217.21	17.21
217.675	15.78
218.14	14.68
218.604	13.68
219.069	12.82
219.534	12.14
219.998	11.55
220.463	11.09
220.927	10.58
221.392	10.31
221.856	10.04
222.32	9.83
222.785	9.64
223.249	9.44
223.713	9.29
224.177	9.16
224.642	9.04
225.106	8.86
225.57	8.69
226.034	8.56
226.497	8.42
226.961	8.31
227.425	8.2
227.889	8.1
228.353	7.99
228.816	7.88
229.28	7.77
229.744	7.65
230.207	7.56
230.671	7.49
231.134	7.42
231.597	7.33
232.061	7.25
232.524	7.17
232.987	7.08
233.45	7.02
233.914	6.95
234.377	6.87
234.84	6.81
235.303	6.75
235.766	6.7
236.229	6.64
236.691	6.59
237.154	6.54
237.617	6.48
238.08	6.44
238.542	6.37
239.005	6.32
239.468	6.28
239.93	6.23
240.393	6.18
240.855	6.11
241.317	6.05
241.78	6
242.242	5.93
242.704	5.88
243.166	5.82
243.629	5.78
244.091	5.74
244.553	5.68
245.015	5.64
245.477	5.59
245.939	5.55
246.4	5.51
246.862	5.46
247.324	5.43
247.786	5.39
248.247	5.35
248.709	5.3
249.17	5.25
249.632	5.23
250.093	5.19
250.555	5.15
251.016	5.12
251.477	5.09
251.939	5.07
252.4	5.03
252.861	5
253.322	4.97
253.783	4.94
254.244	4.92
254.705	4.88
255.166	4.85
255.627	4.82
256.088	4.79
256.549	4.77
257.009	4.73
257.47	4.7
257.931	4.66
258.391	4.64
258.852	4.62
259.312	4.58
259.773	4.55
260.233	4.53
260.694	4.51
261.154	4.47
261.614	4.44
262.074	4.41
262.534	4.39
262.994	4.37
263.455	4.35
263.915	4.33
264.374	4.3
264.834	4.29
265.294	4.26
265.754	4.25
266.214	4.24
266.673	4.22
267.133	4.21
267.593	4.21
268.052	4.19
268.512	4.18
268.971	4.17
269.431	4.16
269.89	4.15
270.349	4.14
270.809	4.12
271.268	4.11
271.727	4.1
272.186	4.08
272.645	4.07
273.104	4.06
273.563	4.04
274.022	4.03
274.481	4.02
274.94	4.01
275.399	3.99
275.857	3.99
276.316	3.97
276.775	3.96
277.233	3.95
277.692	3.94
278.15	3.93
278.609	3.92
279.067	3.91
279.525	3.91
279.984	3.89
280.442	3.88
280.9	3.87
281.358	3.86
281.816	3.87
282.274	3.87
282.732	3.85
283.19	3.84
283.648	3.83
284.106	3.82
284.564	3.81
285.021	3.81
285.479	3.81
285.937	3.8
286.394	3.8
286.852	3.78
287.309	3.77
287.767	3.77
288.224	3.76
288.682	3.75
289.139	3.74
289.596	3.72
290.053	3.7
290.511	3.69
290.968	3.68
291.425	3.65
291.882	3.64
292.339	3.63
292.796	3.62
293.252	3.61
293.709	3.6
294.166	3.6
294.623	3.59
295.079	3.59
295.536	3.59
295.992	3.58
296.449	3.58
296.905	3.58
297.362	3.57
297.818	3.57
298.274	3.56
298.731	3.55
299.187	3.54
299.643	3.53
300.099	3.52
300.555	3.51
301.011	3.51
301.467	3.5
301.923	3.49
302.379	3.49
302.835	3.49
303.291	3.48
303.746	3.48
304.202	3.48
304.658	3.48
305.113	3.48
305.569	3.47
306.024	3.47
306.479	3.46
306.935	3.46
307.39	3.46
307.845	3.46
308.301	3.47
308.756	3.46
309.211	3.46
309.666	3.48
310.121	3.47
310.576	3.46
311.031	3.46
311.486	3.47
311.94	3.47
312.395	3.47
312.85	3.47
313.305	3.46
313.759	3.46
314.214	3.45
314.668	3.43
315.123	3.43
315.577	3.44
316.032	3.43
316.486	3.43
316.94	3.42
317.394	3.42
317.849	3.41
318.303	3.4
318.757	3.39
319.211	3.38
319.665	3.38
320.119	3.37
320.572	3.35
321.026	3.35
321.48	3.34
321.934	3.33
322.387	3.32
322.841	3.32
323.295	3.32
323.748	3.32
324.202	3.32
324.655	3.32
325.108	3.32
325.562	3.32
326.015	3.32
326.468	3.31
326.921	3.31
327.374	3.3
327.827	3.31
328.28	3.3
328.733	3.3
329.186	3.3
329.639	3.3
330.092	3.3
330.545	3.29
330.997	3.29
331.45	3.29
331.903	3.29
332.355	3.3
332.808	3.3
333.26	3.29
333.713	3.28
334.165	3.28
334.617	3.29
335.069	3.28
335.522	3.29
335.974	3.3
336.426	3.29
336.878	3.28
337.33	3.29
337.782	3.29
338.234	3.3
338.686	3.3
339.137	3.3
339.589	3.3
340.041	3.3
340.493	3.29
340.944	3.27
341.396	3.27
341.847	3.26
342.299	3.25
342.75	3.24
343.201	3.23
343.653	3.22
344.104	3.21
344.555	3.2
345.006	3.19
345.457	3.18
345.908	3.18
346.359	3.19
346.81	3.19
347.261	3.19
347.712	3.18
348.163	3.18
348.613	3.18
349.064	3.19
349.515	3.19
349.965	3.2
350.416	3.2
350.866	3.2
351.317	3.19
351.767	3.2
352.217	3.19
352.668	3.2
353.118	3.21
353.568	3.2
354.018	3.21
354.468	3.22
354.918	3.22
355.368	3.23
355.818	3.23
356.268	3.25
356.718	3.26
357.168	3.27
357.617	3.27
358.067	3.27
358.517	3.28
358.966	3.28
359.416	3.29
359.865	3.3
360.315	3.3
360.764	3.31
361.213	3.31
361.663	3.31
362.112	3.33
362.561	3.34
363.01	3.34
363.459	3.34
363.908	3.34
364.357	3.36
364.806	3.36
365.255	3.37
365.703	3.39
366.152	3.4
366.601	3.42
367.05	3.42
367.498	3.43
367.947	3.46
368.395	3.48
368.844	3.5
369.292	3.51
369.74	3.53
370.189	3.54
370.637	3.56
371.085	3.56
371.533	3.58
371.981	3.6
372.429	3.61
372.877	3.63
373.325	3.65
373.773	3.66
374.221	3.67
374.669	3.69
375.116	3.7
375.564	3.71
376.012	3.73
376.459	3.74
376.907	3.77
377.354	3.79
377.801	3.81
378.249	3.83
378.696	3.85
379.143	3.88
379.591	3.9
380.038	3.93
380.485	3.96
380.932	3.99
381.379	4.02
381.826	4.04
382.273	4.06
382.72	4.08
383.166	4.1
383.613	4.12
384.06	4.13
384.506	4.15
384.953	4.19
385.4	4.21
385.846	4.24
386.292	4.26
386.739	4.27
387.185	4.3
387.631	4.33
388.078	4.37
388.524	4.39
388.97	4.42
389.416	4.46
389.862	4.47
390.308	4.5
390.754	4.53
391.2	4.56
391.645	4.58
392.091	4.61
392.537	4.63
392.983	4.64
393.428	4.67
393.874	4.69
394.319	4.71
394.765	4.73
395.21	4.74
395.655	4.76
396.101	4.78
396.546	4.81
396.991	4.83
397.436	4.84
397.881	4.88
398.326	4.9
398.771	4.93
399.216	4.94
399.661	4.96
400.106	4.97
400.551	4.98
400.995	4.98
401.44	4.98
401.885	4.99
402.329	5
402.774	4.99
403.218	5.01
403.663	5
404.107	5.01
404.551	5
404.995	4.99
405.44	4.98
405.884	4.98
406.328	4.98
406.772	4.96
407.216	4.96
407.66	4.96
408.104	4.94
408.547	4.94
408.991	4.94
409.435	4.93
409.879	4.95
410.322	4.95
410.766	4.97
411.209	4.98
411.653	5
412.096	5
412.54	4.99
412.983	5
413.426	5.01
413.869	5.02
414.312	5.04
414.756	5.04
415.199	5.04
415.642	5.02
416.085	5.02
416.527	5.02
416.97	5.01
417.413	5.02
417.856	5.01
418.298	5.01
418.741	5
419.184	5
419.626	4.98
420.069	4.99
420.511	5
420.953	5.02
421.396	5.02
421.838	5.01
422.28	5.01
422.722	5.02
423.164	5.01
423.606	5
424.048	4.99
424.49	4.99
424.932	4.98
425.374	4.96
425.816	4.92
426.258	4.9
426.699	4.89
427.141	4.88
427.582	4.86
428.024	4.87
428.465	4.87
428.907	4.86
429.348	4.84
429.789	4.83
430.231	4.84
430.672	4.85
431.113	4.86
431.554	4.87
431.995	4.88
432.436	4.88
432.877	4.89
433.318	4.9
433.759	4.92
434.2	4.95
434.64	4.97
435.081	4.98
435.522	4.99
435.962	5
436.403	5.02
436.843	5.02
437.284	5.01
437.724	5.01
438.164	5
438.604	5
439.045	5.01
439.485	5.01
439.925	5.02
440.365	5.03
440.805	5.04
441.245	5.06
441.685	5.1
442.125	5.13
442.564	5.14
443.004	5.16
443.444	5.17
443.883	5.18
444.323	5.18
444.762	5.21
445.202	5.21
445.641	5.24
446.081	5.25
446.52	5.24
446.959	5.26
447.398	5.29
447.837	5.32
448.276	5.37
448.716	5.4
449.154	5.45
449.593	5.47
450.032	5.5
450.471	5.5
450.91	5.52
451.349	5.55
451.787	5.56
452.226	5.56
452.664	5.57
453.103	5.56
453.541	5.56
453.98	5.57
454.418	5.55
454.856	5.55
455.295	5.57
455.733	5.55
456.171	5.55
456.609	5.54
457.047	5.55
457.485	5.55
457.923	5.55
458.361	5.55
458.798	5.54
459.236	5.55
459.674	5.55
460.111	5.53
460.549	5.54
460.987	5.54
461.424	5.55
461.862	5.55
462.299	5.56
462.736	5.55
463.173	5.56
463.611	5.55
464.048	5.55
464.485	5.57
464.922	5.57
465.359	5.57
465.796	5.58
466.233	5.58
466.67	5.58
467.106	5.59
467.543	5.58
467.98	5.58
468.416	5.58
468.853	5.57
469.29	5.56
469.726	5.57
470.162	5.56
470.599	5.55
471.035	5.54
471.471	5.53
471.907	5.52
472.344	5.52
472.78	5.53
473.216	5.52
473.652	5.52
474.088	5.51
474.523	5.51
474.959	5.51
475.395	5.5
475.831	5.51
476.266	5.52
476.702	5.51
477.138	5.5
477.573	5.5
478.008	5.51
478.444	5.51
478.879	5.53
479.314	5.54
479.75	5.53
480.185	5.52
480.62	5.51
481.055	5.5
481.49	5.51
481.925	5.52
482.36	5.52
482.795	5.52
483.229	5.53
483.664	5.53
484.099	5.52
484.534	5.53
484.968	5.55
485.403	5.57
485.837	5.59
486.271	5.62
486.706	5.63
487.14	5.66
487.574	5.68
488.009	5.71
488.443	5.74
488.877	5.78
489.311	5.82
489.745	5.86
490.179	5.91
490.613	5.95
491.046	5.99
491.48	6.03
491.914	6.08
492.348	6.14
492.781	6.19
493.215	6.26
493.648	6.32
494.082	6.38
494.515	6.43
494.948	6.5
495.382	6.57
495.815	6.66
496.248	6.74
496.681	6.83
497.114	6.92
497.547	7
497.98	7.1
498.413	7.19
498.846	7.31
499.279	7.42
499.711	7.52
500.144	7.64
500.577	7.76
501.009	7.88
501.442	8.01
501.874	8.16
502.306	8.29
502.739	8.45
503.171	8.6
503.603	8.75
504.036	8.92
504.468	9.09
504.9	9.25
505.332	9.42
505.764	9.6
506.196	9.79
506.627	9.97
507.059	10.16
507.491	10.36
507.923	10.56
508.354	10.78
508.786	10.99
509.217	11.21
509.649	11.44
510.08	11.67
510.512	11.91
510.943	12.14
511.374	12.38
511.805	12.62
512.237	12.86
512.668	13.1
513.099	13.34
513.53	13.59
513.961	13.86
514.391	14.11
514.822	14.37
515.253	14.63
515.684	14.89
516.114	15.14
516.545	15.4
516.975	15.67
517.406	15.93
517.836	16.18
518.267	16.45
518.697	16.69
519.127	16.94
519.558	17.19
519.988	17.43
520.418	17.68
520.848	17.92
521.278	18.15
521.708	18.55
522.138	18.79
522.567	19.01
522.997	19.21
523.427	19.4
523.857	19.6
524.286	19.79
524.716	19.98
525.145	20.16
525.575	20.34
526.004	20.52
526.433	20.51
526.863	20.67
527.292	20.82
527.721	20.98
528.15	21.12
528.579	21.26
529.008	21.39
529.437	21.5
529.866	21.61
530.295	21.72
530.724	21.82
531.152	21.93
531.581	22.02
532.01	22.12
532.438	22.21
532.867	22.31
533.295	22.39
533.723	22.47
534.152	22.54
534.58	22.61
535.008	22.66
535.436	22.72
535.865	22.75
536.293	22.8
536.721	22.84
537.149	22.88
537.576	22.91
538.004	22.95
538.432	22.98
538.86	23.03
539.287	23.04
539.715	23.1
540.143	23.13
540.57	23.15
540.998	23.18
541.425	23.2
541.852	23.23
542.28	23.27
542.707	23.28
543.134	23.3
543.561	23.32
543.988	23.34
544.415	23.34
544.842	23.36
545.269	23.38
545.696	23.41
546.123	23.42
546.549	23.42
546.976	23.42
547.403	23.44
547.829	23.43
548.256	23.44
548.682	23.44
549.108	23.47
549.535	23.5
549.961	23.51
550.387	23.49
550.813	23.49
551.24	23.48
551.666	23.48
552.092	23.47
552.518	23.48
552.943	23.46
553.369	23.44
553.795	23.39
554.221	23.36
554.646	23.32
555.072	23.29
555.498	23.26
555.923	23.22
556.349	23.17
556.774	23.11
557.199	23.05
557.625	23.01
558.05	22.96
558.475	22.91
558.9	22.83
559.325	22.77
559.75	22.71
560.175	22.64
560.6	22.56
561.025	22.49
561.449	22.41
561.874	22.32
562.299	22.21
562.723	22.12
563.148	22.01
563.572	21.9
563.997	21.79
564.421	21.66
564.846	21.53
565.27	21.42
565.694	21.31
566.118	21.19
566.542	21.08
566.966	20.97
567.39	20.85
567.814	20.73
568.238	20.63
568.662	20.51
569.086	20.4
569.509	20.3
569.933	20.19
570.357	20.06
570.78	19.93
571.204	19.81
571.627	19.69
572.05	19.57
572.474	19.47
572.897	19.35
573.32	19.25
573.743	19.13
574.166	19.02
574.589	18.91
575.012	18.8
575.435	18.71
575.858	18.62
576.281	18.52
576.704	18.43
577.126	18.32
577.549	18.22
577.972	18.13
578.394	18.04
578.817	17.96
579.239	17.87
579.661	17.81
580.084	17.73
580.506	17.66
580.928	17.59
581.35	17.52
581.772	17.45
582.194	17.38
582.616	17.31
583.038	17.25
583.46	17.17
583.882	17.12
584.303	17.03
584.725	16.97
585.147	16.91
585.568	16.85
585.99	16.8
586.411	16.76
586.833	16.71
587.254	16.65
587.675	16.59
588.096	16.54
588.518	16.48
588.939	16.46
589.36	16.41
589.781	16.36
590.202	16.32
590.623	16.27
591.043	16.22
591.464	16.18
591.885	16.14
592.305	16.11
592.726	16.09
593.147	16.05
593.567	16.01
593.987	15.97
594.408	15.92
594.828	15.88
595.248	15.85
595.669	15.82
596.089	15.79
596.509	15.76
596.929	15.72
597.349	15.68
597.769	15.65
598.189	15.62
598.608	15.6
599.028	15.57
599.448	15.53
599.867	15.5
600.287	15.47
600.706	15.44
601.126	15.39
601.545	15.37
601.965	15.33
602.384	15.29
602.803	15.24
603.222	15.19
603.641	15.15
604.061	15.12
604.48	15.06
604.898	15.01
605.317	14.94
605.736	14.88
606.155	14.82
606.574	14.76
606.992	14.71
607.411	14.65
607.829	14.56
608.248	14.47
608.666	14.4
609.085	14.33
609.503	14.27
609.921	14.21
610.339	14.14
610.758	14.07
611.176	13.99
611.594	13.91
612.012	13.84
612.43	13.8
612.847	13.74
613.265	13.67
613.683	13.6
614.101	13.52
614.518	13.46
614.936	13.4
615.353	13.33
615.771	13.27
616.188	13.2
616.606	13.16
617.023	13.1
617.44	13.05
617.857	13.01
618.274	12.96
618.691	12.91
619.108	12.86
619.525	12.82
619.942	12.79
620.359	12.76
620.776	12.73
621.192	12.69
621.609	12.67
622.026	12.64
622.442	12.61
622.859	12.59
623.275	12.57
623.691	12.55
624.108	12.52
624.524	12.5
624.94	12.47
625.356	12.48
625.772	12.46
626.188	12.45
626.604	12.43
627.02	12.42
627.436	12.41
627.852	12.4
628.268	12.39
628.683	12.38
629.099	12.38
629.514	12.36
629.93	12.33
630.345	12.31
630.761	12.28
631.176	12.26
631.591	12.23
632.007	12.19
632.422	12.15
632.837	12.1
633.252	12.05
633.667	11.99
634.082	11.93
634.497	11.87
634.911	11.8
635.326	11.72
635.741	11.64
636.155	11.55
636.57	11.46
636.984	11.38
637.399	11.28
637.813	11.17
638.228	11.07
638.642	10.94
639.056	10.81
639.47	10.7
639.884	10.59
640.298	10.47
640.712	10.36
641.126	10.24
641.54	10.1
641.954	9.98
642.368	9.87
642.781	9.77
643.195	9.67
643.609	9.57
644.022	9.46
644.436	9.34
644.849	9.23
645.262	9.14
645.676	9.04
646.089	8.95
646.502	8.87
646.915	8.79
647.328	8.71
647.741	8.64
648.154	8.58
648.567	8.52
648.98	8.47
649.393	8.42
649.805	8.38
650.218	8.33
650.631	8.29
651.043	8.24
651.456	8.2
651.868	8.15
652.28	8.11
652.693	8.07
653.105	8.03
653.517	7.97
653.929	7.92
654.341	7.87
654.753	7.81
655.165	7.75
655.577	7.69
655.989	7.63
656.401	7.56
656.813	7.49
657.224	7.4
657.636	7.31
658.047	7.24
658.459	7.16
658.87	7.07
659.282	6.98
659.693	6.9
660.104	6.81
660.515	6.72
660.926	6.63
661.338	6.54
661.749	6.45
662.159	6.38
662.57	6.3
662.981	6.22
663.392	6.14
663.803	6.09
664.213	6.01
664.624	5.94
665.035	5.88
665.445	5.84
665.855	5.79
666.266	5.76
666.676	5.72
667.086	5.67
667.497	5.64
667.907	5.61
668.317	5.58
668.727	5.56
669.137	5.55
669.547	5.54
669.956	5.51
670.366	5.5
670.776	5.48
671.186	5.47
671.595	5.46
672.005	5.46
672.414	5.46
672.824	5.46
673.233	5.47
673.642	5.48
674.052	5.48
674.461	5.49
674.87	5.51
675.279	5.53
675.688	5.55
676.097	5.58
676.506	5.59
676.915	5.63
677.323	5.66
677.732	5.69
678.141	5.73
678.549	5.78
678.958	5.84
679.366	5.89
679.775	5.95
680.183	6.02
680.592	6.12
681	6.21
681.408	6.31
681.816	6.42
682.224	6.54
682.632	6.66
683.04	6.81
683.448	6.97
683.856	7.14
684.264	7.33
684.671	7.53
685.079	7.73
685.487	7.97
685.894	8.25
686.302	8.53
686.709	8.83
687.116	9.16
687.524	9.5
687.931	9.88
688.338	10.26
688.745	10.67
689.152	11.09
689.559	11.54
689.966	12.01
690.373	12.46
690.78	12.94
691.187	13.43
691.593	13.93
692	14.44
692.407	14.92
692.813	15.44
693.22	15.94
693.626	16.46
694.032	16.98
694.439	17.47
694.845	17.97
695.251	18.48
695.657	18.97
696.063	19.46
696.469	19.95
696.875	20.45
697.281	20.94
697.687	21.42
698.093	21.87
698.498	22.31
698.904	22.76
699.31	23.21
699.715	23.63
700.12	24.05
700.526	24.47
700.931	24.88
701.337	25.27
701.742	25.64
702.147	26.03
702.552	26.41
702.957	26.77
703.362	27.14
703.767	27.48
704.172	27.82
704.577	28.16
704.981	28.47
705.386	28.78
705.791	29.1
706.195	29.42
706.6	29.72
707.004	30
707.408	30.3
707.813	30.59
708.217	30.87
708.621	31.16
709.025	31.4
709.43	31.67
709.834	31.93
710.237	32.17
710.641	32.38
711.045	32.61
711.449	32.85
711.853	33.09
712.256	33.29
712.66	33.5
713.064	33.71
713.467	33.94
713.87	34.15
714.274	34.34
714.677	34.54
715.08	34.76
715.484	34.96
715.887	35.15
716.29	35.31
716.693	35.5
717.096	35.69
717.499	35.86
717.901	36.03
718.304	36.19
718.707	36.36
719.109	36.52
719.512	36.67
719.915	36.82
720.317	36.96
720.719	37.1
721.122	37.23
721.524	37.35
721.926	37.48
722.328	37.59
722.731	37.72
723.133	37.86
723.535	37.97
723.937	38.08
724.338	38.19
724.74	38.31
725.142	38.52
725.544	38.61
725.945	38.73
726.347	38.81
726.748	38.89
727.15	38.94
727.551	39.03
727.952	39.09
728.354	39.19
728.755	39.24
729.156	39.28
729.557	39.25
729.958	39.31
730.359	39.37
730.76	39.45
731.161	39.52
731.562	39.61
731.962	39.65
732.363	39.72
732.763	39.76
733.164	39.84
733.564	39.92
733.965	39.95
734.365	40
734.766	40.05
735.166	40.11
735.566	40.17
735.966	40.18
736.366	40.22
736.766	40.23
737.166	40.25
737.566	40.25
737.966	40.29
738.365	40.34
738.765	40.37
739.165	40.37
739.564	40.38
739.964	40.38
740.363	40.41
740.763	40.43
741.162	40.48
741.561	40.49
741.96	40.51
742.36	40.51
742.759	40.51
743.158	40.53
743.557	40.54
743.955	40.55
744.354	40.58
744.753	40.6
745.152	40.65
745.55	40.64
745.949	40.66
746.348	40.69
746.746	40.7
747.144	40.71
747.543	40.72
747.941	40.75
748.339	40.72
748.737	40.74
749.136	40.73
749.534	40.71
749.932	40.74
750.33	40.76
750.727	40.77
751.125	40.78
751.523	40.78
751.921	40.79
752.318	40.79
752.716	40.83
753.113	40.84
753.511	40.86
753.908	40.87
754.305	40.87
754.703	40.86
755.1	40.85
755.497	40.85
755.894	40.86
756.291	40.86
756.688	40.86
757.085	40.86
757.482	40.85
757.878	40.84
758.275	40.84
758.672	40.83
759.068	40.83
759.465	40.83
759.861	40.82
760.258	40.82
760.654	40.8
761.05	40.81
761.447	40.81
761.843	40.82
762.239	40.84
762.635	40.83
763.031	40.83
763.427	40.83
763.822	40.83
764.218	40.87
764.614	40.86
765.01	40.86
765.405	40.85
765.801	40.82
766.196	40.8
766.592	40.78
766.987	40.79
767.382	40.79
767.778	40.8
768.173	40.8
768.568	40.76
768.963	40.78
769.358	40.82
769.753	40.8
770.148	40.79
770.542	40.79
770.937	40.8
771.332	40.79
771.726	40.79
772.121	40.78
772.515	40.78
772.91	40.77
773.304	40.76
773.699	40.73
774.093	40.73
774.487	40.73
774.881	40.73
775.275	40.72
775.669	40.7
776.063	40.68
776.457	40.71
776.851	40.69
777.245	40.68
777.638	40.66
778.032	40.68
778.425	40.71
778.819	40.72
779.212	40.74
779.606	40.73
779.999	40.74
780.392	40.8
780.786	40.78
781.179	40.81
781.572	40.82
781.965	40.83
782.358	40.82
782.751	40.79
783.143	40.8
783.536	40.77
783.929	40.79
784.322	40.81
784.714	40.8
785.107	40.8
785.499	40.8
785.891	40.8
786.284	40.81
786.676	40.83
787.068	40.84
787.46	40.83
787.852	40.83
788.245	40.84
788.636	40.83
789.028	40.79
789.42	40.76
789.812	40.77
790.204	40.76
790.595	40.81
790.987	40.76
791.378	40.77
791.77	40.79
792.161	40.78
792.553	40.77
792.944	40.77
793.335	40.78
793.726	40.78
794.117	40.76
794.508	40.75
794.899	40.72
795.29	40.75
795.681	40.72
796.072	40.72
796.463	40.77
796.853	40.78
797.244	40.77
797.634	40.79
798.025	40.82
798.415	40.81
798.806	40.82
799.196	40.78
799.586	40.77
799.976	40.81
800.366	40.79
800.756	40.77
801.146	40.76
801.536	40.76
801.926	40.75
802.316	40.73
802.706	40.77
803.095	40.78
803.485	40.81
803.874	40.81
804.264	40.8
804.653	40.82
805.043	40.83
805.432	40.79
805.821	40.82
806.21	40.84
806.599	40.83
806.988	40.8
807.377	40.79
807.766	40.78
808.155	40.76
808.544	40.78
808.933	40.75
809.321	40.74
809.71	40.76
810.098	40.72
810.487	40.69
810.875	40.67
811.264	40.67
811.652	40.69
812.04	40.68
812.428	40.71
812.816	40.67
813.204	40.69
813.592	40.66
813.98	40.66
814.368	40.69
814.756	40.72
815.144	40.72
815.531	40.71
815.919	40.7
816.306	40.71
816.694	40.69
817.081	40.71
817.469	40.72
817.856	40.74
818.243	40.73
818.63	40.7
819.017	40.67
819.404	40.65
819.791	40.63
820.178	40.63
820.565	40.62
820.952	40.62
821.339	40.6
821.725	40.59
822.112	40.6
822.498	40.61
822.885	40.64
823.271	40.65
823.657	40.65
824.044	40.67
824.43	40.67
824.816	40.69
825.202	40.69
825.588	40.7
825.974	40.67
826.36	40.66
826.746	40.65
827.132	40.64
827.517	40.64
827.903	40.67
828.289	40.69
828.674	40.68
829.06	40.66
829.445	40.65
829.83	40.64
830.216	40.66
830.601	40.66
830.986	40.66
831.371	40.64
831.756	40.65
832.141	40.64
832.526	40.65
832.911	40.65
833.295	40.65
833.68	40.66
834.065	40.67
834.449	40.67
834.834	40.66
835.218	40.68
835.603	40.68
835.987	40.68
836.371	40.69
836.755	40.66
837.139	40.64
837.524	40.65
837.908	40.67
838.291	40.67
838.675	40.68
839.059	40.68
839.443	40.66
839.827	40.64
840.21	40.62
840.594	40.62
840.977	40.62
841.361	40.64
841.744	40.61
842.127	40.58
842.511	40.56
842.894	40.56
843.277	40.54
843.66	40.52
844.043	40.54
844.426	40.55
844.809	40.55
845.191	40.58
845.574	40.58
845.957	40.59
846.339	40.6
846.722	40.62
847.104	40.62
847.487	40.62
847.869	40.64
848.252	40.65
848.634	40.64
849.016	40.63
849.398	40.61
849.78	40.6
850.162	40.59
850.544	40.59
850.926	40.58
851.307	40.58
851.689	40.59
852.071	40.61
852.452	40.6
852.834	40.63
853.215	40.63
853.597	40.63
853.978	40.62
854.359	40.63
854.741	40.62
855.122	40.61
855.503	40.61
855.884	40.61
856.265	40.6
856.646	40.6
857.026	40.6
857.407	40.61
857.788	40.61
858.169	40.62
858.549	40.61
858.93	40.63
859.31	40.63
859.69	40.63
860.071	40.64
860.451	40.65
860.831	40.64
861.211	40.59
861.591	40.57
861.971	40.55
862.351	40.56
862.731	40.56
863.111	40.55
863.491	40.56
863.87	40.55
864.25	40.55
864.629	40.53
865.009	40.54
865.388	40.57
865.768	40.58
866.147	40.58
866.526	40.58
866.905	40.56
867.284	40.58
867.663	40.58
868.042	40.59
868.421	40.6
868.8	40.61
869.179	40.63
869.558	40.62
869.936	40.62
870.315	40.63
870.693	40.64
871.072	40.66
871.45	40.65
871.828	40.65
872.207	40.65
872.585	40.64
872.963	40.63
873.341	40.59
873.719	40.61
874.097	40.6
874.475	40.6
874.853	40.59
875.23	40.61
875.608	40.6
875.986	40.62
876.363	40.61
876.741	40.61
877.118	40.63
877.495	40.64
877.873	40.63
878.25	40.67
878.627	40.68
879.004	40.68
879.381	40.68
879.758	40.67
880.135	40.65
880.512	40.66
880.889	40.65
881.265	40.64
881.642	40.64
882.019	40.64
882.395	40.63
882.772	40.62
883.148	40.61
883.524	40.59
883.901	40.6
884.277	40.59
884.653	40.58
885.029	40.57
885.405	40.56
885.781	40.56
886.157	40.57
886.532	40.56
886.908	40.55
887.284	40.56
887.659	40.54
888.035	40.53
888.411	40.52
888.786	40.53
889.161	40.55
889.537	40.54
889.912	40.54
890.287	40.51
890.662	40.52
891.037	40.53
891.412	40.54
891.787	40.53
892.162	40.54
892.536	40.54
892.911	40.53
893.286	40.54
893.66	40.54
894.035	40.54
894.409	40.55
894.784	40.54
895.158	40.52
895.532	40.51
895.906	40.52
896.281	40.5
896.655	40.49
897.029	40.51
897.402	40.49
897.776	40.5
898.15	40.5
898.524	40.49
898.898	40.49
899.271	40.5
899.645	40.51
900.018	40.53
900.392	40.53
900.765	40.54
901.138	40.51
901.511	40.53
901.884	40.53
902.258	40.56
902.631	40.56
903.003	40.56
903.376	40.57
903.749	40.57
904.122	40.6
904.495	40.63
904.867	40.66
905.24	40.67
905.612	40.68
905.985	40.66
906.357	40.65
906.729	40.69
907.102	40.69
907.474	40.69
907.846	40.68
908.218	40.66
908.59	40.68
908.962	40.66
909.334	40.67
909.705	40.67
910.077	40.69
910.449	40.71
910.82	40.66
911.192	40.65
911.563	40.62
911.935	40.61
912.306	40.62
912.677	40.59
913.048	40.6
913.419	40.58
913.79	40.57
914.161	40.56
914.532	40.54
914.903	40.58
915.274	40.59
915.645	40.59
916.015	40.58
916.386	40.58
916.756	40.58
917.127	40.57
917.497	40.6
917.868	40.58
918.238	40.56
918.608	40.57
918.978	40.57
919.348	40.58
919.718	40.58
920.088	40.59
920.458	40.6
920.828	40.57
921.198	40.54
921.567	40.54
921.937	40.56
922.306	40.57
922.676	40.55
923.045	40.54
923.415	40.5
923.784	40.5
924.153	40.51
924.522	40.52
924.891	40.52
925.26	40.53
925.629	40.52
925.998	40.51
926.367	40.51
926.736	40.51
927.104	40.49
927.473	40.48
927.842	40.47
928.21	40.47
928.578	40.45
928.947	40.48
929.315	40.45
929.683	40.44
930.051	40.42
930.42	40.41
930.788	40.4
931.156	40.4
931.523	40.41
931.891	40.45
932.259	40.45
932.627	40.45
932.994	40.43
933.362	40.46
933.729	40.48
934.097	40.51
934.464	40.55
934.831	40.55
935.199	40.59
935.566	40.61
935.933	40.55
936.3	40.53
936.667	40.52
937.034	40.53
937.401	40.56
937.767	40.53
938.134	40.5
938.501	40.44
938.867	40.44
939.234	40.4
939.6	40.36
939.967	40.4
940.333	40.34
940.699	40.36
941.065	40.31
941.431	40.25
941.798	40.25
942.163	40.24
942.529	40.21
942.895	40.16
943.261	40.13
943.627	40.09
943.992	40.04
944.358	40.02
944.723	40.03
945.089	40.03
945.454	40.01
945.82	39.97
946.185	39.96
946.55	39.93
946.915	39.95
947.28	39.92
947.645	39.95
948.01	39.96
948.375	39.96
948.74	39.91
949.104	39.91
949.469	39.92
949.834	39.92
950.198	39.88
950.562	39.9
950.927	39.87
951.291	39.84
951.655	39.79
952.02	39.78
952.384	39.74
952.748	39.72
953.112	39.74
953.476	39.72
953.839	39.68
954.203	39.7
954.567	39.67
954.931	39.67
955.294	39.69
955.658	39.76
956.021	39.75
956.385	39.79
956.748	39.81
957.111	39.73
957.474	39.74
957.837	39.73
958.2	39.76
958.563	39.74
958.926	39.74
959.289	39.74
959.652	39.69
960.015	39.69
960.377	39.68
960.74	39.69
961.102	39.75
961.465	39.74
961.827	39.8
962.189	39.82
962.552	39.88
962.914	39.87
963.276	39.87
963.638	39.88
964	39.88
964.362	39.86
964.724	39.82
965.085	39.79
965.447	39.78
965.809	39.78
966.17	39.71
966.532	39.67
966.893	39.72
967.255	39.73
967.616	39.78
967.977	39.81
968.338	39.85
968.699	39.82
969.061	39.86
969.421	39.88
969.782	39.87
970.143	39.94
970.504	39.98
970.865	39.97
971.225	39.96
971.586	39.92
971.946	39.95
972.307	39.97
972.667	40.03
973.027	40.06
973.388	40.05
973.748	40.07
974.108	40.1
974.468	40.06
974.828	40.05
975.188	40.04
975.548	40.02
975.907	39.99
976.267	40
976.627	40.01
976.986	39.96
977.346	39.92
977.705	39.89
978.064	39.84
978.424	39.87
978.783	39.81
979.142	39.83
979.501	39.86
979.86	39.93
980.219	39.88
980.578	39.85
980.937	39.88
981.296	39.94
981.654	39.89
982.013	39.91
982.371	39.94
982.73	40.06
983.088	40.05
983.447	40.02
983.805	39.93
984.163	39.96
984.521	39.92
984.879	39.82
985.237	39.86
985.595	39.97
985.953	39.92
986.311	39.83
986.669	39.81
987.026	39.83
987.384	39.86
987.741	39.87
988.099	39.89
988.456	39.93
988.814	40
989.171	39.97
989.528	39.96
989.885	40.01
990.242	40.07
990.599	40.07
990.956	40.11
991.313	40.13
991.67	40.19
992.027	40.23
992.383	40.28
992.74	40.37
993.096	40.37
993.453	40.3
993.809	40.32
994.165	40.28
994.522	40.26
994.878	40.22
995.234	40.21
995.59	40.17
995.946	40.05
996.302	40.07
996.658	40.03
997.013	40
997.369	40.11
997.725	40.16
998.08	40.27
998.436	40.27
998.791	40.29
999.147	40.24
999.502	40.25
999.857	40.34
1000.212	40.22
1000.567	40.11
1000.922	40.11
1001.277	40
1001.632	39.81
1001.987	39.72
1002.342	39.67
1002.696	39.69
1003.051	39.82
1003.406	39.77
1003.76	39.7
1004.114	39.7
1004.469	39.88
1004.823	40.18
1005.177	40.21
1005.531	40.41
1005.885	40.42
1006.239	40.53
1006.593	40.54
1006.947	40.55
1007.301	40.64
1007.655	40.72
1008.008	40.89
1008.362	40.95
1008.715	40.76
1009.069	40.78
1009.422	40.75
1009.776	40.76
1010.129	40.81
1010.482	40.79
1010.835	40.79
1011.188	40.81
1011.541	40.82
1011.894	40.84
1012.247	40.73
1012.6	40.66
1012.952	40.62
1013.305	40.43
1013.657	40.48
1014.01	40.37
1014.362	40.28
1014.715	40.17
1015.067	40.25
1015.419	40.29
1015.771	40.2
1016.123	40.35
1016.475	40.38
1016.827	40.45
1017.179	40.69
1017.531	40.71
1017.883	40.83
1018.234	41.02
1018.586	41.17
1018.938	41.28
1019.289	41.16
1019.64	41.16
1019.992	40.97
1020.343	40.89
1020.694	40.96
1021.045	40.91
1021.396	40.82
1021.747	40.79
1022.098	40.76
1022.449	40.69
1022.8	40.65
1023.151	40.83
1023.501	41.02
1023.852	41.24
1024.202	41.18
1024.553	41.07
1024.903	41.27
1025.253	41.65
1025.604	41.68
1025.954	41.42
1026.304	41.41
1026.654	41.24
1027.004	41.08
1027.354	40.87
1027.703	40.51
1028.053	40.5
1028.403	40.6
1028.753	40.15
1029.102	39.94
1029.452	39.87
1029.801	40.13
1030.15	40.08
1030.499	39.95
897.758	1251.43
901.051	1262.08
904.343	1255.95
907.636	1280.9
910.928	1246.42
914.22	1244.97
917.511	1228.76
920.803	1177.33
924.094	1168.88
927.384	1141.35
930.675	1095.49
933.965	1090.72
937.255	1024.69
940.544	984.96
943.834	936.61
947.123	929.82
950.411	875.46
953.7	857.27
956.988	807.62
960.276	775.46
963.563	763.56
966.851	737.6
970.138	730.11
973.424	707.78
976.711	709.92
979.997	673.6
983.283	669.6
986.568	655.45
989.853	635.12
993.138	625.89
996.423	601.63
999.708	583.52
1002.992	577.35
1006.275	551.67
1009.559	545.75
1012.842	527.72
1016.125	513.57
1019.408	504.17
1022.69	497.17
1025.972	486.58
1029.254	474.19
1032.536	466.85
1035.817	456.53
1039.098	450.51
1042.379	441.46
1045.659	436.77
1048.939	424.75
1052.219	416.64
1055.498	409.87
1058.778	399.97
1062.057	391.4
1065.335	387.69
1068.614	383.01
1071.892	379.57
1075.17	366.7
1078.447	358.93
1081.724	356.26
1085.001	354.04
1088.278	346.13
1091.554	339.13
1094.83	339.81
1098.106	337.41
1101.382	334.43
1104.657	332.08
1107.932	326.46
1111.206	328.15
1114.481	321
1117.755	317.21
1121.029	314.1
1124.302	314.29
1127.575	307.92
1130.848	304.04
1134.121	300.33
1137.393	298.31
1140.665	291.87
1143.937	289.53
1147.208	288.05
1150.48	286.72
1153.75	283.45
1157.021	280.39
1160.291	280.26
1163.561	277.51
1166.831	276.73
1170.101	274.86
1173.37	274.39
1176.639	275.21
1179.907	272.87
1183.176	269.11
1186.444	269.63
1189.711	268.57
1192.979	267.38
1196.246	265.59
1199.513	266.27
1202.78	264.81
1206.046	264.57
1209.312	262.23
1212.578	261.74
1215.843	264.36
1219.108	263.37
1222.373	268.12
1225.638	270.71
1228.902	274.38
1232.166	274.61
1235.43	276.98
1238.693	280.95
1241.956	282.2
1245.219	286.53
1248.482	286.94
1251.744	286.1
1255.006	287.58
1258.268	279.53
1261.529	277.24
1264.79	275.31
1268.051	274.34
1271.312	271.07
1274.572	268.05
1277.832	265.33
1281.092	261.36
1284.351	259.4
1287.61	259.53
1290.869	255.2
1294.128	254.45
1297.386	254.31
1300.644	251.12
1303.902	250.98
1307.159	250.19
1310.416	249.99
1313.673	250.02
1316.93	252.1
1320.186	251.87
1323.442	252.39
1326.697	256.71
1329.953	256.84
1333.208	257.71
1336.463	261.23
1339.717	261.81
1342.972	264.63
1346.226	267.05
1349.479	267.82
1352.733	269.03
1355.986	271.76
1359.238	271.83
1362.491	272.7
1365.743	276.34
1368.995	276.11
1372.247	276.13
1375.498	276.35
1378.749	278.86
1382	276.2
1385.251	276.4
1388.501	275.23
1391.751	275.38
1395	274.26
1398.25	273.06
1401.499	271.74
1404.748	272.04
1407.996	270.06
1411.244	268.93
1414.492	267.46
1417.74	265.5
1420.987	262.3
1424.234	262.07
1427.481	258.84
1430.728	258.89
1433.974	256.5
1437.22	254.84
1440.465	253.68
1443.711	251.5
1446.956	249.25
1450.201	246.66
1453.445	243.99
1456.689	243.1
1459.933	238.42
1463.177	237.27
1466.42	233.08
1469.663	230.35
1472.906	228.57
1476.148	222.62
1479.391	220.1
1482.633	218.61
1485.874	214.74
1489.115	213.22
1492.356	210.86
1495.597	210.87
1498.838	207.48
1502.078	206.46
1505.318	205.27
1508.557	204.99
1511.797	204.68
1515.036	203.07
1518.274	202.19
1521.513	200.4
1524.751	200.31
1527.989	198.96
1531.227	197.74
1534.464	197.34
1537.701	196.07
1540.938	195.65
1544.174	193.47
1547.41	193.07
1550.646	191.84
1553.882	192.13
1557.117	189.94
1560.352	188.34
1563.587	188.51
1566.821	186.9
1570.055	185.34
1573.289	183.59
1576.523	183.25
1579.756	181.54
1582.989	180.78
1586.222	180.53
1589.454	178.93
1592.686	180.09
1595.918	179.4
1599.15	178.43
1602.381	179.16
1605.612	178.79
1608.843	179.69
1612.073	179.29
1615.303	179.89
1618.533	179.92
1621.762	179.81
1624.992	180.22
1628.221	179.66
1631.449	179
1634.678	179.34
1637.906	180.14
1641.134	179.79
1644.361	179.49
1647.588	179.9
1650.815	179.47
1654.042	178.33
1657.269	179.61
1660.495	179.52
1663.72	179.6
1666.946	180.5
1670.171	180.4
1673.396	179.45
1676.621	180.35
1679.845	180.78
1683.069	180.69
1686.293	182.06
1689.517	183.2
1692.74	182.85
1695.963	183.24
1699.185	184.46
1702.408	184.37
1705.63	185.41
1708.852	186.28
1712.073	186.13
1715.294	186.44
1718.515	187.57
1721.736	187.04
1724.956	187.58
1728.176	187.71
1731.396	189.18
1734.616	188.39
1737.835	189.71
1741.054	187.56
1744.272	188.28
1747.491	190.28
1750.709	190.59
1753.927	190.48
1757.144	189.86
1760.361	190.51
1763.578	191.26
1766.795	190.73
1770.011	192.52
1773.227	192.27
1776.443	195.41
1779.658	196.06
1782.874	195.25
1786.089	195.85
1789.303	196.65
1792.518	199.52
1795.732	199.79
1798.945	201.17
1802.159	201.74
1805.372	202.37
1808.585	205.78
1811.797	206.5
1815.01	206.62
1818.222	208.55
1821.434	210.61
1824.645	211.44
1827.856	214.68
1831.067	216.39
1834.278	215.35
1837.488	217.27
1840.698	218.94
1843.908	216.98
1847.117	217.76
1850.326	219.4
1853.535	218.52
1856.744	221.74
1859.952	221.86
1863.16	220.12
1866.368	219.22
1869.575	222.92
1872.782	219.4
1875.989	218.7
1879.196	218.39
1882.402	217.52
1885.608	218.49
1888.814	219.53
1892.019	219.08
1895.224	218.2
1898.429	218.1
1901.634	219.47
1904.838	219.29
1908.042	221.53
1911.246	222.2
1914.449	223.88
1917.652	223.69
1920.855	223.51
1924.058	223.29
1927.26	221.83
1930.462	222.35
1933.664	224.78
1936.865	222.82
1940.066	222.6
1943.267	221.75
1946.467	221.07
1949.668	222.2
1952.868	224.71
1956.067	224.44
1959.267	224.98
1962.466	225.75
1965.665	225.59
1968.863	225.84
1972.061	228.4
1975.259	230.51
1978.457	232.6
1981.654	235.31
1984.852	235.49
1988.048	235.06
1991.245	236.81
1994.441	240.04
1997.637	241.36
2000.833	246.22
2004.028	248.83
2007.223	250.77
2010.418	252.99
2013.613	257.43
2016.807	259.76
2020.001	262.16
2023.194	266.5
2026.388	272.38
2029.581	277.93
2032.774	280.67
2035.966	285.53
2039.158	286.55
2042.35	292.53
2045.542	294.72
2048.733	298.85
2051.924	302.18
2055.115	307.29
2058.306	307.69
2061.496	310.58
2064.686	310.43
2067.875	315.76
2071.065	316.99
2074.254	314.91
2077.442	319.12
2080.631	319.73
2083.819	322.99
2087.007	322.69
2090.195	327.8
2093.382	330.04
2096.569	328.63
2099.756	334.11
2102.942	335.33
2106.128	337.35
2109.314	346.36
2112.5	343.62
2115.685	351.57
2118.87	351.59
2122.055	359.77
2125.239	360.61
2128.424	365.56
2131.608	367.25
2134.791	371.56
2137.974	372.44
2141.157	374.28
2144.34	374.41
2147.523	381.21
2150.705	378.47
2153.887	382.6
2157.068	383.3
2160.25	379.54
2163.431	381.71
2166.611	387.12
2169.792	393.82
2172.972	398.24
2176.152	400.18
2179.331	405.64
2182.511	412.02
2185.69	415.55
2188.868	424.3
2192.047	424.55
2195.225	437.95
2198.403	448.8
2201.58	456.54
2204.758	464.24
2207.935	474
2211.111	483.75
2214.288	488.53
2217.464	489.32
2220.64	499.96
2223.815	505.47
2226.991	527.49
2230.166	527.71
2233.34	535.57
2236.515	545.99
2239.689	547.11
2242.863	549.66
2246.036	564.77
2249.209	561.7
2252.382	570
2255.555	586.19
2258.727	588.31
2261.9	589.93
2265.071	597.09
2268.243	607.05
2271.414	612.77
2274.585	626.8
2277.756	634.01
2280.926	639
2284.096	652.41
2287.266	668.36
2290.436	672.29
2293.605	688.12
2296.774	711.37
2299.942	731.62
2303.111	736.49
2306.279	753.49
2309.447	762.99
2312.614	782.13
2315.781	803.4
2318.948	840.02
2322.115	828.76
2325.281	873.81
2328.447	856.25
2331.613	888.56
2334.779	879.26
2337.944	917.99
2341.109	925.1
2344.274	951.69
2347.438	983.88
2350.602	985.02
2353.766	1016.98
2356.929	1032.55
2360.092	1021.96
2363.255	1096.21
2366.418	1095.45
2369.58	1118.21
2372.742	1185.54
2375.904	1216.59
2379.066	1208
2382.227	1192.29
2385.388	1291.71
2388.548	1289.3
2391.709	1307.15
2394.869	1458.63
2398.029	1401.38
2401.188	1437.22
2404.347	1425.6
2407.506	1404.39
2410.665	1443.53
2413.823	1528.86
2416.981	1615.88
2420.139	1565.37
2423.296	1552.77
2426.453	1610.73
2429.61	1554.53
2432.767	1616.9
2435.923	1601.76
2439.079	1760.28
2442.235	1778.65
2445.391	1763.71
2448.546	1756.22
2451.701	1699.71
2454.855	1694.32
2458.009	1790.7
2461.163	1877.48
2464.317	1944.43
2467.471	1992.79
2470.624	1999.29
2473.777	1941.31
2476.929	1897.85
2480.082	1841.87
2483.234	1816.75
2486.385	1913.02
2489.537	1924.81
2492.688	2003.53
2495.839	1941.01
2498.989	1897.3
2502.14	1915.8
2505.29	1927.68
2508.439	1956.33
2511.589	1948.13
2514.738	2129.61
2517.887	2083.45
2521.035	2201.22
2524.183	2219.92
2527.331	2235.97
2530.479	2226.8
2533.627	2242.16
