Data from C_2_DEC_NC_4N_Splice17_13-28-58-503.txt Node
Date: Sat Mar 07 13:28:58 EST 2020
User: sa697716
Spectrometer: NQ5500242
Trigger mode: 0
Integration Time (sec): 1.450000E-1
Scans to average: 20
Nonlinearity correction enabled: false
Boxcar width: 5
Storing dark spectrum: false
XAxis mode: Wavelengths
Number of Pixels in Spectrum: 512
>>>>>Begin Spectral Data<<<<<
187.83	122.5
188.298	139.66
188.766	123.46
189.233	97.34
189.701	115.95
190.169	119.13
190.636	105.93
191.104	75.68
191.571	-56.76
192.039	-389.59
192.506	-526.5
192.974	114.47
193.441	131.18
193.908	89.12
194.375	35.36
194.842	27.65
195.31	-16.25
195.777	-158.15
196.244	15.74
196.711	39.16
197.177	43.83
197.644	44.6
198.111	44.58
198.578	45.42
199.045	45.81
199.511	46.29
199.978	46.62
200.445	47.14
200.911	46.9
201.378	47.19
201.844	47.21
202.31	46.62
202.777	46.82
203.243	46.77
203.709	46.53
204.176	46.08
204.642	45.57
205.108	45.41
205.574	45.03
206.04	44.53
206.506	44.03
206.972	43.96
207.438	43.56
207.903	42.65
208.369	41.65
208.835	40.52
209.301	39.52
209.766	38.22
210.232	37.11
210.697	35.88
211.163	35.03
211.628	34.24
212.094	33
212.559	32.29
213.024	31.7
213.49	31
213.955	30.38
214.42	29.73
214.885	28.86
215.35	27.75
215.815	26.31
216.28	24.47
216.745	22.22
217.21	20.23
217.675	18.45
218.14	16.77
218.604	15.37
219.069	14.22
219.534	13.19
219.998	12.41
220.463	11.72
220.927	11.05
221.392	10.53
221.856	10.19
222.32	9.83
222.785	9.54
223.249	9.28
223.713	9.05
224.177	8.83
224.642	8.64
225.106	8.42
225.57	8.23
226.034	8.1
226.497	7.97
226.961	7.81
227.425	7.67
227.889	7.53
228.353	7.4
228.816	7.28
229.28	7.15
229.744	7.03
230.207	6.93
230.671	6.81
231.134	6.72
231.597	6.63
232.061	6.55
232.524	6.47
232.987	6.38
233.45	6.31
233.914	6.23
234.377	6.14
234.84	6.06
235.303	6
235.766	5.95
236.229	5.88
236.691	5.81
237.154	5.75
237.617	5.68
238.08	5.62
238.542	5.55
239.005	5.5
239.468	5.46
239.93	5.42
240.393	5.37
240.855	5.31
241.317	5.25
241.78	5.2
242.242	5.13
242.704	5.09
243.166	5.04
243.629	5.01
244.091	4.96
244.553	4.91
245.015	4.85
245.477	4.82
245.939	4.77
246.4	4.73
246.862	4.69
247.324	4.66
247.786	4.62
248.247	4.57
248.709	4.53
249.17	4.48
249.632	4.45
250.093	4.43
250.555	4.38
251.016	4.35
251.477	4.33
251.939	4.31
252.4	4.27
252.861	4.25
253.322	4.23
253.783	4.2
254.244	4.19
254.705	4.15
255.166	4.12
255.627	4.1
256.088	4.09
256.549	4.06
257.009	4.03
257.47	4.01
257.931	3.98
258.391	3.94
258.852	3.92
259.312	3.89
259.773	3.87
260.233	3.85
260.694	3.83
261.154	3.8
261.614	3.78
262.074	3.75
262.534	3.73
262.994	3.71
263.455	3.7
263.915	3.68
264.374	3.66
264.834	3.65
265.294	3.63
265.754	3.61
266.214	3.6
266.673	3.59
267.133	3.58
267.593	3.57
268.052	3.56
268.512	3.55
268.971	3.54
269.431	3.53
269.89	3.53
270.349	3.52
270.809	3.5
271.268	3.5
271.727	3.49
272.186	3.48
272.645	3.48
273.104	3.47
273.563	3.47
274.022	3.46
274.481	3.46
274.94	3.46
275.399	3.45
275.857	3.45
276.316	3.44
276.775	3.44
277.233	3.44
277.692	3.43
278.15	3.43
278.609	3.42
279.067	3.42
279.525	3.42
279.984	3.42
280.442	3.42
280.9	3.42
281.358	3.41
281.816	3.41
282.274	3.41
282.732	3.4
283.19	3.4
283.648	3.39
284.106	3.38
284.564	3.38
285.021	3.38
285.479	3.37
285.937	3.36
286.394	3.37
286.852	3.36
287.309	3.35
287.767	3.35
288.224	3.34
288.682	3.32
289.139	3.31
289.596	3.3
290.053	3.28
290.511	3.27
290.968	3.26
291.425	3.24
291.882	3.24
292.339	3.22
292.796	3.22
293.252	3.21
293.709	3.21
294.166	3.21
294.623	3.21
295.079	3.2
295.536	3.2
295.992	3.2
296.449	3.2
296.905	3.2
297.362	3.19
297.818	3.19
298.274	3.19
298.731	3.18
299.187	3.17
299.643	3.17
300.099	3.17
300.555	3.16
301.011	3.15
301.467	3.15
301.923	3.14
302.379	3.14
302.835	3.14
303.291	3.14
303.746	3.13
304.202	3.13
304.658	3.13
305.113	3.13
305.569	3.13
306.024	3.13
306.479	3.13
306.935	3.12
307.39	3.12
307.845	3.12
308.301	3.13
308.756	3.13
309.211	3.13
309.666	3.14
310.121	3.14
310.576	3.14
311.031	3.14
311.486	3.15
311.94	3.16
312.395	3.16
312.85	3.16
313.305	3.15
313.759	3.15
314.214	3.14
314.668	3.13
315.123	3.13
315.577	3.12
316.032	3.12
316.486	3.11
316.94	3.1
317.394	3.09
317.849	3.07
318.303	3.07
318.757	3.05
319.211	3.04
319.665	3.04
320.119	3.02
320.572	3.01
321.026	3
321.48	2.99
321.934	2.98
322.387	2.98
322.841	2.97
323.295	2.98
323.748	2.98
324.202	2.98
324.655	2.97
325.108	2.97
325.562	2.97
326.015	2.97
326.468	2.97
326.921	2.97
327.374	2.97
327.827	2.98
328.28	2.97
328.733	2.97
329.186	2.96
329.639	2.97
330.092	2.97
330.545	2.97
330.997	2.96
331.45	2.96
331.903	2.97
332.355	2.98
332.808	2.98
333.26	2.98
333.713	2.98
334.165	2.98
334.617	2.98
335.069	2.98
335.522	2.98
335.974	2.99
336.426	2.99
336.878	2.98
337.33	2.97
337.782	2.97
338.234	2.97
338.686	2.97
339.137	2.98
339.589	2.97
340.041	2.97
340.493	2.96
340.944	2.95
341.396	2.94
341.847	2.93
342.299	2.92
342.75	2.91
343.201	2.9
343.653	2.88
344.104	2.86
344.555	2.85
345.006	2.83
345.457	2.82
345.908	2.82
346.359	2.81
346.81	2.81
347.261	2.81
347.712	2.81
348.163	2.8
348.613	2.81
349.064	2.81
349.515	2.81
349.965	2.82
350.416	2.8
350.866	2.8
351.317	2.79
351.767	2.79
352.217	2.79
352.668	2.79
353.118	2.79
353.568	2.78
354.018	2.78
354.468	2.79
354.918	2.78
355.368	2.79
355.818	2.8
356.268	2.8
356.718	2.8
357.168	2.8
357.617	2.8
358.067	2.79
358.517	2.8
358.966	2.8
359.416	2.81
359.865	2.81
360.315	2.81
360.764	2.81
361.213	2.81
361.663	2.8
362.112	2.8
362.561	2.81
363.01	2.81
363.459	2.8
363.908	2.8
364.357	2.8
364.806	2.79
365.255	2.79
365.703	2.8
366.152	2.81
366.601	2.81
367.05	2.83
367.498	2.82
367.947	2.83
368.395	2.84
368.844	2.85
369.292	2.84
369.74	2.85
370.189	2.84
370.637	2.83
371.085	2.82
371.533	2.82
371.981	2.82
372.429	2.81
372.877	2.8
373.325	2.79
373.773	2.77
374.221	2.77
374.669	2.77
375.116	2.76
375.564	2.76
376.012	2.76
376.459	2.76
376.907	2.76
377.354	2.76
377.801	2.77
378.249	2.78
378.696	2.78
379.143	2.79
379.591	2.8
380.038	2.8
380.485	2.8
380.932	2.8
381.379	2.81
381.826	2.81
382.273	2.82
382.72	2.81
383.166	2.8
383.613	2.8
384.06	2.79
384.506	2.79
384.953	2.79
385.4	2.8
385.846	2.81
386.292	2.81
386.739	2.8
387.185	2.8
387.631	2.82
388.078	2.82
388.524	2.83
388.97	2.84
389.416	2.86
389.862	2.87
390.308	2.88
390.754	2.9
391.2	2.92
391.645	2.94
392.091	2.97
392.537	2.98
392.983	3
393.428	3.02
393.874	3.03
394.319	3.05
394.765	3.07
395.21	3.07
395.655	3.09
396.101	3.11
396.546	3.14
396.991	3.16
397.436	3.18
397.881	3.22
398.326	3.25
398.771	3.28
399.216	3.3
399.661	3.33
400.106	3.36
400.551	3.38
400.995	3.39
401.44	3.4
401.885	3.41
402.329	3.43
402.774	3.44
403.218	3.47
403.663	3.49
404.107	3.52
404.551	3.54
404.995	3.56
405.44	3.57
405.884	3.6
406.328	3.62
406.772	3.64
407.216	3.66
407.66	3.68
408.104	3.67
408.547	3.69
408.991	3.71
409.435	3.72
409.879	3.75
410.322	3.78
410.766	3.8
411.209	3.83
411.653	3.86
412.096	3.88
412.54	3.9
412.983	3.94
413.426	3.98
413.869	4
414.312	4.03
414.756	4.05
415.199	4.07
415.642	4.07
416.085	4.09
416.527	4.09
416.97	4.09
417.413	4.09
417.856	4.1
418.298	4.1
418.741	4.11
419.184	4.11
419.626	4.11
420.069	4.12
420.511	4.13
420.953	4.14
421.396	4.16
421.838	4.18
422.28	4.21
422.722	4.23
423.164	4.24
423.606	4.26
424.048	4.26
424.49	4.27
424.932	4.27
425.374	4.26
425.816	4.24
426.258	4.23
426.699	4.21
427.141	4.21
427.582	4.2
428.024	4.21
428.465	4.2
428.907	4.19
429.348	4.18
429.789	4.19
430.231	4.23
430.672	4.25
431.113	4.27
431.554	4.3
431.995	4.31
432.436	4.33
432.877	4.34
433.318	4.36
433.759	4.39
434.2	4.42
434.64	4.44
435.081	4.43
435.522	4.44
435.962	4.46
436.403	4.48
436.843	4.51
437.284	4.51
437.724	4.52
438.164	4.52
438.604	4.54
439.045	4.55
439.485	4.56
439.925	4.59
440.365	4.6
440.805	4.61
441.245	4.62
441.685	4.63
442.125	4.66
442.564	4.68
443.004	4.69
443.444	4.7
443.883	4.72
444.323	4.73
444.762	4.74
445.202	4.75
445.641	4.78
446.081	4.8
446.52	4.81
446.959	4.85
447.398	4.87
447.837	4.89
448.276	4.91
448.716	4.94
449.154	4.96
449.593	4.99
450.032	5.02
450.471	5.02
450.91	5.04
451.349	5.05
451.787	5.04
452.226	5.04
452.664	5.05
453.103	5.06
453.541	5.06
453.98	5.07
454.418	5.06
454.856	5.05
455.295	5.05
455.733	5.04
456.171	5.03
456.609	5.04
457.047	5.03
457.485	5.02
457.923	5.02
458.361	5.01
458.798	5.01
459.236	5.01
459.674	5
460.111	5
460.549	5.01
460.987	5.01
461.424	5.03
461.862	5.03
462.299	5.03
462.736	5.04
463.173	5.05
463.611	5.06
464.048	5.08
464.485	5.09
464.922	5.09
465.359	5.09
465.796	5.11
466.233	5.11
466.67	5.11
467.106	5.11
467.543	5.1
467.98	5.1
468.416	5.1
468.853	5.1
469.29	5.08
469.726	5.08
470.162	5.09
470.599	5.08
471.035	5.07
471.471	5.07
471.907	5.07
472.344	5.08
472.78	5.1
473.216	5.09
473.652	5.08
474.088	5.07
474.523	5.08
474.959	5.09
475.395	5.07
475.831	5.08
476.266	5.09
476.702	5.08
477.138	5.08
477.573	5.08
478.008	5.08
478.444	5.07
478.879	5.09
479.314	5.08
479.75	5.09
480.185	5.08
480.62	5.08
481.055	5.07
481.49	5.07
481.925	5.07
482.36	5.06
482.795	5.05
483.229	5.06
483.664	5.07
484.099	5.07
484.534	5.07
484.968	5.1
485.403	5.1
485.837	5.12
486.271	5.15
486.706	5.17
487.14	5.2
487.574	5.22
488.009	5.25
488.443	5.27
488.877	5.32
489.311	5.35
489.745	5.38
490.179	5.43
490.613	5.47
491.046	5.51
491.48	5.56
491.914	5.61
492.348	5.67
492.781	5.73
493.215	5.79
493.648	5.85
494.082	5.91
494.515	5.97
494.948	6.04
495.382	6.12
495.815	6.21
496.248	6.3
496.681	6.39
497.114	6.49
497.547	6.58
497.98	6.69
498.413	6.79
498.846	6.91
499.279	7.03
499.711	7.14
500.144	7.27
500.577	7.4
501.009	7.52
501.442	7.66
501.874	7.81
502.306	7.96
502.739	8.13
503.171	8.31
503.603	8.48
504.036	8.66
504.468	8.84
504.9	9.02
505.332	9.21
505.764	9.43
506.196	9.63
506.627	9.84
507.059	10.06
507.491	10.27
507.923	10.49
508.354	10.73
508.786	10.98
509.217	11.23
509.649	11.49
510.08	11.76
510.512	12.01
510.943	12.28
511.374	12.55
511.805	12.83
512.237	13.11
512.668	13.39
513.099	13.68
513.53	13.97
513.961	14.26
514.391	14.55
514.822	14.85
515.253	15.14
515.684	15.44
516.114	15.75
516.545	16.04
516.975	16.35
517.406	16.65
517.836	16.95
518.267	17.25
518.697	17.54
519.127	17.81
519.558	18.1
519.988	18.39
520.418	18.67
520.848	18.93
521.278	19.2
521.708	19.64
522.138	19.89
522.567	20.14
522.997	20.39
523.427	20.65
523.857	20.89
524.286	21.12
524.716	21.35
525.145	21.57
525.575	21.79
526.004	22.01
526.433	22.04
526.863	22.24
527.292	22.44
527.721	22.63
528.15	22.79
528.579	22.96
529.008	23.12
529.437	23.26
529.866	23.4
530.295	23.54
530.724	23.66
531.152	23.79
531.581	23.9
532.01	24
532.438	24.08
532.867	24.18
533.295	24.27
533.723	24.35
534.152	24.43
534.58	24.52
535.008	24.58
535.436	24.66
535.865	24.71
536.293	24.79
536.721	24.85
537.149	24.92
537.576	24.96
538.004	25.02
538.432	25.05
538.86	25.1
539.287	25.12
539.715	25.18
540.143	25.2
540.57	25.24
540.998	25.27
541.425	25.29
541.852	25.32
542.28	25.34
542.707	25.35
543.134	25.38
543.561	25.4
543.988	25.43
544.415	25.45
544.842	25.47
545.269	25.48
545.696	25.51
546.123	25.54
546.549	25.56
546.976	25.59
547.403	25.6
547.829	25.61
548.256	25.65
548.682	25.65
549.108	25.67
549.535	25.69
549.961	25.69
550.387	25.68
550.813	25.67
551.24	25.67
551.666	25.67
552.092	25.69
552.518	25.69
552.943	25.66
553.369	25.64
553.795	25.61
554.221	25.58
554.646	25.56
555.072	25.54
555.498	25.51
555.923	25.47
556.349	25.42
556.774	25.35
557.199	25.29
557.625	25.22
558.05	25.18
558.475	25.11
558.9	25.05
559.325	24.98
559.75	24.9
560.175	24.82
560.6	24.74
561.025	24.64
561.449	24.55
561.874	24.44
562.299	24.36
562.723	24.25
563.148	24.13
563.572	23.99
563.997	23.87
564.421	23.73
564.846	23.61
565.27	23.47
565.694	23.35
566.118	23.22
566.542	23.09
566.966	22.93
567.39	22.79
567.814	22.65
568.238	22.52
568.662	22.37
569.086	22.24
569.509	22.1
569.933	21.97
570.357	21.83
570.78	21.69
571.204	21.54
571.627	21.41
572.05	21.26
572.474	21.15
572.897	21.02
573.32	20.9
573.743	20.76
574.166	20.64
574.589	20.51
575.012	20.4
575.435	20.29
575.858	20.18
576.281	20.07
576.704	19.97
577.126	19.86
577.549	19.77
577.972	19.66
578.394	19.58
578.817	19.47
579.239	19.38
579.661	19.28
580.084	19.2
580.506	19.11
580.928	19.03
581.35	18.96
581.772	18.87
582.194	18.78
582.616	18.72
583.038	18.64
583.46	18.58
583.882	18.51
584.303	18.43
584.725	18.36
585.147	18.3
585.568	18.23
585.99	18.17
586.411	18.1
586.833	18.05
587.254	17.97
587.675	17.9
588.096	17.84
588.518	17.77
588.939	17.74
589.36	17.69
589.781	17.63
590.202	17.58
590.623	17.53
591.043	17.49
591.464	17.44
591.885	17.42
592.305	17.37
592.726	17.35
593.147	17.3
593.567	17.25
593.987	17.21
594.408	17.17
594.828	17.13
595.248	17.1
595.669	17.07
596.089	17.03
596.509	16.99
596.929	16.96
597.349	16.91
597.769	16.88
598.189	16.84
598.608	16.82
599.028	16.78
599.448	16.75
599.867	16.7
600.287	16.66
600.706	16.63
601.126	16.59
601.545	16.55
601.965	16.52
602.384	16.48
602.803	16.43
603.222	16.37
603.641	16.31
604.061	16.26
604.48	16.2
604.898	16.13
605.317	16.06
605.736	16
606.155	15.94
606.574	15.86
606.992	15.78
607.411	15.71
607.829	15.61
608.248	15.54
608.666	15.46
609.085	15.39
609.503	15.31
609.921	15.23
610.339	15.14
610.758	15.06
611.176	14.97
611.594	14.9
612.012	14.8
612.43	14.75
612.847	14.66
613.265	14.58
613.683	14.51
614.101	14.43
614.518	14.35
614.936	14.26
615.353	14.17
615.771	14.11
616.188	14.04
616.606	13.97
617.023	13.91
617.44	13.86
617.857	13.79
618.274	13.73
618.691	13.68
619.108	13.62
619.525	13.59
619.942	13.56
620.359	13.52
620.776	13.49
621.192	13.46
621.609	13.43
622.026	13.39
622.442	13.37
622.859	13.35
623.275	13.33
623.691	13.31
624.108	13.28
624.524	13.25
624.94	13.25
625.356	13.24
625.772	13.22
626.188	13.21
626.604	13.19
627.02	13.19
627.436	13.18
627.852	13.17
628.268	13.16
628.683	13.15
629.099	13.15
629.514	13.12
629.93	13.08
630.345	13.06
630.761	13.04
631.176	13
631.591	12.94
632.007	12.9
632.422	12.84
632.837	12.79
633.252	12.73
633.667	12.65
634.082	12.57
634.497	12.49
634.911	12.41
635.326	12.3
635.741	12.22
636.155	12.12
636.57	12.02
636.984	11.91
637.399	11.79
637.813	11.68
638.228	11.55
638.642	11.43
639.056	11.29
639.47	11.17
639.884	11.05
640.298	10.9
640.712	10.77
641.126	10.64
641.54	10.49
641.954	10.34
642.368	10.19
642.781	10.07
643.195	9.94
643.609	9.81
644.022	9.68
644.436	9.55
644.849	9.43
645.262	9.32
645.676	9.2
646.089	9.1
646.502	9.02
646.915	8.95
647.328	8.86
647.741	8.78
648.154	8.7
648.567	8.63
648.98	8.57
649.393	8.51
649.805	8.46
650.218	8.41
650.631	8.36
651.043	8.3
651.456	8.26
651.868	8.21
652.28	8.17
652.693	8.12
653.105	8.09
653.517	8.03
653.929	7.98
654.341	7.93
654.753	7.86
655.165	7.8
655.577	7.73
655.989	7.64
656.401	7.56
656.813	7.49
657.224	7.39
657.636	7.28
658.047	7.19
658.459	7.08
658.87	6.98
659.282	6.88
659.693	6.77
660.104	6.67
660.515	6.57
660.926	6.47
661.338	6.36
661.749	6.27
662.159	6.17
662.57	6.09
662.981	6.01
663.392	5.93
663.803	5.86
664.213	5.78
664.624	5.71
665.035	5.64
665.445	5.59
665.855	5.53
666.266	5.49
666.676	5.45
667.086	5.4
667.497	5.35
667.907	5.31
668.317	5.28
668.727	5.25
669.137	5.22
669.547	5.2
669.956	5.18
670.366	5.18
670.776	5.16
671.186	5.16
671.595	5.16
672.005	5.15
672.414	5.14
672.824	5.14
673.233	5.15
673.642	5.17
674.052	5.17
674.461	5.19
674.87	5.2
675.279	5.23
675.688	5.25
676.097	5.27
676.506	5.31
676.915	5.35
677.323	5.39
677.732	5.43
678.141	5.48
678.549	5.53
678.958	5.58
679.366	5.65
679.775	5.7
680.183	5.79
680.592	5.88
681	5.98
681.408	6.09
681.816	6.21
682.224	6.35
682.632	6.49
683.04	6.66
683.448	6.85
683.856	7.05
684.264	7.28
684.671	7.51
685.079	7.77
685.487	8.04
685.894	8.35
686.302	8.69
686.709	9.05
687.116	9.44
687.524	9.85
687.931	10.28
688.338	10.72
688.745	11.19
689.152	11.68
689.559	12.2
689.966	12.74
690.373	13.29
690.78	13.84
691.187	14.4
691.593	14.96
692	15.53
692.407	16.11
692.813	16.7
693.22	17.29
693.626	17.88
694.032	18.46
694.439	19.05
694.845	19.63
695.251	20.22
695.657	20.78
696.063	21.36
696.469	21.93
696.875	22.5
697.281	23.04
697.687	23.58
698.093	24.11
698.498	24.63
698.904	25.14
699.31	25.64
699.715	26.15
700.12	26.64
700.526	27.12
700.931	27.6
701.337	28.06
701.742	28.51
702.147	28.94
702.552	29.38
702.957	29.79
703.362	30.19
703.767	30.57
704.172	30.92
704.577	31.29
704.981	31.64
705.386	31.97
705.791	32.3
706.195	32.64
706.6	32.98
707.004	33.28
707.408	33.62
707.813	33.95
708.217	34.27
708.621	34.59
709.025	34.86
709.43	35.14
709.834	35.43
710.237	35.7
710.641	35.96
711.045	36.2
711.449	36.49
711.853	36.73
712.256	36.96
712.66	37.18
713.064	37.41
713.467	37.67
713.87	37.91
714.274	38.11
714.677	38.33
715.08	38.54
715.484	38.75
715.887	38.96
716.29	39.14
716.693	39.34
717.096	39.53
717.499	39.7
717.901	39.87
718.304	40.02
718.707	40.19
719.109	40.36
719.512	40.53
719.915	40.7
720.317	40.83
720.719	40.95
721.122	41.08
721.524	41.24
721.926	41.4
722.328	41.56
722.731	41.69
723.133	41.85
723.535	41.99
723.937	42.13
724.338	42.22
724.74	42.35
725.142	42.57
725.544	42.69
725.945	42.82
726.347	42.91
726.748	43
727.15	43.09
727.551	43.18
727.952	43.23
728.354	43.29
728.755	43.38
729.156	43.46
729.557	43.44
729.958	43.49
730.359	43.51
730.76	43.58
731.161	43.64
731.562	43.73
731.962	43.77
732.363	43.83
732.763	43.91
733.164	43.95
733.564	44
733.965	44.04
734.365	44.12
734.766	44.18
735.166	44.2
735.566	44.24
735.966	44.27
736.366	44.31
736.766	44.36
737.166	44.37
737.566	44.43
737.966	44.46
738.365	44.49
738.765	44.51
739.165	44.54
739.564	44.56
739.964	44.6
740.363	44.63
740.763	44.63
741.162	44.65
741.561	44.68
741.96	44.67
742.36	44.7
742.759	44.76
743.158	44.78
743.557	44.78
743.955	44.82
744.354	44.82
744.753	44.83
745.152	44.88
745.55	44.91
745.949	44.93
746.348	44.95
746.746	44.97
747.144	44.98
747.543	44.98
747.941	45.01
748.339	44.99
748.737	44.99
749.136	44.99
749.534	44.97
749.932	44.97
750.33	44.96
750.727	44.95
751.125	44.96
751.523	44.94
751.921	44.97
752.318	44.99
752.716	45.01
753.113	45.03
753.511	45.06
753.908	45.1
754.305	45.11
754.703	45.12
755.1	45.13
755.497	45.12
755.894	45.13
756.291	45.12
756.688	45.1
757.085	45.11
757.482	45.11
757.878	45.09
758.275	45.08
758.672	45.05
759.068	45.06
759.465	45.04
759.861	45.05
760.258	45.04
760.654	45.06
761.05	45.09
761.447	45.1
761.843	45.1
762.239	45.09
762.635	45.07
763.031	45.08
763.427	45.05
763.822	45.06
764.218	45.05
764.614	45.04
765.01	45.01
765.405	44.98
765.801	44.94
766.196	44.94
766.592	44.94
766.987	44.93
767.382	44.92
767.778	44.94
768.173	44.95
768.568	44.95
768.963	44.92
769.358	44.94
769.753	44.96
770.148	45
770.542	44.99
770.937	44.99
771.332	45
771.726	45
772.121	45.01
772.515	45
772.91	45.02
773.304	45.05
773.699	45.03
774.093	45
774.487	44.98
774.881	45.01
775.275	44.99
775.669	44.98
776.063	44.98
776.457	44.97
776.851	44.94
777.245	44.91
777.638	44.89
778.032	44.91
778.425	44.92
778.819	44.92
779.212	44.92
779.606	44.95
779.999	44.95
780.392	44.97
780.786	44.95
781.179	44.97
781.572	45.02
781.965	45.03
782.358	45.03
782.751	45.03
783.143	45.04
783.536	45.03
783.929	45.01
784.322	45.02
784.714	45.02
785.107	45.06
785.499	45.07
785.891	45.06
786.284	45.07
786.676	45.07
787.068	45.07
787.46	45.06
787.852	45.07
788.245	45.08
788.636	45.04
789.028	45.07
789.42	45.02
789.812	45.02
790.204	45
790.595	44.99
790.987	44.99
791.378	45.03
791.77	45.03
792.161	45.02
792.553	45.01
792.944	45.01
793.335	45.02
793.726	45.05
794.117	45.03
794.508	44.99
794.899	44.99
795.29	45.01
795.681	44.95
796.072	44.96
796.463	45
796.853	44.97
797.244	44.98
797.634	44.95
798.025	44.95
798.415	44.92
798.806	44.94
799.196	44.96
799.586	44.95
799.976	44.97
800.366	44.98
800.756	44.95
801.146	44.97
801.536	44.97
801.926	44.97
802.316	44.95
802.706	45
803.095	45.01
803.485	45.01
803.874	45.02
804.264	44.98
804.653	44.96
805.043	44.98
805.432	45
805.821	45
806.21	45.01
806.599	45
806.988	44.99
807.377	44.98
807.766	44.98
808.155	44.94
808.544	44.96
808.933	44.96
809.321	44.93
809.71	44.93
810.098	44.93
810.487	44.89
810.875	44.91
811.264	44.91
811.652	44.92
812.04	44.9
812.428	44.91
812.816	44.89
813.204	44.88
813.592	44.89
813.98	44.89
814.368	44.92
814.756	44.94
815.144	44.95
815.531	44.94
815.919	44.95
816.306	44.95
816.694	44.96
817.081	44.97
817.469	44.99
817.856	45
818.243	44.99
818.63	44.94
819.017	44.94
819.404	44.92
819.791	44.91
820.178	44.91
820.565	44.92
820.952	44.9
821.339	44.88
821.725	44.88
822.112	44.88
822.498	44.9
822.885	44.93
823.271	44.93
823.657	44.92
824.044	44.91
824.43	44.9
824.816	44.88
825.202	44.87
825.588	44.89
825.974	44.88
826.36	44.86
826.746	44.86
827.132	44.84
827.517	44.84
827.903	44.85
828.289	44.87
828.674	44.86
829.06	44.85
829.445	44.85
829.83	44.85
830.216	44.82
830.601	44.81
830.986	44.79
831.371	44.76
831.756	44.76
832.141	44.75
832.526	44.74
832.911	44.76
833.295	44.74
833.68	44.74
834.065	44.74
834.449	44.74
834.834	44.73
835.218	44.71
835.603	44.75
835.987	44.72
836.371	44.7
836.755	44.66
837.139	44.63
837.524	44.64
837.908	44.65
838.291	44.66
838.675	44.67
839.059	44.67
839.443	44.67
839.827	44.64
840.21	44.63
840.594	44.64
840.977	44.66
841.361	44.67
841.744	44.63
842.127	44.59
842.511	44.53
842.894	44.53
843.277	44.51
843.66	44.49
844.043	44.52
844.426	44.53
844.809	44.53
845.191	44.55
845.574	44.55
845.957	44.57
846.339	44.59
846.722	44.62
847.104	44.6
847.487	44.61
847.869	44.6
848.252	44.57
848.634	44.56
849.016	44.56
849.398	44.56
849.78	44.54
850.162	44.52
850.544	44.52
850.926	44.52
851.307	44.52
851.689	44.52
852.071	44.55
852.452	44.55
852.834	44.56
853.215	44.56
853.597	44.55
853.978	44.55
854.359	44.56
854.741	44.54
855.122	44.53
855.503	44.53
855.884	44.5
856.265	44.48
856.646	44.47
857.026	44.46
857.407	44.44
857.788	44.43
858.169	44.43
858.549	44.43
858.93	44.42
859.31	44.44
859.69	44.46
860.071	44.48
860.451	44.48
860.831	44.5
861.211	44.51
861.591	44.49
861.971	44.5
862.351	44.49
862.731	44.51
863.111	44.51
863.491	44.5
863.87	44.48
864.25	44.47
864.629	44.45
865.009	44.44
865.388	44.41
865.768	44.42
866.147	44.41
866.526	44.42
866.905	44.4
867.284	44.42
867.663	44.39
868.042	44.39
868.421	44.41
868.8	44.44
869.179	44.46
869.558	44.5
869.936	44.49
870.315	44.49
870.693	44.48
871.072	44.49
871.45	44.5
871.828	44.53
872.207	44.57
872.585	44.54
872.963	44.52
873.341	44.49
873.719	44.48
874.097	44.46
874.475	44.47
874.853	44.48
875.23	44.49
875.608	44.48
875.986	44.48
876.363	44.46
876.741	44.48
877.118	44.49
877.495	44.5
877.873	44.51
878.25	44.55
878.627	44.55
879.004	44.57
879.381	44.58
879.758	44.56
880.135	44.55
880.512	44.55
880.889	44.54
881.265	44.54
881.642	44.54
882.019	44.55
882.395	44.53
882.772	44.53
883.148	44.5
883.524	44.49
883.901	44.52
884.277	44.51
884.653	44.49
885.029	44.49
885.405	44.48
885.781	44.45
886.157	44.43
886.532	44.43
886.908	44.41
887.284	44.4
887.659	44.38
888.035	44.34
888.411	44.34
888.786	44.34
889.161	44.35
889.537	44.34
889.912	44.34
890.287	44.35
890.662	44.34
891.037	44.34
891.412	44.31
891.787	44.29
892.162	44.28
892.536	44.27
892.911	44.25
893.286	44.23
893.66	44.23
894.035	44.24
894.409	44.21
894.784	44.2
895.158	44.2
895.532	44.24
895.906	44.26
896.281	44.27
896.655	44.27
897.029	44.28
897.402	44.28
897.776	44.28
898.15	44.27
898.524	44.3
898.898	44.31
899.271	44.31
899.645	44.29
900.018	44.3
900.392	44.3
900.765	44.32
901.138	44.33
901.511	44.33
901.884	44.35
902.258	44.36
902.631	44.35
903.003	44.35
903.376	44.34
903.749	44.34
904.122	44.34
904.495	44.36
904.867	44.35
905.24	44.36
905.612	44.39
905.985	44.36
906.357	44.34
906.729	44.36
907.102	44.39
907.474	44.43
907.846	44.45
908.218	44.43
908.59	44.4
908.962	44.43
909.334	44.43
909.705	44.41
910.077	44.44
910.449	44.45
910.82	44.46
911.192	44.45
911.563	44.39
911.935	44.39
912.306	44.4
912.677	44.43
913.048	44.46
913.419	44.45
913.79	44.45
914.161	44.46
914.532	44.46
914.903	44.44
915.274	44.45
915.645	44.48
916.015	44.49
916.386	44.49
916.756	44.47
917.127	44.46
917.497	44.47
917.868	44.5
918.238	44.49
918.608	44.52
918.978	44.54
919.348	44.54
919.718	44.52
920.088	44.53
920.458	44.52
920.828	44.51
921.198	44.47
921.567	44.47
921.937	44.47
922.306	44.43
922.676	44.4
923.045	44.39
923.415	44.39
923.784	44.39
924.153	44.39
924.522	44.4
924.891	44.42
925.26	44.44
925.629	44.4
925.998	44.39
926.367	44.43
926.736	44.43
927.104	44.42
927.473	44.41
927.842	44.39
928.21	44.38
928.578	44.37
928.947	44.37
929.315	44.36
929.683	44.39
930.051	44.38
930.42	44.36
930.788	44.35
931.156	44.36
931.523	44.38
931.891	44.42
932.259	44.43
932.627	44.46
932.994	44.48
933.362	44.48
933.729	44.51
934.097	44.51
934.464	44.54
934.831	44.56
935.199	44.56
935.566	44.54
935.933	44.48
936.3	44.43
936.667	44.4
937.034	44.42
937.401	44.41
937.767	44.36
938.134	44.36
938.501	44.35
938.867	44.38
939.234	44.37
939.6	44.4
939.967	44.44
940.333	44.46
940.699	44.51
941.065	44.44
941.431	44.45
941.798	44.44
942.163	44.44
942.529	44.42
942.895	44.37
943.261	44.37
943.627	44.3
943.992	44.3
944.358	44.34
944.723	44.32
945.089	44.29
945.454	44.35
945.82	44.33
946.185	44.34
946.55	44.24
946.915	44.25
947.28	44.22
947.645	44.27
948.01	44.26
948.375	44.16
948.74	44.06
949.104	44.11
949.469	44.05
949.834	44.01
950.198	43.96
950.562	44
950.927	43.96
951.291	43.89
951.655	43.83
952.02	43.85
952.384	43.88
952.748	43.94
953.112	43.88
953.476	43.82
953.839	43.8
954.203	43.81
954.567	43.82
954.931	43.82
955.294	43.85
955.658	43.9
956.021	43.84
956.385	43.8
956.748	43.75
957.111	43.71
957.474	43.74
957.837	43.68
958.2	43.62
958.563	43.58
958.926	43.58
959.289	43.59
959.652	43.52
960.015	43.53
960.377	43.51
960.74	43.57
961.102	43.63
961.465	43.66
961.827	43.8
962.189	43.85
962.552	43.88
962.914	43.85
963.276	43.84
963.638	43.89
964	43.85
964.362	43.93
964.724	43.85
965.085	43.84
965.447	43.8
965.809	43.71
966.17	43.68
966.532	43.66
966.893	43.71
967.255	43.7
967.616	43.68
967.977	43.72
968.338	43.68
968.699	43.72
969.061	43.67
969.421	43.69
969.782	43.73
970.143	43.7
970.504	43.76
970.865	43.75
971.225	43.77
971.586	43.76
971.946	43.72
972.307	43.73
972.667	43.7
973.027	43.75
973.388	43.78
973.748	43.82
974.108	43.93
974.468	43.9
974.828	43.87
975.188	43.9
975.548	43.89
975.907	43.92
976.267	43.91
976.627	43.99
976.986	43.97
977.346	43.93
977.705	43.84
978.064	43.77
978.424	43.81
978.783	43.82
979.142	43.74
979.501	43.79
979.86	43.84
980.219	43.91
980.578	43.9
980.937	43.95
981.296	43.97
981.654	44.06
982.013	44.1
982.371	44.09
982.73	44.12
983.088	44.16
983.447	44.13
983.805	44.09
984.163	44.03
984.521	43.99
984.879	43.93
985.237	43.92
985.595	43.96
985.953	43.94
986.311	43.91
986.669	43.92
987.026	43.92
987.384	43.97
987.741	43.96
988.099	43.99
988.456	44.04
988.814	44.1
989.171	44.16
989.528	44.05
989.885	44.09
990.242	44.14
990.599	44.14
990.956	44.16
991.313	44.15
991.67	44.17
992.027	44.31
992.383	44.31
992.74	44.37
993.096	44.33
993.453	44.32
993.809	44.24
994.165	44.31
994.522	44.39
994.878	44.39
995.234	44.41
995.59	44.46
995.946	44.33
996.302	44.34
996.658	44.42
997.013	44.43
997.369	44.58
997.725	44.69
998.08	44.65
998.436	44.62
998.791	44.71
999.147	44.73
999.502	44.87
999.857	44.91
1000.212	44.81
1000.567	44.74
1000.922	44.81
1001.277	44.85
1001.632	44.82
1001.987	44.85
1002.342	44.82
1002.696	44.91
1003.051	45.08
1003.406	45.06
1003.76	45.11
1004.114	45.15
1004.469	45.2
1004.823	45.43
1005.177	45.41
1005.531	45.5
1005.885	45.57
1006.239	45.69
1006.593	45.72
1006.947	45.68
1007.301	45.53
1007.655	45.44
1008.008	45.57
1008.362	45.63
1008.715	45.46
1009.069	45.46
1009.422	45.46
1009.776	45.3
1010.129	45.22
1010.482	45.16
1010.835	45.14
1011.188	45.37
1011.541	45.48
1011.894	45.48
1012.247	45.47
1012.6	45.47
1012.952	45.42
1013.305	45.43
1013.657	45.7
1014.01	45.78
1014.362	45.79
1014.715	45.84
1015.067	45.78
1015.419	45.91
1015.771	45.9
1016.123	45.89
1016.475	45.87
1016.827	46
1017.179	46.16
1017.531	46.16
1017.883	46.15
1018.234	46.4
1018.586	46.43
1018.938	46.68
1019.289	46.54
1019.64	46.68
1019.992	46.71
1020.343	46.69
1020.694	46.74
1021.045	46.6
1021.396	46.57
1021.747	46.76
1022.098	46.7
1022.449	46.78
1022.8	46.67
1023.151	46.79
1023.501	46.89
1023.852	46.81
1024.202	46.87
1024.553	46.75
1024.903	47.03
1025.253	47.24
1025.604	47.17
1025.954	46.83
1026.304	46.75
1026.654	46.65
1027.004	46.79
1027.354	46.62
1027.703	46.54
1028.053	46.75
1028.403	47.06
1028.753	46.81
1029.102	46.78
1029.452	46.96
1029.801	47.34
1030.15	47.41
1030.499	47.41
897.758	1405.53
901.051	1412.85
904.343	1410.21
907.636	1432.31
910.928	1394.42
914.22	1395.02
917.511	1374
920.803	1320.67
924.094	1313.31
927.384	1282.27
930.675	1230.77
933.965	1223.55
937.255	1151.47
940.544	1104.83
943.834	1050.34
947.123	1041.87
950.411	979.06
953.7	960.37
956.988	907.23
960.276	870.52
963.563	856.04
966.851	825.04
970.138	817.42
973.424	791.21
976.711	796.62
979.997	757.05
983.283	752.46
986.568	737.57
989.853	714.81
993.138	701.6
996.423	676.57
999.708	656.76
1002.992	648.87
1006.275	619.39
1009.559	614.15
1012.842	591.1
1016.125	575.3
1019.408	564.58
1022.69	556.69
1025.972	545.18
1029.254	532.38
1032.536	521.93
1035.817	510.55
1039.098	503.55
1042.379	493.44
1045.659	488.1
1048.939	475.45
1052.219	467.67
1055.498	459.48
1058.778	448.62
1062.057	437.99
1065.335	432.83
1068.614	428.13
1071.892	424.37
1075.17	411.03
1078.447	402.71
1081.724	400.44
1085.001	396.98
1088.278	388.08
1091.554	380.67
1094.83	381.23
1098.106	378.97
1101.382	375.26
1104.657	372.44
1107.932	365.78
1111.206	367.26
1114.481	358.21
1117.755	353.78
1121.029	351.04
1124.302	351.48
1127.575	344.58
1130.848	339.86
1134.121	336.39
1137.393	334.77
1140.665	326.92
1143.937	325.5
1147.208	323.32
1150.48	322.53
1153.75	318.87
1157.021	314.54
1160.291	313.83
1163.561	310.72
1166.831	311.27
1170.101	308.7
1173.37	307.98
1176.639	309.2
1179.907	306.02
1183.176	302.74
1186.444	302.83
1189.711	301.93
1192.979	301.01
1196.246	298.98
1199.513	299.97
1202.78	297.59
1206.046	297.57
1209.312	294.65
1212.578	294.99
1215.843	297.38
1219.108	295.5
1222.373	301.51
1225.638	303.7
1228.902	308.22
1232.166	307.96
1235.43	311.14
1238.693	315.17
1241.956	316.86
1245.219	321.93
1248.482	321.43
1251.744	321.18
1255.006	322.7
1258.268	314.6
1261.529	311.51
1264.79	308.95
1268.051	307.13
1271.312	302.83
1274.572	298.49
1277.832	295.55
1281.092	290.91
1284.351	289.05
1287.61	288.88
1290.869	284.07
1294.128	282.02
1297.386	282.03
1300.644	279.05
1303.902	280.55
1307.159	279.28
1310.416	279.58
1313.673	279.36
1316.93	281.48
1320.186	281.52
1323.442	281.72
1326.697	287.29
1329.953	288.65
1333.208	289.88
1336.463	293.42
1339.717	293.32
1342.972	296.38
1346.226	299.48
1349.479	299.77
1352.733	301.72
1355.986	303.03
1359.238	303.79
1362.491	305.13
1365.743	307.94
1368.995	307.88
1372.247	308.06
1375.498	308.2
1378.749	311.85
1382	307.7
1385.251	309.15
1388.501	307.32
1391.751	308.97
1395	307.19
1398.25	304.67
1401.499	303.04
1404.748	302.7
1407.996	298.83
1411.244	297.65
1414.492	295.75
1417.74	293.24
1420.987	288.98
1424.234	287.72
1427.481	284.63
1430.728	284.73
1433.974	281.45
1437.22	278.82
1440.465	278.12
1443.711	276.13
1446.956	274.91
1450.201	270.55
1453.445	268.52
1456.689	267.61
1459.933	262.84
1463.177	260.06
1466.42	256.05
1469.663	253.26
1472.906	251.66
1476.148	245.2
1479.391	242.01
1482.633	239.41
1485.874	235.9
1489.115	234.28
1492.356	231.16
1495.597	231.41
1498.838	227.85
1502.078	226.31
1505.318	225.53
1508.557	224.95
1511.797	224.97
1515.036	223.89
1518.274	222.52
1521.513	220.71
1524.751	219.82
1527.989	219.61
1531.227	218.15
1534.464	218.47
1537.701	216.31
1540.938	215.61
1544.174	212.99
1547.41	212.57
1550.646	211.52
1553.882	211.75
1557.117	209.06
1560.352	207.85
1563.587	207.02
1566.821	205.7
1570.055	203.33
1573.289	202.26
1576.523	201.77
1579.756	200.67
1582.989	199.27
1586.222	198.85
1589.454	197.31
1592.686	199.37
1595.918	198.18
1599.15	197.31
1602.381	197.91
1605.612	198.05
1608.843	198.69
1612.073	198.51
1615.303	199.36
1618.533	199.28
1621.762	199.05
1624.992	199.87
1628.221	199.37
1631.449	199.43
1634.678	198.93
1637.906	199.49
1641.134	199.69
1644.361	199.34
1647.588	199.92
1650.815	198.98
1654.042	197.67
1657.269	199.31
1660.495	198.76
1663.72	198.07
1666.946	198.89
1670.171	199.35
1673.396	199.35
1676.621	199.31
1679.845	199.79
1683.069	200.08
1686.293	201.39
1689.517	203.27
1692.74	202.41
1695.963	203.22
1699.185	205.3
1702.408	205.48
1705.63	206.17
1708.852	206.46
1712.073	206.94
1715.294	207.31
1718.515	208.55
1721.736	208.11
1724.956	209.11
1728.176	209.06
1731.396	211.24
1734.616	209.85
1737.835	210.96
1741.054	209.62
1744.272	210.03
1747.491	212
1750.709	212.3
1753.927	211.72
1757.144	211.92
1760.361	212.29
1763.578	212.78
1766.795	211.53
1770.011	214.11
1773.227	213.75
1776.443	216.88
1779.658	217.74
1782.874	217.56
1786.089	218.33
1789.303	219.16
1792.518	221.33
1795.732	221.3
1798.945	223.91
1802.159	224.44
1805.372	224.38
1808.585	228.34
1811.797	228.82
1815.01	229.38
1818.222	230.83
1821.434	232.95
1824.645	233.78
1827.856	237.54
1831.067	239.26
1834.278	238.56
1837.488	240.47
1840.698	242.38
1843.908	240.16
1847.117	241.46
1850.326	243.32
1853.535	243.04
1856.744	246.53
1859.952	246.64
1863.16	245.15
1866.368	243.43
1869.575	246.48
1872.782	242.45
1875.989	242.4
1879.196	241.86
1882.402	240.43
1885.608	241.02
1888.814	241.52
1892.019	241.03
1895.224	240.29
1898.429	239.64
1901.634	241.73
1904.838	241.78
1908.042	245.13
1911.246	245.46
1914.449	247.15
1917.652	247.36
1920.855	247.28
1924.058	247.27
1927.26	245.97
1930.462	246.65
1933.664	249.89
1936.865	247.76
1940.066	247.44
1943.267	245.77
1946.467	245.35
1949.668	247.29
1952.868	250.27
1956.067	250.38
1959.267	250.61
1962.466	251.52
1965.665	250.54
1968.863	250.43
1972.061	253.88
1975.259	255.98
1978.457	258.2
1981.654	260.52
1984.852	260.7
1988.048	259.91
1991.245	261.93
1994.441	265.3
1997.637	266.47
2000.833	272.76
2004.028	275.89
2007.223	276.43
2010.418	278.86
2013.613	284.46
2016.807	287.42
2020.001	289.79
2023.194	294.49
2026.388	301.01
2029.581	306.27
2032.774	310.53
2035.966	315.46
2039.158	315.86
2042.35	323.64
2045.542	326.25
2048.733	330.74
2051.924	335.29
2055.115	340.27
2058.306	340.72
2061.496	345.02
2064.686	345.56
2067.875	350.08
2071.065	351.71
2074.254	350.69
2077.442	353.71
2080.631	355.38
2083.819	358.48
2087.007	358.52
2090.195	363.69
2093.382	366.44
2096.569	363.4
2099.756	368.55
2102.942	370.32
2106.128	373.43
2109.314	381.8
2112.5	381.23
2115.685	389.64
2118.87	390.06
2122.055	398.52
2125.239	401.28
2128.424	406.47
2131.608	409.72
2134.791	416.04
2137.974	416.77
2141.157	418.11
2144.34	419.24
2147.523	426.3
2150.705	422.67
2153.887	426.73
2157.068	426.86
2160.25	422.6
2163.431	425.35
2166.611	429.21
2169.792	437.9
2172.972	442.34
2176.152	444.76
2179.331	450.3
2182.511	456.85
2185.69	462.52
2188.868	472.18
2192.047	472.57
2195.225	485.99
2198.403	498.37
2201.58	508.86
2204.758	517.55
2207.935	529.85
2211.111	539.57
2214.288	546.2
2217.464	547.95
2220.64	556.54
2223.815	564.25
2226.991	588.87
2230.166	590.06
2233.34	599.43
2236.515	609.07
2239.689	609.41
2242.863	613.14
2246.036	631.58
2249.209	625.66
2252.382	638.04
2255.555	656.63
2258.727	658.95
2261.9	660.69
2265.071	668.33
2268.243	679.56
2271.414	687.83
2274.585	703.99
2277.756	711.07
2280.926	714.19
2284.096	732.27
2287.266	745.99
2290.436	752.53
2293.605	769.75
2296.774	794.1
2299.942	819.4
2303.111	823.94
2306.279	843.08
2309.447	854.81
2312.614	875.14
2315.781	899.21
2318.948	944.59
2322.115	931.51
2325.281	980.64
2328.447	959.06
2331.613	1001.54
2334.779	989.37
2337.944	1032.22
2341.109	1041.22
2344.274	1070.88
2347.438	1109.99
2350.602	1111.04
2353.766	1142.05
2356.929	1158.32
2360.092	1152.43
2363.255	1238.49
2366.418	1230.74
2369.58	1255.02
2372.742	1335.98
2375.904	1370.83
2379.066	1359.32
2382.227	1332.68
2385.388	1448.25
2388.548	1447.01
2391.709	1468.75
2394.869	1629.64
2398.029	1566.9
2401.188	1610.51
2404.347	1600.1
2407.506	1569.07
2410.665	1614.16
2413.823	1709.51
2416.981	1813.17
2420.139	1751.77
2423.296	1735.09
2426.453	1805.84
2429.61	1745.47
2432.767	1818.23
2435.923	1803.91
2439.079	1969.64
2442.235	1998.92
2445.391	1979.36
2448.546	1965.7
2451.701	1909.61
2454.855	1907.18
2458.009	2023.79
2461.163	2104.54
2464.317	2178.98
2467.471	2234.01
2470.624	2237.22
2473.777	2178.54
2476.929	2121.28
2480.082	2058.85
2483.234	2037.65
2486.385	2142.05
2489.537	2153.27
2492.688	2232.5
2495.839	2176.94
2498.989	2125.24
2502.14	2136.3
2505.29	2158.92
2508.439	2199.34
2511.589	2192.58
2514.738	2393.87
2517.887	2342.11
2521.035	2478.83
2524.183	2504.74
2527.331	2519.49
2530.479	2508.28
2533.627	2532.35
