Data from C_2_DEC_OH_4N_Splice17_13-05-40-553.txt Node
Date: Sat Mar 07 13:05:40 EST 2020
User: sa697716
Spectrometer: NQ5500242
Trigger mode: 0
Integration Time (sec): 1.450000E-1
Scans to average: 20
Nonlinearity correction enabled: false
Boxcar width: 5
Storing dark spectrum: false
XAxis mode: Wavelengths
Number of Pixels in Spectrum: 512
>>>>>Begin Spectral Data<<<<<
187.83	152.87
188.298	173.53
188.766	148.29
189.233	113.57
189.701	122.84
190.169	146.97
190.636	169.62
191.104	264.22
191.571	315.49
192.039	112.03
192.506	96.81
192.974	34.58
193.441	145.86
193.908	-10.34
194.375	14.16
194.842	18.87
195.31	59.11
195.777	229.02
196.244	43.41
196.711	35.99
197.177	37.51
197.644	37.25
198.111	37.3
198.578	37.65
199.045	38.15
199.511	37.78
199.978	37.46
200.445	37.65
200.911	37.37
201.378	37.61
201.844	37.88
202.31	37.82
202.777	38.04
203.243	37.81
203.709	37.44
204.176	36.94
204.642	36.63
205.108	36.6
205.574	36.21
206.04	35.76
206.506	35.23
206.972	35.07
207.438	34.57
207.903	33.79
208.369	33.15
208.835	32.54
209.301	31.78
209.766	30.58
210.232	29.77
210.697	28.91
211.163	28.3
211.628	27.59
212.094	26.48
212.559	25.89
213.024	25.28
213.49	24.7
213.955	23.85
214.42	23.36
214.885	22.83
215.35	21.84
215.815	20.7
216.28	19.07
216.745	17.23
217.21	15.7
217.675	13.99
218.14	12.59
218.604	11.33
219.069	10.31
219.534	9.46
219.998	8.73
220.463	8.15
220.927	7.56
221.392	7.13
221.856	6.8
222.32	6.47
222.785	6.24
223.249	5.99
223.713	5.81
224.177	5.67
224.642	5.5
225.106	5.34
225.57	5.17
226.034	5.06
226.497	4.96
226.961	4.86
227.425	4.77
227.889	4.66
228.353	4.56
228.816	4.46
229.28	4.35
229.744	4.27
230.207	4.19
230.671	4.12
231.134	4.05
231.597	3.99
232.061	3.92
232.524	3.85
232.987	3.78
233.45	3.73
233.914	3.67
234.377	3.61
234.84	3.55
235.303	3.51
235.766	3.47
236.229	3.41
236.691	3.35
237.154	3.31
237.617	3.28
238.08	3.25
238.542	3.2
239.005	3.18
239.468	3.15
239.93	3.12
240.393	3.1
240.855	3.05
241.317	3.02
241.78	2.99
242.242	2.95
242.704	2.92
243.166	2.89
243.629	2.86
244.091	2.82
244.553	2.79
245.015	2.75
245.477	2.71
245.939	2.67
246.4	2.64
246.862	2.62
247.324	2.6
247.786	2.56
248.247	2.52
248.709	2.48
249.17	2.45
249.632	2.43
250.093	2.41
250.555	2.38
251.016	2.36
251.477	2.33
251.939	2.31
252.4	2.28
252.861	2.26
253.322	2.24
253.783	2.23
254.244	2.21
254.705	2.18
255.166	2.16
255.627	2.14
256.088	2.13
256.549	2.12
257.009	2.09
257.47	2.07
257.931	2.04
258.391	2.01
258.852	1.99
259.312	1.97
259.773	1.95
260.233	1.93
260.694	1.9
261.154	1.88
261.614	1.86
262.074	1.83
262.534	1.81
262.994	1.8
263.455	1.79
263.915	1.77
264.374	1.75
264.834	1.74
265.294	1.72
265.754	1.7
266.214	1.69
266.673	1.68
267.133	1.67
267.593	1.65
268.052	1.64
268.512	1.63
268.971	1.63
269.431	1.62
269.89	1.61
270.349	1.61
270.809	1.6
271.268	1.59
271.727	1.58
272.186	1.58
272.645	1.57
273.104	1.56
273.563	1.56
274.022	1.55
274.481	1.55
274.94	1.55
275.399	1.54
275.857	1.54
276.316	1.53
276.775	1.53
277.233	1.53
277.692	1.53
278.15	1.53
278.609	1.52
279.067	1.52
279.525	1.51
279.984	1.51
280.442	1.5
280.9	1.51
281.358	1.51
281.816	1.51
282.274	1.52
282.732	1.51
283.19	1.51
283.648	1.51
284.106	1.5
284.564	1.51
285.021	1.51
285.479	1.51
285.937	1.51
286.394	1.51
286.852	1.51
287.309	1.5
287.767	1.5
288.224	1.49
288.682	1.49
289.139	1.48
289.596	1.47
290.053	1.45
290.511	1.44
290.968	1.43
291.425	1.41
291.882	1.4
292.339	1.39
292.796	1.39
293.252	1.38
293.709	1.37
294.166	1.37
294.623	1.36
295.079	1.36
295.536	1.35
295.992	1.35
296.449	1.35
296.905	1.35
297.362	1.35
297.818	1.34
298.274	1.34
298.731	1.33
299.187	1.33
299.643	1.32
300.099	1.32
300.555	1.32
301.011	1.32
301.467	1.32
301.923	1.31
302.379	1.32
302.835	1.32
303.291	1.32
303.746	1.32
304.202	1.33
304.658	1.34
305.113	1.34
305.569	1.34
306.024	1.34
306.479	1.33
306.935	1.33
307.39	1.33
307.845	1.33
308.301	1.33
308.756	1.33
309.211	1.33
309.666	1.33
310.121	1.34
310.576	1.34
311.031	1.34
311.486	1.34
311.94	1.35
312.395	1.35
312.85	1.35
313.305	1.35
313.759	1.36
314.214	1.36
314.668	1.35
315.123	1.36
315.577	1.36
316.032	1.36
316.486	1.36
316.94	1.37
317.394	1.37
317.849	1.36
318.303	1.35
318.757	1.34
319.211	1.34
319.665	1.33
320.119	1.33
320.572	1.32
321.026	1.31
321.48	1.31
321.934	1.29
322.387	1.29
322.841	1.29
323.295	1.29
323.748	1.29
324.202	1.29
324.655	1.3
325.108	1.31
325.562	1.31
326.015	1.32
326.468	1.32
326.921	1.33
327.374	1.33
327.827	1.33
328.28	1.33
328.733	1.33
329.186	1.33
329.639	1.33
330.092	1.33
330.545	1.33
330.997	1.32
331.45	1.32
331.903	1.34
332.355	1.35
332.808	1.35
333.26	1.35
333.713	1.34
334.165	1.35
334.617	1.35
335.069	1.35
335.522	1.36
335.974	1.36
336.426	1.36
336.878	1.36
337.33	1.35
337.782	1.36
338.234	1.37
338.686	1.38
339.137	1.39
339.589	1.38
340.041	1.38
340.493	1.37
340.944	1.37
341.396	1.37
341.847	1.36
342.299	1.34
342.75	1.33
343.201	1.32
343.653	1.32
344.104	1.3
344.555	1.29
345.006	1.29
345.457	1.28
345.908	1.28
346.359	1.28
346.81	1.28
347.261	1.28
347.712	1.28
348.163	1.27
348.613	1.28
349.064	1.28
349.515	1.28
349.965	1.28
350.416	1.28
350.866	1.28
351.317	1.27
351.767	1.27
352.217	1.27
352.668	1.27
353.118	1.27
353.568	1.27
354.018	1.27
354.468	1.28
354.918	1.28
355.368	1.29
355.818	1.29
356.268	1.3
356.718	1.31
357.168	1.31
357.617	1.3
358.067	1.3
358.517	1.31
358.966	1.32
359.416	1.33
359.865	1.33
360.315	1.33
360.764	1.33
361.213	1.33
361.663	1.31
362.112	1.32
362.561	1.34
363.01	1.34
363.459	1.33
363.908	1.32
364.357	1.32
364.806	1.31
365.255	1.31
365.703	1.32
366.152	1.32
366.601	1.34
367.05	1.33
367.498	1.32
367.947	1.33
368.395	1.33
368.844	1.34
369.292	1.33
369.74	1.34
370.189	1.34
370.637	1.33
371.085	1.32
371.533	1.32
371.981	1.32
372.429	1.32
372.877	1.32
373.325	1.32
373.773	1.32
374.221	1.31
374.669	1.31
375.116	1.31
375.564	1.3
376.012	1.31
376.459	1.31
376.907	1.31
377.354	1.31
377.801	1.32
378.249	1.32
378.696	1.32
379.143	1.32
379.591	1.33
380.038	1.33
380.485	1.33
380.932	1.34
381.379	1.34
381.826	1.34
382.273	1.33
382.72	1.32
383.166	1.32
383.613	1.31
384.06	1.3
384.506	1.3
384.953	1.29
385.4	1.29
385.846	1.3
386.292	1.29
386.739	1.29
387.185	1.28
387.631	1.3
388.078	1.3
388.524	1.3
388.97	1.3
389.416	1.31
389.862	1.32
390.308	1.33
390.754	1.34
391.2	1.34
391.645	1.35
392.091	1.38
392.537	1.39
392.983	1.39
393.428	1.41
393.874	1.42
394.319	1.43
394.765	1.44
395.21	1.44
395.655	1.45
396.101	1.46
396.546	1.46
396.991	1.46
397.436	1.46
397.881	1.48
398.326	1.49
398.771	1.5
399.216	1.5
399.661	1.52
400.106	1.53
400.551	1.53
400.995	1.54
401.44	1.55
401.885	1.56
402.329	1.59
402.774	1.59
403.218	1.62
403.663	1.63
404.107	1.65
404.551	1.66
404.995	1.67
405.44	1.68
405.884	1.69
406.328	1.71
406.772	1.72
407.216	1.72
407.66	1.73
408.104	1.73
408.547	1.75
408.991	1.76
409.435	1.76
409.879	1.78
410.322	1.8
410.766	1.83
411.209	1.85
411.653	1.87
412.096	1.89
412.54	1.9
412.983	1.91
413.426	1.95
413.869	1.97
414.312	2
414.756	2.01
415.199	2.02
415.642	2.03
416.085	2.04
416.527	2.04
416.97	2.04
417.413	2.06
417.856	2.06
418.298	2.05
418.741	2.05
419.184	2.06
419.626	2.05
420.069	2.06
420.511	2.07
420.953	2.07
421.396	2.08
421.838	2.09
422.28	2.1
422.722	2.13
423.164	2.14
423.606	2.14
424.048	2.14
424.49	2.15
424.932	2.16
425.374	2.14
425.816	2.13
426.258	2.13
426.699	2.13
427.141	2.13
427.582	2.13
428.024	2.14
428.465	2.15
428.907	2.15
429.348	2.15
429.789	2.15
430.231	2.18
430.672	2.21
431.113	2.25
431.554	2.27
431.995	2.29
432.436	2.3
432.877	2.31
433.318	2.33
433.759	2.37
434.2	2.39
434.64	2.42
435.081	2.43
435.522	2.43
435.962	2.44
436.403	2.48
436.843	2.5
437.284	2.5
437.724	2.53
438.164	2.52
438.604	2.53
439.045	2.54
439.485	2.54
439.925	2.55
440.365	2.57
440.805	2.57
441.245	2.57
441.685	2.58
442.125	2.61
442.564	2.62
443.004	2.63
443.444	2.63
443.883	2.66
444.323	2.65
444.762	2.66
445.202	2.67
445.641	2.7
446.081	2.71
446.52	2.72
446.959	2.74
447.398	2.76
447.837	2.77
448.276	2.79
448.716	2.8
449.154	2.82
449.593	2.83
450.032	2.83
450.471	2.82
450.91	2.81
451.349	2.82
451.787	2.8
452.226	2.79
452.664	2.79
453.103	2.77
453.541	2.77
453.98	2.77
454.418	2.76
454.856	2.77
455.295	2.76
455.733	2.75
456.171	2.73
456.609	2.73
457.047	2.74
457.485	2.74
457.923	2.75
458.361	2.74
458.798	2.75
459.236	2.74
459.674	2.74
460.111	2.75
460.549	2.77
460.987	2.79
461.424	2.8
461.862	2.82
462.299	2.83
462.736	2.83
463.173	2.84
463.611	2.86
464.048	2.89
464.485	2.91
464.922	2.91
465.359	2.92
465.796	2.95
466.233	2.96
466.67	2.97
467.106	2.98
467.543	2.99
467.98	2.99
468.416	2.97
468.853	2.97
469.29	2.96
469.726	2.97
470.162	2.96
470.599	2.94
471.035	2.93
471.471	2.93
471.907	2.91
472.344	2.91
472.78	2.92
473.216	2.92
473.652	2.93
474.088	2.92
474.523	2.93
474.959	2.93
475.395	2.94
475.831	2.93
476.266	2.95
476.702	2.95
477.138	2.95
477.573	2.96
478.008	2.96
478.444	2.95
478.879	2.96
479.314	2.97
479.75	2.96
480.185	2.94
480.62	2.94
481.055	2.93
481.49	2.92
481.925	2.92
482.36	2.92
482.795	2.92
483.229	2.92
483.664	2.93
484.099	2.92
484.534	2.93
484.968	2.94
485.403	2.95
485.837	2.96
486.271	2.97
486.706	2.98
487.14	2.98
487.574	2.99
488.009	3.01
488.443	3.02
488.877	3.05
489.311	3.07
489.745	3.09
490.179	3.12
490.613	3.14
491.046	3.16
491.48	3.18
491.914	3.22
492.348	3.25
492.781	3.28
493.215	3.31
493.648	3.34
494.082	3.37
494.515	3.4
494.948	3.43
495.382	3.47
495.815	3.51
496.248	3.56
496.681	3.6
497.114	3.64
497.547	3.69
497.98	3.74
498.413	3.79
498.846	3.83
499.279	3.88
499.711	3.92
500.144	3.97
500.577	4.03
501.009	4.08
501.442	4.14
501.874	4.2
502.306	4.25
502.739	4.32
503.171	4.38
503.603	4.44
504.036	4.51
504.468	4.59
504.9	4.64
505.332	4.7
505.764	4.77
506.196	4.83
506.627	4.9
507.059	4.96
507.491	5.01
507.923	5.08
508.354	5.15
508.786	5.22
509.217	5.29
509.649	5.36
510.08	5.43
510.512	5.5
510.943	5.57
511.374	5.64
511.805	5.71
512.237	5.78
512.668	5.85
513.099	5.92
513.53	5.98
513.961	6.05
514.391	6.13
514.822	6.21
515.253	6.27
515.684	6.34
516.114	6.4
516.545	6.47
516.975	6.53
517.406	6.6
517.836	6.65
518.267	6.71
518.697	6.76
519.127	6.8
519.558	6.83
519.988	6.87
520.418	6.92
520.848	6.95
521.278	6.99
521.708	7.21
522.138	7.25
522.567	7.29
522.997	7.32
523.427	7.37
523.857	7.4
524.286	7.44
524.716	7.47
525.145	7.5
525.575	7.54
526.004	7.57
526.433	7.41
526.863	7.42
527.292	7.44
527.721	7.46
528.15	7.47
528.579	7.49
529.008	7.52
529.437	7.53
529.866	7.53
530.295	7.54
530.724	7.55
531.152	7.57
531.581	7.59
532.01	7.6
532.438	7.61
532.867	7.62
533.295	7.61
533.723	7.61
534.152	7.62
534.58	7.63
535.008	7.63
535.436	7.64
535.865	7.64
536.293	7.63
536.721	7.64
537.149	7.65
537.576	7.66
538.004	7.67
538.432	7.67
538.86	7.68
539.287	7.69
539.715	7.7
540.143	7.7
540.57	7.7
540.998	7.71
541.425	7.73
541.852	7.73
542.28	7.73
542.707	7.73
543.134	7.74
543.561	7.75
543.988	7.75
544.415	7.75
544.842	7.76
545.269	7.77
545.696	7.78
546.123	7.78
546.549	7.78
546.976	7.79
547.403	7.82
547.829	7.82
548.256	7.84
548.682	7.86
549.108	7.88
549.535	7.9
549.961	7.9
550.387	7.92
550.813	7.93
551.24	7.94
551.666	7.96
552.092	7.98
552.518	8
552.943	8.01
553.369	8.03
553.795	8.02
554.221	8.04
554.646	8.05
555.072	8.05
555.498	8.07
555.923	8.08
556.349	8.09
556.774	8.09
557.199	8.1
557.625	8.12
558.05	8.14
558.475	8.15
558.9	8.16
559.325	8.19
559.75	8.21
560.175	8.22
560.6	8.24
561.025	8.25
561.449	8.25
561.874	8.26
562.299	8.27
562.723	8.27
563.148	8.28
563.572	8.28
563.997	8.28
564.421	8.28
564.846	8.28
565.27	8.29
565.694	8.3
566.118	8.31
566.542	8.32
566.966	8.33
567.39	8.33
567.814	8.34
568.238	8.36
568.662	8.36
569.086	8.38
569.509	8.4
569.933	8.4
570.357	8.41
570.78	8.42
571.204	8.42
571.627	8.43
572.05	8.44
572.474	8.45
572.897	8.46
573.32	8.49
573.743	8.49
574.166	8.5
574.589	8.51
575.012	8.53
575.435	8.55
575.858	8.57
576.281	8.59
576.704	8.6
577.126	8.63
577.549	8.65
577.972	8.65
578.394	8.68
578.817	8.71
579.239	8.74
579.661	8.75
580.084	8.78
580.506	8.8
580.928	8.82
581.35	8.83
581.772	8.84
582.194	8.87
582.616	8.9
583.038	8.92
583.46	8.92
583.882	8.95
584.303	8.96
584.725	8.98
585.147	9.01
585.568	9.05
585.99	9.08
586.411	9.11
586.833	9.13
587.254	9.16
587.675	9.18
588.096	9.22
588.518	9.24
588.939	9.29
589.36	9.32
589.781	9.35
590.202	9.38
590.623	9.41
591.043	9.44
591.464	9.49
591.885	9.51
592.305	9.55
592.726	9.59
593.147	9.62
593.567	9.66
593.987	9.7
594.408	9.73
594.828	9.76
595.248	9.82
595.669	9.86
596.089	9.89
596.509	9.95
596.929	9.99
597.349	10.03
597.769	10.08
598.189	10.12
598.608	10.17
599.028	10.22
599.448	10.27
599.867	10.31
600.287	10.36
600.706	10.41
601.126	10.46
601.545	10.51
601.965	10.58
602.384	10.63
602.803	10.68
603.222	10.73
603.641	10.78
604.061	10.84
604.48	10.89
604.898	10.94
605.317	10.99
605.736	11.04
606.155	11.09
606.574	11.13
606.992	11.18
607.411	11.23
607.829	11.25
608.248	11.28
608.666	11.32
609.085	11.39
609.503	11.44
609.921	11.48
610.339	11.53
610.758	11.57
611.176	11.61
611.594	11.66
612.012	11.69
612.43	11.74
612.847	11.8
613.265	11.84
613.683	11.87
614.101	11.89
614.518	11.93
614.936	11.96
615.353	11.99
615.771	12.02
616.188	12.06
616.606	12.09
617.023	12.13
617.44	12.18
617.857	12.22
618.274	12.25
618.691	12.29
619.108	12.33
619.525	12.39
619.942	12.45
620.359	12.5
620.776	12.55
621.192	12.61
621.609	12.66
622.026	12.71
622.442	12.77
622.859	12.82
623.275	12.88
623.691	12.94
624.108	12.99
624.524	13.05
624.94	13.12
625.356	13.17
625.772	13.22
626.188	13.28
626.604	13.35
627.02	13.41
627.436	13.46
627.852	13.53
628.268	13.59
628.683	13.65
629.099	13.69
629.514	13.74
629.93	13.78
630.345	13.82
630.761	13.85
631.176	13.86
631.591	13.87
632.007	13.87
632.422	13.86
632.837	13.85
633.252	13.82
633.667	13.79
634.082	13.73
634.497	13.69
634.911	13.63
635.326	13.56
635.741	13.49
636.155	13.4
636.57	13.32
636.984	13.23
637.399	13.12
637.813	13
638.228	12.87
638.642	12.74
639.056	12.59
639.47	12.46
639.884	12.33
640.298	12.18
640.712	12.03
641.126	11.88
641.54	11.71
641.954	11.56
642.368	11.41
642.781	11.28
643.195	11.13
643.609	11
644.022	10.87
644.436	10.74
644.849	10.6
645.262	10.48
645.676	10.37
646.089	10.27
646.502	10.17
646.915	10.09
647.328	9.99
647.741	9.93
648.154	9.86
648.567	9.79
648.98	9.73
649.393	9.69
649.805	9.66
650.218	9.62
650.631	9.59
651.043	9.57
651.456	9.55
651.868	9.51
652.28	9.47
652.693	9.45
653.105	9.43
653.517	9.39
653.929	9.37
654.341	9.3
654.753	9.26
655.165	9.21
655.577	9.15
655.989	9.07
656.401	9
656.813	8.94
657.224	8.84
657.636	8.74
658.047	8.65
658.459	8.54
658.87	8.44
659.282	8.33
659.693	8.21
660.104	8.08
660.515	7.96
660.926	7.85
661.338	7.71
661.749	7.59
662.159	7.47
662.57	7.35
662.981	7.24
663.392	7.12
663.803	7.02
664.213	6.9
664.624	6.78
665.035	6.69
665.445	6.59
665.855	6.5
666.266	6.41
666.676	6.34
667.086	6.25
667.497	6.17
667.907	6.1
668.317	6.03
668.727	5.97
669.137	5.92
669.547	5.87
669.956	5.82
670.366	5.78
670.776	5.74
671.186	5.7
671.595	5.68
672.005	5.65
672.414	5.63
672.824	5.62
673.233	5.61
673.642	5.61
674.052	5.6
674.461	5.6
674.87	5.61
675.279	5.63
675.688	5.65
676.097	5.68
676.506	5.71
676.915	5.75
677.323	5.8
677.732	5.84
678.141	5.91
678.549	6
678.958	6.1
679.366	6.22
679.775	6.34
680.183	6.49
680.592	6.67
681	6.88
681.408	7.09
681.816	7.35
682.224	7.63
682.632	7.94
683.04	8.27
683.448	8.64
683.856	9.03
684.264	9.47
684.671	9.93
685.079	10.42
685.487	10.95
685.894	11.52
686.302	12.12
686.709	12.74
687.116	13.38
687.524	14.05
687.931	14.75
688.338	15.46
688.745	16.18
689.152	16.9
689.559	17.66
689.966	18.41
690.373	19.16
690.78	19.91
691.187	20.64
691.593	21.38
692	22.12
692.407	22.79
692.813	23.51
693.22	24.2
693.626	24.9
694.032	25.56
694.439	26.19
694.845	26.8
695.251	27.42
695.657	28.01
696.063	28.6
696.469	29.15
696.875	29.72
697.281	30.24
697.687	30.77
698.093	31.25
698.498	31.74
698.904	32.2
699.31	32.65
699.715	33.09
700.12	33.51
700.526	33.89
700.931	34.28
701.337	34.67
701.742	35.03
702.147	35.36
702.552	35.69
702.957	35.98
703.362	36.29
703.767	36.57
704.172	36.85
704.577	37.1
704.981	37.38
705.386	37.63
705.791	37.88
706.195	38.12
706.6	38.36
707.004	38.55
707.408	38.79
707.813	39.02
708.217	39.23
708.621	39.44
709.025	39.64
709.43	39.82
709.834	40.04
710.237	40.21
710.641	40.37
711.045	40.54
711.449	40.73
711.853	40.92
712.256	41.06
712.66	41.2
713.064	41.36
713.467	41.5
713.87	41.64
714.274	41.75
714.677	41.9
715.08	42.04
715.484	42.19
715.887	42.35
716.29	42.44
716.693	42.55
717.096	42.67
717.499	42.79
717.901	42.89
718.304	43
718.707	43.12
719.109	43.22
719.512	43.31
719.915	43.39
720.317	43.45
720.719	43.53
721.122	43.62
721.524	43.71
721.926	43.78
722.328	43.87
722.731	43.93
723.133	43.99
723.535	44.07
723.937	44.16
724.338	44.23
724.74	44.3
725.142	44.49
725.544	44.55
725.945	44.66
726.347	44.74
726.748	44.81
727.15	44.85
727.551	44.93
727.952	44.98
728.354	45.02
728.755	45.06
729.156	45.1
729.557	45.03
729.958	45.05
730.359	45.07
730.76	45.11
731.161	45.16
731.562	45.23
731.962	45.25
732.363	45.3
732.763	45.33
733.164	45.37
733.564	45.43
733.965	45.48
734.365	45.53
734.766	45.56
735.166	45.58
735.566	45.6
735.966	45.63
736.366	45.64
736.766	45.64
737.166	45.68
737.566	45.71
737.966	45.71
738.365	45.74
738.765	45.75
739.165	45.76
739.564	45.8
739.964	45.82
740.363	45.82
740.763	45.85
741.162	45.89
741.561	45.88
741.96	45.92
742.36	45.94
742.759	45.96
743.158	45.97
743.557	45.98
743.955	45.98
744.354	45.98
744.753	46.01
745.152	46.02
745.55	46.04
745.949	46.08
746.348	46.09
746.746	46.09
747.144	46.1
747.543	46.12
747.941	46.15
748.339	46.16
748.737	46.2
749.136	46.19
749.534	46.19
749.932	46.18
750.33	46.16
750.727	46.17
751.125	46.18
751.523	46.17
751.921	46.2
752.318	46.19
752.716	46.19
753.113	46.19
753.511	46.21
753.908	46.27
754.305	46.3
754.703	46.29
755.1	46.29
755.497	46.3
755.894	46.31
756.291	46.3
756.688	46.3
757.085	46.33
757.482	46.33
757.878	46.32
758.275	46.3
758.672	46.29
759.068	46.33
759.465	46.32
759.861	46.33
760.258	46.32
760.654	46.32
761.05	46.32
761.447	46.31
761.843	46.32
762.239	46.33
762.635	46.33
763.031	46.34
763.427	46.32
763.822	46.32
764.218	46.31
764.614	46.32
765.01	46.31
765.405	46.3
765.801	46.29
766.196	46.28
766.592	46.27
766.987	46.26
767.382	46.23
767.778	46.25
768.173	46.25
768.568	46.25
768.963	46.23
769.358	46.23
769.753	46.24
770.148	46.26
770.542	46.25
770.937	46.26
771.332	46.26
771.726	46.27
772.121	46.25
772.515	46.26
772.91	46.25
773.304	46.28
773.699	46.28
774.093	46.26
774.487	46.26
774.881	46.3
775.275	46.26
775.669	46.25
776.063	46.25
776.457	46.26
776.851	46.25
777.245	46.21
777.638	46.18
778.032	46.2
778.425	46.23
778.819	46.23
779.212	46.22
779.606	46.24
779.999	46.24
780.392	46.26
780.786	46.24
781.179	46.26
781.572	46.33
781.965	46.36
782.358	46.34
782.751	46.3
783.143	46.31
783.536	46.28
783.929	46.26
784.322	46.28
784.714	46.28
785.107	46.3
785.499	46.3
785.891	46.3
786.284	46.29
786.676	46.3
787.068	46.32
787.46	46.33
787.852	46.33
788.245	46.35
788.636	46.33
789.028	46.31
789.42	46.29
789.812	46.3
790.204	46.28
790.595	46.29
790.987	46.28
791.378	46.3
791.77	46.28
792.161	46.28
792.553	46.28
792.944	46.27
793.335	46.28
793.726	46.29
794.117	46.26
794.508	46.25
794.899	46.25
795.29	46.26
795.681	46.24
796.072	46.24
796.463	46.27
796.853	46.26
797.244	46.23
797.634	46.22
798.025	46.23
798.415	46.22
798.806	46.22
799.196	46.19
799.586	46.19
799.976	46.19
800.366	46.2
800.756	46.17
801.146	46.15
801.536	46.17
801.926	46.15
802.316	46.14
802.706	46.15
803.095	46.14
803.485	46.14
803.874	46.14
804.264	46.13
804.653	46.1
805.043	46.09
805.432	46.1
805.821	46.11
806.21	46.08
806.599	46.05
806.988	46.04
807.377	46.01
807.766	45.99
808.155	45.94
808.544	45.94
808.933	45.92
809.321	45.89
809.71	45.87
810.098	45.84
810.487	45.84
810.875	45.84
811.264	45.84
811.652	45.86
812.04	45.86
812.428	45.89
812.816	45.87
813.204	45.86
813.592	45.86
813.98	45.88
814.368	45.89
814.756	45.88
815.144	45.86
815.531	45.84
815.919	45.82
816.306	45.8
816.694	45.78
817.081	45.77
817.469	45.79
817.856	45.77
818.243	45.73
818.63	45.7
819.017	45.7
819.404	45.71
819.791	45.68
820.178	45.68
820.565	45.66
820.952	45.64
821.339	45.63
821.725	45.62
822.112	45.63
822.498	45.63
822.885	45.65
823.271	45.63
823.657	45.57
824.044	45.59
824.43	45.6
824.816	45.62
825.202	45.62
825.588	45.6
825.974	45.58
826.36	45.59
826.746	45.56
827.132	45.56
827.517	45.57
827.903	45.61
828.289	45.62
828.674	45.6
829.06	45.58
829.445	45.56
829.83	45.56
830.216	45.57
830.601	45.54
830.986	45.55
831.371	45.52
831.756	45.52
832.141	45.48
832.526	45.45
832.911	45.44
833.295	45.43
833.68	45.42
834.065	45.41
834.449	45.37
834.834	45.35
835.218	45.35
835.603	45.36
835.987	45.33
836.371	45.34
836.755	45.33
837.139	45.32
837.524	45.34
837.908	45.35
838.291	45.36
838.675	45.36
839.059	45.37
839.443	45.33
839.827	45.3
840.21	45.28
840.594	45.27
840.977	45.26
841.361	45.26
841.744	45.23
842.127	45.2
842.511	45.18
842.894	45.17
843.277	45.16
843.66	45.14
844.043	45.18
844.426	45.19
844.809	45.18
845.191	45.18
845.574	45.19
845.957	45.21
846.339	45.21
846.722	45.2
847.104	45.23
847.487	45.23
847.869	45.25
848.252	45.24
848.634	45.24
849.016	45.23
849.398	45.25
849.78	45.23
850.162	45.21
850.544	45.22
850.926	45.22
851.307	45.18
851.689	45.16
852.071	45.15
852.452	45.14
852.834	45.14
853.215	45.15
853.597	45.14
853.978	45.13
854.359	45.12
854.741	45.1
855.122	45.07
855.503	45.06
855.884	45.04
856.265	45.05
856.646	45.02
857.026	45.03
857.407	45.01
857.788	44.98
858.169	44.98
858.549	44.97
858.93	44.98
859.31	45.01
859.69	45.03
860.071	45.05
860.451	45.04
860.831	45.04
861.211	44.99
861.591	45
861.971	44.99
862.351	45.01
862.731	45.01
863.111	44.97
863.491	44.95
863.87	44.92
864.25	44.9
864.629	44.9
865.009	44.9
865.388	44.92
865.768	44.9
866.147	44.89
866.526	44.87
866.905	44.87
867.284	44.88
867.663	44.87
868.042	44.91
868.421	44.92
868.8	44.93
869.179	44.94
869.558	44.93
869.936	44.93
870.315	44.92
870.693	44.93
871.072	44.95
871.45	44.95
871.828	44.97
872.207	44.97
872.585	44.94
872.963	44.93
873.341	44.91
873.719	44.93
874.097	44.91
874.475	44.9
874.853	44.89
875.23	44.88
875.608	44.86
875.986	44.88
876.363	44.86
876.741	44.87
877.118	44.88
877.495	44.88
877.873	44.88
878.25	44.92
878.627	44.93
879.004	44.93
879.381	44.94
879.758	44.95
880.135	44.92
880.512	44.92
880.889	44.91
881.265	44.88
881.642	44.89
882.019	44.89
882.395	44.88
882.772	44.9
883.148	44.87
883.524	44.86
883.901	44.86
884.277	44.85
884.653	44.83
885.029	44.83
885.405	44.84
885.781	44.85
886.157	44.84
886.532	44.82
886.908	44.8
887.284	44.8
887.659	44.78
888.035	44.78
888.411	44.78
888.786	44.77
889.161	44.76
889.537	44.75
889.912	44.73
890.287	44.71
890.662	44.7
891.037	44.68
891.412	44.67
891.787	44.65
892.162	44.63
892.536	44.62
892.911	44.6
893.286	44.58
893.66	44.58
894.035	44.58
894.409	44.58
894.784	44.58
895.158	44.58
895.532	44.6
895.906	44.6
896.281	44.6
896.655	44.59
897.029	44.62
897.402	44.62
897.776	44.61
898.15	44.6
898.524	44.6
898.898	44.6
899.271	44.62
899.645	44.62
900.018	44.64
900.392	44.66
900.765	44.67
901.138	44.67
901.511	44.68
901.884	44.7
902.258	44.72
902.631	44.71
903.003	44.74
903.376	44.74
903.749	44.71
904.122	44.72
904.495	44.74
904.867	44.76
905.24	44.76
905.612	44.77
905.985	44.76
906.357	44.74
906.729	44.75
907.102	44.75
907.474	44.74
907.846	44.76
908.218	44.75
908.59	44.72
908.962	44.73
909.334	44.71
909.705	44.71
910.077	44.72
910.449	44.75
910.82	44.74
911.192	44.75
911.563	44.76
911.935	44.74
912.306	44.76
912.677	44.77
913.048	44.75
913.419	44.74
913.79	44.74
914.161	44.75
914.532	44.74
914.903	44.75
915.274	44.74
915.645	44.74
916.015	44.77
916.386	44.77
916.756	44.76
917.127	44.79
917.497	44.79
917.868	44.8
918.238	44.8
918.608	44.82
918.978	44.8
919.348	44.79
919.718	44.75
920.088	44.76
920.458	44.77
920.828	44.78
921.198	44.74
921.567	44.77
921.937	44.78
922.306	44.73
922.676	44.7
923.045	44.69
923.415	44.68
923.784	44.68
924.153	44.68
924.522	44.66
924.891	44.64
925.26	44.65
925.629	44.64
925.998	44.61
926.367	44.61
926.736	44.62
927.104	44.64
927.473	44.63
927.842	44.63
928.21	44.6
928.578	44.6
928.947	44.63
929.315	44.61
929.683	44.59
930.051	44.58
930.42	44.59
930.788	44.52
931.156	44.5
931.523	44.52
931.891	44.56
932.259	44.58
932.627	44.54
932.994	44.55
933.362	44.53
933.729	44.55
934.097	44.56
934.464	44.55
934.831	44.6
935.199	44.62
935.566	44.6
935.933	44.54
936.3	44.52
936.667	44.48
937.034	44.46
937.401	44.47
937.767	44.45
938.134	44.42
938.501	44.43
938.867	44.43
939.234	44.36
939.6	44.33
939.967	44.31
940.333	44.23
940.699	44.22
941.065	44.09
941.431	44.01
941.798	43.9
942.163	43.85
942.529	43.76
942.895	43.69
943.261	43.63
943.627	43.56
943.992	43.52
944.358	43.57
944.723	43.59
945.089	43.53
945.454	43.53
945.82	43.51
946.185	43.48
946.55	43.42
946.915	43.42
947.28	43.41
947.645	43.44
948.01	43.42
948.375	43.36
948.74	43.3
949.104	43.36
949.469	43.33
949.834	43.34
950.198	43.35
950.562	43.38
950.927	43.35
951.291	43.29
951.655	43.24
952.02	43.29
952.384	43.26
952.748	43.32
953.112	43.29
953.476	43.27
953.839	43.23
954.203	43.24
954.567	43.26
954.931	43.29
955.294	43.35
955.658	43.41
956.021	43.38
956.385	43.4
956.748	43.35
957.111	43.35
957.474	43.39
957.837	43.4
958.2	43.35
958.563	43.32
958.926	43.3
959.289	43.33
959.652	43.33
960.015	43.32
960.377	43.31
960.74	43.35
961.102	43.36
961.465	43.43
961.827	43.54
962.189	43.62
962.552	43.67
962.914	43.65
963.276	43.66
963.638	43.66
964	43.69
964.362	43.76
964.724	43.77
965.085	43.77
965.447	43.72
965.809	43.67
966.17	43.62
966.532	43.61
966.893	43.65
967.255	43.67
967.616	43.69
967.977	43.72
968.338	43.71
968.699	43.73
969.061	43.74
969.421	43.77
969.782	43.8
970.143	43.83
970.504	43.85
970.865	43.93
971.225	43.91
971.586	43.94
971.946	43.93
972.307	43.91
972.667	43.9
973.027	43.95
973.388	43.98
973.748	44.01
974.108	44.03
974.468	44.01
974.828	44
975.188	44.02
975.548	44
975.907	44.06
976.267	44.06
976.627	44.13
976.986	44.09
977.346	44.05
977.705	44.01
978.064	44.03
978.424	44.1
978.783	44.03
979.142	43.97
979.501	44.04
979.86	44.02
980.219	44.02
980.578	44
980.937	44.04
981.296	44.07
981.654	44.13
982.013	44.13
982.371	44.11
982.73	44.19
983.088	44.26
983.447	44.23
983.805	44.26
984.163	44.26
984.521	44.26
984.879	44.22
985.237	44.27
985.595	44.29
985.953	44.25
986.311	44.19
986.669	44.17
987.026	44.15
987.384	44.16
987.741	44.12
988.099	44.19
988.456	44.12
988.814	44.18
989.171	44.12
989.528	44.07
989.885	44.11
990.242	44.13
990.599	44.17
990.956	44.13
991.313	44.09
991.67	44.14
992.027	44.21
992.383	44.28
992.74	44.32
993.096	44.32
993.453	44.36
993.809	44.36
994.165	44.45
994.522	44.49
994.878	44.57
995.234	44.6
995.59	44.6
995.946	44.53
996.302	44.64
996.658	44.64
997.013	44.66
997.369	44.61
997.725	44.65
998.08	44.67
998.436	44.7
998.791	44.68
999.147	44.61
999.502	44.63
999.857	44.62
1000.212	44.51
1000.567	44.48
1000.922	44.39
1001.277	44.49
1001.632	44.44
1001.987	44.36
1002.342	44.23
1002.696	44.3
1003.051	44.57
1003.406	44.66
1003.76	44.68
1004.114	44.68
1004.469	44.75
1004.823	45.09
1005.177	45.05
1005.531	45.1
1005.885	45.24
1006.239	45.35
1006.593	45.36
1006.947	45.24
1007.301	45.16
1007.655	45.06
1008.008	45.07
1008.362	45.08
1008.715	44.78
1009.069	44.82
1009.422	44.86
1009.776	44.79
1010.129	44.78
1010.482	44.7
1010.835	44.72
1011.188	44.8
1011.541	44.89
1011.894	45.05
1012.247	45.04
1012.6	45.18
1012.952	45.19
1013.305	45.17
1013.657	45.31
1014.01	45.37
1014.362	45.48
1014.715	45.51
1015.067	45.46
1015.419	45.56
1015.771	45.17
1016.123	45.25
1016.475	45.24
1016.827	45.23
1017.179	45.16
1017.531	45.1
1017.883	44.81
1018.234	45.02
1018.586	45.09
1018.938	45.19
1019.289	45.02
1019.64	45.41
1019.992	45.23
1020.343	45.11
1020.694	45.11
1021.045	45.19
1021.396	45.14
1021.747	45.57
1022.098	45.32
1022.449	45.14
1022.8	45.21
1023.151	45.28
1023.501	45.2
1023.852	45.5
1024.202	45.71
1024.553	45.67
1024.903	45.84
1025.253	45.97
1025.604	45.77
1025.954	45.61
1026.304	45.65
1026.654	45.53
1027.004	45.43
1027.354	45.54
1027.703	45.29
1028.053	45.36
1028.403	45.47
1028.753	44.96
1029.102	44.98
1029.452	45.1
1029.801	45.41
1030.15	45.44
1030.499	45.33
897.758	1242.09
901.051	1253.54
904.343	1248.19
907.636	1274
910.928	1240.9
914.22	1242.72
917.511	1225.39
920.803	1173.01
924.094	1166.06
927.384	1137.73
930.675	1096.54
933.965	1090.71
937.255	1025.94
940.544	986.52
943.834	941.42
947.123	933.33
950.411	876.24
953.7	859.03
956.988	812.53
960.276	780.35
963.563	767.46
966.851	739.61
970.138	732.88
973.424	709.36
976.711	713.14
979.997	674.19
983.283	669.51
986.568	656.2
989.853	637.68
993.138	626.3
996.423	601.66
999.708	584.54
1002.992	577.13
1006.275	550.81
1009.559	546.39
1012.842	526.02
1016.125	512.86
1019.408	504.57
1022.69	496.71
1025.972	485.9
1029.254	473.59
1032.536	466.58
1035.817	457.12
1039.098	452.43
1042.379	443.31
1045.659	438.4
1048.939	427.76
1052.219	419.48
1055.498	412.92
1058.778	403.27
1062.057	394.32
1065.335	390.63
1068.614	386.03
1071.892	382.19
1075.17	368.96
1078.447	362.18
1081.724	358.96
1085.001	357.73
1088.278	348.72
1091.554	342.56
1094.83	342.85
1098.106	340.11
1101.382	337.28
1104.657	335.02
1107.932	329.11
1111.206	330.92
1114.481	324.2
1117.755	320.7
1121.029	316.46
1124.302	317.82
1127.575	310.07
1130.848	306.47
1134.121	303.19
1137.393	301.4
1140.665	294.1
1143.937	292.6
1147.208	291.07
1150.48	289.14
1153.75	285.63
1157.021	281.51
1160.291	280.94
1163.561	278.51
1166.831	279.14
1170.101	276.73
1173.37	275.79
1176.639	277.04
1179.907	274.26
1183.176	270.35
1186.444	270.38
1189.711	270.19
1192.979	269.73
1196.246	267.89
1199.513	268.91
1202.78	266.05
1206.046	266.24
1209.312	264.25
1212.578	264.01
1215.843	266.97
1219.108	265.47
1222.373	270.57
1225.638	272.53
1228.902	276.38
1232.166	276.82
1235.43	278.98
1238.693	283.05
1241.956	284.24
1245.219	288.39
1248.482	289.36
1251.744	287.8
1255.006	289.93
1258.268	282.07
1261.529	279.58
1264.79	278
1268.051	277.05
1271.312	272.78
1274.572	270.2
1277.832	267.72
1281.092	263.47
1284.351	260.87
1287.61	260.92
1290.869	257.14
1294.128	256.35
1297.386	255.89
1300.644	252.56
1303.902	252.27
1307.159	252.2
1310.416	252
1313.673	251.67
1316.93	253.35
1320.186	253.43
1323.442	253.85
1326.697	257.88
1329.953	258.75
1333.208	259.28
1336.463	262.65
1339.717	263.31
1342.972	266.18
1346.226	268.78
1349.479	269.31
1352.733	270.63
1355.986	273.63
1359.238	273.77
1362.491	274.68
1365.743	277.11
1368.995	277.53
1372.247	276.46
1375.498	276.5
1378.749	278.49
1382	274.75
1385.251	275.44
1388.501	273.95
1391.751	272.71
1395	272.06
1398.25	269.74
1401.499	267.8
1404.748	267.33
1407.996	265.68
1411.244	264.06
1414.492	262.68
1417.74	260.26
1420.987	256.14
1424.234	255.81
1427.481	252.77
1430.728	252.14
1433.974	250.46
1437.22	248.41
1440.465	247.68
1443.711	245.39
1446.956	243.26
1450.201	240.1
1453.445	237.79
1456.689	237.35
1459.933	233.37
1463.177	231.18
1466.42	227.07
1469.663	223.78
1472.906	222.5
1476.148	216.51
1479.391	214.13
1482.633	212.75
1485.874	209.07
1489.115	207.32
1492.356	205.26
1495.597	204.66
1498.838	201.54
1502.078	200.76
1505.318	200
1508.557	199.44
1511.797	199.48
1515.036	197.85
1518.274	197.58
1521.513	195.9
1524.751	195.59
1527.989	194.34
1531.227	193.23
1534.464	193.75
1537.701	191.98
1540.938	191.33
1544.174	189.9
1547.41	189.55
1550.646	188.33
1553.882	187.63
1557.117	185.71
1560.352	184.93
1563.587	184.21
1566.821	183.02
1570.055	181.47
1573.289	180.1
1576.523	179.95
1579.756	177.86
1582.989	176.11
1586.222	176.44
1589.454	175.48
1592.686	176.55
1595.918	175.58
1599.15	175.52
1602.381	175.88
1605.612	175.51
1608.843	176.31
1612.073	175.62
1615.303	176.85
1618.533	177.19
1621.762	177.33
1624.992	177.29
1628.221	176.96
1631.449	176.82
1634.678	175.85
1637.906	176.99
1641.134	176.61
1644.361	176.39
1647.588	177.08
1650.815	176.17
1654.042	175.77
1657.269	176.12
1660.495	176.38
1663.72	176.44
1666.946	176.85
1670.171	177.81
1673.396	176.62
1676.621	177.62
1679.845	177.42
1683.069	177.69
1686.293	178.97
1689.517	179.88
1692.74	179.66
1695.963	179.84
1699.185	181.08
1702.408	181.07
1705.63	182.07
1708.852	182.77
1712.073	182.38
1715.294	183.28
1718.515	184.22
1721.736	183.68
1724.956	183.96
1728.176	184.14
1731.396	185.71
1734.616	184.79
1737.835	186
1741.054	184.03
1744.272	185.09
1747.491	186.9
1750.709	187.2
1753.927	186.72
1757.144	186.58
1760.361	187.55
1763.578	188.35
1766.795	187.65
1770.011	189.51
1773.227	189.02
1776.443	191.72
1779.658	192.2
1782.874	191.39
1786.089	192.33
1789.303	193.25
1792.518	195.2
1795.732	195.38
1798.945	196.38
1802.159	197.13
1805.372	197.28
1808.585	200.63
1811.797	201.52
1815.01	201.94
1818.222	204.14
1821.434	205.33
1824.645	206
1827.856	209.79
1831.067	211.17
1834.278	210.86
1837.488	213.03
1840.698	214.5
1843.908	212.78
1847.117	213.56
1850.326	214.97
1853.535	214.45
1856.744	217.89
1859.952	217.58
1863.16	215.93
1866.368	215.05
1869.575	217.78
1872.782	214.32
1875.989	213.9
1879.196	213.37
1882.402	212.27
1885.608	213.28
1888.814	213.66
1892.019	213.15
1895.224	212.79
1898.429	211.81
1901.634	213.24
1904.838	213.74
1908.042	215.75
1911.246	216.59
1914.449	218.38
1917.652	218.74
1920.855	218.36
1924.058	218.04
1927.26	216.98
1930.462	218.29
1933.664	220.8
1936.865	218.7
1940.066	218.9
1943.267	217.83
1946.467	217.66
1949.668	218.88
1952.868	220.92
1956.067	220.67
1959.267	222.22
1962.466	222.97
1965.665	221.74
1968.863	222.13
1972.061	225.5
1975.259	226.92
1978.457	229.02
1981.654	229.97
1984.852	230.36
1988.048	230.35
1991.245	232.41
1994.441	234.59
1997.637	235.87
2000.833	240.3
2004.028	243.9
2007.223	245.56
2010.418	247.56
2013.613	251.47
2016.807	254.95
2020.001	257.23
2023.194	260.98
2026.388	266.98
2029.581	272.69
2032.774	275.02
2035.966	280.02
2039.158	280.65
2042.35	285.69
2045.542	287.07
2048.733	292.03
2051.924	296.19
2055.115	301.25
2058.306	302.16
2061.496	304.09
2064.686	304.16
2067.875	309.81
2071.065	311.29
2074.254	309.3
2077.442	312.31
2080.631	315.02
2083.819	317.68
2087.007	317.57
2090.195	321.03
2093.382	323.95
2096.569	322.61
2099.756	326.71
2102.942	327.89
2106.128	330.6
2109.314	338.2
2112.5	337.18
2115.685	343.77
2118.87	344.1
2122.055	350.55
2125.239	352.65
2128.424	356.27
2131.608	359.38
2134.791	363.87
2137.974	365.52
2141.157	366.28
2144.34	367.59
2147.523	373.93
2150.705	371.03
2153.887	375.25
2157.068	376.21
2160.25	373.93
2163.431	374.83
2166.611	379.27
2169.792	386.44
2172.972	390.5
2176.152	392.68
2179.331	397.44
2182.511	403.88
2185.69	407.37
2188.868	416.13
2192.047	418.18
2195.225	429.72
2198.403	441.28
2201.58	449.67
2204.758	457.14
2207.935	467.17
2211.111	477.73
2214.288	482.75
2217.464	483.02
2220.64	494.3
2223.815	500.39
2226.991	518.64
2230.166	518.71
2233.34	527.81
2236.515	535.89
2239.689	538.6
2242.863	542.27
2246.036	557.31
2249.209	553.66
2252.382	564.09
2255.555	579.83
2258.727	580.79
2261.9	586.72
2265.071	593.81
2268.243	603.57
2271.414	611.23
2274.585	624.78
2277.756	628.8
2280.926	634.97
2284.096	649.84
2287.266	664.77
2290.436	668.37
2293.605	683.61
2296.774	702.6
2299.942	723.31
2303.111	728.07
2306.279	743.29
2309.447	753.62
2312.614	773.94
2315.781	791.5
2318.948	828.9
2322.115	816.31
2325.281	859.91
2328.447	844.06
2331.613	880.12
2334.779	870.36
2337.944	905.94
2341.109	916.52
2344.274	942.44
2347.438	977.99
2350.602	977.42
2353.766	1009.3
2356.929	1024.26
2360.092	1017.03
2363.255	1089.33
2366.418	1086.27
2369.58	1109.04
2372.742	1179.15
2375.904	1208.27
2379.066	1199.56
2382.227	1174.69
2385.388	1277.5
2388.548	1274.93
2391.709	1290.96
2394.869	1441.69
2398.029	1377.11
2401.188	1414.86
2404.347	1408.55
2407.506	1388.53
2410.665	1425.65
2413.823	1511.03
2416.981	1602.32
2420.139	1549.04
2423.296	1535.31
2426.453	1601.58
2429.61	1538.46
2432.767	1614
2435.923	1597.2
2439.079	1743.94
2442.235	1764.31
2445.391	1750.59
2448.546	1737.22
2451.701	1683.14
2454.855	1681.96
2458.009	1781.84
2461.163	1861.58
2464.317	1929.12
2467.471	1976.49
2470.624	1984.42
2473.777	1929.73
2476.929	1880.33
2480.082	1826.04
2483.234	1807.72
2486.385	1899.79
2489.537	1907.51
2492.688	1976.86
2495.839	1919.59
2498.989	1877.87
2502.14	1890.58
2505.29	1901.62
2508.439	1934.11
2511.589	1930.48
2514.738	2105.26
2517.887	2058.59
2521.035	2173.05
2524.183	2196.37
2527.331	2212.28
2530.479	2197.78
2533.627	2215.12
