Data from C_2_DEC_VA_2N_Splice17_13-08-35-665.txt Node
Date: Sat Mar 07 13:08:35 EST 2020
User: sa697716
Spectrometer: NQ5500242
Trigger mode: 0
Integration Time (sec): 1.450000E-1
Scans to average: 20
Nonlinearity correction enabled: false
Boxcar width: 5
Storing dark spectrum: false
XAxis mode: Wavelengths
Number of Pixels in Spectrum: 512
>>>>>Begin Spectral Data<<<<<
187.83	210.13
188.298	240.54
188.766	208.42
189.233	183.47
189.701	181.01
190.169	208.08
190.636	214.43
191.104	238.76
191.571	15.28
192.039	-68.58
192.506	-832.18
192.974	171.72
193.441	238.1
193.908	53.82
194.375	98.87
194.842	23.09
195.31	3.19
195.777	-72.33
196.244	27.02
196.711	31.98
197.177	34.49
197.644	33.8
198.111	34.21
198.578	34.83
199.045	35.37
199.511	35.45
199.978	35.76
200.445	36.2
200.911	35.91
201.378	35.64
201.844	35.64
202.31	35.34
202.777	35.28
203.243	35.31
203.709	35.03
204.176	34.64
204.642	34.4
205.108	34.04
205.574	33.7
206.04	33.56
206.506	33.59
206.972	33.66
207.438	33.48
207.903	33.11
208.369	32.28
208.835	31.66
209.301	31.09
209.766	29.81
210.232	29.14
210.697	28.14
211.163	27.2
211.628	26.48
212.094	25.72
212.559	25.42
213.024	24.75
213.49	24.25
213.955	23.81
214.42	23.34
214.885	23.04
215.35	22.29
215.815	21.49
216.28	20.27
216.745	18.72
217.21	17.27
217.675	15.73
218.14	14.62
218.604	13.62
219.069	12.8
219.534	12.11
219.998	11.53
220.463	11.06
220.927	10.65
221.392	10.34
221.856	10.11
222.32	9.88
222.785	9.71
223.249	9.51
223.713	9.37
224.177	9.24
224.642	9.11
225.106	8.95
225.57	8.8
226.034	8.68
226.497	8.57
226.961	8.43
227.425	8.32
227.889	8.21
228.353	8.12
228.816	8.01
229.28	7.9
229.744	7.8
230.207	7.7
230.671	7.61
231.134	7.51
231.597	7.44
232.061	7.36
232.524	7.27
232.987	7.19
233.45	7.13
233.914	7.05
234.377	6.97
234.84	6.89
235.303	6.85
235.766	6.8
236.229	6.74
236.691	6.67
237.154	6.6
237.617	6.56
238.08	6.5
238.542	6.43
239.005	6.38
239.468	6.32
239.93	6.27
240.393	6.23
240.855	6.16
241.317	6.11
241.78	6.05
242.242	6
242.704	5.96
243.166	5.91
243.629	5.87
244.091	5.82
244.553	5.78
245.015	5.73
245.477	5.68
245.939	5.64
246.4	5.6
246.862	5.56
247.324	5.52
247.786	5.48
248.247	5.43
248.709	5.37
249.17	5.34
249.632	5.32
250.093	5.28
250.555	5.25
251.016	5.2
251.477	5.17
251.939	5.13
252.4	5.11
252.861	5.08
253.322	5.06
253.783	5.02
254.244	5
254.705	4.96
255.166	4.93
255.627	4.9
256.088	4.88
256.549	4.86
257.009	4.84
257.47	4.81
257.931	4.77
258.391	4.74
258.852	4.71
259.312	4.68
259.773	4.65
260.233	4.64
260.694	4.62
261.154	4.59
261.614	4.56
262.074	4.53
262.534	4.5
262.994	4.48
263.455	4.46
263.915	4.44
264.374	4.42
264.834	4.4
265.294	4.37
265.754	4.35
266.214	4.34
266.673	4.33
267.133	4.31
267.593	4.31
268.052	4.29
268.512	4.28
268.971	4.27
269.431	4.26
269.89	4.24
270.349	4.24
270.809	4.22
271.268	4.21
271.727	4.19
272.186	4.18
272.645	4.17
273.104	4.15
273.563	4.14
274.022	4.13
274.481	4.12
274.94	4.11
275.399	4.1
275.857	4.09
276.316	4.08
276.775	4.07
277.233	4.06
277.692	4.06
278.15	4.05
278.609	4.04
279.067	4.03
279.525	4.02
279.984	4.01
280.442	4
280.9	3.99
281.358	3.98
281.816	3.98
282.274	3.97
282.732	3.96
283.19	3.95
283.648	3.95
284.106	3.94
284.564	3.93
285.021	3.93
285.479	3.92
285.937	3.91
286.394	3.91
286.852	3.9
287.309	3.89
287.767	3.88
288.224	3.87
288.682	3.86
289.139	3.85
289.596	3.83
290.053	3.81
290.511	3.8
290.968	3.78
291.425	3.77
291.882	3.76
292.339	3.74
292.796	3.73
293.252	3.71
293.709	3.7
294.166	3.7
294.623	3.69
295.079	3.68
295.536	3.68
295.992	3.68
296.449	3.67
296.905	3.67
297.362	3.67
297.818	3.66
298.274	3.66
298.731	3.65
299.187	3.64
299.643	3.64
300.099	3.63
300.555	3.62
301.011	3.62
301.467	3.62
301.923	3.6
302.379	3.6
302.835	3.6
303.291	3.59
303.746	3.58
304.202	3.58
304.658	3.58
305.113	3.58
305.569	3.58
306.024	3.57
306.479	3.57
306.935	3.57
307.39	3.56
307.845	3.56
308.301	3.56
308.756	3.56
309.211	3.56
309.666	3.57
310.121	3.57
310.576	3.57
311.031	3.57
311.486	3.57
311.94	3.57
312.395	3.57
312.85	3.57
313.305	3.57
313.759	3.57
314.214	3.56
314.668	3.55
315.123	3.55
315.577	3.55
316.032	3.55
316.486	3.55
316.94	3.55
317.394	3.53
317.849	3.53
318.303	3.52
318.757	3.51
319.211	3.51
319.665	3.49
320.119	3.48
320.572	3.46
321.026	3.46
321.48	3.45
321.934	3.44
322.387	3.43
322.841	3.43
323.295	3.44
323.748	3.43
324.202	3.43
324.655	3.43
325.108	3.44
325.562	3.45
326.015	3.44
326.468	3.45
326.921	3.44
327.374	3.44
327.827	3.44
328.28	3.42
328.733	3.42
329.186	3.42
329.639	3.42
330.092	3.42
330.545	3.4
330.997	3.4
331.45	3.39
331.903	3.4
332.355	3.4
332.808	3.4
333.26	3.39
333.713	3.39
334.165	3.39
334.617	3.39
335.069	3.38
335.522	3.38
335.974	3.38
336.426	3.38
336.878	3.37
337.33	3.38
337.782	3.38
338.234	3.38
338.686	3.38
339.137	3.38
339.589	3.37
340.041	3.37
340.493	3.37
340.944	3.35
341.396	3.36
341.847	3.36
342.299	3.35
342.75	3.34
343.201	3.33
343.653	3.33
344.104	3.31
344.555	3.31
345.006	3.3
345.457	3.3
345.908	3.3
346.359	3.3
346.81	3.3
347.261	3.3
347.712	3.3
348.163	3.29
348.613	3.29
349.064	3.3
349.515	3.3
349.965	3.3
350.416	3.3
350.866	3.3
351.317	3.29
351.767	3.29
352.217	3.3
352.668	3.3
353.118	3.31
353.568	3.3
354.018	3.31
354.468	3.33
354.918	3.33
355.368	3.34
355.818	3.35
356.268	3.35
356.718	3.36
357.168	3.36
357.617	3.37
358.067	3.37
358.517	3.39
358.966	3.39
359.416	3.4
359.865	3.4
360.315	3.42
360.764	3.42
361.213	3.43
361.663	3.43
362.112	3.44
362.561	3.46
363.01	3.46
363.459	3.47
363.908	3.47
364.357	3.48
364.806	3.49
365.255	3.5
365.703	3.51
366.152	3.53
366.601	3.55
367.05	3.56
367.498	3.56
367.947	3.58
368.395	3.6
368.844	3.62
369.292	3.63
369.74	3.66
370.189	3.67
370.637	3.69
371.085	3.7
371.533	3.72
371.981	3.74
372.429	3.76
372.877	3.78
373.325	3.8
373.773	3.81
374.221	3.83
374.669	3.85
375.116	3.85
375.564	3.87
376.012	3.89
376.459	3.9
376.907	3.93
377.354	3.96
377.801	3.99
378.249	4.01
378.696	4.03
379.143	4.06
379.591	4.09
380.038	4.12
380.485	4.14
380.932	4.16
381.379	4.19
381.826	4.21
382.273	4.23
382.72	4.24
383.166	4.25
383.613	4.29
384.06	4.3
384.506	4.32
384.953	4.35
385.4	4.37
385.846	4.41
386.292	4.42
386.739	4.44
387.185	4.46
387.631	4.48
388.078	4.52
388.524	4.54
388.97	4.57
389.416	4.59
389.862	4.62
390.308	4.65
390.754	4.69
391.2	4.71
391.645	4.75
392.091	4.79
392.537	4.82
392.983	4.84
393.428	4.87
393.874	4.9
394.319	4.93
394.765	4.96
395.21	4.97
395.655	4.98
396.101	5.01
396.546	5.02
396.991	5.03
397.436	5.05
397.881	5.08
398.326	5.1
398.771	5.12
399.216	5.12
399.661	5.14
400.106	5.14
400.551	5.15
400.995	5.14
401.44	5.16
401.885	5.17
402.329	5.18
402.774	5.17
403.218	5.19
403.663	5.18
404.107	5.18
404.551	5.18
404.995	5.18
405.44	5.17
405.884	5.18
406.328	5.17
406.772	5.16
407.216	5.15
407.66	5.14
408.104	5.11
408.547	5.11
408.991	5.12
409.435	5.11
409.879	5.11
410.322	5.12
410.766	5.13
411.209	5.15
411.653	5.17
412.096	5.18
412.54	5.18
412.983	5.18
413.426	5.21
413.869	5.21
414.312	5.23
414.756	5.24
415.199	5.24
415.642	5.26
416.085	5.25
416.527	5.23
416.97	5.22
417.413	5.22
417.856	5.23
418.298	5.22
418.741	5.2
419.184	5.19
419.626	5.19
420.069	5.19
420.511	5.18
420.953	5.18
421.396	5.19
421.838	5.18
422.28	5.2
422.722	5.21
423.164	5.2
423.606	5.2
424.048	5.2
424.49	5.18
424.932	5.17
425.374	5.15
425.816	5.11
426.258	5.08
426.699	5.07
427.141	5.04
427.582	5.05
428.024	5.05
428.465	5.03
428.907	5.02
429.348	5
429.789	4.99
430.231	5
430.672	5.03
431.113	5.03
431.554	5.04
431.995	5.05
432.436	5.04
432.877	5.04
433.318	5.06
433.759	5.08
434.2	5.1
434.64	5.12
435.081	5.12
435.522	5.12
435.962	5.14
436.403	5.15
436.843	5.18
437.284	5.18
437.724	5.19
438.164	5.19
438.604	5.19
439.045	5.2
439.485	5.21
439.925	5.22
440.365	5.23
440.805	5.23
441.245	5.25
441.685	5.26
442.125	5.3
442.564	5.32
443.004	5.34
443.444	5.37
443.883	5.39
444.323	5.41
444.762	5.43
445.202	5.43
445.641	5.47
446.081	5.51
446.52	5.51
446.959	5.53
447.398	5.56
447.837	5.56
448.276	5.58
448.716	5.61
449.154	5.64
449.593	5.66
450.032	5.69
450.471	5.68
450.91	5.68
451.349	5.71
451.787	5.72
452.226	5.71
452.664	5.72
453.103	5.72
453.541	5.72
453.98	5.73
454.418	5.72
454.856	5.72
455.295	5.72
455.733	5.72
456.171	5.71
456.609	5.71
457.047	5.7
457.485	5.69
457.923	5.69
458.361	5.68
458.798	5.68
459.236	5.68
459.674	5.68
460.111	5.68
460.549	5.69
460.987	5.69
461.424	5.69
461.862	5.7
462.299	5.73
462.736	5.73
463.173	5.73
463.611	5.73
464.048	5.74
464.485	5.75
464.922	5.75
465.359	5.76
465.796	5.77
466.233	5.78
466.67	5.78
467.106	5.78
467.543	5.77
467.98	5.77
468.416	5.75
468.853	5.74
469.29	5.73
469.726	5.72
470.162	5.72
470.599	5.71
471.035	5.7
471.471	5.69
471.907	5.69
472.344	5.69
472.78	5.7
473.216	5.71
473.652	5.71
474.088	5.7
474.523	5.72
474.959	5.71
475.395	5.69
475.831	5.7
476.266	5.7
476.702	5.7
477.138	5.69
477.573	5.7
478.008	5.7
478.444	5.69
478.879	5.7
479.314	5.68
479.75	5.68
480.185	5.68
480.62	5.67
481.055	5.66
481.49	5.66
481.925	5.66
482.36	5.66
482.795	5.66
483.229	5.67
483.664	5.68
484.099	5.69
484.534	5.7
484.968	5.72
485.403	5.74
485.837	5.76
486.271	5.78
486.706	5.81
487.14	5.82
487.574	5.85
488.009	5.88
488.443	5.91
488.877	5.94
489.311	5.98
489.745	6.02
490.179	6.07
490.613	6.12
491.046	6.16
491.48	6.2
491.914	6.25
492.348	6.31
492.781	6.36
493.215	6.42
493.648	6.48
494.082	6.54
494.515	6.59
494.948	6.66
495.382	6.73
495.815	6.8
496.248	6.89
496.681	6.98
497.114	7.06
497.547	7.14
497.98	7.23
498.413	7.32
498.846	7.42
499.279	7.52
499.711	7.63
500.144	7.75
500.577	7.86
501.009	7.98
501.442	8.1
501.874	8.24
502.306	8.37
502.739	8.53
503.171	8.68
503.603	8.84
504.036	9
504.468	9.16
504.9	9.32
505.332	9.49
505.764	9.67
506.196	9.85
506.627	10.05
507.059	10.25
507.491	10.43
507.923	10.63
508.354	10.85
508.786	11.06
509.217	11.28
509.649	11.5
510.08	11.73
510.512	11.95
510.943	12.17
511.374	12.4
511.805	12.63
512.237	12.86
512.668	13.1
513.099	13.33
513.53	13.58
513.961	13.82
514.391	14.07
514.822	14.32
515.253	14.57
515.684	14.83
516.114	15.09
516.545	15.34
516.975	15.6
517.406	15.85
517.836	16.1
518.267	16.34
518.697	16.59
519.127	16.82
519.558	17.06
519.988	17.31
520.418	17.55
520.848	17.77
521.278	18
521.708	18.29
522.138	18.51
522.567	18.74
522.997	18.96
523.427	19.17
523.857	19.38
524.286	19.56
524.716	19.74
525.145	19.93
525.575	20.11
526.004	20.29
526.433	20.4
526.863	20.56
527.292	20.71
527.721	20.84
528.15	20.97
528.579	21.09
529.008	21.24
529.437	21.35
529.866	21.45
530.295	21.57
530.724	21.67
531.152	21.76
531.581	21.86
532.01	21.95
532.438	22.04
532.867	22.13
533.295	22.23
533.723	22.29
534.152	22.37
534.58	22.44
535.008	22.48
535.436	22.53
535.865	22.57
536.293	22.61
536.721	22.65
537.149	22.7
537.576	22.72
538.004	22.76
538.432	22.8
538.86	22.83
539.287	22.85
539.715	22.91
540.143	22.93
540.57	22.95
540.998	22.97
541.425	23
541.852	23.03
542.28	23.04
542.707	23.05
543.134	23.07
543.561	23.11
543.988	23.13
544.415	23.13
544.842	23.15
545.269	23.17
545.696	23.19
546.123	23.19
546.549	23.2
546.976	23.22
547.403	23.24
547.829	23.24
548.256	23.23
548.682	23.25
549.108	23.26
549.535	23.27
549.961	23.26
550.387	23.27
550.813	23.28
551.24	23.27
551.666	23.28
552.092	23.26
552.518	23.26
552.943	23.24
553.369	23.22
553.795	23.2
554.221	23.18
554.646	23.16
555.072	23.13
555.498	23.09
555.923	23.04
556.349	22.98
556.774	22.94
557.199	22.88
557.625	22.84
558.05	22.79
558.475	22.73
558.9	22.67
559.325	22.62
559.75	22.55
560.175	22.48
560.6	22.41
561.025	22.33
561.449	22.25
561.874	22.16
562.299	22.07
562.723	21.98
563.148	21.89
563.572	21.78
563.997	21.67
564.421	21.55
564.846	21.44
565.27	21.34
565.694	21.24
566.118	21.13
566.542	21.01
566.966	20.88
567.39	20.77
567.814	20.64
568.238	20.52
568.662	20.41
569.086	20.3
569.509	20.18
569.933	20.06
570.357	19.93
570.78	19.81
571.204	19.7
571.627	19.59
572.05	19.47
572.474	19.37
572.897	19.26
573.32	19.15
573.743	19.04
574.166	18.92
574.589	18.82
575.012	18.72
575.435	18.61
575.858	18.52
576.281	18.42
576.704	18.34
577.126	18.24
577.549	18.16
577.972	18.08
578.394	17.99
578.817	17.92
579.239	17.84
579.661	17.79
580.084	17.73
580.506	17.66
580.928	17.58
581.35	17.51
581.772	17.44
582.194	17.36
582.616	17.3
583.038	17.24
583.46	17.17
583.882	17.09
584.303	17
584.725	16.93
585.147	16.88
585.568	16.83
585.99	16.76
586.411	16.71
586.833	16.66
587.254	16.6
587.675	16.55
588.096	16.49
588.518	16.44
588.939	16.41
589.36	16.36
589.781	16.31
590.202	16.29
590.623	16.26
591.043	16.2
591.464	16.16
591.885	16.11
592.305	16.08
592.726	16.05
593.147	16.02
593.567	15.98
593.987	15.94
594.408	15.9
594.828	15.86
595.248	15.82
595.669	15.8
596.089	15.77
596.509	15.75
596.929	15.71
597.349	15.68
597.769	15.64
598.189	15.6
598.608	15.59
599.028	15.57
599.448	15.54
599.867	15.51
600.287	15.48
600.706	15.44
601.126	15.41
601.545	15.38
601.965	15.35
602.384	15.32
602.803	15.29
603.222	15.24
603.641	15.19
604.061	15.16
604.48	15.1
604.898	15.05
605.317	15
605.736	14.94
606.155	14.89
606.574	14.82
606.992	14.75
607.411	14.7
607.829	14.61
608.248	14.53
608.666	14.45
609.085	14.4
609.503	14.33
609.921	14.26
610.339	14.2
610.758	14.14
611.176	14.06
611.594	14.01
612.012	13.93
612.43	13.89
612.847	13.84
613.265	13.77
613.683	13.71
614.101	13.65
614.518	13.58
614.936	13.52
615.353	13.44
615.771	13.38
616.188	13.31
616.606	13.25
617.023	13.2
617.44	13.15
617.857	13.09
618.274	13.03
618.691	12.97
619.108	12.91
619.525	12.86
619.942	12.83
620.359	12.79
620.776	12.76
621.192	12.72
621.609	12.69
622.026	12.66
622.442	12.65
622.859	12.63
623.275	12.62
623.691	12.6
624.108	12.59
624.524	12.58
624.94	12.57
625.356	12.55
625.772	12.54
626.188	12.53
626.604	12.52
627.02	12.5
627.436	12.49
627.852	12.49
628.268	12.49
628.683	12.48
629.099	12.48
629.514	12.46
629.93	12.45
630.345	12.44
630.761	12.4
631.176	12.38
631.591	12.36
632.007	12.32
632.422	12.28
632.837	12.23
633.252	12.17
633.667	12.11
634.082	12.04
634.497	11.98
634.911	11.9
635.326	11.82
635.741	11.75
636.155	11.65
636.57	11.57
636.984	11.48
637.399	11.38
637.813	11.29
638.228	11.18
638.642	11.07
639.056	10.95
639.47	10.85
639.884	10.74
640.298	10.61
640.712	10.49
641.126	10.37
641.54	10.24
641.954	10.13
642.368	10.01
642.781	9.9
643.195	9.79
643.609	9.69
644.022	9.57
644.436	9.48
644.849	9.37
645.262	9.28
645.676	9.19
646.089	9.1
646.502	9.02
646.915	8.94
647.328	8.87
647.741	8.8
648.154	8.74
648.567	8.69
648.98	8.63
649.393	8.59
649.805	8.56
650.218	8.5
650.631	8.47
651.043	8.43
651.456	8.38
651.868	8.33
652.28	8.3
652.693	8.25
653.105	8.22
653.517	8.17
653.929	8.11
654.341	8.06
654.753	8
655.165	7.94
655.577	7.88
655.989	7.82
656.401	7.75
656.813	7.68
657.224	7.59
657.636	7.5
658.047	7.43
658.459	7.34
658.87	7.25
659.282	7.15
659.693	7.08
660.104	6.98
660.515	6.89
660.926	6.81
661.338	6.72
661.749	6.64
662.159	6.57
662.57	6.49
662.981	6.41
663.392	6.34
663.803	6.27
664.213	6.2
664.624	6.13
665.035	6.06
665.445	6.01
665.855	5.96
666.266	5.92
666.676	5.88
667.086	5.83
667.497	5.8
667.907	5.77
668.317	5.75
668.727	5.73
669.137	5.71
669.547	5.69
669.956	5.67
670.366	5.65
670.776	5.63
671.186	5.61
671.595	5.62
672.005	5.61
672.414	5.61
672.824	5.6
673.233	5.6
673.642	5.62
674.052	5.63
674.461	5.65
674.87	5.67
675.279	5.7
675.688	5.73
676.097	5.75
676.506	5.78
676.915	5.81
677.323	5.84
677.732	5.87
678.141	5.91
678.549	5.95
678.958	6
679.366	6.07
679.775	6.11
680.183	6.19
680.592	6.28
681	6.37
681.408	6.47
681.816	6.57
682.224	6.69
682.632	6.83
683.04	6.98
683.448	7.14
683.856	7.3
684.264	7.49
684.671	7.68
685.079	7.89
685.487	8.14
685.894	8.39
686.302	8.68
686.709	8.97
687.116	9.29
687.524	9.65
687.931	10.01
688.338	10.4
688.745	10.8
689.152	11.22
689.559	11.67
689.966	12.11
690.373	12.58
690.78	13.06
691.187	13.54
691.593	14.02
692	14.5
692.407	14.99
692.813	15.49
693.22	15.98
693.626	16.49
694.032	16.99
694.439	17.49
694.845	17.98
695.251	18.46
695.657	18.94
696.063	19.42
696.469	19.91
696.875	20.38
697.281	20.85
697.687	21.32
698.093	21.78
698.498	22.21
698.904	22.64
699.31	23.07
699.715	23.49
700.12	23.91
700.526	24.31
700.931	24.72
701.337	25.09
701.742	25.46
702.147	25.82
702.552	26.19
702.957	26.54
703.362	26.89
703.767	27.23
704.172	27.56
704.577	27.88
704.981	28.21
705.386	28.51
705.791	28.83
706.195	29.13
706.6	29.43
707.004	29.69
707.408	29.97
707.813	30.25
708.217	30.52
708.621	30.8
709.025	31.04
709.43	31.28
709.834	31.52
710.237	31.76
710.641	31.97
711.045	32.2
711.449	32.43
711.853	32.68
712.256	32.88
712.66	33.1
713.064	33.29
713.467	33.52
713.87	33.71
714.274	33.92
714.677	34.1
715.08	34.3
715.484	34.5
715.887	34.71
716.29	34.86
716.693	35.04
717.096	35.21
717.499	35.4
717.901	35.56
718.304	35.71
718.707	35.87
719.109	36.04
719.512	36.21
719.915	36.36
720.317	36.45
720.719	36.58
721.122	36.7
721.524	36.82
721.926	36.93
722.328	37.04
722.731	37.16
723.133	37.27
723.535	37.38
723.937	37.47
724.338	37.56
724.74	37.71
725.142	37.92
725.544	38.04
725.945	38.16
726.347	38.24
726.748	38.34
727.15	38.41
727.551	38.52
727.952	38.6
728.354	38.69
728.755	38.76
729.156	38.8
729.557	38.74
729.958	38.79
730.359	38.85
730.76	38.91
731.161	38.97
731.562	39.05
731.962	39.05
732.363	39.09
732.763	39.11
733.164	39.15
733.564	39.21
733.965	39.26
734.365	39.32
734.766	39.35
735.166	39.41
735.566	39.44
735.966	39.48
736.366	39.51
736.766	39.53
737.166	39.6
737.566	39.63
737.966	39.63
738.365	39.67
738.765	39.69
739.165	39.72
739.564	39.76
739.964	39.79
740.363	39.8
740.763	39.86
741.162	39.88
741.561	39.89
741.96	39.9
742.36	39.95
742.759	39.96
743.158	39.98
743.557	39.99
743.955	39.97
744.354	39.99
744.753	40.02
745.152	40.04
745.55	40.05
745.949	40.06
746.348	40.06
746.746	40.05
747.144	40.08
747.543	40.1
747.941	40.12
748.339	40.12
748.737	40.11
749.136	40.1
749.534	40.07
749.932	40.09
750.33	40.1
750.727	40.12
751.125	40.13
751.523	40.11
751.921	40.12
752.318	40.12
752.716	40.15
753.113	40.17
753.511	40.18
753.908	40.21
754.305	40.22
754.703	40.22
755.1	40.22
755.497	40.21
755.894	40.23
756.291	40.22
756.688	40.22
757.085	40.2
757.482	40.19
757.878	40.19
758.275	40.19
758.672	40.16
759.068	40.18
759.465	40.19
759.861	40.21
760.258	40.23
760.654	40.24
761.05	40.24
761.447	40.24
761.843	40.24
762.239	40.23
762.635	40.21
763.031	40.23
763.427	40.22
763.822	40.21
764.218	40.21
764.614	40.18
765.01	40.17
765.405	40.15
765.801	40.14
766.196	40.15
766.592	40.15
766.987	40.16
767.382	40.15
767.778	40.15
768.173	40.15
768.568	40.13
768.963	40.14
769.358	40.13
769.753	40.13
770.148	40.13
770.542	40.12
770.937	40.13
771.332	40.13
771.726	40.12
772.121	40.12
772.515	40.12
772.91	40.11
773.304	40.15
773.699	40.16
774.093	40.17
774.487	40.18
774.881	40.18
775.275	40.15
775.669	40.1
776.063	40.12
776.457	40.12
776.851	40.13
777.245	40.14
777.638	40.1
778.032	40.1
778.425	40.11
778.819	40.09
779.212	40.11
779.606	40.12
779.999	40.15
780.392	40.16
780.786	40.12
781.179	40.12
781.572	40.13
781.965	40.13
782.358	40.1
782.751	40.08
783.143	40.07
783.536	40.06
783.929	40.05
784.322	40.06
784.714	40.08
785.107	40.11
785.499	40.11
785.891	40.11
786.284	40.1
786.676	40.14
787.068	40.16
787.46	40.18
787.852	40.17
788.245	40.18
788.636	40.17
789.028	40.14
789.42	40.11
789.812	40.1
790.204	40.09
790.595	40.09
790.987	40.09
791.378	40.11
791.77	40.1
792.161	40.11
792.553	40.1
792.944	40.1
793.335	40.09
793.726	40.11
794.117	40.12
794.508	40.1
794.899	40.1
795.29	40.09
795.681	40.05
796.072	40.05
796.463	40.06
796.853	40.07
797.244	40.07
797.634	40.07
798.025	40.07
798.415	40.06
798.806	40.07
799.196	40.07
799.586	40.06
799.976	40.04
800.366	40.04
800.756	40.02
801.146	40.04
801.536	40.05
801.926	40.06
802.316	40.05
802.706	40.09
803.095	40.09
803.485	40.09
803.874	40.1
804.264	40.11
804.653	40.12
805.043	40.12
805.432	40.12
805.821	40.12
806.21	40.1
806.599	40.12
806.988	40.09
807.377	40.11
807.766	40.12
808.155	40.11
808.544	40.1
808.933	40.08
809.321	40.09
809.71	40.07
810.098	40.04
810.487	40.04
810.875	40.03
811.264	40.02
811.652	40.01
812.04	39.99
812.428	40.03
812.816	40.02
813.204	40.02
813.592	40
813.98	40
814.368	40.03
814.756	40.04
815.144	40.01
815.531	39.99
815.919	39.98
816.306	39.99
816.694	39.97
817.081	39.98
817.469	39.99
817.856	39.96
818.243	39.93
818.63	39.92
819.017	39.91
819.404	39.89
819.791	39.91
820.178	39.89
820.565	39.87
820.952	39.86
821.339	39.84
821.725	39.84
822.112	39.87
822.498	39.89
822.885	39.91
823.271	39.92
823.657	39.91
824.044	39.91
824.43	39.95
824.816	39.95
825.202	39.96
825.588	39.96
825.974	39.95
826.36	39.93
826.746	39.92
827.132	39.91
827.517	39.91
827.903	39.95
828.289	39.96
828.674	39.95
829.06	39.94
829.445	39.93
829.83	39.95
830.216	39.95
830.601	39.96
830.986	39.97
831.371	39.95
831.756	39.96
832.141	39.96
832.526	39.94
832.911	39.94
833.295	39.95
833.68	39.97
834.065	39.98
834.449	39.98
834.834	39.97
835.218	39.97
835.603	39.98
835.987	39.97
836.371	39.96
836.755	39.94
837.139	39.93
837.524	39.91
837.908	39.92
838.291	39.93
838.675	39.92
839.059	39.92
839.443	39.89
839.827	39.88
840.21	39.88
840.594	39.87
840.977	39.88
841.361	39.88
841.744	39.86
842.127	39.83
842.511	39.78
842.894	39.78
843.277	39.78
843.66	39.77
844.043	39.78
844.426	39.76
844.809	39.76
845.191	39.78
845.574	39.8
845.957	39.84
846.339	39.86
846.722	39.87
847.104	39.86
847.487	39.86
847.869	39.87
848.252	39.86
848.634	39.86
849.016	39.87
849.398	39.88
849.78	39.85
850.162	39.84
850.544	39.82
850.926	39.82
851.307	39.84
851.689	39.83
852.071	39.82
852.452	39.82
852.834	39.85
853.215	39.83
853.597	39.81
853.978	39.81
854.359	39.79
854.741	39.81
855.122	39.81
855.503	39.78
855.884	39.77
856.265	39.79
856.646	39.79
857.026	39.8
857.407	39.8
857.788	39.79
858.169	39.8
858.549	39.81
858.93	39.8
859.31	39.81
859.69	39.83
860.071	39.86
860.451	39.86
860.831	39.87
861.211	39.85
861.591	39.85
861.971	39.87
862.351	39.88
862.731	39.87
863.111	39.86
863.491	39.85
863.87	39.84
864.25	39.82
864.629	39.83
865.009	39.81
865.388	39.78
865.768	39.8
866.147	39.79
866.526	39.79
866.905	39.8
867.284	39.82
867.663	39.82
868.042	39.83
868.421	39.83
868.8	39.82
869.179	39.83
869.558	39.85
869.936	39.83
870.315	39.82
870.693	39.8
871.072	39.8
871.45	39.8
871.828	39.79
872.207	39.82
872.585	39.81
872.963	39.82
873.341	39.8
873.719	39.81
874.097	39.83
874.475	39.82
874.853	39.83
875.23	39.84
875.608	39.84
875.986	39.88
876.363	39.89
876.741	39.91
877.118	39.92
877.495	39.93
877.873	39.94
878.25	39.93
878.627	39.96
879.004	39.94
879.381	39.94
879.758	39.93
880.135	39.89
880.512	39.86
880.889	39.83
881.265	39.81
881.642	39.81
882.019	39.8
882.395	39.81
882.772	39.77
883.148	39.75
883.524	39.75
883.901	39.73
884.277	39.72
884.653	39.71
885.029	39.7
885.405	39.69
885.781	39.67
886.157	39.66
886.532	39.65
886.908	39.66
887.284	39.7
887.659	39.68
888.035	39.69
888.411	39.68
888.786	39.7
889.161	39.72
889.537	39.71
889.912	39.72
890.287	39.73
890.662	39.72
891.037	39.73
891.412	39.7
891.787	39.68
892.162	39.7
892.536	39.71
892.911	39.7
893.286	39.69
893.66	39.7
894.035	39.7
894.409	39.67
894.784	39.69
895.158	39.67
895.532	39.69
895.906	39.7
896.281	39.68
896.655	39.67
897.029	39.65
897.402	39.65
897.776	39.65
898.15	39.65
898.524	39.66
898.898	39.65
899.271	39.65
899.645	39.67
900.018	39.68
900.392	39.67
900.765	39.7
901.138	39.73
901.511	39.76
901.884	39.79
902.258	39.8
902.631	39.79
903.003	39.81
903.376	39.81
903.749	39.8
904.122	39.82
904.495	39.85
904.867	39.83
905.24	39.83
905.612	39.81
905.985	39.78
906.357	39.79
906.729	39.82
907.102	39.82
907.474	39.83
907.846	39.84
908.218	39.83
908.59	39.83
908.962	39.82
909.334	39.83
909.705	39.85
910.077	39.85
910.449	39.82
910.82	39.8
911.192	39.82
911.563	39.82
911.935	39.79
912.306	39.78
912.677	39.77
913.048	39.79
913.419	39.76
913.79	39.74
914.161	39.75
914.532	39.77
914.903	39.77
915.274	39.76
915.645	39.74
916.015	39.75
916.386	39.77
916.756	39.76
917.127	39.78
917.497	39.8
917.868	39.81
918.238	39.79
918.608	39.8
918.978	39.82
919.348	39.82
919.718	39.82
920.088	39.85
920.458	39.83
920.828	39.8
921.198	39.76
921.567	39.78
921.937	39.76
922.306	39.78
922.676	39.76
923.045	39.73
923.415	39.71
923.784	39.72
924.153	39.74
924.522	39.76
924.891	39.77
925.26	39.78
925.629	39.76
925.998	39.76
926.367	39.77
926.736	39.8
927.104	39.81
927.473	39.81
927.842	39.79
928.21	39.77
928.578	39.75
928.947	39.76
929.315	39.76
929.683	39.73
930.051	39.72
930.42	39.7
930.788	39.66
931.156	39.63
931.523	39.64
931.891	39.67
932.259	39.69
932.627	39.71
932.994	39.73
933.362	39.74
933.729	39.78
934.097	39.81
934.464	39.85
934.831	39.85
935.199	39.88
935.566	39.9
935.933	39.83
936.3	39.78
936.667	39.75
937.034	39.74
937.401	39.74
937.767	39.71
938.134	39.68
938.501	39.67
938.867	39.72
939.234	39.71
939.6	39.67
939.967	39.72
940.333	39.7
940.699	39.75
941.065	39.66
941.431	39.64
941.798	39.63
942.163	39.59
942.529	39.52
942.895	39.48
943.261	39.43
943.627	39.37
943.992	39.34
944.358	39.33
944.723	39.29
945.089	39.28
945.454	39.26
945.82	39.23
946.185	39.22
946.55	39.2
946.915	39.2
947.28	39.22
947.645	39.25
948.01	39.28
948.375	39.31
948.74	39.27
949.104	39.32
949.469	39.3
949.834	39.27
950.198	39.24
950.562	39.22
950.927	39.15
951.291	39.1
951.655	39.07
952.02	39.04
952.384	38.97
952.748	38.96
953.112	38.94
953.476	38.92
953.839	38.9
954.203	38.93
954.567	38.92
954.931	38.91
955.294	38.92
955.658	38.94
956.021	38.9
956.385	38.89
956.748	38.9
957.111	38.89
957.474	38.9
957.837	38.89
958.2	38.86
958.563	38.86
958.926	38.89
959.289	38.95
959.652	38.93
960.015	38.94
960.377	38.97
960.74	38.97
961.102	39.01
961.465	39.07
961.827	39.13
962.189	39.15
962.552	39.19
962.914	39.18
963.276	39.19
963.638	39.23
964	39.27
964.362	39.31
964.724	39.33
965.085	39.28
965.447	39.21
965.809	39.19
966.17	39.18
966.532	39.16
966.893	39.19
967.255	39.14
967.616	39.15
967.977	39.15
968.338	39.11
968.699	39.07
969.061	39.11
969.421	39.12
969.782	39.15
970.143	39.18
970.504	39.17
970.865	39.21
971.225	39.25
971.586	39.21
971.946	39.19
972.307	39.19
972.667	39.23
973.027	39.26
973.388	39.31
973.748	39.3
974.108	39.33
974.468	39.36
974.828	39.36
975.188	39.33
975.548	39.32
975.907	39.38
976.267	39.38
976.627	39.39
976.986	39.35
977.346	39.26
977.705	39.22
978.064	39.25
978.424	39.28
978.783	39.21
979.142	39.19
979.501	39.25
979.86	39.24
980.219	39.23
980.578	39.21
980.937	39.22
981.296	39.27
981.654	39.3
982.013	39.26
982.371	39.21
982.73	39.25
983.088	39.29
983.447	39.23
983.805	39.23
984.163	39.26
984.521	39.3
984.879	39.27
985.237	39.26
985.595	39.3
985.953	39.3
986.311	39.23
986.669	39.26
987.026	39.23
987.384	39.22
987.741	39.16
988.099	39.21
988.456	39.16
988.814	39.14
989.171	39.13
989.528	39.05
989.885	38.99
990.242	39.08
990.599	39.07
990.956	39.08
991.313	39.11
991.67	39.17
992.027	39.21
992.383	39.25
992.74	39.38
993.096	39.37
993.453	39.41
993.809	39.48
994.165	39.4
994.522	39.5
994.878	39.54
995.234	39.51
995.59	39.5
995.946	39.5
996.302	39.49
996.658	39.44
997.013	39.49
997.369	39.52
997.725	39.51
998.08	39.68
998.436	39.58
998.791	39.67
999.147	39.68
999.502	39.72
999.857	39.65
1000.212	39.63
1000.567	39.52
1000.922	39.48
1001.277	39.45
1001.632	39.44
1001.987	39.48
1002.342	39.44
1002.696	39.31
1003.051	39.44
1003.406	39.45
1003.76	39.47
1004.114	39.49
1004.469	39.68
1004.823	39.95
1005.177	39.95
1005.531	39.98
1005.885	39.84
1006.239	39.99
1006.593	40.09
1006.947	40.03
1007.301	39.96
1007.655	39.93
1008.008	39.96
1008.362	40.01
1008.715	39.71
1009.069	39.78
1009.422	39.88
1009.776	39.78
1010.129	39.7
1010.482	39.65
1010.835	39.69
1011.188	39.83
1011.541	39.72
1011.894	39.74
1012.247	39.66
1012.6	39.81
1012.952	39.64
1013.305	39.6
1013.657	39.74
1014.01	39.7
1014.362	39.64
1014.715	39.72
1015.067	39.62
1015.419	39.86
1015.771	39.83
1016.123	39.74
1016.475	39.77
1016.827	39.97
1017.179	40.06
1017.531	40.09
1017.883	40.04
1018.234	40.24
1018.586	40.11
1018.938	40.34
1019.289	40.09
1019.64	39.96
1019.992	39.98
1020.343	39.78
1020.694	39.72
1021.045	39.62
1021.396	39.71
1021.747	39.85
1022.098	39.89
1022.449	39.85
1022.8	39.66
1023.151	39.76
1023.501	40.04
1023.852	40.06
1024.202	40.08
1024.553	39.9
1024.903	40.09
1025.253	40.14
1025.604	40.11
1025.954	39.8
1026.304	39.78
1026.654	39.98
1027.004	39.91
1027.354	39.85
1027.703	39.56
1028.053	39.58
1028.403	39.82
1028.753	39.49
1029.102	39.48
1029.452	39.54
1029.801	39.82
1030.15	39.87
1030.499	39.53
897.758	1261.89
901.051	1269.23
904.343	1260.61
907.636	1286.61
910.928	1250.62
914.22	1252.02
917.511	1231.62
920.803	1178.85
924.094	1170.9
927.384	1144.17
930.675	1096.39
933.965	1090.8
937.255	1026.67
940.544	987.98
943.834	936.7
947.123	930.08
950.411	873.98
953.7	855.88
956.988	806.96
960.276	775.73
963.563	761.7
966.851	736.33
970.138	729.07
973.424	705.97
976.711	708.75
979.997	673.58
983.283	670.51
986.568	656.46
989.853	636.86
993.138	625.51
996.423	601.14
999.708	585.59
1002.992	578.7
1006.275	553.61
1009.559	547.06
1012.842	526.94
1016.125	512.81
1019.408	502.93
1022.69	496.22
1025.972	485.32
1029.254	473.94
1032.536	466.15
1035.817	456.11
1039.098	449.78
1042.379	441.03
1045.659	436.59
1048.939	426.81
1052.219	418.28
1055.498	410.88
1058.778	400.34
1062.057	392.02
1065.335	388.43
1068.614	382.91
1071.892	379.28
1075.17	367.25
1078.447	358.71
1081.724	355.57
1085.001	352.61
1088.278	345.07
1091.554	339.56
1094.83	339.77
1098.106	337.18
1101.382	334.27
1104.657	332.57
1107.932	326.48
1111.206	328.16
1114.481	319.97
1117.755	317.01
1121.029	313.93
1124.302	313.91
1127.575	306.59
1130.848	303.2
1134.121	299.96
1137.393	297.34
1140.665	290.93
1143.937	289.16
1147.208	286.82
1150.48	286.97
1153.75	283.32
1157.021	279.38
1160.291	279.18
1163.561	277.06
1166.831	276.56
1170.101	274.29
1173.37	273.48
1176.639	274.27
1179.907	271.64
1183.176	268.4
1186.444	268.33
1189.711	267.86
1192.979	267.62
1196.246	266
1199.513	266.56
1202.78	264.25
1206.046	263.91
1209.312	262.76
1212.578	262.19
1215.843	265.14
1219.108	263.23
1222.373	268.21
1225.638	270.23
1228.902	273.67
1232.166	273.82
1235.43	276.29
1238.693	280.7
1241.956	282.02
1245.219	285.78
1248.482	286.67
1251.744	285.47
1255.006	286.69
1258.268	279.8
1261.529	277.37
1264.79	275.07
1268.051	274.66
1271.312	270.1
1274.572	266.47
1277.832	264.3
1281.092	259.99
1284.351	257.86
1287.61	257.93
1290.869	254.35
1294.128	252.7
1297.386	252.54
1300.644	250.03
1303.902	249.65
1307.159	249.07
1310.416	250.09
1313.673	249.79
1316.93	251.54
1320.186	251.25
1323.442	251.95
1326.697	256.45
1329.953	257.06
1333.208	257.77
1336.463	261.2
1339.717	261.69
1342.972	264.86
1346.226	266.51
1349.479	267.28
1352.733	269.15
1355.986	271.02
1359.238	271.38
1362.491	272.44
1365.743	275.19
1368.995	275.72
1372.247	274.8
1375.498	275.35
1378.749	277.79
1382	275.24
1385.251	275.56
1388.501	274.84
1391.751	275.51
1395	274.5
1398.25	272.72
1401.499	271.9
1404.748	271.92
1407.996	270.39
1411.244	269.04
1414.492	267.85
1417.74	265.68
1420.987	262.33
1424.234	261.9
1427.481	259.15
1430.728	258.2
1433.974	256.24
1437.22	253.95
1440.465	252.92
1443.711	251.15
1446.956	248.44
1450.201	246
1453.445	243.36
1456.689	242.39
1459.933	238.43
1463.177	235.86
1466.42	232.38
1469.663	229.8
1472.906	228.24
1476.148	222.24
1479.391	219.38
1482.633	218.34
1485.874	214.05
1489.115	212.89
1492.356	210.78
1495.597	210.1
1498.838	207.09
1502.078	206.08
1505.318	204.62
1508.557	204.63
1511.797	203.87
1515.036	202.37
1518.274	201.72
1521.513	200.48
1524.751	199.72
1527.989	198.43
1531.227	197.35
1534.464	197.57
1537.701	195.79
1540.938	195.32
1544.174	193.25
1547.41	193.61
1550.646	192.45
1553.882	192.22
1557.117	189.86
1560.352	189.12
1563.587	188.98
1566.821	187.28
1570.055	185.82
1573.289	184.29
1576.523	184.15
1579.756	181.74
1582.989	180.95
1586.222	180.87
1589.454	178.68
1592.686	179.74
1595.918	178.73
1599.15	177.8
1602.381	178.55
1605.612	177.98
1608.843	178.95
1612.073	178.34
1615.303	179.39
1618.533	179.01
1621.762	179.03
1624.992	180.01
1628.221	179.33
1631.449	179.25
1634.678	178.89
1637.906	179.72
1641.134	179.64
1644.361	179.25
1647.588	179.69
1650.815	179.42
1654.042	178.34
1657.269	179.19
1660.495	179.3
1663.72	179.29
1666.946	179.82
1670.171	180.34
1673.396	179.7
1676.621	179.88
1679.845	180.56
1683.069	180.19
1686.293	181.38
1689.517	182.79
1692.74	182.49
1695.963	182.82
1699.185	184.43
1702.408	184.28
1705.63	185.13
1708.852	185.47
1712.073	185.88
1715.294	186.14
1718.515	187.32
1721.736	186.76
1724.956	186.79
1728.176	186.94
1731.396	188.38
1734.616	187.66
1737.835	188.67
1741.054	187.28
1744.272	188.03
1747.491	189.97
1750.709	190
1753.927	190.2
1757.144	190.1
1760.361	191.04
1763.578	190.91
1766.795	190.59
1770.011	192.62
1773.227	192.68
1776.443	195.2
1779.658	195.92
1782.874	195.38
1786.089	196.27
1789.303	196.96
1792.518	199.29
1795.732	199.61
1798.945	201.95
1802.159	202.44
1805.372	202.62
1808.585	205.71
1811.797	206.98
1815.01	207.12
1818.222	208.82
1821.434	210.57
1824.645	211.45
1827.856	214.89
1831.067	216.13
1834.278	215.64
1837.488	217.33
1840.698	218.95
1843.908	217.2
1847.117	217.77
1850.326	219.33
1853.535	218.38
1856.744	221.5
1859.952	221.73
1863.16	219.88
1866.368	219.35
1869.575	222.56
1872.782	218.92
1875.989	218.26
1879.196	217.89
1882.402	216.66
1885.608	217.77
1888.814	218.8
1892.019	219.11
1895.224	218.19
1898.429	217.92
1901.634	219.07
1904.838	218.64
1908.042	221.64
1911.246	222.52
1914.449	224.22
1917.652	224.04
1920.855	223.99
1924.058	223.24
1927.26	221.34
1930.462	222.45
1933.664	224.98
1936.865	223.04
1940.066	222.93
1943.267	221.65
1946.467	220.78
1949.668	222.09
1952.868	225.3
1956.067	224.61
1959.267	225.23
1962.466	226.18
1965.665	225.41
1968.863	225.74
1972.061	228.65
1975.259	230.26
1978.457	232.58
1981.654	234.81
1984.852	235.07
1988.048	234.05
1991.245	236.4
1994.441	239.97
1997.637	240.76
2000.833	245.75
2004.028	248.46
2007.223	249.8
2010.418	252.67
2013.613	256.86
2016.807	259.52
2020.001	261.16
2023.194	265.73
2026.388	270.94
2029.581	277.11
2032.774	279.38
2035.966	284.6
2039.158	285.43
2042.35	292.4
2045.542	293.43
2048.733	297.78
2051.924	300.59
2055.115	307.04
2058.306	307.22
2061.496	310.72
2064.686	309.8
2067.875	316.69
2071.065	316.82
2074.254	315.62
2077.442	318.78
2080.631	320.77
2083.819	323.46
2087.007	324.67
2090.195	328.33
2093.382	330.78
2096.569	328.68
2099.756	333.71
2102.942	334.18
2106.128	337.45
2109.314	345.51
2112.5	343.11
2115.685	351.25
2118.87	351.74
2122.055	359.93
2125.239	361.52
2128.424	366.27
2131.608	368.13
2134.791	373.57
2137.974	375.46
2141.157	376.19
2144.34	376.72
2147.523	382.56
2150.705	379.89
2153.887	383.31
2157.068	383.42
2160.25	379.98
2163.431	381.91
2166.611	387.46
2169.792	393.95
2172.972	397.37
2176.152	399.72
2179.331	404.58
2182.511	412.41
2185.69	416.2
2188.868	424.68
2192.047	425.25
2195.225	438.62
2198.403	449.76
2201.58	458.04
2204.758	465.38
2207.935	474.92
2211.111	484.61
2214.288	490.56
2217.464	490.39
2220.64	500.15
2223.815	507.03
2226.991	528.18
2230.166	527.8
2233.34	535.43
2236.515	545.2
2239.689	546.8
2242.863	549.63
2246.036	564.95
2249.209	561.51
2252.382	571.72
2255.555	587.39
2258.727	588.21
2261.9	592.22
2265.071	598.53
2268.243	609.45
2271.414	614.18
2274.585	628.77
2277.756	635.16
2280.926	639.93
2284.096	654.23
2287.266	668.67
2290.436	671.65
2293.605	687.96
2296.774	706.59
2299.942	730.23
2303.111	735
2306.279	753.18
2309.447	760.94
2312.614	781.65
2315.781	803.73
2318.948	839.64
2322.115	827.92
2325.281	874.32
2328.447	857.66
2331.613	890.58
2334.779	879.03
2337.944	917.84
2341.109	926.16
2344.274	955.52
2347.438	984.67
2350.602	984.41
2353.766	1017.65
2356.929	1033.25
2360.092	1026.46
2363.255	1100.82
2366.418	1102.2
2369.58	1123.39
2372.742	1188.01
2375.904	1218.72
2379.066	1210
2382.227	1192.07
2385.388	1294.45
2388.548	1291.3
2391.709	1307.52
2394.869	1455.9
2398.029	1392.12
2401.188	1431.49
2404.347	1422.25
2407.506	1401.55
2410.665	1438.94
2413.823	1518.95
2416.981	1610.4
2420.139	1558.71
2423.296	1543.3
2426.453	1605.06
2429.61	1546.14
2432.767	1616.41
2435.923	1597.74
2439.079	1754.1
2442.235	1775.12
2445.391	1762.55
2448.546	1754.93
2451.701	1703.38
2454.855	1697.61
2458.009	1799.6
2461.163	1880.44
2464.317	1948.99
2467.471	1998.14
2470.624	2003.02
2473.777	1944.57
2476.929	1900.97
2480.082	1840.04
2483.234	1818.64
2486.385	1915.89
2489.537	1924.18
2492.688	1997.51
2495.839	1933.54
2498.989	1889.29
2502.14	1904.39
2505.29	1916.9
2508.439	1955.06
2511.589	1946.41
2514.738	2132.2
2517.887	2088.68
2521.035	2191.85
2524.183	2217.5
2527.331	2233.56
2530.479	2232.75
2533.627	2250.47
