Data from C_2_DEC_VA_2N_Splice17_13-08-56-442.txt Node
Date: Sat Mar 07 13:08:56 EST 2020
User: sa697716
Spectrometer: NQ5500242
Trigger mode: 0
Integration Time (sec): 1.450000E-1
Scans to average: 20
Nonlinearity correction enabled: false
Boxcar width: 5
Storing dark spectrum: false
XAxis mode: Wavelengths
Number of Pixels in Spectrum: 512
>>>>>Begin Spectral Data<<<<<
187.83	126.63
188.298	146.45
188.766	138.91
189.233	105.68
189.701	107.58
190.169	127.93
190.636	147.88
191.104	201.73
191.571	267.84
192.039	-23.35
192.506	-90.38
192.974	123.76
193.441	219.78
193.908	77.56
194.375	45.15
194.842	36.15
195.31	99.74
195.777	212.83
196.244	41.32
196.711	35.05
197.177	35.68
197.644	35.45
198.111	34.4
198.578	35.07
199.045	35.63
199.511	35.13
199.978	35.13
200.445	35.42
200.911	35.64
201.378	35.47
201.844	35.8
202.31	35.5
202.777	35.64
203.243	35.91
203.709	35.65
204.176	35.44
204.642	35.37
205.108	35.29
205.574	34.63
206.04	33.93
206.506	33.7
206.972	33.53
207.438	33.25
207.903	32.66
208.369	32
208.835	31.48
209.301	30.75
209.766	30.06
210.232	29.18
210.697	28.36
211.163	27.99
211.628	27.43
212.094	26.66
212.559	26.29
213.024	25.57
213.49	25.14
213.955	24.29
214.42	23.81
214.885	23.16
215.35	22.32
215.815	21.46
216.28	20.04
216.745	18.66
217.21	17.15
217.675	15.73
218.14	14.61
218.604	13.58
219.069	12.82
219.534	12.13
219.998	11.52
220.463	11.07
220.927	10.66
221.392	10.37
221.856	10.05
222.32	9.81
222.785	9.59
223.249	9.4
223.713	9.24
224.177	9.09
224.642	8.94
225.106	8.78
225.57	8.64
226.034	8.52
226.497	8.36
226.961	8.25
227.425	8.17
227.889	8.08
228.353	7.96
228.816	7.84
229.28	7.75
229.744	7.65
230.207	7.57
230.671	7.49
231.134	7.39
231.597	7.34
232.061	7.26
232.524	7.17
232.987	7.08
233.45	7.04
233.914	6.97
234.377	6.89
234.84	6.82
235.303	6.78
235.766	6.71
236.229	6.65
236.691	6.58
237.154	6.52
237.617	6.47
238.08	6.41
238.542	6.34
239.005	6.28
239.468	6.23
239.93	6.18
240.393	6.13
240.855	6.07
241.317	6.03
241.78	5.97
242.242	5.91
242.704	5.87
243.166	5.83
243.629	5.8
244.091	5.75
244.553	5.7
245.015	5.65
245.477	5.59
245.939	5.55
246.4	5.5
246.862	5.45
247.324	5.41
247.786	5.36
248.247	5.33
248.709	5.27
249.17	5.23
249.632	5.2
250.093	5.17
250.555	5.14
251.016	5.11
251.477	5.07
251.939	5.05
252.4	5.02
252.861	5
253.322	4.97
253.783	4.94
254.244	4.91
254.705	4.87
255.166	4.84
255.627	4.81
256.088	4.79
256.549	4.76
257.009	4.73
257.47	4.7
257.931	4.65
258.391	4.62
258.852	4.58
259.312	4.56
259.773	4.52
260.233	4.5
260.694	4.47
261.154	4.44
261.614	4.4
262.074	4.38
262.534	4.35
262.994	4.33
263.455	4.32
263.915	4.3
264.374	4.28
264.834	4.26
265.294	4.24
265.754	4.22
266.214	4.2
266.673	4.19
267.133	4.18
267.593	4.17
268.052	4.16
268.512	4.14
268.971	4.13
269.431	4.12
269.89	4.11
270.349	4.11
270.809	4.09
271.268	4.09
271.727	4.07
272.186	4.06
272.645	4.05
273.104	4.04
273.563	4.02
274.022	4.01
274.481	4
274.94	3.99
275.399	3.97
275.857	3.96
276.316	3.95
276.775	3.94
277.233	3.93
277.692	3.93
278.15	3.91
278.609	3.91
279.067	3.9
279.525	3.9
279.984	3.88
280.442	3.88
280.9	3.88
281.358	3.87
281.816	3.86
282.274	3.85
282.732	3.83
283.19	3.83
283.648	3.82
284.106	3.81
284.564	3.79
285.021	3.79
285.479	3.79
285.937	3.78
286.394	3.79
286.852	3.78
287.309	3.77
287.767	3.76
288.224	3.75
288.682	3.73
289.139	3.72
289.596	3.7
290.053	3.68
290.511	3.67
290.968	3.65
291.425	3.62
291.882	3.61
292.339	3.6
292.796	3.58
293.252	3.58
293.709	3.57
294.166	3.56
294.623	3.55
295.079	3.55
295.536	3.55
295.992	3.54
296.449	3.54
296.905	3.54
297.362	3.54
297.818	3.53
298.274	3.53
298.731	3.52
299.187	3.51
299.643	3.5
300.099	3.5
300.555	3.49
301.011	3.49
301.467	3.49
301.923	3.47
302.379	3.47
302.835	3.47
303.291	3.46
303.746	3.46
304.202	3.46
304.658	3.47
305.113	3.46
305.569	3.46
306.024	3.46
306.479	3.45
306.935	3.45
307.39	3.44
307.845	3.44
308.301	3.45
308.756	3.45
309.211	3.44
309.666	3.45
310.121	3.45
310.576	3.45
311.031	3.45
311.486	3.45
311.94	3.45
312.395	3.45
312.85	3.44
313.305	3.44
313.759	3.44
314.214	3.44
314.668	3.42
315.123	3.42
315.577	3.42
316.032	3.41
316.486	3.41
316.94	3.4
317.394	3.39
317.849	3.39
318.303	3.37
318.757	3.36
319.211	3.36
319.665	3.35
320.119	3.34
320.572	3.33
321.026	3.32
321.48	3.32
321.934	3.3
322.387	3.3
322.841	3.3
323.295	3.3
323.748	3.31
324.202	3.3
324.655	3.3
325.108	3.3
325.562	3.3
326.015	3.31
326.468	3.3
326.921	3.31
327.374	3.31
327.827	3.3
328.28	3.29
328.733	3.28
329.186	3.28
329.639	3.28
330.092	3.29
330.545	3.28
330.997	3.27
331.45	3.28
331.903	3.28
332.355	3.29
332.808	3.28
333.26	3.29
333.713	3.28
334.165	3.28
334.617	3.28
335.069	3.27
335.522	3.27
335.974	3.28
336.426	3.27
336.878	3.26
337.33	3.26
337.782	3.27
338.234	3.27
338.686	3.28
339.137	3.28
339.589	3.28
340.041	3.29
340.493	3.28
340.944	3.27
341.396	3.28
341.847	3.27
342.299	3.26
342.75	3.25
343.201	3.23
343.653	3.22
344.104	3.21
344.555	3.19
345.006	3.18
345.457	3.17
345.908	3.17
346.359	3.17
346.81	3.16
347.261	3.16
347.712	3.16
348.163	3.16
348.613	3.17
349.064	3.17
349.515	3.17
349.965	3.18
350.416	3.18
350.866	3.17
351.317	3.16
351.767	3.17
352.217	3.17
352.668	3.18
353.118	3.19
353.568	3.18
354.018	3.19
354.468	3.19
354.918	3.2
355.368	3.21
355.818	3.22
356.268	3.23
356.718	3.23
357.168	3.23
357.617	3.24
358.067	3.24
358.517	3.25
358.966	3.26
359.416	3.27
359.865	3.27
360.315	3.28
360.764	3.29
361.213	3.29
361.663	3.29
362.112	3.31
362.561	3.32
363.01	3.33
363.459	3.32
363.908	3.33
364.357	3.35
364.806	3.35
365.255	3.36
365.703	3.37
366.152	3.39
366.601	3.41
367.05	3.42
367.498	3.43
367.947	3.44
368.395	3.47
368.844	3.49
369.292	3.49
369.74	3.51
370.189	3.53
370.637	3.54
371.085	3.56
371.533	3.58
371.981	3.59
372.429	3.61
372.877	3.62
373.325	3.63
373.773	3.64
374.221	3.66
374.669	3.68
375.116	3.69
375.564	3.7
376.012	3.71
376.459	3.73
376.907	3.75
377.354	3.77
377.801	3.79
378.249	3.82
378.696	3.84
379.143	3.86
379.591	3.89
380.038	3.92
380.485	3.95
380.932	3.97
381.379	3.99
381.826	4.01
382.273	4.03
382.72	4.05
383.166	4.07
383.613	4.08
384.06	4.1
384.506	4.12
384.953	4.14
385.4	4.16
385.846	4.19
386.292	4.2
386.739	4.22
387.185	4.25
387.631	4.28
388.078	4.3
388.524	4.33
388.97	4.36
389.416	4.39
389.862	4.42
390.308	4.45
390.754	4.49
391.2	4.51
391.645	4.54
392.091	4.58
392.537	4.6
392.983	4.63
393.428	4.65
393.874	4.67
394.319	4.7
394.765	4.71
395.21	4.72
395.655	4.73
396.101	4.75
396.546	4.77
396.991	4.78
397.436	4.79
397.881	4.83
398.326	4.85
398.771	4.88
399.216	4.89
399.661	4.91
400.106	4.91
400.551	4.93
400.995	4.93
401.44	4.93
401.885	4.94
402.329	4.95
402.774	4.94
403.218	4.96
403.663	4.96
404.107	4.97
404.551	4.97
404.995	4.97
405.44	4.96
405.884	4.97
406.328	4.98
406.772	4.97
407.216	4.96
407.66	4.95
408.104	4.92
408.547	4.92
408.991	4.92
409.435	4.92
409.879	4.92
410.322	4.93
410.766	4.93
411.209	4.93
411.653	4.95
412.096	4.96
412.54	4.97
412.983	4.99
413.426	5
413.869	5
414.312	5.01
414.756	5.02
415.199	5.01
415.642	5.01
416.085	5.01
416.527	5
416.97	4.97
417.413	4.96
417.856	4.95
418.298	4.95
418.741	4.95
419.184	4.95
419.626	4.94
420.069	4.95
420.511	4.94
420.953	4.94
421.396	4.94
421.838	4.95
422.28	4.97
422.722	4.98
423.164	4.96
423.606	4.96
424.048	4.95
424.49	4.94
424.932	4.93
425.374	4.92
425.816	4.89
426.258	4.88
426.699	4.86
427.141	4.85
427.582	4.85
428.024	4.85
428.465	4.85
428.907	4.84
429.348	4.82
429.789	4.82
430.231	4.84
430.672	4.86
431.113	4.87
431.554	4.87
431.995	4.87
432.436	4.87
432.877	4.87
433.318	4.87
433.759	4.9
434.2	4.92
434.64	4.93
435.081	4.94
435.522	4.94
435.962	4.95
436.403	4.99
436.843	4.98
437.284	4.98
437.724	4.98
438.164	4.97
438.604	4.97
439.045	4.98
439.485	4.98
439.925	4.98
440.365	5
440.805	5.01
441.245	5.02
441.685	5.06
442.125	5.09
442.564	5.12
443.004	5.13
443.444	5.15
443.883	5.19
444.323	5.19
444.762	5.21
445.202	5.23
445.641	5.25
446.081	5.28
446.52	5.29
446.959	5.32
447.398	5.34
447.837	5.36
448.276	5.38
448.716	5.39
449.154	5.44
449.593	5.47
450.032	5.48
450.471	5.48
450.91	5.48
451.349	5.5
451.787	5.5
452.226	5.5
452.664	5.52
453.103	5.52
453.541	5.53
453.98	5.54
454.418	5.53
454.856	5.53
455.295	5.55
455.733	5.54
456.171	5.52
456.609	5.52
457.047	5.51
457.485	5.5
457.923	5.51
458.361	5.51
458.798	5.51
459.236	5.51
459.674	5.49
460.111	5.48
460.549	5.48
460.987	5.49
461.424	5.5
461.862	5.5
462.299	5.51
462.736	5.5
463.173	5.48
463.611	5.49
464.048	5.49
464.485	5.51
464.922	5.52
465.359	5.52
465.796	5.52
466.233	5.54
466.67	5.54
467.106	5.55
467.543	5.54
467.98	5.54
468.416	5.54
468.853	5.53
469.29	5.52
469.726	5.52
470.162	5.51
470.599	5.5
471.035	5.48
471.471	5.47
471.907	5.47
472.344	5.48
472.78	5.48
473.216	5.48
473.652	5.48
474.088	5.47
474.523	5.49
474.959	5.5
475.395	5.49
475.831	5.49
476.266	5.5
476.702	5.5
477.138	5.49
477.573	5.49
478.008	5.49
478.444	5.48
478.879	5.49
479.314	5.48
479.75	5.48
480.185	5.47
480.62	5.47
481.055	5.47
481.49	5.47
481.925	5.47
482.36	5.47
482.795	5.47
483.229	5.48
483.664	5.48
484.099	5.48
484.534	5.48
484.968	5.51
485.403	5.51
485.837	5.53
486.271	5.56
486.706	5.59
487.14	5.6
487.574	5.62
488.009	5.65
488.443	5.68
488.877	5.72
489.311	5.76
489.745	5.79
490.179	5.83
490.613	5.88
491.046	5.92
491.48	5.97
491.914	6.02
492.348	6.08
492.781	6.14
493.215	6.2
493.648	6.26
494.082	6.33
494.515	6.39
494.948	6.47
495.382	6.53
495.815	6.61
496.248	6.7
496.681	6.78
497.114	6.87
497.547	6.97
497.98	7.07
498.413	7.15
498.846	7.25
499.279	7.36
499.711	7.46
500.144	7.59
500.577	7.71
501.009	7.82
501.442	7.95
501.874	8.09
502.306	8.23
502.739	8.38
503.171	8.54
503.603	8.71
504.036	8.87
504.468	9.03
504.9	9.19
505.332	9.37
505.764	9.55
506.196	9.73
506.627	9.92
507.059	10.12
507.491	10.3
507.923	10.5
508.354	10.72
508.786	10.93
509.217	11.16
509.649	11.38
510.08	11.62
510.512	11.85
510.943	12.08
511.374	12.34
511.805	12.58
512.237	12.83
512.668	13.07
513.099	13.3
513.53	13.55
513.961	13.81
514.391	14.08
514.822	14.34
515.253	14.6
515.684	14.86
516.114	15.1
516.545	15.36
516.975	15.64
517.406	15.9
517.836	16.17
518.267	16.43
518.697	16.68
519.127	16.91
519.558	17.16
519.988	17.4
520.418	17.64
520.848	17.89
521.278	18.13
521.708	18.51
522.138	18.74
522.567	18.95
522.997	19.15
523.427	19.36
523.857	19.58
524.286	19.75
524.716	19.96
525.145	20.13
525.575	20.3
526.004	20.49
526.433	20.49
526.863	20.64
527.292	20.8
527.721	20.95
528.15	21.08
528.579	21.21
529.008	21.35
529.437	21.46
529.866	21.58
530.295	21.71
530.724	21.8
531.152	21.9
531.581	22.01
532.01	22.1
532.438	22.21
532.867	22.3
533.295	22.37
533.723	22.45
534.152	22.53
534.58	22.6
535.008	22.63
535.436	22.69
535.865	22.73
536.293	22.79
536.721	22.84
537.149	22.89
537.576	22.93
538.004	22.98
538.432	23.01
538.86	23.05
539.287	23.07
539.715	23.11
540.143	23.14
540.57	23.17
540.998	23.18
541.425	23.2
541.852	23.2
542.28	23.23
542.707	23.24
543.134	23.25
543.561	23.27
543.988	23.29
544.415	23.3
544.842	23.3
545.269	23.32
545.696	23.34
546.123	23.36
546.549	23.38
546.976	23.39
547.403	23.39
547.829	23.4
548.256	23.41
548.682	23.42
549.108	23.45
549.535	23.46
549.961	23.46
550.387	23.46
550.813	23.48
551.24	23.49
551.666	23.48
552.092	23.47
552.518	23.46
552.943	23.43
553.369	23.41
553.795	23.39
554.221	23.38
554.646	23.37
555.072	23.32
555.498	23.26
555.923	23.2
556.349	23.15
556.774	23.1
557.199	23.06
557.625	23
558.05	22.95
558.475	22.88
558.9	22.82
559.325	22.75
559.75	22.7
560.175	22.61
560.6	22.53
561.025	22.45
561.449	22.37
561.874	22.27
562.299	22.19
562.723	22.08
563.148	21.97
563.572	21.85
563.997	21.73
564.421	21.62
564.846	21.51
565.27	21.41
565.694	21.3
566.118	21.18
566.542	21.07
566.966	20.96
567.39	20.85
567.814	20.74
568.238	20.61
568.662	20.5
569.086	20.37
569.509	20.25
569.933	20.13
570.357	20
570.78	19.88
571.204	19.76
571.627	19.65
572.05	19.52
572.474	19.41
572.897	19.31
573.32	19.2
573.743	19.09
574.166	18.98
574.589	18.86
575.012	18.76
575.435	18.67
575.858	18.58
576.281	18.47
576.704	18.37
577.126	18.28
577.549	18.18
577.972	18.09
578.394	17.98
578.817	17.9
579.239	17.83
579.661	17.75
580.084	17.68
580.506	17.6
580.928	17.53
581.35	17.45
581.772	17.37
582.194	17.3
582.616	17.24
583.038	17.18
583.46	17.11
583.882	17.05
584.303	16.98
584.725	16.92
585.147	16.86
585.568	16.81
585.99	16.76
586.411	16.71
586.833	16.65
587.254	16.6
587.675	16.54
588.096	16.49
588.518	16.44
588.939	16.39
589.36	16.34
589.781	16.29
590.202	16.25
590.623	16.21
591.043	16.15
591.464	16.13
591.885	16.09
592.305	16.06
592.726	16.04
593.147	16
593.567	15.97
593.987	15.94
594.408	15.91
594.828	15.86
595.248	15.83
595.669	15.81
596.089	15.77
596.509	15.74
596.929	15.69
597.349	15.65
597.769	15.61
598.189	15.58
598.608	15.55
599.028	15.52
599.448	15.49
599.867	15.44
600.287	15.4
600.706	15.36
601.126	15.33
601.545	15.3
601.965	15.27
602.384	15.23
602.803	15.19
603.222	15.14
603.641	15.09
604.061	15.04
604.48	14.99
604.898	14.94
605.317	14.89
605.736	14.84
606.155	14.79
606.574	14.73
606.992	14.65
607.411	14.59
607.829	14.5
608.248	14.43
608.666	14.36
609.085	14.3
609.503	14.23
609.921	14.17
610.339	14.09
610.758	14.02
611.176	13.96
611.594	13.9
612.012	13.83
612.43	13.79
612.847	13.72
613.265	13.66
613.683	13.59
614.101	13.53
614.518	13.45
614.936	13.38
615.353	13.31
615.771	13.24
616.188	13.16
616.606	13.11
617.023	13.04
617.44	12.99
617.857	12.94
618.274	12.89
618.691	12.82
619.108	12.77
619.525	12.73
619.942	12.7
620.359	12.68
620.776	12.65
621.192	12.62
621.609	12.6
622.026	12.57
622.442	12.56
622.859	12.54
623.275	12.52
623.691	12.51
624.108	12.49
624.524	12.47
624.94	12.45
625.356	12.45
625.772	12.44
626.188	12.42
626.604	12.42
627.02	12.4
627.436	12.4
627.852	12.39
628.268	12.38
628.683	12.37
629.099	12.36
629.514	12.34
629.93	12.31
630.345	12.29
630.761	12.27
631.176	12.23
631.591	12.19
632.007	12.15
632.422	12.11
632.837	12.07
633.252	12.01
633.667	11.95
634.082	11.88
634.497	11.81
634.911	11.73
635.326	11.64
635.741	11.57
636.155	11.48
636.57	11.38
636.984	11.3
637.399	11.19
637.813	11.08
638.228	10.97
638.642	10.87
639.056	10.74
639.47	10.64
639.884	10.53
640.298	10.41
640.712	10.29
641.126	10.17
641.54	10.04
641.954	9.93
642.368	9.81
642.781	9.71
643.195	9.61
643.609	9.51
644.022	9.4
644.436	9.3
644.849	9.2
645.262	9.1
645.676	9.01
646.089	8.93
646.502	8.84
646.915	8.78
647.328	8.7
647.741	8.62
648.154	8.56
648.567	8.51
648.98	8.44
649.393	8.39
649.805	8.36
650.218	8.32
650.631	8.28
651.043	8.24
651.456	8.19
651.868	8.14
652.28	8.11
652.693	8.06
653.105	8.01
653.517	7.95
653.929	7.9
654.341	7.83
654.753	7.77
655.165	7.7
655.577	7.64
655.989	7.57
656.401	7.5
656.813	7.42
657.224	7.34
657.636	7.26
658.047	7.18
658.459	7.09
658.87	7
659.282	6.91
659.693	6.84
660.104	6.75
660.515	6.66
660.926	6.58
661.338	6.49
661.749	6.41
662.159	6.34
662.57	6.27
662.981	6.19
663.392	6.12
663.803	6.06
664.213	5.99
664.624	5.92
665.035	5.86
665.445	5.8
665.855	5.75
666.266	5.71
666.676	5.67
667.086	5.62
667.497	5.59
667.907	5.56
668.317	5.54
668.727	5.51
669.137	5.49
669.547	5.48
669.956	5.46
670.366	5.44
670.776	5.42
671.186	5.41
671.595	5.41
672.005	5.41
672.414	5.41
672.824	5.41
673.233	5.42
673.642	5.42
674.052	5.42
674.461	5.44
674.87	5.45
675.279	5.48
675.688	5.5
676.097	5.53
676.506	5.56
676.915	5.59
677.323	5.63
677.732	5.66
678.141	5.71
678.549	5.75
678.958	5.81
679.366	5.88
679.775	5.93
680.183	6.01
680.592	6.09
681	6.18
681.408	6.26
681.816	6.37
682.224	6.49
682.632	6.62
683.04	6.77
683.448	6.92
683.856	7.07
684.264	7.26
684.671	7.45
685.079	7.66
685.487	7.9
685.894	8.18
686.302	8.46
686.709	8.75
687.116	9.07
687.524	9.42
687.931	9.81
688.338	10.2
688.745	10.6
689.152	11.01
689.559	11.47
689.966	11.92
690.373	12.4
690.78	12.88
691.187	13.37
691.593	13.86
692	14.36
692.407	14.85
692.813	15.37
693.22	15.88
693.626	16.4
694.032	16.91
694.439	17.42
694.845	17.92
695.251	18.43
695.657	18.92
696.063	19.42
696.469	19.92
696.875	20.41
697.281	20.89
697.687	21.37
698.093	21.82
698.498	22.27
698.904	22.73
699.31	23.18
699.715	23.61
700.12	24.04
700.526	24.45
700.931	24.86
701.337	25.27
701.742	25.68
702.147	26.06
702.552	26.48
702.957	26.84
703.362	27.2
703.767	27.54
704.172	27.89
704.577	28.24
704.981	28.57
705.386	28.89
705.791	29.2
706.195	29.51
706.6	29.83
707.004	30.12
707.408	30.41
707.813	30.7
708.217	30.99
708.621	31.28
709.025	31.52
709.43	31.76
709.834	32.02
710.237	32.25
710.641	32.46
711.045	32.7
711.449	32.93
711.853	33.19
712.256	33.41
712.66	33.62
713.064	33.81
713.467	34.02
713.87	34.27
714.274	34.47
714.677	34.68
715.08	34.89
715.484	35.06
715.887	35.25
716.29	35.4
716.693	35.59
717.096	35.76
717.499	35.95
717.901	36.13
718.304	36.29
718.707	36.47
719.109	36.66
719.512	36.83
719.915	37
720.317	37.14
720.719	37.28
721.122	37.41
721.524	37.56
721.926	37.7
722.328	37.83
722.731	37.94
723.133	38.04
723.535	38.15
723.937	38.26
724.338	38.35
724.74	38.48
725.142	38.67
725.544	38.75
725.945	38.88
726.347	38.95
726.748	39.05
727.15	39.13
727.551	39.22
727.952	39.29
728.354	39.37
728.755	39.45
729.156	39.5
729.557	39.48
729.958	39.55
730.359	39.56
730.76	39.64
731.161	39.67
731.562	39.76
731.962	39.77
732.363	39.85
732.763	39.88
733.164	39.92
733.564	39.99
733.965	40.04
734.365	40.11
734.766	40.16
735.166	40.2
735.566	40.25
735.966	40.3
736.366	40.35
736.766	40.39
737.166	40.44
737.566	40.47
737.966	40.48
738.365	40.51
738.765	40.53
739.165	40.57
739.564	40.61
739.964	40.64
740.363	40.64
740.763	40.67
741.162	40.67
741.561	40.67
741.96	40.69
742.36	40.7
742.759	40.72
743.158	40.73
743.557	40.71
743.955	40.73
744.354	40.75
744.753	40.76
745.152	40.79
745.55	40.8
745.949	40.84
746.348	40.87
746.746	40.88
747.144	40.88
747.543	40.87
747.941	40.91
748.339	40.9
748.737	40.88
749.136	40.89
749.534	40.87
749.932	40.9
750.33	40.88
750.727	40.87
751.125	40.88
751.523	40.91
751.921	40.93
752.318	40.93
752.716	40.96
753.113	40.99
753.511	40.98
753.908	40.99
754.305	40.96
754.703	40.97
755.1	40.99
755.497	40.99
755.894	40.97
756.291	40.97
756.688	40.98
757.085	40.97
757.482	40.96
757.878	41
758.275	41.01
758.672	41.04
759.068	41.05
759.465	41.05
759.861	41.03
760.258	41.03
760.654	41.04
761.05	41.04
761.447	41.05
761.843	41.02
762.239	41.01
762.635	41
763.031	40.98
763.427	40.98
763.822	40.94
764.218	40.95
764.614	40.97
765.01	40.94
765.405	40.91
765.801	40.89
766.196	40.9
766.592	40.87
766.987	40.86
767.382	40.87
767.778	40.87
768.173	40.88
768.568	40.87
768.963	40.86
769.358	40.85
769.753	40.86
770.148	40.87
770.542	40.89
770.937	40.89
771.332	40.9
771.726	40.89
772.121	40.88
772.515	40.87
772.91	40.89
773.304	40.9
773.699	40.93
774.093	40.91
774.487	40.93
774.881	40.93
775.275	40.93
775.669	40.91
776.063	40.91
776.457	40.89
776.851	40.87
777.245	40.84
777.638	40.81
778.032	40.82
778.425	40.85
778.819	40.85
779.212	40.85
779.606	40.85
779.999	40.85
780.392	40.89
780.786	40.91
781.179	40.94
781.572	40.94
781.965	40.97
782.358	40.97
782.751	40.96
783.143	40.94
783.536	40.93
783.929	40.94
784.322	40.95
784.714	40.92
785.107	40.94
785.499	40.93
785.891	40.94
786.284	40.94
786.676	40.92
787.068	40.93
787.46	40.95
787.852	40.94
788.245	40.94
788.636	40.93
789.028	40.92
789.42	40.89
789.812	40.91
790.204	40.94
790.595	40.94
790.987	40.95
791.378	40.97
791.77	40.97
792.161	40.97
792.553	40.99
792.944	40.98
793.335	41.02
793.726	41.04
794.117	41.03
794.508	41
794.899	40.97
795.29	40.95
795.681	40.91
796.072	40.91
796.463	40.95
796.853	40.92
797.244	40.92
797.634	40.91
798.025	40.91
798.415	40.91
798.806	40.91
799.196	40.95
799.586	40.95
799.976	40.96
800.366	40.94
800.756	40.93
801.146	40.96
801.536	40.96
801.926	40.94
802.316	40.93
802.706	40.94
803.095	40.96
803.485	40.94
803.874	40.96
804.264	40.98
804.653	40.97
805.043	40.97
805.432	40.96
805.821	40.98
806.21	40.98
806.599	40.97
806.988	40.95
807.377	40.94
807.766	40.93
808.155	40.9
808.544	40.9
808.933	40.9
809.321	40.86
809.71	40.87
810.098	40.84
810.487	40.82
810.875	40.8
811.264	40.82
811.652	40.8
812.04	40.82
812.428	40.86
812.816	40.84
813.204	40.83
813.592	40.83
813.98	40.83
814.368	40.84
814.756	40.86
815.144	40.87
815.531	40.85
815.919	40.87
816.306	40.85
816.694	40.85
817.081	40.83
817.469	40.85
817.856	40.85
818.243	40.82
818.63	40.81
819.017	40.8
819.404	40.78
819.791	40.79
820.178	40.78
820.565	40.77
820.952	40.74
821.339	40.73
821.725	40.72
822.112	40.74
822.498	40.75
822.885	40.79
823.271	40.82
823.657	40.82
824.044	40.83
824.43	40.85
824.816	40.85
825.202	40.85
825.588	40.86
825.974	40.88
826.36	40.87
826.746	40.89
827.132	40.87
827.517	40.84
827.903	40.86
828.289	40.88
828.674	40.87
829.06	40.87
829.445	40.87
829.83	40.89
830.216	40.86
830.601	40.86
830.986	40.87
831.371	40.87
831.756	40.89
832.141	40.88
832.526	40.85
832.911	40.84
833.295	40.86
833.68	40.86
834.065	40.85
834.449	40.86
834.834	40.84
835.218	40.83
835.603	40.82
835.987	40.8
836.371	40.77
836.755	40.78
837.139	40.77
837.524	40.75
837.908	40.79
838.291	40.78
838.675	40.79
839.059	40.8
839.443	40.78
839.827	40.78
840.21	40.79
840.594	40.81
840.977	40.8
841.361	40.83
841.744	40.8
842.127	40.75
842.511	40.76
842.894	40.74
843.277	40.74
843.66	40.74
844.043	40.74
844.426	40.74
844.809	40.72
845.191	40.74
845.574	40.72
845.957	40.73
846.339	40.74
846.722	40.74
847.104	40.76
847.487	40.75
847.869	40.76
848.252	40.76
848.634	40.77
849.016	40.77
849.398	40.77
849.78	40.79
850.162	40.77
850.544	40.77
850.926	40.77
851.307	40.76
851.689	40.75
852.071	40.75
852.452	40.74
852.834	40.74
853.215	40.74
853.597	40.73
853.978	40.71
854.359	40.73
854.741	40.72
855.122	40.71
855.503	40.73
855.884	40.73
856.265	40.73
856.646	40.72
857.026	40.75
857.407	40.76
857.788	40.75
858.169	40.79
858.549	40.82
858.93	40.82
859.31	40.82
859.69	40.83
860.071	40.85
860.451	40.83
860.831	40.84
861.211	40.79
861.591	40.77
861.971	40.76
862.351	40.75
862.731	40.72
863.111	40.71
863.491	40.72
863.87	40.71
864.25	40.69
864.629	40.7
865.009	40.73
865.388	40.73
865.768	40.76
866.147	40.78
866.526	40.77
866.905	40.8
867.284	40.8
867.663	40.79
868.042	40.79
868.421	40.81
868.8	40.8
869.179	40.78
869.558	40.8
869.936	40.8
870.315	40.79
870.693	40.79
871.072	40.79
871.45	40.82
871.828	40.83
872.207	40.83
872.585	40.81
872.963	40.81
873.341	40.8
873.719	40.79
874.097	40.78
874.475	40.78
874.853	40.78
875.23	40.8
875.608	40.79
875.986	40.81
876.363	40.83
876.741	40.85
877.118	40.86
877.495	40.87
877.873	40.89
878.25	40.91
878.627	40.91
879.004	40.92
879.381	40.9
879.758	40.88
880.135	40.87
880.512	40.84
880.889	40.82
881.265	40.82
881.642	40.82
882.019	40.82
882.395	40.79
882.772	40.78
883.148	40.76
883.524	40.74
883.901	40.74
884.277	40.71
884.653	40.71
885.029	40.69
885.405	40.7
885.781	40.69
886.157	40.68
886.532	40.68
886.908	40.68
887.284	40.7
887.659	40.7
888.035	40.69
888.411	40.7
888.786	40.7
889.161	40.72
889.537	40.7
889.912	40.7
890.287	40.72
890.662	40.73
891.037	40.75
891.412	40.74
891.787	40.73
892.162	40.72
892.536	40.72
892.911	40.74
893.286	40.74
893.66	40.73
894.035	40.74
894.409	40.72
894.784	40.7
895.158	40.68
895.532	40.68
895.906	40.68
896.281	40.68
896.655	40.65
897.029	40.66
897.402	40.63
897.776	40.64
898.15	40.63
898.524	40.64
898.898	40.65
899.271	40.66
899.645	40.67
900.018	40.68
900.392	40.69
900.765	40.71
901.138	40.71
901.511	40.71
901.884	40.72
902.258	40.72
902.631	40.72
903.003	40.72
903.376	40.73
903.749	40.73
904.122	40.73
904.495	40.74
904.867	40.77
905.24	40.77
905.612	40.8
905.985	40.8
906.357	40.8
906.729	40.82
907.102	40.81
907.474	40.82
907.846	40.83
908.218	40.81
908.59	40.84
908.962	40.8
909.334	40.82
909.705	40.81
910.077	40.82
910.449	40.84
910.82	40.81
911.192	40.81
911.563	40.78
911.935	40.77
912.306	40.79
912.677	40.75
913.048	40.78
913.419	40.75
913.79	40.73
914.161	40.71
914.532	40.69
914.903	40.71
915.274	40.7
915.645	40.71
916.015	40.72
916.386	40.7
916.756	40.7
917.127	40.72
917.497	40.75
917.868	40.75
918.238	40.74
918.608	40.73
918.978	40.7
919.348	40.72
919.718	40.72
920.088	40.73
920.458	40.76
920.828	40.77
921.198	40.73
921.567	40.7
921.937	40.7
922.306	40.69
922.676	40.7
923.045	40.7
923.415	40.68
923.784	40.67
924.153	40.67
924.522	40.67
924.891	40.64
925.26	40.65
925.629	40.64
925.998	40.65
926.367	40.68
926.736	40.7
927.104	40.7
927.473	40.68
927.842	40.66
928.21	40.67
928.578	40.68
928.947	40.7
929.315	40.68
929.683	40.69
930.051	40.68
930.42	40.68
930.788	40.63
931.156	40.62
931.523	40.65
931.891	40.69
932.259	40.69
932.627	40.68
932.994	40.64
933.362	40.66
933.729	40.68
934.097	40.67
934.464	40.67
934.831	40.71
935.199	40.74
935.566	40.76
935.933	40.72
936.3	40.68
936.667	40.66
937.034	40.77
937.401	40.75
937.767	40.74
938.134	40.73
938.501	40.73
938.867	40.77
939.234	40.75
939.6	40.67
939.967	40.69
940.333	40.67
940.699	40.66
941.065	40.53
941.431	40.51
941.798	40.46
942.163	40.45
942.529	40.42
942.895	40.34
943.261	40.27
943.627	40.29
943.992	40.28
944.358	40.29
944.723	40.29
945.089	40.25
945.454	40.23
945.82	40.28
946.185	40.3
946.55	40.21
946.915	40.18
947.28	40.21
947.645	40.21
948.01	40.19
948.375	40.16
948.74	40.15
949.104	40.22
949.469	40.25
949.834	40.21
950.198	40.18
950.562	40.22
950.927	40.27
951.291	40.18
951.655	40.14
952.02	40.15
952.384	40.11
952.748	40.07
953.112	40.06
953.476	40.02
953.839	39.99
954.203	39.97
954.567	39.98
954.931	39.91
955.294	39.97
955.658	39.99
956.021	39.96
956.385	39.98
956.748	39.97
957.111	39.92
957.474	39.92
957.837	39.88
958.2	39.86
958.563	39.85
958.926	39.89
959.289	39.87
959.652	39.87
960.015	39.88
960.377	39.91
960.74	39.93
961.102	39.93
961.465	39.96
961.827	40.06
962.189	40.07
962.552	40.05
962.914	40.03
963.276	40.07
963.638	40.07
964	40.07
964.362	40.06
964.724	40.08
965.085	40.08
965.447	40.06
965.809	40.02
966.17	40.03
966.532	40.08
966.893	40.11
967.255	40.09
967.616	40.13
967.977	40.13
968.338	40.12
968.699	40.1
969.061	40.14
969.421	40.21
969.782	40.22
970.143	40.24
970.504	40.23
970.865	40.28
971.225	40.28
971.586	40.24
971.946	40.23
972.307	40.28
972.667	40.23
973.027	40.24
973.388	40.18
973.748	40.2
974.108	40.19
974.468	40.16
974.828	40.14
975.188	40.12
975.548	40.09
975.907	40.08
976.267	39.98
976.627	40.05
976.986	40.01
977.346	39.96
977.705	39.92
978.064	39.92
978.424	39.96
978.783	39.88
979.142	39.91
979.501	39.95
979.86	40.01
980.219	40.11
980.578	40.15
980.937	40.2
981.296	40.22
981.654	40.26
982.013	40.31
982.371	40.3
982.73	40.38
983.088	40.41
983.447	40.43
983.805	40.4
984.163	40.33
984.521	40.28
984.879	40.24
985.237	40.23
985.595	40.26
985.953	40.19
986.311	40.13
986.669	40.1
987.026	40.03
987.384	40
987.741	39.97
988.099	40.04
988.456	40
988.814	40.03
989.171	40.09
989.528	40.05
989.885	40.08
990.242	40.11
990.599	40.17
990.956	40.31
991.313	40.31
991.67	40.37
992.027	40.44
992.383	40.48
992.74	40.51
993.096	40.45
993.453	40.42
993.809	40.41
994.165	40.49
994.522	40.54
994.878	40.53
995.234	40.57
995.59	40.45
995.946	40.4
996.302	40.43
996.658	40.4
997.013	40.36
997.369	40.39
997.725	40.41
998.08	40.47
998.436	40.39
998.791	40.33
999.147	40.26
999.502	40.35
999.857	40.26
1000.212	40.21
1000.567	40.26
1000.922	40.29
1001.277	40.29
1001.632	40.17
1001.987	39.99
1002.342	39.96
1002.696	39.95
1003.051	40.1
1003.406	40.12
1003.76	40.21
1004.114	40.28
1004.469	40.22
1004.823	40.45
1005.177	40.45
1005.531	40.59
1005.885	40.68
1006.239	40.75
1006.593	40.87
1006.947	40.81
1007.301	40.79
1007.655	40.67
1008.008	40.72
1008.362	40.84
1008.715	40.75
1009.069	40.75
1009.422	40.75
1009.776	40.66
1010.129	40.77
1010.482	40.69
1010.835	40.68
1011.188	40.73
1011.541	40.81
1011.894	40.7
1012.247	40.6
1012.6	40.48
1012.952	40.41
1013.305	40.45
1013.657	40.59
1014.01	40.47
1014.362	40.51
1014.715	40.66
1015.067	40.71
1015.419	40.84
1015.771	40.84
1016.123	40.72
1016.475	40.69
1016.827	40.92
1017.179	40.96
1017.531	40.93
1017.883	40.92
1018.234	40.93
1018.586	40.88
1018.938	41.02
1019.289	40.87
1019.64	41.01
1019.992	41.27
1020.343	41.52
1020.694	41.4
1021.045	41.24
1021.396	41.29
1021.747	41.3
1022.098	41.36
1022.449	41.17
1022.8	41.16
1023.151	41.21
1023.501	41.2
1023.852	41.16
1024.202	41
1024.553	40.84
1024.903	41.18
1025.253	41.51
1025.604	41.63
1025.954	41.25
1026.304	41.47
1026.654	41.38
1027.004	41.37
1027.354	41.09
1027.703	41
1028.053	41.16
1028.403	41.57
1028.753	41.12
1029.102	40.98
1029.452	41.08
1029.801	41.6
1030.15	41.52
1030.499	41.47
897.758	1258.33
901.051	1263.37
904.343	1258.05
907.636	1280.89
910.928	1244.57
914.22	1243.08
917.511	1226.62
920.803	1172.77
924.094	1167.29
927.384	1138.92
930.675	1092.02
933.965	1086.58
937.255	1024.99
940.544	984.52
943.834	935.54
947.123	930.23
950.411	874.3
953.7	856.6
956.988	808.52
960.276	776.11
963.563	762.09
966.851	736.53
970.138	729.92
973.424	705.39
976.711	707.77
979.997	673.98
983.283	669.75
986.568	656.77
989.853	636.62
993.138	625.27
996.423	600.74
999.708	584.44
1002.992	577.93
1006.275	552.9
1009.559	547.53
1012.842	528.47
1016.125	513.41
1019.408	504.18
1022.69	497.23
1025.972	486.02
1029.254	474.41
1032.536	466.92
1035.817	456.85
1039.098	450.95
1042.379	440.36
1045.659	435.78
1048.939	424.93
1052.219	415.78
1055.498	408.76
1058.778	398.72
1062.057	390.23
1065.335	386.31
1068.614	381.59
1071.892	377.9
1075.17	364.63
1078.447	357.86
1081.724	354.68
1085.001	352.25
1088.278	345.42
1091.554	338
1094.83	338.89
1098.106	336.39
1101.382	333.7
1104.657	331.28
1107.932	325.29
1111.206	327.05
1114.481	319.5
1117.755	316.29
1121.029	313.22
1124.302	312.69
1127.575	307.08
1130.848	302.99
1134.121	299.98
1137.393	297.79
1140.665	291.85
1143.937	289.85
1147.208	288.85
1150.48	287.61
1153.75	284.09
1157.021	280.55
1160.291	280.45
1163.561	277.75
1166.831	277.09
1170.101	274.87
1173.37	273.91
1176.639	274.31
1179.907	272.27
1183.176	268.26
1186.444	268.82
1189.711	267.64
1192.979	267.25
1196.246	265.5
1199.513	266.41
1202.78	264.21
1206.046	264.12
1209.312	262.42
1212.578	261.79
1215.843	264.08
1219.108	263.25
1222.373	267.84
1225.638	270.27
1228.902	273.44
1232.166	274.32
1235.43	276.29
1238.693	281.24
1241.956	282.29
1245.219	286.53
1248.482	286.82
1251.744	286.2
1255.006	287.02
1258.268	279.07
1261.529	277.25
1264.79	274.66
1268.051	273.66
1271.312	270.36
1274.572	266.64
1277.832	264.05
1281.092	260.08
1284.351	258.28
1287.61	258.05
1290.869	254.43
1294.128	253.59
1297.386	252.91
1300.644	250.45
1303.902	250.27
1307.159	249.26
1310.416	249.48
1313.673	249.13
1316.93	251.38
1320.186	251.45
1323.442	252.03
1326.697	256.23
1329.953	256.41
1333.208	257.35
1336.463	260.54
1339.717	260.96
1342.972	264.71
1346.226	266.71
1349.479	267.84
1352.733	268.94
1355.986	270.64
1359.238	271.14
1362.491	271.73
1365.743	275.3
1368.995	275.8
1372.247	275.46
1375.498	275.65
1378.749	277.33
1382	274.74
1385.251	274.93
1388.501	274.14
1391.751	275.02
1395	273.75
1398.25	272.29
1401.499	271.14
1404.748	270.85
1407.996	269.57
1411.244	268.43
1414.492	266.9
1417.74	265.75
1420.987	261.63
1424.234	261.34
1427.481	257.87
1430.728	257.91
1433.974	255.58
1437.22	253.98
1440.465	252.96
1443.711	250.65
1446.956	248.67
1450.201	246.11
1453.445	243.35
1456.689	243.45
1459.933	238.62
1463.177	237.33
1466.42	233.15
1469.663	230.6
1472.906	228.65
1476.148	222.92
1479.391	220.05
1482.633	218.35
1485.874	214.65
1489.115	212.92
1492.356	210.21
1495.597	210.26
1498.838	206.7
1502.078	205.58
1505.318	204.34
1508.557	204.3
1511.797	203.77
1515.036	202.44
1518.274	201.68
1521.513	199.89
1524.751	199.63
1527.989	198.48
1531.227	197.05
1534.464	197.35
1537.701	195.8
1540.938	195.29
1544.174	192.95
1547.41	192.87
1550.646	191.74
1553.882	191.88
1557.117	189.35
1560.352	188.47
1563.587	188.41
1566.821	186.85
1570.055	185.11
1573.289	183.69
1576.523	183.32
1579.756	181.53
1582.989	180.8
1586.222	180.47
1589.454	178.89
1592.686	179.87
1595.918	178.69
1599.15	177.9
1602.381	178.72
1605.612	178.43
1608.843	179.11
1612.073	178.68
1615.303	179.55
1618.533	179.18
1621.762	179.09
1624.992	179.64
1628.221	179.37
1631.449	178.93
1634.678	178.65
1637.906	179.24
1641.134	179.07
1644.361	178.92
1647.588	179.33
1650.815	178.92
1654.042	177.82
1657.269	179
1660.495	178.81
1663.72	179.03
1666.946	179.72
1670.171	180.09
1673.396	179.67
1676.621	180.13
1679.845	180.35
1683.069	180.25
1686.293	181.58
1689.517	183.07
1692.74	182.69
1695.963	183.07
1699.185	184.39
1702.408	184.36
1705.63	185.34
1708.852	185.83
1712.073	185.98
1715.294	186.54
1718.515	187.37
1721.736	186.72
1724.956	187.06
1728.176	187.19
1731.396	188.72
1734.616	188.02
1737.835	189.26
1741.054	187.16
1744.272	187.67
1747.491	189.89
1750.709	189.74
1753.927	190.08
1757.144	189.87
1760.361	190.25
1763.578	191.15
1766.795	190.54
1770.011	192.19
1773.227	191.95
1776.443	195.34
1779.658	196.18
1782.874	194.73
1786.089	195.92
1789.303	196.81
1792.518	199.08
1795.732	199.52
1798.945	200.74
1802.159	201.58
1805.372	202.11
1808.585	205.63
1811.797	206.22
1815.01	206.39
1818.222	208.7
1821.434	210.29
1824.645	211.17
1827.856	214.71
1831.067	216.4
1834.278	215.63
1837.488	217.37
1840.698	218.78
1843.908	216.69
1847.117	217.72
1850.326	219.31
1853.535	218.54
1856.744	221.82
1859.952	221.76
1863.16	220.02
1866.368	219.23
1869.575	222.53
1872.782	218.65
1875.989	218.48
1879.196	218.26
1882.402	216.86
1885.608	217.84
1888.814	218.9
1892.019	218.79
1895.224	217.86
1898.429	217.78
1901.634	219.01
1904.838	218.92
1908.042	221.67
1911.246	222.21
1914.449	223.84
1917.652	224.09
1920.855	223.78
1924.058	223.02
1927.26	221.41
1930.462	221.71
1933.664	224.44
1936.865	222.43
1940.066	222.36
1943.267	221.66
1946.467	220.68
1949.668	221.82
1952.868	224.17
1956.067	223.99
1959.267	224.97
1962.466	225.88
1965.665	225.64
1968.863	225.24
1972.061	228.29
1975.259	230.15
1978.457	231.92
1981.654	234.4
1984.852	234.78
1988.048	233.97
1991.245	236.44
1994.441	239.16
1997.637	240.51
2000.833	245.58
2004.028	248.6
2007.223	249.97
2010.418	252.51
2013.613	257.04
2016.807	259.82
2020.001	262.29
2023.194	266.85
2026.388	272.33
2029.581	278.7
2032.774	281.35
2035.966	286.53
2039.158	287.16
2042.35	293.15
2045.542	294.72
2048.733	298.45
2051.924	302.09
2055.115	307.19
2058.306	307.8
2061.496	310.67
2064.686	309.38
2067.875	315.13
2071.065	316.71
2074.254	314.98
2077.442	319.07
2080.631	320.56
2083.819	323.51
2087.007	323.45
2090.195	327.47
2093.382	329.73
2096.569	327.78
2099.756	333.69
2102.942	334.48
2106.128	336.02
2109.314	344.74
2112.5	342.37
2115.685	350.07
2118.87	350.64
2122.055	358.1
2125.239	360.04
2128.424	364.82
2131.608	367.06
2134.791	371.04
2137.974	372.92
2141.157	374.88
2144.34	375.15
2147.523	381.11
2150.705	378.38
2153.887	381.7
2157.068	382.5
2160.25	379.28
2163.431	381.54
2166.611	386.72
2169.792	394.55
2172.972	397.89
2176.152	399.64
2179.331	405.23
2182.511	412.31
2185.69	416.26
2188.868	425.83
2192.047	425.88
2195.225	438.56
2198.403	448.69
2201.58	456.55
2204.758	463.72
2207.935	472.85
2211.111	483.26
2214.288	488
2217.464	488.31
2220.64	497.12
2223.815	503.21
2226.991	526.14
2230.166	525.98
2233.34	533.42
2236.515	544.24
2239.689	544.67
2242.863	548.66
2246.036	563.19
2249.209	560.25
2252.382	569.77
2255.555	586.91
2258.727	587.92
2261.9	589.16
2265.071	596.13
2268.243	607.36
2271.414	611.2
2274.585	626.26
2277.756	631.84
2280.926	637.22
2284.096	650.62
2287.266	666.26
2290.436	671.13
2293.605	686.62
2296.774	706.92
2299.942	728.14
2303.111	733.37
2306.279	752.23
2309.447	759.77
2312.614	780.64
2315.781	800.98
2318.948	838.74
2322.115	826.45
2325.281	869.56
2328.447	854.8
2331.613	888.11
2334.779	878.48
2337.944	915.51
2341.109	923.21
2344.274	951.99
2347.438	984.31
2350.602	984.54
2353.766	1014.07
2356.929	1028.47
2360.092	1021.97
2363.255	1094.05
2366.418	1095.33
2369.58	1115.84
2372.742	1184.47
2375.904	1214.04
2379.066	1204.92
2382.227	1185.57
2385.388	1288.24
2388.548	1289.94
2391.709	1308.49
2394.869	1455.39
2398.029	1397.11
2401.188	1434.03
2404.347	1424.92
2407.506	1402.82
2410.665	1439.74
2413.823	1523.89
2416.981	1613.56
2420.139	1560.02
2423.296	1542.37
2426.453	1604.24
2429.61	1546.91
2432.767	1609.75
2435.923	1594.9
2439.079	1751.33
2442.235	1768.93
2445.391	1757.24
2448.546	1750.27
2451.701	1697.28
2454.855	1693.49
2458.009	1790.62
2461.163	1873.06
2464.317	1942.75
2467.471	1992.88
2470.624	1997.28
2473.777	1937.85
2476.929	1896.9
2480.082	1842.08
2483.234	1817.54
2486.385	1914.63
2489.537	1921.59
2492.688	2004.21
2495.839	1939.6
2498.989	1896.31
2502.14	1913.59
2505.29	1926.3
2508.439	1957.01
2511.589	1948.69
2514.738	2124.92
2517.887	2081.02
2521.035	2192.48
2524.183	2215.29
2527.331	2228.1
2530.479	2221.23
2533.627	2236.24
