Data from C_2_HIR_IL_4N_Splice17_13-13-02-166.txt Node
Date: Sat Mar 07 13:13:02 EST 2020
User: sa697716
Spectrometer: NQ5500242
Trigger mode: 0
Integration Time (sec): 1.450000E-1
Scans to average: 20
Nonlinearity correction enabled: false
Boxcar width: 5
Storing dark spectrum: false
XAxis mode: Wavelengths
Number of Pixels in Spectrum: 512
>>>>>Begin Spectral Data<<<<<
187.83	173.77
188.298	187.99
188.766	170.84
189.233	151.07
189.701	140.86
190.169	150.8
190.636	179.21
191.104	251.42
191.571	248.76
192.039	11.66
192.506	-98.35
192.974	207.09
193.441	344.11
193.908	194.15
194.375	127.8
194.842	70.8
195.31	105.31
195.777	332.17
196.244	71.52
196.711	54.48
197.177	54.02
197.644	53.01
198.111	51.87
198.578	51.81
199.045	51.8
199.511	52.06
199.978	52
200.445	51.59
200.911	51.37
201.378	50.9
201.844	50.81
202.31	50.41
202.777	50.21
203.243	50.26
203.709	49.74
204.176	49.41
204.642	49.07
205.108	48.93
205.574	48.88
206.04	48.32
206.506	48.11
206.972	47.93
207.438	47.23
207.903	46.81
208.369	45.94
208.835	45.23
209.301	44.38
209.766	43.14
210.232	41.99
210.697	41
211.163	40.19
211.628	39.51
212.094	38.65
212.559	38.16
213.024	37.29
213.49	36.57
213.955	35.83
214.42	35.03
214.885	34.3
215.35	33.14
215.815	31.67
216.28	30.05
216.745	27.99
217.21	26.05
217.675	24.33
218.14	22.9
218.604	21.6
219.069	20.48
219.534	19.58
219.998	18.78
220.463	18.13
220.927	17.56
221.392	17.07
221.856	16.71
222.32	16.34
222.785	16.06
223.249	15.75
223.713	15.49
224.177	15.26
224.642	15.01
225.106	14.78
225.57	14.55
226.034	14.35
226.497	14.17
226.961	13.97
227.425	13.8
227.889	13.6
228.353	13.42
228.816	13.23
229.28	13.06
229.744	12.91
230.207	12.72
230.671	12.56
231.134	12.39
231.597	12.23
232.061	12.06
232.524	11.9
232.987	11.75
233.45	11.62
233.914	11.48
234.377	11.33
234.84	11.2
235.303	11.12
235.766	11
236.229	10.88
236.691	10.77
237.154	10.67
237.617	10.58
238.08	10.46
238.542	10.35
239.005	10.26
239.468	10.18
239.93	10.08
240.393	9.98
240.855	9.87
241.317	9.79
241.78	9.69
242.242	9.6
242.704	9.52
243.166	9.44
243.629	9.37
244.091	9.28
244.553	9.19
245.015	9.1
245.477	9.02
245.939	8.95
246.4	8.87
246.862	8.81
247.324	8.75
247.786	8.67
248.247	8.61
248.709	8.53
249.17	8.47
249.632	8.42
250.093	8.38
250.555	8.32
251.016	8.27
251.477	8.21
251.939	8.17
252.4	8.12
252.861	8.07
253.322	8.02
253.783	7.99
254.244	7.94
254.705	7.89
255.166	7.85
255.627	7.81
256.088	7.77
256.549	7.73
257.009	7.68
257.47	7.65
257.931	7.6
258.391	7.55
258.852	7.51
259.312	7.47
259.773	7.44
260.233	7.4
260.694	7.36
261.154	7.32
261.614	7.29
262.074	7.26
262.534	7.22
262.994	7.2
263.455	7.17
263.915	7.15
264.374	7.12
264.834	7.1
265.294	7.08
265.754	7.07
266.214	7.05
266.673	7.03
267.133	7.01
267.593	7
268.052	6.98
268.512	6.98
268.971	6.97
269.431	6.96
269.89	6.94
270.349	6.94
270.809	6.92
271.268	6.91
271.727	6.9
272.186	6.89
272.645	6.88
273.104	6.87
273.563	6.85
274.022	6.83
274.481	6.82
274.94	6.82
275.399	6.8
275.857	6.79
276.316	6.78
276.775	6.78
277.233	6.76
277.692	6.75
278.15	6.74
278.609	6.74
279.067	6.72
279.525	6.72
279.984	6.69
280.442	6.68
280.9	6.67
281.358	6.66
281.816	6.66
282.274	6.64
282.732	6.63
283.19	6.62
283.648	6.61
284.106	6.59
284.564	6.58
285.021	6.58
285.479	6.57
285.937	6.55
286.394	6.54
286.852	6.51
287.309	6.5
287.767	6.48
288.224	6.47
288.682	6.45
289.139	6.43
289.596	6.41
290.053	6.38
290.511	6.36
290.968	6.34
291.425	6.33
291.882	6.32
292.339	6.3
292.796	6.28
293.252	6.27
293.709	6.26
294.166	6.25
294.623	6.25
295.079	6.25
295.536	6.24
295.992	6.23
296.449	6.22
296.905	6.21
297.362	6.21
297.818	6.2
298.274	6.2
298.731	6.19
299.187	6.18
299.643	6.17
300.099	6.16
300.555	6.16
301.011	6.15
301.467	6.14
301.923	6.14
302.379	6.13
302.835	6.13
303.291	6.12
303.746	6.12
304.202	6.12
304.658	6.12
305.113	6.11
305.569	6.1
306.024	6.11
306.479	6.1
306.935	6.09
307.39	6.1
307.845	6.09
308.301	6.08
308.756	6.08
309.211	6.07
309.666	6.08
310.121	6.07
310.576	6.07
311.031	6.06
311.486	6.06
311.94	6.06
312.395	6.06
312.85	6.05
313.305	6.05
313.759	6.04
314.214	6.04
314.668	6.03
315.123	6.02
315.577	6.02
316.032	6.02
316.486	6.01
316.94	6
317.394	5.99
317.849	5.98
318.303	5.97
318.757	5.95
319.211	5.95
319.665	5.93
320.119	5.92
320.572	5.9
321.026	5.88
321.48	5.87
321.934	5.86
322.387	5.84
322.841	5.83
323.295	5.83
323.748	5.81
324.202	5.81
324.655	5.8
325.108	5.81
325.562	5.81
326.015	5.81
326.468	5.8
326.921	5.8
327.374	5.8
327.827	5.8
328.28	5.79
328.733	5.79
329.186	5.78
329.639	5.78
330.092	5.77
330.545	5.76
330.997	5.75
331.45	5.75
331.903	5.75
332.355	5.75
332.808	5.74
333.26	5.74
333.713	5.73
334.165	5.72
334.617	5.72
335.069	5.72
335.522	5.73
335.974	5.73
336.426	5.72
336.878	5.71
337.33	5.69
337.782	5.69
338.234	5.69
338.686	5.69
339.137	5.69
339.589	5.67
340.041	5.66
340.493	5.64
340.944	5.62
341.396	5.61
341.847	5.6
342.299	5.58
342.75	5.57
343.201	5.55
343.653	5.53
344.104	5.51
344.555	5.49
345.006	5.48
345.457	5.46
345.908	5.46
346.359	5.45
346.81	5.44
347.261	5.44
347.712	5.44
348.163	5.42
348.613	5.42
349.064	5.42
349.515	5.42
349.965	5.42
350.416	5.41
350.866	5.41
351.317	5.4
351.767	5.4
352.217	5.39
352.668	5.38
353.118	5.39
353.568	5.39
354.018	5.39
354.468	5.39
354.918	5.39
355.368	5.39
355.818	5.39
356.268	5.39
356.718	5.4
357.168	5.39
357.617	5.39
358.067	5.38
358.517	5.4
358.966	5.4
359.416	5.41
359.865	5.41
360.315	5.42
360.764	5.41
361.213	5.41
361.663	5.4
362.112	5.41
362.561	5.42
363.01	5.42
363.459	5.41
363.908	5.4
364.357	5.41
364.806	5.41
365.255	5.42
365.703	5.44
366.152	5.46
366.601	5.48
367.05	5.49
367.498	5.5
367.947	5.53
368.395	5.57
368.844	5.6
369.292	5.63
369.74	5.66
370.189	5.69
370.637	5.73
371.085	5.76
371.533	5.81
371.981	5.86
372.429	5.92
372.877	5.98
373.325	6.04
373.773	6.11
374.221	6.19
374.669	6.28
375.116	6.38
375.564	6.48
376.012	6.61
376.459	6.73
376.907	6.86
377.354	7
377.801	7.14
378.249	7.29
378.696	7.44
379.143	7.61
379.591	7.77
380.038	7.94
380.485	8.11
380.932	8.29
381.379	8.47
381.826	8.66
382.273	8.85
382.72	9.04
383.166	9.24
383.613	9.44
384.06	9.63
384.506	9.83
384.953	10.05
385.4	10.25
385.846	10.46
386.292	10.66
386.739	10.85
387.185	11.05
387.631	11.26
388.078	11.46
388.524	11.66
388.97	11.86
389.416	12.05
389.862	12.23
390.308	12.4
390.754	12.57
391.2	12.73
391.645	12.88
392.091	13.05
392.537	13.19
392.983	13.33
393.428	13.47
393.874	13.59
394.319	13.71
394.765	13.8
395.21	13.9
395.655	13.99
396.101	14.09
396.546	14.16
396.991	14.23
397.436	14.3
397.881	14.38
398.326	14.44
398.771	14.51
399.216	14.55
399.661	14.59
400.106	14.62
400.551	14.63
400.995	14.63
401.44	14.65
401.885	14.65
402.329	14.65
402.774	14.66
403.218	14.67
403.663	14.67
404.107	14.67
404.551	14.66
404.995	14.65
405.44	14.66
405.884	14.65
406.328	14.65
406.772	14.63
407.216	14.62
407.66	14.57
408.104	14.53
408.547	14.5
408.991	14.48
409.435	14.45
409.879	14.44
410.322	14.42
410.766	14.41
411.209	14.4
411.653	14.36
412.096	14.35
412.54	14.32
412.983	14.31
413.426	14.31
413.869	14.29
414.312	14.29
414.756	14.27
415.199	14.23
415.642	14.19
416.085	14.14
416.527	14.09
416.97	14.01
417.413	13.97
417.856	13.93
418.298	13.87
418.741	13.83
419.184	13.77
419.626	13.74
420.069	13.71
420.511	13.69
420.953	13.68
421.396	13.67
421.838	13.65
422.28	13.64
422.722	13.63
423.164	13.61
423.606	13.57
424.048	13.55
424.49	13.5
424.932	13.46
425.374	13.4
425.816	13.34
426.258	13.3
426.699	13.29
427.141	13.29
427.582	13.27
428.024	13.26
428.465	13.26
428.907	13.25
429.348	13.24
429.789	13.25
430.231	13.28
430.672	13.31
431.113	13.35
431.554	13.35
431.995	13.34
432.436	13.34
432.877	13.35
433.318	13.38
433.759	13.39
434.2	13.43
434.64	13.44
435.081	13.47
435.522	13.48
435.962	13.49
436.403	13.52
436.843	13.55
437.284	13.55
437.724	13.56
438.164	13.57
438.604	13.61
439.045	13.64
439.485	13.65
439.925	13.67
440.365	13.71
440.805	13.73
441.245	13.79
441.685	13.84
442.125	13.92
442.564	13.98
443.004	14.03
443.444	14.08
443.883	14.15
444.323	14.21
444.762	14.29
445.202	14.36
445.641	14.43
446.081	14.49
446.52	14.55
446.959	14.63
447.398	14.7
447.837	14.79
448.276	14.85
448.716	14.94
449.154	15.03
449.593	15.08
450.032	15.13
450.471	15.19
450.91	15.23
451.349	15.3
451.787	15.35
452.226	15.39
452.664	15.44
453.103	15.48
453.541	15.52
453.98	15.58
454.418	15.62
454.856	15.68
455.295	15.72
455.733	15.78
456.171	15.82
456.609	15.87
457.047	15.91
457.485	15.96
457.923	16
458.361	16.04
458.798	16.07
459.236	16.12
459.674	16.17
460.111	16.22
460.549	16.29
460.987	16.33
461.424	16.37
461.862	16.43
462.299	16.46
462.736	16.5
463.173	16.54
463.611	16.56
464.048	16.58
464.485	16.6
464.922	16.6
465.359	16.59
465.796	16.59
466.233	16.59
466.67	16.6
467.106	16.61
467.543	16.6
467.98	16.57
468.416	16.56
468.853	16.55
469.29	16.52
469.726	16.51
470.162	16.49
470.599	16.46
471.035	16.42
471.471	16.38
471.907	16.36
472.344	16.34
472.78	16.32
473.216	16.29
473.652	16.28
474.088	16.26
474.523	16.25
474.959	16.24
475.395	16.21
475.831	16.2
476.266	16.2
476.702	16.18
477.138	16.17
477.573	16.18
478.008	16.19
478.444	16.19
478.879	16.21
479.314	16.21
479.75	16.23
480.185	16.25
480.62	16.27
481.055	16.29
481.49	16.34
481.925	16.38
482.36	16.44
482.795	16.5
483.229	16.57
483.664	16.66
484.099	16.75
484.534	16.83
484.968	16.94
485.403	17.04
485.837	17.16
486.271	17.3
486.706	17.43
487.14	17.57
487.574	17.72
488.009	17.89
488.443	18.04
488.877	18.22
489.311	18.42
489.745	18.63
490.179	18.85
490.613	19.06
491.046	19.28
491.48	19.51
491.914	19.75
492.348	19.98
492.781	20.23
493.215	20.49
493.648	20.75
494.082	21
494.515	21.26
494.948	21.54
495.382	21.82
495.815	22.11
496.248	22.41
496.681	22.71
497.114	23.02
497.547	23.32
497.98	23.62
498.413	23.94
498.846	24.26
499.279	24.58
499.711	24.91
500.144	25.26
500.577	25.6
501.009	25.92
501.442	26.26
501.874	26.61
502.306	26.97
502.739	27.35
503.171	27.71
503.603	28.07
504.036	28.44
504.468	28.81
504.9	29.17
505.332	29.57
505.764	29.96
506.196	30.34
506.627	30.72
507.059	31.11
507.491	31.49
507.923	31.88
508.354	32.29
508.786	32.68
509.217	33.07
509.649	33.46
510.08	33.83
510.512	34.2
510.943	34.58
511.374	34.97
511.805	35.32
512.237	35.69
512.668	36.07
513.099	36.41
513.53	36.77
513.961	37.12
514.391	37.47
514.822	37.83
515.253	38.17
515.684	38.47
516.114	38.79
516.545	39.11
516.975	39.43
517.406	39.73
517.836	40.02
518.267	40.32
518.697	40.58
519.127	40.84
519.558	41.09
519.988	41.36
520.418	41.62
520.848	41.86
521.278	42.11
521.708	42.5
522.138	42.71
522.567	42.93
522.997	43.12
523.427	43.33
523.857	43.53
524.286	43.71
524.716	43.88
525.145	44.05
525.575	44.22
526.004	44.37
526.433	44.35
526.863	44.51
527.292	44.66
527.721	44.81
528.15	44.92
528.579	45.05
529.008	45.18
529.437	45.29
529.866	45.43
530.295	45.56
530.724	45.67
531.152	45.79
531.581	45.9
532.01	46.01
532.438	46.08
532.867	46.21
533.295	46.29
533.723	46.38
534.152	46.47
534.58	46.55
535.008	46.59
535.436	46.66
535.865	46.73
536.293	46.79
536.721	46.86
537.149	46.93
537.576	46.99
538.004	47.06
538.432	47.12
538.86	47.18
539.287	47.21
539.715	47.27
540.143	47.31
540.57	47.34
540.998	47.35
541.425	47.38
541.852	47.41
542.28	47.44
542.707	47.47
543.134	47.51
543.561	47.54
543.988	47.56
544.415	47.57
544.842	47.6
545.269	47.61
545.696	47.65
546.123	47.67
546.549	47.68
546.976	47.68
547.403	47.7
547.829	47.7
548.256	47.71
548.682	47.73
549.108	47.76
549.535	47.77
549.961	47.79
550.387	47.78
550.813	47.79
551.24	47.8
551.666	47.8
552.092	47.79
552.518	47.78
552.943	47.77
553.369	47.76
553.795	47.77
554.221	47.76
554.646	47.76
555.072	47.74
555.498	47.72
555.923	47.7
556.349	47.68
556.774	47.66
557.199	47.64
557.625	47.6
558.05	47.59
558.475	47.54
558.9	47.54
559.325	47.5
559.75	47.47
560.175	47.45
560.6	47.38
561.025	47.33
561.449	47.27
561.874	47.21
562.299	47.16
562.723	47.09
563.148	47.02
563.572	46.91
563.997	46.82
564.421	46.73
564.846	46.66
565.27	46.59
565.694	46.51
566.118	46.45
566.542	46.39
566.966	46.3
567.39	46.23
567.814	46.14
568.238	46.06
568.662	46
569.086	45.94
569.509	45.84
569.933	45.76
570.357	45.68
570.78	45.57
571.204	45.49
571.627	45.4
572.05	45.32
572.474	45.27
572.897	45.22
573.32	45.12
573.743	45.02
574.166	44.96
574.589	44.87
575.012	44.79
575.435	44.72
575.858	44.64
576.281	44.56
576.704	44.48
577.126	44.38
577.549	44.3
577.972	44.22
578.394	44.15
578.817	44.07
579.239	44.03
579.661	43.96
580.084	43.9
580.506	43.83
580.928	43.78
581.35	43.73
581.772	43.67
582.194	43.62
582.616	43.57
583.038	43.53
583.46	43.47
583.882	43.41
584.303	43.33
584.725	43.29
585.147	43.23
585.568	43.16
585.99	43.11
586.411	43.05
586.833	42.99
587.254	42.93
587.675	42.87
588.096	42.82
588.518	42.77
588.939	42.74
589.36	42.67
589.781	42.64
590.202	42.63
590.623	42.59
591.043	42.55
591.464	42.52
591.885	42.48
592.305	42.45
592.726	42.41
593.147	42.39
593.567	42.33
593.987	42.29
594.408	42.23
594.828	42.17
595.248	42.12
595.669	42.06
596.089	42.01
596.509	42
596.929	41.95
597.349	41.89
597.769	41.85
598.189	41.82
598.608	41.8
599.028	41.75
599.448	41.73
599.867	41.66
600.287	41.65
600.706	41.6
601.126	41.55
601.545	41.53
601.965	41.51
602.384	41.46
602.803	41.4
603.222	41.36
603.641	41.31
604.061	41.26
604.48	41.23
604.898	41.17
605.317	41.12
605.736	41.06
606.155	41
606.574	40.92
606.992	40.86
607.411	40.83
607.829	40.75
608.248	40.69
608.666	40.61
609.085	40.55
609.503	40.5
609.921	40.44
610.339	40.38
610.758	40.3
611.176	40.25
611.594	40.17
612.012	40.1
612.43	40.04
612.847	39.98
613.265	39.91
613.683	39.84
614.101	39.76
614.518	39.67
614.936	39.59
615.353	39.51
615.771	39.44
616.188	39.39
616.606	39.33
617.023	39.28
617.44	39.23
617.857	39.16
618.274	39.11
618.691	39.06
619.108	39.02
619.525	38.98
619.942	38.95
620.359	38.92
620.776	38.86
621.192	38.82
621.609	38.79
622.026	38.75
622.442	38.73
622.859	38.7
623.275	38.68
623.691	38.66
624.108	38.63
624.524	38.6
624.94	38.59
625.356	38.58
625.772	38.56
626.188	38.56
626.604	38.56
627.02	38.56
627.436	38.55
627.852	38.55
628.268	38.54
628.683	38.54
629.099	38.54
629.514	38.51
629.93	38.49
630.345	38.49
630.761	38.44
631.176	38.41
631.591	38.34
632.007	38.28
632.422	38.22
632.837	38.16
633.252	38.07
633.667	37.98
634.082	37.88
634.497	37.8
634.911	37.68
635.326	37.55
635.741	37.4
636.155	37.24
636.57	37.1
636.984	36.91
637.399	36.72
637.813	36.54
638.228	36.31
638.642	36.08
639.056	35.83
639.47	35.58
639.884	35.34
640.298	35.09
640.712	34.85
641.126	34.58
641.54	34.31
641.954	34.05
642.368	33.79
642.781	33.54
643.195	33.3
643.609	33.05
644.022	32.8
644.436	32.56
644.849	32.34
645.262	32.11
645.676	31.9
646.089	31.71
646.502	31.52
646.915	31.35
647.328	31.19
647.741	31.03
648.154	30.89
648.567	30.78
648.98	30.65
649.393	30.54
649.805	30.47
650.218	30.38
650.631	30.31
651.043	30.22
651.456	30.14
651.868	30.05
652.28	29.98
652.693	29.92
653.105	29.84
653.517	29.77
653.929	29.69
654.341	29.59
654.753	29.48
655.165	29.35
655.577	29.23
655.989	29.1
656.401	28.97
656.813	28.82
657.224	28.65
657.636	28.47
658.047	28.29
658.459	28.11
658.87	27.9
659.282	27.69
659.693	27.49
660.104	27.26
660.515	27.04
660.926	26.8
661.338	26.57
661.749	26.34
662.159	26.1
662.57	25.87
662.981	25.63
663.392	25.4
663.803	25.19
664.213	24.97
664.624	24.77
665.035	24.56
665.445	24.37
665.855	24.19
666.266	24.01
666.676	23.86
667.086	23.69
667.497	23.54
667.907	23.4
668.317	23.27
668.727	23.16
669.137	23.06
669.547	22.96
669.956	22.88
670.366	22.8
670.776	22.73
671.186	22.67
671.595	22.63
672.005	22.58
672.414	22.56
672.824	22.55
673.233	22.55
673.642	22.55
674.052	22.57
674.461	22.61
674.87	22.64
675.279	22.7
675.688	22.77
676.097	22.86
676.506	22.96
676.915	23.08
677.323	23.21
677.732	23.35
678.141	23.52
678.549	23.73
678.958	23.96
679.366	24.23
679.775	24.53
680.183	24.86
680.592	25.23
681	25.62
681.408	26.07
681.816	26.53
682.224	27.04
682.632	27.6
683.04	28.14
683.448	28.73
683.856	29.33
684.264	29.98
684.671	30.65
685.079	31.32
685.487	32.02
685.894	32.75
686.302	33.48
686.709	34.21
687.116	34.91
687.524	35.67
687.931	36.4
688.338	37.13
688.745	37.85
689.152	38.53
689.559	39.25
689.966	39.94
690.373	40.61
690.78	41.26
691.187	41.89
691.593	42.52
692	43.12
692.407	43.66
692.813	44.22
693.22	44.72
693.626	45.23
694.032	45.73
694.439	46.21
694.845	46.65
695.251	47.08
695.657	47.47
696.063	47.86
696.469	48.24
696.875	48.64
697.281	49
697.687	49.35
698.093	49.69
698.498	50
698.904	50.28
699.31	50.57
699.715	50.84
700.12	51.1
700.526	51.34
700.931	51.56
701.337	51.77
701.742	51.98
702.147	52.18
702.552	52.35
702.957	52.48
703.362	52.65
703.767	52.8
704.172	52.95
704.577	53.11
704.981	53.27
705.386	53.41
705.791	53.53
706.195	53.66
706.6	53.81
707.004	53.94
707.408	54.12
707.813	54.26
708.217	54.38
708.621	54.51
709.025	54.63
709.43	54.73
709.834	54.84
710.237	54.93
710.641	55.02
711.045	55.09
711.449	55.19
711.853	55.28
712.256	55.38
712.66	55.45
713.064	55.52
713.467	55.59
713.87	55.66
714.274	55.75
714.677	55.84
715.08	55.89
715.484	55.98
715.887	56.07
716.29	56.12
716.693	56.18
717.096	56.28
717.499	56.35
717.901	56.39
718.304	56.47
718.707	56.53
719.109	56.6
719.512	56.67
719.915	56.73
720.317	56.74
720.719	56.76
721.122	56.79
721.524	56.82
721.926	56.88
722.328	56.96
722.731	57.01
723.133	57.05
723.535	57.08
723.937	57.13
724.338	57.16
724.74	57.21
725.142	57.35
725.544	57.38
725.945	57.44
726.347	57.44
726.748	57.46
727.15	57.46
727.551	57.49
727.952	57.5
728.354	57.53
728.755	57.54
729.156	57.55
729.557	57.47
729.958	57.47
730.359	57.43
730.76	57.47
731.161	57.47
731.562	57.51
731.962	57.5
732.363	57.5
732.763	57.53
733.164	57.53
733.564	57.56
733.965	57.59
734.365	57.62
734.766	57.64
735.166	57.65
735.566	57.66
735.966	57.68
736.366	57.67
736.766	57.68
737.166	57.69
737.566	57.71
737.966	57.72
738.365	57.73
738.765	57.75
739.165	57.76
739.564	57.76
739.964	57.73
740.363	57.71
740.763	57.72
741.162	57.74
741.561	57.74
741.96	57.7
742.36	57.69
742.759	57.65
743.158	57.64
743.557	57.61
743.955	57.59
744.354	57.62
744.753	57.63
745.152	57.65
745.55	57.66
745.949	57.65
746.348	57.68
746.746	57.67
747.144	57.7
747.543	57.69
747.941	57.72
748.339	57.71
748.737	57.71
749.136	57.7
749.534	57.66
749.932	57.64
750.33	57.62
750.727	57.61
751.125	57.6
751.523	57.58
751.921	57.6
752.318	57.58
752.716	57.6
753.113	57.59
753.511	57.58
753.908	57.6
754.305	57.59
754.703	57.59
755.1	57.58
755.497	57.57
755.894	57.55
756.291	57.53
756.688	57.52
757.085	57.5
757.482	57.5
757.878	57.51
758.275	57.47
758.672	57.47
759.068	57.47
759.465	57.5
759.861	57.52
760.258	57.57
760.654	57.55
761.05	57.57
761.447	57.6
761.843	57.57
762.239	57.55
762.635	57.56
763.031	57.57
763.427	57.57
763.822	57.55
764.218	57.52
764.614	57.51
765.01	57.51
765.405	57.5
765.801	57.46
766.196	57.48
766.592	57.48
766.987	57.48
767.382	57.44
767.778	57.43
768.173	57.42
768.568	57.39
768.963	57.35
769.358	57.35
769.753	57.33
770.148	57.33
770.542	57.32
770.937	57.31
771.332	57.3
771.726	57.27
772.121	57.26
772.515	57.24
772.91	57.27
773.304	57.32
773.699	57.29
774.093	57.27
774.487	57.26
774.881	57.26
775.275	57.25
775.669	57.22
776.063	57.24
776.457	57.25
776.851	57.24
777.245	57.19
777.638	57.17
778.032	57.18
778.425	57.21
778.819	57.18
779.212	57.17
779.606	57.19
779.999	57.19
780.392	57.22
780.786	57.2
781.179	57.2
781.572	57.24
781.965	57.23
782.358	57.24
782.751	57.22
783.143	57.24
783.536	57.22
783.929	57.23
784.322	57.25
784.714	57.24
785.107	57.25
785.499	57.27
785.891	57.28
786.284	57.29
786.676	57.28
787.068	57.27
787.46	57.3
787.852	57.34
788.245	57.3
788.636	57.31
789.028	57.3
789.42	57.31
789.812	57.29
790.204	57.27
790.595	57.27
790.987	57.29
791.378	57.32
791.77	57.32
792.161	57.3
792.553	57.32
792.944	57.32
793.335	57.32
793.726	57.32
794.117	57.31
794.508	57.29
794.899	57.29
795.29	57.3
795.681	57.27
796.072	57.26
796.463	57.29
796.853	57.26
797.244	57.25
797.634	57.25
798.025	57.26
798.415	57.23
798.806	57.22
799.196	57.22
799.586	57.2
799.976	57.2
800.366	57.22
800.756	57.21
801.146	57.24
801.536	57.27
801.926	57.26
802.316	57.27
802.706	57.32
803.095	57.33
803.485	57.3
803.874	57.3
804.264	57.28
804.653	57.27
805.043	57.27
805.432	57.26
805.821	57.25
806.21	57.28
806.599	57.27
806.988	57.24
807.377	57.26
807.766	57.27
808.155	57.24
808.544	57.28
808.933	57.26
809.321	57.24
809.71	57.25
810.098	57.2
810.487	57.16
810.875	57.15
811.264	57.12
811.652	57.11
812.04	57.09
812.428	57.12
812.816	57.11
813.204	57.08
813.592	57.05
813.98	57.04
814.368	57.08
814.756	57.08
815.144	57.07
815.531	57.07
815.919	57.07
816.306	57.07
816.694	57.08
817.081	57.09
817.469	57.11
817.856	57.12
818.243	57.09
818.63	57.07
819.017	57.08
819.404	57.07
819.791	57.09
820.178	57.08
820.565	57.07
820.952	57.06
821.339	57.05
821.725	57.06
822.112	57.07
822.498	57.13
822.885	57.15
823.271	57.13
823.657	57.11
824.044	57.11
824.43	57.12
824.816	57.13
825.202	57.12
825.588	57.11
825.974	57.09
826.36	57.08
826.746	57.03
827.132	57.01
827.517	57.04
827.903	57.07
828.289	57.08
828.674	57.09
829.06	57.08
829.445	57.07
829.83	57.06
830.216	57.06
830.601	57.06
830.986	57.06
831.371	57.05
831.756	57.04
832.141	57.04
832.526	57.01
832.911	56.99
833.295	56.99
833.68	57
834.065	57.03
834.449	57
834.834	57.01
835.218	57.02
835.603	57.03
835.987	57
836.371	56.98
836.755	56.97
837.139	56.97
837.524	56.97
837.908	56.96
838.291	56.95
838.675	56.94
839.059	56.96
839.443	56.92
839.827	56.9
840.21	56.88
840.594	56.9
840.977	56.9
841.361	56.89
841.744	56.84
842.127	56.82
842.511	56.79
842.894	56.8
843.277	56.77
843.66	56.76
844.043	56.78
844.426	56.78
844.809	56.78
845.191	56.78
845.574	56.76
845.957	56.8
846.339	56.82
846.722	56.84
847.104	56.86
847.487	56.86
847.869	56.84
848.252	56.84
848.634	56.84
849.016	56.82
849.398	56.84
849.78	56.83
850.162	56.81
850.544	56.82
850.926	56.77
851.307	56.74
851.689	56.74
852.071	56.78
852.452	56.79
852.834	56.79
853.215	56.79
853.597	56.79
853.978	56.78
854.359	56.78
854.741	56.76
855.122	56.78
855.503	56.79
855.884	56.77
856.265	56.75
856.646	56.73
857.026	56.72
857.407	56.73
857.788	56.71
858.169	56.73
858.549	56.73
858.93	56.73
859.31	56.72
859.69	56.72
860.071	56.74
860.451	56.73
860.831	56.71
861.211	56.69
861.591	56.67
861.971	56.66
862.351	56.68
862.731	56.66
863.111	56.64
863.491	56.65
863.87	56.65
864.25	56.61
864.629	56.63
865.009	56.62
865.388	56.62
865.768	56.64
866.147	56.64
866.526	56.63
866.905	56.64
867.284	56.68
867.663	56.65
868.042	56.66
868.421	56.68
868.8	56.68
869.179	56.7
869.558	56.69
869.936	56.66
870.315	56.64
870.693	56.64
871.072	56.65
871.45	56.65
871.828	56.68
872.207	56.67
872.585	56.66
872.963	56.68
873.341	56.66
873.719	56.67
874.097	56.68
874.475	56.7
874.853	56.68
875.23	56.69
875.608	56.69
875.986	56.71
876.363	56.7
876.741	56.7
877.118	56.7
877.495	56.69
877.873	56.72
878.25	56.75
878.627	56.76
879.004	56.78
879.381	56.75
879.758	56.72
880.135	56.69
880.512	56.67
880.889	56.67
881.265	56.65
881.642	56.65
882.019	56.64
882.395	56.61
882.772	56.59
883.148	56.54
883.524	56.54
883.901	56.55
884.277	56.53
884.653	56.5
885.029	56.49
885.405	56.48
885.781	56.47
886.157	56.47
886.532	56.46
886.908	56.45
887.284	56.45
887.659	56.42
888.035	56.39
888.411	56.38
888.786	56.39
889.161	56.39
889.537	56.38
889.912	56.38
890.287	56.37
890.662	56.36
891.037	56.36
891.412	56.33
891.787	56.32
892.162	56.34
892.536	56.34
892.911	56.32
893.286	56.32
893.66	56.31
894.035	56.32
894.409	56.29
894.784	56.29
895.158	56.28
895.532	56.3
895.906	56.3
896.281	56.29
896.655	56.29
897.029	56.32
897.402	56.28
897.776	56.29
898.15	56.28
898.524	56.31
898.898	56.28
899.271	56.28
899.645	56.3
900.018	56.32
900.392	56.35
900.765	56.36
901.138	56.34
901.511	56.38
901.884	56.39
902.258	56.41
902.631	56.4
903.003	56.44
903.376	56.44
903.749	56.44
904.122	56.44
904.495	56.43
904.867	56.43
905.24	56.46
905.612	56.46
905.985	56.44
906.357	56.43
906.729	56.45
907.102	56.45
907.474	56.46
907.846	56.46
908.218	56.44
908.59	56.45
908.962	56.44
909.334	56.43
909.705	56.42
910.077	56.43
910.449	56.41
910.82	56.4
911.192	56.41
911.563	56.4
911.935	56.38
912.306	56.39
912.677	56.41
913.048	56.43
913.419	56.41
913.79	56.45
914.161	56.46
914.532	56.47
914.903	56.47
915.274	56.46
915.645	56.5
916.015	56.49
916.386	56.48
916.756	56.45
917.127	56.46
917.497	56.46
917.868	56.43
918.238	56.41
918.608	56.44
918.978	56.45
919.348	56.46
919.718	56.43
920.088	56.43
920.458	56.44
920.828	56.45
921.198	56.41
921.567	56.44
921.937	56.45
922.306	56.44
922.676	56.41
923.045	56.41
923.415	56.4
923.784	56.41
924.153	56.41
924.522	56.39
924.891	56.39
925.26	56.41
925.629	56.39
925.998	56.39
926.367	56.42
926.736	56.44
927.104	56.42
927.473	56.42
927.842	56.37
928.21	56.38
928.578	56.36
928.947	56.36
929.315	56.33
929.683	56.3
930.051	56.28
930.42	56.22
930.788	56.15
931.156	56.12
931.523	56.08
931.891	56.13
932.259	56.12
932.627	56.13
932.994	56.09
933.362	56.07
933.729	56.08
934.097	56.09
934.464	56.12
934.831	56.17
935.199	56.16
935.566	56.17
935.933	56.08
936.3	56.04
936.667	56.01
937.034	56.06
937.401	56.07
937.767	56.05
938.134	56
938.501	56.01
938.867	55.96
939.234	55.98
939.6	55.95
939.967	56.02
940.333	56.01
940.699	56.07
941.065	55.97
941.431	55.95
941.798	55.93
942.163	55.94
942.529	55.91
942.895	55.91
943.261	55.87
943.627	55.87
943.992	55.82
944.358	55.82
944.723	55.77
945.089	55.75
945.454	55.77
945.82	55.76
946.185	55.74
946.55	55.62
946.915	55.59
947.28	55.58
947.645	55.59
948.01	55.56
948.375	55.53
948.74	55.49
949.104	55.53
949.469	55.43
949.834	55.32
950.198	55.33
950.562	55.32
950.927	55.31
951.291	55.24
951.655	55.17
952.02	55.18
952.384	55.14
952.748	55.08
953.112	55.04
953.476	55.04
953.839	55.01
954.203	55.03
954.567	55.04
954.931	54.97
955.294	54.96
955.658	55.04
956.021	54.98
956.385	54.96
956.748	54.95
957.111	54.93
957.474	54.95
957.837	54.93
958.2	54.85
958.563	54.83
958.926	54.87
959.289	54.87
959.652	54.8
960.015	54.8
960.377	54.79
960.74	54.85
961.102	54.83
961.465	54.88
961.827	54.96
962.189	55.04
962.552	55.04
962.914	55.02
963.276	55.07
963.638	55.06
964	55.07
964.362	55.13
964.724	55.1
965.085	55.09
965.447	55.06
965.809	55.03
966.17	54.92
966.532	54.93
966.893	54.94
967.255	54.95
967.616	54.97
967.977	55.02
968.338	54.97
968.699	55
969.061	55.02
969.421	55.03
969.782	55.07
970.143	55.13
970.504	55.19
970.865	55.25
971.225	55.19
971.586	55.17
971.946	55.11
972.307	55.08
972.667	55.05
973.027	55.07
973.388	55.04
973.748	55.02
974.108	55.02
974.468	54.99
974.828	54.99
975.188	54.96
975.548	55.01
975.907	55.02
976.267	55.09
976.627	55.09
976.986	55.04
977.346	55.05
977.705	55.04
978.064	55.04
978.424	55.08
978.783	54.97
979.142	55
979.501	55
979.86	55.02
980.219	55
980.578	55
980.937	55.07
981.296	55.06
981.654	55.06
982.013	55.02
982.371	55
982.73	55.05
983.088	55.07
983.447	55.04
983.805	55.1
984.163	55.06
984.521	55.05
984.879	54.94
985.237	54.92
985.595	54.93
985.953	54.97
986.311	54.95
986.669	54.9
987.026	54.89
987.384	54.89
987.741	54.8
988.099	54.86
988.456	54.84
988.814	54.98
989.171	55.02
989.528	55
989.885	55
990.242	55.04
990.599	55.2
990.956	55.27
991.313	55.28
991.67	55.29
992.027	55.36
992.383	55.41
992.74	55.39
993.096	55.32
993.453	55.35
993.809	55.38
994.165	55.42
994.522	55.35
994.878	55.29
995.234	55.33
995.59	55.33
995.946	55.32
996.302	55.31
996.658	55.26
997.013	55.38
997.369	55.33
997.725	55.34
998.08	55.36
998.436	55.36
998.791	55.4
999.147	55.31
999.502	55.34
999.857	55.34
1000.212	55.33
1000.567	55.37
1000.922	55.35
1001.277	55.49
1001.632	55.4
1001.987	55.33
1002.342	55.35
1002.696	55.38
1003.051	55.6
1003.406	55.74
1003.76	55.65
1004.114	55.69
1004.469	55.82
1004.823	56.11
1005.177	56.08
1005.531	56.22
1005.885	56.32
1006.239	56.39
1006.593	56.39
1006.947	56.47
1007.301	56.48
1007.655	56.51
1008.008	56.51
1008.362	56.47
1008.715	56.17
1009.069	56.27
1009.422	56.26
1009.776	56.27
1010.129	56.07
1010.482	56.01
1010.835	55.85
1011.188	55.87
1011.541	55.9
1011.894	55.91
1012.247	55.92
1012.6	55.95
1012.952	55.88
1013.305	55.94
1013.657	55.88
1014.01	56.09
1014.362	56.19
1014.715	56.23
1015.067	56.16
1015.419	56.3
1015.771	56.26
1016.123	56.21
1016.475	56.3
1016.827	56.27
1017.179	56.26
1017.531	56.31
1017.883	56.11
1018.234	56.22
1018.586	56.33
1018.938	56.45
1019.289	56.32
1019.64	56.37
1019.992	56.45
1020.343	56.49
1020.694	56.52
1021.045	56.63
1021.396	56.74
1021.747	57.01
1022.098	57.05
1022.449	57.02
1022.8	57.17
1023.151	57.08
1023.501	57.24
1023.852	57.42
1024.202	57.5
1024.553	57.4
1024.903	57.35
1025.253	57.65
1025.604	57.44
1025.954	57.32
1026.304	57.3
1026.654	57.11
1027.004	57.33
1027.354	57.12
1027.703	56.76
1028.053	56.84
1028.403	57.05
1028.753	56.89
1029.102	56.88
1029.452	57.38
1029.801	57.69
1030.15	57.71
1030.499	57.75
897.758	1267.43
901.051	1276.58
904.343	1273.48
907.636	1298.85
910.928	1260.78
914.22	1259.79
917.511	1241.01
920.803	1190.44
924.094	1184.2
927.384	1154.91
930.675	1114.7
933.965	1108.25
937.255	1042.82
940.544	1001.23
943.834	951.59
947.123	947.1
950.411	891.56
953.7	873.38
956.988	824.62
960.276	794.96
963.563	782.11
966.851	751.04
970.138	745.19
973.424	721.93
976.711	723.33
979.997	690.63
983.283	685.83
986.568	672.33
989.853	651.77
993.138	641.89
996.423	615.25
999.708	599.86
1002.992	594.86
1006.275	567.49
1009.559	563.57
1012.842	544.79
1016.125	528.37
1019.408	519.5
1022.69	513.13
1025.972	503.22
1029.254	491.39
1032.536	484.31
1035.817	472.73
1039.098	466.69
1042.379	459.59
1045.659	453.38
1048.939	442.26
1052.219	433.96
1055.498	428.17
1058.778	418.24
1062.057	408.67
1065.335	404.78
1068.614	399.62
1071.892	396.4
1075.17	383.64
1078.447	375.28
1081.724	373.35
1085.001	371.56
1088.278	363.58
1091.554	355.98
1094.83	356.3
1098.106	354.43
1101.382	351.06
1104.657	348.87
1107.932	342.7
1111.206	345.14
1114.481	337.26
1117.755	333.27
1121.029	330.8
1124.302	331.04
1127.575	324.02
1130.848	320.07
1134.121	316.84
1137.393	314.89
1140.665	308.23
1143.937	306.22
1147.208	304.59
1150.48	303.57
1153.75	300.98
1157.021	295.74
1160.291	296.03
1163.561	293.6
1166.831	293.64
1170.101	290.64
1173.37	290.39
1176.639	291.47
1179.907	288.74
1183.176	284.91
1186.444	285.07
1189.711	283.46
1192.979	283.45
1196.246	281.6
1199.513	281.81
1202.78	280.32
1206.046	280.69
1209.312	277.17
1212.578	276.93
1215.843	279.72
1219.108	278.38
1222.373	283.62
1225.638	286.23
1228.902	289.58
1232.166	289.28
1235.43	292.57
1238.693	295.78
1241.956	297.13
1245.219	302.9
1248.482	303.35
1251.744	302.63
1255.006	303.87
1258.268	296.55
1261.529	294.12
1264.79	292.36
1268.051	291.24
1271.312	287.24
1274.572	283.26
1277.832	281.28
1281.092	275.67
1284.351	273.65
1287.61	274.14
1290.869	269.49
1294.128	267.97
1297.386	268.56
1300.644	265.1
1303.902	266.01
1307.159	264.68
1310.416	265.03
1313.673	264.19
1316.93	267.17
1320.186	267.06
1323.442	267.06
1326.697	272.25
1329.953	272.94
1333.208	272.93
1336.463	276.32
1339.717	276.47
1342.972	279.66
1346.226	282.39
1349.479	282.79
1352.733	284.02
1355.986	285.94
1359.238	286.18
1362.491	286.36
1365.743	288.89
1368.995	288.76
1372.247	288.66
1375.498	288.31
1378.749	290.72
1382	286.81
1385.251	287.27
1388.501	285.7
1391.751	285.65
1395	283.99
1398.25	282.3
1401.499	279.73
1404.748	279.01
1407.996	275.67
1411.244	274.36
1414.492	272.37
1417.74	269
1420.987	264.78
1424.234	264.43
1427.481	260.47
1430.728	259.87
1433.974	257.63
1437.22	255.11
1440.465	254.66
1443.711	252.22
1446.956	250.75
1450.201	247.27
1453.445	245.54
1456.689	245.39
1459.933	240.34
1463.177	238.49
1466.42	234.75
1469.663	231.49
1472.906	230.45
1476.148	224.03
1479.391	222.27
1482.633	220.05
1485.874	217.13
1489.115	215.7
1492.356	212.89
1495.597	212.8
1498.838	209.9
1502.078	208.76
1505.318	208.09
1508.557	208.36
1511.797	208.39
1515.036	206.3
1518.274	205.95
1521.513	204.32
1524.751	203.96
1527.989	203.58
1531.227	202.66
1534.464	203.52
1537.701	201.78
1540.938	201.28
1544.174	198.72
1547.41	198.81
1550.646	198.03
1553.882	197.99
1557.117	195.87
1560.352	194.41
1563.587	194.05
1566.821	192.82
1570.055	191.31
1573.289	190
1576.523	189.74
1579.756	188.42
1582.989	187.28
1586.222	187.52
1589.454	185.73
1592.686	187.3
1595.918	186.66
1599.15	186.18
1602.381	186.59
1605.612	185.9
1608.843	187.2
1612.073	187.18
1615.303	188.51
1618.533	188.34
1621.762	187.97
1624.992	189.05
1628.221	188.64
1631.449	188.79
1634.678	188.3
1637.906	189.25
1641.134	189.32
1644.361	188.85
1647.588	189.62
1650.815	188.63
1654.042	188.22
1657.269	189.17
1660.495	188.97
1663.72	188.56
1666.946	189.31
1670.171	189.87
1673.396	189.59
1676.621	189.87
1679.845	190.29
1683.069	189.79
1686.293	191.12
1689.517	192.88
1692.74	192.74
1695.963	192.99
1699.185	194.49
1702.408	194.56
1705.63	195.22
1708.852	195.5
1712.073	195.58
1715.294	195.98
1718.515	197.2
1721.736	196.6
1724.956	196.31
1728.176	196.53
1731.396	198.43
1734.616	197.67
1737.835	198.52
1741.054	197.72
1744.272	197.91
1747.491	200.32
1750.709	200.01
1753.927	199.55
1757.144	199.36
1760.361	200.01
1763.578	200.28
1766.795	199.73
1770.011	201.65
1773.227	201.1
1776.443	203.03
1779.658	204.48
1782.874	203.22
1786.089	204.17
1789.303	205.01
1792.518	207.62
1795.732	207.62
1798.945	209.81
1802.159	209.92
1805.372	210
1808.585	214.05
1811.797	214.81
1815.01	214.84
1818.222	216.84
1821.434	217.94
1824.645	218.69
1827.856	222.31
1831.067	223.67
1834.278	222.49
1837.488	224.55
1840.698	226.22
1843.908	223.8
1847.117	224.87
1850.326	226.03
1853.535	225.58
1856.744	229.03
1859.952	229.18
1863.16	226.01
1866.368	225.45
1869.575	227.49
1872.782	222.85
1875.989	222.43
1879.196	221.42
1882.402	219.21
1885.608	219.89
1888.814	219.68
1892.019	219.07
1895.224	217.68
1898.429	217.45
1901.634	218.16
1904.838	219.04
1908.042	221.33
1911.246	221.84
1914.449	223.57
1917.652	223.76
1920.855	222.91
1924.058	223.39
1927.26	222.1
1930.462	222.82
1933.664	226.09
1936.865	223.83
1940.066	222.55
1943.267	221.77
1946.467	221.34
1949.668	222.64
1952.868	225.06
1956.067	225.51
1959.267	224.95
1962.466	225.83
1965.665	225.23
1968.863	224.56
1972.061	227.84
1975.259	230.77
1978.457	232.55
1981.654	234.1
1984.852	234.14
1988.048	233.56
1991.245	236.48
1994.441	238.76
1997.637	241.06
2000.833	245.47
2004.028	249.22
2007.223	250.11
2010.418	252.46
2013.613	256.95
2016.807	259.89
2020.001	261.66
2023.194	267.15
2026.388	272.21
2029.581	278.75
2032.774	280.93
2035.966	286.65
2039.158	287.26
2042.35	293.07
2045.542	294.98
2048.733	299.67
2051.924	302.8
2055.115	308.44
2058.306	307.77
2061.496	310.77
2064.686	310.56
2067.875	316.05
2071.065	316.5
2074.254	315.16
2077.442	319.87
2080.631	320.46
2083.819	323.65
2087.007	324.5
2090.195	328.76
2093.382	331.32
2096.569	329.58
2099.756	334.11
2102.942	334.44
2106.128	338.08
2109.314	345.72
2112.5	343.75
2115.685	351.19
2118.87	351.67
2122.055	358.83
2125.239	360.26
2128.424	366.36
2131.608	368.89
2134.791	374.85
2137.974	376.51
2141.157	378.23
2144.34	378.38
2147.523	384.07
2150.705	382
2153.887	386.37
2157.068	387.28
2160.25	383.53
2163.431	384.9
2166.611	390.6
2169.792	397.33
2172.972	401.51
2176.152	403.58
2179.331	409.63
2182.511	416.63
2185.69	421.1
2188.868	429.22
2192.047	430.43
2195.225	444.69
2198.403	454.98
2201.58	462.47
2204.758	470.73
2207.935	480.75
2211.111	489.73
2214.288	494.79
2217.464	495.28
2220.64	504.22
2223.815	510.74
2226.991	531.98
2230.166	532.73
2233.34	541.59
2236.515	549.44
2239.689	550.54
2242.863	553.44
2246.036	568.98
2249.209	565.82
2252.382	577.22
2255.555	592.4
2258.727	594.46
2261.9	597.82
2265.071	604.78
2268.243	613.75
2271.414	619.83
2274.585	635.13
2277.756	642.16
2280.926	647.1
2284.096	659.59
2287.266	674.33
2290.436	679.29
2293.605	694.45
2296.774	714.33
2299.942	735.56
2303.111	740.54
2306.279	758.17
2309.447	766.84
2312.614	785.55
2315.781	806.15
2318.948	844.82
2322.115	831.12
2325.281	879.08
2328.447	859.88
2331.613	893.33
2334.779	882.61
2337.944	923.26
2341.109	934.11
2344.274	959.75
2347.438	993.65
2350.602	993.8
2353.766	1026.58
2356.929	1041.34
2360.092	1032.66
2363.255	1110
2366.418	1107.77
2369.58	1131.74
2372.742	1197.5
2375.904	1228.02
2379.066	1221.03
2382.227	1197.52
2385.388	1298.99
2388.548	1297.24
2391.709	1315.69
2394.869	1465.5
2398.029	1397.12
2401.188	1440.88
2404.347	1426.61
2407.506	1403.88
2410.665	1441.15
2413.823	1527.82
2416.981	1620.38
2420.139	1569.16
2423.296	1554.8
2426.453	1618.17
2429.61	1557.89
2432.767	1633.89
2435.923	1613.16
2439.079	1768.77
2442.235	1793.08
2445.391	1775.39
2448.546	1765.54
2451.701	1713.34
2454.855	1708.65
2458.009	1811.81
2461.163	1894.47
2464.317	1963.57
2467.471	2015
2470.624	2013.48
2473.777	1963.1
2476.929	1916.82
2480.082	1860.4
2483.234	1839.63
2486.385	1933.07
2489.537	1943.59
2492.688	2013.78
2495.839	1957.56
2498.989	1910.74
2502.14	1923.87
2505.29	1945.16
2508.439	1971.99
2511.589	1963.53
2514.738	2147.37
2517.887	2096.52
2521.035	2214.35
2524.183	2232.93
2527.331	2250.1
2530.479	2233.25
2533.627	2253.46
