Data from C_2_DEC_VA_2N_Splice17_13-09-13-186.txt Node
Date: Sat Mar 07 13:09:13 EST 2020
User: sa697716
Spectrometer: NQ5500242
Trigger mode: 0
Integration Time (sec): 1.450000E-1
Scans to average: 20
Nonlinearity correction enabled: false
Boxcar width: 5
Storing dark spectrum: false
XAxis mode: Wavelengths
Number of Pixels in Spectrum: 512
>>>>>Begin Spectral Data<<<<<
187.83	159.16
188.298	207.01
188.766	165.93
189.233	147.38
189.701	153.41
190.169	201.6
190.636	214.23
191.104	370.64
191.571	492.83
192.039	288.79
192.506	-96.19
192.974	-44.84
193.441	275.38
193.908	65.63
194.375	80.69
194.842	47.24
195.31	125.91
195.777	11.03
196.244	31.62
196.711	31.85
197.177	33.56
197.644	33.04
198.111	33.18
198.578	33.23
199.045	33.69
199.511	33.92
199.978	34.03
200.445	34.69
200.911	34.68
201.378	34.97
201.844	35.31
202.31	35.12
202.777	35.02
203.243	35
203.709	34.7
204.176	34.16
204.642	34.01
205.108	34.06
205.574	33.62
206.04	33.42
206.506	32.83
206.972	32.7
207.438	32.35
207.903	32.04
208.369	31.66
208.835	30.95
209.301	30.51
209.766	29.58
210.232	28.58
210.697	27.92
211.163	27.25
211.628	26.69
212.094	25.93
212.559	25.52
213.024	24.98
213.49	24.54
213.955	24.09
214.42	23.65
214.885	23.16
215.35	22.49
215.815	21.45
216.28	20.09
216.745	18.65
217.21	17.21
217.675	15.78
218.14	14.63
218.604	13.52
219.069	12.73
219.534	12.05
219.998	11.47
220.463	11
220.927	10.54
221.392	10.25
221.856	9.95
222.32	9.7
222.785	9.53
223.249	9.34
223.713	9.2
224.177	9.06
224.642	8.94
225.106	8.79
225.57	8.64
226.034	8.53
226.497	8.43
226.961	8.33
227.425	8.22
227.889	8.12
228.353	8
228.816	7.89
229.28	7.78
229.744	7.68
230.207	7.57
230.671	7.48
231.134	7.39
231.597	7.31
232.061	7.22
232.524	7.14
232.987	7.06
233.45	7.01
233.914	6.94
234.377	6.87
234.84	6.8
235.303	6.75
235.766	6.7
236.229	6.63
236.691	6.57
237.154	6.51
237.617	6.46
238.08	6.4
238.542	6.33
239.005	6.29
239.468	6.24
239.93	6.17
240.393	6.12
240.855	6.06
241.317	6.03
241.78	5.96
242.242	5.91
242.704	5.86
243.166	5.82
243.629	5.79
244.091	5.73
244.553	5.68
245.015	5.63
245.477	5.58
245.939	5.54
246.4	5.49
246.862	5.45
247.324	5.42
247.786	5.37
248.247	5.32
248.709	5.27
249.17	5.22
249.632	5.19
250.093	5.16
250.555	5.13
251.016	5.1
251.477	5.06
251.939	5.03
252.4	4.99
252.861	4.95
253.322	4.93
253.783	4.9
254.244	4.88
254.705	4.84
255.166	4.81
255.627	4.78
256.088	4.76
256.549	4.73
257.009	4.7
257.47	4.67
257.931	4.64
258.391	4.61
258.852	4.58
259.312	4.55
259.773	4.53
260.233	4.51
260.694	4.48
261.154	4.45
261.614	4.42
262.074	4.39
262.534	4.37
262.994	4.36
263.455	4.34
263.915	4.32
264.374	4.3
264.834	4.28
265.294	4.26
265.754	4.25
266.214	4.23
266.673	4.22
267.133	4.21
267.593	4.2
268.052	4.18
268.512	4.17
268.971	4.16
269.431	4.14
269.89	4.13
270.349	4.12
270.809	4.11
271.268	4.1
271.727	4.09
272.186	4.07
272.645	4.06
273.104	4.05
273.563	4.04
274.022	4.03
274.481	4.02
274.94	4.02
275.399	4
275.857	3.99
276.316	3.98
276.775	3.97
277.233	3.96
277.692	3.95
278.15	3.94
278.609	3.93
279.067	3.92
279.525	3.91
279.984	3.89
280.442	3.88
280.9	3.88
281.358	3.87
281.816	3.86
282.274	3.86
282.732	3.85
283.19	3.84
283.648	3.83
284.106	3.81
284.564	3.81
285.021	3.81
285.479	3.8
285.937	3.79
286.394	3.79
286.852	3.78
287.309	3.77
287.767	3.76
288.224	3.75
288.682	3.73
289.139	3.72
289.596	3.7
290.053	3.67
290.511	3.66
290.968	3.65
291.425	3.63
291.882	3.62
292.339	3.6
292.796	3.59
293.252	3.59
293.709	3.58
294.166	3.58
294.623	3.57
295.079	3.57
295.536	3.56
295.992	3.56
296.449	3.56
296.905	3.55
297.362	3.55
297.818	3.55
298.274	3.55
298.731	3.54
299.187	3.53
299.643	3.51
300.099	3.51
300.555	3.5
301.011	3.49
301.467	3.48
301.923	3.47
302.379	3.47
302.835	3.46
303.291	3.46
303.746	3.45
304.202	3.45
304.658	3.45
305.113	3.45
305.569	3.45
306.024	3.45
306.479	3.45
306.935	3.44
307.39	3.45
307.845	3.44
308.301	3.45
308.756	3.45
309.211	3.45
309.666	3.46
310.121	3.45
310.576	3.45
311.031	3.45
311.486	3.45
311.94	3.46
312.395	3.45
312.85	3.45
313.305	3.43
313.759	3.44
314.214	3.44
314.668	3.43
315.123	3.43
315.577	3.43
316.032	3.42
316.486	3.42
316.94	3.41
317.394	3.41
317.849	3.4
318.303	3.4
318.757	3.38
319.211	3.38
319.665	3.37
320.119	3.37
320.572	3.36
321.026	3.35
321.48	3.34
321.934	3.33
322.387	3.32
322.841	3.32
323.295	3.32
323.748	3.31
324.202	3.31
324.655	3.3
325.108	3.3
325.562	3.31
326.015	3.3
326.468	3.3
326.921	3.3
327.374	3.3
327.827	3.3
328.28	3.29
328.733	3.29
329.186	3.29
329.639	3.29
330.092	3.28
330.545	3.28
330.997	3.28
331.45	3.28
331.903	3.29
332.355	3.29
332.808	3.28
333.26	3.28
333.713	3.27
334.165	3.28
334.617	3.28
335.069	3.28
335.522	3.27
335.974	3.28
336.426	3.28
336.878	3.27
337.33	3.27
337.782	3.28
338.234	3.29
338.686	3.31
339.137	3.31
339.589	3.31
340.041	3.31
340.493	3.3
340.944	3.29
341.396	3.29
341.847	3.28
342.299	3.27
342.75	3.25
343.201	3.23
343.653	3.22
344.104	3.21
344.555	3.2
345.006	3.19
345.457	3.19
345.908	3.19
346.359	3.19
346.81	3.2
347.261	3.19
347.712	3.19
348.163	3.18
348.613	3.18
349.064	3.18
349.515	3.18
349.965	3.18
350.416	3.17
350.866	3.17
351.317	3.16
351.767	3.16
352.217	3.17
352.668	3.17
353.118	3.18
353.568	3.18
354.018	3.19
354.468	3.2
354.918	3.21
355.368	3.22
355.818	3.23
356.268	3.23
356.718	3.24
357.168	3.24
357.617	3.24
358.067	3.24
358.517	3.26
358.966	3.27
359.416	3.27
359.865	3.27
360.315	3.29
360.764	3.3
361.213	3.31
361.663	3.31
362.112	3.32
362.561	3.33
363.01	3.34
363.459	3.33
363.908	3.34
364.357	3.35
364.806	3.35
365.255	3.36
365.703	3.38
366.152	3.39
366.601	3.42
367.05	3.43
367.498	3.44
367.947	3.46
368.395	3.48
368.844	3.5
369.292	3.5
369.74	3.52
370.189	3.53
370.637	3.54
371.085	3.54
371.533	3.56
371.981	3.57
372.429	3.59
372.877	3.6
373.325	3.62
373.773	3.63
374.221	3.65
374.669	3.68
375.116	3.68
375.564	3.7
376.012	3.72
376.459	3.73
376.907	3.75
377.354	3.77
377.801	3.79
378.249	3.82
378.696	3.83
379.143	3.85
379.591	3.87
380.038	3.9
380.485	3.93
380.932	3.95
381.379	3.98
381.826	3.99
382.273	4.02
382.72	4.03
383.166	4.06
383.613	4.09
384.06	4.11
384.506	4.12
384.953	4.15
385.4	4.17
385.846	4.21
386.292	4.23
386.739	4.25
387.185	4.27
387.631	4.3
388.078	4.32
388.524	4.34
388.97	4.37
389.416	4.4
389.862	4.42
390.308	4.46
390.754	4.47
391.2	4.5
391.645	4.53
392.091	4.56
392.537	4.59
392.983	4.61
393.428	4.64
393.874	4.66
394.319	4.68
394.765	4.69
395.21	4.7
395.655	4.72
396.101	4.74
396.546	4.76
396.991	4.78
397.436	4.8
397.881	4.83
398.326	4.85
398.771	4.87
399.216	4.88
399.661	4.92
400.106	4.93
400.551	4.93
400.995	4.94
401.44	4.95
401.885	4.95
402.329	4.95
402.774	4.95
403.218	4.97
403.663	4.98
404.107	4.99
404.551	4.98
404.995	4.97
405.44	4.97
405.884	4.98
406.328	4.98
406.772	4.97
407.216	4.97
407.66	4.96
408.104	4.94
408.547	4.93
408.991	4.92
409.435	4.92
409.879	4.94
410.322	4.94
410.766	4.95
411.209	4.97
411.653	4.98
412.096	4.98
412.54	4.99
412.983	5
413.426	5.02
413.869	5.03
414.312	5.04
414.756	5.04
415.199	5.05
415.642	5.04
416.085	5.03
416.527	5.02
416.97	5
417.413	4.99
417.856	4.99
418.298	4.98
418.741	4.98
419.184	4.97
419.626	4.96
420.069	4.95
420.511	4.95
420.953	4.96
421.396	4.97
421.838	4.98
422.28	4.98
422.722	4.99
423.164	4.98
423.606	4.99
424.048	4.99
424.49	4.98
424.932	4.97
425.374	4.94
425.816	4.91
426.258	4.89
426.699	4.87
427.141	4.86
427.582	4.85
428.024	4.85
428.465	4.83
428.907	4.82
429.348	4.8
429.789	4.79
430.231	4.83
430.672	4.85
431.113	4.86
431.554	4.86
431.995	4.86
432.436	4.88
432.877	4.87
433.318	4.89
433.759	4.92
434.2	4.93
434.64	4.94
435.081	4.93
435.522	4.94
435.962	4.94
436.403	4.97
436.843	5
437.284	4.99
437.724	5.02
438.164	5.01
438.604	5.03
439.045	5.05
439.485	5.06
439.925	5.06
440.365	5.07
440.805	5.08
441.245	5.1
441.685	5.11
442.125	5.14
442.564	5.16
443.004	5.17
443.444	5.18
443.883	5.2
444.323	5.2
444.762	5.23
445.202	5.24
445.641	5.26
446.081	5.28
446.52	5.29
446.959	5.32
447.398	5.35
447.837	5.37
448.276	5.38
448.716	5.41
449.154	5.45
449.593	5.48
450.032	5.49
450.471	5.52
450.91	5.52
451.349	5.55
451.787	5.53
452.226	5.54
452.664	5.55
453.103	5.56
453.541	5.56
453.98	5.57
454.418	5.56
454.856	5.57
455.295	5.56
455.733	5.54
456.171	5.53
456.609	5.54
457.047	5.52
457.485	5.51
457.923	5.51
458.361	5.52
458.798	5.5
459.236	5.5
459.674	5.49
460.111	5.49
460.549	5.51
460.987	5.51
461.424	5.51
461.862	5.52
462.299	5.54
462.736	5.54
463.173	5.53
463.611	5.53
464.048	5.53
464.485	5.54
464.922	5.54
465.359	5.55
465.796	5.58
466.233	5.59
466.67	5.58
467.106	5.58
467.543	5.57
467.98	5.55
468.416	5.55
468.853	5.55
469.29	5.54
469.726	5.55
470.162	5.54
470.599	5.52
471.035	5.52
471.471	5.51
471.907	5.51
472.344	5.51
472.78	5.53
473.216	5.53
473.652	5.53
474.088	5.5
474.523	5.51
474.959	5.5
475.395	5.48
475.831	5.48
476.266	5.48
476.702	5.46
477.138	5.47
477.573	5.48
478.008	5.48
478.444	5.48
478.879	5.5
479.314	5.49
479.75	5.49
480.185	5.49
480.62	5.49
481.055	5.48
481.49	5.49
481.925	5.49
482.36	5.49
482.795	5.5
483.229	5.5
483.664	5.51
484.099	5.52
484.534	5.53
484.968	5.55
485.403	5.56
485.837	5.58
486.271	5.61
486.706	5.62
487.14	5.64
487.574	5.66
488.009	5.69
488.443	5.71
488.877	5.74
489.311	5.78
489.745	5.82
490.179	5.87
490.613	5.92
491.046	5.96
491.48	6.02
491.914	6.07
492.348	6.12
492.781	6.19
493.215	6.25
493.648	6.32
494.082	6.38
494.515	6.44
494.948	6.5
495.382	6.57
495.815	6.65
496.248	6.74
496.681	6.83
497.114	6.91
497.547	7
497.98	7.1
498.413	7.2
498.846	7.31
499.279	7.41
499.711	7.53
500.144	7.65
500.577	7.77
501.009	7.88
501.442	8.01
501.874	8.15
502.306	8.29
502.739	8.45
503.171	8.6
503.603	8.75
504.036	8.91
504.468	9.07
504.9	9.23
505.332	9.42
505.764	9.6
506.196	9.79
506.627	9.97
507.059	10.16
507.491	10.35
507.923	10.54
508.354	10.76
508.786	10.98
509.217	11.21
509.649	11.43
510.08	11.66
510.512	11.89
510.943	12.13
511.374	12.37
511.805	12.62
512.237	12.86
512.668	13.12
513.099	13.37
513.53	13.62
513.961	13.87
514.391	14.13
514.822	14.4
515.253	14.66
515.684	14.92
516.114	15.19
516.545	15.44
516.975	15.71
517.406	15.97
517.836	16.23
518.267	16.48
518.697	16.74
519.127	16.98
519.558	17.22
519.988	17.47
520.418	17.7
520.848	17.93
521.278	18.17
521.708	18.57
522.138	18.79
522.567	19.01
522.997	19.22
523.427	19.43
523.857	19.64
524.286	19.83
524.716	20.02
525.145	20.22
525.575	20.4
526.004	20.58
526.433	20.58
526.863	20.73
527.292	20.89
527.721	21.03
528.15	21.17
528.579	21.3
529.008	21.44
529.437	21.55
529.866	21.66
530.295	21.78
530.724	21.89
531.152	21.98
531.581	22.08
532.01	22.17
532.438	22.26
532.867	22.36
533.295	22.44
533.723	22.51
534.152	22.58
534.58	22.65
535.008	22.69
535.436	22.76
535.865	22.81
536.293	22.85
536.721	22.89
537.149	22.94
537.576	22.97
538.004	23.01
538.432	23.04
538.86	23.08
539.287	23.13
539.715	23.17
540.143	23.18
540.57	23.22
540.998	23.25
541.425	23.29
541.852	23.31
542.28	23.33
542.707	23.35
543.134	23.36
543.561	23.38
543.988	23.39
544.415	23.4
544.842	23.41
545.269	23.41
545.696	23.42
546.123	23.43
546.549	23.46
546.976	23.48
547.403	23.5
547.829	23.5
548.256	23.51
548.682	23.52
549.108	23.53
549.535	23.55
549.961	23.57
550.387	23.59
550.813	23.6
551.24	23.57
551.666	23.55
552.092	23.54
552.518	23.54
552.943	23.53
553.369	23.51
553.795	23.48
554.221	23.44
554.646	23.4
555.072	23.36
555.498	23.31
555.923	23.29
556.349	23.23
556.774	23.18
557.199	23.11
557.625	23.04
558.05	22.99
558.475	22.94
558.9	22.88
559.325	22.83
559.75	22.76
560.175	22.68
560.6	22.59
561.025	22.52
561.449	22.43
561.874	22.35
562.299	22.26
562.723	22.16
563.148	22.06
563.572	21.94
563.997	21.82
564.421	21.7
564.846	21.59
565.27	21.49
565.694	21.37
566.118	21.26
566.542	21.14
566.966	21.01
567.39	20.9
567.814	20.77
568.238	20.65
568.662	20.53
569.086	20.42
569.509	20.3
569.933	20.18
570.357	20.05
570.78	19.93
571.204	19.82
571.627	19.7
572.05	19.58
572.474	19.49
572.897	19.39
573.32	19.27
573.743	19.14
574.166	19.03
574.589	18.93
575.012	18.84
575.435	18.74
575.858	18.64
576.281	18.54
576.704	18.45
577.126	18.34
577.549	18.25
577.972	18.16
578.394	18.07
578.817	17.98
579.239	17.9
579.661	17.83
580.084	17.75
580.506	17.66
580.928	17.59
581.35	17.51
581.772	17.45
582.194	17.38
582.616	17.33
583.038	17.27
583.46	17.2
583.882	17.13
584.303	17.06
584.725	17
585.147	16.96
585.568	16.9
585.99	16.85
586.411	16.78
586.833	16.72
587.254	16.66
587.675	16.6
588.096	16.56
588.518	16.5
588.939	16.46
589.36	16.4
589.781	16.35
590.202	16.31
590.623	16.26
591.043	16.22
591.464	16.19
591.885	16.13
592.305	16.11
592.726	16.08
593.147	16.04
593.567	16.01
593.987	15.98
594.408	15.94
594.828	15.91
595.248	15.89
595.669	15.86
596.089	15.83
596.509	15.8
596.929	15.77
597.349	15.72
597.769	15.69
598.189	15.66
598.608	15.63
599.028	15.6
599.448	15.56
599.867	15.51
600.287	15.48
600.706	15.44
601.126	15.41
601.545	15.38
601.965	15.36
602.384	15.32
602.803	15.27
603.222	15.22
603.641	15.16
604.061	15.11
604.48	15.07
604.898	15.03
605.317	14.98
605.736	14.92
606.155	14.87
606.574	14.79
606.992	14.72
607.411	14.65
607.829	14.57
608.248	14.5
608.666	14.43
609.085	14.36
609.503	14.28
609.921	14.2
610.339	14.13
610.758	14.06
611.176	13.99
611.594	13.93
612.012	13.86
612.43	13.82
612.847	13.76
613.265	13.69
613.683	13.62
614.101	13.55
614.518	13.48
614.936	13.42
615.353	13.34
615.771	13.28
616.188	13.22
616.606	13.16
617.023	13.09
617.44	13.05
617.857	13
618.274	12.94
618.691	12.9
619.108	12.86
619.525	12.8
619.942	12.77
620.359	12.73
620.776	12.7
621.192	12.67
621.609	12.65
622.026	12.63
622.442	12.6
622.859	12.58
623.275	12.57
623.691	12.55
624.108	12.54
624.524	12.51
624.94	12.5
625.356	12.49
625.772	12.47
626.188	12.46
626.604	12.44
627.02	12.44
627.436	12.44
627.852	12.43
628.268	12.42
628.683	12.41
629.099	12.41
629.514	12.4
629.93	12.38
630.345	12.36
630.761	12.32
631.176	12.29
631.591	12.26
632.007	12.22
632.422	12.18
632.837	12.13
633.252	12.07
633.667	12
634.082	11.93
634.497	11.86
634.911	11.79
635.326	11.71
635.741	11.63
636.155	11.54
636.57	11.45
636.984	11.36
637.399	11.26
637.813	11.15
638.228	11.04
638.642	10.93
639.056	10.8
639.47	10.7
639.884	10.59
640.298	10.47
640.712	10.35
641.126	10.22
641.54	10.09
641.954	9.96
642.368	9.85
642.781	9.75
643.195	9.63
643.609	9.54
644.022	9.42
644.436	9.32
644.849	9.21
645.262	9.12
645.676	9.03
646.089	8.95
646.502	8.87
646.915	8.8
647.328	8.72
647.741	8.65
648.154	8.58
648.567	8.53
648.98	8.47
649.393	8.42
649.805	8.39
650.218	8.34
650.631	8.3
651.043	8.24
651.456	8.2
651.868	8.15
652.28	8.1
652.693	8.07
653.105	8.03
653.517	7.97
653.929	7.94
654.341	7.87
654.753	7.82
655.165	7.75
655.577	7.7
655.989	7.63
656.401	7.57
656.813	7.51
657.224	7.42
657.636	7.34
658.047	7.27
658.459	7.17
658.87	7.09
659.282	7
659.693	6.92
660.104	6.83
660.515	6.74
660.926	6.65
661.338	6.55
661.749	6.47
662.159	6.39
662.57	6.3
662.981	6.22
663.392	6.15
663.803	6.08
664.213	6.01
664.624	5.94
665.035	5.89
665.445	5.84
665.855	5.78
666.266	5.75
666.676	5.71
667.086	5.67
667.497	5.64
667.907	5.6
668.317	5.58
668.727	5.56
669.137	5.52
669.547	5.51
669.956	5.49
670.366	5.47
670.776	5.46
671.186	5.45
671.595	5.44
672.005	5.42
672.414	5.43
672.824	5.43
673.233	5.43
673.642	5.45
674.052	5.45
674.461	5.47
674.87	5.49
675.279	5.51
675.688	5.53
676.097	5.57
676.506	5.6
676.915	5.63
677.323	5.67
677.732	5.72
678.141	5.76
678.549	5.81
678.958	5.86
679.366	5.91
679.775	5.96
680.183	6.05
680.592	6.13
681	6.23
681.408	6.32
681.816	6.42
682.224	6.53
682.632	6.66
683.04	6.81
683.448	6.96
683.856	7.13
684.264	7.31
684.671	7.51
685.079	7.72
685.487	7.96
685.894	8.22
686.302	8.5
686.709	8.81
687.116	9.15
687.524	9.5
687.931	9.87
688.338	10.26
688.745	10.66
689.152	11.09
689.559	11.53
689.966	11.98
690.373	12.45
690.78	12.93
691.187	13.42
691.593	13.89
692	14.39
692.407	14.88
692.813	15.39
693.22	15.9
693.626	16.42
694.032	16.94
694.439	17.46
694.845	17.97
695.251	18.48
695.657	18.97
696.063	19.48
696.469	19.98
696.875	20.49
697.281	20.97
697.687	21.46
698.093	21.92
698.498	22.38
698.904	22.83
699.31	23.26
699.715	23.7
700.12	24.12
700.526	24.54
700.931	24.95
701.337	25.36
701.742	25.75
702.147	26.12
702.552	26.52
702.957	26.87
703.362	27.22
703.767	27.56
704.172	27.89
704.577	28.22
704.981	28.56
705.386	28.89
705.791	29.21
706.195	29.52
706.6	29.84
707.004	30.1
707.408	30.4
707.813	30.69
708.217	30.97
708.621	31.25
709.025	31.52
709.43	31.77
709.834	32.02
710.237	32.25
710.641	32.48
711.045	32.72
711.449	32.97
711.853	33.21
712.256	33.42
712.66	33.65
713.064	33.86
713.467	34.08
713.87	34.29
714.274	34.49
714.677	34.71
715.08	34.89
715.484	35.09
715.887	35.27
716.29	35.43
716.693	35.62
717.096	35.8
717.499	35.99
717.901	36.18
718.304	36.34
718.707	36.5
719.109	36.66
719.512	36.81
719.915	36.96
720.317	37.08
720.719	37.21
721.122	37.33
721.524	37.46
721.926	37.59
722.328	37.7
722.731	37.82
723.133	37.97
723.535	38.07
723.937	38.2
724.338	38.33
724.74	38.47
725.142	38.7
725.544	38.81
725.945	38.95
726.347	39.01
726.748	39.1
727.15	39.18
727.551	39.25
727.952	39.33
728.354	39.39
728.755	39.46
729.156	39.52
729.557	39.46
729.958	39.52
730.359	39.55
730.76	39.65
731.161	39.7
731.562	39.78
731.962	39.82
732.363	39.89
732.763	39.97
733.164	40
733.564	40.04
733.965	40.1
734.365	40.14
734.766	40.19
735.166	40.21
735.566	40.25
735.966	40.29
736.366	40.32
736.766	40.33
737.166	40.33
737.566	40.38
737.966	40.42
738.365	40.47
738.765	40.5
739.165	40.54
739.564	40.57
739.964	40.6
740.363	40.6
740.763	40.65
741.162	40.68
741.561	40.7
741.96	40.72
742.36	40.75
742.759	40.76
743.158	40.77
743.557	40.78
743.955	40.81
744.354	40.81
744.753	40.86
745.152	40.85
745.55	40.86
745.949	40.86
746.348	40.86
746.746	40.86
747.144	40.88
747.543	40.9
747.941	40.91
748.339	40.88
748.737	40.87
749.136	40.85
749.534	40.85
749.932	40.84
750.33	40.88
750.727	40.88
751.125	40.89
751.523	40.85
751.921	40.85
752.318	40.85
752.716	40.87
753.113	40.89
753.511	40.92
753.908	40.95
754.305	40.96
754.703	40.95
755.1	40.95
755.497	40.95
755.894	40.97
756.291	40.98
756.688	40.97
757.085	40.99
757.482	40.98
757.878	40.99
758.275	41
758.672	41.01
759.068	41.02
759.465	41.03
759.861	41.05
760.258	41.05
760.654	41.06
761.05	41.06
761.447	41.06
761.843	41.06
762.239	41.04
762.635	41.01
763.031	41
763.427	40.98
763.822	40.98
764.218	40.97
764.614	40.98
765.01	40.97
765.405	40.96
765.801	40.91
766.196	40.92
766.592	40.93
766.987	40.93
767.382	40.9
767.778	40.92
768.173	40.89
768.568	40.86
768.963	40.86
769.358	40.88
769.753	40.89
770.148	40.91
770.542	40.9
770.937	40.9
771.332	40.9
771.726	40.93
772.121	40.92
772.515	40.93
772.91	40.94
773.304	40.95
773.699	40.93
774.093	40.92
774.487	40.93
774.881	40.93
775.275	40.92
775.669	40.91
776.063	40.87
776.457	40.88
776.851	40.88
777.245	40.88
777.638	40.84
778.032	40.84
778.425	40.87
778.819	40.87
779.212	40.87
779.606	40.88
779.999	40.88
780.392	40.91
780.786	40.88
781.179	40.89
781.572	40.91
781.965	40.94
782.358	40.95
782.751	40.93
783.143	40.92
783.536	40.91
783.929	40.91
784.322	40.94
784.714	40.92
785.107	40.94
785.499	40.94
785.891	40.91
786.284	40.9
786.676	40.9
787.068	40.9
787.46	40.91
787.852	40.92
788.245	40.91
788.636	40.87
789.028	40.89
789.42	40.89
789.812	40.88
790.204	40.91
790.595	40.92
790.987	40.92
791.378	40.91
791.77	40.9
792.161	40.91
792.553	40.93
792.944	40.96
793.335	40.97
793.726	40.95
794.117	40.96
794.508	40.93
794.899	40.93
795.29	40.92
795.681	40.91
796.072	40.91
796.463	40.93
796.853	40.93
797.244	40.95
797.634	40.96
798.025	40.97
798.415	40.98
798.806	40.98
799.196	40.98
799.586	40.99
799.976	41.01
800.366	41.02
800.756	41.02
801.146	41
801.536	40.96
801.926	40.94
802.316	40.93
802.706	40.92
803.095	40.91
803.485	40.9
803.874	40.89
804.264	40.88
804.653	40.87
805.043	40.89
805.432	40.89
805.821	40.92
806.21	40.92
806.599	40.91
806.988	40.93
807.377	40.94
807.766	40.94
808.155	40.94
808.544	40.93
808.933	40.95
809.321	40.93
809.71	40.94
810.098	40.91
810.487	40.9
810.875	40.92
811.264	40.92
811.652	40.93
812.04	40.93
812.428	40.94
812.816	40.95
813.204	40.92
813.592	40.91
813.98	40.92
814.368	40.92
814.756	40.93
815.144	40.91
815.531	40.9
815.919	40.9
816.306	40.89
816.694	40.88
817.081	40.9
817.469	40.92
817.856	40.91
818.243	40.87
818.63	40.87
819.017	40.87
819.404	40.89
819.791	40.89
820.178	40.89
820.565	40.89
820.952	40.89
821.339	40.84
821.725	40.84
822.112	40.86
822.498	40.89
822.885	40.91
823.271	40.9
823.657	40.87
824.044	40.86
824.43	40.85
824.816	40.85
825.202	40.85
825.588	40.86
825.974	40.83
826.36	40.82
826.746	40.81
827.132	40.79
827.517	40.77
827.903	40.79
828.289	40.81
828.674	40.82
829.06	40.81
829.445	40.8
829.83	40.81
830.216	40.8
830.601	40.8
830.986	40.79
831.371	40.78
831.756	40.8
832.141	40.79
832.526	40.79
832.911	40.78
833.295	40.79
833.68	40.79
834.065	40.8
834.449	40.83
834.834	40.83
835.218	40.82
835.603	40.83
835.987	40.8
836.371	40.79
836.755	40.77
837.139	40.77
837.524	40.76
837.908	40.78
838.291	40.76
838.675	40.76
839.059	40.77
839.443	40.76
839.827	40.78
840.21	40.8
840.594	40.81
840.977	40.82
841.361	40.8
841.744	40.77
842.127	40.75
842.511	40.75
842.894	40.75
843.277	40.75
843.66	40.76
844.043	40.75
844.426	40.75
844.809	40.75
845.191	40.76
845.574	40.77
845.957	40.8
846.339	40.81
846.722	40.79
847.104	40.8
847.487	40.78
847.869	40.78
848.252	40.8
848.634	40.82
849.016	40.8
849.398	40.81
849.78	40.82
850.162	40.81
850.544	40.8
850.926	40.81
851.307	40.8
851.689	40.81
852.071	40.83
852.452	40.81
852.834	40.81
853.215	40.81
853.597	40.79
853.978	40.78
854.359	40.79
854.741	40.78
855.122	40.78
855.503	40.78
855.884	40.76
856.265	40.76
856.646	40.75
857.026	40.74
857.407	40.76
857.788	40.76
858.169	40.76
858.549	40.77
858.93	40.78
859.31	40.79
859.69	40.8
860.071	40.83
860.451	40.81
860.831	40.81
861.211	40.79
861.591	40.78
861.971	40.79
862.351	40.79
862.731	40.78
863.111	40.76
863.491	40.76
863.87	40.75
864.25	40.72
864.629	40.75
865.009	40.74
865.388	40.74
865.768	40.75
866.147	40.74
866.526	40.74
866.905	40.74
867.284	40.76
867.663	40.75
868.042	40.74
868.421	40.76
868.8	40.75
869.179	40.77
869.558	40.79
869.936	40.77
870.315	40.76
870.693	40.78
871.072	40.78
871.45	40.77
871.828	40.79
872.207	40.83
872.585	40.81
872.963	40.81
873.341	40.79
873.719	40.78
874.097	40.81
874.475	40.84
874.853	40.83
875.23	40.83
875.608	40.86
875.986	40.85
876.363	40.82
876.741	40.83
877.118	40.83
877.495	40.84
877.873	40.86
878.25	40.88
878.627	40.88
879.004	40.88
879.381	40.89
879.758	40.84
880.135	40.84
880.512	40.84
880.889	40.84
881.265	40.83
881.642	40.83
882.019	40.82
882.395	40.8
882.772	40.79
883.148	40.77
883.524	40.74
883.901	40.76
884.277	40.76
884.653	40.74
885.029	40.74
885.405	40.75
885.781	40.72
886.157	40.7
886.532	40.7
886.908	40.67
887.284	40.68
887.659	40.69
888.035	40.68
888.411	40.67
888.786	40.7
889.161	40.69
889.537	40.67
889.912	40.68
890.287	40.68
890.662	40.66
891.037	40.69
891.412	40.69
891.787	40.7
892.162	40.71
892.536	40.7
892.911	40.7
893.286	40.7
893.66	40.7
894.035	40.72
894.409	40.71
894.784	40.72
895.158	40.7
895.532	40.68
895.906	40.66
896.281	40.64
896.655	40.66
897.029	40.66
897.402	40.66
897.776	40.66
898.15	40.65
898.524	40.65
898.898	40.64
899.271	40.66
899.645	40.66
900.018	40.69
900.392	40.71
900.765	40.72
901.138	40.71
901.511	40.71
901.884	40.72
902.258	40.72
902.631	40.72
903.003	40.74
903.376	40.75
903.749	40.76
904.122	40.77
904.495	40.78
904.867	40.78
905.24	40.79
905.612	40.8
905.985	40.77
906.357	40.79
906.729	40.8
907.102	40.8
907.474	40.8
907.846	40.8
908.218	40.77
908.59	40.78
908.962	40.79
909.334	40.81
909.705	40.78
910.077	40.83
910.449	40.82
910.82	40.81
911.192	40.82
911.563	40.79
911.935	40.77
912.306	40.78
912.677	40.77
913.048	40.76
913.419	40.72
913.79	40.74
914.161	40.73
914.532	40.72
914.903	40.71
915.274	40.68
915.645	40.69
916.015	40.67
916.386	40.67
916.756	40.69
917.127	40.7
917.497	40.71
917.868	40.71
918.238	40.69
918.608	40.7
918.978	40.72
919.348	40.75
919.718	40.75
920.088	40.76
920.458	40.77
920.828	40.74
921.198	40.71
921.567	40.72
921.937	40.73
922.306	40.74
922.676	40.73
923.045	40.72
923.415	40.68
923.784	40.69
924.153	40.7
924.522	40.7
924.891	40.71
925.26	40.71
925.629	40.68
925.998	40.67
926.367	40.66
926.736	40.67
927.104	40.7
927.473	40.72
927.842	40.69
928.21	40.7
928.578	40.7
928.947	40.72
929.315	40.72
929.683	40.76
930.051	40.75
930.42	40.74
930.788	40.71
931.156	40.68
931.523	40.7
931.891	40.73
932.259	40.73
932.627	40.72
932.994	40.72
933.362	40.72
933.729	40.71
934.097	40.72
934.464	40.75
934.831	40.75
935.199	40.76
935.566	40.74
935.933	40.68
936.3	40.68
936.667	40.67
937.034	40.67
937.401	40.7
937.767	40.69
938.134	40.68
938.501	40.69
938.867	40.7
939.234	40.67
939.6	40.66
939.967	40.72
940.333	40.65
940.699	40.65
941.065	40.61
941.431	40.54
941.798	40.52
942.163	40.49
942.529	40.43
942.895	40.44
943.261	40.41
943.627	40.37
943.992	40.35
944.358	40.36
944.723	40.35
945.089	40.27
945.454	40.28
945.82	40.28
946.185	40.35
946.55	40.31
946.915	40.29
947.28	40.3
947.645	40.31
948.01	40.3
948.375	40.29
948.74	40.29
949.104	40.35
949.469	40.3
949.834	40.26
950.198	40.19
950.562	40.15
950.927	40.14
951.291	40.05
951.655	40.02
952.02	40.03
952.384	40.03
952.748	39.99
953.112	40.01
953.476	40.03
953.839	40.02
954.203	40.07
954.567	40.05
954.931	40.01
955.294	40.05
955.658	40.1
956.021	40.07
956.385	40.04
956.748	40
957.111	39.96
957.474	39.93
957.837	39.88
958.2	39.79
958.563	39.81
958.926	39.81
959.289	39.82
959.652	39.79
960.015	39.77
960.377	39.78
960.74	39.84
961.102	39.86
961.465	39.89
961.827	39.97
962.189	40.01
962.552	40.03
962.914	40.07
963.276	40.09
963.638	40.08
964	40.08
964.362	40.07
964.724	40
965.085	39.95
965.447	39.94
965.809	39.92
966.17	39.92
966.532	39.94
966.893	39.92
967.255	39.94
967.616	39.92
967.977	39.92
968.338	39.91
968.699	39.95
969.061	40.03
969.421	40.08
969.782	40.08
970.143	40.05
970.504	40.07
970.865	40.14
971.225	40.08
971.586	40.08
971.946	40.09
972.307	40.13
972.667	40.12
973.027	40.08
973.388	40.06
973.748	40.04
974.108	40.14
974.468	40.08
974.828	40.03
975.188	40.08
975.548	40.09
975.907	40.07
976.267	40.06
976.627	40.08
976.986	40.1
977.346	40.05
977.705	39.97
978.064	39.96
978.424	40.03
978.783	40
979.142	39.99
979.501	40.01
979.86	40.11
980.219	40.17
980.578	40.22
980.937	40.25
981.296	40.23
981.654	40.33
982.013	40.35
982.371	40.29
982.73	40.34
983.088	40.39
983.447	40.38
983.805	40.3
984.163	40.25
984.521	40.16
984.879	40.07
985.237	40.18
985.595	40.23
985.953	40.13
986.311	40.15
986.669	40.11
987.026	40.06
987.384	40.11
987.741	40.04
988.099	40.02
988.456	40.06
988.814	40.13
989.171	40.06
989.528	39.99
989.885	40
990.242	39.93
990.599	40.01
990.956	40.04
991.313	40.02
991.67	40.09
992.027	40.24
992.383	40.29
992.74	40.27
993.096	40.3
993.453	40.31
993.809	40.34
994.165	40.39
994.522	40.35
994.878	40.27
995.234	40.32
995.59	40.37
995.946	40.25
996.302	40.26
996.658	40.32
997.013	40.26
997.369	40.31
997.725	40.39
998.08	40.51
998.436	40.49
998.791	40.49
999.147	40.4
999.502	40.45
999.857	40.42
1000.212	40.31
1000.567	40.3
1000.922	40.39
1001.277	40.38
1001.632	40.26
1001.987	40.16
1002.342	40.09
1002.696	40.22
1003.051	40.4
1003.406	40.42
1003.76	40.38
1004.114	40.44
1004.469	40.52
1004.823	40.62
1005.177	40.52
1005.531	40.54
1005.885	40.56
1006.239	40.6
1006.593	40.64
1006.947	40.6
1007.301	40.45
1007.655	40.56
1008.008	40.69
1008.362	40.7
1008.715	40.58
1009.069	40.78
1009.422	40.84
1009.776	40.77
1010.129	40.84
1010.482	40.91
1010.835	40.89
1011.188	41.06
1011.541	41.1
1011.894	41
1012.247	40.9
1012.6	40.9
1012.952	40.84
1013.305	40.87
1013.657	41.04
1014.01	41.06
1014.362	40.89
1014.715	40.88
1015.067	40.84
1015.419	40.94
1015.771	40.9
1016.123	40.82
1016.475	40.83
1016.827	40.8
1017.179	40.91
1017.531	40.92
1017.883	40.89
1018.234	40.98
1018.586	40.91
1018.938	41.04
1019.289	40.85
1019.64	41.06
1019.992	41.18
1020.343	41.1
1020.694	41.23
1021.045	41.06
1021.396	41.03
1021.747	41.11
1022.098	41.07
1022.449	41.05
1022.8	40.88
1023.151	40.84
1023.501	40.91
1023.852	40.93
1024.202	40.98
1024.553	40.76
1024.903	40.96
1025.253	41.13
1025.604	41.21
1025.954	41.04
1026.304	40.97
1026.654	41.19
1027.004	41.12
1027.354	40.83
1027.703	40.56
1028.053	40.57
1028.403	40.73
1028.753	40.4
1029.102	40.41
1029.452	40.45
1029.801	40.87
1030.15	41.03
1030.499	40.83
897.758	1259.24
901.051	1267.54
904.343	1262.59
907.636	1285.6
910.928	1249.88
914.22	1252.15
917.511	1234.13
920.803	1182.63
924.094	1175.66
927.384	1146.54
930.675	1098.25
933.965	1093.79
937.255	1029.72
940.544	989.2
943.834	940.13
947.123	933.13
950.411	876.84
953.7	860.04
956.988	810.17
960.276	778.14
963.563	766.38
966.851	738.61
970.138	731.74
973.424	707.36
976.711	710.76
979.997	675.58
983.283	672.11
986.568	657.43
989.853	637.4
993.138	626.63
996.423	601.86
999.708	584.78
1002.992	579.13
1006.275	553.37
1009.559	548.72
1012.842	529.11
1016.125	514.3
1019.408	504.43
1022.69	498.17
1025.972	487.3
1029.254	474.68
1032.536	467.35
1035.817	456.24
1039.098	451.12
1042.379	441.6
1045.659	436.21
1048.939	425.23
1052.219	416.65
1055.498	410.45
1058.778	399.9
1062.057	391.38
1065.335	388.24
1068.614	383.14
1071.892	379.79
1075.17	367.28
1078.447	359.77
1081.724	356.65
1085.001	354.39
1088.278	347.51
1091.554	339.18
1094.83	339.48
1098.106	336.84
1101.382	334.44
1104.657	331.92
1107.932	325.78
1111.206	326.87
1114.481	319.34
1117.755	316.29
1121.029	312.9
1124.302	312.69
1127.575	307.19
1130.848	303.54
1134.121	300.35
1137.393	297.61
1140.665	291.66
1143.937	289.75
1147.208	288.39
1150.48	287.41
1153.75	284.44
1157.021	280.87
1160.291	280.7
1163.561	277.92
1166.831	277.76
1170.101	275.58
1173.37	274.81
1176.639	275.36
1179.907	272.96
1183.176	269.25
1186.444	269.36
1189.711	268.7
1192.979	267.54
1196.246	265.61
1199.513	266.62
1202.78	264.75
1206.046	264.37
1209.312	262.6
1212.578	262.4
1215.843	264.77
1219.108	263.53
1222.373	268.92
1225.638	270.57
1228.902	274.3
1232.166	275.15
1235.43	277.55
1238.693	281.62
1241.956	282.74
1245.219	287.15
1248.482	287.38
1251.744	287.04
1255.006	288.52
1258.268	279.75
1261.529	277.54
1264.79	276.1
1268.051	274.79
1271.312	271.27
1274.572	267.53
1277.832	265.22
1281.092	261.47
1284.351	259.3
1287.61	259.17
1290.869	255.1
1294.128	254.58
1297.386	254.47
1300.644	251.16
1303.902	250.5
1307.159	249.71
1310.416	249.74
1313.673	249.61
1316.93	251.29
1320.186	251.6
1323.442	252.53
1326.697	257.03
1329.953	257.73
1333.208	258.09
1336.463	261.74
1339.717	262.93
1342.972	265.56
1346.226	268.76
1349.479	269.58
1352.733	270.71
1355.986	272.62
1359.238	272.54
1362.491	273.19
1365.743	276.39
1368.995	277.14
1372.247	276.69
1375.498	277.27
1378.749	279.47
1382	276.36
1385.251	276.79
1388.501	276
1391.751	276.56
1395	275.57
1398.25	274.04
1401.499	272.84
1404.748	272.62
1407.996	271.21
1411.244	269.28
1414.492	268.15
1417.74	265.97
1420.987	262.62
1424.234	262.31
1427.481	258.95
1430.728	258.67
1433.974	256.45
1437.22	254.6
1440.465	253.25
1443.711	250.53
1446.956	248.58
1450.201	245.97
1453.445	243.59
1456.689	242.78
1459.933	238.05
1463.177	236.91
1466.42	232.76
1469.663	230.23
1472.906	228.42
1476.148	223
1479.391	220.65
1482.633	219.28
1485.874	215.34
1489.115	213.45
1492.356	211.03
1495.597	210.99
1498.838	207.29
1502.078	206.34
1505.318	205.12
1508.557	204.99
1511.797	204.62
1515.036	202.77
1518.274	201.89
1521.513	200.18
1524.751	200.4
1527.989	198.85
1531.227	197.73
1534.464	197.76
1537.701	196.42
1540.938	195.82
1544.174	193.5
1547.41	193.11
1550.646	192.01
1553.882	191.92
1557.117	189.74
1560.352	188.04
1563.587	188.21
1566.821	186.61
1570.055	185.03
1573.289	183.32
1576.523	183.15
1579.756	181.21
1582.989	180.41
1586.222	180.29
1589.454	179.1
1592.686	180.18
1595.918	179.26
1599.15	178.42
1602.381	178.78
1605.612	178.45
1608.843	179.39
1612.073	178.84
1615.303	180.02
1618.533	179.74
1621.762	179.68
1624.992	179.71
1628.221	179.33
1631.449	179.5
1634.678	179.26
1637.906	180.12
1641.134	179.98
1644.361	179.8
1647.588	180.02
1650.815	179.38
1654.042	178.56
1657.269	179.55
1660.495	179.92
1663.72	179.81
1666.946	180.33
1670.171	180.91
1673.396	180.26
1676.621	180.71
1679.845	181.02
1683.069	181.24
1686.293	182.45
1689.517	183.93
1692.74	183.58
1695.963	183.69
1699.185	185.32
1702.408	184.81
1705.63	185.59
1708.852	186.37
1712.073	186.61
1715.294	186.7
1718.515	187.85
1721.736	187.27
1724.956	187.56
1728.176	187.73
1731.396	189.34
1734.616	188.88
1737.835	190.27
1741.054	188.16
1744.272	189.02
1747.491	190.72
1750.709	191.07
1753.927	190.99
1757.144	190.52
1760.361	191.17
1763.578	191.58
1766.795	191.05
1770.011	192.66
1773.227	192.26
1776.443	195.62
1779.658	196.25
1782.874	195.7
1786.089	196.34
1789.303	196.95
1792.518	200.08
1795.732	199.98
1798.945	201.79
1802.159	202.28
1805.372	202.72
1808.585	206.66
1811.797	207.01
1815.01	207.3
1818.222	208.99
1821.434	211.2
1824.645	212.2
1827.856	215.11
1831.067	216.57
1834.278	215.9
1837.488	217.79
1840.698	219.2
1843.908	217
1847.117	217.7
1850.326	219.12
1853.535	218.54
1856.744	221.9
1859.952	221.92
1863.16	220.26
1866.368	219.88
1869.575	223.06
1872.782	219.54
1875.989	218.35
1879.196	218.86
1882.402	218.13
1885.608	219.11
1888.814	220.11
1892.019	219.32
1895.224	218.63
1898.429	218.25
1901.634	219.59
1904.838	219.04
1908.042	221.8
1911.246	223.27
1914.449	224.23
1917.652	224.04
1920.855	223.73
1924.058	223.22
1927.26	221.99
1930.462	222.38
1933.664	225.27
1936.865	223.48
1940.066	223.79
1943.267	222.83
1946.467	221.83
1949.668	222.94
1952.868	225.79
1956.067	225.54
1959.267	226.43
1962.466	226.87
1965.665	226.95
1968.863	226.85
1972.061	229.56
1975.259	231.05
1978.457	232.9
1981.654	235.39
1984.852	235.62
1988.048	235
1991.245	237.08
1994.441	239.71
1997.637	241.65
2000.833	246.28
2004.028	248.84
2007.223	250.15
2010.418	253.23
2013.613	257.32
2016.807	260.19
2020.001	262.3
2023.194	266.19
2026.388	271.92
2029.581	278.33
2032.774	280.73
2035.966	285.83
2039.158	286.59
2042.35	293.02
2045.542	294.57
2048.733	298.67
2051.924	301.89
2055.115	307.72
2058.306	308.98
2061.496	311.56
2064.686	310.37
2067.875	315.91
2071.065	316.86
2074.254	315.28
2077.442	319.26
2080.631	320.21
2083.819	323.56
2087.007	324.38
2090.195	327.92
2093.382	330.35
2096.569	328.56
2099.756	334.62
2102.942	335.27
2106.128	337.82
2109.314	346.91
2112.5	344.18
2115.685	352.73
2118.87	352.91
2122.055	359.73
2125.239	361.68
2128.424	366.09
2131.608	368.27
2134.791	373.11
2137.974	375.03
2141.157	376.5
2144.34	376.25
2147.523	382.85
2150.705	379.67
2153.887	384
2157.068	384.98
2160.25	381.49
2163.431	383.27
2166.611	388.84
2169.792	394.62
2172.972	398.55
2176.152	400.84
2179.331	406.6
2182.511	412.9
2185.69	416.88
2188.868	425.81
2192.047	425.67
2195.225	438.52
2198.403	450.07
2201.58	457.49
2204.758	466.82
2207.935	476.21
2211.111	484.74
2214.288	489.4
2217.464	490.42
2220.64	500.03
2223.815	505.55
2226.991	528.14
2230.166	528.3
2233.34	536.28
2236.515	545.58
2239.689	545.84
2242.863	548.72
2246.036	564.96
2249.209	563.67
2252.382	572.8
2255.555	589.25
2258.727	590.86
2261.9	592.76
2265.071	599.68
2268.243	608.6
2271.414	615.64
2274.585	629.9
2277.756	635.88
2280.926	641.46
2284.096	653.26
2287.266	667.7
2290.436	672.75
2293.605	688.53
2296.774	708.84
2299.942	731.01
2303.111	736.95
2306.279	753.47
2309.447	762.55
2312.614	782.41
2315.781	802.9
2318.948	840.91
2322.115	829.69
2325.281	873.38
2328.447	856.79
2331.613	892.23
2334.779	882.35
2337.944	919.47
2341.109	928.71
2344.274	955.47
2347.438	988.12
2350.602	987.96
2353.766	1016.78
2356.929	1032.43
2360.092	1026.15
2363.255	1099.87
2366.418	1098.84
2369.58	1118.22
2372.742	1188.02
2375.904	1217.75
2379.066	1209.69
2382.227	1190.47
2385.388	1290.51
2388.548	1289.94
2391.709	1309.18
2394.869	1457.78
2398.029	1395.88
2401.188	1435.66
2404.347	1425.86
2407.506	1402.72
2410.665	1440
2413.823	1523.66
2416.981	1613.77
2420.139	1564.12
2423.296	1551.47
2426.453	1609.55
2429.61	1549.35
2432.767	1617.28
2435.923	1597.42
2439.079	1758.3
2442.235	1779.07
2445.391	1764.51
2448.546	1757.6
2451.701	1702.94
2454.855	1696.43
2458.009	1796.86
2461.163	1881.79
2464.317	1952.7
2467.471	2000.8
2470.624	2006.6
2473.777	1945.67
2476.929	1899.37
2480.082	1844.86
2483.234	1819.65
2486.385	1920.57
2489.537	1930.33
2492.688	2007.34
2495.839	1946.3
2498.989	1901.8
2502.14	1913.9
2505.29	1928.05
2508.439	1961.32
2511.589	1955.33
2514.738	2133.95
2517.887	2088.22
2521.035	2204.03
2524.183	2220.31
2527.331	2233.34
2530.479	2223.46
2533.627	2237.59
