Data from C_2_HIR_IL_4N_Splice17_13-13-27-607.txt Node
Date: Sat Mar 07 13:13:27 EST 2020
User: sa697716
Spectrometer: NQ5500242
Trigger mode: 0
Integration Time (sec): 1.450000E-1
Scans to average: 20
Nonlinearity correction enabled: false
Boxcar width: 5
Storing dark spectrum: false
XAxis mode: Wavelengths
Number of Pixels in Spectrum: 512
>>>>>Begin Spectral Data<<<<<
187.83	226.35
188.298	246.49
188.766	208.11
189.233	176.8
189.701	189.9
190.169	222.86
190.636	261.97
191.104	347.58
191.571	105.03
192.039	29.97
192.506	-186.82
192.974	159.88
193.441	319.87
193.908	109
194.375	111.93
194.842	54.12
195.31	120.69
195.777	306.9
196.244	58.76
196.711	48.52
197.177	47.94
197.644	46.88
198.111	46.1
198.578	46.12
199.045	46.54
199.511	46.28
199.978	46.64
200.445	46.81
200.911	47.05
201.378	47.01
201.844	46.77
202.31	46.71
202.777	46.9
203.243	46.97
203.709	46.93
204.176	46.61
204.642	46.32
205.108	46.4
205.574	46.13
206.04	45.45
206.506	45.05
206.972	44.75
207.438	44.44
207.903	43.64
208.369	43.01
208.835	41.91
209.301	40.9
209.766	39.67
210.232	38.45
210.697	37.39
211.163	36.62
211.628	35.82
212.094	35.17
212.559	34.37
213.024	33.5
213.49	32.81
213.955	32.09
214.42	31.61
214.885	31.03
215.35	30.01
215.815	28.72
216.28	26.96
216.745	25.12
217.21	23.22
217.675	21.51
218.14	20.09
218.604	18.69
219.069	17.6
219.534	16.64
219.998	15.83
220.463	15.22
220.927	14.6
221.392	14.17
221.856	13.79
222.32	13.42
222.785	13.12
223.249	12.83
223.713	12.61
224.177	12.43
224.642	12.23
225.106	12
225.57	11.77
226.034	11.62
226.497	11.44
226.961	11.26
227.425	11.1
227.889	10.95
228.353	10.81
228.816	10.65
229.28	10.48
229.744	10.33
230.207	10.19
230.671	10.06
231.134	9.92
231.597	9.82
232.061	9.68
232.524	9.57
232.987	9.46
233.45	9.35
233.914	9.23
234.377	9.13
234.84	9.03
235.303	8.95
235.766	8.86
236.229	8.77
236.691	8.67
237.154	8.6
237.617	8.52
238.08	8.44
238.542	8.34
239.005	8.27
239.468	8.18
239.93	8.11
240.393	8.03
240.855	7.95
241.317	7.87
241.78	7.8
242.242	7.71
242.704	7.64
243.166	7.57
243.629	7.53
244.091	7.46
244.553	7.4
245.015	7.34
245.477	7.28
245.939	7.22
246.4	7.16
246.862	7.11
247.324	7.06
247.786	7.01
248.247	6.95
248.709	6.88
249.17	6.83
249.632	6.79
250.093	6.74
250.555	6.7
251.016	6.66
251.477	6.61
251.939	6.58
252.4	6.55
252.861	6.51
253.322	6.47
253.783	6.44
254.244	6.42
254.705	6.38
255.166	6.34
255.627	6.31
256.088	6.29
256.549	6.26
257.009	6.22
257.47	6.18
257.931	6.15
258.391	6.11
258.852	6.07
259.312	6.04
259.773	6.01
260.233	5.99
260.694	5.96
261.154	5.92
261.614	5.89
262.074	5.87
262.534	5.84
262.994	5.82
263.455	5.8
263.915	5.78
264.374	5.76
264.834	5.74
265.294	5.72
265.754	5.7
266.214	5.68
266.673	5.67
267.133	5.65
267.593	5.64
268.052	5.63
268.512	5.63
268.971	5.62
269.431	5.61
269.89	5.59
270.349	5.59
270.809	5.57
271.268	5.56
271.727	5.55
272.186	5.54
272.645	5.53
273.104	5.51
273.563	5.5
274.022	5.49
274.481	5.48
274.94	5.47
275.399	5.45
275.857	5.45
276.316	5.44
276.775	5.43
277.233	5.43
277.692	5.43
278.15	5.42
278.609	5.41
279.067	5.41
279.525	5.4
279.984	5.4
280.442	5.39
280.9	5.39
281.358	5.38
281.816	5.38
282.274	5.36
282.732	5.35
283.19	5.34
283.648	5.33
284.106	5.32
284.564	5.3
285.021	5.3
285.479	5.29
285.937	5.28
286.394	5.27
286.852	5.26
287.309	5.25
287.767	5.23
288.224	5.22
288.682	5.21
289.139	5.2
289.596	5.18
290.053	5.17
290.511	5.14
290.968	5.13
291.425	5.11
291.882	5.1
292.339	5.09
292.796	5.09
293.252	5.08
293.709	5.08
294.166	5.07
294.623	5.07
295.079	5.06
295.536	5.06
295.992	5.06
296.449	5.05
296.905	5.05
297.362	5.05
297.818	5.04
298.274	5.04
298.731	5.04
299.187	5.03
299.643	5.02
300.099	5.02
300.555	5.02
301.011	5.02
301.467	5.02
301.923	5.01
302.379	5.01
302.835	5.02
303.291	5.02
303.746	5.03
304.202	5.03
304.658	5.04
305.113	5.04
305.569	5.04
306.024	5.05
306.479	5.05
306.935	5.05
307.39	5.05
307.845	5.04
308.301	5.05
308.756	5.06
309.211	5.05
309.666	5.06
310.121	5.06
310.576	5.07
311.031	5.07
311.486	5.07
311.94	5.08
312.395	5.08
312.85	5.1
313.305	5.09
313.759	5.08
314.214	5.08
314.668	5.08
315.123	5.08
315.577	5.07
316.032	5.07
316.486	5.06
316.94	5.05
317.394	5.04
317.849	5.02
318.303	5.01
318.757	5
319.211	4.99
319.665	4.97
320.119	4.96
320.572	4.95
321.026	4.95
321.48	4.94
321.934	4.92
322.387	4.93
322.841	4.93
323.295	4.93
323.748	4.93
324.202	4.93
324.655	4.92
325.108	4.93
325.562	4.93
326.015	4.93
326.468	4.93
326.921	4.93
327.374	4.92
327.827	4.92
328.28	4.93
328.733	4.93
329.186	4.94
329.639	4.94
330.092	4.95
330.545	4.95
330.997	4.95
331.45	4.95
331.903	4.96
332.355	4.97
332.808	4.97
333.26	4.96
333.713	4.95
334.165	4.94
334.617	4.94
335.069	4.93
335.522	4.94
335.974	4.93
336.426	4.93
336.878	4.92
337.33	4.91
337.782	4.9
338.234	4.91
338.686	4.91
339.137	4.91
339.589	4.89
340.041	4.89
340.493	4.87
340.944	4.85
341.396	4.84
341.847	4.82
342.299	4.81
342.75	4.79
343.201	4.78
343.653	4.76
344.104	4.74
344.555	4.73
345.006	4.72
345.457	4.7
345.908	4.69
346.359	4.69
346.81	4.68
347.261	4.67
347.712	4.66
348.163	4.66
348.613	4.66
349.064	4.66
349.515	4.66
349.965	4.66
350.416	4.66
350.866	4.65
351.317	4.64
351.767	4.65
352.217	4.65
352.668	4.66
353.118	4.67
353.568	4.65
354.018	4.65
354.468	4.66
354.918	4.66
355.368	4.65
355.818	4.66
356.268	4.66
356.718	4.66
357.168	4.65
357.617	4.64
358.067	4.63
358.517	4.65
358.966	4.65
359.416	4.65
359.865	4.66
360.315	4.67
360.764	4.67
361.213	4.67
361.663	4.66
362.112	4.66
362.561	4.68
363.01	4.69
363.459	4.67
363.908	4.68
364.357	4.69
364.806	4.69
365.255	4.69
365.703	4.7
366.152	4.72
366.601	4.74
367.05	4.76
367.498	4.78
367.947	4.8
368.395	4.83
368.844	4.86
369.292	4.87
369.74	4.91
370.189	4.94
370.637	4.97
371.085	5.01
371.533	5.05
371.981	5.1
372.429	5.15
372.877	5.21
373.325	5.26
373.773	5.33
374.221	5.39
374.669	5.46
375.116	5.55
375.564	5.64
376.012	5.73
376.459	5.82
376.907	5.93
377.354	6.05
377.801	6.17
378.249	6.29
378.696	6.41
379.143	6.55
379.591	6.7
380.038	6.84
380.485	6.98
380.932	7.15
381.379	7.32
381.826	7.48
382.273	7.65
382.72	7.8
383.166	7.98
383.613	8.16
384.06	8.34
384.506	8.52
384.953	8.71
385.4	8.9
385.846	9.08
386.292	9.25
386.739	9.42
387.185	9.6
387.631	9.79
388.078	9.97
388.524	10.14
388.97	10.33
389.416	10.51
389.862	10.68
390.308	10.84
390.754	11.01
391.2	11.16
391.645	11.32
392.091	11.48
392.537	11.62
392.983	11.76
393.428	11.91
393.874	12.02
394.319	12.13
394.765	12.23
395.21	12.33
395.655	12.42
396.101	12.52
396.546	12.59
396.991	12.67
397.436	12.74
397.881	12.81
398.326	12.87
398.771	12.94
399.216	12.99
399.661	13.04
400.106	13.07
400.551	13.09
400.995	13.09
401.44	13.1
401.885	13.11
402.329	13.12
402.774	13.13
403.218	13.17
403.663	13.18
404.107	13.17
404.551	13.17
404.995	13.16
405.44	13.16
405.884	13.17
406.328	13.17
406.772	13.16
407.216	13.15
407.66	13.13
408.104	13.08
408.547	13.05
408.991	13.04
409.435	13.02
409.879	13.02
410.322	13
410.766	13
411.209	12.98
411.653	12.99
412.096	12.97
412.54	12.97
412.983	12.96
413.426	12.96
413.869	12.95
414.312	12.96
414.756	12.93
415.199	12.92
415.642	12.88
416.085	12.85
416.527	12.78
416.97	12.74
417.413	12.69
417.856	12.65
418.298	12.61
418.741	12.58
419.184	12.53
419.626	12.5
420.069	12.47
420.511	12.46
420.953	12.44
421.396	12.44
421.838	12.44
422.28	12.42
422.722	12.42
423.164	12.39
423.606	12.34
424.048	12.33
424.49	12.32
424.932	12.27
425.374	12.23
425.816	12.16
426.258	12.13
426.699	12.09
427.141	12.07
427.582	12.04
428.024	12.05
428.465	12.05
428.907	12.03
429.348	12.01
429.789	12.02
430.231	12.05
430.672	12.08
431.113	12.1
431.554	12.12
431.995	12.14
432.436	12.14
432.877	12.15
433.318	12.16
433.759	12.18
434.2	12.21
434.64	12.24
435.081	12.26
435.522	12.28
435.962	12.31
436.403	12.36
436.843	12.38
437.284	12.42
437.724	12.44
438.164	12.46
438.604	12.52
439.045	12.54
439.485	12.58
439.925	12.6
440.365	12.64
440.805	12.68
441.245	12.71
441.685	12.77
442.125	12.82
442.564	12.89
443.004	12.94
443.444	13
443.883	13.08
444.323	13.15
444.762	13.22
445.202	13.29
445.641	13.38
446.081	13.46
446.52	13.52
446.959	13.61
447.398	13.68
447.837	13.77
448.276	13.83
448.716	13.91
449.154	13.99
449.593	14.07
450.032	14.15
450.471	14.21
450.91	14.26
451.349	14.35
451.787	14.4
452.226	14.46
452.664	14.51
453.103	14.56
453.541	14.63
453.98	14.68
454.418	14.7
454.856	14.74
455.295	14.77
455.733	14.8
456.171	14.84
456.609	14.89
457.047	14.92
457.485	14.96
457.923	15
458.361	15.02
458.798	15.06
459.236	15.11
459.674	15.14
460.111	15.19
460.549	15.24
460.987	15.27
461.424	15.3
461.862	15.34
462.299	15.39
462.736	15.42
463.173	15.46
463.611	15.49
464.048	15.52
464.485	15.55
464.922	15.56
465.359	15.57
465.796	15.59
466.233	15.61
466.67	15.62
467.106	15.6
467.543	15.6
467.98	15.59
468.416	15.57
468.853	15.57
469.29	15.55
469.726	15.56
470.162	15.55
470.599	15.53
471.035	15.5
471.471	15.47
471.907	15.45
472.344	15.45
472.78	15.43
473.216	15.4
473.652	15.38
474.088	15.35
474.523	15.35
474.959	15.33
475.395	15.3
475.831	15.31
476.266	15.31
476.702	15.33
477.138	15.31
477.573	15.31
478.008	15.33
478.444	15.33
478.879	15.36
479.314	15.37
479.75	15.39
480.185	15.41
480.62	15.43
481.055	15.45
481.49	15.47
481.925	15.52
482.36	15.58
482.795	15.62
483.229	15.66
483.664	15.73
484.099	15.79
484.534	15.86
484.968	15.94
485.403	16.03
485.837	16.13
486.271	16.25
486.706	16.36
487.14	16.47
487.574	16.6
488.009	16.75
488.443	16.9
488.877	17.06
489.311	17.23
489.745	17.41
490.179	17.59
490.613	17.79
491.046	17.98
491.48	18.19
491.914	18.4
492.348	18.62
492.781	18.84
493.215	19.07
493.648	19.31
494.082	19.55
494.515	19.78
494.948	20.03
495.382	20.26
495.815	20.52
496.248	20.8
496.681	21.07
497.114	21.35
497.547	21.62
497.98	21.91
498.413	22.2
498.846	22.5
499.279	22.81
499.711	23.12
500.144	23.44
500.577	23.76
501.009	24.07
501.442	24.39
501.874	24.72
502.306	25.05
502.739	25.39
503.171	25.72
503.603	26.05
504.036	26.41
504.468	26.77
504.9	27.11
505.332	27.46
505.764	27.83
506.196	28.18
506.627	28.54
507.059	28.9
507.491	29.26
507.923	29.64
508.354	30.02
508.786	30.38
509.217	30.75
509.649	31.12
510.08	31.48
510.512	31.85
510.943	32.21
511.374	32.58
511.805	32.96
512.237	33.3
512.668	33.64
513.099	33.97
513.53	34.32
513.961	34.65
514.391	34.99
514.822	35.34
515.253	35.65
515.684	35.97
516.114	36.27
516.545	36.56
516.975	36.87
517.406	37.17
517.836	37.45
518.267	37.73
518.697	37.98
519.127	38.23
519.558	38.47
519.988	38.73
520.418	38.97
520.848	39.2
521.278	39.43
521.708	39.8
522.138	40.02
522.567	40.23
522.997	40.42
523.427	40.62
523.857	40.8
524.286	40.96
524.716	41.14
525.145	41.31
525.575	41.46
526.004	41.63
526.433	41.61
526.863	41.75
527.292	41.89
527.721	42.03
528.15	42.16
528.579	42.3
529.008	42.42
529.437	42.51
529.866	42.62
530.295	42.74
530.724	42.85
531.152	42.96
531.581	43.06
532.01	43.15
532.438	43.25
532.867	43.34
533.295	43.43
533.723	43.5
534.152	43.58
534.58	43.68
535.008	43.73
535.436	43.79
535.865	43.83
536.293	43.88
536.721	43.93
537.149	43.98
537.576	44.02
538.004	44.06
538.432	44.11
538.86	44.15
539.287	44.18
539.715	44.24
540.143	44.28
540.57	44.32
540.998	44.35
541.425	44.37
541.852	44.41
542.28	44.45
542.707	44.48
543.134	44.52
543.561	44.55
543.988	44.58
544.415	44.57
544.842	44.59
545.269	44.63
545.696	44.65
546.123	44.66
546.549	44.68
546.976	44.69
547.403	44.71
547.829	44.7
548.256	44.7
548.682	44.7
549.108	44.73
549.535	44.74
549.961	44.73
550.387	44.74
550.813	44.77
551.24	44.76
551.666	44.77
552.092	44.78
552.518	44.79
552.943	44.78
553.369	44.77
553.795	44.76
554.221	44.75
554.646	44.74
555.072	44.73
555.498	44.69
555.923	44.68
556.349	44.64
556.774	44.6
557.199	44.59
557.625	44.54
558.05	44.52
558.475	44.49
558.9	44.44
559.325	44.4
559.75	44.36
560.175	44.34
560.6	44.29
561.025	44.27
561.449	44.21
561.874	44.15
562.299	44.12
562.723	44.04
563.148	43.97
563.572	43.88
563.997	43.81
564.421	43.74
564.846	43.65
565.27	43.59
565.694	43.5
566.118	43.43
566.542	43.34
566.966	43.25
567.39	43.18
567.814	43.09
568.238	43.02
568.662	42.94
569.086	42.84
569.509	42.76
569.933	42.67
570.357	42.57
570.78	42.48
571.204	42.41
571.627	42.32
572.05	42.25
572.474	42.2
572.897	42.11
573.32	42.04
573.743	41.96
574.166	41.88
574.589	41.79
575.012	41.72
575.435	41.65
575.858	41.56
576.281	41.48
576.704	41.4
577.126	41.32
577.549	41.25
577.972	41.16
578.394	41.09
578.817	41.02
579.239	40.96
579.661	40.9
580.084	40.82
580.506	40.78
580.928	40.72
581.35	40.66
581.772	40.59
582.194	40.52
582.616	40.49
583.038	40.44
583.46	40.37
583.882	40.33
584.303	40.26
584.725	40.22
585.147	40.18
585.568	40.12
585.99	40.06
586.411	40.02
586.833	39.96
587.254	39.89
587.675	39.83
588.096	39.79
588.518	39.73
588.939	39.69
589.36	39.61
589.781	39.56
590.202	39.52
590.623	39.46
591.043	39.41
591.464	39.4
591.885	39.36
592.305	39.34
592.726	39.3
593.147	39.26
593.567	39.21
593.987	39.2
594.408	39.15
594.828	39.13
595.248	39.1
595.669	39.07
596.089	39.02
596.509	38.98
596.929	38.93
597.349	38.89
597.769	38.86
598.189	38.82
598.608	38.77
599.028	38.74
599.448	38.68
599.867	38.64
600.287	38.59
600.706	38.56
601.126	38.52
601.545	38.5
601.965	38.46
602.384	38.42
602.803	38.38
603.222	38.36
603.641	38.31
604.061	38.28
604.48	38.22
604.898	38.18
605.317	38.12
605.736	38.07
606.155	38.01
606.574	37.94
606.992	37.88
607.411	37.83
607.829	37.76
608.248	37.7
608.666	37.62
609.085	37.58
609.503	37.53
609.921	37.47
610.339	37.41
610.758	37.35
611.176	37.28
611.594	37.22
612.012	37.15
612.43	37.07
612.847	37
613.265	36.94
613.683	36.87
614.101	36.79
614.518	36.72
614.936	36.64
615.353	36.55
615.771	36.49
616.188	36.41
616.606	36.35
617.023	36.31
617.44	36.27
617.857	36.22
618.274	36.16
618.691	36.11
619.108	36.05
619.525	36
619.942	35.96
620.359	35.92
620.776	35.89
621.192	35.86
621.609	35.83
622.026	35.79
622.442	35.77
622.859	35.75
623.275	35.73
623.691	35.72
624.108	35.7
624.524	35.69
624.94	35.69
625.356	35.7
625.772	35.68
626.188	35.66
626.604	35.63
627.02	35.62
627.436	35.59
627.852	35.58
628.268	35.57
628.683	35.57
629.099	35.55
629.514	35.52
629.93	35.49
630.345	35.47
630.761	35.43
631.176	35.4
631.591	35.35
632.007	35.32
632.422	35.24
632.837	35.16
633.252	35.08
633.667	34.99
634.082	34.88
634.497	34.78
634.911	34.65
635.326	34.52
635.741	34.39
636.155	34.25
636.57	34.07
636.984	33.91
637.399	33.73
637.813	33.56
638.228	33.36
638.642	33.16
639.056	32.93
639.47	32.72
639.884	32.48
640.298	32.24
640.712	32.02
641.126	31.79
641.54	31.54
641.954	31.31
642.368	31.04
642.781	30.8
643.195	30.57
643.609	30.32
644.022	30.09
644.436	29.88
644.849	29.66
645.262	29.45
645.676	29.25
646.089	29.08
646.502	28.9
646.915	28.75
647.328	28.59
647.741	28.45
648.154	28.33
648.567	28.21
648.98	28.11
649.393	28.01
649.805	27.93
650.218	27.86
650.631	27.77
651.043	27.68
651.456	27.62
651.868	27.56
652.28	27.49
652.693	27.45
653.105	27.37
653.517	27.29
653.929	27.21
654.341	27.12
654.753	27.02
655.165	26.91
655.577	26.79
655.989	26.66
656.401	26.52
656.813	26.39
657.224	26.19
657.636	26.01
658.047	25.85
658.459	25.66
658.87	25.46
659.282	25.25
659.693	25.04
660.104	24.83
660.515	24.61
660.926	24.38
661.338	24.15
661.749	23.93
662.159	23.71
662.57	23.49
662.981	23.27
663.392	23.05
663.803	22.84
664.213	22.63
664.624	22.43
665.035	22.23
665.445	22.06
665.855	21.88
666.266	21.72
666.676	21.57
667.086	21.4
667.497	21.26
667.907	21.13
668.317	21.01
668.727	20.91
669.137	20.8
669.547	20.71
669.956	20.6
670.366	20.53
670.776	20.45
671.186	20.39
671.595	20.35
672.005	20.3
672.414	20.27
672.824	20.24
673.233	20.22
673.642	20.24
674.052	20.26
674.461	20.29
674.87	20.32
675.279	20.38
675.688	20.45
676.097	20.52
676.506	20.61
676.915	20.71
677.323	20.84
677.732	20.98
678.141	21.15
678.549	21.33
678.958	21.56
679.366	21.79
679.775	22.04
680.183	22.34
680.592	22.68
681	23.05
681.408	23.46
681.816	23.89
682.224	24.34
682.632	24.82
683.04	25.33
683.448	25.87
683.856	26.43
684.264	27.04
684.671	27.66
685.079	28.28
685.487	28.93
685.894	29.61
686.302	30.28
686.709	30.97
687.116	31.65
687.524	32.34
687.931	33.02
688.338	33.7
688.745	34.37
689.152	35.04
689.559	35.74
689.966	36.4
690.373	37.03
690.78	37.68
691.187	38.29
691.593	38.9
692	39.48
692.407	40.03
692.813	40.61
693.22	41.13
693.626	41.63
694.032	42.12
694.439	42.58
694.845	43.04
695.251	43.48
695.657	43.9
696.063	44.33
696.469	44.71
696.875	45.09
697.281	45.43
697.687	45.77
698.093	46.11
698.498	46.41
698.904	46.73
699.31	47.02
699.715	47.29
700.12	47.55
700.526	47.78
700.931	48.05
701.337	48.3
701.742	48.51
702.147	48.72
702.552	48.94
702.957	49.11
703.362	49.29
703.767	49.44
704.172	49.61
704.577	49.78
704.981	49.95
705.386	50.09
705.791	50.22
706.195	50.38
706.6	50.54
707.004	50.66
707.408	50.82
707.813	50.97
708.217	51.11
708.621	51.24
709.025	51.33
709.43	51.42
709.834	51.54
710.237	51.64
710.641	51.76
711.045	51.85
711.449	51.97
711.853	52.08
712.256	52.14
712.66	52.21
713.064	52.27
713.467	52.37
713.87	52.45
714.274	52.51
714.677	52.59
715.08	52.65
715.484	52.75
715.887	52.83
716.29	52.88
716.693	52.97
717.096	53.07
717.499	53.17
717.901	53.23
718.304	53.33
718.707	53.41
719.109	53.5
719.512	53.55
719.915	53.59
720.317	53.63
720.719	53.66
721.122	53.71
721.524	53.72
721.926	53.78
722.328	53.85
722.731	53.85
723.133	53.91
723.535	53.93
723.937	53.97
724.338	53.99
724.74	54.03
725.142	54.17
725.544	54.18
725.945	54.24
726.347	54.25
726.748	54.26
727.15	54.3
727.551	54.34
727.952	54.36
728.354	54.39
728.755	54.44
729.156	54.44
729.557	54.38
729.958	54.4
730.359	54.43
730.76	54.46
731.161	54.47
731.562	54.52
731.962	54.53
732.363	54.57
732.763	54.56
733.164	54.57
733.564	54.61
733.965	54.59
734.365	54.62
734.766	54.64
735.166	54.69
735.566	54.68
735.966	54.67
736.366	54.66
736.766	54.65
737.166	54.68
737.566	54.7
737.966	54.7
738.365	54.73
738.765	54.72
739.165	54.7
739.564	54.68
739.964	54.68
740.363	54.68
740.763	54.7
741.162	54.7
741.561	54.68
741.96	54.64
742.36	54.63
742.759	54.63
743.158	54.62
743.557	54.6
743.955	54.62
744.354	54.61
744.753	54.62
745.152	54.63
745.55	54.63
745.949	54.65
746.348	54.65
746.746	54.65
747.144	54.65
747.543	54.66
747.941	54.66
748.339	54.63
748.737	54.62
749.136	54.63
749.534	54.59
749.932	54.58
750.33	54.57
750.727	54.6
751.125	54.61
751.523	54.58
751.921	54.62
752.318	54.63
752.716	54.63
753.113	54.64
753.511	54.63
753.908	54.67
754.305	54.68
754.703	54.67
755.1	54.64
755.497	54.64
755.894	54.64
756.291	54.62
756.688	54.61
757.085	54.61
757.482	54.57
757.878	54.55
758.275	54.53
758.672	54.52
759.068	54.56
759.465	54.56
759.861	54.55
760.258	54.56
760.654	54.59
761.05	54.6
761.447	54.6
761.843	54.62
762.239	54.62
762.635	54.62
763.031	54.62
763.427	54.58
763.822	54.58
764.218	54.6
764.614	54.61
765.01	54.53
765.405	54.52
765.801	54.5
766.196	54.5
766.592	54.49
766.987	54.47
767.382	54.43
767.778	54.44
768.173	54.42
768.568	54.4
768.963	54.37
769.358	54.39
769.753	54.37
770.148	54.37
770.542	54.37
770.937	54.36
771.332	54.38
771.726	54.36
772.121	54.36
772.515	54.36
772.91	54.31
773.304	54.32
773.699	54.32
774.093	54.31
774.487	54.32
774.881	54.32
775.275	54.29
775.669	54.28
776.063	54.29
776.457	54.27
776.851	54.24
777.245	54.25
777.638	54.22
778.032	54.2
778.425	54.24
778.819	54.21
779.212	54.22
779.606	54.24
779.999	54.23
780.392	54.26
780.786	54.25
781.179	54.29
781.572	54.32
781.965	54.31
782.358	54.28
782.751	54.24
783.143	54.26
783.536	54.25
783.929	54.25
784.322	54.27
784.714	54.25
785.107	54.27
785.499	54.25
785.891	54.24
786.284	54.29
786.676	54.3
787.068	54.31
787.46	54.28
787.852	54.26
788.245	54.27
788.636	54.25
789.028	54.24
789.42	54.24
789.812	54.21
790.204	54.21
790.595	54.24
790.987	54.25
791.378	54.28
791.77	54.29
792.161	54.31
792.553	54.29
792.944	54.28
793.335	54.29
793.726	54.31
794.117	54.33
794.508	54.33
794.899	54.28
795.29	54.29
795.681	54.25
796.072	54.24
796.463	54.27
796.853	54.28
797.244	54.28
797.634	54.29
798.025	54.29
798.415	54.29
798.806	54.27
799.196	54.27
799.586	54.26
799.976	54.29
800.366	54.29
800.756	54.26
801.146	54.26
801.536	54.29
801.926	54.27
802.316	54.26
802.706	54.28
803.095	54.29
803.485	54.29
803.874	54.31
804.264	54.31
804.653	54.32
805.043	54.32
805.432	54.31
805.821	54.3
806.21	54.32
806.599	54.32
806.988	54.3
807.377	54.28
807.766	54.29
808.155	54.26
808.544	54.25
808.933	54.24
809.321	54.23
809.71	54.23
810.098	54.24
810.487	54.22
810.875	54.22
811.264	54.22
811.652	54.25
812.04	54.24
812.428	54.26
812.816	54.24
813.204	54.23
813.592	54.23
813.98	54.22
814.368	54.2
814.756	54.19
815.144	54.17
815.531	54.17
815.919	54.16
816.306	54.16
816.694	54.15
817.081	54.16
817.469	54.17
817.856	54.14
818.243	54.11
818.63	54.1
819.017	54.1
819.404	54.08
819.791	54.08
820.178	54.1
820.565	54.08
820.952	54.08
821.339	54.07
821.725	54.07
822.112	54.1
822.498	54.15
822.885	54.18
823.271	54.18
823.657	54.15
824.044	54.18
824.43	54.17
824.816	54.18
825.202	54.13
825.588	54.13
825.974	54.11
826.36	54.1
826.746	54.07
827.132	54.06
827.517	54.08
827.903	54.11
828.289	54.1
828.674	54.1
829.06	54.09
829.445	54.13
829.83	54.13
830.216	54.12
830.601	54.11
830.986	54.13
831.371	54.11
831.756	54.11
832.141	54.09
832.526	54.09
832.911	54.05
833.295	54.05
833.68	54.04
834.065	54.05
834.449	54.07
834.834	54.05
835.218	54.03
835.603	54.01
835.987	54
836.371	54
836.755	53.97
837.139	53.97
837.524	54
837.908	54.02
838.291	54.03
838.675	54.03
839.059	54.04
839.443	54.05
839.827	54.06
840.21	54.05
840.594	54.06
840.977	54.07
841.361	54.06
841.744	54.02
842.127	53.97
842.511	53.95
842.894	53.93
843.277	53.92
843.66	53.86
844.043	53.87
844.426	53.85
844.809	53.84
845.191	53.86
845.574	53.86
845.957	53.87
846.339	53.88
846.722	53.9
847.104	53.9
847.487	53.9
847.869	53.92
848.252	53.91
848.634	53.9
849.016	53.92
849.398	53.9
849.78	53.9
850.162	53.91
850.544	53.87
850.926	53.85
851.307	53.84
851.689	53.84
852.071	53.84
852.452	53.83
852.834	53.84
853.215	53.82
853.597	53.82
853.978	53.82
854.359	53.82
854.741	53.83
855.122	53.83
855.503	53.83
855.884	53.83
856.265	53.82
856.646	53.81
857.026	53.8
857.407	53.81
857.788	53.79
858.169	53.8
858.549	53.77
858.93	53.79
859.31	53.77
859.69	53.78
860.071	53.79
860.451	53.79
860.831	53.81
861.211	53.8
861.591	53.77
861.971	53.77
862.351	53.77
862.731	53.8
863.111	53.77
863.491	53.74
863.87	53.74
864.25	53.71
864.629	53.74
865.009	53.72
865.388	53.72
865.768	53.74
866.147	53.75
866.526	53.73
866.905	53.73
867.284	53.75
867.663	53.78
868.042	53.77
868.421	53.79
868.8	53.76
869.179	53.77
869.558	53.78
869.936	53.77
870.315	53.75
870.693	53.75
871.072	53.73
871.45	53.73
871.828	53.72
872.207	53.73
872.585	53.72
872.963	53.72
873.341	53.69
873.719	53.69
874.097	53.69
874.475	53.71
874.853	53.72
875.23	53.74
875.608	53.75
875.986	53.77
876.363	53.77
876.741	53.77
877.118	53.78
877.495	53.81
877.873	53.83
878.25	53.84
878.627	53.85
879.004	53.85
879.381	53.85
879.758	53.83
880.135	53.81
880.512	53.79
880.889	53.78
881.265	53.76
881.642	53.74
882.019	53.72
882.395	53.7
882.772	53.68
883.148	53.64
883.524	53.61
883.901	53.6
884.277	53.57
884.653	53.55
885.029	53.55
885.405	53.55
885.781	53.53
886.157	53.53
886.532	53.51
886.908	53.5
887.284	53.49
887.659	53.46
888.035	53.45
888.411	53.44
888.786	53.45
889.161	53.47
889.537	53.47
889.912	53.46
890.287	53.45
890.662	53.44
891.037	53.43
891.412	53.44
891.787	53.43
892.162	53.43
892.536	53.41
892.911	53.4
893.286	53.38
893.66	53.35
894.035	53.35
894.409	53.34
894.784	53.35
895.158	53.34
895.532	53.33
895.906	53.34
896.281	53.33
896.655	53.32
897.029	53.33
897.402	53.34
897.776	53.38
898.15	53.37
898.524	53.39
898.898	53.38
899.271	53.4
899.645	53.41
900.018	53.41
900.392	53.44
900.765	53.48
901.138	53.5
901.511	53.48
901.884	53.46
902.258	53.49
902.631	53.48
903.003	53.5
903.376	53.5
903.749	53.5
904.122	53.52
904.495	53.54
904.867	53.53
905.24	53.53
905.612	53.56
905.985	53.53
906.357	53.54
906.729	53.56
907.102	53.54
907.474	53.53
907.846	53.5
908.218	53.47
908.59	53.47
908.962	53.47
909.334	53.45
909.705	53.44
910.077	53.48
910.449	53.45
910.82	53.43
911.192	53.43
911.563	53.44
911.935	53.44
912.306	53.46
912.677	53.45
913.048	53.45
913.419	53.42
913.79	53.41
914.161	53.38
914.532	53.38
914.903	53.4
915.274	53.4
915.645	53.41
916.015	53.44
916.386	53.43
916.756	53.45
917.127	53.48
917.497	53.51
917.868	53.51
918.238	53.54
918.608	53.53
918.978	53.52
919.348	53.5
919.718	53.51
920.088	53.52
920.458	53.55
920.828	53.56
921.198	53.51
921.567	53.51
921.937	53.51
922.306	53.48
922.676	53.49
923.045	53.48
923.415	53.5
923.784	53.49
924.153	53.46
924.522	53.45
924.891	53.4
925.26	53.42
925.629	53.41
925.998	53.42
926.367	53.42
926.736	53.41
927.104	53.41
927.473	53.37
927.842	53.35
928.21	53.37
928.578	53.32
928.947	53.32
929.315	53.29
929.683	53.29
930.051	53.25
930.42	53.26
930.788	53.2
931.156	53.16
931.523	53.17
931.891	53.18
932.259	53.16
932.627	53.18
932.994	53.18
933.362	53.21
933.729	53.19
934.097	53.17
934.464	53.16
934.831	53.17
935.199	53.21
935.566	53.17
935.933	53.1
936.3	53.06
936.667	53.04
937.034	53.08
937.401	53.04
937.767	53.01
938.134	53.02
938.501	53.01
938.867	53.06
939.234	53.01
939.6	53.06
939.967	53.13
940.333	53.14
940.699	53.17
941.065	53.06
941.431	53.07
941.798	53.05
942.163	53.05
942.529	53
942.895	52.93
943.261	52.89
943.627	52.83
943.992	52.8
944.358	52.8
944.723	52.73
945.089	52.66
945.454	52.66
945.82	52.67
946.185	52.67
946.55	52.65
946.915	52.63
947.28	52.64
947.645	52.63
948.01	52.6
948.375	52.56
948.74	52.55
949.104	52.67
949.469	52.63
949.834	52.61
950.198	52.56
950.562	52.53
950.927	52.5
951.291	52.41
951.655	52.37
952.02	52.34
952.384	52.32
952.748	52.27
953.112	52.23
953.476	52.19
953.839	52.14
954.203	52.1
954.567	52.11
954.931	52.07
955.294	52.08
955.658	52.14
956.021	52.18
956.385	52.16
956.748	52.15
957.111	52.11
957.474	52.13
957.837	52.07
958.2	52.08
958.563	52.05
958.926	52.06
959.289	52.07
959.652	51.97
960.015	51.9
960.377	51.87
960.74	51.88
961.102	51.88
961.465	51.93
961.827	52
962.189	52.06
962.552	52.03
962.914	52.01
963.276	52.05
963.638	52.08
964	52.1
964.362	52.13
964.724	52.11
965.085	52.11
965.447	52.08
965.809	52.04
966.17	51.99
966.532	52.05
966.893	52.07
967.255	52.07
967.616	52.07
967.977	52.09
968.338	52.05
968.699	52.03
969.061	52
969.421	52
969.782	52
970.143	52.01
970.504	52.03
970.865	52.03
971.225	52.04
971.586	52.01
971.946	51.97
972.307	51.98
972.667	51.96
973.027	52.03
973.388	52.01
973.748	52.04
974.108	52.1
974.468	52.02
974.828	52.04
975.188	52.01
975.548	52.04
975.907	52.07
976.267	52.09
976.627	52.15
976.986	52.12
977.346	52.07
977.705	52.08
978.064	52.02
978.424	52.04
978.783	51.97
979.142	51.96
979.501	51.97
979.86	51.99
980.219	51.97
980.578	52
980.937	51.98
981.296	51.98
981.654	51.94
982.013	51.94
982.371	51.98
982.73	52.05
983.088	52.02
983.447	51.99
983.805	51.97
984.163	51.98
984.521	51.87
984.879	51.79
985.237	51.81
985.595	51.83
985.953	51.76
986.311	51.7
986.669	51.7
987.026	51.73
987.384	51.78
987.741	51.74
988.099	51.8
988.456	51.84
988.814	51.88
989.171	51.9
989.528	51.87
989.885	51.96
990.242	52.02
990.599	52.07
990.956	52.08
991.313	52.04
991.67	52.08
992.027	52.13
992.383	52.21
992.74	52.3
993.096	52.34
993.453	52.35
993.809	52.33
994.165	52.34
994.522	52.34
994.878	52.39
995.234	52.43
995.59	52.41
995.946	52.31
996.302	52.22
996.658	52.17
997.013	52.17
997.369	52.18
997.725	52.33
998.08	52.37
998.436	52.34
998.791	52.35
999.147	52.37
999.502	52.36
999.857	52.5
1000.212	52.53
1000.567	52.53
1000.922	52.46
1001.277	52.41
1001.632	52.22
1001.987	52.25
1002.342	52.2
1002.696	52.2
1003.051	52.26
1003.406	52.48
1003.76	52.32
1004.114	52.24
1004.469	52.3
1004.823	52.59
1005.177	52.65
1005.531	52.8
1005.885	52.83
1006.239	52.88
1006.593	52.89
1006.947	52.82
1007.301	52.56
1007.655	52.65
1008.008	52.91
1008.362	53.06
1008.715	52.88
1009.069	52.81
1009.422	52.87
1009.776	52.87
1010.129	52.81
1010.482	52.81
1010.835	52.96
1011.188	53.08
1011.541	53.16
1011.894	53.08
1012.247	53.01
1012.6	53.01
1012.952	53.12
1013.305	53.04
1013.657	52.98
1014.01	53.07
1014.362	53.04
1014.715	53.09
1015.067	53.09
1015.419	53.15
1015.771	53.04
1016.123	53.04
1016.475	53.2
1016.827	53.25
1017.179	53.15
1017.531	53.17
1017.883	53.13
1018.234	53.3
1018.586	53.26
1018.938	53.61
1019.289	53.53
1019.64	53.62
1019.992	53.55
1020.343	53.27
1020.694	53.25
1021.045	53.45
1021.396	53.39
1021.747	53.53
1022.098	53.54
1022.449	53.38
1022.8	53.13
1023.151	53.1
1023.501	53.21
1023.852	53.26
1024.202	53.65
1024.553	53.66
1024.903	53.62
1025.253	53.82
1025.604	53.71
1025.954	53.44
1026.304	53.55
1026.654	53.46
1027.004	53.66
1027.354	53.51
1027.703	53.37
1028.053	52.91
1028.403	53.05
1028.753	52.8
1029.102	52.79
1029.452	52.91
1029.801	53.16
1030.15	53.04
1030.499	52.99
897.758	1268.66
901.051	1286.15
904.343	1277.41
907.636	1303.42
910.928	1268.79
914.22	1265.77
917.511	1246.01
920.803	1197.17
924.094	1190.7
927.384	1161.77
930.675	1115.14
933.965	1110.19
937.255	1041.44
940.544	1002.05
943.834	952.19
947.123	944.87
950.411	890.58
953.7	874.17
956.988	824.35
960.276	793.14
963.563	780.99
966.851	754.17
970.138	747.33
973.424	723.05
976.711	726.15
979.997	692.68
983.283	688.24
986.568	674.45
989.853	652.89
993.138	643.95
996.423	618.07
999.708	601.11
1002.992	595.09
1006.275	569.11
1009.559	565.96
1012.842	545.85
1016.125	529.96
1019.408	520.6
1022.69	513.35
1025.972	503.52
1029.254	492.31
1032.536	485.02
1035.817	473.04
1039.098	467.76
1042.379	458.45
1045.659	452.35
1048.939	441.39
1052.219	432.67
1055.498	426.95
1058.778	417.32
1062.057	408.02
1065.335	403.41
1068.614	398.08
1071.892	395.07
1075.17	382.02
1078.447	374.63
1081.724	371.76
1085.001	369.93
1088.278	362.38
1091.554	354.26
1094.83	355.11
1098.106	352.86
1101.382	349.8
1104.657	347.92
1107.932	342.26
1111.206	343.06
1114.481	335.87
1117.755	332.41
1121.029	329.92
1124.302	329.4
1127.575	323.04
1130.848	318.72
1134.121	315.24
1137.393	313
1140.665	306.5
1143.937	304.01
1147.208	303.99
1150.48	302.36
1153.75	298.93
1157.021	294.27
1160.291	294.67
1163.561	292.09
1166.831	292.13
1170.101	289.63
1173.37	289.1
1176.639	289.95
1179.907	287.3
1183.176	283.17
1186.444	283.21
1189.711	282.31
1192.979	281.52
1196.246	279.76
1199.513	280.31
1202.78	278.41
1206.046	278.73
1209.312	276.05
1212.578	276.03
1215.843	278.63
1219.108	277.32
1222.373	282.89
1225.638	285.58
1228.902	289.67
1232.166	288.49
1235.43	292.31
1238.693	296.4
1241.956	297.3
1245.219	302.25
1248.482	302.37
1251.744	302.28
1255.006	302.43
1258.268	295.25
1261.529	292.45
1264.79	289.83
1268.051	290.14
1271.312	285.03
1274.572	281.4
1277.832	279.67
1281.092	274.37
1284.351	272.13
1287.61	272.19
1290.869	268.87
1294.128	266.86
1297.386	266.83
1300.644	263.93
1303.902	264.59
1307.159	263.73
1310.416	263.48
1313.673	262.82
1316.93	265.57
1320.186	265.54
1323.442	265.77
1326.697	270.61
1329.953	271.57
1333.208	271.92
1336.463	274.97
1339.717	274.91
1342.972	278.32
1346.226	281.41
1349.479	281.65
1352.733	283.49
1355.986	285.04
1359.238	285.17
1362.491	285.9
1365.743	287.84
1368.995	288.16
1372.247	287.4
1375.498	287.3
1378.749	288.92
1382	285.08
1385.251	285.28
1388.501	283.3
1391.751	283.72
1395	282.03
1398.25	279.82
1401.499	277.73
1404.748	277.26
1407.996	274.65
1411.244	273.31
1414.492	271.14
1417.74	268.19
1420.987	264.43
1424.234	264.17
1427.481	259.77
1430.728	259.61
1433.974	256.88
1437.22	255
1440.465	253.8
1443.711	251.75
1446.956	250.02
1450.201	247.53
1453.445	245.31
1456.689	244.84
1459.933	240.1
1463.177	238.74
1466.42	234.46
1469.663	231.91
1472.906	230.47
1476.148	224.38
1479.391	222.31
1482.633	220.37
1485.874	216.83
1489.115	215.19
1492.356	212.45
1495.597	211.94
1498.838	208.84
1502.078	207.76
1505.318	206.8
1508.557	206.79
1511.797	206.69
1515.036	205.43
1518.274	204.62
1521.513	202.71
1524.751	202.87
1527.989	202.51
1531.227	201.87
1534.464	202.69
1537.701	201.3
1540.938	200.68
1544.174	198.4
1547.41	198.61
1550.646	197.13
1553.882	197.25
1557.117	195.39
1560.352	193.97
1563.587	193.33
1566.821	191.97
1570.055	190.39
1573.289	188.82
1576.523	188.85
1579.756	187.48
1582.989	186.16
1586.222	186.4
1589.454	185.12
1592.686	186.4
1595.918	185.2
1599.15	184.9
1602.381	185.52
1605.612	184.99
1608.843	186.29
1612.073	185.94
1615.303	187.1
1618.533	187.07
1621.762	186.97
1624.992	187.3
1628.221	187.28
1631.449	187.35
1634.678	186.63
1637.906	187.3
1641.134	187.62
1644.361	187.11
1647.588	187.6
1650.815	186.61
1654.042	185.94
1657.269	187.08
1660.495	187.27
1663.72	186.56
1666.946	187.79
1670.171	188.6
1673.396	188.08
1676.621	188.16
1679.845	188.56
1683.069	188.58
1686.293	189.62
1689.517	191.48
1692.74	190.86
1695.963	191.35
1699.185	193.21
1702.408	192.91
1705.63	193.55
1708.852	193.75
1712.073	193.96
1715.294	194.44
1718.515	194.93
1721.736	194.78
1724.956	194.77
1728.176	195.05
1731.396	196.68
1734.616	195.99
1737.835	196.86
1741.054	195.62
1744.272	196.12
1747.491	198.14
1750.709	198.07
1753.927	198.07
1757.144	197.56
1760.361	198.32
1763.578	198.32
1766.795	197.65
1770.011	199.19
1773.227	198.51
1776.443	201.42
1779.658	202.39
1782.874	201.25
1786.089	202.22
1789.303	203.28
1792.518	205.91
1795.732	205.45
1798.945	207.67
1802.159	207.82
1805.372	208.24
1808.585	212.46
1811.797	212.86
1815.01	212.89
1818.222	215.09
1821.434	216.09
1824.645	216.87
1827.856	220.17
1831.067	221.83
1834.278	221.34
1837.488	222.8
1840.698	224.78
1843.908	222.61
1847.117	223.1
1850.326	225
1853.535	224.42
1856.744	227.73
1859.952	227.46
1863.16	225.1
1866.368	224.62
1869.575	226.38
1872.782	222.93
1875.989	221.89
1879.196	220.79
1882.402	218.89
1885.608	219.71
1888.814	219.68
1892.019	219.37
1895.224	218.32
1898.429	218.05
1901.634	218.79
1904.838	219.31
1908.042	221.6
1911.246	222.38
1914.449	224.09
1917.652	224.42
1920.855	224.15
1924.058	223.5
1927.26	222.37
1930.462	223.4
1933.664	225.88
1936.865	223.94
1940.066	223.23
1943.267	222.5
1946.467	221.57
1949.668	222.83
1952.868	225.85
1956.067	225.53
1959.267	225.73
1962.466	226.33
1965.665	225.85
1968.863	225.86
1972.061	229.51
1975.259	231.82
1978.457	233.99
1981.654	236.07
1984.852	236.22
1988.048	235.13
1991.245	237.28
1994.441	240.06
1997.637	241.89
2000.833	245.74
2004.028	250
2007.223	250.35
2010.418	252.91
2013.613	256.43
2016.807	259.18
2020.001	261.12
2023.194	265.74
2026.388	271.59
2029.581	278.16
2032.774	280.63
2035.966	286.44
2039.158	286.06
2042.35	291.94
2045.542	293.95
2048.733	298.74
2051.924	302.13
2055.115	307.93
2058.306	308.23
2061.496	310.72
2064.686	311.01
2067.875	315.38
2071.065	317.03
2074.254	315.43
2077.442	319.89
2080.631	320.65
2083.819	323.78
2087.007	324.52
2090.195	328.57
2093.382	331.98
2096.569	330.22
2099.756	334.8
2102.942	336.92
2106.128	339.22
2109.314	346.91
2112.5	344.86
2115.685	352.11
2118.87	352.46
2122.055	360.34
2125.239	362.02
2128.424	366.08
2131.608	370.03
2134.791	374.29
2137.974	375.62
2141.157	377.51
2144.34	378.73
2147.523	383.48
2150.705	381.8
2153.887	385.71
2157.068	385.99
2160.25	382.88
2163.431	384.38
2166.611	388.7
2169.792	396.84
2172.972	401.18
2176.152	402.54
2179.331	407.95
2182.511	415.95
2185.69	420.17
2188.868	429.32
2192.047	430.05
2195.225	443.76
2198.403	453.89
2201.58	462.75
2204.758	470.97
2207.935	480.81
2211.111	490.29
2214.288	495.31
2217.464	495.95
2220.64	504.47
2223.815	510.58
2226.991	531.45
2230.166	532.33
2233.34	541.74
2236.515	549.89
2239.689	551.15
2242.863	554.11
2246.036	570.16
2249.209	567.34
2252.382	577.95
2255.555	593.65
2258.727	595.21
2261.9	599.76
2265.071	606.03
2268.243	615.19
2271.414	621.33
2274.585	636.14
2277.756	642.34
2280.926	648.16
2284.096	661.2
2287.266	676.4
2290.436	682.9
2293.605	698.98
2296.774	718.9
2299.942	740.2
2303.111	744.72
2306.279	763.16
2309.447	771.69
2312.614	791.32
2315.781	809.67
2318.948	849.64
2322.115	836.56
2325.281	881.96
2328.447	864.25
2331.613	897.82
2334.779	887.55
2337.944	929.64
2341.109	937.34
2344.274	964.48
2347.438	998.09
2350.602	1001.37
2353.766	1032.16
2356.929	1047.35
2360.092	1040.13
2363.255	1112.99
2366.418	1112.11
2369.58	1133.93
2372.742	1199.7
2375.904	1230.93
2379.066	1221.74
2382.227	1198.26
2385.388	1300.57
2388.548	1300.07
2391.709	1315.61
2394.869	1464.84
2398.029	1402.48
2401.188	1445.4
2404.347	1432.18
2407.506	1411.28
2410.665	1450.18
2413.823	1539.15
2416.981	1633.77
2420.139	1577.63
2423.296	1563.8
2426.453	1629.69
2429.61	1566.98
2432.767	1642.23
2435.923	1618.75
2439.079	1776.3
2442.235	1799.51
2445.391	1777.7
2448.546	1764.91
2451.701	1715.33
2454.855	1710.76
2458.009	1812.45
2461.163	1891.14
2464.317	1959.96
2467.471	2010.6
2470.624	2015.46
2473.777	1963.52
2476.929	1916.67
2480.082	1869.7
2483.234	1844.74
2486.385	1937.04
2489.537	1947.5
2492.688	2015.55
2495.839	1961.17
2498.989	1916.04
2502.14	1930.2
2505.29	1945.22
2508.439	1981.22
2511.589	1971.04
2514.738	2148.17
2517.887	2102.11
2521.035	2214.33
2524.183	2239.57
2527.331	2257.66
2530.479	2245.81
2533.627	2267.42
