Data from C_2_DEC_CT_2N_Splice17_13-30-30-512.txt Node
Date: Sat Mar 07 13:30:30 EST 2020
User: sa697716
Spectrometer: NQ5500242
Trigger mode: 0
Integration Time (sec): 1.450000E-1
Scans to average: 20
Nonlinearity correction enabled: false
Boxcar width: 5
Storing dark spectrum: false
XAxis mode: Wavelengths
Number of Pixels in Spectrum: 512
>>>>>Begin Spectral Data<<<<<
187.83	148.1
188.298	190.18
188.766	158.15
189.233	145.7
189.701	147.45
190.169	187.17
190.636	187.39
191.104	254.64
191.571	72.51
192.039	225.03
192.506	458.32
192.974	-19.82
193.441	140.11
193.908	34.88
194.375	118.3
194.842	74
195.31	118.48
195.777	70.38
196.244	50.54
196.711	50.85
197.177	54.71
197.644	53.59
198.111	53.69
198.578	53.9
199.045	54.21
199.511	53.69
199.978	53.66
200.445	54.28
200.911	54.19
201.378	54.42
201.844	54.39
202.31	53.98
202.777	54.05
203.243	53.86
203.709	53.41
204.176	52.71
204.642	52.43
205.108	52.18
205.574	51.45
206.04	50.78
206.506	50.16
206.972	50.09
207.438	49.58
207.903	49.01
208.369	47.93
208.835	46.94
209.301	46.09
209.766	44.79
210.232	43.51
210.697	42.41
211.163	41.54
211.628	40.61
212.094	39.38
212.559	38.62
213.024	37.59
213.49	36.94
213.955	36.37
214.42	35.58
214.885	34.7
215.35	33.63
215.815	32.2
216.28	30.26
216.745	27.96
217.21	25.83
217.675	23.88
218.14	22.19
218.604	20.56
219.069	19.27
219.534	18.25
219.998	17.39
220.463	16.68
220.927	15.92
221.392	15.42
221.856	15.02
222.32	14.63
222.785	14.29
223.249	13.98
223.713	13.74
224.177	13.51
224.642	13.23
225.106	12.96
225.57	12.7
226.034	12.51
226.497	12.29
226.961	12.08
227.425	11.89
227.889	11.7
228.353	11.5
228.816	11.32
229.28	11.13
229.744	10.98
230.207	10.84
230.671	10.7
231.134	10.56
231.597	10.44
232.061	10.31
232.524	10.18
232.987	10.06
233.45	9.96
233.914	9.83
234.377	9.71
234.84	9.61
235.303	9.5
235.766	9.41
236.229	9.31
236.691	9.21
237.154	9.11
237.617	9.02
238.08	8.93
238.542	8.83
239.005	8.76
239.468	8.68
239.93	8.6
240.393	8.52
240.855	8.42
241.317	8.34
241.78	8.24
242.242	8.15
242.704	8.09
243.166	8.01
243.629	7.94
244.091	7.86
244.553	7.79
245.015	7.71
245.477	7.63
245.939	7.57
246.4	7.51
246.862	7.45
247.324	7.4
247.786	7.33
248.247	7.27
248.709	7.21
249.17	7.15
249.632	7.1
250.093	7.05
250.555	7.01
251.016	6.96
251.477	6.91
251.939	6.86
252.4	6.82
252.861	6.77
253.322	6.72
253.783	6.68
254.244	6.64
254.705	6.59
255.166	6.54
255.627	6.5
256.088	6.46
256.549	6.42
257.009	6.38
257.47	6.33
257.931	6.28
258.391	6.23
258.852	6.19
259.312	6.16
259.773	6.12
260.233	6.09
260.694	6.06
261.154	6.02
261.614	5.99
262.074	5.95
262.534	5.92
262.994	5.9
263.455	5.88
263.915	5.86
264.374	5.83
264.834	5.81
265.294	5.79
265.754	5.78
266.214	5.75
266.673	5.73
267.133	5.72
267.593	5.71
268.052	5.69
268.512	5.68
268.971	5.66
269.431	5.64
269.89	5.63
270.349	5.61
270.809	5.59
271.268	5.58
271.727	5.57
272.186	5.56
272.645	5.55
273.104	5.53
273.563	5.52
274.022	5.52
274.481	5.51
274.94	5.5
275.399	5.48
275.857	5.48
276.316	5.46
276.775	5.44
277.233	5.43
277.692	5.42
278.15	5.41
278.609	5.39
279.067	5.38
279.525	5.36
279.984	5.35
280.442	5.34
280.9	5.33
281.358	5.32
281.816	5.31
282.274	5.3
282.732	5.29
283.19	5.27
283.648	5.26
284.106	5.24
284.564	5.23
285.021	5.22
285.479	5.21
285.937	5.19
286.394	5.18
286.852	5.17
287.309	5.16
287.767	5.14
288.224	5.12
288.682	5.11
289.139	5.09
289.596	5.07
290.053	5.05
290.511	5.03
290.968	5.01
291.425	4.99
291.882	4.97
292.339	4.95
292.796	4.94
293.252	4.92
293.709	4.9
294.166	4.88
294.623	4.88
295.079	4.87
295.536	4.86
295.992	4.85
296.449	4.84
296.905	4.83
297.362	4.82
297.818	4.81
298.274	4.81
298.731	4.8
299.187	4.78
299.643	4.77
300.099	4.76
300.555	4.75
301.011	4.74
301.467	4.73
301.923	4.72
302.379	4.71
302.835	4.71
303.291	4.69
303.746	4.69
304.202	4.69
304.658	4.69
305.113	4.68
305.569	4.68
306.024	4.67
306.479	4.66
306.935	4.66
307.39	4.66
307.845	4.66
308.301	4.66
308.756	4.67
309.211	4.66
309.666	4.66
310.121	4.65
310.576	4.66
311.031	4.65
311.486	4.65
311.94	4.66
312.395	4.65
312.85	4.64
313.305	4.64
313.759	4.63
314.214	4.63
314.668	4.63
315.123	4.62
315.577	4.62
316.032	4.61
316.486	4.6
316.94	4.59
317.394	4.58
317.849	4.56
318.303	4.55
318.757	4.53
319.211	4.52
319.665	4.5
320.119	4.49
320.572	4.47
321.026	4.47
321.48	4.46
321.934	4.44
322.387	4.44
322.841	4.43
323.295	4.43
323.748	4.42
324.202	4.42
324.655	4.4
325.108	4.4
325.562	4.39
326.015	4.38
326.468	4.37
326.921	4.37
327.374	4.36
327.827	4.36
328.28	4.35
328.733	4.35
329.186	4.34
329.639	4.34
330.092	4.33
330.545	4.33
330.997	4.32
331.45	4.32
331.903	4.32
332.355	4.32
332.808	4.31
333.26	4.31
333.713	4.31
334.165	4.3
334.617	4.3
335.069	4.3
335.522	4.3
335.974	4.31
336.426	4.3
336.878	4.28
337.33	4.28
337.782	4.27
338.234	4.28
338.686	4.27
339.137	4.27
339.589	4.26
340.041	4.26
340.493	4.24
340.944	4.22
341.396	4.21
341.847	4.2
342.299	4.19
342.75	4.18
343.201	4.16
343.653	4.15
344.104	4.12
344.555	4.11
345.006	4.1
345.457	4.09
345.908	4.08
346.359	4.08
346.81	4.08
347.261	4.07
347.712	4.06
348.163	4.05
348.613	4.05
349.064	4.06
349.515	4.05
349.965	4.05
350.416	4.04
350.866	4.04
351.317	4.03
351.767	4.03
352.217	4.03
352.668	4.03
353.118	4.03
353.568	4.02
354.018	4.02
354.468	4.02
354.918	4.02
355.368	4.03
355.818	4.03
356.268	4.03
356.718	4.03
357.168	4.02
357.617	4.01
358.067	4.01
358.517	4.02
358.966	4.02
359.416	4.03
359.865	4.02
360.315	4.02
360.764	4.02
361.213	4.01
361.663	4
362.112	4.01
362.561	4.02
363.01	4.02
363.459	4
363.908	4
364.357	4
364.806	3.99
365.255	3.99
365.703	4
366.152	4
366.601	4
367.05	4
367.498	3.99
367.947	4
368.395	4
368.844	4
369.292	3.99
369.74	4
370.189	4
370.637	3.99
371.085	3.98
371.533	3.98
371.981	3.98
372.429	3.98
372.877	3.97
373.325	3.97
373.773	3.96
374.221	3.95
374.669	3.95
375.116	3.94
375.564	3.93
376.012	3.92
376.459	3.92
376.907	3.92
377.354	3.92
377.801	3.92
378.249	3.92
378.696	3.92
379.143	3.92
379.591	3.92
380.038	3.93
380.485	3.93
380.932	3.94
381.379	3.94
381.826	3.94
382.273	3.93
382.72	3.93
383.166	3.93
383.613	3.93
384.06	3.92
384.506	3.92
384.953	3.93
385.4	3.93
385.846	3.94
386.292	3.95
386.739	3.95
387.185	3.95
387.631	3.96
388.078	3.97
388.524	3.97
388.97	3.99
389.416	4
389.862	4.01
390.308	4.03
390.754	4.04
391.2	4.05
391.645	4.07
392.091	4.09
392.537	4.12
392.983	4.14
393.428	4.16
393.874	4.18
394.319	4.2
394.765	4.22
395.21	4.24
395.655	4.26
396.101	4.29
396.546	4.31
396.991	4.34
397.436	4.36
397.881	4.4
398.326	4.44
398.771	4.46
399.216	4.49
399.661	4.53
400.106	4.56
400.551	4.59
400.995	4.6
401.44	4.63
401.885	4.66
402.329	4.69
402.774	4.71
403.218	4.75
403.663	4.78
404.107	4.82
404.551	4.84
404.995	4.87
405.44	4.89
405.884	4.93
406.328	4.96
406.772	4.99
407.216	5.02
407.66	5.05
408.104	5.05
408.547	5.07
408.991	5.09
409.435	5.11
409.879	5.14
410.322	5.17
410.766	5.21
411.209	5.25
411.653	5.28
412.096	5.31
412.54	5.33
412.983	5.36
413.426	5.41
413.869	5.44
414.312	5.49
414.756	5.52
415.199	5.55
415.642	5.57
416.085	5.57
416.527	5.59
416.97	5.6
417.413	5.62
417.856	5.63
418.298	5.64
418.741	5.64
419.184	5.64
419.626	5.65
420.069	5.66
420.511	5.68
420.953	5.69
421.396	5.69
421.838	5.71
422.28	5.72
422.722	5.75
423.164	5.75
423.606	5.76
424.048	5.77
424.49	5.77
424.932	5.78
425.374	5.76
425.816	5.75
426.258	5.74
426.699	5.72
427.141	5.72
427.582	5.71
428.024	5.73
428.465	5.73
428.907	5.73
429.348	5.72
429.789	5.72
430.231	5.74
430.672	5.76
431.113	5.78
431.554	5.78
431.995	5.81
432.436	5.82
432.877	5.83
433.318	5.84
433.759	5.87
434.2	5.9
434.64	5.93
435.081	5.93
435.522	5.95
435.962	5.97
436.403	6.01
436.843	6.01
437.284	6.01
437.724	6.02
438.164	6.01
438.604	6.04
439.045	6.06
439.485	6.04
439.925	6.05
440.365	6.07
440.805	6.08
441.245	6.1
441.685	6.12
442.125	6.16
442.564	6.18
443.004	6.21
443.444	6.23
443.883	6.25
444.323	6.29
444.762	6.31
445.202	6.34
445.641	6.36
446.081	6.4
446.52	6.42
446.959	6.48
447.398	6.52
447.837	6.55
448.276	6.57
448.716	6.6
449.154	6.65
449.593	6.7
450.032	6.73
450.471	6.75
450.91	6.75
451.349	6.78
451.787	6.77
452.226	6.77
452.664	6.79
453.103	6.81
453.541	6.81
453.98	6.81
454.418	6.79
454.856	6.79
455.295	6.78
455.733	6.77
456.171	6.76
456.609	6.76
457.047	6.74
457.485	6.74
457.923	6.74
458.361	6.74
458.798	6.73
459.236	6.74
459.674	6.73
460.111	6.74
460.549	6.76
460.987	6.76
461.424	6.76
461.862	6.79
462.299	6.78
462.736	6.77
463.173	6.78
463.611	6.79
464.048	6.79
464.485	6.8
464.922	6.8
465.359	6.8
465.796	6.81
466.233	6.81
466.67	6.82
467.106	6.84
467.543	6.84
467.98	6.84
468.416	6.84
468.853	6.83
469.29	6.84
469.726	6.85
470.162	6.86
470.599	6.84
471.035	6.84
471.471	6.83
471.907	6.81
472.344	6.82
472.78	6.83
473.216	6.83
473.652	6.84
474.088	6.83
474.523	6.85
474.959	6.84
475.395	6.84
475.831	6.84
476.266	6.85
476.702	6.85
477.138	6.86
477.573	6.84
478.008	6.84
478.444	6.83
478.879	6.84
479.314	6.83
479.75	6.82
480.185	6.82
480.62	6.83
481.055	6.82
481.49	6.83
481.925	6.83
482.36	6.83
482.795	6.84
483.229	6.84
483.664	6.85
484.099	6.85
484.534	6.86
484.968	6.88
485.403	6.89
485.837	6.91
486.271	6.94
486.706	6.97
487.14	7
487.574	7.04
488.009	7.08
488.443	7.12
488.877	7.17
489.311	7.22
489.745	7.27
490.179	7.33
490.613	7.4
491.046	7.45
491.48	7.52
491.914	7.59
492.348	7.65
492.781	7.74
493.215	7.82
493.648	7.9
494.082	7.99
494.515	8.07
494.948	8.17
495.382	8.26
495.815	8.37
496.248	8.48
496.681	8.61
497.114	8.74
497.547	8.86
497.98	8.99
498.413	9.12
498.846	9.27
499.279	9.42
499.711	9.57
500.144	9.73
500.577	9.9
501.009	10.06
501.442	10.22
501.874	10.41
502.306	10.59
502.739	10.79
503.171	10.98
503.603	11.17
504.036	11.39
504.468	11.6
504.9	11.82
505.332	12.05
505.764	12.28
506.196	12.52
506.627	12.76
507.059	13.03
507.491	13.28
507.923	13.55
508.354	13.83
508.786	14.09
509.217	14.38
509.649	14.66
510.08	14.93
510.512	15.22
510.943	15.51
511.374	15.8
511.805	16.08
512.237	16.38
512.668	16.68
513.099	16.97
513.53	17.28
513.961	17.58
514.391	17.89
514.822	18.21
515.253	18.5
515.684	18.79
516.114	19.09
516.545	19.39
516.975	19.67
517.406	19.96
517.836	20.26
518.267	20.56
518.697	20.83
519.127	21.1
519.558	21.36
519.988	21.64
520.418	21.91
520.848	22.16
521.278	22.43
521.708	22.78
522.138	23.04
522.567	23.27
522.997	23.48
523.427	23.71
523.857	23.93
524.286	24.14
524.716	24.33
525.145	24.53
525.575	24.72
526.004	24.9
526.433	24.97
526.863	25.12
527.292	25.28
527.721	25.44
528.15	25.57
528.579	25.71
529.008	25.84
529.437	25.97
529.866	26.09
530.295	26.21
530.724	26.33
531.152	26.43
531.581	26.53
532.01	26.63
532.438	26.71
532.867	26.81
533.295	26.88
533.723	26.95
534.152	27.04
534.58	27.1
535.008	27.15
535.436	27.21
535.865	27.27
536.293	27.32
536.721	27.37
537.149	27.42
537.576	27.47
538.004	27.53
538.432	27.56
538.86	27.6
539.287	27.62
539.715	27.68
540.143	27.7
540.57	27.73
540.998	27.74
541.425	27.77
541.852	27.79
542.28	27.81
542.707	27.83
543.134	27.87
543.561	27.88
543.988	27.92
544.415	27.92
544.842	27.93
545.269	27.95
545.696	27.99
546.123	28
546.549	28.04
546.976	28.06
547.403	28.08
547.829	28.08
548.256	28.09
548.682	28.09
549.108	28.13
549.535	28.17
549.961	28.18
550.387	28.19
550.813	28.2
551.24	28.18
551.666	28.17
552.092	28.18
552.518	28.2
552.943	28.18
553.369	28.17
553.795	28.14
554.221	28.11
554.646	28.08
555.072	28.07
555.498	28.02
555.923	27.98
556.349	27.93
556.774	27.88
557.199	27.81
557.625	27.78
558.05	27.74
558.475	27.68
558.9	27.62
559.325	27.57
559.75	27.51
560.175	27.45
560.6	27.38
561.025	27.32
561.449	27.24
561.874	27.16
562.299	27.07
562.723	26.97
563.148	26.87
563.572	26.76
563.997	26.64
564.421	26.52
564.846	26.4
565.27	26.28
565.694	26.16
566.118	26.05
566.542	25.93
566.966	25.8
567.39	25.68
567.814	25.58
568.238	25.47
568.662	25.35
569.086	25.23
569.509	25.11
569.933	25
570.357	24.87
570.78	24.74
571.204	24.62
571.627	24.5
572.05	24.38
572.474	24.25
572.897	24.13
573.32	24.01
573.743	23.89
574.166	23.78
574.589	23.67
575.012	23.58
575.435	23.49
575.858	23.39
576.281	23.3
576.704	23.19
577.126	23.11
577.549	23.02
577.972	22.91
578.394	22.83
578.817	22.74
579.239	22.66
579.661	22.58
580.084	22.5
580.506	22.42
580.928	22.33
581.35	22.26
581.772	22.17
582.194	22.1
582.616	22.03
583.038	21.94
583.46	21.87
583.882	21.8
584.303	21.72
584.725	21.65
585.147	21.6
585.568	21.54
585.99	21.49
586.411	21.43
586.833	21.38
587.254	21.32
587.675	21.27
588.096	21.23
588.518	21.18
588.939	21.14
589.36	21.1
589.781	21.03
590.202	20.99
590.623	20.95
591.043	20.9
591.464	20.87
591.885	20.82
592.305	20.8
592.726	20.76
593.147	20.72
593.567	20.69
593.987	20.66
594.408	20.63
594.828	20.59
595.248	20.55
595.669	20.54
596.089	20.5
596.509	20.49
596.929	20.45
597.349	20.43
597.769	20.4
598.189	20.35
598.608	20.33
599.028	20.31
599.448	20.27
599.867	20.22
600.287	20.18
600.706	20.14
601.126	20.09
601.545	20.05
601.965	20.01
602.384	19.96
602.803	19.91
603.222	19.84
603.641	19.77
604.061	19.73
604.48	19.65
604.898	19.58
605.317	19.5
605.736	19.43
606.155	19.36
606.574	19.29
606.992	19.19
607.411	19.12
607.829	19.02
608.248	18.92
608.666	18.84
609.085	18.77
609.503	18.69
609.921	18.6
610.339	18.52
610.758	18.43
611.176	18.33
611.594	18.26
612.012	18.18
612.43	18.11
612.847	18.03
613.265	17.94
613.683	17.87
614.101	17.79
614.518	17.71
614.936	17.62
615.353	17.52
615.771	17.45
616.188	17.37
616.606	17.3
617.023	17.23
617.44	17.17
617.857	17.12
618.274	17.04
618.691	16.97
619.108	16.92
619.525	16.87
619.942	16.85
620.359	16.8
620.776	16.76
621.192	16.72
621.609	16.7
622.026	16.65
622.442	16.62
622.859	16.6
623.275	16.58
623.691	16.56
624.108	16.53
624.524	16.5
624.94	16.49
625.356	16.48
625.772	16.48
626.188	16.46
626.604	16.45
627.02	16.44
627.436	16.42
627.852	16.42
628.268	16.4
628.683	16.39
629.099	16.39
629.514	16.37
629.93	16.34
630.345	16.31
630.761	16.28
631.176	16.26
631.591	16.22
632.007	16.19
632.422	16.13
632.837	16.08
633.252	16.01
633.667	15.95
634.082	15.88
634.497	15.81
634.911	15.72
635.326	15.64
635.741	15.55
636.155	15.45
636.57	15.34
636.984	15.25
637.399	15.13
637.813	15.02
638.228	14.91
638.642	14.77
639.056	14.65
639.47	14.53
639.884	14.39
640.298	14.24
640.712	14.11
641.126	13.97
641.54	13.82
641.954	13.67
642.368	13.52
642.781	13.37
643.195	13.23
643.609	13.09
644.022	12.94
644.436	12.81
644.849	12.68
645.262	12.55
645.676	12.44
646.089	12.34
646.502	12.24
646.915	12.14
647.328	12.05
647.741	11.96
648.154	11.87
648.567	11.8
648.98	11.74
649.393	11.66
649.805	11.6
650.218	11.53
650.631	11.46
651.043	11.39
651.456	11.33
651.868	11.25
652.28	11.18
652.693	11.12
653.105	11.04
653.517	10.95
653.929	10.88
654.341	10.78
654.753	10.68
655.165	10.59
655.577	10.49
655.989	10.38
656.401	10.26
656.813	10.16
657.224	10.03
657.636	9.9
658.047	9.78
658.459	9.64
658.87	9.5
659.282	9.37
659.693	9.23
660.104	9.09
660.515	8.95
660.926	8.81
661.338	8.66
661.749	8.51
662.159	8.39
662.57	8.27
662.981	8.15
663.392	8.05
663.803	7.93
664.213	7.82
664.624	7.72
665.035	7.62
665.445	7.52
665.855	7.44
666.266	7.37
666.676	7.3
667.086	7.21
667.497	7.14
667.907	7.08
668.317	7.04
668.727	6.98
669.137	6.94
669.547	6.91
669.956	6.88
670.366	6.85
670.776	6.83
671.186	6.8
671.595	6.8
672.005	6.78
672.414	6.76
672.824	6.74
673.233	6.74
673.642	6.74
674.052	6.74
674.461	6.75
674.87	6.76
675.279	6.78
675.688	6.81
676.097	6.83
676.506	6.86
676.915	6.89
677.323	6.93
677.732	6.97
678.141	7.02
678.549	7.07
678.958	7.13
679.366	7.21
679.775	7.28
680.183	7.38
680.592	7.49
681	7.62
681.408	7.79
681.816	7.96
682.224	8.14
682.632	8.35
683.04	8.57
683.448	8.82
683.856	9.07
684.264	9.37
684.671	9.67
685.079	10.02
685.487	10.39
685.894	10.77
686.302	11.2
686.709	11.65
687.116	12.11
687.524	12.6
687.931	13.12
688.338	13.66
688.745	14.22
689.152	14.77
689.559	15.34
689.966	15.92
690.373	16.51
690.78	17.08
691.187	17.66
691.593	18.26
692	18.86
692.407	19.42
692.813	20.02
693.22	20.58
693.626	21.15
694.032	21.71
694.439	22.25
694.845	22.79
695.251	23.33
695.657	23.85
696.063	24.37
696.469	24.87
696.875	25.36
697.281	25.83
697.687	26.3
698.093	26.75
698.498	27.21
698.904	27.67
699.31	28.09
699.715	28.5
700.12	28.93
700.526	29.32
700.931	29.69
701.337	30.05
701.742	30.4
702.147	30.75
702.552	31.08
702.957	31.39
703.362	31.68
703.767	31.95
704.172	32.24
704.577	32.5
704.981	32.8
705.386	33.07
705.791	33.33
706.195	33.59
706.6	33.83
707.004	34.06
707.408	34.32
707.813	34.59
708.217	34.84
708.621	35.07
709.025	35.29
709.43	35.46
709.834	35.67
710.237	35.85
710.641	36.03
711.045	36.22
711.449	36.43
711.853	36.61
712.256	36.76
712.66	36.93
713.064	37.07
713.467	37.23
713.87	37.39
714.274	37.54
714.677	37.71
715.08	37.88
715.484	38.04
715.887	38.19
716.29	38.31
716.693	38.45
717.096	38.59
717.499	38.74
717.901	38.86
718.304	39.02
718.707	39.13
719.109	39.24
719.512	39.35
719.915	39.45
720.317	39.52
720.719	39.62
721.122	39.71
721.524	39.79
721.926	39.88
722.328	39.97
722.731	40.03
723.133	40.12
723.535	40.23
723.937	40.31
724.338	40.4
724.74	40.5
725.142	40.66
725.544	40.75
725.945	40.87
726.347	40.93
726.748	41.01
727.15	41.07
727.551	41.14
727.952	41.19
728.354	41.24
728.755	41.27
729.156	41.31
729.557	41.29
729.958	41.31
730.359	41.32
730.76	41.36
731.161	41.39
731.562	41.47
731.962	41.48
732.363	41.52
732.763	41.58
733.164	41.63
733.564	41.67
733.965	41.7
734.365	41.74
734.766	41.76
735.166	41.8
735.566	41.82
735.966	41.84
736.366	41.88
736.766	41.88
737.166	41.89
737.566	41.92
737.966	41.93
738.365	41.96
738.765	41.99
739.165	42.03
739.564	42.03
739.964	42.07
740.363	42.06
740.763	42.08
741.162	42.11
741.561	42.14
741.96	42.13
742.36	42.14
742.759	42.14
743.158	42.14
743.557	42.13
743.955	42.17
744.354	42.17
744.753	42.21
745.152	42.25
745.55	42.28
745.949	42.28
746.348	42.3
746.746	42.29
747.144	42.32
747.543	42.32
747.941	42.34
748.339	42.31
748.737	42.33
749.136	42.32
749.534	42.29
749.932	42.28
750.33	42.28
750.727	42.27
751.125	42.3
751.523	42.28
751.921	42.31
752.318	42.31
752.716	42.34
753.113	42.31
753.511	42.31
753.908	42.33
754.305	42.35
754.703	42.36
755.1	42.39
755.497	42.4
755.894	42.42
756.291	42.4
756.688	42.39
757.085	42.39
757.482	42.4
757.878	42.42
758.275	42.41
758.672	42.39
759.068	42.37
759.465	42.35
759.861	42.33
760.258	42.33
760.654	42.34
761.05	42.35
761.447	42.35
761.843	42.35
762.239	42.35
762.635	42.35
763.031	42.35
763.427	42.38
763.822	42.39
764.218	42.41
764.614	42.41
765.01	42.4
765.405	42.39
765.801	42.38
766.196	42.38
766.592	42.34
766.987	42.35
767.382	42.33
767.778	42.32
768.173	42.33
768.568	42.29
768.963	42.3
769.358	42.32
769.753	42.34
770.148	42.34
770.542	42.35
770.937	42.37
771.332	42.36
771.726	42.37
772.121	42.37
772.515	42.35
772.91	42.37
773.304	42.35
773.699	42.35
774.093	42.34
774.487	42.34
774.881	42.35
775.275	42.35
775.669	42.34
776.063	42.34
776.457	42.34
776.851	42.36
777.245	42.34
777.638	42.32
778.032	42.33
778.425	42.36
778.819	42.35
779.212	42.35
779.606	42.38
779.999	42.4
780.392	42.43
780.786	42.43
781.179	42.45
781.572	42.51
781.965	42.53
782.358	42.51
782.751	42.47
783.143	42.47
783.536	42.46
783.929	42.45
784.322	42.48
784.714	42.48
785.107	42.51
785.499	42.51
785.891	42.48
786.284	42.5
786.676	42.55
787.068	42.56
787.46	42.57
787.852	42.59
788.245	42.59
788.636	42.57
789.028	42.57
789.42	42.55
789.812	42.54
790.204	42.56
790.595	42.56
790.987	42.55
791.378	42.59
791.77	42.6
792.161	42.61
792.553	42.62
792.944	42.62
793.335	42.62
793.726	42.63
794.117	42.62
794.508	42.59
794.899	42.6
795.29	42.59
795.681	42.57
796.072	42.59
796.463	42.61
796.853	42.6
797.244	42.61
797.634	42.61
798.025	42.65
798.415	42.66
798.806	42.68
799.196	42.71
799.586	42.71
799.976	42.73
800.366	42.71
800.756	42.71
801.146	42.75
801.536	42.75
801.926	42.75
802.316	42.74
802.706	42.75
803.095	42.78
803.485	42.74
803.874	42.75
804.264	42.75
804.653	42.74
805.043	42.76
805.432	42.73
805.821	42.75
806.21	42.76
806.599	42.77
806.988	42.79
807.377	42.76
807.766	42.77
808.155	42.76
808.544	42.77
808.933	42.77
809.321	42.78
809.71	42.79
810.098	42.78
810.487	42.77
810.875	42.76
811.264	42.76
811.652	42.79
812.04	42.79
812.428	42.83
812.816	42.85
813.204	42.85
813.592	42.85
813.98	42.85
814.368	42.86
814.756	42.88
815.144	42.89
815.531	42.88
815.919	42.89
816.306	42.9
816.694	42.89
817.081	42.89
817.469	42.89
817.856	42.87
818.243	42.87
818.63	42.89
819.017	42.88
819.404	42.9
819.791	42.91
820.178	42.9
820.565	42.91
820.952	42.91
821.339	42.88
821.725	42.9
822.112	42.93
822.498	42.94
822.885	42.95
823.271	42.95
823.657	42.92
824.044	42.89
824.43	42.89
824.816	42.9
825.202	42.89
825.588	42.91
825.974	42.9
826.36	42.9
826.746	42.89
827.132	42.85
827.517	42.86
827.903	42.89
828.289	42.9
828.674	42.9
829.06	42.88
829.445	42.87
829.83	42.86
830.216	42.84
830.601	42.84
830.986	42.84
831.371	42.86
831.756	42.87
832.141	42.86
832.526	42.87
832.911	42.88
833.295	42.89
833.68	42.91
834.065	42.93
834.449	42.92
834.834	42.9
835.218	42.88
835.603	42.84
835.987	42.82
836.371	42.79
836.755	42.78
837.139	42.75
837.524	42.74
837.908	42.75
838.291	42.75
838.675	42.76
839.059	42.77
839.443	42.79
839.827	42.81
840.21	42.83
840.594	42.86
840.977	42.85
841.361	42.88
841.744	42.87
842.127	42.85
842.511	42.85
842.894	42.84
843.277	42.83
843.66	42.81
844.043	42.81
844.426	42.79
844.809	42.77
845.191	42.79
845.574	42.79
845.957	42.8
846.339	42.82
846.722	42.79
847.104	42.82
847.487	42.81
847.869	42.82
848.252	42.81
848.634	42.84
849.016	42.87
849.398	42.88
849.78	42.88
850.162	42.88
850.544	42.85
850.926	42.88
851.307	42.87
851.689	42.89
852.071	42.89
852.452	42.92
852.834	42.92
853.215	42.92
853.597	42.92
853.978	42.92
854.359	42.92
854.741	42.95
855.122	42.96
855.503	42.96
855.884	42.96
856.265	42.98
856.646	42.94
857.026	42.94
857.407	42.93
857.788	42.92
858.169	42.94
858.549	42.94
858.93	42.94
859.31	42.92
859.69	42.92
860.071	42.94
860.451	42.94
860.831	42.96
861.211	42.94
861.591	42.94
861.971	42.95
862.351	42.96
862.731	42.97
863.111	42.95
863.491	42.95
863.87	42.95
864.25	42.93
864.629	42.95
865.009	42.96
865.388	42.99
865.768	42.99
866.147	42.98
866.526	42.98
866.905	43
867.284	43.02
867.663	43.03
868.042	43.04
868.421	43.04
868.8	43.04
869.179	43.03
869.558	43.03
869.936	43.02
870.315	43
870.693	43.01
871.072	43
871.45	43.02
871.828	43.03
872.207	43.05
872.585	43.02
872.963	43.02
873.341	43.02
873.719	43.02
874.097	43.03
874.475	43.07
874.853	43.07
875.23	43.09
875.608	43.06
875.986	43.07
876.363	43.07
876.741	43.13
877.118	43.14
877.495	43.15
877.873	43.16
878.25	43.18
878.627	43.19
879.004	43.2
879.381	43.2
879.758	43.18
880.135	43.15
880.512	43.12
880.889	43.11
881.265	43.1
881.642	43.1
882.019	43.09
882.395	43.07
882.772	43.04
883.148	43.01
883.524	42.99
883.901	42.98
884.277	42.97
884.653	42.98
885.029	42.96
885.405	42.96
885.781	42.95
886.157	42.93
886.532	42.95
886.908	42.94
887.284	42.95
887.659	42.94
888.035	42.94
888.411	42.95
888.786	42.95
889.161	42.96
889.537	42.94
889.912	42.93
890.287	42.95
890.662	42.94
891.037	42.96
891.412	42.96
891.787	42.96
892.162	42.97
892.536	42.96
892.911	42.95
893.286	42.96
893.66	42.99
894.035	43.01
894.409	42.99
894.784	43
895.158	42.98
895.532	42.99
895.906	42.98
896.281	42.99
896.655	42.99
897.029	43.02
897.402	43
897.776	42.98
898.15	42.97
898.524	42.99
898.898	42.99
899.271	43
899.645	43
900.018	43.01
900.392	43.01
900.765	43.03
901.138	43.01
901.511	43.02
901.884	43.03
902.258	43.05
902.631	43.04
903.003	43.05
903.376	43.06
903.749	43.04
904.122	43.05
904.495	43.09
904.867	43.1
905.24	43.12
905.612	43.14
905.985	43.15
906.357	43.15
906.729	43.17
907.102	43.18
907.474	43.19
907.846	43.19
908.218	43.18
908.59	43.16
908.962	43.17
909.334	43.18
909.705	43.17
910.077	43.18
910.449	43.15
910.82	43.15
911.192	43.13
911.563	43.11
911.935	43.11
912.306	43.12
912.677	43.13
913.048	43.13
913.419	43.1
913.79	43.1
914.161	43.09
914.532	43.09
914.903	43.08
915.274	43.06
915.645	43.09
916.015	43.1
916.386	43.08
916.756	43.07
917.127	43.07
917.497	43.07
917.868	43.07
918.238	43.06
918.608	43.1
918.978	43.09
919.348	43.12
919.718	43.09
920.088	43.1
920.458	43.11
920.828	43.11
921.198	43.08
921.567	43.09
921.937	43.1
922.306	43.1
922.676	43.06
923.045	43.09
923.415	43.08
923.784	43.1
924.153	43.11
924.522	43.12
924.891	43.12
925.26	43.15
925.629	43.16
925.998	43.14
926.367	43.15
926.736	43.16
927.104	43.15
927.473	43.11
927.842	43.1
928.21	43.1
928.578	43.07
928.947	43.12
929.315	43.07
929.683	43.06
930.051	43.04
930.42	43.03
930.788	43
931.156	42.99
931.523	43.01
931.891	43.04
932.259	43.02
932.627	43.03
932.994	42.97
933.362	42.98
933.729	43
934.097	43.03
934.464	43.06
934.831	43.09
935.199	43.1
935.566	43.11
935.933	43.05
936.3	43.07
936.667	43.06
937.034	43.1
937.401	43.13
937.767	43.15
938.134	43.14
938.501	43.17
938.867	43.18
939.234	43.17
939.6	43.19
939.967	43.24
940.333	43.2
940.699	43.29
941.065	43.24
941.431	43.25
941.798	43.21
942.163	43.2
942.529	43.17
942.895	43.22
943.261	43.2
943.627	43.17
943.992	43.14
944.358	43.17
944.723	43.1
945.089	43.1
945.454	43.09
945.82	43.13
946.185	43.13
946.55	43.1
946.915	43.05
947.28	43.04
947.645	43.04
948.01	43.02
948.375	43.03
948.74	43
949.104	43.03
949.469	43.01
949.834	42.93
950.198	42.88
950.562	42.8
950.927	42.75
951.291	42.69
951.655	42.58
952.02	42.6
952.384	42.54
952.748	42.53
953.112	42.53
953.476	42.49
953.839	42.48
954.203	42.47
954.567	42.47
954.931	42.46
955.294	42.43
955.658	42.54
956.021	42.5
956.385	42.47
956.748	42.44
957.111	42.4
957.474	42.38
957.837	42.37
958.2	42.31
958.563	42.31
958.926	42.31
959.289	42.37
959.652	42.31
960.015	42.33
960.377	42.28
960.74	42.29
961.102	42.25
961.465	42.25
961.827	42.28
962.189	42.33
962.552	42.3
962.914	42.27
963.276	42.24
963.638	42.24
964	42.19
964.362	42.26
964.724	42.22
965.085	42.18
965.447	42.17
965.809	42.11
966.17	42.11
966.532	42.11
966.893	42.12
967.255	42.12
967.616	42.11
967.977	42.14
968.338	42.06
968.699	42.06
969.061	42.13
969.421	42.12
969.782	42.15
970.143	42.11
970.504	42.12
970.865	42.12
971.225	42.08
971.586	42.06
971.946	42.01
972.307	42
972.667	42.01
973.027	41.96
973.388	41.97
973.748	41.95
974.108	42.01
974.468	42
974.828	42.06
975.188	42.03
975.548	42.03
975.907	42.05
976.267	42.09
976.627	42.11
976.986	42.11
977.346	42.08
977.705	42.04
978.064	42.03
978.424	42.07
978.783	42
979.142	42.03
979.501	42.04
979.86	42.1
980.219	42.11
980.578	42.13
980.937	42.23
981.296	42.23
981.654	42.26
982.013	42.25
982.371	42.23
982.73	42.24
983.088	42.26
983.447	42.23
983.805	42.2
984.163	42.15
984.521	42.1
984.879	41.99
985.237	41.97
985.595	42.01
985.953	41.98
986.311	41.99
986.669	42.03
987.026	41.98
987.384	42.03
987.741	41.99
988.099	42.1
988.456	42.08
988.814	42.16
989.171	42.16
989.528	42.12
989.885	42.06
990.242	42.06
990.599	42.11
990.956	42.24
991.313	42.29
991.67	42.34
992.027	42.36
992.383	42.46
992.74	42.57
993.096	42.6
993.453	42.66
993.809	42.78
994.165	42.86
994.522	42.85
994.878	42.75
995.234	42.77
995.59	42.82
995.946	42.8
996.302	42.87
996.658	42.8
997.013	42.81
997.369	42.78
997.725	42.82
998.08	42.75
998.436	42.76
998.791	42.84
999.147	42.76
999.502	42.68
999.857	42.63
1000.212	42.53
1000.567	42.53
1000.922	42.65
1001.277	42.7
1001.632	42.6
1001.987	42.7
1002.342	42.69
1002.696	42.83
1003.051	43.06
1003.406	43.24
1003.76	43.33
1004.114	43.33
1004.469	43.38
1004.823	43.62
1005.177	43.56
1005.531	43.76
1005.885	43.73
1006.239	43.77
1006.593	43.85
1006.947	43.75
1007.301	43.69
1007.655	43.62
1008.008	43.64
1008.362	43.64
1008.715	43.37
1009.069	43.58
1009.422	43.42
1009.776	43.39
1010.129	43.47
1010.482	43.26
1010.835	43.31
1011.188	43.34
1011.541	43.56
1011.894	43.72
1012.247	43.66
1012.6	43.76
1012.952	43.63
1013.305	43.87
1013.657	43.99
1014.01	43.96
1014.362	44.09
1014.715	44.21
1015.067	44.28
1015.419	44.21
1015.771	44.1
1016.123	44.32
1016.475	44.31
1016.827	44.47
1017.179	44.46
1017.531	44.53
1017.883	44.53
1018.234	44.58
1018.586	44.63
1018.938	44.82
1019.289	44.94
1019.64	45.02
1019.992	45.07
1020.343	45.17
1020.694	45.17
1021.045	45.31
1021.396	45.14
1021.747	45.43
1022.098	45.47
1022.449	45.27
1022.8	45.25
1023.151	45.34
1023.501	45.48
1023.852	45.47
1024.202	45.45
1024.553	45.33
1024.903	45.24
1025.253	45.69
1025.604	45.73
1025.954	45.66
1026.304	45.89
1026.654	45.96
1027.004	46.01
1027.354	45.97
1027.703	45.87
1028.053	45.9
1028.403	46.29
1028.753	46.26
1029.102	46.27
1029.452	46.34
1029.801	46.69
1030.15	46.67
1030.499	46.54
897.758	1416.86
901.051	1428.64
904.343	1420.68
907.636	1448.17
910.928	1410.37
914.22	1412.45
917.511	1392.86
920.803	1333.46
924.094	1328.84
927.384	1299.08
930.675	1246.85
933.965	1242.22
937.255	1167.21
940.544	1123.19
943.834	1066.37
947.123	1058.08
950.411	994.66
953.7	975.18
956.988	920.6
960.276	882.02
963.563	866.93
966.851	835.26
970.138	826.96
973.424	801.69
976.711	807.2
979.997	767.55
983.283	762.23
986.568	745.73
989.853	722.81
993.138	711.47
996.423	686.56
999.708	667.36
1002.992	659.73
1006.275	630.55
1009.559	624.18
1012.842	600.45
1016.125	585.01
1019.408	575.08
1022.69	567.11
1025.972	556.09
1029.254	542.37
1032.536	532.19
1035.817	521.13
1039.098	515.28
1042.379	504.3
1045.659	498.38
1048.939	487.16
1052.219	477.5
1055.498	469.71
1058.778	459.36
1062.057	448.89
1065.335	443.98
1068.614	438.89
1071.892	433.91
1075.17	420.23
1078.447	412.24
1081.724	410.65
1085.001	407.14
1088.278	398.1
1091.554	389.77
1094.83	390.52
1098.106	387.76
1101.382	384.12
1104.657	380.79
1107.932	375.52
1111.206	377.04
1114.481	368.11
1117.755	363.47
1121.029	360.65
1124.302	360.87
1127.575	354.27
1130.848	349.68
1134.121	346
1137.393	345.03
1140.665	336.69
1143.937	334.96
1147.208	332.43
1150.48	331.93
1153.75	328.04
1157.021	323.01
1160.291	323.38
1163.561	320.51
1166.831	320.12
1170.101	317.3
1173.37	316.12
1176.639	318.25
1179.907	314.48
1183.176	310.69
1186.444	309.98
1189.711	309.5
1192.979	308.65
1196.246	306.36
1199.513	307.32
1202.78	304.94
1206.046	305.15
1209.312	302.43
1212.578	302.79
1215.843	305.48
1219.108	303.68
1222.373	310.58
1225.638	312.86
1228.902	317.54
1232.166	317.1
1235.43	319.38
1238.693	324.25
1241.956	326.15
1245.219	331.44
1248.482	330.62
1251.744	330.58
1255.006	332.82
1258.268	323.85
1261.529	320.93
1264.79	317.62
1268.051	316.95
1271.312	313.61
1274.572	309.12
1277.832	305.87
1281.092	300.89
1284.351	299.29
1287.61	299.03
1290.869	294.05
1294.128	292.69
1297.386	292.23
1300.644	289.96
1303.902	290.25
1307.159	288.9
1310.416	289.23
1313.673	289.01
1316.93	292.09
1320.186	292.11
1323.442	293.05
1326.697	298.07
1329.953	299.53
1333.208	300.72
1336.463	304.26
1339.717	305.03
1342.972	308.59
1346.226	311
1349.479	311.89
1352.733	313.08
1355.986	313.5
1359.238	313.42
1362.491	315.02
1365.743	316.98
1368.995	318.06
1372.247	317.07
1375.498	317.04
1378.749	320.29
1382	315.79
1385.251	317.18
1388.501	315
1391.751	317.44
1395	316.18
1398.25	313.7
1401.499	312.39
1404.748	311.33
1407.996	308.87
1411.244	307.61
1414.492	305.25
1417.74	303.74
1420.987	298.53
1424.234	298.27
1427.481	294.21
1430.728	293.82
1433.974	290.57
1437.22	288.16
1440.465	287.24
1443.711	284.81
1446.956	283.14
1450.201	278.44
1453.445	277.12
1456.689	276.47
1459.933	271.93
1463.177	269.75
1466.42	265.77
1469.663	263.02
1472.906	261.14
1476.148	254.77
1479.391	251.16
1482.633	248.72
1485.874	246.22
1489.115	243.55
1492.356	241.37
1495.597	240.84
1498.838	237.38
1502.078	235.79
1505.318	234.93
1508.557	234.92
1511.797	234.52
1515.036	233.87
1518.274	233.18
1521.513	230.3
1524.751	230.23
1527.989	228.93
1531.227	228.03
1534.464	228.59
1537.701	226.57
1540.938	226
1544.174	223.39
1547.41	222.9
1550.646	221.94
1553.882	222.02
1557.117	219.46
1560.352	218.08
1563.587	217.38
1566.821	215.79
1570.055	213.78
1573.289	212.13
1576.523	211.95
1579.756	210.07
1582.989	208.98
1586.222	209.06
1589.454	206.49
1592.686	208.94
1595.918	207.83
1599.15	207.38
1602.381	207.6
1605.612	206.83
1608.843	208.19
1612.073	207.55
1615.303	208.76
1618.533	208.58
1621.762	208.15
1624.992	209.33
1628.221	208.62
1631.449	208.75
1634.678	207.57
1637.906	208.26
1641.134	208.82
1644.361	208.32
1647.588	209.44
1650.815	208.71
1654.042	207.93
1657.269	209.24
1660.495	209.31
1663.72	208.49
1666.946	208.85
1670.171	210
1673.396	210.38
1676.621	210.28
1679.845	209.98
1683.069	209.71
1686.293	211.58
1689.517	212.56
1692.74	211.88
1695.963	212.74
1699.185	215.02
1702.408	215.03
1705.63	215.87
1708.852	215.75
1712.073	216.66
1715.294	217.57
1718.515	218.78
1721.736	217.69
1724.956	219.2
1728.176	218.97
1731.396	221.14
1734.616	219.8
1737.835	220.83
1741.054	219.62
1744.272	220.09
1747.491	222.24
1750.709	222.56
1753.927	222.38
1757.144	222.21
1760.361	222.77
1763.578	223.32
1766.795	222.22
1770.011	224.2
1773.227	224.76
1776.443	227.04
1779.658	228.4
1782.874	227.33
1786.089	228.41
1789.303	229.25
1792.518	231.37
1795.732	231.63
1798.945	234.03
1802.159	234.53
1805.372	234.6
1808.585	238.09
1811.797	239.67
1815.01	239.28
1818.222	241.11
1821.434	242.64
1824.645	243.79
1827.856	247.84
1831.067	249.15
1834.278	248.99
1837.488	250.43
1840.698	252.61
1843.908	250.05
1847.117	251.11
1850.326	253.2
1853.535	252.57
1856.744	256.3
1859.952	255.85
1863.16	254.32
1866.368	252.74
1869.575	255.36
1872.782	251.23
1875.989	250.78
1879.196	249.53
1882.402	247.46
1885.608	248.53
1888.814	248.97
1892.019	248.63
1895.224	247.56
1898.429	246.04
1901.634	247.52
1904.838	247.56
1908.042	250.24
1911.246	250.9
1914.449	253.03
1917.652	252.35
1920.855	252
1924.058	251.71
1927.26	249.68
1930.462	251.14
1933.664	254.38
1936.865	252.87
1940.066	251.6
1943.267	250.58
1946.467	249.92
1949.668	251.4
1952.868	255.8
1956.067	255.49
1959.267	256.02
1962.466	257.1
1965.665	255.32
1968.863	256.3
1972.061	259
1975.259	261.76
1978.457	263.97
1981.654	266.44
1984.852	266.91
1988.048	265.36
1991.245	268.05
1994.441	270.73
1997.637	273.13
2000.833	279.17
2004.028	281.74
2007.223	282.8
2010.418	285.21
2013.613	290.19
2016.807	293.13
2020.001	295.69
2023.194	299.58
2026.388	307.11
2029.581	313.14
2032.774	316.28
2035.966	321.71
2039.158	322.47
2042.35	329.87
2045.542	332.48
2048.733	337.66
2051.924	341.32
2055.115	347
2058.306	348.42
2061.496	350.81
2064.686	351.37
2067.875	357.14
2071.065	358.7
2074.254	357.7
2077.442	361.45
2080.631	363.17
2083.819	366.44
2087.007	367.84
2090.195	372.62
2093.382	375.78
2096.569	373.07
2099.756	378.9
2102.942	378.78
2106.128	383.01
2109.314	391.73
2112.5	390.17
2115.685	398.14
2118.87	398.91
2122.055	406.64
2125.239	409.25
2128.424	415.08
2131.608	418.89
2134.791	424.13
2137.974	427.21
2141.157	427.37
2144.34	427.99
2147.523	435.86
2150.705	432.87
2153.887	437.24
2157.068	438.11
2160.25	433.98
2163.431	436.02
2166.611	439.51
2169.792	449.75
2172.972	452.92
2176.152	456.22
2179.331	462.12
2182.511	469.31
2185.69	474.96
2188.868	484.79
2192.047	484.63
2195.225	499.12
2198.403	511.22
2201.58	522.61
2204.758	529.85
2207.935	542.45
2211.111	553.17
2214.288	559.22
2217.464	560.46
2220.64	569.05
2223.815	575.84
2226.991	600.62
2230.166	600.74
2233.34	611.14
2236.515	620.74
2239.689	622.22
2242.863	624.48
2246.036	640.7
2249.209	636.21
2252.382	647.07
2255.555	666.17
2258.727	668.75
2261.9	670.69
2265.071	677.99
2268.243	689.21
2271.414	696.61
2274.585	712.1
2277.756	719.32
2280.926	727.29
2284.096	743.42
2287.266	759.65
2290.436	764.61
2293.605	781.87
2296.774	808.46
2299.942	831.24
2303.111	834.03
2306.279	853.57
2309.447	863.98
2312.614	886.44
2315.781	907.8
2318.948	952.31
2322.115	937.54
2325.281	986.79
2328.447	965.71
2331.613	1005.97
2334.779	997.32
2337.944	1042.48
2341.109	1050.22
2344.274	1079.9
2347.438	1118.94
2350.602	1116.18
2353.766	1152.27
2356.929	1169.9
2360.092	1161.15
2363.255	1245.51
2366.418	1239.67
2369.58	1265.3
2372.742	1345.79
2375.904	1379.77
2379.066	1371.49
2382.227	1345.11
2385.388	1463.54
2388.548	1459.46
2391.709	1478.12
2394.869	1649.33
2398.029	1581.03
2401.188	1626.24
2404.347	1616.53
2407.506	1584.45
2410.665	1634.4
2413.823	1728.4
2416.981	1829.52
2420.139	1767.51
2423.296	1747.75
2426.453	1819.47
2429.61	1756.06
2432.767	1837.31
2435.923	1816.71
2439.079	1983.61
2442.235	2010.88
2445.391	1987.8
2448.546	1978.43
2451.701	1922.79
2454.855	1919.3
2458.009	2039.86
2461.163	2125.53
2464.317	2193.44
2467.471	2251.16
2470.624	2254.51
2473.777	2189.85
2476.929	2140.07
2480.082	2078.07
2483.234	2056.13
2486.385	2158.54
2489.537	2171.12
2492.688	2249.3
2495.839	2188.75
2498.989	2149.56
2502.14	2155.36
2505.29	2180.05
2508.439	2220.6
2511.589	2209.87
2514.738	2408.18
2517.887	2352.82
2521.035	2495.31
2524.183	2511.68
2527.331	2529.36
2530.479	2521.56
2533.627	2535.05
