Data from C_2_DIV_IL_4N_Splice17_13-40-42-265.txt Node
Date: Sat Mar 07 13:40:42 EST 2020
User: sa697716
Spectrometer: NQ5500242
Trigger mode: 0
Integration Time (sec): 1.450000E-1
Scans to average: 20
Nonlinearity correction enabled: false
Boxcar width: 5
Storing dark spectrum: false
XAxis mode: Wavelengths
Number of Pixels in Spectrum: 512
>>>>>Begin Spectral Data<<<<<
187.83	245.31
188.298	252.15
188.766	232.15
189.233	199.97
189.701	192.13
190.169	225.52
190.636	265.44
191.104	461.05
191.571	270.87
192.039	-175.65
192.506	-816.28
192.974	72.61
193.441	17.01
193.908	-9.1
194.375	30.15
194.842	-50.73
195.31	-28.37
195.777	-47.91
196.244	95.46
196.711	90.15
197.177	93.6
197.644	93.22
198.111	93.7
198.578	94.11
199.045	95.22
199.511	94.91
199.978	95.04
200.445	95.46
200.911	95.58
201.378	95.26
201.844	95.42
202.31	94.67
202.777	94.3
203.243	93.79
203.709	93.09
204.176	92.07
204.642	91.62
205.108	90.81
205.574	89.75
206.04	88.77
206.506	88.24
206.972	87.47
207.438	86.87
207.903	86
208.369	84.6
208.835	83.26
209.301	81.33
209.766	78.98
210.232	76.9
210.697	74.77
211.163	72.79
211.628	70.9
212.094	69.08
212.559	67.47
213.024	65.8
213.49	64.43
213.955	62.72
214.42	61.18
214.885	59.44
215.35	57.26
215.815	54.41
216.28	50.62
216.745	46.38
217.21	42.2
217.675	38.2
218.14	34.84
218.604	31.98
219.069	29.62
219.534	27.66
219.998	25.99
220.463	24.65
220.927	23.4
221.392	22.51
221.856	21.74
222.32	21.07
222.785	20.51
223.249	19.97
223.713	19.49
224.177	19.07
224.642	18.66
225.106	18.28
225.57	17.87
226.034	17.57
226.497	17.25
226.961	16.94
227.425	16.65
227.889	16.37
228.353	16.1
228.816	15.81
229.28	15.55
229.744	15.29
230.207	15.07
230.671	14.86
231.134	14.62
231.597	14.41
232.061	14.22
232.524	14.01
232.987	13.83
233.45	13.66
233.914	13.49
234.377	13.31
234.84	13.15
235.303	13
235.766	12.85
236.229	12.71
236.691	12.57
237.154	12.43
237.617	12.33
238.08	12.19
238.542	12.05
239.005	11.93
239.468	11.81
239.93	11.69
240.393	11.57
240.855	11.42
241.317	11.3
241.78	11.18
242.242	11.05
242.704	10.93
243.166	10.82
243.629	10.74
244.091	10.62
244.553	10.52
245.015	10.41
245.477	10.31
245.939	10.23
246.4	10.14
246.862	10.05
247.324	9.97
247.786	9.87
248.247	9.79
248.709	9.68
249.17	9.6
249.632	9.52
250.093	9.46
250.555	9.38
251.016	9.3
251.477	9.22
251.939	9.16
252.4	9.09
252.861	9.03
253.322	8.97
253.783	8.91
254.244	8.86
254.705	8.8
255.166	8.73
255.627	8.67
256.088	8.62
256.549	8.56
257.009	8.49
257.47	8.42
257.931	8.35
258.391	8.27
258.852	8.2
259.312	8.13
259.773	8.07
260.233	8.01
260.694	7.94
261.154	7.87
261.614	7.81
262.074	7.75
262.534	7.69
262.994	7.64
263.455	7.59
263.915	7.55
264.374	7.51
264.834	7.46
265.294	7.42
265.754	7.39
266.214	7.36
266.673	7.33
267.133	7.3
267.593	7.29
268.052	7.27
268.512	7.24
268.971	7.22
269.431	7.2
269.89	7.18
270.349	7.17
270.809	7.14
271.268	7.13
271.727	7.1
272.186	7.08
272.645	7.06
273.104	7.04
273.563	7.02
274.022	7
274.481	6.99
274.94	6.98
275.399	6.95
275.857	6.93
276.316	6.91
276.775	6.9
277.233	6.88
277.692	6.87
278.15	6.86
278.609	6.84
279.067	6.83
279.525	6.81
279.984	6.79
280.442	6.78
280.9	6.76
281.358	6.76
281.816	6.75
282.274	6.74
282.732	6.72
283.19	6.71
283.648	6.7
284.106	6.68
284.564	6.67
285.021	6.66
285.479	6.65
285.937	6.63
286.394	6.61
286.852	6.58
287.309	6.56
287.767	6.53
288.224	6.5
288.682	6.46
289.139	6.42
289.596	6.39
290.053	6.35
290.511	6.32
290.968	6.3
291.425	6.26
291.882	6.24
292.339	6.22
292.796	6.2
293.252	6.18
293.709	6.16
294.166	6.15
294.623	6.14
295.079	6.12
295.536	6.11
295.992	6.09
296.449	6.08
296.905	6.06
297.362	6.04
297.818	6.03
298.274	6.02
298.731	6
299.187	5.98
299.643	5.96
300.099	5.96
300.555	5.95
301.011	5.93
301.467	5.93
301.923	5.91
302.379	5.91
302.835	5.9
303.291	5.89
303.746	5.89
304.202	5.89
304.658	5.89
305.113	5.89
305.569	5.88
306.024	5.88
306.479	5.87
306.935	5.88
307.39	5.88
307.845	5.88
308.301	5.88
308.756	5.87
309.211	5.87
309.666	5.88
310.121	5.88
310.576	5.88
311.031	5.87
311.486	5.87
311.94	5.87
312.395	5.86
312.85	5.86
313.305	5.85
313.759	5.85
314.214	5.84
314.668	5.83
315.123	5.81
315.577	5.81
316.032	5.8
316.486	5.79
316.94	5.78
317.394	5.77
317.849	5.75
318.303	5.73
318.757	5.69
319.211	5.68
319.665	5.66
320.119	5.65
320.572	5.62
321.026	5.6
321.48	5.59
321.934	5.57
322.387	5.55
322.841	5.54
323.295	5.55
323.748	5.54
324.202	5.54
324.655	5.54
325.108	5.54
325.562	5.55
326.015	5.56
326.468	5.56
326.921	5.56
327.374	5.57
327.827	5.58
328.28	5.58
328.733	5.58
329.186	5.58
329.639	5.59
330.092	5.59
330.545	5.58
330.997	5.57
331.45	5.57
331.903	5.58
332.355	5.59
332.808	5.58
333.26	5.58
333.713	5.59
334.165	5.59
334.617	5.59
335.069	5.58
335.522	5.59
335.974	5.6
336.426	5.6
336.878	5.58
337.33	5.56
337.782	5.55
338.234	5.55
338.686	5.53
339.137	5.53
339.589	5.51
340.041	5.49
340.493	5.47
340.944	5.44
341.396	5.42
341.847	5.41
342.299	5.39
342.75	5.37
343.201	5.34
343.653	5.32
344.104	5.29
344.555	5.28
345.006	5.26
345.457	5.25
345.908	5.25
346.359	5.24
346.81	5.23
347.261	5.22
347.712	5.21
348.163	5.2
348.613	5.2
349.064	5.21
349.515	5.21
349.965	5.21
350.416	5.2
350.866	5.19
351.317	5.19
351.767	5.19
352.217	5.19
352.668	5.19
353.118	5.2
353.568	5.19
354.018	5.2
354.468	5.21
354.918	5.21
355.368	5.22
355.818	5.23
356.268	5.23
356.718	5.23
357.168	5.23
357.617	5.22
358.067	5.21
358.517	5.23
358.966	5.22
359.416	5.21
359.865	5.21
360.315	5.21
360.764	5.21
361.213	5.19
361.663	5.18
362.112	5.19
362.561	5.2
363.01	5.2
363.459	5.18
363.908	5.17
364.357	5.19
364.806	5.18
365.255	5.18
365.703	5.18
366.152	5.19
366.601	5.2
367.05	5.2
367.498	5.2
367.947	5.2
368.395	5.22
368.844	5.22
369.292	5.21
369.74	5.21
370.189	5.21
370.637	5.2
371.085	5.19
371.533	5.17
371.981	5.15
372.429	5.16
372.877	5.15
373.325	5.14
373.773	5.13
374.221	5.12
374.669	5.11
375.116	5.09
375.564	5.08
376.012	5.08
376.459	5.08
376.907	5.09
377.354	5.08
377.801	5.08
378.249	5.08
378.696	5.08
379.143	5.07
379.591	5.08
380.038	5.08
380.485	5.09
380.932	5.09
381.379	5.11
381.826	5.11
382.273	5.11
382.72	5.1
383.166	5.1
383.613	5.1
384.06	5.1
384.506	5.11
384.953	5.12
385.4	5.12
385.846	5.13
386.292	5.13
386.739	5.14
387.185	5.14
387.631	5.15
388.078	5.16
388.524	5.16
388.97	5.18
389.416	5.21
389.862	5.23
390.308	5.26
390.754	5.29
391.2	5.32
391.645	5.34
392.091	5.39
392.537	5.43
392.983	5.46
393.428	5.49
393.874	5.52
394.319	5.54
394.765	5.56
395.21	5.59
395.655	5.61
396.101	5.64
396.546	5.67
396.991	5.69
397.436	5.71
397.881	5.76
398.326	5.81
398.771	5.84
399.216	5.88
399.661	5.92
400.106	5.94
400.551	5.96
400.995	5.98
401.44	6.01
401.885	6.03
402.329	6.07
402.774	6.1
403.218	6.14
403.663	6.18
404.107	6.21
404.551	6.24
404.995	6.28
405.44	6.32
405.884	6.35
406.328	6.4
406.772	6.42
407.216	6.45
407.66	6.47
408.104	6.49
408.547	6.52
408.991	6.55
409.435	6.58
409.879	6.61
410.322	6.66
410.766	6.7
411.209	6.75
411.653	6.8
412.096	6.84
412.54	6.88
412.983	6.93
413.426	7
413.869	7.03
414.312	7.08
414.756	7.12
415.199	7.14
415.642	7.17
416.085	7.18
416.527	7.18
416.97	7.18
417.413	7.18
417.856	7.18
418.298	7.18
418.741	7.18
419.184	7.19
419.626	7.2
420.069	7.23
420.511	7.24
420.953	7.28
421.396	7.32
421.838	7.34
422.28	7.37
422.722	7.41
423.164	7.44
423.606	7.44
424.048	7.46
424.49	7.46
424.932	7.45
425.374	7.42
425.816	7.38
426.258	7.38
426.699	7.38
427.141	7.4
427.582	7.41
428.024	7.4
428.465	7.42
428.907	7.43
429.348	7.42
429.789	7.45
430.231	7.5
430.672	7.54
431.113	7.56
431.554	7.58
431.995	7.59
432.436	7.61
432.877	7.65
433.318	7.68
433.759	7.73
434.2	7.79
434.64	7.83
435.081	7.86
435.522	7.9
435.962	7.92
436.403	7.97
436.843	7.98
437.284	7.97
437.724	7.97
438.164	7.97
438.604	7.96
439.045	7.97
439.485	7.97
439.925	7.95
440.365	7.95
440.805	7.94
441.245	7.95
441.685	7.98
442.125	8.01
442.564	8.03
443.004	8.04
443.444	8.06
443.883	8.09
444.323	8.09
444.762	8.11
445.202	8.13
445.641	8.18
446.081	8.2
446.52	8.21
446.959	8.24
447.398	8.27
447.837	8.29
448.276	8.31
448.716	8.32
449.154	8.34
449.593	8.37
450.032	8.37
450.471	8.34
450.91	8.33
451.349	8.36
451.787	8.33
452.226	8.32
452.664	8.3
453.103	8.27
453.541	8.25
453.98	8.24
454.418	8.21
454.856	8.2
455.295	8.2
455.733	8.16
456.171	8.13
456.609	8.12
457.047	8.1
457.485	8.1
457.923	8.1
458.361	8.1
458.798	8.1
459.236	8.1
459.674	8.1
460.111	8.1
460.549	8.13
460.987	8.14
461.424	8.14
461.862	8.14
462.299	8.16
462.736	8.16
463.173	8.17
463.611	8.18
464.048	8.19
464.485	8.2
464.922	8.2
465.359	8.2
465.796	8.21
466.233	8.23
466.67	8.23
467.106	8.25
467.543	8.23
467.98	8.23
468.416	8.22
468.853	8.22
469.29	8.21
469.726	8.19
470.162	8.17
470.599	8.15
471.035	8.12
471.471	8.11
471.907	8.07
472.344	8.08
472.78	8.07
473.216	8.05
473.652	8.03
474.088	8.01
474.523	8.02
474.959	8.01
475.395	8
475.831	7.99
476.266	7.98
476.702	7.98
477.138	7.97
477.573	7.96
478.008	7.96
478.444	7.94
478.879	7.94
479.314	7.91
479.75	7.9
480.185	7.87
480.62	7.85
481.055	7.83
481.49	7.82
481.925	7.81
482.36	7.81
482.795	7.79
483.229	7.78
483.664	7.78
484.099	7.77
484.534	7.77
484.968	7.79
485.403	7.8
485.837	7.81
486.271	7.82
486.706	7.82
487.14	7.83
487.574	7.84
488.009	7.86
488.443	7.87
488.877	7.9
489.311	7.92
489.745	7.94
490.179	7.98
490.613	8.01
491.046	8.03
491.48	8.07
491.914	8.1
492.348	8.14
492.781	8.19
493.215	8.24
493.648	8.29
494.082	8.33
494.515	8.39
494.948	8.43
495.382	8.49
495.815	8.56
496.248	8.62
496.681	8.7
497.114	8.77
497.547	8.83
497.98	8.91
498.413	8.99
498.846	9.07
499.279	9.16
499.711	9.25
500.144	9.35
500.577	9.45
501.009	9.55
501.442	9.66
501.874	9.77
502.306	9.89
502.739	10.03
503.171	10.16
503.603	10.3
504.036	10.44
504.468	10.58
504.9	10.73
505.332	10.9
505.764	11.07
506.196	11.24
506.627	11.42
507.059	11.62
507.491	11.79
507.923	11.99
508.354	12.2
508.786	12.42
509.217	12.65
509.649	12.87
510.08	13.09
510.512	13.34
510.943	13.59
511.374	13.84
511.805	14.1
512.237	14.36
512.668	14.63
513.099	14.88
513.53	15.15
513.961	15.44
514.391	15.74
514.822	16.03
515.253	16.32
515.684	16.61
516.114	16.92
516.545	17.23
516.975	17.54
517.406	17.84
517.836	18.15
518.267	18.48
518.697	18.78
519.127	19.08
519.558	19.37
519.988	19.68
520.418	19.99
520.848	20.29
521.278	20.58
521.708	21.09
522.138	21.38
522.567	21.68
522.997	21.94
523.427	22.22
523.857	22.48
524.286	22.75
524.716	23
525.145	23.24
525.575	23.47
526.004	23.7
526.433	23.7
526.863	23.92
527.292	24.14
527.721	24.34
528.15	24.53
528.579	24.74
529.008	24.93
529.437	25.09
529.866	25.25
530.295	25.42
530.724	25.59
531.152	25.74
531.581	25.89
532.01	26.03
532.438	26.16
532.867	26.29
533.295	26.41
533.723	26.52
534.152	26.63
534.58	26.74
535.008	26.84
535.436	26.94
535.865	27.02
536.293	27.09
536.721	27.17
537.149	27.25
537.576	27.32
538.004	27.39
538.432	27.45
538.86	27.53
539.287	27.58
539.715	27.65
540.143	27.69
540.57	27.75
540.998	27.8
541.425	27.86
541.852	27.92
542.28	27.96
542.707	28.01
543.134	28.07
543.561	28.11
543.988	28.17
544.415	28.2
544.842	28.23
545.269	28.28
545.696	28.32
546.123	28.36
546.549	28.39
546.976	28.43
547.403	28.46
547.829	28.47
548.256	28.5
548.682	28.54
549.108	28.59
549.535	28.64
549.961	28.66
550.387	28.68
550.813	28.7
551.24	28.72
551.666	28.73
552.092	28.75
552.518	28.76
552.943	28.76
553.369	28.74
553.795	28.72
554.221	28.68
554.646	28.66
555.072	28.63
555.498	28.58
555.923	28.53
556.349	28.47
556.774	28.39
557.199	28.33
557.625	28.25
558.05	28.21
558.475	28.12
558.9	28.07
559.325	27.98
559.75	27.9
560.175	27.8
560.6	27.71
561.025	27.62
561.449	27.53
561.874	27.42
562.299	27.33
562.723	27.19
563.148	27.05
563.572	26.91
563.997	26.78
564.421	26.62
564.846	26.49
565.27	26.35
565.694	26.21
566.118	26.06
566.542	25.91
566.966	25.74
567.39	25.59
567.814	25.45
568.238	25.3
568.662	25.15
569.086	25.02
569.509	24.87
569.933	24.74
570.357	24.6
570.78	24.46
571.204	24.33
571.627	24.22
572.05	24.07
572.474	23.96
572.897	23.83
573.32	23.69
573.743	23.55
574.166	23.44
574.589	23.3
575.012	23.17
575.435	23.05
575.858	22.91
576.281	22.78
576.704	22.67
577.126	22.55
577.549	22.44
577.972	22.33
578.394	22.23
578.817	22.12
579.239	22.03
579.661	21.93
580.084	21.85
580.506	21.77
580.928	21.68
581.35	21.61
581.772	21.52
582.194	21.46
582.616	21.39
583.038	21.31
583.46	21.24
583.882	21.16
584.303	21.08
584.725	21.01
585.147	20.96
585.568	20.9
585.99	20.83
586.411	20.77
586.833	20.7
587.254	20.65
587.675	20.58
588.096	20.51
588.518	20.45
588.939	20.39
589.36	20.33
589.781	20.26
590.202	20.21
590.623	20.16
591.043	20.11
591.464	20.06
591.885	20
592.305	19.96
592.726	19.93
593.147	19.89
593.567	19.84
593.987	19.78
594.408	19.74
594.828	19.68
595.248	19.65
595.669	19.6
596.089	19.56
596.509	19.53
596.929	19.5
597.349	19.45
597.769	19.41
598.189	19.37
598.608	19.36
599.028	19.33
599.448	19.28
599.867	19.24
600.287	19.2
600.706	19.17
601.126	19.12
601.545	19.07
601.965	19.03
602.384	18.99
602.803	18.94
603.222	18.87
603.641	18.81
604.061	18.76
604.48	18.7
604.898	18.62
605.317	18.55
605.736	18.48
606.155	18.42
606.574	18.33
606.992	18.25
607.411	18.17
607.829	18.08
608.248	17.99
608.666	17.9
609.085	17.81
609.503	17.74
609.921	17.66
610.339	17.56
610.758	17.46
611.176	17.37
611.594	17.28
612.012	17.18
612.43	17.11
612.847	17.03
613.265	16.95
613.683	16.87
614.101	16.79
614.518	16.71
614.936	16.64
615.353	16.55
615.771	16.48
616.188	16.42
616.606	16.36
617.023	16.29
617.44	16.24
617.857	16.18
618.274	16.11
618.691	16.05
619.108	16
619.525	15.94
619.942	15.91
620.359	15.86
620.776	15.81
621.192	15.78
621.609	15.73
622.026	15.69
622.442	15.67
622.859	15.64
623.275	15.61
623.691	15.6
624.108	15.59
624.524	15.57
624.94	15.56
625.356	15.55
625.772	15.54
626.188	15.54
626.604	15.53
627.02	15.51
627.436	15.5
627.852	15.5
628.268	15.49
628.683	15.48
629.099	15.47
629.514	15.46
629.93	15.45
630.345	15.42
630.761	15.39
631.176	15.37
631.591	15.35
632.007	15.32
632.422	15.27
632.837	15.23
633.252	15.16
633.667	15.1
634.082	15.04
634.497	14.97
634.911	14.9
635.326	14.81
635.741	14.72
636.155	14.62
636.57	14.53
636.984	14.44
637.399	14.33
637.813	14.23
638.228	14.11
638.642	13.99
639.056	13.87
639.47	13.76
639.884	13.66
640.298	13.54
640.712	13.42
641.126	13.3
641.54	13.17
641.954	13.03
642.368	12.91
642.781	12.81
643.195	12.68
643.609	12.57
644.022	12.45
644.436	12.33
644.849	12.22
645.262	12.12
645.676	12.01
646.089	11.91
646.502	11.84
646.915	11.76
647.328	11.68
647.741	11.6
648.154	11.53
648.567	11.46
648.98	11.4
649.393	11.35
649.805	11.3
650.218	11.26
650.631	11.21
651.043	11.15
651.456	11.1
651.868	11.04
652.28	10.99
652.693	10.95
653.105	10.89
653.517	10.83
653.929	10.77
654.341	10.7
654.753	10.64
655.165	10.56
655.577	10.48
655.989	10.41
656.401	10.33
656.813	10.24
657.224	10.14
657.636	10.04
658.047	9.95
658.459	9.83
658.87	9.74
659.282	9.61
659.693	9.51
660.104	9.41
660.515	9.31
660.926	9.21
661.338	9.1
661.749	9.01
662.159	8.92
662.57	8.83
662.981	8.75
663.392	8.67
663.803	8.6
664.213	8.53
664.624	8.45
665.035	8.38
665.445	8.32
665.855	8.27
666.266	8.22
666.676	8.17
667.086	8.12
667.497	8.08
667.907	8.04
668.317	8.01
668.727	7.98
669.137	7.95
669.547	7.94
669.956	7.92
670.366	7.9
670.776	7.89
671.186	7.88
671.595	7.86
672.005	7.84
672.414	7.85
672.824	7.84
673.233	7.84
673.642	7.84
674.052	7.83
674.461	7.84
674.87	7.85
675.279	7.87
675.688	7.88
676.097	7.92
676.506	7.95
676.915	7.97
677.323	8
677.732	8.03
678.141	8.08
678.549	8.12
678.958	8.18
679.366	8.24
679.775	8.3
680.183	8.38
680.592	8.46
681	8.55
681.408	8.65
681.816	8.77
682.224	8.9
682.632	9.04
683.04	9.19
683.448	9.37
683.856	9.54
684.264	9.75
684.671	9.96
685.079	10.2
685.487	10.46
685.894	10.77
686.302	11.08
686.709	11.43
687.116	11.79
687.524	12.19
687.931	12.61
688.338	13.05
688.745	13.51
689.152	14
689.559	14.53
689.966	15.07
690.373	15.61
690.78	16.17
691.187	16.75
691.593	17.34
692	17.94
692.407	18.55
692.813	19.19
693.22	19.82
693.626	20.47
694.032	21.1
694.439	21.74
694.845	22.37
695.251	23.03
695.657	23.65
696.063	24.31
696.469	24.95
696.875	25.58
697.281	26.19
697.687	26.82
698.093	27.41
698.498	28
698.904	28.59
699.31	29.16
699.715	29.72
700.12	30.3
700.526	30.83
700.931	31.37
701.337	31.91
701.742	32.43
702.147	32.92
702.552	33.42
702.957	33.88
703.362	34.36
703.767	34.84
704.172	35.29
704.577	35.74
704.981	36.19
705.386	36.61
705.791	37.03
706.195	37.45
706.6	37.86
707.004	38.26
707.408	38.68
707.813	39.07
708.217	39.43
708.621	39.84
709.025	40.18
709.43	40.53
709.834	40.91
710.237	41.23
710.641	41.57
711.045	41.9
711.449	42.25
711.853	42.58
712.256	42.89
712.66	43.21
713.064	43.48
713.467	43.78
713.87	44.07
714.274	44.31
714.677	44.61
715.08	44.89
715.484	45.17
715.887	45.47
716.29	45.71
716.693	45.97
717.096	46.24
717.499	46.5
717.901	46.73
718.304	46.98
718.707	47.25
719.109	47.46
719.512	47.66
719.915	47.88
720.317	48.04
720.719	48.2
721.122	48.4
721.524	48.58
721.926	48.75
722.328	48.96
722.731	49.13
723.133	49.31
723.535	49.49
723.937	49.67
724.338	49.82
724.74	49.98
725.142	50.35
725.544	50.49
725.945	50.66
726.347	50.78
726.748	50.9
727.15	51.02
727.551	51.15
727.952	51.26
728.354	51.35
728.755	51.45
729.156	51.56
729.557	51.49
729.958	51.56
730.359	51.62
730.76	51.74
731.161	51.85
731.562	51.94
731.962	51.98
732.363	52.09
732.763	52.16
733.164	52.26
733.564	52.3
733.965	52.36
734.365	52.45
734.766	52.54
735.166	52.59
735.566	52.64
735.966	52.71
736.366	52.78
736.766	52.82
737.166	52.89
737.566	52.91
737.966	52.98
738.365	53.05
738.765	53.11
739.165	53.12
739.564	53.17
739.964	53.22
740.363	53.25
740.763	53.31
741.162	53.37
741.561	53.4
741.96	53.42
742.36	53.47
742.759	53.48
743.158	53.5
743.557	53.54
743.955	53.56
744.354	53.58
744.753	53.6
745.152	53.62
745.55	53.62
745.949	53.64
746.348	53.68
746.746	53.66
747.144	53.71
747.543	53.68
747.941	53.67
748.339	53.66
748.737	53.64
749.136	53.64
749.534	53.59
749.932	53.58
750.33	53.57
750.727	53.56
751.125	53.58
751.523	53.55
751.921	53.6
752.318	53.63
752.716	53.67
753.113	53.69
753.511	53.7
753.908	53.76
754.305	53.79
754.703	53.8
755.1	53.82
755.497	53.84
755.894	53.87
756.291	53.87
756.688	53.87
757.085	53.89
757.482	53.89
757.878	53.92
758.275	53.91
758.672	53.92
759.068	53.97
759.465	53.98
759.861	53.98
760.258	54
760.654	54
761.05	54.02
761.447	54.01
761.843	54.01
762.239	54.02
762.635	54.02
763.031	54.03
763.427	53.99
763.822	54
764.218	54.02
764.614	54.01
765.01	54.02
765.405	54.02
765.801	54.02
766.196	54.04
766.592	54.01
766.987	54.01
767.382	54
767.778	54.03
768.173	54.04
768.568	54.03
768.963	54.03
769.358	54.02
769.753	54.01
770.148	54.04
770.542	54.03
770.937	54.06
771.332	54.08
771.726	54.06
772.121	54.06
772.515	54.05
772.91	54.05
773.304	54.07
773.699	54.07
774.093	54.09
774.487	54.08
774.881	54.13
775.275	54.12
775.669	54.08
776.063	54.08
776.457	54.08
776.851	54.07
777.245	54.06
777.638	54.04
778.032	54.07
778.425	54.08
778.819	54.05
779.212	54.04
779.606	54.05
779.999	54.08
780.392	54.12
780.786	54.13
781.179	54.18
781.572	54.22
781.965	54.22
782.358	54.22
782.751	54.2
783.143	54.21
783.536	54.18
783.929	54.19
784.322	54.19
784.714	54.18
785.107	54.22
785.499	54.2
785.891	54.18
786.284	54.2
786.676	54.21
787.068	54.23
787.46	54.25
787.852	54.25
788.245	54.23
788.636	54.22
789.028	54.23
789.42	54.2
789.812	54.21
790.204	54.21
790.595	54.21
790.987	54.19
791.378	54.2
791.77	54.22
792.161	54.25
792.553	54.3
792.944	54.29
793.335	54.26
793.726	54.28
794.117	54.25
794.508	54.23
794.899	54.23
795.29	54.25
795.681	54.22
796.072	54.2
796.463	54.26
796.853	54.23
797.244	54.23
797.634	54.26
798.025	54.25
798.415	54.27
798.806	54.3
799.196	54.29
799.586	54.3
799.976	54.35
800.366	54.36
800.756	54.33
801.146	54.36
801.536	54.39
801.926	54.38
802.316	54.41
802.706	54.44
803.095	54.43
803.485	54.45
803.874	54.43
804.264	54.41
804.653	54.4
805.043	54.4
805.432	54.37
805.821	54.37
806.21	54.38
806.599	54.37
806.988	54.35
807.377	54.35
807.766	54.36
808.155	54.36
808.544	54.37
808.933	54.38
809.321	54.36
809.71	54.36
810.098	54.36
810.487	54.33
810.875	54.32
811.264	54.31
811.652	54.33
812.04	54.3
812.428	54.34
812.816	54.34
813.204	54.34
813.592	54.32
813.98	54.31
814.368	54.33
814.756	54.33
815.144	54.31
815.531	54.32
815.919	54.28
816.306	54.29
816.694	54.27
817.081	54.26
817.469	54.24
817.856	54.25
818.243	54.23
818.63	54.22
819.017	54.21
819.404	54.23
819.791	54.22
820.178	54.24
820.565	54.21
820.952	54.21
821.339	54.21
821.725	54.23
822.112	54.24
822.498	54.27
822.885	54.26
823.271	54.28
823.657	54.23
824.044	54.23
824.43	54.19
824.816	54.21
825.202	54.18
825.588	54.13
825.974	54.12
826.36	54.1
826.746	54.05
827.132	54.05
827.517	54.05
827.903	54.1
828.289	54.13
828.674	54.15
829.06	54.14
829.445	54.15
829.83	54.21
830.216	54.19
830.601	54.2
830.986	54.24
831.371	54.22
831.756	54.21
832.141	54.17
832.526	54.15
832.911	54.14
833.295	54.12
833.68	54.14
834.065	54.1
834.449	54.07
834.834	54.04
835.218	54.01
835.603	53.99
835.987	53.99
836.371	53.97
836.755	53.93
837.139	53.92
837.524	53.93
837.908	53.9
838.291	53.92
838.675	53.95
839.059	53.96
839.443	53.94
839.827	53.91
840.21	53.91
840.594	53.91
840.977	53.91
841.361	53.93
841.744	53.89
842.127	53.87
842.511	53.83
842.894	53.8
843.277	53.77
843.66	53.75
844.043	53.79
844.426	53.77
844.809	53.77
845.191	53.78
845.574	53.74
845.957	53.75
846.339	53.76
846.722	53.78
847.104	53.79
847.487	53.78
847.869	53.81
848.252	53.8
848.634	53.8
849.016	53.8
849.398	53.79
849.78	53.81
850.162	53.82
850.544	53.81
850.926	53.82
851.307	53.8
851.689	53.81
852.071	53.8
852.452	53.8
852.834	53.83
853.215	53.84
853.597	53.81
853.978	53.81
854.359	53.81
854.741	53.81
855.122	53.8
855.503	53.79
855.884	53.76
856.265	53.77
856.646	53.75
857.026	53.76
857.407	53.76
857.788	53.77
858.169	53.79
858.549	53.78
858.93	53.77
859.31	53.77
859.69	53.81
860.071	53.87
860.451	53.88
860.831	53.86
861.211	53.82
861.591	53.8
861.971	53.79
862.351	53.81
862.731	53.83
863.111	53.81
863.491	53.8
863.87	53.8
864.25	53.78
864.629	53.79
865.009	53.83
865.388	53.83
865.768	53.85
866.147	53.89
866.526	53.87
866.905	53.87
867.284	53.91
867.663	53.92
868.042	53.93
868.421	53.94
868.8	53.92
869.179	53.94
869.558	53.94
869.936	53.93
870.315	53.91
870.693	53.91
871.072	53.93
871.45	53.92
871.828	53.92
872.207	53.93
872.585	53.89
872.963	53.89
873.341	53.86
873.719	53.86
874.097	53.85
874.475	53.88
874.853	53.89
875.23	53.87
875.608	53.86
875.986	53.9
876.363	53.88
876.741	53.92
877.118	53.95
877.495	53.97
877.873	53.99
878.25	54.03
878.627	54
879.004	53.98
879.381	53.98
879.758	53.97
880.135	53.95
880.512	53.94
880.889	53.93
881.265	53.9
881.642	53.87
882.019	53.85
882.395	53.78
882.772	53.78
883.148	53.76
883.524	53.73
883.901	53.72
884.277	53.68
884.653	53.66
885.029	53.61
885.405	53.6
885.781	53.57
886.157	53.57
886.532	53.58
886.908	53.54
887.284	53.53
887.659	53.51
888.035	53.49
888.411	53.48
888.786	53.47
889.161	53.5
889.537	53.51
889.912	53.51
890.287	53.5
890.662	53.48
891.037	53.52
891.412	53.52
891.787	53.5
892.162	53.49
892.536	53.5
892.911	53.5
893.286	53.49
893.66	53.45
894.035	53.47
894.409	53.45
894.784	53.46
895.158	53.43
895.532	53.46
895.906	53.49
896.281	53.5
896.655	53.52
897.029	53.52
897.402	53.52
897.776	53.55
898.15	53.55
898.524	53.61
898.898	53.64
899.271	53.66
899.645	53.68
900.018	53.71
900.392	53.75
900.765	53.76
901.138	53.76
901.511	53.78
901.884	53.82
902.258	53.84
902.631	53.82
903.003	53.83
903.376	53.84
903.749	53.82
904.122	53.8
904.495	53.8
904.867	53.81
905.24	53.85
905.612	53.88
905.985	53.85
906.357	53.86
906.729	53.88
907.102	53.89
907.474	53.91
907.846	53.93
908.218	53.94
908.59	53.95
908.962	53.95
909.334	53.94
909.705	53.91
910.077	53.92
910.449	53.92
910.82	53.92
911.192	53.93
911.563	53.92
911.935	53.89
912.306	53.91
912.677	53.91
913.048	53.94
913.419	53.94
913.79	53.98
914.161	54.01
914.532	54.01
914.903	54.01
915.274	54.01
915.645	54.05
916.015	54.08
916.386	54.11
916.756	54.11
917.127	54.11
917.497	54.13
917.868	54.14
918.238	54.17
918.608	54.2
918.978	54.22
919.348	54.22
919.718	54.2
920.088	54.23
920.458	54.23
920.828	54.21
921.198	54.18
921.567	54.23
921.937	54.23
922.306	54.22
922.676	54.2
923.045	54.19
923.415	54.19
923.784	54.18
924.153	54.19
924.522	54.19
924.891	54.21
925.26	54.23
925.629	54.22
925.998	54.2
926.367	54.2
926.736	54.21
927.104	54.18
927.473	54.13
927.842	54.15
928.21	54.13
928.578	54.1
928.947	54.12
929.315	54.11
929.683	54.14
930.051	54.15
930.42	54.16
930.788	54.15
931.156	54.18
931.523	54.24
931.891	54.26
932.259	54.3
932.627	54.36
932.994	54.41
933.362	54.44
933.729	54.45
934.097	54.49
934.464	54.56
934.831	54.66
935.199	54.72
935.566	54.77
935.933	54.77
936.3	54.83
936.667	54.87
937.034	54.95
937.401	55.03
937.767	55.1
938.134	55.1
938.501	55.13
938.867	55.12
939.234	55.18
939.6	55.16
939.967	55.26
940.333	55.29
940.699	55.3
941.065	55.18
941.431	55.15
941.798	55.07
942.163	55.07
942.529	55
942.895	55
943.261	54.93
943.627	54.9
943.992	54.84
944.358	54.71
944.723	54.63
945.089	54.55
945.454	54.55
945.82	54.55
946.185	54.49
946.55	54.42
946.915	54.42
947.28	54.36
947.645	54.38
948.01	54.38
948.375	54.38
948.74	54.38
949.104	54.39
949.469	54.31
949.834	54.18
950.198	54.22
950.562	54.23
950.927	54.14
951.291	54.05
951.655	54.01
952.02	53.96
952.384	53.92
952.748	53.87
953.112	53.86
953.476	53.82
953.839	53.84
954.203	53.76
954.567	53.72
954.931	53.65
955.294	53.7
955.658	53.74
956.021	53.71
956.385	53.63
956.748	53.6
957.111	53.55
957.474	53.54
957.837	53.53
958.2	53.5
958.563	53.43
958.926	53.48
959.289	53.47
959.652	53.37
960.015	53.35
960.377	53.4
960.74	53.47
961.102	53.48
961.465	53.52
961.827	53.62
962.189	53.62
962.552	53.65
962.914	53.63
963.276	53.65
963.638	53.72
964	53.72
964.362	53.75
964.724	53.7
965.085	53.7
965.447	53.65
965.809	53.62
966.17	53.6
966.532	53.63
966.893	53.69
967.255	53.69
967.616	53.68
967.977	53.7
968.338	53.66
968.699	53.7
969.061	53.7
969.421	53.76
969.782	53.77
970.143	53.81
970.504	53.86
970.865	53.9
971.225	53.95
971.586	53.98
971.946	54.03
972.307	54.01
972.667	54.01
973.027	54.08
973.388	54.08
973.748	54.11
974.108	54.17
974.468	54.11
974.828	54.15
975.188	54.12
975.548	54.08
975.907	54.09
976.267	54.16
976.627	54.2
976.986	54.15
977.346	54.07
977.705	54.08
978.064	54.1
978.424	54.19
978.783	54.12
979.142	54.13
979.501	54.22
979.86	54.26
980.219	54.3
980.578	54.33
980.937	54.44
981.296	54.48
981.654	54.45
982.013	54.45
982.371	54.43
982.73	54.52
983.088	54.54
983.447	54.49
983.805	54.48
984.163	54.5
984.521	54.46
984.879	54.4
985.237	54.49
985.595	54.64
985.953	54.63
986.311	54.63
986.669	54.62
987.026	54.65
987.384	54.78
987.741	54.79
988.099	54.91
988.456	54.83
988.814	54.88
989.171	54.92
989.528	54.81
989.885	54.86
990.242	54.93
990.599	55
990.956	55.07
991.313	55.05
991.67	55.17
992.027	55.29
992.383	55.53
992.74	55.63
993.096	55.64
993.453	55.71
993.809	55.74
994.165	55.89
994.522	55.91
994.878	55.98
995.234	55.98
995.59	55.88
995.946	55.86
996.302	55.9
996.658	55.95
997.013	56.02
997.369	56.09
997.725	56.26
998.08	56.27
998.436	56.3
998.791	56.36
999.147	56.44
999.502	56.59
999.857	56.65
1000.212	56.6
1000.567	56.65
1000.922	56.71
1001.277	56.83
1001.632	56.81
1001.987	56.85
1002.342	56.86
1002.696	56.81
1003.051	57
1003.406	57.21
1003.76	57.08
1004.114	57.23
1004.469	57.33
1004.823	57.77
1005.177	57.8
1005.531	57.92
1005.885	57.96
1006.239	58.1
1006.593	58.31
1006.947	58.36
1007.301	58.21
1007.655	58.36
1008.008	58.45
1008.362	58.51
1008.715	58.28
1009.069	58.42
1009.422	58.53
1009.776	58.61
1010.129	58.73
1010.482	58.79
1010.835	58.89
1011.188	58.97
1011.541	59.08
1011.894	59.21
1012.247	59.38
1012.6	59.39
1012.952	59.51
1013.305	59.65
1013.657	59.75
1014.01	59.86
1014.362	59.84
1014.715	60.13
1015.067	60.31
1015.419	60.51
1015.771	60.62
1016.123	60.75
1016.475	60.84
1016.827	60.88
1017.179	61.06
1017.531	61.09
1017.883	61.18
1018.234	61.53
1018.586	61.53
1018.938	62.02
1019.289	62.02
1019.64	62.21
1019.992	62.13
1020.343	62.31
1020.694	62.48
1021.045	62.53
1021.396	62.77
1021.747	62.97
1022.098	62.98
1022.449	62.83
1022.8	62.78
1023.151	62.99
1023.501	63.18
1023.852	63.43
1024.202	63.46
1024.553	63.42
1024.903	63.75
1025.253	64.04
1025.604	64.13
1025.954	64.08
1026.304	64.52
1026.654	64.48
1027.004	64.54
1027.354	64.29
1027.703	64.39
1028.053	64.71
1028.403	65.14
1028.753	64.91
1029.102	64.99
1029.452	65.15
1029.801	65.5
1030.15	65.4
1030.499	65.42
897.758	1922.33
901.051	1932.8
904.343	1917.01
907.636	1953.46
910.928	1905.36
914.22	1899.25
917.511	1870.74
920.803	1792.08
924.094	1782.4
927.384	1741.69
930.675	1664.81
933.965	1652.57
937.255	1557.54
940.544	1498.93
943.834	1422.28
947.123	1406.89
950.411	1327.17
953.7	1300.45
956.988	1225.85
960.276	1175.08
963.563	1158.75
966.851	1118.22
970.138	1109.54
973.424	1071.41
976.711	1081.11
979.997	1027.68
983.283	1023.37
986.568	1001.6
989.853	966.84
993.138	951.42
996.423	915.81
999.708	888.35
1002.992	880.9
1006.275	838.11
1009.559	830.34
1012.842	797.84
1016.125	776.89
1019.408	761.72
1022.69	750.1
1025.972	738.76
1029.254	719.8
1032.536	707.57
1035.817	692.1
1039.098	683.02
1042.379	668.44
1045.659	661.48
1048.939	645.56
1052.219	631.91
1055.498	621.31
1058.778	608.9
1062.057	592.83
1065.335	586.26
1068.614	579.52
1071.892	573.88
1075.17	553.22
1078.447	544.12
1081.724	540.63
1085.001	535.74
1088.278	524.47
1091.554	514.38
1094.83	513.83
1098.106	511.17
1101.382	506.62
1104.657	502.44
1107.932	494.64
1111.206	498.74
1114.481	485.92
1117.755	479.45
1121.029	476.25
1124.302	477.03
1127.575	466.84
1130.848	460.93
1134.121	455.05
1137.393	454.1
1140.665	443.63
1143.937	441.64
1147.208	436.37
1150.48	436.53
1153.75	431.01
1157.021	423.7
1160.291	423.63
1163.561	420.15
1166.831	419.64
1170.101	417.56
1173.37	414.98
1176.639	416.61
1179.907	411.48
1183.176	408.62
1186.444	407.23
1189.711	407.59
1192.979	406.65
1196.246	402.74
1199.513	404.46
1202.78	401.61
1206.046	401.25
1209.312	397.21
1212.578	397.72
1215.843	401.2
1219.108	397.73
1222.373	407.12
1225.638	409.55
1228.902	417.09
1232.166	416.11
1235.43	421.08
1238.693	426.99
1241.956	428.96
1245.219	436.74
1248.482	436.03
1251.744	436.1
1255.006	438.01
1258.268	426.4
1261.529	422.29
1264.79	417.03
1268.051	416.32
1271.312	409.55
1274.572	404.45
1277.832	400.82
1281.092	393.13
1284.351	390.65
1287.61	390.56
1290.869	384.37
1294.128	381.59
1297.386	381.14
1300.644	377.83
1303.902	378.8
1307.159	376.65
1310.416	377.75
1313.673	377.31
1316.93	381.64
1320.186	382.06
1323.442	382.92
1326.697	390.56
1329.953	391.12
1333.208	393.57
1336.463	398.08
1339.717	399.56
1342.972	404.11
1346.226	406.49
1349.479	406.34
1352.733	409.23
1355.986	410.43
1359.238	410.31
1362.491	413.21
1365.743	418.31
1368.995	417.77
1372.247	415.2
1375.498	415.65
1378.749	420.69
1382	415.03
1385.251	418.27
1388.501	414.51
1391.751	418.16
1395	415.1
1398.25	412.06
1401.499	409.76
1404.748	409.45
1407.996	407.06
1411.244	404.47
1414.492	402.06
1417.74	399.62
1420.987	392.41
1424.234	393.48
1427.481	386.21
1430.728	387.69
1433.974	382.99
1437.22	379.52
1440.465	379.16
1443.711	376.95
1446.956	375.43
1450.201	368.95
1453.445	365.66
1456.689	364.88
1459.933	357.71
1463.177	355.91
1466.42	349.3
1469.663	345.06
1472.906	343.67
1476.148	333.81
1479.391	328.8
1482.633	324.96
1485.874	320.99
1489.115	318.88
1492.356	314.11
1495.597	314.39
1498.838	308.7
1502.078	306.82
1505.318	305.41
1508.557	304.95
1511.797	305.25
1515.036	304.16
1518.274	303.47
1521.513	299.48
1524.751	299.76
1527.989	299.33
1531.227	297.12
1534.464	299.39
1537.701	296.67
1540.938	295.73
1544.174	291.87
1547.41	291.18
1550.646	289.82
1553.882	289.62
1557.117	286.71
1560.352	284.16
1563.587	283.53
1566.821	281.43
1570.055	277.55
1573.289	275.7
1576.523	275.61
1579.756	272.96
1582.989	271.24
1586.222	271.11
1589.454	269.02
1592.686	271.08
1595.918	270.28
1599.15	269.3
1602.381	269.48
1605.612	269.57
1608.843	271.23
1612.073	269.98
1615.303	272.34
1618.533	272.87
1621.762	271.69
1624.992	271.7
1628.221	271.86
1631.449	271.38
1634.678	270.61
1637.906	271.8
1641.134	271.88
1644.361	271.04
1647.588	272.39
1650.815	270.55
1654.042	268.68
1657.269	271.15
1660.495	271.67
1663.72	268.93
1666.946	270.09
1670.171	270.87
1673.396	270.61
1676.621	270.47
1679.845	270.34
1683.069	269.88
1686.293	272.03
1689.517	274.11
1692.74	272.7
1695.963	274.37
1699.185	278.71
1702.408	278.66
1705.63	279.28
1708.852	280.35
1712.073	280.4
1715.294	281.34
1718.515	283.2
1721.736	282.78
1724.956	283.31
1728.176	283.34
1731.396	286.02
1734.616	284.45
1737.835	285.29
1741.054	284.07
1744.272	284.9
1747.491	288.48
1750.709	288.87
1753.927	288.93
1757.144	287.28
1760.361	289.54
1763.578	290.13
1766.795	288.68
1770.011	291.16
1773.227	291.29
1776.443	294.86
1779.658	296.64
1782.874	294.9
1786.089	296.64
1789.303	297.5
1792.518	301.95
1795.732	300.85
1798.945	304.58
1802.159	304.54
1805.372	305.56
1808.585	311.48
1811.797	312.07
1815.01	311.71
1818.222	315.13
1821.434	316.78
1824.645	318.24
1827.856	323.76
1831.067	327.28
1834.278	324.5
1837.488	327.34
1840.698	330.09
1843.908	326.1
1847.117	328.77
1850.326	330.96
1853.535	329.64
1856.744	334.96
1859.952	334.76
1863.16	333.16
1866.368	329.83
1869.575	336.44
1872.782	330.64
1875.989	329.14
1879.196	328.42
1882.402	326.19
1885.608	327.96
1888.814	329.7
1892.019	328.12
1895.224	327.34
1898.429	325.53
1901.634	329.06
1904.838	327.92
1908.042	333.05
1911.246	334.11
1914.449	336.44
1917.652	336.79
1920.855	336.77
1924.058	335.73
1927.26	334.79
1930.462	336.52
1933.664	340.5
1936.865	337.16
1940.066	337.48
1943.267	335.47
1946.467	335.37
1949.668	337.81
1952.868	341.52
1956.067	340.32
1959.267	341.78
1962.466	342.58
1965.665	340.06
1968.863	340.66
1972.061	345.26
1975.259	348.12
1978.457	350.74
1981.654	352.65
1984.852	353.57
1988.048	352.26
1991.245	355.98
1994.441	359.68
1997.637	362.33
2000.833	370.22
2004.028	375.08
2007.223	377.06
2010.418	381.61
2013.613	386.85
2016.807	392.26
2020.001	394.51
2023.194	400.87
2026.388	410.28
2029.581	418.86
2032.774	423.26
2035.966	430.85
2039.158	432.02
2042.35	441.01
2045.542	442.33
2048.733	449.46
2051.924	456.46
2055.115	463.9
2058.306	464.34
2061.496	470.36
2064.686	469.12
2067.875	477.45
2071.065	478.98
2074.254	476.94
2077.442	481.3
2080.631	484.4
2083.819	488.89
2087.007	486.87
2090.195	494.01
2093.382	498.25
2096.569	492.46
2099.756	502.13
2102.942	502.21
2106.128	508.88
2109.314	519.28
2112.5	517.59
2115.685	529.66
2118.87	530.93
2122.055	541.73
2125.239	545.78
2128.424	552.93
2131.608	558.58
2134.791	565.11
2137.974	568.35
2141.157	568.85
2144.34	569.84
2147.523	579.61
2150.705	574.04
2153.887	578.48
2157.068	580.95
2160.25	574.49
2163.431	577.07
2166.611	582.36
2169.792	592.85
2172.972	600.92
2176.152	602.82
2179.331	612.64
2182.511	623.37
2185.69	631.03
2188.868	645.55
2192.047	646.19
2195.225	664.86
2198.403	681.47
2201.58	694.47
2204.758	708.5
2207.935	722.96
2211.111	737.1
2214.288	745.23
2217.464	747.21
2220.64	756.57
2223.815	767.73
2226.991	799.92
2230.166	802.51
2233.34	819.37
2236.515	830.29
2239.689	830.36
2242.863	832.93
2246.036	861.79
2249.209	852.04
2252.382	864.38
2255.555	894.77
2258.727	895.85
2261.9	899.07
2265.071	907.4
2268.243	920.38
2271.414	931.74
2274.585	956.58
2277.756	967.69
2280.926	969.49
2284.096	994.52
2287.266	1016.84
2290.436	1023.46
2293.605	1048.56
2296.774	1084.17
2299.942	1118.47
2303.111	1124.12
2306.279	1154.74
2309.447	1166.79
2312.614	1193.54
2315.781	1227.55
2318.948	1284.92
2322.115	1266.11
2325.281	1334.95
2328.447	1305.94
2331.613	1359.73
2334.779	1343.17
2337.944	1402.15
2341.109	1413.96
2344.274	1450.27
2347.438	1506.87
2350.602	1509.2
2353.766	1550.62
2356.929	1574.17
2360.092	1558.74
2363.255	1677.72
2366.418	1668.15
2369.58	1703.51
2372.742	1808.58
2375.904	1855.06
2379.066	1844.23
2382.227	1810.06
2385.388	1959.54
2388.548	1967.12
2391.709	1995.47
2394.869	2222.77
2398.029	2120
2401.188	2181.81
2404.347	2170.1
2407.506	2134.94
2410.665	2195.85
2413.823	2329.33
2416.981	2461.49
2420.139	2380.41
2423.296	2351.47
2426.453	2448.39
2429.61	2359.49
2432.767	2472.81
2435.923	2450.58
2439.079	2667.4
2442.235	2699.81
2445.391	2668.35
2448.546	2654.8
2451.701	2580.98
2454.855	2582.97
2458.009	2745.37
2461.163	2852.63
2464.317	2955.52
2467.471	3035.84
2470.624	3033.15
2473.777	2962.98
2476.929	2893.16
2480.082	2816.85
2483.234	2777.68
2486.385	2908.61
2489.537	2920.76
2492.688	3034.18
2495.839	2951.35
2498.989	2893.27
2502.14	2905.06
2505.29	2944.26
2508.439	2988.39
2511.589	2977.88
2514.738	3243.24
2517.887	3174.03
2521.035	3365.01
2524.183	3389.83
2527.331	3411.2
2530.479	3407.59
2533.627	3425.81
