Data from C_2_DEC_VA_2N_Splice17_13-09-08-315.txt Node
Date: Sat Mar 07 13:09:08 EST 2020
User: sa697716
Spectrometer: NQ5500242
Trigger mode: 0
Integration Time (sec): 1.450000E-1
Scans to average: 20
Nonlinearity correction enabled: false
Boxcar width: 5
Storing dark spectrum: false
XAxis mode: Wavelengths
Number of Pixels in Spectrum: 512
>>>>>Begin Spectral Data<<<<<
187.83	124.2
188.298	157.29
188.766	143.33
189.233	124.13
189.701	123.77
190.169	157.95
190.636	201.23
191.104	346.3
191.571	188.18
192.039	304.36
192.506	-14.99
192.974	24.75
193.441	109.66
193.908	26.99
194.375	68.09
194.842	62.57
195.31	99.96
195.777	224.46
196.244	54
196.711	35.11
197.177	35.7
197.644	34.24
198.111	34.16
198.578	34.68
199.045	35
199.511	34.61
199.978	34.25
200.445	34.66
200.911	34.8
201.378	34.65
201.844	34.75
202.31	34.68
202.777	35.01
203.243	35.07
203.709	35.05
204.176	34.84
204.642	34.58
205.108	34.75
205.574	34.48
206.04	34.09
206.506	33.66
206.972	33.36
207.438	33.1
207.903	32.19
208.369	31.65
208.835	30.62
209.301	30.03
209.766	29.08
210.232	28.18
210.697	27.4
211.163	26.61
211.628	26.1
212.094	25.48
212.559	25.05
213.024	24.65
213.49	24.16
213.955	23.79
214.42	23.23
214.885	22.72
215.35	21.99
215.815	21.01
216.28	19.85
216.745	18.4
217.21	16.95
217.675	15.61
218.14	14.56
218.604	13.57
219.069	12.76
219.534	12.09
219.998	11.54
220.463	11.07
220.927	10.63
221.392	10.32
221.856	10.08
222.32	9.85
222.785	9.63
223.249	9.45
223.713	9.28
224.177	9.17
224.642	9.02
225.106	8.87
225.57	8.71
226.034	8.61
226.497	8.5
226.961	8.36
227.425	8.28
227.889	8.18
228.353	8.05
228.816	7.94
229.28	7.83
229.744	7.73
230.207	7.63
230.671	7.55
231.134	7.44
231.597	7.36
232.061	7.27
232.524	7.17
232.987	7.08
233.45	7.04
233.914	6.96
234.377	6.88
234.84	6.82
235.303	6.76
235.766	6.71
236.229	6.66
236.691	6.58
237.154	6.53
237.617	6.48
238.08	6.42
238.542	6.34
239.005	6.3
239.468	6.25
239.93	6.19
240.393	6.15
240.855	6.08
241.317	6.04
241.78	5.98
242.242	5.93
242.704	5.89
243.166	5.85
243.629	5.82
244.091	5.76
244.553	5.71
245.015	5.67
245.477	5.62
245.939	5.57
246.4	5.53
246.862	5.49
247.324	5.46
247.786	5.41
248.247	5.36
248.709	5.31
249.17	5.25
249.632	5.23
250.093	5.19
250.555	5.15
251.016	5.12
251.477	5.08
251.939	5.05
252.4	5.02
252.861	4.98
253.322	4.96
253.783	4.92
254.244	4.9
254.705	4.87
255.166	4.84
255.627	4.81
256.088	4.79
256.549	4.76
257.009	4.74
257.47	4.71
257.931	4.67
258.391	4.64
258.852	4.62
259.312	4.59
259.773	4.56
260.233	4.54
260.694	4.51
261.154	4.47
261.614	4.45
262.074	4.41
262.534	4.39
262.994	4.37
263.455	4.34
263.915	4.32
264.374	4.3
264.834	4.28
265.294	4.26
265.754	4.25
266.214	4.23
266.673	4.21
267.133	4.2
267.593	4.19
268.052	4.18
268.512	4.18
268.971	4.17
269.431	4.16
269.89	4.14
270.349	4.13
270.809	4.11
271.268	4.1
271.727	4.09
272.186	4.08
272.645	4.07
273.104	4.05
273.563	4.04
274.022	4.03
274.481	4.02
274.94	4.01
275.399	4
275.857	3.99
276.316	3.98
276.775	3.97
277.233	3.96
277.692	3.95
278.15	3.94
278.609	3.93
279.067	3.92
279.525	3.91
279.984	3.9
280.442	3.9
280.9	3.89
281.358	3.88
281.816	3.87
282.274	3.87
282.732	3.86
283.19	3.85
283.648	3.85
284.106	3.83
284.564	3.82
285.021	3.82
285.479	3.82
285.937	3.8
286.394	3.81
286.852	3.8
287.309	3.79
287.767	3.78
288.224	3.77
288.682	3.75
289.139	3.74
289.596	3.73
290.053	3.71
290.511	3.69
290.968	3.68
291.425	3.66
291.882	3.65
292.339	3.63
292.796	3.62
293.252	3.61
293.709	3.61
294.166	3.6
294.623	3.6
295.079	3.59
295.536	3.59
295.992	3.58
296.449	3.58
296.905	3.58
297.362	3.57
297.818	3.56
298.274	3.55
298.731	3.55
299.187	3.54
299.643	3.53
300.099	3.53
300.555	3.52
301.011	3.51
301.467	3.5
301.923	3.49
302.379	3.49
302.835	3.49
303.291	3.49
303.746	3.49
304.202	3.49
304.658	3.49
305.113	3.48
305.569	3.48
306.024	3.48
306.479	3.47
306.935	3.47
307.39	3.47
307.845	3.47
308.301	3.46
308.756	3.47
309.211	3.46
309.666	3.47
310.121	3.46
310.576	3.46
311.031	3.47
311.486	3.48
311.94	3.48
312.395	3.48
312.85	3.47
313.305	3.47
313.759	3.47
314.214	3.46
314.668	3.45
315.123	3.46
315.577	3.45
316.032	3.45
316.486	3.45
316.94	3.44
317.394	3.44
317.849	3.43
318.303	3.42
318.757	3.4
319.211	3.4
319.665	3.38
320.119	3.36
320.572	3.35
321.026	3.34
321.48	3.32
321.934	3.31
322.387	3.3
322.841	3.3
323.295	3.3
323.748	3.3
324.202	3.3
324.655	3.3
325.108	3.31
325.562	3.32
326.015	3.32
326.468	3.32
326.921	3.32
327.374	3.32
327.827	3.32
328.28	3.31
328.733	3.32
329.186	3.31
329.639	3.31
330.092	3.31
330.545	3.3
330.997	3.3
331.45	3.29
331.903	3.3
332.355	3.31
332.808	3.3
333.26	3.31
333.713	3.3
334.165	3.29
334.617	3.29
335.069	3.29
335.522	3.3
335.974	3.3
336.426	3.3
336.878	3.29
337.33	3.28
337.782	3.29
338.234	3.3
338.686	3.3
339.137	3.31
339.589	3.3
340.041	3.3
340.493	3.28
340.944	3.28
341.396	3.27
341.847	3.26
342.299	3.26
342.75	3.25
343.201	3.23
343.653	3.23
344.104	3.21
344.555	3.2
345.006	3.19
345.457	3.19
345.908	3.19
346.359	3.19
346.81	3.19
347.261	3.18
347.712	3.18
348.163	3.18
348.613	3.19
349.064	3.2
349.515	3.2
349.965	3.2
350.416	3.2
350.866	3.19
351.317	3.2
351.767	3.2
352.217	3.2
352.668	3.2
353.118	3.21
353.568	3.2
354.018	3.21
354.468	3.22
354.918	3.23
355.368	3.25
355.818	3.26
356.268	3.26
356.718	3.27
357.168	3.27
357.617	3.28
358.067	3.27
358.517	3.3
358.966	3.3
359.416	3.31
359.865	3.31
360.315	3.31
360.764	3.32
361.213	3.32
361.663	3.33
362.112	3.35
362.561	3.36
363.01	3.38
363.459	3.37
363.908	3.38
364.357	3.39
364.806	3.39
365.255	3.41
365.703	3.42
366.152	3.43
366.601	3.44
367.05	3.45
367.498	3.45
367.947	3.47
368.395	3.48
368.844	3.49
369.292	3.51
369.74	3.53
370.189	3.53
370.637	3.55
371.085	3.55
371.533	3.57
371.981	3.59
372.429	3.61
372.877	3.62
373.325	3.63
373.773	3.66
374.221	3.67
374.669	3.69
375.116	3.7
375.564	3.72
376.012	3.74
376.459	3.77
376.907	3.79
377.354	3.81
377.801	3.83
378.249	3.86
378.696	3.88
379.143	3.89
379.591	3.92
380.038	3.94
380.485	3.97
380.932	3.99
381.379	4.02
381.826	4.04
382.273	4.05
382.72	4.07
383.166	4.09
383.613	4.11
384.06	4.13
384.506	4.16
384.953	4.18
385.4	4.2
385.846	4.22
386.292	4.24
386.739	4.27
387.185	4.3
387.631	4.33
388.078	4.35
388.524	4.38
388.97	4.4
389.416	4.43
389.862	4.46
390.308	4.49
390.754	4.52
391.2	4.53
391.645	4.55
392.091	4.58
392.537	4.6
392.983	4.62
393.428	4.65
393.874	4.68
394.319	4.71
394.765	4.72
395.21	4.74
395.655	4.76
396.101	4.79
396.546	4.82
396.991	4.83
397.436	4.86
397.881	4.89
398.326	4.91
398.771	4.92
399.216	4.92
399.661	4.94
400.106	4.95
400.551	4.96
400.995	4.96
401.44	4.95
401.885	4.96
402.329	4.96
402.774	4.97
403.218	4.99
403.663	5.01
404.107	5.02
404.551	5.02
404.995	5.01
405.44	5
405.884	5.01
406.328	5.01
406.772	5
407.216	4.99
407.66	4.98
408.104	4.96
408.547	4.95
408.991	4.95
409.435	4.94
409.879	4.95
410.322	4.95
410.766	4.96
411.209	4.97
411.653	4.98
412.096	5
412.54	5
412.983	4.99
413.426	5.01
413.869	5.01
414.312	5.04
414.756	5.05
415.199	5.06
415.642	5.06
416.085	5.06
416.527	5.04
416.97	5.02
417.413	5.02
417.856	5.02
418.298	5.02
418.741	5.02
419.184	5.01
419.626	4.99
420.069	4.99
420.511	4.99
420.953	4.98
421.396	4.99
421.838	4.99
422.28	5
422.722	5.01
423.164	5
423.606	4.99
424.048	4.99
424.49	4.98
424.932	4.96
425.374	4.94
425.816	4.91
426.258	4.91
426.699	4.89
427.141	4.88
427.582	4.87
428.024	4.87
428.465	4.87
428.907	4.85
429.348	4.84
429.789	4.84
430.231	4.86
430.672	4.89
431.113	4.89
431.554	4.88
431.995	4.88
432.436	4.88
432.877	4.89
433.318	4.9
433.759	4.93
434.2	4.95
434.64	4.96
435.081	4.96
435.522	4.97
435.962	4.98
436.403	5.01
436.843	5.04
437.284	5.04
437.724	5.04
438.164	5.03
438.604	5.03
439.045	5.03
439.485	5.04
439.925	5.06
440.365	5.06
440.805	5.06
441.245	5.08
441.685	5.09
442.125	5.12
442.564	5.14
443.004	5.16
443.444	5.17
443.883	5.2
444.323	5.2
444.762	5.22
445.202	5.24
445.641	5.27
446.081	5.28
446.52	5.3
446.959	5.33
447.398	5.34
447.837	5.37
448.276	5.39
448.716	5.41
449.154	5.45
449.593	5.48
450.032	5.5
450.471	5.51
450.91	5.53
451.349	5.54
451.787	5.53
452.226	5.54
452.664	5.55
453.103	5.55
453.541	5.56
453.98	5.56
454.418	5.55
454.856	5.55
455.295	5.55
455.733	5.54
456.171	5.54
456.609	5.54
457.047	5.53
457.485	5.53
457.923	5.53
458.361	5.54
458.798	5.53
459.236	5.53
459.674	5.53
460.111	5.54
460.549	5.54
460.987	5.56
461.424	5.56
461.862	5.58
462.299	5.58
462.736	5.57
463.173	5.57
463.611	5.57
464.048	5.57
464.485	5.57
464.922	5.57
465.359	5.57
465.796	5.57
466.233	5.57
466.67	5.58
467.106	5.58
467.543	5.58
467.98	5.57
468.416	5.57
468.853	5.58
469.29	5.58
469.726	5.58
470.162	5.58
470.599	5.58
471.035	5.56
471.471	5.54
471.907	5.53
472.344	5.54
472.78	5.54
473.216	5.53
473.652	5.53
474.088	5.52
474.523	5.52
474.959	5.52
475.395	5.51
475.831	5.51
476.266	5.51
476.702	5.5
477.138	5.5
477.573	5.51
478.008	5.51
478.444	5.5
478.879	5.5
479.314	5.5
479.75	5.5
480.185	5.5
480.62	5.51
481.055	5.51
481.49	5.51
481.925	5.51
482.36	5.51
482.795	5.5
483.229	5.51
483.664	5.53
484.099	5.53
484.534	5.54
484.968	5.56
485.403	5.57
485.837	5.59
486.271	5.62
486.706	5.64
487.14	5.66
487.574	5.69
488.009	5.72
488.443	5.74
488.877	5.78
489.311	5.81
489.745	5.84
490.179	5.89
490.613	5.93
491.046	5.97
491.48	6.02
491.914	6.07
492.348	6.13
492.781	6.19
493.215	6.25
493.648	6.32
494.082	6.38
494.515	6.45
494.948	6.51
495.382	6.58
495.815	6.67
496.248	6.76
496.681	6.84
497.114	6.93
497.547	7.01
497.98	7.11
498.413	7.21
498.846	7.32
499.279	7.42
499.711	7.53
500.144	7.65
500.577	7.77
501.009	7.89
501.442	8.02
501.874	8.16
502.306	8.31
502.739	8.46
503.171	8.61
503.603	8.76
504.036	8.92
504.468	9.09
504.9	9.25
505.332	9.42
505.764	9.59
506.196	9.77
506.627	9.96
507.059	10.16
507.491	10.35
507.923	10.55
508.354	10.77
508.786	10.99
509.217	11.22
509.649	11.44
510.08	11.67
510.512	11.91
510.943	12.16
511.374	12.41
511.805	12.65
512.237	12.89
512.668	13.15
513.099	13.39
513.53	13.64
513.961	13.89
514.391	14.15
514.822	14.42
515.253	14.68
515.684	14.94
516.114	15.21
516.545	15.46
516.975	15.72
517.406	15.97
517.836	16.23
518.267	16.5
518.697	16.74
519.127	16.98
519.558	17.22
519.988	17.46
520.418	17.7
520.848	17.92
521.278	18.17
521.708	18.58
522.138	18.82
522.567	19.02
522.997	19.22
523.427	19.44
523.857	19.65
524.286	19.83
524.716	20.02
525.145	20.21
525.575	20.39
526.004	20.57
526.433	20.56
526.863	20.72
527.292	20.88
527.721	21.04
528.15	21.17
528.579	21.31
529.008	21.45
529.437	21.58
529.866	21.68
530.295	21.81
530.724	21.91
531.152	22
531.581	22.11
532.01	22.19
532.438	22.28
532.867	22.36
533.295	22.45
533.723	22.52
534.152	22.57
534.58	22.65
535.008	22.7
535.436	22.76
535.865	22.8
536.293	22.84
536.721	22.89
537.149	22.93
537.576	22.97
538.004	23.02
538.432	23.07
538.86	23.12
539.287	23.12
539.715	23.16
540.143	23.18
540.57	23.21
540.998	23.23
541.425	23.25
541.852	23.27
542.28	23.29
542.707	23.3
543.134	23.31
543.561	23.34
543.988	23.36
544.415	23.37
544.842	23.38
545.269	23.4
545.696	23.42
546.123	23.44
546.549	23.45
546.976	23.47
547.403	23.48
547.829	23.48
548.256	23.48
548.682	23.49
549.108	23.51
549.535	23.52
549.961	23.54
550.387	23.53
550.813	23.54
551.24	23.53
551.666	23.52
552.092	23.51
552.518	23.51
552.943	23.48
553.369	23.47
553.795	23.45
554.221	23.42
554.646	23.39
555.072	23.36
555.498	23.31
555.923	23.28
556.349	23.24
556.774	23.18
557.199	23.12
557.625	23.07
558.05	23.01
558.475	22.94
558.9	22.87
559.325	22.8
559.75	22.73
560.175	22.66
560.6	22.58
561.025	22.49
561.449	22.42
561.874	22.32
562.299	22.25
562.723	22.14
563.148	22.05
563.572	21.95
563.997	21.84
564.421	21.72
564.846	21.6
565.27	21.47
565.694	21.37
566.118	21.25
566.542	21.14
566.966	21
567.39	20.89
567.814	20.77
568.238	20.65
568.662	20.52
569.086	20.41
569.509	20.28
569.933	20.18
570.357	20.06
570.78	19.93
571.204	19.81
571.627	19.71
572.05	19.58
572.474	19.47
572.897	19.36
573.32	19.24
573.743	19.13
574.166	19.04
574.589	18.92
575.012	18.82
575.435	18.73
575.858	18.62
576.281	18.51
576.704	18.43
577.126	18.33
577.549	18.24
577.972	18.16
578.394	18.07
578.817	17.99
579.239	17.91
579.661	17.81
580.084	17.75
580.506	17.68
580.928	17.6
581.35	17.53
581.772	17.44
582.194	17.37
582.616	17.31
583.038	17.24
583.46	17.18
583.882	17.12
584.303	17.04
584.725	16.98
585.147	16.92
585.568	16.87
585.99	16.81
586.411	16.76
586.833	16.71
587.254	16.63
587.675	16.59
588.096	16.52
588.518	16.48
588.939	16.45
589.36	16.4
589.781	16.33
590.202	16.3
590.623	16.27
591.043	16.22
591.464	16.18
591.885	16.15
592.305	16.12
592.726	16.09
593.147	16.04
593.567	15.99
593.987	15.96
594.408	15.93
594.828	15.88
595.248	15.85
595.669	15.82
596.089	15.77
596.509	15.74
596.929	15.7
597.349	15.68
597.769	15.65
598.189	15.62
598.608	15.59
599.028	15.57
599.448	15.53
599.867	15.5
600.287	15.47
600.706	15.45
601.126	15.42
601.545	15.38
601.965	15.35
602.384	15.31
602.803	15.26
603.222	15.22
603.641	15.17
604.061	15.14
604.48	15.07
604.898	15.02
605.317	14.97
605.736	14.91
606.155	14.86
606.574	14.8
606.992	14.73
607.411	14.67
607.829	14.58
608.248	14.52
608.666	14.44
609.085	14.39
609.503	14.33
609.921	14.25
610.339	14.2
610.758	14.12
611.176	14.04
611.594	13.97
612.012	13.91
612.43	13.86
612.847	13.79
613.265	13.71
613.683	13.63
614.101	13.56
614.518	13.49
614.936	13.41
615.353	13.35
615.771	13.29
616.188	13.23
616.606	13.18
617.023	13.13
617.44	13.08
617.857	13.04
618.274	13
618.691	12.94
619.108	12.9
619.525	12.86
619.942	12.81
620.359	12.78
620.776	12.74
621.192	12.7
621.609	12.68
622.026	12.65
622.442	12.62
622.859	12.6
623.275	12.58
623.691	12.57
624.108	12.55
624.524	12.55
624.94	12.53
625.356	12.52
625.772	12.49
626.188	12.48
626.604	12.46
627.02	12.45
627.436	12.45
627.852	12.44
628.268	12.42
628.683	12.42
629.099	12.41
629.514	12.4
629.93	12.39
630.345	12.38
630.761	12.34
631.176	12.31
631.591	12.28
632.007	12.24
632.422	12.19
632.837	12.14
633.252	12.07
633.667	12
634.082	11.93
634.497	11.87
634.911	11.79
635.326	11.73
635.741	11.65
636.155	11.56
636.57	11.47
636.984	11.38
637.399	11.28
637.813	11.18
638.228	11.08
638.642	10.96
639.056	10.83
639.47	10.71
639.884	10.59
640.298	10.47
640.712	10.35
641.126	10.23
641.54	10.1
641.954	9.98
642.368	9.87
642.781	9.77
643.195	9.65
643.609	9.54
644.022	9.44
644.436	9.33
644.849	9.23
645.262	9.12
645.676	9.03
646.089	8.93
646.502	8.85
646.915	8.77
647.328	8.69
647.741	8.62
648.154	8.55
648.567	8.5
648.98	8.46
649.393	8.41
649.805	8.37
650.218	8.32
650.631	8.29
651.043	8.24
651.456	8.2
651.868	8.16
652.28	8.12
652.693	8.08
653.105	8.02
653.517	7.97
653.929	7.92
654.341	7.86
654.753	7.8
655.165	7.74
655.577	7.68
655.989	7.61
656.401	7.54
656.813	7.48
657.224	7.4
657.636	7.32
658.047	7.24
658.459	7.15
658.87	7.08
659.282	6.99
659.693	6.91
660.104	6.82
660.515	6.74
660.926	6.65
661.338	6.56
661.749	6.48
662.159	6.4
662.57	6.33
662.981	6.25
663.392	6.17
663.803	6.11
664.213	6.03
664.624	5.97
665.035	5.91
665.445	5.86
665.855	5.8
666.266	5.74
666.676	5.71
667.086	5.65
667.497	5.62
667.907	5.58
668.317	5.55
668.727	5.53
669.137	5.52
669.547	5.5
669.956	5.48
670.366	5.48
670.776	5.46
671.186	5.44
671.595	5.44
672.005	5.44
672.414	5.45
672.824	5.46
673.233	5.45
673.642	5.46
674.052	5.46
674.461	5.48
674.87	5.49
675.279	5.51
675.688	5.55
676.097	5.58
676.506	5.61
676.915	5.64
677.323	5.68
677.732	5.72
678.141	5.76
678.549	5.81
678.958	5.86
679.366	5.93
679.775	5.98
680.183	6.05
680.592	6.14
681	6.22
681.408	6.31
681.816	6.42
682.224	6.53
682.632	6.66
683.04	6.79
683.448	6.95
683.856	7.11
684.264	7.3
684.671	7.5
685.079	7.72
685.487	7.97
685.894	8.23
686.302	8.52
686.709	8.83
687.116	9.16
687.524	9.52
687.931	9.89
688.338	10.27
688.745	10.67
689.152	11.09
689.559	11.53
689.966	11.98
690.373	12.44
690.78	12.93
691.187	13.41
691.593	13.9
692	14.4
692.407	14.89
692.813	15.41
693.22	15.92
693.626	16.44
694.032	16.95
694.439	17.46
694.845	17.99
695.251	18.48
695.657	18.98
696.063	19.47
696.469	19.98
696.875	20.49
697.281	20.96
697.687	21.44
698.093	21.91
698.498	22.38
698.904	22.83
699.31	23.26
699.715	23.7
700.12	24.14
700.526	24.56
700.931	24.96
701.337	25.34
701.742	25.75
702.147	26.15
702.552	26.53
702.957	26.88
703.362	27.25
703.767	27.59
704.172	27.93
704.577	28.27
704.981	28.6
705.386	28.92
705.791	29.24
706.195	29.55
706.6	29.84
707.004	30.12
707.408	30.41
707.813	30.68
708.217	30.96
708.621	31.24
709.025	31.49
709.43	31.73
709.834	31.97
710.237	32.23
710.641	32.48
711.045	32.72
711.449	32.97
711.853	33.21
712.256	33.44
712.66	33.66
713.064	33.85
713.467	34.06
713.87	34.29
714.274	34.49
714.677	34.68
715.08	34.85
715.484	35.05
715.887	35.26
716.29	35.44
716.693	35.62
717.096	35.81
717.499	35.97
717.901	36.15
718.304	36.32
718.707	36.47
719.109	36.63
719.512	36.77
719.915	36.9
720.317	37.02
720.719	37.13
721.122	37.27
721.524	37.39
721.926	37.55
722.328	37.69
722.731	37.82
723.133	37.94
723.535	38.07
723.937	38.18
724.338	38.29
724.74	38.41
725.142	38.64
725.544	38.72
725.945	38.84
726.347	38.9
726.748	39
727.15	39.08
727.551	39.19
727.952	39.25
728.354	39.35
728.755	39.41
729.156	39.46
729.557	39.43
729.958	39.49
730.359	39.55
730.76	39.63
731.161	39.66
731.562	39.72
731.962	39.75
732.363	39.81
732.763	39.87
733.164	39.93
733.564	39.98
733.965	40
734.365	40.06
734.766	40.09
735.166	40.13
735.566	40.18
735.966	40.21
736.366	40.26
736.766	40.29
737.166	40.31
737.566	40.38
737.966	40.42
738.365	40.47
738.765	40.51
739.165	40.53
739.564	40.54
739.964	40.55
740.363	40.58
740.763	40.6
741.162	40.62
741.561	40.63
741.96	40.61
742.36	40.64
742.759	40.64
743.158	40.63
743.557	40.65
743.955	40.7
744.354	40.72
744.753	40.72
745.152	40.78
745.55	40.81
745.949	40.84
746.348	40.85
746.746	40.84
747.144	40.89
747.543	40.88
747.941	40.92
748.339	40.89
748.737	40.9
749.136	40.91
749.534	40.87
749.932	40.87
750.33	40.87
750.727	40.9
751.125	40.91
751.523	40.9
751.921	40.92
752.318	40.92
752.716	40.94
753.113	40.95
753.511	40.95
753.908	40.97
754.305	41
754.703	40.98
755.1	40.98
755.497	40.99
755.894	41
756.291	41
756.688	40.97
757.085	40.97
757.482	40.96
757.878	40.97
758.275	40.98
758.672	40.95
759.068	40.99
759.465	40.99
759.861	40.99
760.258	41.01
760.654	41.01
761.05	41.03
761.447	41.05
761.843	41.05
762.239	41.05
762.635	41.02
763.031	41.04
763.427	41.02
763.822	41
764.218	41.01
764.614	41
765.01	40.99
765.405	40.97
765.801	40.95
766.196	40.95
766.592	40.94
766.987	40.96
767.382	40.93
767.778	40.92
768.173	40.92
768.568	40.9
768.963	40.88
769.358	40.9
769.753	40.9
770.148	40.91
770.542	40.91
770.937	40.9
771.332	40.89
771.726	40.9
772.121	40.92
772.515	40.91
772.91	40.89
773.304	40.9
773.699	40.88
774.093	40.86
774.487	40.85
774.881	40.87
775.275	40.88
775.669	40.84
776.063	40.82
776.457	40.8
776.851	40.81
777.245	40.8
777.638	40.79
778.032	40.8
778.425	40.86
778.819	40.85
779.212	40.84
779.606	40.86
779.999	40.87
780.392	40.91
780.786	40.91
781.179	40.93
781.572	40.96
781.965	40.97
782.358	40.99
782.751	40.96
783.143	40.97
783.536	40.93
783.929	40.89
784.322	40.92
784.714	40.92
785.107	40.94
785.499	40.92
785.891	40.9
786.284	40.93
786.676	40.93
787.068	40.94
787.46	40.95
787.852	40.96
788.245	40.96
788.636	40.93
789.028	40.93
789.42	40.92
789.812	40.93
790.204	40.92
790.595	40.91
790.987	40.9
791.378	40.93
791.77	40.92
792.161	40.91
792.553	40.94
792.944	40.93
793.335	40.94
793.726	40.93
794.117	40.91
794.508	40.89
794.899	40.87
795.29	40.87
795.681	40.83
796.072	40.81
796.463	40.85
796.853	40.83
797.244	40.84
797.634	40.82
798.025	40.83
798.415	40.83
798.806	40.86
799.196	40.88
799.586	40.89
799.976	40.92
800.366	40.94
800.756	40.92
801.146	40.94
801.536	40.96
801.926	40.94
802.316	40.95
802.706	40.97
803.095	40.97
803.485	40.95
803.874	40.92
804.264	40.92
804.653	40.9
805.043	40.89
805.432	40.89
805.821	40.9
806.21	40.93
806.599	40.94
806.988	40.94
807.377	40.91
807.766	40.92
808.155	40.93
808.544	40.93
808.933	40.93
809.321	40.94
809.71	40.93
810.098	40.91
810.487	40.88
810.875	40.85
811.264	40.84
811.652	40.85
812.04	40.85
812.428	40.86
812.816	40.82
813.204	40.83
813.592	40.79
813.98	40.8
814.368	40.81
814.756	40.8
815.144	40.79
815.531	40.78
815.919	40.78
816.306	40.77
816.694	40.75
817.081	40.77
817.469	40.76
817.856	40.77
818.243	40.74
818.63	40.73
819.017	40.74
819.404	40.74
819.791	40.75
820.178	40.76
820.565	40.76
820.952	40.76
821.339	40.76
821.725	40.78
822.112	40.79
822.498	40.82
822.885	40.86
823.271	40.86
823.657	40.84
824.044	40.84
824.43	40.86
824.816	40.87
825.202	40.87
825.588	40.87
825.974	40.86
826.36	40.84
826.746	40.83
827.132	40.81
827.517	40.81
827.903	40.83
828.289	40.82
828.674	40.79
829.06	40.76
829.445	40.74
829.83	40.74
830.216	40.73
830.601	40.73
830.986	40.74
831.371	40.72
831.756	40.74
832.141	40.73
832.526	40.74
832.911	40.74
833.295	40.76
833.68	40.77
834.065	40.77
834.449	40.76
834.834	40.75
835.218	40.75
835.603	40.76
835.987	40.73
836.371	40.74
836.755	40.73
837.139	40.72
837.524	40.7
837.908	40.73
838.291	40.73
838.675	40.75
839.059	40.74
839.443	40.73
839.827	40.72
840.21	40.71
840.594	40.7
840.977	40.69
841.361	40.71
841.744	40.7
842.127	40.67
842.511	40.66
842.894	40.66
843.277	40.65
843.66	40.64
844.043	40.65
844.426	40.67
844.809	40.66
845.191	40.69
845.574	40.69
845.957	40.7
846.339	40.68
846.722	40.7
847.104	40.7
847.487	40.7
847.869	40.72
848.252	40.72
848.634	40.71
849.016	40.73
849.398	40.73
849.78	40.72
850.162	40.72
850.544	40.72
850.926	40.7
851.307	40.69
851.689	40.71
852.071	40.71
852.452	40.71
852.834	40.72
853.215	40.7
853.597	40.69
853.978	40.68
854.359	40.68
854.741	40.69
855.122	40.7
855.503	40.71
855.884	40.69
856.265	40.7
856.646	40.7
857.026	40.7
857.407	40.72
857.788	40.71
858.169	40.75
858.549	40.75
858.93	40.75
859.31	40.76
859.69	40.77
860.071	40.79
860.451	40.77
860.831	40.78
861.211	40.78
861.591	40.76
861.971	40.76
862.351	40.75
862.731	40.75
863.111	40.75
863.491	40.75
863.87	40.73
864.25	40.72
864.629	40.74
865.009	40.72
865.388	40.72
865.768	40.73
866.147	40.74
866.526	40.74
866.905	40.75
867.284	40.77
867.663	40.78
868.042	40.78
868.421	40.79
868.8	40.76
869.179	40.8
869.558	40.77
869.936	40.77
870.315	40.77
870.693	40.77
871.072	40.77
871.45	40.77
871.828	40.79
872.207	40.8
872.585	40.8
872.963	40.82
873.341	40.81
873.719	40.81
874.097	40.8
874.475	40.8
874.853	40.81
875.23	40.81
875.608	40.79
875.986	40.78
876.363	40.77
876.741	40.77
877.118	40.78
877.495	40.8
877.873	40.83
878.25	40.86
878.627	40.87
879.004	40.85
879.381	40.85
879.758	40.86
880.135	40.85
880.512	40.84
880.889	40.82
881.265	40.8
881.642	40.78
882.019	40.78
882.395	40.76
882.772	40.75
883.148	40.75
883.524	40.73
883.901	40.73
884.277	40.72
884.653	40.7
885.029	40.7
885.405	40.7
885.781	40.69
886.157	40.7
886.532	40.7
886.908	40.7
887.284	40.69
887.659	40.68
888.035	40.66
888.411	40.66
888.786	40.65
889.161	40.65
889.537	40.63
889.912	40.64
890.287	40.61
890.662	40.61
891.037	40.6
891.412	40.61
891.787	40.6
892.162	40.61
892.536	40.62
892.911	40.64
893.286	40.65
893.66	40.67
894.035	40.67
894.409	40.68
894.784	40.67
895.158	40.67
895.532	40.67
895.906	40.68
896.281	40.66
896.655	40.65
897.029	40.66
897.402	40.63
897.776	40.62
898.15	40.62
898.524	40.61
898.898	40.61
899.271	40.62
899.645	40.63
900.018	40.63
900.392	40.64
900.765	40.65
901.138	40.63
901.511	40.64
901.884	40.65
902.258	40.65
902.631	40.66
903.003	40.69
903.376	40.66
903.749	40.66
904.122	40.67
904.495	40.68
904.867	40.69
905.24	40.7
905.612	40.72
905.985	40.7
906.357	40.68
906.729	40.69
907.102	40.68
907.474	40.71
907.846	40.7
908.218	40.7
908.59	40.71
908.962	40.7
909.334	40.71
909.705	40.72
910.077	40.74
910.449	40.77
910.82	40.79
911.192	40.8
911.563	40.77
911.935	40.77
912.306	40.75
912.677	40.74
913.048	40.73
913.419	40.71
913.79	40.7
914.161	40.68
914.532	40.64
914.903	40.63
915.274	40.61
915.645	40.62
916.015	40.61
916.386	40.6
916.756	40.6
917.127	40.6
917.497	40.62
917.868	40.63
918.238	40.63
918.608	40.66
918.978	40.65
919.348	40.68
919.718	40.68
920.088	40.73
920.458	40.76
920.828	40.75
921.198	40.72
921.567	40.71
921.937	40.73
922.306	40.71
922.676	40.71
923.045	40.7
923.415	40.68
923.784	40.68
924.153	40.67
924.522	40.67
924.891	40.68
925.26	40.71
925.629	40.7
925.998	40.66
926.367	40.69
926.736	40.69
927.104	40.67
927.473	40.67
927.842	40.65
928.21	40.64
928.578	40.62
928.947	40.63
929.315	40.6
929.683	40.58
930.051	40.6
930.42	40.58
930.788	40.56
931.156	40.57
931.523	40.58
931.891	40.61
932.259	40.6
932.627	40.62
932.994	40.61
933.362	40.62
933.729	40.65
934.097	40.65
934.464	40.69
934.831	40.68
935.199	40.67
935.566	40.65
935.933	40.6
936.3	40.59
936.667	40.56
937.034	40.58
937.401	40.58
937.767	40.57
938.134	40.52
938.501	40.48
938.867	40.49
939.234	40.45
939.6	40.43
939.967	40.45
940.333	40.4
940.699	40.36
941.065	40.26
941.431	40.28
941.798	40.22
942.163	40.21
942.529	40.18
942.895	40.19
943.261	40.21
943.627	40.21
943.992	40.19
944.358	40.16
944.723	40.14
945.089	40.12
945.454	40.09
945.82	40.11
946.185	40.16
946.55	40.13
946.915	40.13
947.28	40.12
947.645	40.09
948.01	40.1
948.375	40.13
948.74	40.13
949.104	40.19
949.469	40.18
949.834	40.17
950.198	40.12
950.562	40.06
950.927	40.05
951.291	40.01
951.655	39.95
952.02	40.01
952.384	39.98
952.748	40
953.112	39.95
953.476	39.92
953.839	39.9
954.203	39.91
954.567	39.95
954.931	39.91
955.294	39.92
955.658	40.01
956.021	39.96
956.385	39.95
956.748	39.94
957.111	39.94
957.474	39.94
957.837	39.87
958.2	39.84
958.563	39.82
958.926	39.85
959.289	39.82
959.652	39.79
960.015	39.75
960.377	39.78
960.74	39.78
961.102	39.77
961.465	39.8
961.827	39.91
962.189	39.95
962.552	39.94
962.914	39.9
963.276	39.97
963.638	39.96
964	39.94
964.362	39.95
964.724	39.98
965.085	39.97
965.447	39.93
965.809	39.89
966.17	39.87
966.532	39.88
966.893	39.93
967.255	39.85
967.616	39.85
967.977	39.88
968.338	39.91
968.699	39.88
969.061	39.91
969.421	40
969.782	40.02
970.143	40.01
970.504	40.06
970.865	40.09
971.225	40.14
971.586	40.13
971.946	40.16
972.307	40.15
972.667	40.14
973.027	40.16
973.388	40.1
973.748	40.11
974.108	40.12
974.468	40.05
974.828	40.09
975.188	40.07
975.548	40.07
975.907	40.07
976.267	40.01
976.627	40.02
976.986	39.97
977.346	39.95
977.705	39.95
978.064	39.91
978.424	39.96
978.783	39.88
979.142	39.87
979.501	39.89
979.86	39.94
980.219	39.96
980.578	39.96
980.937	40.02
981.296	40.03
981.654	40.02
982.013	40.08
982.371	40.08
982.73	40.08
983.088	40.07
983.447	40.08
983.805	40.02
984.163	40
984.521	40
984.879	39.95
985.237	39.94
985.595	39.99
985.953	40
986.311	39.93
986.669	39.95
987.026	40
987.384	40.03
987.741	39.95
988.099	39.96
988.456	39.95
988.814	40.01
989.171	40.02
989.528	39.97
989.885	39.91
990.242	39.92
990.599	39.94
990.956	39.95
991.313	39.92
991.67	40.02
992.027	40.09
992.383	40.06
992.74	40.09
993.096	40.13
993.453	40.17
993.809	40.18
994.165	40.23
994.522	40.21
994.878	40.24
995.234	40.27
995.59	40.27
995.946	40.23
996.302	40.31
996.658	40.28
997.013	40.24
997.369	40.2
997.725	40.28
998.08	40.34
998.436	40.33
998.791	40.27
999.147	40.22
999.502	40.21
999.857	40.16
1000.212	39.99
1000.567	40.04
1000.922	40.14
1001.277	40.08
1001.632	39.98
1001.987	39.98
1002.342	40.01
1002.696	40.05
1003.051	40.17
1003.406	40.2
1003.76	40.3
1004.114	40.44
1004.469	40.45
1004.823	40.6
1005.177	40.64
1005.531	40.79
1005.885	40.79
1006.239	40.8
1006.593	40.86
1006.947	40.87
1007.301	40.77
1007.655	40.59
1008.008	40.58
1008.362	40.45
1008.715	40.33
1009.069	40.32
1009.422	40.34
1009.776	40.31
1010.129	40.33
1010.482	40.28
1010.835	40.3
1011.188	40.48
1011.541	40.65
1011.894	40.73
1012.247	40.8
1012.6	40.73
1012.952	40.85
1013.305	40.96
1013.657	41.03
1014.01	41.05
1014.362	41.04
1014.715	41.04
1015.067	40.93
1015.419	40.9
1015.771	40.83
1016.123	40.94
1016.475	40.95
1016.827	40.95
1017.179	40.81
1017.531	40.85
1017.883	40.92
1018.234	41.02
1018.586	41.06
1018.938	41.22
1019.289	41.34
1019.64	41.28
1019.992	41.24
1020.343	41.31
1020.694	41.29
1021.045	41.21
1021.396	41.2
1021.747	41.15
1022.098	41.07
1022.449	40.92
1022.8	40.8
1023.151	40.71
1023.501	41.02
1023.852	41
1024.202	40.74
1024.553	40.49
1024.903	40.72
1025.253	40.78
1025.604	40.78
1025.954	40.72
1026.304	40.73
1026.654	40.67
1027.004	40.55
1027.354	40.31
1027.703	40.15
1028.053	40.46
1028.403	40.74
1028.753	40.23
1029.102	40.11
1029.452	40.03
1029.801	40.05
1030.15	40.02
1030.499	39.92
897.758	1251.11
901.051	1260.4
904.343	1255.04
907.636	1278.96
910.928	1244.19
914.22	1245.13
917.511	1229.45
920.803	1177.78
924.094	1170.4
927.384	1144.73
930.675	1095.92
933.965	1090.6
937.255	1026.83
940.544	986.93
943.834	937.01
947.123	930.65
950.411	875.15
953.7	857.99
956.988	806.73
960.276	775.24
963.563	764.27
966.851	737.52
970.138	730.81
973.424	707.07
976.711	709.75
979.997	675.24
983.283	671.54
986.568	657.11
989.853	637.48
993.138	628.01
996.423	603.36
999.708	585.07
1002.992	579.26
1006.275	553.73
1009.559	547.77
1012.842	528.51
1016.125	514.77
1019.408	504.29
1022.69	498.02
1025.972	486.66
1029.254	474.41
1032.536	466.7
1035.817	455.94
1039.098	450.38
1042.379	441.04
1045.659	436.34
1048.939	425.69
1052.219	416.34
1055.498	410.1
1058.778	399.79
1062.057	391.44
1065.335	387.77
1068.614	382.54
1071.892	379.21
1075.17	366.66
1078.447	358.68
1081.724	355.58
1085.001	353.54
1088.278	346.26
1091.554	338.4
1094.83	338.89
1098.106	336.28
1101.382	334.01
1104.657	331.59
1107.932	325.92
1111.206	327.02
1114.481	319.98
1117.755	316.78
1121.029	313.16
1124.302	312.91
1127.575	307.22
1130.848	303.53
1134.121	300.06
1137.393	297.39
1140.665	291.05
1143.937	288.93
1147.208	287.92
1150.48	286.36
1153.75	283.26
1157.021	279.82
1160.291	280.03
1163.561	277.57
1166.831	277.15
1170.101	275.17
1173.37	274.56
1176.639	275.64
1179.907	272.84
1183.176	269.57
1186.444	269.69
1189.711	269.12
1192.979	268.02
1196.246	265.92
1199.513	266.97
1202.78	265.05
1206.046	264.7
1209.312	262.74
1212.578	262.25
1215.843	264.79
1219.108	263.56
1222.373	268.64
1225.638	270.57
1228.902	274.43
1232.166	275.01
1235.43	277.02
1238.693	281.08
1241.956	282.14
1245.219	286.72
1248.482	286.9
1251.744	286.47
1255.006	287.37
1258.268	279.33
1261.529	277.08
1264.79	275.33
1268.051	274.2
1271.312	270.86
1274.572	267.43
1277.832	265.14
1281.092	261.14
1284.351	259.27
1287.61	259.29
1290.869	255.52
1294.128	254.73
1297.386	254.27
1300.644	250.86
1303.902	250.71
1307.159	250.25
1310.416	250.08
1313.673	249.73
1316.93	251.41
1320.186	251.52
1323.442	252.45
1326.697	256.68
1329.953	257.17
1333.208	258.25
1336.463	262.01
1339.717	262.79
1342.972	265.32
1346.226	267.99
1349.479	269.07
1352.733	270.35
1355.986	272.85
1359.238	272.81
1362.491	273.5
1365.743	276.62
1368.995	276.55
1372.247	276.51
1375.498	276.65
1378.749	278.66
1382	276.57
1385.251	276.96
1388.501	275.95
1391.751	275.93
1395	274.83
1398.25	273.39
1401.499	272.55
1404.748	272.47
1407.996	270.33
1411.244	268.93
1414.492	267.95
1417.74	265.27
1420.987	261.73
1424.234	261.63
1427.481	258.63
1430.728	258.1
1433.974	255.95
1437.22	253.94
1440.465	252.93
1443.711	250.74
1446.956	248.74
1450.201	245.89
1453.445	243.31
1456.689	242.53
1459.933	237.81
1463.177	236.76
1466.42	232.61
1469.663	229.7
1472.906	228.04
1476.148	222.88
1479.391	220.11
1482.633	218.64
1485.874	214.82
1489.115	213.28
1492.356	211.05
1495.597	211.08
1498.838	206.9
1502.078	206.17
1505.318	205.12
1508.557	204.94
1511.797	204.16
1515.036	202.69
1518.274	201.67
1521.513	199.93
1524.751	200.09
1527.989	198.37
1531.227	197.19
1534.464	197.62
1537.701	196.29
1540.938	195.88
1544.174	193.35
1547.41	193.2
1550.646	192.02
1553.882	192.13
1557.117	190.01
1560.352	188.37
1563.587	188.61
1566.821	186.99
1570.055	185.04
1573.289	183.57
1576.523	183.46
1579.756	181.71
1582.989	180.61
1586.222	180.61
1589.454	179.3
1592.686	180.59
1595.918	179.57
1599.15	178.79
1602.381	179.14
1605.612	179.08
1608.843	179.74
1612.073	178.94
1615.303	179.96
1618.533	179.96
1621.762	179.74
1624.992	179.93
1628.221	179.05
1631.449	179.03
1634.678	178.91
1637.906	179.91
1641.134	179.65
1644.361	179.37
1647.588	179.77
1650.815	179.39
1654.042	178.5
1657.269	179.36
1660.495	179.66
1663.72	179.92
1666.946	180.51
1670.171	180.99
1673.396	180
1676.621	180.78
1679.845	181.06
1683.069	181.24
1686.293	182.53
1689.517	183.58
1692.74	183.49
1695.963	183.62
1699.185	184.82
1702.408	184.65
1705.63	185.34
1708.852	186.34
1712.073	186.22
1715.294	186.49
1718.515	187.34
1721.736	186.7
1724.956	187.13
1728.176	187.21
1731.396	188.71
1734.616	188.4
1737.835	189.68
1741.054	187.8
1744.272	188.46
1747.491	190.14
1750.709	190.6
1753.927	190.65
1757.144	190.55
1760.361	191.25
1763.578	191.61
1766.795	191.26
1770.011	192.71
1773.227	192.36
1776.443	195.45
1779.658	196.3
1782.874	195.85
1786.089	196.45
1789.303	197.13
1792.518	199.41
1795.732	199.65
1798.945	201.41
1802.159	202.03
1805.372	202.48
1808.585	206.13
1811.797	206.68
1815.01	206.98
1818.222	208.63
1821.434	210.44
1824.645	211.4
1827.856	214.8
1831.067	216.18
1834.278	215.8
1837.488	217.47
1840.698	219.17
1843.908	217.1
1847.117	217.96
1850.326	219.31
1853.535	218.58
1856.744	222.1
1859.952	222.23
1863.16	220.33
1866.368	220.06
1869.575	223.22
1872.782	219.84
1875.989	218.45
1879.196	218.57
1882.402	217.96
1885.608	218.86
1888.814	219.94
1892.019	219.28
1895.224	218.71
1898.429	218.16
1901.634	219.37
1904.838	218.81
1908.042	221.27
1911.246	222.66
1914.449	223.91
1917.652	224.03
1920.855	223.65
1924.058	223.23
1927.26	222.02
1930.462	222.47
1933.664	225.32
1936.865	223.59
1940.066	223.85
1943.267	222.83
1946.467	221.76
1949.668	223.03
1952.868	225.29
1956.067	225.16
1959.267	226.16
1962.466	226.87
1965.665	226.34
1968.863	226.38
1972.061	229.18
1975.259	231.03
1978.457	232.41
1981.654	235.63
1984.852	235.9
1988.048	235.23
1991.245	237.32
1994.441	239.93
1997.637	241.59
2000.833	246.31
2004.028	248.96
2007.223	249.97
2010.418	252.54
2013.613	257.24
2016.807	259.46
2020.001	261.69
2023.194	265.54
2026.388	271.29
2029.581	277.52
2032.774	279.77
2035.966	285.22
2039.158	286.21
2042.35	292.89
2045.542	294.67
2048.733	299.07
2051.924	302.25
2055.115	307.78
2058.306	308.92
2061.496	311.54
2064.686	310.4
2067.875	316.21
2071.065	317.04
2074.254	315.68
2077.442	319.61
2080.631	320.49
2083.819	323.46
2087.007	324.06
2090.195	328.11
2093.382	330.47
2096.569	328.53
2099.756	335.17
2102.942	335.61
2106.128	338.09
2109.314	346.98
2112.5	344.1
2115.685	351.99
2118.87	352.25
2122.055	359.71
2125.239	361.38
2128.424	366.03
2131.608	368.99
2134.791	372.37
2137.974	374.15
2141.157	375.8
2144.34	375.33
2147.523	382.37
2150.705	379.68
2153.887	383.53
2157.068	384.17
2160.25	380.88
2163.431	382.65
2166.611	387.87
2169.792	394.65
2172.972	399.22
2176.152	400.93
2179.331	407.04
2182.511	413.58
2185.69	417.26
2188.868	426.6
2192.047	426.2
2195.225	438.84
2198.403	450.43
2201.58	457.65
2204.758	466.73
2207.935	475.4
2211.111	484.74
2214.288	489.21
2217.464	489.58
2220.64	500.04
2223.815	505.67
2226.991	527.74
2230.166	528.27
2233.34	535.78
2236.515	546.37
2239.689	545.57
2242.863	549.13
2246.036	565.55
2249.209	562.98
2252.382	571.72
2255.555	588.36
2258.727	590.09
2261.9	593.06
2265.071	599.17
2268.243	609.82
2271.414	614.53
2274.585	629.37
2277.756	635.82
2280.926	640.53
2284.096	653.56
2287.266	669.66
2290.436	672.07
2293.605	688.18
2296.774	709.19
2299.942	732.11
2303.111	736.24
2306.279	753.42
2309.447	762.78
2312.614	781.63
2315.781	802.83
2318.948	839.31
2322.115	827.4
2325.281	871.66
2328.447	856.39
2331.613	890.83
2334.779	879.57
2337.944	917.03
2341.109	925.88
2344.274	953.23
2347.438	985.83
2350.602	985.06
2353.766	1017.17
2356.929	1032.6
2360.092	1027.57
2363.255	1098.82
2366.418	1096.34
2369.58	1118.12
2372.742	1187.03
2375.904	1217.29
2379.066	1208.4
2382.227	1191.13
2385.388	1291.37
2388.548	1287.44
2391.709	1307.45
2394.869	1454.43
2398.029	1395.39
2401.188	1434.4
2404.347	1424.86
2407.506	1403.04
2410.665	1440.65
2413.823	1524.51
2416.981	1612.94
2420.139	1561.39
2423.296	1552.63
2426.453	1608.56
2429.61	1548.08
2432.767	1614.6
2435.923	1598.3
2439.079	1757.08
2442.235	1774.97
2445.391	1761.73
2448.546	1755.45
2451.701	1701.64
2454.855	1698.09
2458.009	1792.06
2461.163	1879.16
2464.317	1951.71
2467.471	1999.74
2470.624	2004.93
2473.777	1944.96
2476.929	1902.05
2480.082	1846.56
2483.234	1821.49
2486.385	1923.24
2489.537	1933.26
2492.688	2012.57
2495.839	1949.46
2498.989	1903.47
2502.14	1917.23
2505.29	1932.08
2508.439	1962.41
2511.589	1957.6
2514.738	2136.6
2517.887	2091.03
2521.035	2199.94
2524.183	2217.8
2527.331	2232.86
2530.479	2222.65
2533.627	2241.26
