Data from C_2_DEC_OH_4N_Splice17_13-05-25-710.txt Node
Date: Sat Mar 07 13:05:25 EST 2020
User: sa697716
Spectrometer: NQ5500242
Trigger mode: 0
Integration Time (sec): 1.450000E-1
Scans to average: 20
Nonlinearity correction enabled: false
Boxcar width: 5
Storing dark spectrum: false
XAxis mode: Wavelengths
Number of Pixels in Spectrum: 512
>>>>>Begin Spectral Data<<<<<
187.83	182.2
188.298	198.36
188.766	181.04
189.233	148.21
189.701	153.73
190.169	192.19
190.636	194.8
191.104	253.51
191.571	82.53
192.039	-59.46
192.506	-53.84
192.974	72.78
193.441	70.27
193.908	17.9
194.375	33.78
194.842	17.81
195.31	99.53
195.777	125.27
196.244	36.9
196.711	36.31
197.177	38.63
197.644	38.45
198.111	37.64
198.578	37.92
199.045	38.95
199.511	38.6
199.978	38.38
200.445	38.28
200.911	38.3
201.378	38.48
201.844	38.19
202.31	37.8
202.777	37.94
203.243	38.15
203.709	37.96
204.176	37.26
204.642	37.22
205.108	37.09
205.574	36.76
206.04	36.16
206.506	35.6
206.972	35.61
207.438	35.55
207.903	34.87
208.369	33.97
208.835	33.25
209.301	32.3
209.766	31.25
210.232	30.15
210.697	29.34
211.163	28.75
211.628	28.08
212.094	27.3
212.559	26.86
213.024	26.2
213.49	25.73
213.955	25.15
214.42	24.69
214.885	24.05
215.35	23.43
215.815	22.22
216.28	20.46
216.745	18.65
217.21	16.8
217.675	14.93
218.14	13.49
218.604	12.09
219.069	10.95
219.534	10.1
219.998	9.33
220.463	8.68
220.927	8.11
221.392	7.69
221.856	7.34
222.32	7.06
222.785	6.82
223.249	6.57
223.713	6.4
224.177	6.29
224.642	6.11
225.106	5.93
225.57	5.78
226.034	5.65
226.497	5.53
226.961	5.4
227.425	5.28
227.889	5.16
228.353	5.05
228.816	4.94
229.28	4.82
229.744	4.73
230.207	4.65
230.671	4.55
231.134	4.47
231.597	4.42
232.061	4.35
232.524	4.26
232.987	4.2
233.45	4.16
233.914	4.11
234.377	4.05
234.84	3.99
235.303	3.95
235.766	3.92
236.229	3.87
236.691	3.81
237.154	3.78
237.617	3.75
238.08	3.72
238.542	3.68
239.005	3.65
239.468	3.61
239.93	3.58
240.393	3.55
240.855	3.49
241.317	3.46
241.78	3.43
242.242	3.38
242.704	3.35
243.166	3.31
243.629	3.29
244.091	3.25
244.553	3.22
245.015	3.18
245.477	3.15
245.939	3.12
246.4	3.09
246.862	3.06
247.324	3.03
247.786	3
248.247	2.97
248.709	2.92
249.17	2.88
249.632	2.86
250.093	2.83
250.555	2.8
251.016	2.78
251.477	2.75
251.939	2.73
252.4	2.7
252.861	2.67
253.322	2.65
253.783	2.62
254.244	2.61
254.705	2.59
255.166	2.57
255.627	2.54
256.088	2.52
256.549	2.5
257.009	2.47
257.47	2.45
257.931	2.42
258.391	2.39
258.852	2.36
259.312	2.33
259.773	2.31
260.233	2.29
260.694	2.27
261.154	2.24
261.614	2.22
262.074	2.19
262.534	2.17
262.994	2.16
263.455	2.14
263.915	2.12
264.374	2.11
264.834	2.09
265.294	2.06
265.754	2.05
266.214	2.04
266.673	2.02
267.133	2.01
267.593	2
268.052	1.98
268.512	1.98
268.971	1.96
269.431	1.96
269.89	1.95
270.349	1.94
270.809	1.94
271.268	1.93
271.727	1.92
272.186	1.92
272.645	1.91
273.104	1.91
273.563	1.9
274.022	1.9
274.481	1.9
274.94	1.89
275.399	1.88
275.857	1.88
276.316	1.87
276.775	1.87
277.233	1.87
277.692	1.86
278.15	1.86
278.609	1.87
279.067	1.87
279.525	1.86
279.984	1.86
280.442	1.86
280.9	1.87
281.358	1.86
281.816	1.87
282.274	1.87
282.732	1.87
283.19	1.87
283.648	1.86
284.106	1.85
284.564	1.85
285.021	1.85
285.479	1.85
285.937	1.84
286.394	1.85
286.852	1.84
287.309	1.83
287.767	1.83
288.224	1.82
288.682	1.82
289.139	1.81
289.596	1.8
290.053	1.79
290.511	1.77
290.968	1.77
291.425	1.75
291.882	1.74
292.339	1.72
292.796	1.72
293.252	1.71
293.709	1.7
294.166	1.7
294.623	1.69
295.079	1.69
295.536	1.69
295.992	1.69
296.449	1.69
296.905	1.68
297.362	1.68
297.818	1.67
298.274	1.67
298.731	1.67
299.187	1.66
299.643	1.66
300.099	1.66
300.555	1.65
301.011	1.64
301.467	1.64
301.923	1.63
302.379	1.63
302.835	1.63
303.291	1.63
303.746	1.63
304.202	1.64
304.658	1.64
305.113	1.64
305.569	1.64
306.024	1.65
306.479	1.65
306.935	1.65
307.39	1.65
307.845	1.65
308.301	1.66
308.756	1.66
309.211	1.66
309.666	1.67
310.121	1.67
310.576	1.68
311.031	1.68
311.486	1.69
311.94	1.69
312.395	1.7
312.85	1.71
313.305	1.7
313.759	1.7
314.214	1.7
314.668	1.7
315.123	1.7
315.577	1.71
316.032	1.71
316.486	1.7
316.94	1.71
317.394	1.71
317.849	1.7
318.303	1.69
318.757	1.68
319.211	1.68
319.665	1.66
320.119	1.65
320.572	1.64
321.026	1.63
321.48	1.63
321.934	1.61
322.387	1.6
322.841	1.61
323.295	1.62
323.748	1.62
324.202	1.62
324.655	1.63
325.108	1.63
325.562	1.64
326.015	1.64
326.468	1.64
326.921	1.64
327.374	1.64
327.827	1.65
328.28	1.65
328.733	1.65
329.186	1.64
329.639	1.64
330.092	1.65
330.545	1.65
330.997	1.65
331.45	1.66
331.903	1.67
332.355	1.68
332.808	1.68
333.26	1.68
333.713	1.68
334.165	1.69
334.617	1.69
335.069	1.69
335.522	1.69
335.974	1.7
336.426	1.69
336.878	1.69
337.33	1.68
337.782	1.69
338.234	1.69
338.686	1.69
339.137	1.7
339.589	1.69
340.041	1.69
340.493	1.69
340.944	1.67
341.396	1.67
341.847	1.67
342.299	1.65
342.75	1.65
343.201	1.63
343.653	1.62
344.104	1.61
344.555	1.61
345.006	1.6
345.457	1.6
345.908	1.6
346.359	1.6
346.81	1.59
347.261	1.6
347.712	1.59
348.163	1.58
348.613	1.59
349.064	1.59
349.515	1.59
349.965	1.58
350.416	1.57
350.866	1.58
351.317	1.57
351.767	1.57
352.217	1.57
352.668	1.57
353.118	1.58
353.568	1.58
354.018	1.59
354.468	1.6
354.918	1.61
355.368	1.61
355.818	1.61
356.268	1.62
356.718	1.63
357.168	1.63
357.617	1.63
358.067	1.63
358.517	1.63
358.966	1.63
359.416	1.63
359.865	1.63
360.315	1.63
360.764	1.64
361.213	1.62
361.663	1.62
362.112	1.63
362.561	1.64
363.01	1.64
363.459	1.63
363.908	1.62
364.357	1.62
364.806	1.61
365.255	1.61
365.703	1.62
366.152	1.63
366.601	1.63
367.05	1.63
367.498	1.63
367.947	1.63
368.395	1.65
368.844	1.65
369.292	1.65
369.74	1.65
370.189	1.65
370.637	1.63
371.085	1.63
371.533	1.63
371.981	1.62
372.429	1.63
372.877	1.62
373.325	1.62
373.773	1.61
374.221	1.61
374.669	1.62
375.116	1.61
375.564	1.61
376.012	1.61
376.459	1.61
376.907	1.61
377.354	1.61
377.801	1.61
378.249	1.61
378.696	1.61
379.143	1.61
379.591	1.6
380.038	1.61
380.485	1.61
380.932	1.61
381.379	1.61
381.826	1.61
382.273	1.6
382.72	1.58
383.166	1.58
383.613	1.59
384.06	1.58
384.506	1.58
384.953	1.58
385.4	1.58
385.846	1.58
386.292	1.58
386.739	1.57
387.185	1.58
387.631	1.59
388.078	1.6
388.524	1.59
388.97	1.59
389.416	1.59
389.862	1.61
390.308	1.62
390.754	1.63
391.2	1.64
391.645	1.65
392.091	1.66
392.537	1.67
392.983	1.67
393.428	1.7
393.874	1.71
394.319	1.72
394.765	1.72
395.21	1.72
395.655	1.72
396.101	1.73
396.546	1.74
396.991	1.75
397.436	1.75
397.881	1.77
398.326	1.78
398.771	1.8
399.216	1.79
399.661	1.8
400.106	1.82
400.551	1.83
400.995	1.84
401.44	1.86
401.885	1.87
402.329	1.88
402.774	1.89
403.218	1.92
403.663	1.92
404.107	1.94
404.551	1.96
404.995	1.96
405.44	1.97
405.884	1.99
406.328	2
406.772	2
407.216	2.01
407.66	2.02
408.104	2.01
408.547	2.03
408.991	2.05
409.435	2.05
409.879	2.08
410.322	2.11
410.766	2.13
411.209	2.15
411.653	2.17
412.096	2.19
412.54	2.22
412.983	2.24
413.426	2.26
413.869	2.28
414.312	2.32
414.756	2.32
415.199	2.33
415.642	2.34
416.085	2.35
416.527	2.35
416.97	2.35
417.413	2.35
417.856	2.37
418.298	2.36
418.741	2.36
419.184	2.36
419.626	2.36
420.069	2.38
420.511	2.39
420.953	2.4
421.396	2.41
421.838	2.43
422.28	2.44
422.722	2.46
423.164	2.46
423.606	2.48
424.048	2.48
424.49	2.49
424.932	2.48
425.374	2.46
425.816	2.44
426.258	2.43
426.699	2.41
427.141	2.41
427.582	2.4
428.024	2.41
428.465	2.41
428.907	2.41
429.348	2.41
429.789	2.42
430.231	2.45
430.672	2.49
431.113	2.5
431.554	2.53
431.995	2.55
432.436	2.55
432.877	2.57
433.318	2.58
433.759	2.61
434.2	2.63
434.64	2.65
435.081	2.65
435.522	2.66
435.962	2.67
436.403	2.7
436.843	2.71
437.284	2.72
437.724	2.71
438.164	2.7
438.604	2.71
439.045	2.71
439.485	2.71
439.925	2.73
440.365	2.72
440.805	2.73
441.245	2.73
441.685	2.75
442.125	2.75
442.564	2.77
443.004	2.78
443.444	2.78
443.883	2.79
444.323	2.78
444.762	2.79
445.202	2.79
445.641	2.81
446.081	2.81
446.52	2.81
446.959	2.82
447.398	2.82
447.837	2.84
448.276	2.83
448.716	2.83
449.154	2.86
449.593	2.85
450.032	2.86
450.471	2.85
450.91	2.85
451.349	2.84
451.787	2.83
452.226	2.82
452.664	2.81
453.103	2.8
453.541	2.8
453.98	2.8
454.418	2.78
454.856	2.77
455.295	2.75
455.733	2.73
456.171	2.72
456.609	2.72
457.047	2.71
457.485	2.7
457.923	2.71
458.361	2.7
458.798	2.7
459.236	2.7
459.674	2.69
460.111	2.69
460.549	2.72
460.987	2.72
461.424	2.73
461.862	2.74
462.299	2.75
462.736	2.76
463.173	2.76
463.611	2.77
464.048	2.79
464.485	2.8
464.922	2.81
465.359	2.8
465.796	2.83
466.233	2.83
466.67	2.83
467.106	2.85
467.543	2.84
467.98	2.83
468.416	2.82
468.853	2.82
469.29	2.83
469.726	2.83
470.162	2.83
470.599	2.82
471.035	2.81
471.471	2.8
471.907	2.79
472.344	2.79
472.78	2.79
473.216	2.79
473.652	2.8
474.088	2.78
474.523	2.78
474.959	2.78
475.395	2.76
475.831	2.76
476.266	2.76
476.702	2.75
477.138	2.74
477.573	2.74
478.008	2.74
478.444	2.72
478.879	2.73
479.314	2.72
479.75	2.72
480.185	2.71
480.62	2.71
481.055	2.69
481.49	2.68
481.925	2.68
482.36	2.68
482.795	2.67
483.229	2.67
483.664	2.66
484.099	2.66
484.534	2.65
484.968	2.66
485.403	2.66
485.837	2.67
486.271	2.68
486.706	2.69
487.14	2.69
487.574	2.69
488.009	2.69
488.443	2.7
488.877	2.71
489.311	2.72
489.745	2.73
490.179	2.77
490.613	2.79
491.046	2.8
491.48	2.82
491.914	2.84
492.348	2.86
492.781	2.89
493.215	2.92
493.648	2.94
494.082	2.97
494.515	2.99
494.948	3
495.382	3.02
495.815	3.05
496.248	3.08
496.681	3.12
497.114	3.15
497.547	3.19
497.98	3.23
498.413	3.27
498.846	3.31
499.279	3.35
499.711	3.39
500.144	3.44
500.577	3.48
501.009	3.52
501.442	3.56
501.874	3.61
502.306	3.65
502.739	3.71
503.171	3.75
503.603	3.81
504.036	3.86
504.468	3.9
504.9	3.95
505.332	4
505.764	4.07
506.196	4.12
506.627	4.19
507.059	4.25
507.491	4.3
507.923	4.37
508.354	4.44
508.786	4.51
509.217	4.59
509.649	4.66
510.08	4.73
510.512	4.8
510.943	4.86
511.374	4.93
511.805	5
512.237	5.07
512.668	5.13
513.099	5.2
513.53	5.27
513.961	5.33
514.391	5.4
514.822	5.48
515.253	5.54
515.684	5.61
516.114	5.67
516.545	5.73
516.975	5.79
517.406	5.85
517.836	5.91
518.267	5.97
518.697	6.02
519.127	6.05
519.558	6.1
519.988	6.15
520.418	6.2
520.848	6.24
521.278	6.29
521.708	6.5
522.138	6.55
522.567	6.58
522.997	6.61
523.427	6.65
523.857	6.69
524.286	6.71
524.716	6.74
525.145	6.78
525.575	6.81
526.004	6.84
526.433	6.68
526.863	6.7
527.292	6.73
527.721	6.77
528.15	6.78
528.579	6.8
529.008	6.82
529.437	6.84
529.866	6.84
530.295	6.86
530.724	6.87
531.152	6.88
531.581	6.89
532.01	6.9
532.438	6.91
532.867	6.92
533.295	6.94
533.723	6.95
534.152	6.96
534.58	6.97
535.008	6.97
535.436	6.98
535.865	6.99
536.293	7
536.721	7
537.149	6.99
537.576	7.01
538.004	7.02
538.432	7.02
538.86	7.02
539.287	7.02
539.715	7.04
540.143	7.04
540.57	7.05
540.998	7.05
541.425	7.06
541.852	7.07
542.28	7.07
542.707	7.07
543.134	7.07
543.561	7.09
543.988	7.1
544.415	7.1
544.842	7.11
545.269	7.12
545.696	7.14
546.123	7.15
546.549	7.17
546.976	7.19
547.403	7.21
547.829	7.21
548.256	7.21
548.682	7.22
549.108	7.24
549.535	7.26
549.961	7.27
550.387	7.28
550.813	7.29
551.24	7.3
551.666	7.31
552.092	7.33
552.518	7.34
552.943	7.35
553.369	7.36
553.795	7.37
554.221	7.38
554.646	7.37
555.072	7.38
555.498	7.39
555.923	7.39
556.349	7.4
556.774	7.41
557.199	7.42
557.625	7.44
558.05	7.45
558.475	7.45
558.9	7.46
559.325	7.48
559.75	7.5
560.175	7.5
560.6	7.52
561.025	7.52
561.449	7.54
561.874	7.54
562.299	7.54
562.723	7.54
563.148	7.54
563.572	7.54
563.997	7.53
564.421	7.52
564.846	7.52
565.27	7.53
565.694	7.53
566.118	7.52
566.542	7.53
566.966	7.52
567.39	7.52
567.814	7.53
568.238	7.53
568.662	7.54
569.086	7.54
569.509	7.55
569.933	7.55
570.357	7.54
570.78	7.53
571.204	7.53
571.627	7.54
572.05	7.55
572.474	7.56
572.897	7.57
573.32	7.58
573.743	7.58
574.166	7.59
574.589	7.59
575.012	7.61
575.435	7.62
575.858	7.64
576.281	7.65
576.704	7.66
577.126	7.68
577.549	7.69
577.972	7.7
578.394	7.72
578.817	7.74
579.239	7.76
579.661	7.77
580.084	7.8
580.506	7.82
580.928	7.84
581.35	7.85
581.772	7.85
582.194	7.87
582.616	7.89
583.038	7.91
583.46	7.91
583.882	7.93
584.303	7.95
584.725	7.96
585.147	7.98
585.568	8
585.99	8.03
586.411	8.06
586.833	8.08
587.254	8.1
587.675	8.12
588.096	8.15
588.518	8.18
588.939	8.21
589.36	8.22
589.781	8.24
590.202	8.28
590.623	8.31
591.043	8.33
591.464	8.36
591.885	8.39
592.305	8.42
592.726	8.46
593.147	8.49
593.567	8.52
593.987	8.57
594.408	8.6
594.828	8.62
595.248	8.66
595.669	8.7
596.089	8.73
596.509	8.76
596.929	8.8
597.349	8.83
597.769	8.86
598.189	8.9
598.608	8.94
599.028	8.99
599.448	9.02
599.867	9.06
600.287	9.1
600.706	9.15
601.126	9.21
601.545	9.26
601.965	9.31
602.384	9.37
602.803	9.44
603.222	9.48
603.641	9.52
604.061	9.58
604.48	9.64
604.898	9.67
605.317	9.72
605.736	9.78
606.155	9.82
606.574	9.86
606.992	9.89
607.411	9.93
607.829	9.94
608.248	9.98
608.666	10.01
609.085	10.06
609.503	10.1
609.921	10.14
610.339	10.17
610.758	10.21
611.176	10.23
611.594	10.27
612.012	10.29
612.43	10.35
612.847	10.38
613.265	10.42
613.683	10.44
614.101	10.48
614.518	10.51
614.936	10.54
615.353	10.56
615.771	10.6
616.188	10.63
616.606	10.67
617.023	10.71
617.44	10.75
617.857	10.78
618.274	10.81
618.691	10.83
619.108	10.86
619.525	10.9
619.942	10.94
620.359	10.98
620.776	11.02
621.192	11.05
621.609	11.11
622.026	11.15
622.442	11.2
622.859	11.26
623.275	11.33
623.691	11.38
624.108	11.43
624.524	11.49
624.94	11.55
625.356	11.61
625.772	11.67
626.188	11.71
626.604	11.76
627.02	11.81
627.436	11.86
627.852	11.92
628.268	11.97
628.683	12.02
629.099	12.07
629.514	12.12
629.93	12.15
630.345	12.18
630.761	12.21
631.176	12.23
631.591	12.24
632.007	12.24
632.422	12.23
632.837	12.21
633.252	12.19
633.667	12.16
634.082	12.12
634.497	12.07
634.911	12.01
635.326	11.95
635.741	11.89
636.155	11.81
636.57	11.74
636.984	11.66
637.399	11.56
637.813	11.47
638.228	11.35
638.642	11.23
639.056	11.1
639.47	10.99
639.884	10.87
640.298	10.73
640.712	10.59
641.126	10.45
641.54	10.29
641.954	10.14
642.368	9.99
642.781	9.87
643.195	9.74
643.609	9.61
644.022	9.47
644.436	9.34
644.849	9.22
645.262	9.1
645.676	8.99
646.089	8.9
646.502	8.81
646.915	8.73
647.328	8.65
647.741	8.59
648.154	8.53
648.567	8.48
648.98	8.42
649.393	8.38
649.805	8.33
650.218	8.3
650.631	8.27
651.043	8.23
651.456	8.2
651.868	8.16
652.28	8.13
652.693	8.11
653.105	8.08
653.517	8.05
653.929	8.02
654.341	7.99
654.753	7.94
655.165	7.88
655.577	7.83
655.989	7.77
656.401	7.7
656.813	7.64
657.224	7.55
657.636	7.45
658.047	7.38
658.459	7.27
658.87	7.17
659.282	7.06
659.693	6.97
660.104	6.86
660.515	6.75
660.926	6.64
661.338	6.51
661.749	6.39
662.159	6.29
662.57	6.18
662.981	6.07
663.392	5.98
663.803	5.88
664.213	5.76
664.624	5.66
665.035	5.57
665.445	5.49
665.855	5.42
666.266	5.34
666.676	5.27
667.086	5.19
667.497	5.12
667.907	5.06
668.317	5
668.727	4.94
669.137	4.9
669.547	4.86
669.956	4.81
670.366	4.77
670.776	4.73
671.186	4.7
671.595	4.68
672.005	4.66
672.414	4.64
672.824	4.63
673.233	4.61
673.642	4.61
674.052	4.61
674.461	4.6
674.87	4.61
675.279	4.63
675.688	4.65
676.097	4.67
676.506	4.7
676.915	4.73
677.323	4.77
677.732	4.81
678.141	4.88
678.549	4.94
678.958	5.03
679.366	5.13
679.775	5.23
680.183	5.36
680.592	5.51
681	5.67
681.408	5.87
681.816	6.08
682.224	6.32
682.632	6.58
683.04	6.87
683.448	7.19
683.856	7.54
684.264	7.93
684.671	8.35
685.079	8.8
685.487	9.29
685.894	9.81
686.302	10.36
686.709	10.94
687.116	11.57
687.524	12.2
687.931	12.88
688.338	13.55
688.745	14.24
689.152	14.96
689.559	15.7
689.966	16.43
690.373	17.17
690.78	17.92
691.187	18.66
691.593	19.39
692	20.13
692.407	20.84
692.813	21.57
693.22	22.28
693.626	22.97
694.032	23.65
694.439	24.32
694.845	24.98
695.251	25.61
695.657	26.21
696.063	26.81
696.469	27.4
696.875	27.98
697.281	28.57
697.687	29.1
698.093	29.63
698.498	30.14
698.904	30.63
699.31	31.09
699.715	31.57
700.12	32.02
700.526	32.47
700.931	32.9
701.337	33.3
701.742	33.67
702.147	34.07
702.552	34.43
702.957	34.78
703.362	35.1
703.767	35.42
704.172	35.74
704.577	36.05
704.981	36.34
705.386	36.64
705.791	36.92
706.195	37.18
706.6	37.44
707.004	37.69
707.408	37.95
707.813	38.23
708.217	38.46
708.621	38.68
709.025	38.9
709.43	39.09
709.834	39.29
710.237	39.48
710.641	39.67
711.045	39.88
711.449	40.08
711.853	40.28
712.256	40.42
712.66	40.58
713.064	40.77
713.467	40.94
713.87	41.12
714.274	41.27
714.677	41.43
715.08	41.59
715.484	41.73
715.887	41.88
716.29	41.99
716.693	42.16
717.096	42.32
717.499	42.45
717.901	42.57
718.304	42.7
718.707	42.84
719.109	42.97
719.512	43.09
719.915	43.19
720.317	43.25
720.719	43.35
721.122	43.44
721.524	43.52
721.926	43.64
722.328	43.75
722.731	43.84
723.133	43.93
723.535	44.03
723.937	44.12
724.338	44.21
724.74	44.33
725.142	44.55
725.544	44.63
725.945	44.75
726.347	44.78
726.748	44.86
727.15	44.92
727.551	45
727.952	45.04
728.354	45.09
728.755	45.14
729.156	45.18
729.557	45.1
729.958	45.13
730.359	45.16
730.76	45.24
731.161	45.28
731.562	45.33
731.962	45.35
732.363	45.42
732.763	45.48
733.164	45.54
733.564	45.6
733.965	45.66
734.365	45.71
734.766	45.75
735.166	45.77
735.566	45.78
735.966	45.83
736.366	45.85
736.766	45.85
737.166	45.87
737.566	45.91
737.966	45.92
738.365	45.93
738.765	45.97
739.165	45.98
739.564	46
739.964	46.03
740.363	46.03
740.763	46.04
741.162	46.06
741.561	46.05
741.96	46.03
742.36	46.05
742.759	46.06
743.158	46.07
743.557	46.08
743.955	46.12
744.354	46.14
744.753	46.18
745.152	46.22
745.55	46.26
745.949	46.31
746.348	46.36
746.746	46.37
747.144	46.4
747.543	46.39
747.941	46.39
748.339	46.38
748.737	46.39
749.136	46.39
749.534	46.35
749.932	46.34
750.33	46.31
750.727	46.3
751.125	46.32
751.523	46.3
751.921	46.35
752.318	46.36
752.716	46.37
753.113	46.38
753.511	46.37
753.908	46.42
754.305	46.44
754.703	46.46
755.1	46.47
755.497	46.48
755.894	46.48
756.291	46.46
756.688	46.47
757.085	46.48
757.482	46.48
757.878	46.5
758.275	46.52
758.672	46.51
759.068	46.54
759.465	46.52
759.861	46.56
760.258	46.59
760.654	46.59
761.05	46.6
761.447	46.6
761.843	46.6
762.239	46.59
762.635	46.57
763.031	46.59
763.427	46.56
763.822	46.58
764.218	46.56
764.614	46.56
765.01	46.55
765.405	46.54
765.801	46.52
766.196	46.53
766.592	46.56
766.987	46.56
767.382	46.54
767.778	46.55
768.173	46.52
768.568	46.52
768.963	46.51
769.358	46.53
769.753	46.53
770.148	46.56
770.542	46.55
770.937	46.54
771.332	46.57
771.726	46.59
772.121	46.6
772.515	46.62
772.91	46.6
773.304	46.61
773.699	46.6
774.093	46.61
774.487	46.61
774.881	46.61
775.275	46.59
775.669	46.55
776.063	46.53
776.457	46.52
776.851	46.51
777.245	46.49
777.638	46.51
778.032	46.5
778.425	46.51
778.819	46.52
779.212	46.51
779.606	46.54
779.999	46.53
780.392	46.56
780.786	46.56
781.179	46.58
781.572	46.6
781.965	46.6
782.358	46.62
782.751	46.62
783.143	46.6
783.536	46.6
783.929	46.59
784.322	46.62
784.714	46.61
785.107	46.65
785.499	46.62
785.891	46.61
786.284	46.61
786.676	46.6
787.068	46.6
787.46	46.61
787.852	46.61
788.245	46.61
788.636	46.61
789.028	46.59
789.42	46.54
789.812	46.57
790.204	46.59
790.595	46.6
790.987	46.6
791.378	46.61
791.77	46.59
792.161	46.61
792.553	46.61
792.944	46.6
793.335	46.6
793.726	46.62
794.117	46.61
794.508	46.56
794.899	46.57
795.29	46.55
795.681	46.51
796.072	46.49
796.463	46.49
796.853	46.48
797.244	46.47
797.634	46.47
798.025	46.48
798.415	46.48
798.806	46.48
799.196	46.48
799.586	46.5
799.976	46.54
800.366	46.54
800.756	46.51
801.146	46.51
801.536	46.52
801.926	46.5
802.316	46.5
802.706	46.51
803.095	46.53
803.485	46.49
803.874	46.43
804.264	46.4
804.653	46.43
805.043	46.41
805.432	46.4
805.821	46.41
806.21	46.42
806.599	46.39
806.988	46.36
807.377	46.35
807.766	46.37
808.155	46.34
808.544	46.36
808.933	46.32
809.321	46.29
809.71	46.3
810.098	46.27
810.487	46.22
810.875	46.21
811.264	46.17
811.652	46.17
812.04	46.11
812.428	46.14
812.816	46.12
813.204	46.12
813.592	46.14
813.98	46.13
814.368	46.15
814.756	46.17
815.144	46.16
815.531	46.18
815.919	46.14
816.306	46.17
816.694	46.16
817.081	46.14
817.469	46.15
817.856	46.13
818.243	46.09
818.63	46.06
819.017	46.02
819.404	46.01
819.791	45.98
820.178	45.99
820.565	45.94
820.952	45.93
821.339	45.92
821.725	45.91
822.112	45.92
822.498	45.93
822.885	45.94
823.271	45.94
823.657	45.9
824.044	45.89
824.43	45.9
824.816	45.91
825.202	45.9
825.588	45.89
825.974	45.87
826.36	45.84
826.746	45.83
827.132	45.82
827.517	45.84
827.903	45.88
828.289	45.91
828.674	45.91
829.06	45.89
829.445	45.88
829.83	45.87
830.216	45.86
830.601	45.87
830.986	45.87
831.371	45.87
831.756	45.87
832.141	45.86
832.526	45.84
832.911	45.82
833.295	45.81
833.68	45.82
834.065	45.83
834.449	45.83
834.834	45.81
835.218	45.8
835.603	45.78
835.987	45.76
836.371	45.75
836.755	45.74
837.139	45.72
837.524	45.73
837.908	45.72
838.291	45.73
838.675	45.71
839.059	45.71
839.443	45.7
839.827	45.68
840.21	45.67
840.594	45.69
840.977	45.69
841.361	45.69
841.744	45.65
842.127	45.64
842.511	45.61
842.894	45.6
843.277	45.59
843.66	45.56
844.043	45.56
844.426	45.55
844.809	45.49
845.191	45.5
845.574	45.5
845.957	45.53
846.339	45.52
846.722	45.53
847.104	45.54
847.487	45.53
847.869	45.54
848.252	45.54
848.634	45.53
849.016	45.55
849.398	45.53
849.78	45.53
850.162	45.5
850.544	45.49
850.926	45.5
851.307	45.49
851.689	45.5
852.071	45.5
852.452	45.48
852.834	45.5
853.215	45.47
853.597	45.46
853.978	45.45
854.359	45.46
854.741	45.45
855.122	45.43
855.503	45.41
855.884	45.38
856.265	45.39
856.646	45.4
857.026	45.39
857.407	45.39
857.788	45.38
858.169	45.39
858.549	45.38
858.93	45.39
859.31	45.39
859.69	45.39
860.071	45.41
860.451	45.4
860.831	45.4
861.211	45.37
861.591	45.37
861.971	45.37
862.351	45.36
862.731	45.35
863.111	45.33
863.491	45.34
863.87	45.34
864.25	45.31
864.629	45.3
865.009	45.31
865.388	45.32
865.768	45.29
866.147	45.31
866.526	45.3
866.905	45.29
867.284	45.31
867.663	45.29
868.042	45.28
868.421	45.29
868.8	45.3
869.179	45.3
869.558	45.28
869.936	45.29
870.315	45.26
870.693	45.27
871.072	45.28
871.45	45.28
871.828	45.28
872.207	45.29
872.585	45.26
872.963	45.25
873.341	45.23
873.719	45.26
874.097	45.27
874.475	45.29
874.853	45.27
875.23	45.27
875.608	45.26
875.986	45.26
876.363	45.27
876.741	45.31
877.118	45.33
877.495	45.34
877.873	45.33
878.25	45.33
878.627	45.32
879.004	45.33
879.381	45.34
879.758	45.31
880.135	45.3
880.512	45.28
880.889	45.26
881.265	45.22
881.642	45.19
882.019	45.18
882.395	45.18
882.772	45.18
883.148	45.16
883.524	45.14
883.901	45.17
884.277	45.15
884.653	45.13
885.029	45.12
885.405	45.14
885.781	45.15
886.157	45.16
886.532	45.17
886.908	45.13
887.284	45.13
887.659	45.11
888.035	45.08
888.411	45.08
888.786	45.1
889.161	45.11
889.537	45.09
889.912	45.06
890.287	45.03
890.662	44.99
891.037	44.99
891.412	44.97
891.787	44.97
892.162	44.96
892.536	44.96
892.911	44.93
893.286	44.91
893.66	44.91
894.035	44.91
894.409	44.9
894.784	44.93
895.158	44.93
895.532	44.96
895.906	44.95
896.281	44.95
896.655	44.95
897.029	44.96
897.402	44.96
897.776	44.98
898.15	44.99
898.524	44.99
898.898	44.97
899.271	44.96
899.645	44.93
900.018	44.96
900.392	44.96
900.765	44.98
901.138	44.98
901.511	44.99
901.884	44.97
902.258	44.98
902.631	45.01
903.003	45.01
903.376	45.03
903.749	45.04
904.122	45.04
904.495	45.07
904.867	45.07
905.24	45.08
905.612	45.1
905.985	45.11
906.357	45.1
906.729	45.11
907.102	45.14
907.474	45.14
907.846	45.15
908.218	45.14
908.59	45.13
908.962	45.15
909.334	45.15
909.705	45.13
910.077	45.15
910.449	45.17
910.82	45.16
911.192	45.14
911.563	45.15
911.935	45.13
912.306	45.15
912.677	45.14
913.048	45.12
913.419	45.11
913.79	45.1
914.161	45.1
914.532	45.08
914.903	45.09
915.274	45.08
915.645	45.1
916.015	45.11
916.386	45.09
916.756	45.11
917.127	45.09
917.497	45.07
917.868	45.12
918.238	45.08
918.608	45.13
918.978	45.12
919.348	45.13
919.718	45.09
920.088	45.08
920.458	45.07
920.828	45.05
921.198	45.05
921.567	45.07
921.937	45.05
922.306	45.03
922.676	44.99
923.045	44.96
923.415	44.93
923.784	44.95
924.153	44.95
924.522	44.97
924.891	44.99
925.26	44.99
925.629	44.98
925.998	44.96
926.367	45
926.736	45.01
927.104	45.04
927.473	45.06
927.842	45.03
928.21	45.04
928.578	45.02
928.947	45
929.315	44.99
929.683	44.97
930.051	44.97
930.42	44.93
930.788	44.9
931.156	44.85
931.523	44.83
931.891	44.89
932.259	44.89
932.627	44.91
932.994	44.9
933.362	44.89
933.729	44.91
934.097	44.92
934.464	44.95
934.831	44.98
935.199	45.04
935.566	45.04
935.933	44.93
936.3	44.91
936.667	44.84
937.034	44.88
937.401	44.87
937.767	44.86
938.134	44.82
938.501	44.78
938.867	44.75
939.234	44.65
939.6	44.61
939.967	44.62
940.333	44.56
940.699	44.56
941.065	44.43
941.431	44.42
941.798	44.37
942.163	44.35
942.529	44.27
942.895	44.2
943.261	44.2
943.627	44.14
943.992	44.1
944.358	44.09
944.723	44.02
945.089	43.95
945.454	43.94
945.82	43.86
946.185	43.84
946.55	43.87
946.915	43.86
947.28	43.87
947.645	43.9
948.01	43.94
948.375	43.88
948.74	43.9
949.104	43.97
949.469	43.9
949.834	43.9
950.198	43.9
950.562	43.87
950.927	43.87
951.291	43.79
951.655	43.72
952.02	43.7
952.384	43.71
952.748	43.69
953.112	43.7
953.476	43.72
953.839	43.77
954.203	43.73
954.567	43.69
954.931	43.69
955.294	43.73
955.658	43.81
956.021	43.81
956.385	43.79
956.748	43.8
957.111	43.78
957.474	43.8
957.837	43.76
958.2	43.78
958.563	43.81
958.926	43.85
959.289	43.87
959.652	43.85
960.015	43.89
960.377	43.91
960.74	43.99
961.102	44.01
961.465	44.04
961.827	44.14
962.189	44.19
962.552	44.23
962.914	44.2
963.276	44.22
963.638	44.24
964	44.25
964.362	44.29
964.724	44.23
965.085	44.22
965.447	44.25
965.809	44.19
966.17	44.12
966.532	44.13
966.893	44.17
967.255	44.21
967.616	44.2
967.977	44.21
968.338	44.19
968.699	44.2
969.061	44.22
969.421	44.16
969.782	44.16
970.143	44.23
970.504	44.24
970.865	44.27
971.225	44.24
971.586	44.3
971.946	44.29
972.307	44.3
972.667	44.28
973.027	44.27
973.388	44.31
973.748	44.35
974.108	44.4
974.468	44.38
974.828	44.44
975.188	44.43
975.548	44.4
975.907	44.39
976.267	44.41
976.627	44.51
976.986	44.54
977.346	44.56
977.705	44.53
978.064	44.56
978.424	44.58
978.783	44.46
979.142	44.48
979.501	44.5
979.86	44.54
980.219	44.54
980.578	44.52
980.937	44.49
981.296	44.44
981.654	44.51
982.013	44.49
982.371	44.53
982.73	44.61
983.088	44.6
983.447	44.62
983.805	44.64
984.163	44.61
984.521	44.6
984.879	44.57
985.237	44.63
985.595	44.64
985.953	44.61
986.311	44.6
986.669	44.6
987.026	44.64
987.384	44.69
987.741	44.61
988.099	44.73
988.456	44.74
988.814	44.84
989.171	44.89
989.528	44.87
989.885	44.85
990.242	44.81
990.599	44.82
990.956	44.86
991.313	44.83
991.67	44.89
992.027	45.04
992.383	45.05
992.74	45.1
993.096	45
993.453	45.02
993.809	45.06
994.165	45.09
994.522	45.2
994.878	45.27
995.234	45.33
995.59	45.3
995.946	45.15
996.302	45.15
996.658	45.17
997.013	45.25
997.369	45.33
997.725	45.45
998.08	45.46
998.436	45.34
998.791	45.26
999.147	45.22
999.502	45.34
999.857	45.33
1000.212	45.38
1000.567	45.3
1000.922	45.28
1001.277	45.25
1001.632	44.97
1001.987	45.08
1002.342	45.12
1002.696	45.13
1003.051	45.29
1003.406	45.41
1003.76	45.4
1004.114	45.36
1004.469	45.46
1004.823	45.64
1005.177	45.67
1005.531	45.95
1005.885	45.86
1006.239	45.89
1006.593	46.03
1006.947	45.95
1007.301	45.69
1007.655	45.69
1008.008	45.79
1008.362	45.85
1008.715	45.63
1009.069	45.63
1009.422	45.58
1009.776	45.6
1010.129	45.55
1010.482	45.28
1010.835	45.14
1011.188	45.29
1011.541	45.21
1011.894	45.25
1012.247	45.26
1012.6	45.5
1012.952	45.46
1013.305	45.59
1013.657	45.71
1014.01	45.75
1014.362	45.88
1014.715	46.16
1015.067	46.1
1015.419	46.38
1015.771	46.28
1016.123	46.19
1016.475	46.11
1016.827	46.19
1017.179	46.2
1017.531	46.19
1017.883	46.3
1018.234	46.55
1018.586	46.54
1018.938	46.84
1019.289	46.54
1019.64	46.6
1019.992	46.54
1020.343	46.57
1020.694	46.54
1021.045	46.5
1021.396	46.36
1021.747	46.34
1022.098	46.28
1022.449	46.03
1022.8	45.87
1023.151	46.11
1023.501	46.18
1023.852	46.3
1024.202	46.05
1024.553	46.18
1024.903	46.33
1025.253	46.59
1025.604	46.73
1025.954	46.53
1026.304	46.69
1026.654	46.58
1027.004	46.63
1027.354	46.52
1027.703	46.55
1028.053	46.86
1028.403	46.72
1028.753	46.33
1029.102	46.41
1029.452	46.44
1029.801	46.77
1030.15	46.7
1030.499	46.81
897.758	1242.41
901.051	1255.89
904.343	1252.72
907.636	1272.38
910.928	1240.55
914.22	1241.67
917.511	1223.56
920.803	1172.28
924.094	1165.32
927.384	1140.58
930.675	1095.35
933.965	1089.84
937.255	1024.7
940.544	983.11
943.834	940.29
947.123	931.93
950.411	875.56
953.7	857.25
956.988	811.54
960.276	777.82
963.563	764.79
966.851	738.73
970.138	732.5
973.424	708.73
976.711	712.61
979.997	675.43
983.283	671.93
986.568	658
989.853	638.75
993.138	626.29
996.423	601.9
999.708	585.44
1002.992	577.74
1006.275	551.44
1009.559	548.17
1012.842	527.06
1016.125	513.71
1019.408	504.11
1022.69	496.58
1025.972	487.07
1029.254	474.53
1032.536	468.46
1035.817	457.55
1039.098	452.6
1042.379	443.71
1045.659	438.07
1048.939	428.78
1052.219	419.32
1055.498	413.62
1058.778	404.41
1062.057	394.35
1065.335	391.27
1068.614	386.14
1071.892	382.75
1075.17	369.86
1078.447	362.83
1081.724	358.76
1085.001	357.06
1088.278	349.23
1091.554	342.15
1094.83	342.21
1098.106	340.11
1101.382	337.27
1104.657	335.41
1107.932	329.59
1111.206	332.06
1114.481	323.72
1117.755	321.22
1121.029	317.39
1124.302	318.17
1127.575	310.8
1130.848	307.7
1134.121	303.72
1137.393	301.7
1140.665	294.39
1143.937	292.94
1147.208	290.55
1150.48	290.11
1153.75	286.37
1157.021	281.94
1160.291	281.4
1163.561	279.49
1166.831	279.41
1170.101	277.29
1173.37	276.49
1176.639	277.66
1179.907	274.99
1183.176	271.51
1186.444	271.59
1189.711	270.89
1192.979	270.6
1196.246	268.61
1199.513	269.05
1202.78	267.09
1206.046	267.04
1209.312	265.39
1212.578	264.85
1215.843	267.65
1219.108	265.77
1222.373	270.71
1225.638	273.08
1228.902	276.69
1232.166	277.14
1235.43	279.63
1238.693	283.07
1241.956	285.05
1245.219	288.85
1248.482	289.75
1251.744	288.44
1255.006	290.23
1258.268	282.75
1261.529	279.86
1264.79	278.32
1268.051	277.52
1271.312	272.63
1274.572	270.49
1277.832	267.4
1281.092	263.56
1284.351	261.41
1287.61	261.34
1290.869	257.73
1294.128	256.68
1297.386	256.54
1300.644	253.55
1303.902	253.62
1307.159	253.53
1310.416	252.78
1313.673	253.02
1316.93	254.5
1320.186	254.26
1323.442	255.11
1326.697	259.16
1329.953	260.02
1333.208	260.89
1336.463	264.08
1339.717	264.45
1342.972	267.67
1346.226	270.49
1349.479	270.65
1352.733	272.25
1355.986	274.17
1359.238	273.73
1362.491	274.74
1365.743	277.2
1368.995	276.83
1372.247	276.18
1375.498	276.12
1378.749	277.98
1382	274.32
1385.251	274.97
1388.501	273.56
1391.751	273.92
1395	272.32
1398.25	270.38
1401.499	268.41
1404.748	268.54
1407.996	265.98
1411.244	264.8
1414.492	263.21
1417.74	260.25
1420.987	256.4
1424.234	255.28
1427.481	252.58
1430.728	252.5
1433.974	250.38
1437.22	247.8
1440.465	246.92
1443.711	244.7
1446.956	242.72
1450.201	239.85
1453.445	237.46
1456.689	236.55
1459.933	233.27
1463.177	230.57
1466.42	226.68
1469.663	223.91
1472.906	222.86
1476.148	216.91
1479.391	214.33
1482.633	212.58
1485.874	208.61
1489.115	207.17
1492.356	205.39
1495.597	204.68
1498.838	201.49
1502.078	200.73
1505.318	199.5
1508.557	199.24
1511.797	198.94
1515.036	197.59
1518.274	197.12
1521.513	195.83
1524.751	195.3
1527.989	194.18
1531.227	193.05
1534.464	193.58
1537.701	192.03
1540.938	191.66
1544.174	189.79
1547.41	189.89
1550.646	188.58
1553.882	188.23
1557.117	186.4
1560.352	185.71
1563.587	184.83
1566.821	183.49
1570.055	182.17
1573.289	180.65
1576.523	180.72
1579.756	178.62
1582.989	176.96
1586.222	177.27
1589.454	175.76
1592.686	176.66
1595.918	175.8
1599.15	175.77
1602.381	176.22
1605.612	175.59
1608.843	176.41
1612.073	175.6
1615.303	177.14
1618.533	177.45
1621.762	177.11
1624.992	177.9
1628.221	177.57
1631.449	177.41
1634.678	176.42
1637.906	177.73
1641.134	177.44
1644.361	177.16
1647.588	177.78
1650.815	176.87
1654.042	176.38
1657.269	177.4
1660.495	177.61
1663.72	177.33
1666.946	177.81
1670.171	178.94
1673.396	177.71
1676.621	178.16
1679.845	178.38
1683.069	178.16
1686.293	179.62
1689.517	180.35
1692.74	180.08
1695.963	180
1699.185	181.62
1702.408	181.94
1705.63	182.52
1708.852	182.96
1712.073	183.33
1715.294	183.94
1718.515	185.18
1721.736	184.2
1724.956	184.65
1728.176	184.74
1731.396	186.36
1734.616	185.57
1737.835	186.39
1741.054	184.62
1744.272	185.77
1747.491	187.37
1750.709	187.45
1753.927	186.9
1757.144	187.22
1760.361	188.04
1763.578	188.68
1766.795	188.55
1770.011	189.84
1773.227	189.35
1776.443	192.26
1779.658	192.43
1782.874	191.9
1786.089	193.06
1789.303	194.09
1792.518	195.4
1795.732	195.83
1798.945	196.77
1802.159	197.23
1805.372	197.71
1808.585	201.37
1811.797	202.41
1815.01	202.72
1818.222	204.39
1821.434	205.54
1824.645	206.32
1827.856	210.28
1831.067	211.5
1834.278	211.92
1837.488	213.32
1840.698	215.19
1843.908	213.29
1847.117	213.63
1850.326	215.36
1853.535	214.83
1856.744	218.39
1859.952	218.11
1863.16	216.8
1866.368	215.55
1869.575	217.69
1872.782	214.8
1875.989	213.45
1879.196	212.91
1882.402	212.05
1885.608	212.8
1888.814	213.51
1892.019	212.71
1895.224	212.24
1898.429	211.29
1901.634	213.19
1904.838	213.43
1908.042	215.62
1911.246	216.8
1914.449	218.67
1917.652	218.87
1920.855	218.4
1924.058	218.29
1927.26	217.39
1930.462	218.21
1933.664	221.19
1936.865	218.67
1940.066	219.18
1943.267	217.71
1946.467	217.44
1949.668	218.44
1952.868	220.71
1956.067	220.93
1959.267	221.54
1962.466	222.35
1965.665	221.58
1968.863	222.27
1972.061	225.31
1975.259	226.75
1978.457	229.19
1981.654	230.25
1984.852	230.7
1988.048	230.56
1991.245	232.09
1994.441	234.71
1997.637	235.63
2000.833	240.32
2004.028	242.96
2007.223	244.6
2010.418	246.17
2013.613	250.21
2016.807	253.88
2020.001	256.25
2023.194	260.01
2026.388	265.96
2029.581	272.12
2032.774	274.64
2035.966	279.18
2039.158	279.74
2042.35	285.61
2045.542	286.74
2048.733	291.79
2051.924	296.03
2055.115	301.43
2058.306	301.77
2061.496	304.83
2064.686	303.27
2067.875	309.4
2071.065	310.77
2074.254	309.07
2077.442	312.38
2080.631	315.36
2083.819	317.48
2087.007	317.51
2090.195	321.36
2093.382	323.95
2096.569	322.15
2099.756	327.71
2102.942	328.47
2106.128	331.06
2109.314	338.73
2112.5	337.15
2115.685	343.65
2118.87	344.31
2122.055	351.12
2125.239	352.38
2128.424	356.91
2131.608	359.85
2134.791	364.28
2137.974	365.38
2141.157	367.25
2144.34	368.48
2147.523	374.42
2150.705	372.03
2153.887	376.23
2157.068	376.43
2160.25	373.4
2163.431	375.04
2166.611	379.72
2169.792	387.07
2172.972	391.04
2176.152	392.6
2179.331	397.34
2182.511	404.43
2185.69	408.07
2188.868	416.06
2192.047	418.35
2195.225	430.79
2198.403	441.71
2201.58	448.24
2204.758	456.26
2207.935	466.66
2211.111	476.19
2214.288	481.28
2217.464	481.32
2220.64	491.82
2223.815	498.27
2226.991	518.31
2230.166	517.9
2233.34	525.86
2236.515	537.06
2239.689	537.6
2242.863	541.43
2246.036	557.85
2249.209	554.45
2252.382	563.92
2255.555	578.91
2258.727	580.59
2261.9	585.98
2265.071	592.81
2268.243	603.75
2271.414	608.99
2274.585	623.74
2277.756	628.4
2280.926	634.6
2284.096	648.53
2287.266	663.72
2290.436	668.93
2293.605	683.78
2296.774	698.6
2299.942	721.65
2303.111	727.73
2306.279	745.3
2309.447	754.03
2312.614	775.86
2315.781	792.45
2318.948	829.12
2322.115	817.63
2325.281	862.73
2328.447	848.3
2331.613	885.84
2334.779	875.28
2337.944	909.35
2341.109	918.98
2344.274	945.66
2347.438	979.68
2350.602	980.11
2353.766	1013.44
2356.929	1029.28
2360.092	1021.61
2363.255	1091.18
2366.418	1086.95
2369.58	1109.8
2372.742	1181.88
2375.904	1211.13
2379.066	1204.84
2382.227	1178.46
2385.388	1281.7
2388.548	1277.82
2391.709	1294.29
2394.869	1440.97
2398.029	1383
2401.188	1421.63
2404.347	1413.65
2407.506	1390.76
2410.665	1427.47
2413.823	1512.25
2416.981	1605.33
2420.139	1551.68
2423.296	1539.76
2426.453	1604.74
2429.61	1543.82
2432.767	1612.19
2435.923	1598.77
2439.079	1743.22
2442.235	1759.76
2445.391	1750.1
2448.546	1733.92
2451.701	1680.16
2454.855	1678.63
2458.009	1774.83
2461.163	1857.65
2464.317	1922.35
2467.471	1972.43
2470.624	1977.06
2473.777	1929.15
2476.929	1885.01
2480.082	1828.62
2483.234	1811.92
2486.385	1903.2
2489.537	1911.45
2492.688	1987.32
2495.839	1927.8
2498.989	1885.97
2502.14	1895.73
2505.29	1911.17
2508.439	1942.95
2511.589	1937.05
2514.738	2112.67
2517.887	2065.74
2521.035	2183.93
2524.183	2204.12
2527.331	2217.75
2530.479	2200.55
2533.627	2223.28
