Data from C_2_DEC_CT_2N_Splice17_13-30-18-932.txt Node
Date: Sat Mar 07 13:30:18 EST 2020
User: sa697716
Spectrometer: NQ5500242
Trigger mode: 0
Integration Time (sec): 1.450000E-1
Scans to average: 20
Nonlinearity correction enabled: false
Boxcar width: 5
Storing dark spectrum: false
XAxis mode: Wavelengths
Number of Pixels in Spectrum: 512
>>>>>Begin Spectral Data<<<<<
187.83	150.41
188.298	176.55
188.766	147.78
189.233	125.11
189.701	131.47
190.169	150.76
190.636	128.53
191.104	125.61
191.571	-43.47
192.039	-246.98
192.506	-601.62
192.974	179.01
193.441	253.12
193.908	66.32
194.375	51.38
194.842	11.23
195.31	81.24
195.777	-62.96
196.244	51.87
196.711	53.54
197.177	54.75
197.644	54.21
198.111	53.67
198.578	53.76
199.045	54.46
199.511	54.33
199.978	54.06
200.445	53.96
200.911	54.07
201.378	53.76
201.844	53.61
202.31	53.26
202.777	53.18
203.243	53.27
203.709	53.19
204.176	52.72
204.642	52.51
205.108	52.65
205.574	52.12
206.04	51.92
206.506	51.55
206.972	51.32
207.438	50.99
207.903	50.18
208.369	48.91
208.835	48.17
209.301	47.3
209.766	46.08
210.232	44.92
210.697	43.67
211.163	42.3
211.628	41.54
212.094	40.57
212.559	39.62
213.024	38.77
213.49	38.07
213.955	36.96
214.42	36.02
214.885	35.03
215.35	33.67
215.815	32.26
216.28	30.32
216.745	28.01
217.21	25.83
217.675	23.85
218.14	22.17
218.604	20.63
219.069	19.41
219.534	18.34
219.998	17.48
220.463	16.75
220.927	16.05
221.392	15.54
221.856	15.09
222.32	14.71
222.785	14.36
223.249	14.02
223.713	13.72
224.177	13.46
224.642	13.2
225.106	12.9
225.57	12.65
226.034	12.44
226.497	12.24
226.961	12.04
227.425	11.83
227.889	11.65
228.353	11.47
228.816	11.29
229.28	11.12
229.744	10.98
230.207	10.85
230.671	10.69
231.134	10.54
231.597	10.43
232.061	10.29
232.524	10.16
232.987	10.03
233.45	9.93
233.914	9.81
234.377	9.68
234.84	9.57
235.303	9.47
235.766	9.38
236.229	9.29
236.691	9.17
237.154	9.08
237.617	8.99
238.08	8.9
238.542	8.81
239.005	8.73
239.468	8.65
239.93	8.57
240.393	8.5
240.855	8.41
241.317	8.32
241.78	8.25
242.242	8.17
242.704	8.1
243.166	8.04
243.629	7.98
244.091	7.9
244.553	7.82
245.015	7.75
245.477	7.67
245.939	7.61
246.4	7.54
246.862	7.48
247.324	7.42
247.786	7.35
248.247	7.28
248.709	7.2
249.17	7.14
249.632	7.11
250.093	7.06
250.555	7.01
251.016	6.96
251.477	6.91
251.939	6.87
252.4	6.82
252.861	6.77
253.322	6.73
253.783	6.7
254.244	6.66
254.705	6.61
255.166	6.56
255.627	6.52
256.088	6.49
256.549	6.45
257.009	6.4
257.47	6.37
257.931	6.32
258.391	6.27
258.852	6.23
259.312	6.18
259.773	6.14
260.233	6.12
260.694	6.08
261.154	6.03
261.614	6
262.074	5.96
262.534	5.92
262.994	5.9
263.455	5.87
263.915	5.85
264.374	5.82
264.834	5.79
265.294	5.76
265.754	5.75
266.214	5.73
266.673	5.71
267.133	5.7
267.593	5.69
268.052	5.68
268.512	5.67
268.971	5.66
269.431	5.65
269.89	5.63
270.349	5.62
270.809	5.61
271.268	5.59
271.727	5.57
272.186	5.56
272.645	5.56
273.104	5.54
273.563	5.52
274.022	5.51
274.481	5.5
274.94	5.49
275.399	5.47
275.857	5.46
276.316	5.44
276.775	5.44
277.233	5.42
277.692	5.41
278.15	5.4
278.609	5.39
279.067	5.37
279.525	5.36
279.984	5.34
280.442	5.33
280.9	5.32
281.358	5.32
281.816	5.3
282.274	5.28
282.732	5.27
283.19	5.25
283.648	5.24
284.106	5.23
284.564	5.22
285.021	5.21
285.479	5.2
285.937	5.18
286.394	5.17
286.852	5.16
287.309	5.14
287.767	5.13
288.224	5.11
288.682	5.1
289.139	5.09
289.596	5.06
290.053	5.04
290.511	5.03
290.968	5.01
291.425	4.99
291.882	4.98
292.339	4.96
292.796	4.94
293.252	4.92
293.709	4.91
294.166	4.9
294.623	4.89
295.079	4.88
295.536	4.87
295.992	4.86
296.449	4.85
296.905	4.84
297.362	4.84
297.818	4.83
298.274	4.83
298.731	4.82
299.187	4.8
299.643	4.79
300.099	4.79
300.555	4.77
301.011	4.76
301.467	4.76
301.923	4.74
302.379	4.73
302.835	4.72
303.291	4.72
303.746	4.7
304.202	4.71
304.658	4.7
305.113	4.68
305.569	4.68
306.024	4.68
306.479	4.67
306.935	4.66
307.39	4.66
307.845	4.65
308.301	4.66
308.756	4.66
309.211	4.66
309.666	4.66
310.121	4.66
310.576	4.65
311.031	4.65
311.486	4.65
311.94	4.65
312.395	4.65
312.85	4.65
313.305	4.64
313.759	4.64
314.214	4.63
314.668	4.62
315.123	4.62
315.577	4.62
316.032	4.61
316.486	4.59
316.94	4.58
317.394	4.56
317.849	4.54
318.303	4.53
318.757	4.51
319.211	4.49
319.665	4.48
320.119	4.47
320.572	4.46
321.026	4.45
321.48	4.44
321.934	4.43
322.387	4.42
322.841	4.42
323.295	4.41
323.748	4.41
324.202	4.41
324.655	4.4
325.108	4.4
325.562	4.39
326.015	4.38
326.468	4.37
326.921	4.36
327.374	4.35
327.827	4.35
328.28	4.34
328.733	4.33
329.186	4.32
329.639	4.32
330.092	4.31
330.545	4.32
330.997	4.32
331.45	4.32
331.903	4.33
332.355	4.32
332.808	4.32
333.26	4.32
333.713	4.31
334.165	4.3
334.617	4.3
335.069	4.3
335.522	4.29
335.974	4.28
336.426	4.27
336.878	4.26
337.33	4.26
337.782	4.26
338.234	4.27
338.686	4.27
339.137	4.28
339.589	4.26
340.041	4.26
340.493	4.25
340.944	4.24
341.396	4.23
341.847	4.22
342.299	4.2
342.75	4.19
343.201	4.16
343.653	4.15
344.104	4.13
344.555	4.13
345.006	4.1
345.457	4.1
345.908	4.09
346.359	4.08
346.81	4.08
347.261	4.07
347.712	4.07
348.163	4.05
348.613	4.05
349.064	4.05
349.515	4.05
349.965	4.04
350.416	4.04
350.866	4.03
351.317	4.02
351.767	4.02
352.217	4.02
352.668	4.01
353.118	4.02
353.568	4.01
354.018	4.01
354.468	4.02
354.918	4.03
355.368	4.03
355.818	4.03
356.268	4.03
356.718	4.03
357.168	4.02
357.617	4.02
358.067	4.02
358.517	4.03
358.966	4.02
359.416	4.02
359.865	4.01
360.315	4.02
360.764	4.02
361.213	4.01
361.663	4
362.112	4.02
362.561	4.02
363.01	4.02
363.459	4.01
363.908	4
364.357	3.99
364.806	3.99
365.255	3.99
365.703	4
366.152	4.01
366.601	4.02
367.05	4.01
367.498	3.99
367.947	3.99
368.395	4
368.844	4.01
369.292	4.01
369.74	4
370.189	3.99
370.637	3.98
371.085	3.97
371.533	3.97
371.981	3.96
372.429	3.97
372.877	3.97
373.325	3.96
373.773	3.95
374.221	3.94
374.669	3.94
375.116	3.94
375.564	3.93
376.012	3.93
376.459	3.92
376.907	3.92
377.354	3.92
377.801	3.92
378.249	3.93
378.696	3.93
379.143	3.92
379.591	3.93
380.038	3.93
380.485	3.93
380.932	3.94
381.379	3.94
381.826	3.94
382.273	3.94
382.72	3.93
383.166	3.93
383.613	3.93
384.06	3.93
384.506	3.92
384.953	3.92
385.4	3.92
385.846	3.93
386.292	3.93
386.739	3.93
387.185	3.93
387.631	3.95
388.078	3.95
388.524	3.96
388.97	3.96
389.416	3.98
389.862	3.99
390.308	4.01
390.754	4.03
391.2	4.05
391.645	4.07
392.091	4.1
392.537	4.12
392.983	4.13
393.428	4.15
393.874	4.18
394.319	4.2
394.765	4.22
395.21	4.24
395.655	4.25
396.101	4.28
396.546	4.3
396.991	4.32
397.436	4.35
397.881	4.39
398.326	4.43
398.771	4.45
399.216	4.48
399.661	4.51
400.106	4.55
400.551	4.58
400.995	4.59
401.44	4.62
401.885	4.65
402.329	4.68
402.774	4.7
403.218	4.74
403.663	4.77
404.107	4.81
404.551	4.84
404.995	4.87
405.44	4.9
405.884	4.93
406.328	4.96
406.772	4.99
407.216	5.01
407.66	5.04
408.104	5.06
408.547	5.08
408.991	5.1
409.435	5.13
409.879	5.16
410.322	5.19
410.766	5.22
411.209	5.25
411.653	5.28
412.096	5.31
412.54	5.33
412.983	5.36
413.426	5.41
413.869	5.43
414.312	5.47
414.756	5.5
415.199	5.52
415.642	5.54
416.085	5.57
416.527	5.57
416.97	5.6
417.413	5.6
417.856	5.61
418.298	5.61
418.741	5.64
419.184	5.63
419.626	5.64
420.069	5.65
420.511	5.66
420.953	5.67
421.396	5.7
421.838	5.71
422.28	5.73
422.722	5.76
423.164	5.77
423.606	5.77
424.048	5.79
424.49	5.81
424.932	5.82
425.374	5.8
425.816	5.77
426.258	5.75
426.699	5.75
427.141	5.75
427.582	5.74
428.024	5.74
428.465	5.75
428.907	5.74
429.348	5.72
429.789	5.71
430.231	5.75
430.672	5.77
431.113	5.8
431.554	5.81
431.995	5.81
432.436	5.82
432.877	5.84
433.318	5.85
433.759	5.87
434.2	5.9
434.64	5.92
435.081	5.92
435.522	5.93
435.962	5.96
436.403	5.98
436.843	6
437.284	6.01
437.724	6.02
438.164	6.03
438.604	6.03
439.045	6.04
439.485	6.06
439.925	6.07
440.365	6.09
440.805	6.1
441.245	6.11
441.685	6.15
442.125	6.18
442.564	6.2
443.004	6.23
443.444	6.26
443.883	6.29
444.323	6.31
444.762	6.33
445.202	6.35
445.641	6.39
446.081	6.42
446.52	6.43
446.959	6.46
447.398	6.5
447.837	6.53
448.276	6.55
448.716	6.6
449.154	6.64
449.593	6.68
450.032	6.72
450.471	6.73
450.91	6.75
451.349	6.79
451.787	6.8
452.226	6.8
452.664	6.81
453.103	6.82
453.541	6.81
453.98	6.81
454.418	6.8
454.856	6.81
455.295	6.81
455.733	6.79
456.171	6.78
456.609	6.77
457.047	6.76
457.485	6.76
457.923	6.77
458.361	6.77
458.798	6.77
459.236	6.76
459.674	6.75
460.111	6.75
460.549	6.77
460.987	6.78
461.424	6.78
461.862	6.79
462.299	6.79
462.736	6.77
463.173	6.78
463.611	6.78
464.048	6.79
464.485	6.8
464.922	6.8
465.359	6.79
465.796	6.8
466.233	6.81
466.67	6.82
467.106	6.84
467.543	6.85
467.98	6.86
468.416	6.85
468.853	6.85
469.29	6.86
469.726	6.86
470.162	6.87
470.599	6.85
471.035	6.85
471.471	6.83
471.907	6.83
472.344	6.84
472.78	6.84
473.216	6.84
473.652	6.85
474.088	6.84
474.523	6.84
474.959	6.84
475.395	6.84
475.831	6.85
476.266	6.86
476.702	6.85
477.138	6.85
477.573	6.84
478.008	6.85
478.444	6.84
478.879	6.86
479.314	6.85
479.75	6.86
480.185	6.86
480.62	6.85
481.055	6.84
481.49	6.85
481.925	6.85
482.36	6.86
482.795	6.86
483.229	6.87
483.664	6.87
484.099	6.88
484.534	6.89
484.968	6.9
485.403	6.92
485.837	6.95
486.271	6.97
486.706	6.98
487.14	7.01
487.574	7.05
488.009	7.08
488.443	7.13
488.877	7.18
489.311	7.23
489.745	7.28
490.179	7.34
490.613	7.4
491.046	7.47
491.48	7.54
491.914	7.61
492.348	7.68
492.781	7.77
493.215	7.85
493.648	7.94
494.082	8.03
494.515	8.11
494.948	8.21
495.382	8.3
495.815	8.41
496.248	8.53
496.681	8.65
497.114	8.77
497.547	8.89
497.98	9.01
498.413	9.15
498.846	9.29
499.279	9.44
499.711	9.59
500.144	9.75
500.577	9.92
501.009	10.07
501.442	10.24
501.874	10.43
502.306	10.61
502.739	10.81
503.171	11.01
503.603	11.2
504.036	11.41
504.468	11.62
504.9	11.83
505.332	12.06
505.764	12.3
506.196	12.54
506.627	12.78
507.059	13.04
507.491	13.28
507.923	13.55
508.354	13.83
508.786	14.1
509.217	14.38
509.649	14.67
510.08	14.95
510.512	15.24
510.943	15.53
511.374	15.81
511.805	16.1
512.237	16.4
512.668	16.69
513.099	16.97
513.53	17.28
513.961	17.58
514.391	17.89
514.822	18.19
515.253	18.48
515.684	18.78
516.114	19.08
516.545	19.37
516.975	19.65
517.406	19.94
517.836	20.23
518.267	20.52
518.697	20.81
519.127	21.07
519.558	21.35
519.988	21.63
520.418	21.89
520.848	22.15
521.278	22.41
521.708	22.82
522.138	23.07
522.567	23.29
522.997	23.51
523.427	23.73
523.857	23.95
524.286	24.15
524.716	24.33
525.145	24.52
525.575	24.72
526.004	24.9
526.433	24.91
526.863	25.08
527.292	25.25
527.721	25.41
528.15	25.54
528.579	25.68
529.008	25.82
529.437	25.95
529.866	26.06
530.295	26.17
530.724	26.29
531.152	26.41
531.581	26.51
532.01	26.6
532.438	26.69
532.867	26.8
533.295	26.88
533.723	26.96
534.152	27.03
534.58	27.11
535.008	27.17
535.436	27.21
535.865	27.26
536.293	27.31
536.721	27.37
537.149	27.41
537.576	27.44
538.004	27.5
538.432	27.52
538.86	27.55
539.287	27.56
539.715	27.62
540.143	27.65
540.57	27.67
540.998	27.68
541.425	27.72
541.852	27.75
542.28	27.78
542.707	27.79
543.134	27.82
543.561	27.86
543.988	27.89
544.415	27.88
544.842	27.9
545.269	27.93
545.696	27.96
546.123	27.96
546.549	27.95
546.976	27.98
547.403	27.99
547.829	28
548.256	28.02
548.682	28.02
549.108	28.05
549.535	28.08
549.961	28.09
550.387	28.09
550.813	28.11
551.24	28.13
551.666	28.14
552.092	28.14
552.518	28.12
552.943	28.1
553.369	28.11
553.795	28.09
554.221	28.07
554.646	28.04
555.072	28.01
555.498	27.98
555.923	27.94
556.349	27.88
556.774	27.83
557.199	27.79
557.625	27.74
558.05	27.69
558.475	27.64
558.9	27.58
559.325	27.54
559.75	27.47
560.175	27.39
560.6	27.31
561.025	27.25
561.449	27.17
561.874	27.09
562.299	27
562.723	26.92
563.148	26.81
563.572	26.69
563.997	26.58
564.421	26.48
564.846	26.37
565.27	26.27
565.694	26.15
566.118	26.03
566.542	25.91
566.966	25.79
567.39	25.66
567.814	25.54
568.238	25.42
568.662	25.3
569.086	25.18
569.509	25.08
569.933	24.95
570.357	24.83
570.78	24.71
571.204	24.59
571.627	24.48
572.05	24.37
572.474	24.25
572.897	24.15
573.32	24.02
573.743	23.9
574.166	23.79
574.589	23.68
575.012	23.57
575.435	23.47
575.858	23.37
576.281	23.27
576.704	23.17
577.126	23.08
577.549	22.98
577.972	22.89
578.394	22.8
578.817	22.71
579.239	22.62
579.661	22.55
580.084	22.47
580.506	22.39
580.928	22.31
581.35	22.23
581.772	22.15
582.194	22.09
582.616	22.02
583.038	21.94
583.46	21.87
583.882	21.8
584.303	21.73
584.725	21.66
585.147	21.6
585.568	21.54
585.99	21.48
586.411	21.41
586.833	21.34
587.254	21.29
587.675	21.24
588.096	21.19
588.518	21.14
588.939	21.1
589.36	21.04
589.781	21
590.202	20.95
590.623	20.91
591.043	20.86
591.464	20.83
591.885	20.78
592.305	20.75
592.726	20.73
593.147	20.71
593.567	20.68
593.987	20.64
594.408	20.61
594.828	20.57
595.248	20.55
595.669	20.53
596.089	20.49
596.509	20.46
596.929	20.43
597.349	20.39
597.769	20.36
598.189	20.32
598.608	20.3
599.028	20.28
599.448	20.25
599.867	20.2
600.287	20.15
600.706	20.12
601.126	20.08
601.545	20.04
601.965	20.01
602.384	19.95
602.803	19.89
603.222	19.83
603.641	19.77
604.061	19.71
604.48	19.65
604.898	19.59
605.317	19.51
605.736	19.45
606.155	19.36
606.574	19.27
606.992	19.19
607.411	19.12
607.829	19.01
608.248	18.91
608.666	18.82
609.085	18.74
609.503	18.66
609.921	18.58
610.339	18.49
610.758	18.41
611.176	18.32
611.594	18.24
612.012	18.15
612.43	18.09
612.847	18.03
613.265	17.94
613.683	17.86
614.101	17.76
614.518	17.67
614.936	17.59
615.353	17.51
615.771	17.44
616.188	17.37
616.606	17.3
617.023	17.23
617.44	17.17
617.857	17.11
618.274	17.04
618.691	16.97
619.108	16.92
619.525	16.87
619.942	16.83
620.359	16.78
620.776	16.74
621.192	16.7
621.609	16.66
622.026	16.61
622.442	16.58
622.859	16.56
623.275	16.55
623.691	16.53
624.108	16.5
624.524	16.47
624.94	16.46
625.356	16.44
625.772	16.42
626.188	16.42
626.604	16.41
627.02	16.4
627.436	16.4
627.852	16.39
628.268	16.37
628.683	16.36
629.099	16.36
629.514	16.34
629.93	16.33
630.345	16.32
630.761	16.27
631.176	16.25
631.591	16.21
632.007	16.16
632.422	16.12
632.837	16.08
633.252	16.03
633.667	15.95
634.082	15.87
634.497	15.8
634.911	15.71
635.326	15.62
635.741	15.53
636.155	15.43
636.57	15.34
636.984	15.23
637.399	15.12
637.813	15
638.228	14.87
638.642	14.75
639.056	14.62
639.47	14.5
639.884	14.37
640.298	14.24
640.712	14.11
641.126	13.97
641.54	13.83
641.954	13.68
642.368	13.54
642.781	13.4
643.195	13.26
643.609	13.11
644.022	12.96
644.436	12.84
644.849	12.7
645.262	12.57
645.676	12.45
646.089	12.34
646.502	12.24
646.915	12.14
647.328	12.05
647.741	11.96
648.154	11.88
648.567	11.81
648.98	11.72
649.393	11.66
649.805	11.59
650.218	11.53
650.631	11.47
651.043	11.4
651.456	11.33
651.868	11.25
652.28	11.19
652.693	11.12
653.105	11.05
653.517	10.97
653.929	10.88
654.341	10.79
654.753	10.68
655.165	10.57
655.577	10.48
655.989	10.38
656.401	10.27
656.813	10.16
657.224	10.03
657.636	9.9
658.047	9.78
658.459	9.66
658.87	9.53
659.282	9.38
659.693	9.26
660.104	9.1
660.515	8.96
660.926	8.82
661.338	8.68
661.749	8.55
662.159	8.43
662.57	8.3
662.981	8.18
663.392	8.06
663.803	7.95
664.213	7.84
664.624	7.74
665.035	7.65
665.445	7.55
665.855	7.46
666.266	7.38
666.676	7.3
667.086	7.22
667.497	7.14
667.907	7.09
668.317	7.04
668.727	7
669.137	6.95
669.547	6.91
669.956	6.88
670.366	6.85
670.776	6.83
671.186	6.81
671.595	6.79
672.005	6.77
672.414	6.75
672.824	6.74
673.233	6.73
673.642	6.74
674.052	6.74
674.461	6.75
674.87	6.76
675.279	6.77
675.688	6.8
676.097	6.82
676.506	6.86
676.915	6.9
677.323	6.93
677.732	6.97
678.141	7.02
678.549	7.07
678.958	7.13
679.366	7.21
679.775	7.28
680.183	7.38
680.592	7.5
681	7.63
681.408	7.77
681.816	7.95
682.224	8.14
682.632	8.33
683.04	8.55
683.448	8.81
683.856	9.07
684.264	9.37
684.671	9.68
685.079	10.01
685.487	10.39
685.894	10.79
686.302	11.2
686.709	11.63
687.116	12.1
687.524	12.58
687.931	13.09
688.338	13.63
688.745	14.17
689.152	14.72
689.559	15.31
689.966	15.88
690.373	16.45
690.78	17.04
691.187	17.64
691.593	18.24
692	18.84
692.407	19.41
692.813	19.99
693.22	20.56
693.626	21.14
694.032	21.69
694.439	22.24
694.845	22.79
695.251	23.32
695.657	23.84
696.063	24.35
696.469	24.86
696.875	25.38
697.281	25.87
697.687	26.35
698.093	26.81
698.498	27.24
698.904	27.68
699.31	28.11
699.715	28.51
700.12	28.92
700.526	29.31
700.931	29.68
701.337	30.03
701.742	30.35
702.147	30.69
702.552	31.02
702.957	31.33
703.362	31.64
703.767	31.92
704.172	32.21
704.577	32.48
704.981	32.75
705.386	33.01
705.791	33.27
706.195	33.56
706.6	33.81
707.004	34.03
707.408	34.27
707.813	34.53
708.217	34.76
708.621	35
709.025	35.21
709.43	35.42
709.834	35.62
710.237	35.81
710.641	36
711.045	36.17
711.449	36.39
711.853	36.59
712.256	36.75
712.66	36.91
713.064	37.05
713.467	37.2
713.87	37.37
714.274	37.5
714.677	37.67
715.08	37.78
715.484	37.94
715.887	38.09
716.29	38.19
716.693	38.32
717.096	38.45
717.499	38.6
717.901	38.74
718.304	38.85
718.707	38.99
719.109	39.1
719.512	39.21
719.915	39.34
720.317	39.42
720.719	39.52
721.122	39.62
721.524	39.73
721.926	39.82
722.328	39.92
722.731	40
723.133	40.1
723.535	40.18
723.937	40.28
724.338	40.33
724.74	40.41
725.142	40.6
725.544	40.65
725.945	40.76
726.347	40.82
726.748	40.87
727.15	40.92
727.551	40.99
727.952	41.03
728.354	41.1
728.755	41.13
729.156	41.17
729.557	41.12
729.958	41.16
730.359	41.18
730.76	41.19
731.161	41.24
731.562	41.3
731.962	41.29
732.363	41.35
732.763	41.36
733.164	41.42
733.564	41.46
733.965	41.48
734.365	41.54
734.766	41.56
735.166	41.63
735.566	41.67
735.966	41.71
736.366	41.76
736.766	41.8
737.166	41.82
737.566	41.83
737.966	41.86
738.365	41.88
738.765	41.91
739.165	41.93
739.564	41.95
739.964	41.97
740.363	41.98
740.763	41.99
741.162	42.01
741.561	42.04
741.96	42.05
742.36	42.07
742.759	42.08
743.158	42.09
743.557	42.07
743.955	42.09
744.354	42.09
744.753	42.1
745.152	42.15
745.55	42.15
745.949	42.16
746.348	42.2
746.746	42.21
747.144	42.22
747.543	42.24
747.941	42.28
748.339	42.26
748.737	42.26
749.136	42.23
749.534	42.2
749.932	42.2
750.33	42.18
750.727	42.16
751.125	42.15
751.523	42.13
751.921	42.14
752.318	42.13
752.716	42.14
753.113	42.15
753.511	42.18
753.908	42.2
754.305	42.21
754.703	42.22
755.1	42.22
755.497	42.24
755.894	42.24
756.291	42.24
756.688	42.23
757.085	42.25
757.482	42.25
757.878	42.23
758.275	42.21
758.672	42.2
759.068	42.21
759.465	42.23
759.861	42.22
760.258	42.25
760.654	42.23
761.05	42.26
761.447	42.27
761.843	42.26
762.239	42.28
762.635	42.29
763.031	42.31
763.427	42.28
763.822	42.3
764.218	42.31
764.614	42.31
765.01	42.3
765.405	42.3
765.801	42.25
766.196	42.26
766.592	42.24
766.987	42.22
767.382	42.22
767.778	42.23
768.173	42.2
768.568	42.17
768.963	42.16
769.358	42.19
769.753	42.18
770.148	42.19
770.542	42.2
770.937	42.2
771.332	42.21
771.726	42.2
772.121	42.22
772.515	42.22
772.91	42.24
773.304	42.26
773.699	42.27
774.093	42.26
774.487	42.27
774.881	42.28
775.275	42.29
775.669	42.3
776.063	42.31
776.457	42.29
776.851	42.29
777.245	42.26
777.638	42.26
778.032	42.25
778.425	42.29
778.819	42.32
779.212	42.32
779.606	42.34
779.999	42.33
780.392	42.35
780.786	42.37
781.179	42.39
781.572	42.42
781.965	42.44
782.358	42.43
782.751	42.43
783.143	42.43
783.536	42.43
783.929	42.43
784.322	42.45
784.714	42.42
785.107	42.45
785.499	42.41
785.891	42.42
786.284	42.42
786.676	42.42
787.068	42.41
787.46	42.41
787.852	42.42
788.245	42.42
788.636	42.4
789.028	42.43
789.42	42.41
789.812	42.44
790.204	42.42
790.595	42.43
790.987	42.47
791.378	42.48
791.77	42.5
792.161	42.49
792.553	42.53
792.944	42.52
793.335	42.53
793.726	42.55
794.117	42.55
794.508	42.54
794.899	42.52
795.29	42.49
795.681	42.47
796.072	42.45
796.463	42.48
796.853	42.44
797.244	42.46
797.634	42.49
798.025	42.52
798.415	42.51
798.806	42.52
799.196	42.55
799.586	42.57
799.976	42.58
800.366	42.6
800.756	42.59
801.146	42.6
801.536	42.63
801.926	42.59
802.316	42.56
802.706	42.6
803.095	42.62
803.485	42.61
803.874	42.62
804.264	42.63
804.653	42.66
805.043	42.66
805.432	42.68
805.821	42.68
806.21	42.72
806.599	42.73
806.988	42.73
807.377	42.73
807.766	42.73
808.155	42.72
808.544	42.72
808.933	42.72
809.321	42.72
809.71	42.73
810.098	42.71
810.487	42.68
810.875	42.7
811.264	42.67
811.652	42.69
812.04	42.69
812.428	42.73
812.816	42.75
813.204	42.75
813.592	42.75
813.98	42.77
814.368	42.8
814.756	42.82
815.144	42.81
815.531	42.83
815.919	42.8
816.306	42.82
816.694	42.8
817.081	42.79
817.469	42.79
817.856	42.8
818.243	42.78
818.63	42.78
819.017	42.77
819.404	42.76
819.791	42.77
820.178	42.79
820.565	42.8
820.952	42.79
821.339	42.78
821.725	42.8
822.112	42.82
822.498	42.83
822.885	42.82
823.271	42.82
823.657	42.8
824.044	42.82
824.43	42.83
824.816	42.78
825.202	42.79
825.588	42.78
825.974	42.77
826.36	42.74
826.746	42.76
827.132	42.76
827.517	42.79
827.903	42.83
828.289	42.83
828.674	42.84
829.06	42.87
829.445	42.86
829.83	42.85
830.216	42.84
830.601	42.83
830.986	42.81
831.371	42.81
831.756	42.79
832.141	42.77
832.526	42.76
832.911	42.75
833.295	42.73
833.68	42.75
834.065	42.75
834.449	42.75
834.834	42.74
835.218	42.75
835.603	42.74
835.987	42.72
836.371	42.7
836.755	42.66
837.139	42.65
837.524	42.64
837.908	42.66
838.291	42.67
838.675	42.67
839.059	42.69
839.443	42.69
839.827	42.69
840.21	42.69
840.594	42.71
840.977	42.74
841.361	42.77
841.744	42.77
842.127	42.74
842.511	42.73
842.894	42.72
843.277	42.73
843.66	42.72
844.043	42.74
844.426	42.75
844.809	42.74
845.191	42.74
845.574	42.75
845.957	42.75
846.339	42.78
846.722	42.78
847.104	42.81
847.487	42.79
847.869	42.79
848.252	42.78
848.634	42.78
849.016	42.8
849.398	42.79
849.78	42.78
850.162	42.78
850.544	42.76
850.926	42.75
851.307	42.74
851.689	42.75
852.071	42.76
852.452	42.79
852.834	42.79
853.215	42.77
853.597	42.77
853.978	42.77
854.359	42.78
854.741	42.8
855.122	42.82
855.503	42.81
855.884	42.83
856.265	42.85
856.646	42.83
857.026	42.86
857.407	42.89
857.788	42.9
858.169	42.92
858.549	42.91
858.93	42.91
859.31	42.91
859.69	42.93
860.071	42.93
860.451	42.92
860.831	42.92
861.211	42.9
861.591	42.87
861.971	42.85
862.351	42.85
862.731	42.87
863.111	42.87
863.491	42.88
863.87	42.86
864.25	42.84
864.629	42.85
865.009	42.86
865.388	42.87
865.768	42.9
866.147	42.93
866.526	42.94
866.905	42.93
867.284	42.93
867.663	42.93
868.042	42.94
868.421	42.96
868.8	42.97
869.179	42.97
869.558	42.96
869.936	42.93
870.315	42.91
870.693	42.9
871.072	42.92
871.45	42.93
871.828	42.92
872.207	42.96
872.585	42.94
872.963	42.94
873.341	42.93
873.719	42.94
874.097	42.95
874.475	42.98
874.853	42.99
875.23	42.98
875.608	42.99
875.986	43.01
876.363	42.99
876.741	43.03
877.118	43.01
877.495	43.02
877.873	43.03
878.25	43.04
878.627	43.02
879.004	43.03
879.381	43.05
879.758	43.04
880.135	43.04
880.512	43.02
880.889	42.99
881.265	43.01
881.642	43
882.019	43
882.395	42.98
882.772	42.98
883.148	42.94
883.524	42.91
883.901	42.91
884.277	42.88
884.653	42.87
885.029	42.87
885.405	42.85
885.781	42.85
886.157	42.83
886.532	42.84
886.908	42.84
887.284	42.88
887.659	42.87
888.035	42.86
888.411	42.86
888.786	42.87
889.161	42.88
889.537	42.89
889.912	42.89
890.287	42.88
890.662	42.87
891.037	42.88
891.412	42.85
891.787	42.83
892.162	42.82
892.536	42.83
892.911	42.82
893.286	42.81
893.66	42.81
894.035	42.81
894.409	42.82
894.784	42.82
895.158	42.81
895.532	42.84
895.906	42.85
896.281	42.86
896.655	42.85
897.029	42.87
897.402	42.86
897.776	42.86
898.15	42.88
898.524	42.9
898.898	42.9
899.271	42.91
899.645	42.92
900.018	42.95
900.392	42.95
900.765	42.96
901.138	42.93
901.511	42.94
901.884	42.94
902.258	42.92
902.631	42.91
903.003	42.93
903.376	42.94
903.749	42.93
904.122	42.93
904.495	42.95
904.867	42.98
905.24	43.02
905.612	43.07
905.985	43.08
906.357	43.07
906.729	43.08
907.102	43.09
907.474	43.08
907.846	43.08
908.218	43.06
908.59	43.06
908.962	43.07
909.334	43.06
909.705	43.02
910.077	43.03
910.449	43.03
910.82	43.02
911.192	42.98
911.563	42.94
911.935	42.92
912.306	42.94
912.677	42.95
913.048	42.94
913.419	42.93
913.79	42.96
914.161	42.97
914.532	42.97
914.903	42.99
915.274	43
915.645	43.05
916.015	43.06
916.386	43.05
916.756	43.04
917.127	43.02
917.497	43.02
917.868	43.01
918.238	43
918.608	43.04
918.978	43.01
919.348	43.05
919.718	43.04
920.088	43.05
920.458	43.03
920.828	43.01
921.198	43.01
921.567	43
921.937	42.99
922.306	42.95
922.676	42.93
923.045	42.94
923.415	42.88
923.784	42.89
924.153	42.91
924.522	42.93
924.891	42.92
925.26	42.92
925.629	42.93
925.998	42.92
926.367	42.94
926.736	42.95
927.104	42.96
927.473	42.96
927.842	42.94
928.21	42.93
928.578	42.9
928.947	42.94
929.315	42.95
929.683	42.92
930.051	42.9
930.42	42.9
930.788	42.87
931.156	42.86
931.523	42.87
931.891	42.9
932.259	42.89
932.627	42.89
932.994	42.85
933.362	42.83
933.729	42.87
934.097	42.86
934.464	42.89
934.831	42.9
935.199	42.93
935.566	42.94
935.933	42.83
936.3	42.83
936.667	42.86
937.034	42.93
937.401	42.94
937.767	42.97
938.134	43.03
938.501	43.04
938.867	43.07
939.234	43.04
939.6	43.04
939.967	43.13
940.333	43.12
940.699	43.17
941.065	43.12
941.431	43.16
941.798	43.07
942.163	43.12
942.529	43.12
942.895	43.1
943.261	43.15
943.627	43.12
943.992	43.12
944.358	43.17
944.723	43.12
945.089	43.1
945.454	43.08
945.82	43.11
946.185	43.09
946.55	43.01
946.915	42.99
947.28	43
947.645	43.03
948.01	43.01
948.375	42.98
948.74	42.95
949.104	42.99
949.469	42.92
949.834	42.88
950.198	42.83
950.562	42.83
950.927	42.81
951.291	42.7
951.655	42.62
952.02	42.62
952.384	42.6
952.748	42.59
953.112	42.54
953.476	42.51
953.839	42.48
954.203	42.45
954.567	42.42
954.931	42.34
955.294	42.3
955.658	42.36
956.021	42.32
956.385	42.25
956.748	42.19
957.111	42.19
957.474	42.23
957.837	42.21
958.2	42.18
958.563	42.17
958.926	42.17
959.289	42.18
959.652	42.12
960.015	42.08
960.377	42.12
960.74	42.18
961.102	42.12
961.465	42.09
961.827	42.14
962.189	42.16
962.552	42.12
962.914	42.12
963.276	42.15
963.638	42.17
964	42.16
964.362	42.13
964.724	42.08
965.085	42.09
965.447	42.05
965.809	42.03
966.17	41.97
966.532	41.96
966.893	42.03
967.255	42.01
967.616	41.99
967.977	42
968.338	41.98
968.699	42
969.061	42
969.421	42
969.782	41.98
970.143	41.99
970.504	42.04
970.865	42
971.225	41.95
971.586	41.95
971.946	41.97
972.307	42
972.667	41.97
973.027	41.98
973.388	42
973.748	42.02
974.108	42.1
974.468	42.05
974.828	42.06
975.188	42.1
975.548	42.13
975.907	42.1
976.267	42.13
976.627	42.13
976.986	42.1
977.346	42.08
977.705	42.02
978.064	42.02
978.424	42.09
978.783	42.04
979.142	42.04
979.501	42.04
979.86	42.08
980.219	42.05
980.578	41.98
980.937	42.05
981.296	42.08
981.654	42.14
982.013	42.14
982.371	42.12
982.73	42.19
983.088	42.16
983.447	42.16
983.805	42.15
984.163	42.19
984.521	42.29
984.879	42.19
985.237	42.17
985.595	42.19
985.953	42.14
986.311	42.09
986.669	42.05
987.026	42.08
987.384	42.01
987.741	41.99
988.099	41.98
988.456	41.88
988.814	42.02
989.171	42.05
989.528	42.03
989.885	42.01
990.242	42.01
990.599	42.03
990.956	42.04
991.313	42.07
991.67	42.09
992.027	42.28
992.383	42.37
992.74	42.41
993.096	42.45
993.453	42.43
993.809	42.47
994.165	42.52
994.522	42.54
994.878	42.55
995.234	42.67
995.59	42.63
995.946	42.5
996.302	42.51
996.658	42.46
997.013	42.42
997.369	42.39
997.725	42.46
998.08	42.52
998.436	42.53
998.791	42.62
999.147	42.57
999.502	42.78
999.857	42.81
1000.212	42.8
1000.567	42.78
1000.922	42.79
1001.277	42.83
1001.632	42.81
1001.987	42.88
1002.342	42.77
1002.696	42.72
1003.051	42.84
1003.406	42.85
1003.76	42.84
1004.114	42.76
1004.469	42.88
1004.823	43.12
1005.177	43.21
1005.531	43.17
1005.885	43.12
1006.239	43.3
1006.593	43.47
1006.947	43.37
1007.301	43.2
1007.655	43.2
1008.008	43.35
1008.362	43.33
1008.715	43.2
1009.069	43.15
1009.422	43.32
1009.776	43.31
1010.129	43.43
1010.482	43.34
1010.835	43.53
1011.188	43.64
1011.541	43.78
1011.894	43.97
1012.247	43.96
1012.6	43.93
1012.952	44.03
1013.305	44.02
1013.657	44.03
1014.01	43.95
1014.362	43.97
1014.715	43.92
1015.067	44.12
1015.419	44.12
1015.771	44.06
1016.123	44.19
1016.475	44.22
1016.827	44.29
1017.179	44.49
1017.531	44.64
1017.883	44.63
1018.234	44.85
1018.586	44.98
1018.938	45.08
1019.289	44.99
1019.64	45.01
1019.992	44.87
1020.343	44.9
1020.694	44.93
1021.045	44.83
1021.396	44.83
1021.747	45.09
1022.098	45.12
1022.449	45.04
1022.8	45.09
1023.151	45.17
1023.501	45.27
1023.852	45.68
1024.202	45.76
1024.553	45.81
1024.903	45.92
1025.253	46
1025.604	46.1
1025.954	45.87
1026.304	45.85
1026.654	45.77
1027.004	45.77
1027.354	45.83
1027.703	45.51
1028.053	45.62
1028.403	45.87
1028.753	45.76
1029.102	45.89
1029.452	45.76
1029.801	46.05
1030.15	46.07
1030.499	45.91
897.758	1420.46
901.051	1431.22
904.343	1424.61
907.636	1451.12
910.928	1412.97
914.22	1415.72
917.511	1394.84
920.803	1337.07
924.094	1331.74
927.384	1299.41
930.675	1248.48
933.965	1243.43
937.255	1167.7
940.544	1122.47
943.834	1068.33
947.123	1060.02
950.411	994.53
953.7	976.54
956.988	920.3
960.276	885.06
963.563	871.57
966.851	836.97
970.138	829.47
973.424	804.63
976.711	808.04
979.997	768.31
983.283	762.51
986.568	746.64
989.853	726.09
993.138	713.82
996.423	686.63
999.708	666.38
1002.992	660.07
1006.275	631.95
1009.559	625.67
1012.842	603.69
1016.125	586.11
1019.408	576.01
1022.69	568.88
1025.972	555.39
1029.254	542.37
1032.536	532.89
1035.817	521.39
1039.098	514.74
1042.379	504.2
1045.659	497.83
1048.939	485.72
1052.219	478.08
1055.498	470.74
1058.778	459.61
1062.057	449.55
1065.335	444.89
1068.614	439.09
1071.892	435.01
1075.17	421.56
1078.447	413.13
1081.724	412.02
1085.001	408.58
1088.278	398.79
1091.554	391.37
1094.83	391.75
1098.106	388.76
1101.382	384.96
1104.657	382.41
1107.932	376.33
1111.206	378
1114.481	368.49
1117.755	363.87
1121.029	361.28
1124.302	361.6
1127.575	354.18
1130.848	349.82
1134.121	346.95
1137.393	345.55
1140.665	336.98
1143.937	335.34
1147.208	332.97
1150.48	332.39
1153.75	328.25
1157.021	323.6
1160.291	323.57
1163.561	320.66
1166.831	320.15
1170.101	317.31
1173.37	316.15
1176.639	318.12
1179.907	314.88
1183.176	311.17
1186.444	310.8
1189.711	310.45
1192.979	310.52
1196.246	308.05
1199.513	308.83
1202.78	307.17
1206.046	307.1
1209.312	304.05
1212.578	304.59
1215.843	306.9
1219.108	305.41
1222.373	311.49
1225.638	313.88
1228.902	317.55
1232.166	318.04
1235.43	320.91
1238.693	325.28
1241.956	326.76
1245.219	332.51
1248.482	332.29
1251.744	332.03
1255.006	334.06
1258.268	325.13
1261.529	322.05
1264.79	318.94
1268.051	316.91
1271.312	313.08
1274.572	308.81
1277.832	305.9
1281.092	301.11
1284.351	298.71
1287.61	298.74
1290.869	293.25
1294.128	292.06
1297.386	292.06
1300.644	289.5
1303.902	290.48
1307.159	289.52
1310.416	289.73
1313.673	289.49
1316.93	292.4
1320.186	292.6
1323.442	293.24
1326.697	299.01
1329.953	300
1333.208	300.4
1336.463	304.21
1339.717	304.62
1342.972	308.39
1346.226	310.92
1349.479	311.51
1352.733	312.69
1355.986	313.48
1359.238	313.34
1362.491	314.88
1365.743	317.74
1368.995	319.05
1372.247	318.47
1375.498	318.55
1378.749	320.88
1382	317.37
1385.251	318.41
1388.501	316.81
1391.751	319.17
1395	317.24
1398.25	314.59
1401.499	313.36
1404.748	312.49
1407.996	308.96
1411.244	307.76
1414.492	305.81
1417.74	303.04
1420.987	298.41
1424.234	297.78
1427.481	294.1
1430.728	294.26
1433.974	291.62
1437.22	289.2
1440.465	287.99
1443.711	285.97
1446.956	284.47
1450.201	279.77
1453.445	278.18
1456.689	277.97
1459.933	272.79
1463.177	270.12
1466.42	266.3
1469.663	262.75
1472.906	260.91
1476.148	254.69
1479.391	251.53
1482.633	249.01
1485.874	246.26
1489.115	244.09
1492.356	241.21
1495.597	241.44
1498.838	237.73
1502.078	236.18
1505.318	235.48
1508.557	234.76
1511.797	234.68
1515.036	233.63
1518.274	233.08
1521.513	230.6
1524.751	230.5
1527.989	229.66
1531.227	228.38
1534.464	228.9
1537.701	227.28
1540.938	226.52
1544.174	224.08
1547.41	223.89
1550.646	222.7
1553.882	222.66
1557.117	220.28
1560.352	218.48
1563.587	217.42
1566.821	215.97
1570.055	214.26
1573.289	212.3
1576.523	212.31
1579.756	210.71
1582.989	209.27
1586.222	209.65
1589.454	207.09
1592.686	209.04
1595.918	208.37
1599.15	207.8
1602.381	208.2
1605.612	207.56
1608.843	209.11
1612.073	208.31
1615.303	209.24
1618.533	209.5
1621.762	208.52
1624.992	209.83
1628.221	209.34
1631.449	208.99
1634.678	208.3
1637.906	208.8
1641.134	209.24
1644.361	208.53
1647.588	209.48
1650.815	208.77
1654.042	207.94
1657.269	209.44
1660.495	209.22
1663.72	208.44
1666.946	209.62
1670.171	210.5
1673.396	210.53
1676.621	210.51
1679.845	210.05
1683.069	210.26
1686.293	211.74
1689.517	212.94
1692.74	212.08
1695.963	213.22
1699.185	215.19
1702.408	214.87
1705.63	215.85
1708.852	216.2
1712.073	216.49
1715.294	217.72
1718.515	219.24
1721.736	218.59
1724.956	219.11
1728.176	219.37
1731.396	221.11
1734.616	220.25
1737.835	221.23
1741.054	219.63
1744.272	220.02
1747.491	222.33
1750.709	222.73
1753.927	221.8
1757.144	221.84
1760.361	222.67
1763.578	223.26
1766.795	222.63
1770.011	224.2
1773.227	224.55
1776.443	227.26
1779.658	228.34
1782.874	227.78
1786.089	228.38
1789.303	229.32
1792.518	232.07
1795.732	231.84
1798.945	234.05
1802.159	234.1
1805.372	234.6
1808.585	237.94
1811.797	239.18
1815.01	239.34
1818.222	240.84
1821.434	242.98
1824.645	244.11
1827.856	247.41
1831.067	249.31
1834.278	249.17
1837.488	250.71
1840.698	252.83
1843.908	250.63
1847.117	251.56
1850.326	253.34
1853.535	252.98
1856.744	256.85
1859.952	256.49
1863.16	254.94
1866.368	253.19
1869.575	256.02
1872.782	252.05
1875.989	251.14
1879.196	250.2
1882.402	248.2
1885.608	248.87
1888.814	249.28
1892.019	248.77
1895.224	247.48
1898.429	246.42
1901.634	248.04
1904.838	247.9
1908.042	250.84
1911.246	251.35
1914.449	253.02
1917.652	253.73
1920.855	253.31
1924.058	252.96
1927.26	250.78
1930.462	252.18
1933.664	255.39
1936.865	253.55
1940.066	252.24
1943.267	251.36
1946.467	251.17
1949.668	252.82
1952.868	255.73
1956.067	255.84
1959.267	256.25
1962.466	257.35
1965.665	255.99
1968.863	256.4
1972.061	259.65
1975.259	262.86
1978.457	264.62
1981.654	267.23
1984.852	267.51
1988.048	266.54
1991.245	269.04
1994.441	271.91
1997.637	273.57
2000.833	279.64
2004.028	282.55
2007.223	284
2010.418	286.07
2013.613	291.87
2016.807	294.43
2020.001	297.07
2023.194	301.19
2026.388	308.61
2029.581	315.64
2032.774	319.08
2035.966	324.24
2039.158	325.04
2042.35	331.56
2045.542	335.14
2048.733	338.89
2051.924	343.74
2055.115	349.35
2058.306	350.71
2061.496	353.83
2064.686	352.66
2067.875	359.61
2071.065	361.54
2074.254	359.73
2077.442	364.35
2080.631	364.93
2083.819	368.79
2087.007	368.56
2090.195	373.56
2093.382	376.77
2096.569	373.92
2099.756	380.12
2102.942	379.67
2106.128	383.83
2109.314	392.41
2112.5	390.32
2115.685	399.64
2118.87	400.01
2122.055	409.55
2125.239	411.35
2128.424	417.1
2131.608	420.05
2134.791	426.29
2137.974	428.39
2141.157	428.13
2144.34	429.74
2147.523	437.31
2150.705	433.14
2153.887	437.25
2157.068	437.06
2160.25	433.44
2163.431	435.6
2166.611	440.5
2169.792	449.57
2172.972	453.78
2176.152	457.36
2179.331	463.38
2182.511	470.17
2185.69	475.88
2188.868	486.41
2192.047	486.99
2195.225	501.83
2198.403	514.04
2201.58	524.04
2204.758	531.73
2207.935	543.98
2211.111	554.46
2214.288	560.59
2217.464	562.31
2220.64	570.33
2223.815	577.47
2226.991	602.64
2230.166	602.33
2233.34	611.35
2236.515	622.9
2239.689	623.78
2242.863	625.92
2246.036	642.61
2249.209	638.77
2252.382	649.95
2255.555	668.25
2258.727	671.13
2261.9	671.51
2265.071	679.41
2268.243	691.12
2271.414	697.38
2274.585	712.45
2277.756	720.96
2280.926	726.47
2284.096	742.28
2287.266	758
2290.436	767.09
2293.605	783.49
2296.774	807.6
2299.942	833.18
2303.111	837.77
2306.279	856.93
2309.447	869.06
2312.614	891.01
2315.781	914.33
2318.948	958.29
2322.115	944.52
2325.281	990.68
2328.447	971.49
2331.613	1013.06
2334.779	1001.2
2337.944	1045.82
2341.109	1054.11
2344.274	1083.41
2347.438	1122.84
2350.602	1122.98
2353.766	1156.36
2356.929	1172.9
2360.092	1164.04
2363.255	1247.54
2366.418	1243.49
2369.58	1265.72
2372.742	1346.94
2375.904	1380.24
2379.066	1371.4
2382.227	1343.18
2385.388	1456.99
2388.548	1456.18
2391.709	1475.92
2394.869	1647.72
2398.029	1579.58
2401.188	1624.28
2404.347	1618.68
2407.506	1584.42
2410.665	1636.87
2413.823	1730.93
2416.981	1832.3
2420.139	1774.09
2423.296	1754.93
2426.453	1827.82
2429.61	1763.21
2432.767	1843.47
2435.923	1823.42
2439.079	1990.38
2442.235	2017.46
2445.391	1992.83
2448.546	1982.25
2451.701	1924.07
2454.855	1920.12
2458.009	2042.27
2461.163	2124.26
2464.317	2197.63
2467.471	2259.17
2470.624	2260.28
2473.777	2198.53
2476.929	2146.43
2480.082	2083.71
2483.234	2060.74
2486.385	2167.71
2489.537	2179.06
2492.688	2256.69
2495.839	2199.54
2498.989	2149.1
2502.14	2154.64
2505.29	2177.94
2508.439	2215.12
2511.589	2207.64
2514.738	2407.34
2517.887	2354.66
2521.035	2495.82
2524.183	2513.52
2527.331	2528.19
2530.479	2516.3
2533.627	2536.94
