Data from C_2_DEC_ON_6N_Splice17_13-17-10-226.txt Node
Date: Sat Mar 07 13:17:10 EST 2020
User: sa697716
Spectrometer: NQ5500242
Trigger mode: 0
Integration Time (sec): 1.450000E-1
Scans to average: 20
Nonlinearity correction enabled: false
Boxcar width: 5
Storing dark spectrum: false
XAxis mode: Wavelengths
Number of Pixels in Spectrum: 512
>>>>>Begin Spectral Data<<<<<
187.83	241.99
188.298	263.23
188.766	243.7
189.233	187.25
189.701	187.74
190.169	226.68
190.636	269.1
191.104	382.36
191.571	285.39
192.039	233.14
192.506	1.69
192.974	51.58
193.441	268.86
193.908	162.86
194.375	77.39
194.842	18.66
195.31	84.45
195.777	316.29
196.244	57.44
196.711	44.77
197.177	46.19
197.644	43.91
198.111	43.88
198.578	44.38
199.045	44.86
199.511	44.71
199.978	44.82
200.445	44.77
200.911	44.63
201.378	44.42
201.844	44.46
202.31	44.2
202.777	44.39
203.243	44.49
203.709	43.72
204.176	43.23
204.642	43.32
205.108	43.21
205.574	43.16
206.04	42.75
206.506	42.44
206.972	42.4
207.438	42.09
207.903	41.28
208.369	40.24
208.835	39.7
209.301	38.88
209.766	37.33
210.232	36.29
210.697	34.92
211.163	34
211.628	33.18
212.094	31.99
212.559	31.3
213.024	30.71
213.49	30.22
213.955	29.57
214.42	28.89
214.885	28.19
215.35	27.06
215.815	25.73
216.28	23.96
216.745	22
217.21	20.23
217.675	18.45
218.14	16.84
218.604	15.46
219.069	14.25
219.534	13.3
219.998	12.51
220.463	11.85
220.927	11.25
221.392	10.78
221.856	10.39
222.32	10.06
222.785	9.75
223.249	9.52
223.713	9.27
224.177	9.06
224.642	8.87
225.106	8.69
225.57	8.49
226.034	8.34
226.497	8.19
226.961	8.07
227.425	7.92
227.889	7.79
228.353	7.64
228.816	7.51
229.28	7.39
229.744	7.25
230.207	7.12
230.671	7.01
231.134	6.89
231.597	6.8
232.061	6.69
232.524	6.58
232.987	6.48
233.45	6.41
233.914	6.33
234.377	6.24
234.84	6.16
235.303	6.1
235.766	6.04
236.229	5.98
236.691	5.89
237.154	5.83
237.617	5.78
238.08	5.72
238.542	5.65
239.005	5.6
239.468	5.55
239.93	5.5
240.393	5.44
240.855	5.38
241.317	5.32
241.78	5.27
242.242	5.21
242.704	5.18
243.166	5.13
243.629	5.09
244.091	5.03
244.553	4.98
245.015	4.93
245.477	4.88
245.939	4.84
246.4	4.79
246.862	4.75
247.324	4.71
247.786	4.65
248.247	4.6
248.709	4.54
249.17	4.49
249.632	4.46
250.093	4.42
250.555	4.38
251.016	4.35
251.477	4.31
251.939	4.28
252.4	4.25
252.861	4.22
253.322	4.19
253.783	4.17
254.244	4.14
254.705	4.11
255.166	4.08
255.627	4.05
256.088	4.02
256.549	3.99
257.009	3.96
257.47	3.93
257.931	3.89
258.391	3.86
258.852	3.81
259.312	3.79
259.773	3.76
260.233	3.73
260.694	3.7
261.154	3.67
261.614	3.64
262.074	3.61
262.534	3.58
262.994	3.56
263.455	3.55
263.915	3.53
264.374	3.5
264.834	3.49
265.294	3.47
265.754	3.46
266.214	3.44
266.673	3.42
267.133	3.41
267.593	3.4
268.052	3.38
268.512	3.37
268.971	3.36
269.431	3.35
269.89	3.33
270.349	3.32
270.809	3.3
271.268	3.29
271.727	3.28
272.186	3.27
272.645	3.26
273.104	3.25
273.563	3.23
274.022	3.23
274.481	3.22
274.94	3.21
275.399	3.19
275.857	3.19
276.316	3.18
276.775	3.18
277.233	3.18
277.692	3.17
278.15	3.16
278.609	3.16
279.067	3.16
279.525	3.15
279.984	3.15
280.442	3.14
280.9	3.14
281.358	3.13
281.816	3.13
282.274	3.13
282.732	3.11
283.19	3.11
283.648	3.1
284.106	3.1
284.564	3.09
285.021	3.1
285.479	3.09
285.937	3.08
286.394	3.08
286.852	3.07
287.309	3.06
287.767	3.05
288.224	3.04
288.682	3.03
289.139	3.02
289.596	3
290.053	2.98
290.511	2.96
290.968	2.95
291.425	2.94
291.882	2.93
292.339	2.92
292.796	2.91
293.252	2.9
293.709	2.9
294.166	2.89
294.623	2.88
295.079	2.87
295.536	2.87
295.992	2.86
296.449	2.85
296.905	2.85
297.362	2.84
297.818	2.84
298.274	2.84
298.731	2.83
299.187	2.82
299.643	2.82
300.099	2.82
300.555	2.81
301.011	2.81
301.467	2.81
301.923	2.8
302.379	2.79
302.835	2.79
303.291	2.78
303.746	2.78
304.202	2.78
304.658	2.78
305.113	2.78
305.569	2.78
306.024	2.78
306.479	2.78
306.935	2.77
307.39	2.78
307.845	2.78
308.301	2.79
308.756	2.79
309.211	2.78
309.666	2.79
310.121	2.79
310.576	2.79
311.031	2.79
311.486	2.79
311.94	2.79
312.395	2.79
312.85	2.78
313.305	2.77
313.759	2.78
314.214	2.78
314.668	2.77
315.123	2.77
315.577	2.77
316.032	2.76
316.486	2.76
316.94	2.76
317.394	2.75
317.849	2.74
318.303	2.73
318.757	2.72
319.211	2.71
319.665	2.7
320.119	2.69
320.572	2.68
321.026	2.67
321.48	2.65
321.934	2.63
322.387	2.63
322.841	2.63
323.295	2.63
323.748	2.63
324.202	2.62
324.655	2.62
325.108	2.62
325.562	2.62
326.015	2.62
326.468	2.62
326.921	2.62
327.374	2.62
327.827	2.62
328.28	2.62
328.733	2.62
329.186	2.63
329.639	2.63
330.092	2.62
330.545	2.62
330.997	2.62
331.45	2.63
331.903	2.64
332.355	2.65
332.808	2.65
333.26	2.65
333.713	2.65
334.165	2.63
334.617	2.63
335.069	2.62
335.522	2.62
335.974	2.62
336.426	2.62
336.878	2.61
337.33	2.6
337.782	2.6
338.234	2.6
338.686	2.6
339.137	2.61
339.589	2.59
340.041	2.6
340.493	2.59
340.944	2.58
341.396	2.57
341.847	2.56
342.299	2.55
342.75	2.54
343.201	2.53
343.653	2.51
344.104	2.5
344.555	2.49
345.006	2.48
345.457	2.47
345.908	2.47
346.359	2.47
346.81	2.47
347.261	2.47
347.712	2.47
348.163	2.46
348.613	2.48
349.064	2.48
349.515	2.48
349.965	2.48
350.416	2.47
350.866	2.47
351.317	2.46
351.767	2.46
352.217	2.46
352.668	2.46
353.118	2.46
353.568	2.44
354.018	2.45
354.468	2.45
354.918	2.45
355.368	2.47
355.818	2.47
356.268	2.48
356.718	2.48
357.168	2.48
357.617	2.48
358.067	2.49
358.517	2.51
358.966	2.51
359.416	2.52
359.865	2.53
360.315	2.53
360.764	2.55
361.213	2.55
361.663	2.56
362.112	2.57
362.561	2.58
363.01	2.58
363.459	2.57
363.908	2.56
364.357	2.57
364.806	2.57
365.255	2.57
365.703	2.57
366.152	2.59
366.601	2.6
367.05	2.6
367.498	2.61
367.947	2.63
368.395	2.65
368.844	2.67
369.292	2.68
369.74	2.7
370.189	2.71
370.637	2.73
371.085	2.73
371.533	2.74
371.981	2.75
372.429	2.77
372.877	2.78
373.325	2.79
373.773	2.8
374.221	2.82
374.669	2.84
375.116	2.85
375.564	2.86
376.012	2.89
376.459	2.91
376.907	2.93
377.354	2.95
377.801	2.97
378.249	3
378.696	3.03
379.143	3.05
379.591	3.08
380.038	3.11
380.485	3.14
380.932	3.16
381.379	3.19
381.826	3.22
382.273	3.24
382.72	3.25
383.166	3.27
383.613	3.29
384.06	3.31
384.506	3.33
384.953	3.36
385.4	3.37
385.846	3.4
386.292	3.42
386.739	3.45
387.185	3.47
387.631	3.51
388.078	3.52
388.524	3.55
388.97	3.58
389.416	3.61
389.862	3.64
390.308	3.67
390.754	3.7
391.2	3.73
391.645	3.75
392.091	3.79
392.537	3.82
392.983	3.85
393.428	3.88
393.874	3.9
394.319	3.91
394.765	3.92
395.21	3.94
395.655	3.96
396.101	3.99
396.546	4.01
396.991	4.02
397.436	4.03
397.881	4.06
398.326	4.07
398.771	4.1
399.216	4.11
399.661	4.13
400.106	4.14
400.551	4.14
400.995	4.13
401.44	4.12
401.885	4.12
402.329	4.13
402.774	4.13
403.218	4.14
403.663	4.14
404.107	4.14
404.551	4.14
404.995	4.14
405.44	4.14
405.884	4.14
406.328	4.16
406.772	4.16
407.216	4.16
407.66	4.15
408.104	4.14
408.547	4.14
408.991	4.15
409.435	4.14
409.879	4.14
410.322	4.15
410.766	4.17
411.209	4.18
411.653	4.2
412.096	4.21
412.54	4.22
412.983	4.23
413.426	4.27
413.869	4.28
414.312	4.3
414.756	4.32
415.199	4.31
415.642	4.3
416.085	4.29
416.527	4.27
416.97	4.25
417.413	4.24
417.856	4.23
418.298	4.21
418.741	4.21
419.184	4.2
419.626	4.19
420.069	4.2
420.511	4.2
420.953	4.2
421.396	4.21
421.838	4.22
422.28	4.23
422.722	4.25
423.164	4.24
423.606	4.23
424.048	4.22
424.49	4.21
424.932	4.21
425.374	4.2
425.816	4.17
426.258	4.16
426.699	4.14
427.141	4.11
427.582	4.12
428.024	4.13
428.465	4.14
428.907	4.13
429.348	4.12
429.789	4.12
430.231	4.15
430.672	4.18
431.113	4.2
431.554	4.23
431.995	4.25
432.436	4.26
432.877	4.27
433.318	4.28
433.759	4.31
434.2	4.34
434.64	4.36
435.081	4.36
435.522	4.37
435.962	4.38
436.403	4.41
436.843	4.43
437.284	4.43
437.724	4.43
438.164	4.42
438.604	4.44
439.045	4.46
439.485	4.48
439.925	4.49
440.365	4.51
440.805	4.52
441.245	4.53
441.685	4.55
442.125	4.57
442.564	4.59
443.004	4.6
443.444	4.62
443.883	4.62
444.323	4.62
444.762	4.64
445.202	4.65
445.641	4.66
446.081	4.68
446.52	4.67
446.959	4.71
447.398	4.74
447.837	4.77
448.276	4.78
448.716	4.79
449.154	4.83
449.593	4.84
450.032	4.85
450.471	4.84
450.91	4.84
451.349	4.88
451.787	4.87
452.226	4.85
452.664	4.85
453.103	4.85
453.541	4.87
453.98	4.87
454.418	4.86
454.856	4.86
455.295	4.85
455.733	4.84
456.171	4.83
456.609	4.82
457.047	4.82
457.485	4.82
457.923	4.82
458.361	4.81
458.798	4.8
459.236	4.8
459.674	4.8
460.111	4.8
460.549	4.81
460.987	4.82
461.424	4.83
461.862	4.84
462.299	4.83
462.736	4.83
463.173	4.84
463.611	4.85
464.048	4.87
464.485	4.88
464.922	4.88
465.359	4.88
465.796	4.89
466.233	4.89
466.67	4.89
467.106	4.9
467.543	4.91
467.98	4.9
468.416	4.88
468.853	4.87
469.29	4.87
469.726	4.87
470.162	4.87
470.599	4.86
471.035	4.85
471.471	4.84
471.907	4.84
472.344	4.84
472.78	4.84
473.216	4.84
473.652	4.84
474.088	4.82
474.523	4.82
474.959	4.81
475.395	4.79
475.831	4.78
476.266	4.77
476.702	4.77
477.138	4.77
477.573	4.76
478.008	4.76
478.444	4.75
478.879	4.77
479.314	4.76
479.75	4.77
480.185	4.76
480.62	4.76
481.055	4.75
481.49	4.74
481.925	4.74
482.36	4.76
482.795	4.76
483.229	4.75
483.664	4.76
484.099	4.76
484.534	4.75
484.968	4.76
485.403	4.78
485.837	4.79
486.271	4.81
486.706	4.82
487.14	4.82
487.574	4.84
488.009	4.87
488.443	4.89
488.877	4.93
489.311	4.96
489.745	5
490.179	5.04
490.613	5.08
491.046	5.12
491.48	5.16
491.914	5.21
492.348	5.26
492.781	5.32
493.215	5.37
493.648	5.43
494.082	5.49
494.515	5.55
494.948	5.61
495.382	5.67
495.815	5.76
496.248	5.84
496.681	5.92
497.114	6
497.547	6.09
497.98	6.18
498.413	6.27
498.846	6.37
499.279	6.47
499.711	6.57
500.144	6.69
500.577	6.8
501.009	6.92
501.442	7.04
501.874	7.19
502.306	7.31
502.739	7.46
503.171	7.62
503.603	7.78
504.036	7.94
504.468	8.11
504.9	8.27
505.332	8.44
505.764	8.62
506.196	8.8
506.627	8.98
507.059	9.18
507.491	9.36
507.923	9.56
508.354	9.78
508.786	10
509.217	10.24
509.649	10.48
510.08	10.73
510.512	10.97
510.943	11.21
511.374	11.47
511.805	11.73
512.237	11.99
512.668	12.25
513.099	12.52
513.53	12.78
513.961	13.05
514.391	13.32
514.822	13.6
515.253	13.89
515.684	14.17
516.114	14.47
516.545	14.76
516.975	15.06
517.406	15.35
517.836	15.65
518.267	15.95
518.697	16.23
519.127	16.51
519.558	16.79
519.988	17.07
520.418	17.35
520.848	17.61
521.278	17.87
521.708	18.2
522.138	18.45
522.567	18.69
522.997	18.91
523.427	19.16
523.857	19.41
524.286	19.62
524.716	19.84
525.145	20.07
525.575	20.29
526.004	20.49
526.433	20.62
526.863	20.82
527.292	21.04
527.721	21.23
528.15	21.4
528.579	21.55
529.008	21.72
529.437	21.87
529.866	22.01
530.295	22.16
530.724	22.29
531.152	22.42
531.581	22.55
532.01	22.65
532.438	22.76
532.867	22.87
533.295	22.98
533.723	23.05
534.152	23.15
534.58	23.23
535.008	23.28
535.436	23.35
535.865	23.41
536.293	23.47
536.721	23.53
537.149	23.59
537.576	23.63
538.004	23.68
538.432	23.75
538.86	23.79
539.287	23.83
539.715	23.9
540.143	23.95
540.57	23.97
540.998	24.01
541.425	24.04
541.852	24.07
542.28	24.1
542.707	24.13
543.134	24.16
543.561	24.19
543.988	24.22
544.415	24.23
544.842	24.24
545.269	24.28
545.696	24.3
546.123	24.32
546.549	24.36
546.976	24.39
547.403	24.39
547.829	24.42
548.256	24.42
548.682	24.42
549.108	24.45
549.535	24.47
549.961	24.48
550.387	24.49
550.813	24.49
551.24	24.49
551.666	24.48
552.092	24.48
552.518	24.48
552.943	24.47
553.369	24.47
553.795	24.45
554.221	24.42
554.646	24.39
555.072	24.36
555.498	24.31
555.923	24.26
556.349	24.2
556.774	24.14
557.199	24.06
557.625	24
558.05	23.9
558.475	23.82
558.9	23.72
559.325	23.64
559.75	23.54
560.175	23.46
560.6	23.35
561.025	23.24
561.449	23.11
561.874	22.99
562.299	22.87
562.723	22.74
563.148	22.6
563.572	22.46
563.997	22.32
564.421	22.16
564.846	22.01
565.27	21.87
565.694	21.72
566.118	21.58
566.542	21.44
566.966	21.29
567.39	21.15
567.814	21
568.238	20.86
568.662	20.72
569.086	20.58
569.509	20.43
569.933	20.29
570.357	20.15
570.78	20.01
571.204	19.87
571.627	19.73
572.05	19.58
572.474	19.47
572.897	19.34
573.32	19.21
573.743	19.09
574.166	18.97
574.589	18.85
575.012	18.73
575.435	18.62
575.858	18.52
576.281	18.42
576.704	18.33
577.126	18.22
577.549	18.13
577.972	18.03
578.394	17.93
578.817	17.85
579.239	17.75
579.661	17.68
580.084	17.59
580.506	17.51
580.928	17.43
581.35	17.36
581.772	17.28
582.194	17.2
582.616	17.13
583.038	17.06
583.46	16.97
583.882	16.91
584.303	16.82
584.725	16.75
585.147	16.69
585.568	16.63
585.99	16.54
586.411	16.46
586.833	16.39
587.254	16.32
587.675	16.25
588.096	16.19
588.518	16.12
588.939	16.07
589.36	16
589.781	15.93
590.202	15.88
590.623	15.84
591.043	15.79
591.464	15.75
591.885	15.69
592.305	15.65
592.726	15.62
593.147	15.58
593.567	15.54
593.987	15.49
594.408	15.45
594.828	15.41
595.248	15.37
595.669	15.33
596.089	15.29
596.509	15.25
596.929	15.22
597.349	15.17
597.769	15.13
598.189	15.09
598.608	15.07
599.028	15.03
599.448	14.98
599.867	14.94
600.287	14.9
600.706	14.86
601.126	14.82
601.545	14.78
601.965	14.74
602.384	14.68
602.803	14.63
603.222	14.57
603.641	14.52
604.061	14.47
604.48	14.42
604.898	14.36
605.317	14.31
605.736	14.26
606.155	14.21
606.574	14.16
606.992	14.11
607.411	14.06
607.829	13.99
608.248	13.93
608.666	13.87
609.085	13.81
609.503	13.75
609.921	13.69
610.339	13.63
610.758	13.57
611.176	13.49
611.594	13.42
612.012	13.34
612.43	13.3
612.847	13.24
613.265	13.18
613.683	13.12
614.101	13.05
614.518	12.98
614.936	12.91
615.353	12.83
615.771	12.79
616.188	12.73
616.606	12.68
617.023	12.63
617.44	12.58
617.857	12.53
618.274	12.47
618.691	12.42
619.108	12.38
619.525	12.34
619.942	12.32
620.359	12.28
620.776	12.25
621.192	12.22
621.609	12.2
622.026	12.18
622.442	12.15
622.859	12.14
623.275	12.11
623.691	12.11
624.108	12.1
624.524	12.08
624.94	12.06
625.356	12.06
625.772	12.06
626.188	12.05
626.604	12.03
627.02	12.03
627.436	12.02
627.852	12.02
628.268	12.01
628.683	11.99
629.099	11.98
629.514	11.96
629.93	11.94
630.345	11.91
630.761	11.87
631.176	11.84
631.591	11.78
632.007	11.74
632.422	11.68
632.837	11.61
633.252	11.55
633.667	11.47
634.082	11.39
634.497	11.3
634.911	11.2
635.326	11.1
635.741	11
636.155	10.89
636.57	10.77
636.984	10.65
637.399	10.52
637.813	10.38
638.228	10.24
638.642	10.09
639.056	9.94
639.47	9.8
639.884	9.66
640.298	9.51
640.712	9.37
641.126	9.23
641.54	9.09
641.954	8.94
642.368	8.82
642.781	8.69
643.195	8.57
643.609	8.45
644.022	8.33
644.436	8.22
644.849	8.1
645.262	8
645.676	7.89
646.089	7.79
646.502	7.72
646.915	7.64
647.328	7.57
647.741	7.5
648.154	7.45
648.567	7.4
648.98	7.36
649.393	7.32
649.805	7.29
650.218	7.27
650.631	7.25
651.043	7.21
651.456	7.2
651.868	7.18
652.28	7.16
652.693	7.14
653.105	7.12
653.517	7.1
653.929	7.07
654.341	7.03
654.753	7
655.165	6.96
655.577	6.92
655.989	6.87
656.401	6.82
656.813	6.77
657.224	6.7
657.636	6.64
658.047	6.57
658.459	6.51
658.87	6.46
659.282	6.38
659.693	6.32
660.104	6.25
660.515	6.19
660.926	6.11
661.338	6.04
661.749	5.98
662.159	5.92
662.57	5.86
662.981	5.79
663.392	5.73
663.803	5.68
664.213	5.62
664.624	5.57
665.035	5.53
665.445	5.49
665.855	5.46
666.266	5.43
666.676	5.4
667.086	5.38
667.497	5.35
667.907	5.35
668.317	5.33
668.727	5.32
669.137	5.32
669.547	5.3
669.956	5.29
670.366	5.28
670.776	5.28
671.186	5.28
671.595	5.29
672.005	5.29
672.414	5.3
672.824	5.31
673.233	5.32
673.642	5.34
674.052	5.37
674.461	5.4
674.87	5.42
675.279	5.47
675.688	5.5
676.097	5.54
676.506	5.58
676.915	5.62
677.323	5.67
677.732	5.72
678.141	5.78
678.549	5.84
678.958	5.91
679.366	5.99
679.775	6.07
680.183	6.17
680.592	6.28
681	6.39
681.408	6.52
681.816	6.65
682.224	6.81
682.632	6.96
683.04	7.14
683.448	7.33
683.856	7.52
684.264	7.75
684.671	7.99
685.079	8.26
685.487	8.55
685.894	8.87
686.302	9.21
686.709	9.57
687.116	9.98
687.524	10.39
687.931	10.84
688.338	11.32
688.745	11.82
689.152	12.33
689.559	12.87
689.966	13.42
690.373	14
690.78	14.58
691.187	15.18
691.593	15.79
692	16.43
692.407	17.05
692.813	17.7
693.22	18.33
693.626	19
694.032	19.65
694.439	20.3
694.845	20.96
695.251	21.62
695.657	22.28
696.063	22.92
696.469	23.56
696.875	24.2
697.281	24.81
697.687	25.45
698.093	26.07
698.498	26.66
698.904	27.25
699.31	27.83
699.715	28.42
700.12	28.96
700.526	29.52
700.931	30.06
701.337	30.6
701.742	31.12
702.147	31.62
702.552	32.12
702.957	32.6
703.362	33.08
703.767	33.53
704.172	33.96
704.577	34.4
704.981	34.83
705.386	35.24
705.791	35.65
706.195	36.06
706.6	36.46
707.004	36.84
707.408	37.22
707.813	37.59
708.217	37.94
708.621	38.3
709.025	38.64
709.43	38.96
709.834	39.31
710.237	39.63
710.641	39.92
711.045	40.23
711.449	40.55
711.853	40.88
712.256	41.17
712.66	41.47
713.064	41.74
713.467	42.04
713.87	42.35
714.274	42.6
714.677	42.88
715.08	43.15
715.484	43.39
715.887	43.64
716.29	43.86
716.693	44.11
717.096	44.34
717.499	44.59
717.901	44.83
718.304	45.06
718.707	45.29
719.109	45.52
719.512	45.72
719.915	45.96
720.317	46.16
720.719	46.33
721.122	46.51
721.524	46.71
721.926	46.87
722.328	47.02
722.731	47.18
723.133	47.34
723.535	47.48
723.937	47.65
724.338	47.76
724.74	47.89
725.142	48.14
725.544	48.28
725.945	48.43
726.347	48.56
726.748	48.67
727.15	48.76
727.551	48.89
727.952	48.97
728.354	49.07
728.755	49.16
729.156	49.25
729.557	49.27
729.958	49.33
730.359	49.41
730.76	49.51
731.161	49.61
731.562	49.72
731.962	49.76
732.363	49.85
732.763	49.93
733.164	50
733.564	50.07
733.965	50.11
734.365	50.19
734.766	50.23
735.166	50.26
735.566	50.31
735.966	50.35
736.366	50.41
736.766	50.42
737.166	50.47
737.566	50.51
737.966	50.55
738.365	50.6
738.765	50.64
739.165	50.68
739.564	50.73
739.964	50.76
740.363	50.76
740.763	50.79
741.162	50.85
741.561	50.84
741.96	50.84
742.36	50.88
742.759	50.9
743.158	50.88
743.557	50.89
743.955	50.91
744.354	50.94
744.753	50.99
745.152	51.02
745.55	51.05
745.949	51.09
746.348	51.13
746.746	51.1
747.144	51.12
747.543	51.17
747.941	51.21
748.339	51.17
748.737	51.17
749.136	51.17
749.534	51.14
749.932	51.13
750.33	51.12
750.727	51.15
751.125	51.16
751.523	51.15
751.921	51.15
752.318	51.14
752.716	51.18
753.113	51.2
753.511	51.21
753.908	51.25
754.305	51.27
754.703	51.28
755.1	51.27
755.497	51.29
755.894	51.31
756.291	51.3
756.688	51.29
757.085	51.3
757.482	51.28
757.878	51.29
758.275	51.28
758.672	51.27
759.068	51.28
759.465	51.27
759.861	51.26
760.258	51.26
760.654	51.26
761.05	51.29
761.447	51.29
761.843	51.29
762.239	51.27
762.635	51.26
763.031	51.26
763.427	51.23
763.822	51.25
764.218	51.24
764.614	51.22
765.01	51.2
765.405	51.18
765.801	51.14
766.196	51.12
766.592	51.12
766.987	51.1
767.382	51.07
767.778	51.07
768.173	51.06
768.568	51.08
768.963	51.06
769.358	51.06
769.753	51.05
770.148	51.06
770.542	51.09
770.937	51.09
771.332	51.09
771.726	51.1
772.121	51.09
772.515	51.09
772.91	51.07
773.304	51.1
773.699	51.11
774.093	51.08
774.487	51.09
774.881	51.08
775.275	51.06
775.669	51.06
776.063	51.09
776.457	51.09
776.851	51.05
777.245	51.03
777.638	51.01
778.032	51.01
778.425	51.05
778.819	51.03
779.212	51.04
779.606	51.03
779.999	51.02
780.392	51.03
780.786	51.05
781.179	51.09
781.572	51.13
781.965	51.1
782.358	51.1
782.751	51.08
783.143	51.11
783.536	51.07
783.929	51.09
784.322	51.12
784.714	51.1
785.107	51.09
785.499	51.06
785.891	51.04
786.284	51.08
786.676	51.11
787.068	51.08
787.46	51.09
787.852	51.12
788.245	51.11
788.636	51.07
789.028	51.08
789.42	51.09
789.812	51.11
790.204	51.13
790.595	51.11
790.987	51.13
791.378	51.18
791.77	51.17
792.161	51.15
792.553	51.17
792.944	51.18
793.335	51.19
793.726	51.2
794.117	51.17
794.508	51.13
794.899	51.11
795.29	51.06
795.681	51.04
796.072	51.03
796.463	51.07
796.853	51.07
797.244	51.06
797.634	51.04
798.025	51.05
798.415	51.07
798.806	51.07
799.196	51.09
799.586	51.14
799.976	51.14
800.366	51.17
800.756	51.16
801.146	51.16
801.536	51.18
801.926	51.18
802.316	51.14
802.706	51.16
803.095	51.19
803.485	51.2
803.874	51.18
804.264	51.17
804.653	51.14
805.043	51.13
805.432	51.14
805.821	51.17
806.21	51.18
806.599	51.19
806.988	51.2
807.377	51.19
807.766	51.19
808.155	51.18
808.544	51.19
808.933	51.18
809.321	51.18
809.71	51.18
810.098	51.15
810.487	51.14
810.875	51.14
811.264	51.12
811.652	51.13
812.04	51.12
812.428	51.16
812.816	51.14
813.204	51.14
813.592	51.12
813.98	51.13
814.368	51.13
814.756	51.16
815.144	51.13
815.531	51.12
815.919	51.1
816.306	51.11
816.694	51.1
817.081	51.12
817.469	51.14
817.856	51.13
818.243	51.09
818.63	51.06
819.017	51.03
819.404	51.05
819.791	51.06
820.178	51.07
820.565	51.05
820.952	51.03
821.339	51.01
821.725	51
822.112	51.04
822.498	51.05
822.885	51.09
823.271	51.1
823.657	51.07
824.044	51.08
824.43	51.08
824.816	51.08
825.202	51.07
825.588	51.07
825.974	51.08
826.36	51.07
826.746	51.08
827.132	51.06
827.517	51.07
827.903	51.09
828.289	51.1
828.674	51.09
829.06	51.09
829.445	51.07
829.83	51.07
830.216	51.06
830.601	51.07
830.986	51.06
831.371	51.06
831.756	51.04
832.141	51.05
832.526	51.06
832.911	51.06
833.295	51.08
833.68	51.12
834.065	51.14
834.449	51.15
834.834	51.13
835.218	51.16
835.603	51.16
835.987	51.16
836.371	51.14
836.755	51.13
837.139	51.13
837.524	51.13
837.908	51.14
838.291	51.13
838.675	51.13
839.059	51.14
839.443	51.11
839.827	51.12
840.21	51.09
840.594	51.12
840.977	51.11
841.361	51.09
841.744	51.05
842.127	51.01
842.511	50.97
842.894	50.94
843.277	50.93
843.66	50.92
844.043	50.92
844.426	50.94
844.809	50.93
845.191	50.92
845.574	50.94
845.957	50.95
846.339	50.99
846.722	51.02
847.104	51.06
847.487	51.06
847.869	51.06
848.252	51.06
848.634	51.05
849.016	51.06
849.398	51.07
849.78	51.06
850.162	51.06
850.544	51.06
850.926	51.05
851.307	51.02
851.689	51.03
852.071	51.04
852.452	51.04
852.834	51.05
853.215	51.03
853.597	51.03
853.978	51.06
854.359	51.07
854.741	51.05
855.122	51.06
855.503	51.05
855.884	51.04
856.265	51.02
856.646	51.02
857.026	51.05
857.407	51.06
857.788	51.05
858.169	51.04
858.549	51.02
858.93	51.05
859.31	51.05
859.69	51.08
860.071	51.1
860.451	51.12
860.831	51.12
861.211	51.07
861.591	51.06
861.971	51.04
862.351	51.06
862.731	51.07
863.111	51.05
863.491	51.04
863.87	51.05
864.25	51.03
864.629	51.02
865.009	51.01
865.388	51.04
865.768	51.06
866.147	51.06
866.526	51.05
866.905	51.04
867.284	51.05
867.663	51.05
868.042	51.05
868.421	51.08
868.8	51.09
869.179	51.1
869.558	51.09
869.936	51.09
870.315	51.1
870.693	51.11
871.072	51.12
871.45	51.13
871.828	51.14
872.207	51.14
872.585	51.11
872.963	51.11
873.341	51.11
873.719	51.11
874.097	51.1
874.475	51.12
874.853	51.12
875.23	51.13
875.608	51.13
875.986	51.15
876.363	51.14
876.741	51.16
877.118	51.17
877.495	51.19
877.873	51.22
878.25	51.23
878.627	51.25
879.004	51.24
879.381	51.26
879.758	51.23
880.135	51.23
880.512	51.22
880.889	51.2
881.265	51.17
881.642	51.16
882.019	51.16
882.395	51.14
882.772	51.12
883.148	51.08
883.524	51.05
883.901	51.06
884.277	51.04
884.653	51.03
885.029	51.02
885.405	51.03
885.781	51.03
886.157	51.02
886.532	51.02
886.908	50.98
887.284	51.01
887.659	51
888.035	50.98
888.411	50.96
888.786	50.98
889.161	50.98
889.537	50.96
889.912	50.94
890.287	50.93
890.662	50.93
891.037	50.96
891.412	50.93
891.787	50.91
892.162	50.93
892.536	50.93
892.911	50.89
893.286	50.88
893.66	50.87
894.035	50.87
894.409	50.85
894.784	50.84
895.158	50.81
895.532	50.84
895.906	50.84
896.281	50.82
896.655	50.84
897.029	50.87
897.402	50.88
897.776	50.91
898.15	50.91
898.524	50.95
898.898	50.95
899.271	50.97
899.645	50.96
900.018	50.98
900.392	51.01
900.765	51.01
901.138	50.99
901.511	50.98
901.884	50.97
902.258	50.98
902.631	50.98
903.003	51.01
903.376	51.02
903.749	51
904.122	51.03
904.495	51.02
904.867	51.01
905.24	51.06
905.612	51.09
905.985	51.08
906.357	51.08
906.729	51.07
907.102	51.06
907.474	51.08
907.846	51.1
908.218	51.08
908.59	51.1
908.962	51.11
909.334	51.1
909.705	51.08
910.077	51.11
910.449	51.14
910.82	51.14
911.192	51.13
911.563	51.09
911.935	51.09
912.306	51.1
912.677	51.12
913.048	51.16
913.419	51.16
913.79	51.17
914.161	51.17
914.532	51.14
914.903	51.13
915.274	51.14
915.645	51.13
916.015	51.15
916.386	51.16
916.756	51.15
917.127	51.12
917.497	51.12
917.868	51.13
918.238	51.13
918.608	51.17
918.978	51.21
919.348	51.24
919.718	51.27
920.088	51.26
920.458	51.26
920.828	51.23
921.198	51.22
921.567	51.21
921.937	51.23
922.306	51.22
922.676	51.2
923.045	51.18
923.415	51.13
923.784	51.09
924.153	51.1
924.522	51.09
924.891	51.09
925.26	51.08
925.629	51.08
925.998	51.06
926.367	51.06
926.736	51.06
927.104	51.03
927.473	51.02
927.842	51.01
928.21	51
928.578	50.98
928.947	51.02
929.315	51.02
929.683	51
930.051	50.95
930.42	50.96
930.788	50.94
931.156	50.97
931.523	50.97
931.891	51.01
932.259	51.03
932.627	51.02
932.994	51.02
933.362	50.99
933.729	51.01
934.097	51.03
934.464	51.04
934.831	51.05
935.199	51.07
935.566	51.09
935.933	51.02
936.3	50.99
936.667	50.99
937.034	51.02
937.401	51.03
937.767	51.05
938.134	51.06
938.501	51.06
938.867	51.06
939.234	51.02
939.6	51.01
939.967	51.04
940.333	51.06
940.699	51.11
941.065	51.01
941.431	51.01
941.798	50.94
942.163	50.95
942.529	50.88
942.895	50.85
943.261	50.83
943.627	50.82
943.992	50.83
944.358	50.78
944.723	50.7
945.089	50.67
945.454	50.63
945.82	50.66
946.185	50.68
946.55	50.61
946.915	50.64
947.28	50.61
947.645	50.62
948.01	50.65
948.375	50.65
948.74	50.67
949.104	50.7
949.469	50.66
949.834	50.63
950.198	50.58
950.562	50.57
950.927	50.51
951.291	50.46
951.655	50.4
952.02	50.33
952.384	50.26
952.748	50.25
953.112	50.21
953.476	50.18
953.839	50.16
954.203	50.12
954.567	50.11
954.931	50.11
955.294	50.11
955.658	50.16
956.021	50.13
956.385	50.09
956.748	50.05
957.111	50.03
957.474	50.06
957.837	49.98
958.2	49.97
958.563	49.96
958.926	49.99
959.289	50.02
959.652	49.99
960.015	50.01
960.377	50
960.74	50.04
961.102	50.01
961.465	50.01
961.827	50.12
962.189	50.19
962.552	50.21
962.914	50.15
963.276	50.16
963.638	50.11
964	50.1
964.362	50.2
964.724	50.18
965.085	50.18
965.447	50.16
965.809	50.15
966.17	50.09
966.532	50.09
966.893	50.14
967.255	50.13
967.616	50.18
967.977	50.19
968.338	50.13
968.699	50.14
969.061	50.15
969.421	50.21
969.782	50.25
970.143	50.28
970.504	50.29
970.865	50.28
971.225	50.28
971.586	50.25
971.946	50.2
972.307	50.19
972.667	50.19
973.027	50.27
973.388	50.24
973.748	50.18
974.108	50.22
974.468	50.17
974.828	50.16
975.188	50.14
975.548	50.12
975.907	50.19
976.267	50.21
976.627	50.17
976.986	50.07
977.346	50.07
977.705	50.02
978.064	49.96
978.424	50
978.783	50
979.142	49.98
979.501	50
979.86	50.02
980.219	50.05
980.578	50.12
980.937	50.16
981.296	50.12
981.654	50.19
982.013	50.2
982.371	50.2
982.73	50.17
983.088	50.18
983.447	50.19
983.805	50.16
984.163	50.14
984.521	50.1
984.879	50.07
985.237	50.13
985.595	50.16
985.953	50.16
986.311	50.11
986.669	50.1
987.026	50.15
987.384	50.18
987.741	50.12
988.099	50.15
988.456	50.17
988.814	50.26
989.171	50.19
989.528	50.07
989.885	50.08
990.242	50.1
990.599	50.14
990.956	50.11
991.313	50.1
991.67	50.14
992.027	50.21
992.383	50.21
992.74	50.26
993.096	50.3
993.453	50.37
993.809	50.37
994.165	50.44
994.522	50.44
994.878	50.5
995.234	50.52
995.59	50.56
995.946	50.52
996.302	50.6
996.658	50.56
997.013	50.47
997.369	50.57
997.725	50.7
998.08	50.71
998.436	50.67
998.791	50.7
999.147	50.65
999.502	50.63
999.857	50.58
1000.212	50.45
1000.567	50.35
1000.922	50.42
1001.277	50.3
1001.632	50.11
1001.987	50.11
1002.342	50.14
1002.696	50.08
1003.051	50.24
1003.406	50.37
1003.76	50.49
1004.114	50.52
1004.469	50.62
1004.823	50.85
1005.177	50.94
1005.531	51.08
1005.885	51.1
1006.239	51.14
1006.593	51.25
1006.947	51.28
1007.301	51.14
1007.655	50.94
1008.008	51.13
1008.362	51.15
1008.715	50.97
1009.069	51.01
1009.422	50.98
1009.776	50.86
1010.129	50.88
1010.482	50.88
1010.835	50.79
1011.188	50.85
1011.541	50.96
1011.894	50.79
1012.247	50.91
1012.6	50.89
1012.952	50.76
1013.305	50.87
1013.657	51.02
1014.01	51.14
1014.362	50.97
1014.715	50.94
1015.067	50.82
1015.419	50.82
1015.771	50.84
1016.123	50.71
1016.475	50.86
1016.827	50.93
1017.179	51.01
1017.531	51.04
1017.883	51
1018.234	51.23
1018.586	51.43
1018.938	51.7
1019.289	51.68
1019.64	51.75
1019.992	51.77
1020.343	51.71
1020.694	51.88
1021.045	51.63
1021.396	51.75
1021.747	51.8
1022.098	51.74
1022.449	51.54
1022.8	51.45
1023.151	51.62
1023.501	51.64
1023.852	51.65
1024.202	51.57
1024.553	51.3
1024.903	51.61
1025.253	51.54
1025.604	51.42
1025.954	51.19
1026.304	51.27
1026.654	51.34
1027.004	51.32
1027.354	51.29
1027.703	51.23
1028.053	51.31
1028.403	51.57
1028.753	51.11
1029.102	51.24
1029.452	51.33
1029.801	51.76
1030.15	51.73
1030.499	51.65
897.758	1332.97
901.051	1340.85
904.343	1338.72
907.636	1358.95
910.928	1320.76
914.22	1323.59
917.511	1303.01
920.803	1246.59
924.094	1242.32
927.384	1213.83
930.675	1166.68
933.965	1161.47
937.255	1092.77
940.544	1048.67
943.834	996.38
947.123	989.63
950.411	929.26
953.7	912.94
956.988	861.93
960.276	826.65
963.563	813.9
966.851	782.33
970.138	775.76
973.424	750.95
976.711	755.16
979.997	721.37
983.283	716.67
986.568	701.84
989.853	681.3
993.138	670.67
996.423	643.03
999.708	625.48
1002.992	619.25
1006.275	592.19
1009.559	587.79
1012.842	565.98
1016.125	550.77
1019.408	541.88
1022.69	534.71
1025.972	522.29
1029.254	510.29
1032.536	503.76
1035.817	491.66
1039.098	485.41
1042.379	475.92
1045.659	470.25
1048.939	459.72
1052.219	450.15
1055.498	442.52
1058.778	432.17
1062.057	422.84
1065.335	417.89
1068.614	412.73
1071.892	409.76
1075.17	395.41
1078.447	388.14
1081.724	385.46
1085.001	383.1
1088.278	375.48
1091.554	367.37
1094.83	368.5
1098.106	366.85
1101.382	362.85
1104.657	360.73
1107.932	354.8
1111.206	358.39
1114.481	348.78
1117.755	345.46
1121.029	341.87
1124.302	341.47
1127.575	336.59
1130.848	331.42
1134.121	327.16
1137.393	325.68
1140.665	319.2
1143.937	316.44
1147.208	314.39
1150.48	313.6
1153.75	309.99
1157.021	305.37
1160.291	305.35
1163.561	302.41
1166.831	302.11
1170.101	300.25
1173.37	300.12
1176.639	300.46
1179.907	298.22
1183.176	294.46
1186.444	295.09
1189.711	294.15
1192.979	293.5
1196.246	291.52
1199.513	292.03
1202.78	290.39
1206.046	290.37
1209.312	286.78
1212.578	286.87
1215.843	289.57
1219.108	288.44
1222.373	293.65
1225.638	295.77
1228.902	299.56
1232.166	300.21
1235.43	302.71
1238.693	306.76
1241.956	308.02
1245.219	313.74
1248.482	313.74
1251.744	313.08
1255.006	313.77
1258.268	305.71
1261.529	302.76
1264.79	301.62
1268.051	299.98
1271.312	296.23
1274.572	292.78
1277.832	290.28
1281.092	285.14
1284.351	282.98
1287.61	282.96
1290.869	278.71
1294.128	277.52
1297.386	278.05
1300.644	273.74
1303.902	274.53
1307.159	273.81
1310.416	273.61
1313.673	273.62
1316.93	276.71
1320.186	276.56
1323.442	277.03
1326.697	281.71
1329.953	281.9
1333.208	282.59
1336.463	286.4
1339.717	286.86
1342.972	288.81
1346.226	292.49
1349.479	292.5
1352.733	293.35
1355.986	295.63
1359.238	295.65
1362.491	296.98
1365.743	300.53
1368.995	299.7
1372.247	299.49
1375.498	299.28
1378.749	302.13
1382	297.19
1385.251	297.88
1388.501	296.85
1391.751	296.93
1395	295.74
1398.25	293.32
1401.499	291.66
1404.748	291.65
1407.996	289.71
1411.244	288.02
1414.492	286.07
1417.74	283.38
1420.987	278.86
1424.234	277.97
1427.481	274.03
1430.728	273.42
1433.974	270.89
1437.22	267.95
1440.465	267.27
1443.711	263.91
1446.956	262.26
1450.201	259.25
1453.445	256.63
1456.689	256.4
1459.933	251.51
1463.177	249.59
1466.42	245.61
1469.663	242.53
1472.906	241.11
1476.148	234.57
1479.391	232.27
1482.633	230.43
1485.874	226.49
1489.115	225.41
1492.356	222.6
1495.597	222.78
1498.838	219.45
1502.078	218.11
1505.318	217.5
1508.557	217.47
1511.797	217.61
1515.036	215.92
1518.274	215.37
1521.513	213.95
1524.751	213.71
1527.989	213.54
1531.227	211.94
1534.464	212.77
1537.701	211.44
1540.938	210.72
1544.174	208.39
1547.41	208.19
1550.646	206.91
1553.882	206.79
1557.117	204.41
1560.352	203.39
1563.587	202.38
1566.821	201.28
1570.055	199.37
1573.289	197.66
1576.523	197.69
1579.756	195.78
1582.989	194.79
1586.222	194.87
1589.454	193.64
1592.686	195.46
1595.918	194.2
1599.15	193.76
1602.381	194.22
1605.612	194.29
1608.843	195.17
1612.073	194.81
1615.303	196.52
1618.533	196.22
1621.762	196.31
1624.992	196.37
1628.221	195.87
1631.449	196.32
1634.678	195.31
1637.906	196.39
1641.134	195.93
1644.361	195.75
1647.588	196.4
1650.815	195.03
1654.042	194.78
1657.269	195.79
1660.495	195.94
1663.72	195.39
1666.946	195.97
1670.171	196.92
1673.396	196.25
1676.621	196.69
1679.845	197.26
1683.069	196.23
1686.293	198.11
1689.517	199.04
1692.74	198.69
1695.963	199.43
1699.185	201.3
1702.408	201.1
1705.63	201.76
1708.852	202.05
1712.073	202.75
1715.294	202.94
1718.515	204.56
1721.736	203.56
1724.956	204.02
1728.176	204.32
1731.396	205.79
1734.616	204.73
1737.835	205.72
1741.054	204.71
1744.272	205.49
1747.491	207.11
1750.709	207
1753.927	207.07
1757.144	206.83
1760.361	207.86
1763.578	207.72
1766.795	207.25
1770.011	209.33
1773.227	208.78
1776.443	211.21
1779.658	212.08
1782.874	211.29
1786.089	212.49
1789.303	213.22
1792.518	215.76
1795.732	215.81
1798.945	217.92
1802.159	218.13
1805.372	218.27
1808.585	222.58
1811.797	222.94
1815.01	223.68
1818.222	225.43
1821.434	227.14
1824.645	227.93
1827.856	231.79
1831.067	232.99
1834.278	232.93
1837.488	234.18
1840.698	235.87
1843.908	233.44
1847.117	235.01
1850.326	235.86
1853.535	235.09
1856.744	238.37
1859.952	237.87
1863.16	235.48
1866.368	234.21
1869.575	236.53
1872.782	232.94
1875.989	231.39
1879.196	230.45
1882.402	228.98
1885.608	229.09
1888.814	229.51
1892.019	228.02
1895.224	227.59
1898.429	226.99
1901.634	228.17
1904.838	228.15
1908.042	230.93
1911.246	232.22
1914.449	233.89
1917.652	233.33
1920.855	234.24
1924.058	233.65
1927.26	232.81
1930.462	234.04
1933.664	236.18
1936.865	234.67
1940.066	233.64
1943.267	232.38
1946.467	232.43
1949.668	233.81
1952.868	236.53
1956.067	235.86
1959.267	236.93
1962.466	237.54
1965.665	236.18
1968.863	237.01
1972.061	240.23
1975.259	242.92
1978.457	244.94
1981.654	246.65
1984.852	247.01
1988.048	246.43
1991.245	249.48
1994.441	251.7
1997.637	253.28
2000.833	258.55
2004.028	261.95
2007.223	262.93
2010.418	265.62
2013.613	270.07
2016.807	272.86
2020.001	275.19
2023.194	280
2026.388	285.33
2029.581	292.12
2032.774	295.51
2035.966	300.45
2039.158	300.74
2042.35	307.86
2045.542	308.78
2048.733	314.05
2051.924	317.74
2055.115	323.3
2058.306	323.32
2061.496	326.43
2064.686	326.23
2067.875	331.9
2071.065	333.48
2074.254	332.02
2077.442	335
2080.631	337.53
2083.819	340.29
2087.007	341.21
2090.195	345.36
2093.382	348.71
2096.569	346.58
2099.756	351.91
2102.942	352.64
2106.128	355.89
2109.314	365.16
2112.5	363.63
2115.685	371.52
2118.87	371.82
2122.055	379.01
2125.239	381.23
2128.424	385.77
2131.608	388.88
2134.791	393.57
2137.974	395.75
2141.157	396.32
2144.34	396.35
2147.523	403.3
2150.705	399.85
2153.887	404.08
2157.068	405.32
2160.25	403.06
2163.431	404.39
2166.611	409.86
2169.792	417.76
2172.972	422.37
2176.152	425.97
2179.331	431.49
2182.511	437.77
2185.69	442.48
2188.868	452.17
2192.047	452.66
2195.225	465.07
2198.403	477.65
2201.58	485.25
2204.758	494.15
2207.935	505.16
2211.111	513.04
2214.288	518.72
2217.464	520.19
2220.64	529.12
2223.815	535
2226.991	558.38
2230.166	559.46
2233.34	568.46
2236.515	576.37
2239.689	578.71
2242.863	580.01
2246.036	597.38
2249.209	593.17
2252.382	604.66
2255.555	622.7
2258.727	625.54
2261.9	627.63
2265.071	633.79
2268.243	644.47
2271.414	653.16
2274.585	666.57
2277.756	673.54
2280.926	680.58
2284.096	696.56
2287.266	711.15
2290.436	715.39
2293.605	732.1
2296.774	754.89
2299.942	778.63
2303.111	781.49
2306.279	801.04
2309.447	812.84
2312.614	833.02
2315.781	852.31
2318.948	893.23
2322.115	878.57
2325.281	929.38
2328.447	908.87
2331.613	942.42
2334.779	931.57
2337.944	974.59
2341.109	982.81
2344.274	1007.6
2347.438	1044.55
2350.602	1046.88
2353.766	1077.33
2356.929	1094.45
2360.092	1084.91
2363.255	1164.04
2366.418	1163.01
2369.58	1188.17
2372.742	1262
2375.904	1293.94
2379.066	1286.45
2382.227	1261.82
2385.388	1365.87
2388.548	1366.87
2391.709	1382.94
2394.869	1541
2398.029	1476.91
2401.188	1516.74
2404.347	1506.34
2407.506	1476.97
2410.665	1521.07
2413.823	1614.73
2416.981	1711.18
2420.139	1655.37
2423.296	1640.65
2426.453	1710.42
2429.61	1644.85
2432.767	1719.7
2435.923	1707.02
2439.079	1864.61
2442.235	1888.13
2445.391	1868.76
2448.546	1852.56
2451.701	1800.37
2454.855	1796.91
2458.009	1905
2461.163	1986.13
2464.317	2056.83
2467.471	2109.6
2470.624	2107.64
2473.777	2056.12
2476.929	2005.44
2480.082	1949.85
2483.234	1928.18
2486.385	2028.04
2489.537	2038.7
2492.688	2114.92
2495.839	2056.31
2498.989	2013.67
2502.14	2024.53
2505.29	2046.03
2508.439	2080.73
2511.589	2076.13
2514.738	2261.18
2517.887	2213.04
2521.035	2330.36
2524.183	2359.13
2527.331	2370.4
2530.479	2362.88
2533.627	2380.78
