Data from C_2_DIV_WI_4N_Splice17_13-21-50-090.txt Node
Date: Sat Mar 07 13:21:50 EST 2020
User: sa697716
Spectrometer: NQ5500242
Trigger mode: 0
Integration Time (sec): 1.450000E-1
Scans to average: 20
Nonlinearity correction enabled: false
Boxcar width: 5
Storing dark spectrum: false
XAxis mode: Wavelengths
Number of Pixels in Spectrum: 512
>>>>>Begin Spectral Data<<<<<
187.83	210.53
188.298	204.35
188.766	173.79
189.233	140.53
189.701	148.88
190.169	174.78
190.636	169.63
191.104	203.82
191.571	23.61
192.039	-323.24
192.506	-604.39
192.974	282.08
193.441	377.32
193.908	127.31
194.375	28.07
194.842	-26.73
195.31	-10.21
195.777	-257.57
196.244	16.24
196.711	38.03
197.177	43.48
197.644	43.46
198.111	43.55
198.578	44.19
199.045	44.81
199.511	45.75
199.978	45.93
200.445	46.25
200.911	46.28
201.378	46.5
201.844	46.72
202.31	46.05
202.777	46.34
203.243	46.54
203.709	46.15
204.176	45.82
204.642	45.11
205.108	44.91
205.574	44.35
206.04	43.96
206.506	43.43
206.972	43.24
207.438	42.75
207.903	41.95
208.369	40.92
208.835	40.01
209.301	39.21
209.766	38.26
210.232	37.35
210.697	36.25
211.163	35.45
211.628	34.78
212.094	33.65
212.559	33.17
213.024	32.52
213.49	31.87
213.955	31.25
214.42	30.47
214.885	29.65
215.35	28.55
215.815	27.33
216.28	25.46
216.745	23.45
217.21	21.45
217.675	19.55
218.14	17.87
218.604	16.42
219.069	15.25
219.534	14.26
219.998	13.41
220.463	12.69
220.927	12.05
221.392	11.59
221.856	11.16
222.32	10.83
222.785	10.49
223.249	10.25
223.713	10
224.177	9.78
224.642	9.57
225.106	9.36
225.57	9.2
226.034	9.05
226.497	8.86
226.961	8.72
227.425	8.58
227.889	8.46
228.353	8.31
228.816	8.18
229.28	8.03
229.744	7.9
230.207	7.77
230.671	7.64
231.134	7.51
231.597	7.42
232.061	7.31
232.524	7.2
232.987	7.1
233.45	7.01
233.914	6.91
234.377	6.83
234.84	6.74
235.303	6.68
235.766	6.62
236.229	6.55
236.691	6.47
237.154	6.39
237.617	6.34
238.08	6.27
238.542	6.2
239.005	6.16
239.468	6.1
239.93	6.06
240.393	6
240.855	5.92
241.317	5.87
241.78	5.82
242.242	5.76
242.704	5.7
243.166	5.64
243.629	5.6
244.091	5.53
244.553	5.48
245.015	5.42
245.477	5.37
245.939	5.32
246.4	5.27
246.862	5.22
247.324	5.17
247.786	5.12
248.247	5.08
248.709	5.02
249.17	4.96
249.632	4.93
250.093	4.89
250.555	4.85
251.016	4.81
251.477	4.77
251.939	4.74
252.4	4.7
252.861	4.66
253.322	4.64
253.783	4.6
254.244	4.58
254.705	4.53
255.166	4.48
255.627	4.44
256.088	4.42
256.549	4.39
257.009	4.35
257.47	4.32
257.931	4.27
258.391	4.23
258.852	4.19
259.312	4.16
259.773	4.13
260.233	4.11
260.694	4.07
261.154	4.03
261.614	4
262.074	3.97
262.534	3.93
262.994	3.91
263.455	3.89
263.915	3.87
264.374	3.84
264.834	3.82
265.294	3.8
265.754	3.78
266.214	3.77
266.673	3.75
267.133	3.73
267.593	3.72
268.052	3.71
268.512	3.7
268.971	3.69
269.431	3.68
269.89	3.67
270.349	3.66
270.809	3.64
271.268	3.63
271.727	3.62
272.186	3.61
272.645	3.61
273.104	3.59
273.563	3.57
274.022	3.57
274.481	3.55
274.94	3.54
275.399	3.53
275.857	3.52
276.316	3.51
276.775	3.5
277.233	3.5
277.692	3.48
278.15	3.47
278.609	3.47
279.067	3.46
279.525	3.46
279.984	3.45
280.442	3.44
280.9	3.44
281.358	3.43
281.816	3.43
282.274	3.42
282.732	3.41
283.19	3.4
283.648	3.4
284.106	3.39
284.564	3.38
285.021	3.39
285.479	3.38
285.937	3.38
286.394	3.38
286.852	3.36
287.309	3.36
287.767	3.35
288.224	3.34
288.682	3.32
289.139	3.3
289.596	3.29
290.053	3.26
290.511	3.24
290.968	3.23
291.425	3.21
291.882	3.2
292.339	3.18
292.796	3.17
293.252	3.16
293.709	3.15
294.166	3.15
294.623	3.14
295.079	3.13
295.536	3.12
295.992	3.11
296.449	3.1
296.905	3.1
297.362	3.09
297.818	3.08
298.274	3.08
298.731	3.07
299.187	3.06
299.643	3.05
300.099	3.04
300.555	3.03
301.011	3.02
301.467	3.02
301.923	3.01
302.379	3.01
302.835	3.01
303.291	3
303.746	3
304.202	3
304.658	3
305.113	3
305.569	3
306.024	3
306.479	3
306.935	2.99
307.39	2.99
307.845	3
308.301	3
308.756	3
309.211	3
309.666	3
310.121	3
310.576	3
311.031	3
311.486	3
311.94	3
312.395	2.99
312.85	2.99
313.305	2.98
313.759	2.99
314.214	2.99
314.668	2.98
315.123	2.98
315.577	2.98
316.032	2.97
316.486	2.96
316.94	2.96
317.394	2.95
317.849	2.94
318.303	2.93
318.757	2.91
319.211	2.91
319.665	2.89
320.119	2.88
320.572	2.87
321.026	2.86
321.48	2.85
321.934	2.84
322.387	2.84
322.841	2.84
323.295	2.84
323.748	2.84
324.202	2.84
324.655	2.84
325.108	2.85
325.562	2.85
326.015	2.85
326.468	2.85
326.921	2.85
327.374	2.84
327.827	2.84
328.28	2.83
328.733	2.84
329.186	2.84
329.639	2.84
330.092	2.83
330.545	2.84
330.997	2.83
331.45	2.84
331.903	2.85
332.355	2.86
332.808	2.86
333.26	2.86
333.713	2.85
334.165	2.86
334.617	2.87
335.069	2.87
335.522	2.87
335.974	2.87
336.426	2.87
336.878	2.85
337.33	2.85
337.782	2.85
338.234	2.85
338.686	2.85
339.137	2.85
339.589	2.83
340.041	2.82
340.493	2.81
340.944	2.8
341.396	2.79
341.847	2.78
342.299	2.77
342.75	2.77
343.201	2.75
343.653	2.74
344.104	2.73
344.555	2.73
345.006	2.72
345.457	2.72
345.908	2.72
346.359	2.72
346.81	2.72
347.261	2.72
347.712	2.72
348.163	2.72
348.613	2.73
349.064	2.73
349.515	2.72
349.965	2.72
350.416	2.71
350.866	2.71
351.317	2.71
351.767	2.7
352.217	2.7
352.668	2.7
353.118	2.7
353.568	2.69
354.018	2.69
354.468	2.7
354.918	2.7
355.368	2.7
355.818	2.71
356.268	2.71
356.718	2.71
357.168	2.71
357.617	2.72
358.067	2.71
358.517	2.73
358.966	2.74
359.416	2.74
359.865	2.74
360.315	2.76
360.764	2.77
361.213	2.76
361.663	2.76
362.112	2.77
362.561	2.77
363.01	2.77
363.459	2.76
363.908	2.76
364.357	2.76
364.806	2.76
365.255	2.76
365.703	2.77
366.152	2.77
366.601	2.78
367.05	2.78
367.498	2.79
367.947	2.79
368.395	2.8
368.844	2.8
369.292	2.81
369.74	2.82
370.189	2.83
370.637	2.82
371.085	2.83
371.533	2.83
371.981	2.84
372.429	2.85
372.877	2.87
373.325	2.87
373.773	2.88
374.221	2.88
374.669	2.89
375.116	2.88
375.564	2.9
376.012	2.91
376.459	2.93
376.907	2.95
377.354	2.96
377.801	2.97
378.249	2.99
378.696	3.01
379.143	3.02
379.591	3.04
380.038	3.07
380.485	3.08
380.932	3.1
381.379	3.11
381.826	3.13
382.273	3.14
382.72	3.15
383.166	3.17
383.613	3.19
384.06	3.2
384.506	3.22
384.953	3.24
385.4	3.26
385.846	3.29
386.292	3.31
386.739	3.33
387.185	3.36
387.631	3.39
388.078	3.41
388.524	3.43
388.97	3.46
389.416	3.49
389.862	3.52
390.308	3.55
390.754	3.58
391.2	3.61
391.645	3.65
392.091	3.69
392.537	3.72
392.983	3.76
393.428	3.79
393.874	3.82
394.319	3.85
394.765	3.88
395.21	3.9
395.655	3.93
396.101	3.96
396.546	3.98
396.991	4
397.436	4.02
397.881	4.06
398.326	4.1
398.771	4.13
399.216	4.16
399.661	4.19
400.106	4.22
400.551	4.25
400.995	4.26
401.44	4.28
401.885	4.31
402.329	4.33
402.774	4.35
403.218	4.38
403.663	4.39
404.107	4.4
404.551	4.41
404.995	4.42
405.44	4.43
405.884	4.45
406.328	4.47
406.772	4.48
407.216	4.5
407.66	4.5
408.104	4.5
408.547	4.51
408.991	4.53
409.435	4.54
409.879	4.56
410.322	4.58
410.766	4.61
411.209	4.63
411.653	4.66
412.096	4.68
412.54	4.69
412.983	4.71
413.426	4.75
413.869	4.77
414.312	4.8
414.756	4.83
415.199	4.83
415.642	4.83
416.085	4.84
416.527	4.82
416.97	4.81
417.413	4.82
417.856	4.82
418.298	4.81
418.741	4.82
419.184	4.82
419.626	4.81
420.069	4.82
420.511	4.83
420.953	4.84
421.396	4.86
421.838	4.88
422.28	4.89
422.722	4.92
423.164	4.91
423.606	4.91
424.048	4.9
424.49	4.92
424.932	4.91
425.374	4.88
425.816	4.86
426.258	4.84
426.699	4.82
427.141	4.8
427.582	4.79
428.024	4.8
428.465	4.8
428.907	4.79
429.348	4.78
429.789	4.77
430.231	4.81
430.672	4.83
431.113	4.85
431.554	4.87
431.995	4.89
432.436	4.9
432.877	4.9
433.318	4.92
433.759	4.94
434.2	4.96
434.64	4.98
435.081	4.98
435.522	5.01
435.962	5.03
436.403	5.07
436.843	5.09
437.284	5.09
437.724	5.1
438.164	5.1
438.604	5.12
439.045	5.13
439.485	5.14
439.925	5.15
440.365	5.16
440.805	5.16
441.245	5.16
441.685	5.17
442.125	5.21
442.564	5.24
443.004	5.26
443.444	5.28
443.883	5.3
444.323	5.32
444.762	5.34
445.202	5.37
445.641	5.4
446.081	5.43
446.52	5.46
446.959	5.51
447.398	5.55
447.837	5.57
448.276	5.6
448.716	5.63
449.154	5.67
449.593	5.69
450.032	5.7
450.471	5.71
450.91	5.72
451.349	5.74
451.787	5.74
452.226	5.74
452.664	5.75
453.103	5.74
453.541	5.76
453.98	5.78
454.418	5.76
454.856	5.77
455.295	5.76
455.733	5.74
456.171	5.73
456.609	5.72
457.047	5.7
457.485	5.69
457.923	5.7
458.361	5.69
458.798	5.66
459.236	5.68
459.674	5.68
460.111	5.67
460.549	5.7
460.987	5.71
461.424	5.71
461.862	5.73
462.299	5.73
462.736	5.73
463.173	5.74
463.611	5.76
464.048	5.76
464.485	5.76
464.922	5.77
465.359	5.76
465.796	5.78
466.233	5.78
466.67	5.79
467.106	5.8
467.543	5.79
467.98	5.78
468.416	5.76
468.853	5.77
469.29	5.76
469.726	5.76
470.162	5.76
470.599	5.74
471.035	5.74
471.471	5.73
471.907	5.72
472.344	5.72
472.78	5.73
473.216	5.72
473.652	5.72
474.088	5.72
474.523	5.73
474.959	5.73
475.395	5.72
475.831	5.7
476.266	5.71
476.702	5.71
477.138	5.7
477.573	5.7
478.008	5.71
478.444	5.71
478.879	5.71
479.314	5.7
479.75	5.7
480.185	5.69
480.62	5.69
481.055	5.69
481.49	5.69
481.925	5.69
482.36	5.7
482.795	5.69
483.229	5.68
483.664	5.69
484.099	5.69
484.534	5.7
484.968	5.72
485.403	5.73
485.837	5.75
486.271	5.76
486.706	5.78
487.14	5.8
487.574	5.82
488.009	5.86
488.443	5.89
488.877	5.93
489.311	5.96
489.745	5.99
490.179	6.04
490.613	6.09
491.046	6.14
491.48	6.19
491.914	6.25
492.348	6.3
492.781	6.37
493.215	6.43
493.648	6.5
494.082	6.56
494.515	6.63
494.948	6.7
495.382	6.78
495.815	6.86
496.248	6.94
496.681	7.04
497.114	7.14
497.547	7.23
497.98	7.34
498.413	7.44
498.846	7.56
499.279	7.67
499.711	7.79
500.144	7.91
500.577	8.04
501.009	8.17
501.442	8.31
501.874	8.45
502.306	8.59
502.739	8.75
503.171	8.91
503.603	9.07
504.036	9.25
504.468	9.42
504.9	9.6
505.332	9.78
505.764	9.98
506.196	10.16
506.627	10.37
507.059	10.58
507.491	10.77
507.923	10.98
508.354	11.22
508.786	11.45
509.217	11.69
509.649	11.94
510.08	12.19
510.512	12.44
510.943	12.7
511.374	12.96
511.805	13.23
512.237	13.49
512.668	13.76
513.099	14.03
513.53	14.31
513.961	14.59
514.391	14.87
514.822	15.16
515.253	15.44
515.684	15.71
516.114	16
516.545	16.28
516.975	16.57
517.406	16.86
517.836	17.14
518.267	17.43
518.697	17.7
519.127	17.97
519.558	18.23
519.988	18.5
520.418	18.77
520.848	19.04
521.278	19.3
521.708	19.7
522.138	19.96
522.567	20.2
522.997	20.43
523.427	20.66
523.857	20.89
524.286	21.11
524.716	21.33
525.145	21.54
525.575	21.74
526.004	21.93
526.433	21.97
526.863	22.15
527.292	22.33
527.721	22.5
528.15	22.65
528.579	22.8
529.008	22.95
529.437	23.08
529.866	23.21
530.295	23.32
530.724	23.46
531.152	23.56
531.581	23.69
532.01	23.8
532.438	23.9
532.867	24.01
533.295	24.09
533.723	24.17
534.152	24.26
534.58	24.35
535.008	24.42
535.436	24.47
535.865	24.53
536.293	24.57
536.721	24.63
537.149	24.69
537.576	24.73
538.004	24.79
538.432	24.83
538.86	24.87
539.287	24.88
539.715	24.93
540.143	24.96
540.57	25
540.998	25.01
541.425	25.04
541.852	25.06
542.28	25.1
542.707	25.11
543.134	25.13
543.561	25.16
543.988	25.2
544.415	25.21
544.842	25.23
545.269	25.25
545.696	25.29
546.123	25.32
546.549	25.34
546.976	25.35
547.403	25.39
547.829	25.41
548.256	25.42
548.682	25.42
549.108	25.45
549.535	25.48
549.961	25.48
550.387	25.46
550.813	25.46
551.24	25.45
551.666	25.45
552.092	25.43
552.518	25.43
552.943	25.43
553.369	25.43
553.795	25.39
554.221	25.37
554.646	25.34
555.072	25.31
555.498	25.25
555.923	25.21
556.349	25.15
556.774	25.1
557.199	25.04
557.625	24.98
558.05	24.91
558.475	24.84
558.9	24.77
559.325	24.71
559.75	24.65
560.175	24.58
560.6	24.5
561.025	24.42
561.449	24.33
561.874	24.22
562.299	24.13
562.723	24.03
563.148	23.92
563.572	23.79
563.997	23.67
564.421	23.54
564.846	23.41
565.27	23.29
565.694	23.16
566.118	23.04
566.542	22.92
566.966	22.77
567.39	22.64
567.814	22.51
568.238	22.38
568.662	22.25
569.086	22.12
569.509	21.99
569.933	21.88
570.357	21.75
570.78	21.61
571.204	21.48
571.627	21.37
572.05	21.24
572.474	21.13
572.897	21.02
573.32	20.9
573.743	20.78
574.166	20.66
574.589	20.54
575.012	20.41
575.435	20.31
575.858	20.21
576.281	20.1
576.704	20
577.126	19.89
577.549	19.78
577.972	19.68
578.394	19.59
578.817	19.5
579.239	19.41
579.661	19.34
580.084	19.26
580.506	19.17
580.928	19.08
581.35	18.99
581.772	18.93
582.194	18.86
582.616	18.8
583.038	18.72
583.46	18.65
583.882	18.58
584.303	18.51
584.725	18.45
585.147	18.39
585.568	18.35
585.99	18.29
586.411	18.22
586.833	18.15
587.254	18.09
587.675	18.03
588.096	17.98
588.518	17.93
588.939	17.88
589.36	17.82
589.781	17.76
590.202	17.71
590.623	17.67
591.043	17.63
591.464	17.59
591.885	17.54
592.305	17.51
592.726	17.48
593.147	17.43
593.567	17.39
593.987	17.36
594.408	17.31
594.828	17.28
595.248	17.23
595.669	17.2
596.089	17.17
596.509	17.14
596.929	17.11
597.349	17.07
597.769	17.04
598.189	16.98
598.608	16.95
599.028	16.93
599.448	16.88
599.867	16.84
600.287	16.8
600.706	16.76
601.126	16.72
601.545	16.69
601.965	16.65
602.384	16.62
602.803	16.58
603.222	16.55
603.641	16.49
604.061	16.44
604.48	16.4
604.898	16.33
605.317	16.28
605.736	16.21
606.155	16.16
606.574	16.08
606.992	16
607.411	15.93
607.829	15.83
608.248	15.76
608.666	15.69
609.085	15.62
609.503	15.56
609.921	15.48
610.339	15.41
610.758	15.33
611.176	15.25
611.594	15.18
612.012	15.09
612.43	15.04
612.847	14.96
613.265	14.89
613.683	14.82
614.101	14.74
614.518	14.66
614.936	14.58
615.353	14.51
615.771	14.46
616.188	14.39
616.606	14.34
617.023	14.29
617.44	14.23
617.857	14.19
618.274	14.12
618.691	14.07
619.108	14.03
619.525	13.99
619.942	13.95
620.359	13.9
620.776	13.86
621.192	13.82
621.609	13.79
622.026	13.76
622.442	13.73
622.859	13.71
623.275	13.68
623.691	13.67
624.108	13.66
624.524	13.63
624.94	13.62
625.356	13.61
625.772	13.59
626.188	13.58
626.604	13.56
627.02	13.53
627.436	13.51
627.852	13.5
628.268	13.5
628.683	13.48
629.099	13.47
629.514	13.46
629.93	13.44
630.345	13.42
630.761	13.39
631.176	13.37
631.591	13.34
632.007	13.31
632.422	13.25
632.837	13.19
633.252	13.14
633.667	13.06
634.082	12.99
634.497	12.92
634.911	12.83
635.326	12.74
635.741	12.65
636.155	12.55
636.57	12.45
636.984	12.36
637.399	12.24
637.813	12.12
638.228	12.01
638.642	11.87
639.056	11.73
639.47	11.61
639.884	11.5
640.298	11.36
640.712	11.24
641.126	11.11
641.54	10.97
641.954	10.84
642.368	10.72
642.781	10.61
643.195	10.49
643.609	10.37
644.022	10.25
644.436	10.13
644.849	10.02
645.262	9.91
645.676	9.8
646.089	9.71
646.502	9.62
646.915	9.54
647.328	9.46
647.741	9.39
648.154	9.33
648.567	9.27
648.98	9.22
649.393	9.17
649.805	9.13
650.218	9.09
650.631	9.05
651.043	9.01
651.456	8.97
651.868	8.91
652.28	8.86
652.693	8.82
653.105	8.76
653.517	8.71
653.929	8.66
654.341	8.59
654.753	8.53
655.165	8.46
655.577	8.38
655.989	8.31
656.401	8.23
656.813	8.16
657.224	8.06
657.636	7.97
658.047	7.88
658.459	7.78
658.87	7.69
659.282	7.58
659.693	7.48
660.104	7.38
660.515	7.28
660.926	7.18
661.338	7.07
661.749	6.98
662.159	6.9
662.57	6.81
662.981	6.73
663.392	6.64
663.803	6.56
664.213	6.48
664.624	6.41
665.035	6.34
665.445	6.28
665.855	6.22
666.266	6.18
666.676	6.13
667.086	6.08
667.497	6.03
667.907	5.99
668.317	5.97
668.727	5.94
669.137	5.92
669.547	5.9
669.956	5.87
670.366	5.87
670.776	5.85
671.186	5.85
671.595	5.86
672.005	5.86
672.414	5.88
672.824	5.88
673.233	5.89
673.642	5.91
674.052	5.93
674.461	5.95
674.87	5.97
675.279	6
675.688	6.03
676.097	6.05
676.506	6.09
676.915	6.12
677.323	6.17
677.732	6.21
678.141	6.26
678.549	6.31
678.958	6.38
679.366	6.45
679.775	6.52
680.183	6.61
680.592	6.72
681	6.83
681.408	6.95
681.816	7.08
682.224	7.22
682.632	7.38
683.04	7.55
683.448	7.73
683.856	7.94
684.264	8.16
684.671	8.38
685.079	8.63
685.487	8.91
685.894	9.21
686.302	9.53
686.709	9.9
687.116	10.27
687.524	10.67
687.931	11.09
688.338	11.52
688.745	11.98
689.152	12.45
689.559	12.95
689.966	13.45
690.373	13.99
690.78	14.52
691.187	15.03
691.593	15.57
692	16.13
692.407	16.67
692.813	17.24
693.22	17.78
693.626	18.34
694.032	18.89
694.439	19.44
694.845	19.98
695.251	20.52
695.657	21.05
696.063	21.59
696.469	22.12
696.875	22.66
697.281	23.17
697.687	23.69
698.093	24.2
698.498	24.68
698.904	25.18
699.31	25.64
699.715	26.11
700.12	26.59
700.526	27.02
700.931	27.44
701.337	27.87
701.742	28.28
702.147	28.68
702.552	29.09
702.957	29.48
703.362	29.85
703.767	30.21
704.172	30.57
704.577	30.91
704.981	31.26
705.386	31.58
705.791	31.89
706.195	32.21
706.6	32.53
707.004	32.82
707.408	33.11
707.813	33.41
708.217	33.7
708.621	33.98
709.025	34.24
709.43	34.54
709.834	34.82
710.237	35.07
710.641	35.31
711.045	35.55
711.449	35.81
711.853	36.09
712.256	36.32
712.66	36.55
713.064	36.78
713.467	37.03
713.87	37.24
714.274	37.46
714.677	37.66
715.08	37.86
715.484	38.08
715.887	38.3
716.29	38.46
716.693	38.65
717.096	38.85
717.499	39.04
717.901	39.2
718.304	39.37
718.707	39.54
719.109	39.72
719.512	39.9
719.915	40.04
720.317	40.17
720.719	40.29
721.122	40.43
721.524	40.56
721.926	40.7
722.328	40.83
722.731	40.96
723.133	41.1
723.535	41.24
723.937	41.35
724.338	41.47
724.74	41.59
725.142	41.81
725.544	41.92
725.945	42.05
726.347	42.13
726.748	42.22
727.15	42.28
727.551	42.37
727.952	42.43
728.354	42.52
728.755	42.56
729.156	42.62
729.557	42.59
729.958	42.65
730.359	42.71
730.76	42.79
731.161	42.86
731.562	42.96
731.962	42.99
732.363	43.07
732.763	43.12
733.164	43.18
733.564	43.26
733.965	43.3
734.365	43.37
734.766	43.38
735.166	43.42
735.566	43.45
735.966	43.48
736.366	43.52
736.766	43.54
737.166	43.58
737.566	43.62
737.966	43.63
738.365	43.67
738.765	43.69
739.165	43.73
739.564	43.77
739.964	43.79
740.363	43.79
740.763	43.81
741.162	43.85
741.561	43.85
741.96	43.87
742.36	43.87
742.759	43.89
743.158	43.92
743.557	43.92
743.955	43.93
744.354	43.95
744.753	43.99
745.152	44.03
745.55	44.06
745.949	44.08
746.348	44.11
746.746	44.12
747.144	44.14
747.543	44.15
747.941	44.18
748.339	44.15
748.737	44.17
749.136	44.17
749.534	44.14
749.932	44.13
750.33	44.11
750.727	44.11
751.125	44.14
751.523	44.13
751.921	44.12
752.318	44.12
752.716	44.16
753.113	44.17
753.511	44.17
753.908	44.22
754.305	44.23
754.703	44.23
755.1	44.27
755.497	44.27
755.894	44.28
756.291	44.28
756.688	44.29
757.085	44.28
757.482	44.28
757.878	44.27
758.275	44.26
758.672	44.27
759.068	44.29
759.465	44.25
759.861	44.25
760.258	44.26
760.654	44.28
761.05	44.29
761.447	44.3
761.843	44.31
762.239	44.31
762.635	44.3
763.031	44.28
763.427	44.27
763.822	44.27
764.218	44.3
764.614	44.3
765.01	44.27
765.405	44.27
765.801	44.25
766.196	44.27
766.592	44.26
766.987	44.27
767.382	44.29
767.778	44.28
768.173	44.29
768.568	44.24
768.963	44.23
769.358	44.26
769.753	44.24
770.148	44.25
770.542	44.23
770.937	44.25
771.332	44.23
771.726	44.23
772.121	44.22
772.515	44.22
772.91	44.24
773.304	44.23
773.699	44.22
774.093	44.22
774.487	44.21
774.881	44.23
775.275	44.21
775.669	44.22
776.063	44.22
776.457	44.23
776.851	44.21
777.245	44.21
777.638	44.21
778.032	44.21
778.425	44.25
778.819	44.25
779.212	44.25
779.606	44.26
779.999	44.25
780.392	44.27
780.786	44.26
781.179	44.27
781.572	44.3
781.965	44.31
782.358	44.31
782.751	44.28
783.143	44.28
783.536	44.27
783.929	44.28
784.322	44.29
784.714	44.29
785.107	44.33
785.499	44.35
785.891	44.35
786.284	44.37
786.676	44.37
787.068	44.38
787.46	44.39
787.852	44.41
788.245	44.38
788.636	44.38
789.028	44.35
789.42	44.31
789.812	44.33
790.204	44.31
790.595	44.3
790.987	44.31
791.378	44.32
791.77	44.33
792.161	44.32
792.553	44.31
792.944	44.31
793.335	44.35
793.726	44.37
794.117	44.35
794.508	44.36
794.899	44.34
795.29	44.35
795.681	44.33
796.072	44.33
796.463	44.34
796.853	44.36
797.244	44.36
797.634	44.34
798.025	44.37
798.415	44.34
798.806	44.34
799.196	44.37
799.586	44.38
799.976	44.38
800.366	44.38
800.756	44.37
801.146	44.39
801.536	44.41
801.926	44.41
802.316	44.39
802.706	44.44
803.095	44.44
803.485	44.42
803.874	44.41
804.264	44.42
804.653	44.42
805.043	44.42
805.432	44.38
805.821	44.42
806.21	44.43
806.599	44.45
806.988	44.44
807.377	44.45
807.766	44.47
808.155	44.46
808.544	44.46
808.933	44.48
809.321	44.51
809.71	44.54
810.098	44.51
810.487	44.5
810.875	44.48
811.264	44.49
811.652	44.49
812.04	44.5
812.428	44.54
812.816	44.53
813.204	44.51
813.592	44.47
813.98	44.47
814.368	44.48
814.756	44.5
815.144	44.5
815.531	44.48
815.919	44.48
816.306	44.48
816.694	44.45
817.081	44.47
817.469	44.49
817.856	44.5
818.243	44.48
818.63	44.45
819.017	44.43
819.404	44.41
819.791	44.39
820.178	44.39
820.565	44.37
820.952	44.36
821.339	44.35
821.725	44.35
822.112	44.36
822.498	44.39
822.885	44.41
823.271	44.42
823.657	44.41
824.044	44.44
824.43	44.43
824.816	44.44
825.202	44.47
825.588	44.46
825.974	44.46
826.36	44.45
826.746	44.43
827.132	44.41
827.517	44.42
827.903	44.45
828.289	44.45
828.674	44.44
829.06	44.43
829.445	44.42
829.83	44.41
830.216	44.41
830.601	44.4
830.986	44.4
831.371	44.38
831.756	44.38
832.141	44.38
832.526	44.38
832.911	44.38
833.295	44.4
833.68	44.4
834.065	44.41
834.449	44.42
834.834	44.41
835.218	44.43
835.603	44.44
835.987	44.43
836.371	44.42
836.755	44.41
837.139	44.4
837.524	44.38
837.908	44.4
838.291	44.4
838.675	44.38
839.059	44.41
839.443	44.38
839.827	44.38
840.21	44.37
840.594	44.38
840.977	44.39
841.361	44.37
841.744	44.34
842.127	44.3
842.511	44.29
842.894	44.29
843.277	44.29
843.66	44.29
844.043	44.28
844.426	44.28
844.809	44.29
845.191	44.31
845.574	44.32
845.957	44.35
846.339	44.36
846.722	44.37
847.104	44.39
847.487	44.36
847.869	44.34
848.252	44.35
848.634	44.36
849.016	44.37
849.398	44.34
849.78	44.36
850.162	44.37
850.544	44.37
850.926	44.38
851.307	44.37
851.689	44.39
852.071	44.39
852.452	44.41
852.834	44.41
853.215	44.39
853.597	44.4
853.978	44.38
854.359	44.36
854.741	44.36
855.122	44.35
855.503	44.34
855.884	44.32
856.265	44.33
856.646	44.3
857.026	44.3
857.407	44.31
857.788	44.31
858.169	44.33
858.549	44.34
858.93	44.34
859.31	44.36
859.69	44.39
860.071	44.42
860.451	44.42
860.831	44.44
861.211	44.44
861.591	44.42
861.971	44.41
862.351	44.42
862.731	44.43
863.111	44.43
863.491	44.41
863.87	44.39
864.25	44.37
864.629	44.36
865.009	44.36
865.388	44.37
865.768	44.36
866.147	44.38
866.526	44.38
866.905	44.37
867.284	44.38
867.663	44.39
868.042	44.38
868.421	44.42
868.8	44.45
869.179	44.45
869.558	44.46
869.936	44.49
870.315	44.47
870.693	44.48
871.072	44.49
871.45	44.48
871.828	44.48
872.207	44.49
872.585	44.48
872.963	44.46
873.341	44.46
873.719	44.45
874.097	44.45
874.475	44.47
874.853	44.45
875.23	44.48
875.608	44.5
875.986	44.54
876.363	44.55
876.741	44.56
877.118	44.56
877.495	44.57
877.873	44.56
878.25	44.57
878.627	44.58
879.004	44.57
879.381	44.56
879.758	44.55
880.135	44.52
880.512	44.51
880.889	44.49
881.265	44.47
881.642	44.47
882.019	44.47
882.395	44.44
882.772	44.43
883.148	44.43
883.524	44.42
883.901	44.41
884.277	44.38
884.653	44.36
885.029	44.35
885.405	44.37
885.781	44.36
886.157	44.37
886.532	44.36
886.908	44.34
887.284	44.35
887.659	44.32
888.035	44.31
888.411	44.31
888.786	44.34
889.161	44.35
889.537	44.33
889.912	44.31
890.287	44.29
890.662	44.3
891.037	44.32
891.412	44.32
891.787	44.32
892.162	44.32
892.536	44.34
892.911	44.32
893.286	44.32
893.66	44.32
894.035	44.34
894.409	44.35
894.784	44.35
895.158	44.33
895.532	44.33
895.906	44.33
896.281	44.32
896.655	44.3
897.029	44.32
897.402	44.32
897.776	44.34
898.15	44.33
898.524	44.33
898.898	44.34
899.271	44.35
899.645	44.36
900.018	44.37
900.392	44.4
900.765	44.42
901.138	44.41
901.511	44.41
901.884	44.4
902.258	44.41
902.631	44.44
903.003	44.44
903.376	44.44
903.749	44.43
904.122	44.44
904.495	44.42
904.867	44.43
905.24	44.43
905.612	44.44
905.985	44.42
906.357	44.42
906.729	44.4
907.102	44.4
907.474	44.41
907.846	44.41
908.218	44.39
908.59	44.43
908.962	44.43
909.334	44.44
909.705	44.45
910.077	44.46
910.449	44.47
910.82	44.46
911.192	44.47
911.563	44.45
911.935	44.48
912.306	44.51
912.677	44.52
913.048	44.53
913.419	44.53
913.79	44.52
914.161	44.54
914.532	44.54
914.903	44.58
915.274	44.56
915.645	44.57
916.015	44.56
916.386	44.54
916.756	44.52
917.127	44.51
917.497	44.51
917.868	44.51
918.238	44.51
918.608	44.53
918.978	44.49
919.348	44.53
919.718	44.53
920.088	44.51
920.458	44.51
920.828	44.51
921.198	44.49
921.567	44.51
921.937	44.54
922.306	44.52
922.676	44.49
923.045	44.48
923.415	44.45
923.784	44.47
924.153	44.5
924.522	44.52
924.891	44.5
925.26	44.5
925.629	44.48
925.998	44.42
926.367	44.41
926.736	44.42
927.104	44.45
927.473	44.43
927.842	44.38
928.21	44.37
928.578	44.35
928.947	44.37
929.315	44.36
929.683	44.36
930.051	44.37
930.42	44.37
930.788	44.35
931.156	44.3
931.523	44.33
931.891	44.35
932.259	44.37
932.627	44.38
932.994	44.38
933.362	44.35
933.729	44.37
934.097	44.35
934.464	44.37
934.831	44.38
935.199	44.43
935.566	44.42
935.933	44.37
936.3	44.36
936.667	44.33
937.034	44.36
937.401	44.38
937.767	44.38
938.134	44.38
938.501	44.35
938.867	44.36
939.234	44.31
939.6	44.29
939.967	44.35
940.333	44.3
940.699	44.29
941.065	44.24
941.431	44.25
941.798	44.19
942.163	44.19
942.529	44.21
942.895	44.21
943.261	44.18
943.627	44.15
943.992	44.14
944.358	44.19
944.723	44.15
945.089	44.11
945.454	44.1
945.82	44.11
946.185	44.12
946.55	44.07
946.915	44.01
947.28	43.99
947.645	43.98
948.01	43.99
948.375	43.95
948.74	43.98
949.104	44.01
949.469	43.98
949.834	43.95
950.198	43.92
950.562	43.93
950.927	43.95
951.291	43.89
951.655	43.84
952.02	43.79
952.384	43.74
952.748	43.73
953.112	43.71
953.476	43.65
953.839	43.63
954.203	43.63
954.567	43.61
954.931	43.61
955.294	43.6
955.658	43.69
956.021	43.68
956.385	43.68
956.748	43.63
957.111	43.56
957.474	43.61
957.837	43.58
958.2	43.54
958.563	43.57
958.926	43.56
959.289	43.61
959.652	43.56
960.015	43.56
960.377	43.56
960.74	43.56
961.102	43.63
961.465	43.64
961.827	43.7
962.189	43.74
962.552	43.69
962.914	43.68
963.276	43.72
963.638	43.72
964	43.72
964.362	43.77
964.724	43.77
965.085	43.76
965.447	43.79
965.809	43.75
966.17	43.69
966.532	43.64
966.893	43.65
967.255	43.6
967.616	43.59
967.977	43.6
968.338	43.56
968.699	43.62
969.061	43.63
969.421	43.61
969.782	43.65
970.143	43.71
970.504	43.8
970.865	43.82
971.225	43.79
971.586	43.8
971.946	43.82
972.307	43.8
972.667	43.73
973.027	43.73
973.388	43.72
973.748	43.75
974.108	43.81
974.468	43.8
974.828	43.82
975.188	43.88
975.548	43.9
975.907	43.88
976.267	43.88
976.627	43.93
976.986	43.87
977.346	43.85
977.705	43.81
978.064	43.76
978.424	43.77
978.783	43.73
979.142	43.71
979.501	43.72
979.86	43.76
980.219	43.79
980.578	43.79
980.937	43.88
981.296	43.83
981.654	43.82
982.013	43.83
982.371	43.82
982.73	43.81
983.088	43.82
983.447	43.77
983.805	43.75
984.163	43.75
984.521	43.72
984.879	43.63
985.237	43.69
985.595	43.75
985.953	43.8
986.311	43.73
986.669	43.73
987.026	43.7
987.384	43.75
987.741	43.75
988.099	43.82
988.456	43.8
988.814	43.87
989.171	43.85
989.528	43.83
989.885	43.8
990.242	43.87
990.599	43.95
990.956	44.02
991.313	44.04
991.67	44.02
992.027	44.1
992.383	44.2
992.74	44.26
993.096	44.26
993.453	44.26
993.809	44.21
994.165	44.25
994.522	44.21
994.878	44.2
995.234	44.21
995.59	44.22
995.946	44.09
996.302	44.06
996.658	43.98
997.013	44.05
997.369	44.1
997.725	44.24
998.08	44.29
998.436	44.28
998.791	44.36
999.147	44.41
999.502	44.4
999.857	44.5
1000.212	44.43
1000.567	44.42
1000.922	44.41
1001.277	44.43
1001.632	44.3
1001.987	44.27
1002.342	44.27
1002.696	44.22
1003.051	44.29
1003.406	44.44
1003.76	44.37
1004.114	44.52
1004.469	44.66
1004.823	44.93
1005.177	44.84
1005.531	44.97
1005.885	45
1006.239	45.2
1006.593	45.33
1006.947	45.35
1007.301	45.29
1007.655	45.24
1008.008	45.17
1008.362	45.31
1008.715	45.1
1009.069	45.19
1009.422	45.02
1009.776	44.96
1010.129	44.92
1010.482	44.87
1010.835	44.79
1011.188	44.78
1011.541	44.98
1011.894	45.04
1012.247	44.87
1012.6	44.9
1012.952	44.84
1013.305	45.05
1013.657	45.21
1014.01	45.18
1014.362	45.04
1014.715	45.1
1015.067	45.24
1015.419	45.28
1015.771	45.31
1016.123	45.48
1016.475	45.48
1016.827	45.78
1017.179	45.85
1017.531	45.89
1017.883	46.06
1018.234	46.35
1018.586	46.48
1018.938	46.58
1019.289	46.3
1019.64	46.26
1019.992	46.16
1020.343	46.15
1020.694	45.94
1021.045	46.04
1021.396	45.97
1021.747	45.89
1022.098	45.93
1022.449	45.79
1022.8	45.62
1023.151	45.88
1023.501	46.03
1023.852	46.02
1024.202	46.05
1024.553	46.07
1024.903	46.07
1025.253	46.27
1025.604	46.36
1025.954	46.04
1026.304	46.27
1026.654	46.52
1027.004	46.44
1027.354	46.35
1027.703	46.47
1028.053	46.69
1028.403	46.76
1028.753	46.27
1029.102	46.02
1029.452	45.85
1029.801	45.87
1030.15	45.62
1030.499	45.32
897.758	1367.82
901.051	1378.73
904.343	1372.49
907.636	1394.18
910.928	1357.85
914.22	1356.44
917.511	1338.07
920.803	1278.67
924.094	1274.06
927.384	1241.96
930.675	1193.62
933.965	1187.97
937.255	1114.19
940.544	1070.97
943.834	1019.11
947.123	1010.91
950.411	950.8
953.7	931.54
956.988	880.22
960.276	843.68
963.563	832.6
966.851	801.66
970.138	793.37
973.424	770.83
976.711	772.54
979.997	737.74
983.283	731.51
986.568	716.79
989.853	694.53
993.138	683.79
996.423	656.01
999.708	636.26
1002.992	629.84
1006.275	602.45
1009.559	595.89
1012.842	575.22
1016.125	556.93
1019.408	546.77
1022.69	539.02
1025.972	528.36
1029.254	515.41
1032.536	507.49
1035.817	495.98
1039.098	489.06
1042.379	478.02
1045.659	473.53
1048.939	462.36
1052.219	452.46
1055.498	446.56
1058.778	436.13
1062.057	425.31
1065.335	420.62
1068.614	416.18
1071.892	411.92
1075.17	397.83
1078.447	390.94
1081.724	387.49
1085.001	384.04
1088.278	377.16
1091.554	368.52
1094.83	369.2
1098.106	367.14
1101.382	363.4
1104.657	360.71
1107.932	355.28
1111.206	357
1114.481	348.18
1117.755	344.4
1121.029	341.71
1124.302	340.91
1127.575	335.03
1130.848	330.63
1134.121	327.03
1137.393	325.31
1140.665	317.62
1143.937	315.19
1147.208	314.55
1150.48	313.57
1153.75	309.65
1157.021	305.2
1160.291	305.52
1163.561	301.78
1166.831	302.58
1170.101	300.43
1173.37	299.58
1176.639	300.73
1179.907	297.41
1183.176	293.06
1186.444	293.02
1189.711	292.77
1192.979	291.79
1196.246	289.7
1199.513	290.98
1202.78	287.84
1206.046	287.85
1209.312	284.71
1212.578	284.93
1215.843	288.21
1219.108	286.29
1222.373	291.93
1225.638	294.08
1228.902	298.46
1232.166	298.59
1235.43	301.17
1238.693	305.22
1241.956	306.89
1245.219	312.35
1248.482	312.22
1251.744	311.58
1255.006	313.42
1258.268	304.76
1261.529	301.71
1264.79	299.92
1268.051	298.41
1271.312	294.63
1274.572	290.51
1277.832	288.17
1281.092	283.16
1284.351	281.16
1287.61	281.18
1290.869	276.97
1294.128	276.07
1297.386	275.68
1300.644	271.86
1303.902	272.46
1307.159	272.11
1310.416	272.39
1313.673	271.32
1316.93	274.19
1320.186	274.65
1323.442	274.85
1326.697	280.16
1329.953	281.26
1333.208	282.63
1336.463	285.74
1339.717	286.9
1342.972	289.24
1346.226	292.09
1349.479	292.81
1352.733	294.29
1355.986	295.63
1359.238	296.6
1362.491	297.52
1365.743	300.6
1368.995	300.46
1372.247	299.08
1375.498	299.46
1378.749	302.18
1382	298.62
1385.251	299.44
1388.501	298.61
1391.751	299.33
1395	297.97
1398.25	295.68
1401.499	294.51
1404.748	294.35
1407.996	293.77
1411.244	291.65
1414.492	290.08
1417.74	288.72
1420.987	284.19
1424.234	283.33
1427.481	279.64
1430.728	279.07
1433.974	276.2
1437.22	273.74
1440.465	273.1
1443.711	271.02
1446.956	269.43
1450.201	266.26
1453.445	263.26
1456.689	262.94
1459.933	258.34
1463.177	256.49
1466.42	252.46
1469.663	249.26
1472.906	247.55
1476.148	240.56
1479.391	237.84
1482.633	235.54
1485.874	231.85
1489.115	230.44
1492.356	227.07
1495.597	226.85
1498.838	222.87
1502.078	221.59
1505.318	220.77
1508.557	220.29
1511.797	220.43
1515.036	218.51
1518.274	217.57
1521.513	215.61
1524.751	215.32
1527.989	215.21
1531.227	213.69
1534.464	214.48
1537.701	212.83
1540.938	212.59
1544.174	209.57
1547.41	209.07
1550.646	208.01
1553.882	208.32
1557.117	205.4
1560.352	204
1563.587	202.91
1566.821	201.84
1570.055	199.4
1573.289	198.13
1576.523	197.54
1579.756	196.3
1582.989	195.35
1586.222	194.93
1589.454	193.2
1592.686	194.54
1595.918	193.69
1599.15	193.3
1602.381	193.27
1605.612	193.54
1608.843	194.09
1612.073	193.66
1615.303	195.08
1618.533	194.78
1621.762	194.49
1624.992	194.97
1628.221	195.06
1631.449	194.78
1634.678	193.75
1637.906	194.79
1641.134	194.74
1644.361	194
1647.588	195
1650.815	193.8
1654.042	193.16
1657.269	194.74
1660.495	194.67
1663.72	193.22
1666.946	194.58
1670.171	195.43
1673.396	195.21
1676.621	195.21
1679.845	195.65
1683.069	195.19
1686.293	196.73
1689.517	198
1692.74	197.26
1695.963	198.2
1699.185	200.94
1702.408	200.02
1705.63	200.99
1708.852	201.23
1712.073	201.99
1715.294	202.45
1718.515	203.84
1721.736	203.36
1724.956	203.73
1728.176	204.03
1731.396	205.84
1734.616	204.98
1737.835	206.48
1741.054	205.19
1744.272	206.25
1747.491	207.75
1750.709	207.93
1753.927	207.85
1757.144	207.21
1760.361	208.48
1763.578	208.69
1766.795	207.79
1770.011	209.44
1773.227	209.11
1776.443	211.77
1779.658	212.21
1782.874	211.96
1786.089	212.8
1789.303	213.35
1792.518	216.24
1795.732	216.1
1798.945	218.23
1802.159	218.65
1805.372	219.27
1808.585	222.94
1811.797	223.77
1815.01	223.94
1818.222	225.81
1821.434	227.04
1824.645	228.37
1827.856	231.58
1831.067	233.18
1834.278	232.67
1837.488	234.99
1840.698	236.49
1843.908	234.57
1847.117	235.75
1850.326	237.37
1853.535	236.83
1856.744	241.39
1859.952	240.58
1863.16	239.11
1866.368	237.68
1869.575	241.35
1872.782	236.83
1875.989	237.05
1879.196	235.82
1882.402	234.42
1885.608	235.74
1888.814	236.15
1892.019	234.71
1895.224	234.49
1898.429	234.06
1901.634	236.09
1904.838	235.04
1908.042	238.44
1911.246	238.36
1914.449	240.77
1917.652	241.01
1920.855	240.37
1924.058	239.9
1927.26	239.25
1930.462	240.52
1933.664	242.82
1936.865	240.52
1940.066	240.63
1943.267	239.29
1946.467	238.8
1949.668	240.5
1952.868	242.65
1956.067	242.8
1959.267	243.79
1962.466	244.7
1965.665	243.43
1968.863	243.77
1972.061	247.44
1975.259	249.97
1978.457	251.85
1981.654	254.55
1984.852	254.87
1988.048	254.67
1991.245	256.64
1994.441	259.59
1997.637	261.03
2000.833	266.59
2004.028	270.05
2007.223	271.27
2010.418	273.49
2013.613	278.16
2016.807	280.98
2020.001	282.78
2023.194	287.05
2026.388	293.15
2029.581	299.91
2032.774	303.16
2035.966	308.08
2039.158	309.04
2042.35	314.62
2045.542	316.63
2048.733	322.26
2051.924	326.87
2055.115	332.08
2058.306	332.93
2061.496	336.52
2064.686	336.3
2067.875	341.32
2071.065	343.68
2074.254	342.74
2077.442	346.31
2080.631	348.12
2083.819	350.62
2087.007	350.23
2090.195	356.17
2093.382	359.03
2096.569	357.06
2099.756	361.27
2102.942	363.17
2106.128	365.49
2109.314	372.92
2112.5	372.7
2115.685	381.42
2118.87	381.55
2122.055	389.21
2125.239	390.72
2128.424	395.71
2131.608	399.38
2134.791	405.9
2137.974	407.94
2141.157	408.75
2144.34	410.42
2147.523	415.9
2150.705	412.73
2153.887	416.92
2157.068	418.91
2160.25	414.29
2163.431	416.86
2166.611	420.25
2169.792	428.02
2172.972	432.13
2176.152	434.49
2179.331	440.29
2182.511	448.47
2185.69	453.17
2188.868	461.83
2192.047	462.32
2195.225	476.29
2198.403	488.27
2201.58	498.82
2204.758	507.34
2207.935	517.38
2211.111	527.04
2214.288	532.39
2217.464	533.85
2220.64	541.39
2223.815	548.46
2226.991	571.64
2230.166	573.17
2233.34	581.87
2236.515	589.13
2239.689	590.29
2242.863	592.71
2246.036	611.24
2249.209	608.82
2252.382	618.52
2255.555	637.07
2258.727	640.28
2261.9	642.83
2265.071	650.16
2268.243	660.2
2271.414	669.1
2274.585	684.99
2277.756	693.11
2280.926	696.74
2284.096	710.81
2287.266	728.33
2290.436	733.82
2293.605	752.39
2296.774	774.12
2299.942	798.87
2303.111	805.07
2306.279	824.33
2309.447	835.7
2312.614	855.62
2315.781	880.1
2318.948	923.77
2322.115	908.28
2325.281	957.94
2328.447	936.25
2331.613	976.18
2334.779	963.17
2337.944	1003.42
2341.109	1012.05
2344.274	1038.2
2347.438	1078.08
2350.602	1078.61
2353.766	1105.78
2356.929	1123.76
2360.092	1117.53
2363.255	1198.17
2366.418	1195.05
2369.58	1219.02
2372.742	1296.1
2375.904	1329.3
2379.066	1322.51
2382.227	1296.01
2385.388	1408.04
2388.548	1409.52
2391.709	1425.66
2394.869	1589.36
2398.029	1519.3
2401.188	1560.56
2404.347	1550.88
2407.506	1521.01
2410.665	1566.06
2413.823	1664.82
2416.981	1763.94
2420.139	1698.98
2423.296	1686.76
2426.453	1759.52
2429.61	1690.47
2432.767	1770.54
2435.923	1754.64
2439.079	1925.56
2442.235	1947.07
2445.391	1931.98
2448.546	1912.73
2451.701	1858.21
2454.855	1858.72
2458.009	1968.6
2461.163	2044.74
2464.317	2121.79
2467.471	2179.26
2470.624	2179.52
2473.777	2114.88
2476.929	2067.64
2480.082	2007.25
2483.234	1985.4
2486.385	2080.62
2489.537	2093.05
2492.688	2169.39
2495.839	2114.63
2498.989	2067.59
2502.14	2077
2505.29	2100.27
2508.439	2124.11
2511.589	2118.01
2514.738	2312.28
2517.887	2259.63
2521.035	2398.94
2524.183	2413.37
2527.331	2433.34
2530.479	2423.57
2533.627	2440
