Data from C_2_HIR_IL_4N_Splice17_13-13-33-968.txt Node
Date: Sat Mar 07 13:13:33 EST 2020
User: sa697716
Spectrometer: NQ5500242
Trigger mode: 0
Integration Time (sec): 1.450000E-1
Scans to average: 20
Nonlinearity correction enabled: false
Boxcar width: 5
Storing dark spectrum: false
XAxis mode: Wavelengths
Number of Pixels in Spectrum: 512
>>>>>Begin Spectral Data<<<<<
187.83	107.99
188.298	126.82
188.766	110.16
189.233	91.95
189.701	77.22
190.169	111.24
190.636	108.7
191.104	5.75
191.571	-217.08
192.039	-116.4
192.506	-44.48
192.974	179.93
193.441	197.75
193.908	49.33
194.375	77.24
194.842	-8.27
195.31	56.29
195.777	53.29
196.244	34.23
196.711	44.41
197.177	47.18
197.644	47.23
198.111	46.41
198.578	47.22
199.045	47.74
199.511	47.47
199.978	47.64
200.445	47.83
200.911	47.71
201.378	47.57
201.844	47.54
202.31	47.26
202.777	47.01
203.243	47.09
203.709	46.86
204.176	46.35
204.642	45.65
205.108	45.47
205.574	45.29
206.04	44.9
206.506	44.43
206.972	44.51
207.438	44.06
207.903	43.9
208.369	42.88
208.835	41.93
209.301	41.15
209.766	40.15
210.232	39.13
210.697	38.1
211.163	37.3
211.628	36.68
212.094	35.46
212.559	34.88
213.024	33.86
213.49	33.38
213.955	32.67
214.42	32.06
214.885	31.34
215.35	30.44
215.815	28.98
216.28	27.08
216.745	25.04
217.21	23
217.675	21.18
218.14	19.66
218.604	18.27
219.069	17.25
219.534	16.34
219.998	15.57
220.463	14.88
220.927	14.3
221.392	13.86
221.856	13.5
222.32	13.23
222.785	12.97
223.249	12.73
223.713	12.5
224.177	12.27
224.642	12.06
225.106	11.86
225.57	11.66
226.034	11.5
226.497	11.33
226.961	11.16
227.425	11
227.889	10.85
228.353	10.67
228.816	10.53
229.28	10.38
229.744	10.22
230.207	10.08
230.671	9.95
231.134	9.81
231.597	9.72
232.061	9.6
232.524	9.49
232.987	9.37
233.45	9.27
233.914	9.16
234.377	9.06
234.84	8.97
235.303	8.89
235.766	8.81
236.229	8.73
236.691	8.62
237.154	8.54
237.617	8.46
238.08	8.39
238.542	8.31
239.005	8.24
239.468	8.17
239.93	8.1
240.393	8.03
240.855	7.94
241.317	7.87
241.78	7.8
242.242	7.72
242.704	7.65
243.166	7.58
243.629	7.52
244.091	7.46
244.553	7.39
245.015	7.33
245.477	7.27
245.939	7.21
246.4	7.16
246.862	7.1
247.324	7.06
247.786	7.01
248.247	6.95
248.709	6.89
249.17	6.84
249.632	6.81
250.093	6.76
250.555	6.72
251.016	6.68
251.477	6.64
251.939	6.61
252.4	6.58
252.861	6.55
253.322	6.52
253.783	6.5
254.244	6.47
254.705	6.43
255.166	6.4
255.627	6.37
256.088	6.35
256.549	6.32
257.009	6.28
257.47	6.25
257.931	6.21
258.391	6.18
258.852	6.15
259.312	6.12
259.773	6.08
260.233	6.06
260.694	6.02
261.154	5.99
261.614	5.96
262.074	5.93
262.534	5.9
262.994	5.88
263.455	5.86
263.915	5.83
264.374	5.81
264.834	5.8
265.294	5.77
265.754	5.77
266.214	5.75
266.673	5.73
267.133	5.73
267.593	5.72
268.052	5.71
268.512	5.7
268.971	5.69
269.431	5.67
269.89	5.66
270.349	5.66
270.809	5.64
271.268	5.63
271.727	5.62
272.186	5.6
272.645	5.59
273.104	5.57
273.563	5.56
274.022	5.55
274.481	5.55
274.94	5.54
275.399	5.52
275.857	5.52
276.316	5.51
276.775	5.49
277.233	5.49
277.692	5.48
278.15	5.48
278.609	5.47
279.067	5.46
279.525	5.45
279.984	5.44
280.442	5.43
280.9	5.43
281.358	5.42
281.816	5.43
282.274	5.41
282.732	5.41
283.19	5.4
283.648	5.39
284.106	5.38
284.564	5.38
285.021	5.38
285.479	5.38
285.937	5.37
286.394	5.36
286.852	5.35
287.309	5.35
287.767	5.33
288.224	5.32
288.682	5.3
289.139	5.29
289.596	5.27
290.053	5.25
290.511	5.23
290.968	5.22
291.425	5.2
291.882	5.2
292.339	5.18
292.796	5.17
293.252	5.17
293.709	5.18
294.166	5.17
294.623	5.17
295.079	5.17
295.536	5.17
295.992	5.17
296.449	5.17
296.905	5.16
297.362	5.17
297.818	5.16
298.274	5.17
298.731	5.16
299.187	5.15
299.643	5.14
300.099	5.15
300.555	5.15
301.011	5.14
301.467	5.14
301.923	5.14
302.379	5.14
302.835	5.14
303.291	5.14
303.746	5.14
304.202	5.15
304.658	5.16
305.113	5.15
305.569	5.15
306.024	5.16
306.479	5.15
306.935	5.16
307.39	5.16
307.845	5.17
308.301	5.18
308.756	5.18
309.211	5.18
309.666	5.19
310.121	5.2
310.576	5.2
311.031	5.21
311.486	5.23
311.94	5.23
312.395	5.23
312.85	5.23
313.305	5.23
313.759	5.24
314.214	5.25
314.668	5.24
315.123	5.23
315.577	5.23
316.032	5.23
316.486	5.22
316.94	5.22
317.394	5.22
317.849	5.21
318.303	5.2
318.757	5.19
319.211	5.17
319.665	5.16
320.119	5.16
320.572	5.15
321.026	5.14
321.48	5.14
321.934	5.12
322.387	5.11
322.841	5.12
323.295	5.12
323.748	5.11
324.202	5.12
324.655	5.13
325.108	5.13
325.562	5.14
326.015	5.14
326.468	5.14
326.921	5.14
327.374	5.14
327.827	5.15
328.28	5.15
328.733	5.15
329.186	5.15
329.639	5.15
330.092	5.14
330.545	5.14
330.997	5.14
331.45	5.15
331.903	5.15
332.355	5.16
332.808	5.15
333.26	5.15
333.713	5.15
334.165	5.14
334.617	5.15
335.069	5.14
335.522	5.15
335.974	5.15
336.426	5.14
336.878	5.14
337.33	5.13
337.782	5.13
338.234	5.14
338.686	5.14
339.137	5.14
339.589	5.11
340.041	5.11
340.493	5.09
340.944	5.08
341.396	5.06
341.847	5.04
342.299	5.03
342.75	5.01
343.201	4.99
343.653	4.98
344.104	4.95
344.555	4.95
345.006	4.93
345.457	4.93
345.908	4.93
346.359	4.93
346.81	4.93
347.261	4.93
347.712	4.92
348.163	4.91
348.613	4.92
349.064	4.92
349.515	4.92
349.965	4.92
350.416	4.91
350.866	4.91
351.317	4.9
351.767	4.91
352.217	4.91
352.668	4.91
353.118	4.91
353.568	4.9
354.018	4.9
354.468	4.91
354.918	4.91
355.368	4.92
355.818	4.92
356.268	4.92
356.718	4.92
357.168	4.91
357.617	4.9
358.067	4.9
358.517	4.91
358.966	4.92
359.416	4.92
359.865	4.91
360.315	4.91
360.764	4.92
361.213	4.92
361.663	4.92
362.112	4.93
362.561	4.95
363.01	4.95
363.459	4.95
363.908	4.95
364.357	4.96
364.806	4.97
365.255	4.98
365.703	4.99
366.152	5
366.601	5.02
367.05	5.04
367.498	5.05
367.947	5.07
368.395	5.1
368.844	5.13
369.292	5.14
369.74	5.17
370.189	5.2
370.637	5.22
371.085	5.25
371.533	5.29
371.981	5.33
372.429	5.38
372.877	5.43
373.325	5.49
373.773	5.55
374.221	5.62
374.669	5.69
375.116	5.77
375.564	5.85
376.012	5.94
376.459	6.03
376.907	6.14
377.354	6.24
377.801	6.35
378.249	6.46
378.696	6.57
379.143	6.7
379.591	6.84
380.038	6.98
380.485	7.12
380.932	7.27
381.379	7.43
381.826	7.57
382.273	7.73
382.72	7.88
383.166	8.05
383.613	8.21
384.06	8.39
384.506	8.54
384.953	8.72
385.4	8.89
385.846	9.06
386.292	9.23
386.739	9.39
387.185	9.57
387.631	9.75
388.078	9.92
388.524	10.08
388.97	10.24
389.416	10.41
389.862	10.56
390.308	10.71
390.754	10.87
391.2	11
391.645	11.14
392.091	11.28
392.537	11.42
392.983	11.55
393.428	11.7
393.874	11.81
394.319	11.91
394.765	12
395.21	12.07
395.655	12.14
396.101	12.23
396.546	12.28
396.991	12.35
397.436	12.4
397.881	12.47
398.326	12.51
398.771	12.56
399.216	12.61
399.661	12.65
400.106	12.7
400.551	12.72
400.995	12.73
401.44	12.75
401.885	12.76
402.329	12.76
402.774	12.77
403.218	12.8
403.663	12.8
404.107	12.8
404.551	12.79
404.995	12.78
405.44	12.77
405.884	12.77
406.328	12.76
406.772	12.73
407.216	12.72
407.66	12.71
408.104	12.66
408.547	12.63
408.991	12.61
409.435	12.6
409.879	12.57
410.322	12.57
410.766	12.55
411.209	12.55
411.653	12.55
412.096	12.54
412.54	12.52
412.983	12.51
413.426	12.53
413.869	12.5
414.312	12.49
414.756	12.48
415.199	12.46
415.642	12.43
416.085	12.39
416.527	12.34
416.97	12.28
417.413	12.24
417.856	12.21
418.298	12.16
418.741	12.13
419.184	12.11
419.626	12.07
420.069	12.04
420.511	12.02
420.953	11.99
421.396	11.98
421.838	11.98
422.28	11.96
422.722	11.95
423.164	11.91
423.606	11.88
424.048	11.85
424.49	11.8
424.932	11.77
425.374	11.71
425.816	11.66
426.258	11.63
426.699	11.59
427.141	11.57
427.582	11.56
428.024	11.56
428.465	11.56
428.907	11.54
429.348	11.54
429.789	11.53
430.231	11.56
430.672	11.59
431.113	11.61
431.554	11.62
431.995	11.63
432.436	11.63
432.877	11.65
433.318	11.67
433.759	11.7
434.2	11.74
434.64	11.77
435.081	11.77
435.522	11.8
435.962	11.82
436.403	11.86
436.843	11.89
437.284	11.92
437.724	11.95
438.164	11.97
438.604	11.99
439.045	12.02
439.485	12.06
439.925	12.1
440.365	12.14
440.805	12.17
441.245	12.23
441.685	12.28
442.125	12.34
442.564	12.37
443.004	12.43
443.444	12.49
443.883	12.56
444.323	12.6
444.762	12.67
445.202	12.73
445.641	12.81
446.081	12.89
446.52	12.95
446.959	13.02
447.398	13.1
447.837	13.17
448.276	13.25
448.716	13.33
449.154	13.42
449.593	13.51
450.032	13.57
450.471	13.62
450.91	13.65
451.349	13.71
451.787	13.76
452.226	13.8
452.664	13.85
453.103	13.89
453.541	13.92
453.98	13.97
454.418	13.99
454.856	14.03
455.295	14.07
455.733	14.1
456.171	14.14
456.609	14.17
457.047	14.21
457.485	14.24
457.923	14.28
458.361	14.33
458.798	14.37
459.236	14.42
459.674	14.46
460.111	14.5
460.549	14.54
460.987	14.58
461.424	14.64
461.862	14.68
462.299	14.71
462.736	14.74
463.173	14.76
463.611	14.77
464.048	14.8
464.485	14.81
464.922	14.83
465.359	14.84
465.796	14.85
466.233	14.85
466.67	14.86
467.106	14.87
467.543	14.86
467.98	14.86
468.416	14.85
468.853	14.83
469.29	14.81
469.726	14.8
470.162	14.78
470.599	14.77
471.035	14.74
471.471	14.71
471.907	14.69
472.344	14.69
472.78	14.67
473.216	14.66
473.652	14.67
474.088	14.65
474.523	14.65
474.959	14.65
475.395	14.63
475.831	14.63
476.266	14.63
476.702	14.61
477.138	14.61
477.573	14.61
478.008	14.62
478.444	14.6
478.879	14.63
479.314	14.63
479.75	14.64
480.185	14.64
480.62	14.67
481.055	14.7
481.49	14.73
481.925	14.76
482.36	14.8
482.795	14.85
483.229	14.9
483.664	14.95
484.099	15.01
484.534	15.08
484.968	15.17
485.403	15.24
485.837	15.33
486.271	15.44
486.706	15.55
487.14	15.67
487.574	15.79
488.009	15.92
488.443	16.06
488.877	16.21
489.311	16.36
489.745	16.53
490.179	16.72
490.613	16.89
491.046	17.07
491.48	17.25
491.914	17.44
492.348	17.64
492.781	17.85
493.215	18.07
493.648	18.29
494.082	18.51
494.515	18.73
494.948	18.97
495.382	19.2
495.815	19.45
496.248	19.72
496.681	19.99
497.114	20.26
497.547	20.52
497.98	20.8
498.413	21.08
498.846	21.37
499.279	21.65
499.711	21.95
500.144	22.26
500.577	22.56
501.009	22.86
501.442	23.17
501.874	23.48
502.306	23.81
502.739	24.15
503.171	24.48
503.603	24.8
504.036	25.15
504.468	25.47
504.9	25.79
505.332	26.15
505.764	26.49
506.196	26.83
506.627	27.19
507.059	27.55
507.491	27.88
507.923	28.24
508.354	28.61
508.786	28.98
509.217	29.35
509.649	29.73
510.08	30.1
510.512	30.45
510.943	30.82
511.374	31.18
511.805	31.53
512.237	31.88
512.668	32.24
513.099	32.59
513.53	32.93
513.961	33.27
514.391	33.59
514.822	33.92
515.253	34.24
515.684	34.55
516.114	34.85
516.545	35.15
516.975	35.44
517.406	35.71
517.836	35.98
518.267	36.27
518.697	36.55
519.127	36.81
519.558	37.05
519.988	37.31
520.418	37.55
520.848	37.77
521.278	37.99
521.708	38.38
522.138	38.61
522.567	38.81
522.997	38.97
523.427	39.16
523.857	39.34
524.286	39.5
524.716	39.66
525.145	39.83
525.575	40.01
526.004	40.18
526.433	40.18
526.863	40.32
527.292	40.47
527.721	40.59
528.15	40.71
528.579	40.83
529.008	40.97
529.437	41.08
529.866	41.19
530.295	41.3
530.724	41.4
531.152	41.5
531.581	41.58
532.01	41.66
532.438	41.76
532.867	41.85
533.295	41.93
533.723	42.02
534.152	42.1
534.58	42.19
535.008	42.25
535.436	42.33
535.865	42.37
536.293	42.45
536.721	42.51
537.149	42.58
537.576	42.64
538.004	42.71
538.432	42.74
538.86	42.78
539.287	42.79
539.715	42.83
540.143	42.87
540.57	42.92
540.998	42.94
541.425	42.96
541.852	42.98
542.28	43.01
542.707	43.02
543.134	43.06
543.561	43.08
543.988	43.12
544.415	43.15
544.842	43.14
545.269	43.15
545.696	43.18
546.123	43.2
546.549	43.23
546.976	43.25
547.403	43.25
547.829	43.26
548.256	43.29
548.682	43.26
549.108	43.28
549.535	43.3
549.961	43.31
550.387	43.3
550.813	43.31
551.24	43.32
551.666	43.32
552.092	43.34
552.518	43.34
552.943	43.32
553.369	43.33
553.795	43.31
554.221	43.31
554.646	43.29
555.072	43.29
555.498	43.28
555.923	43.25
556.349	43.2
556.774	43.17
557.199	43.12
557.625	43.1
558.05	43.07
558.475	43.03
558.9	43.01
559.325	42.97
559.75	42.91
560.175	42.86
560.6	42.8
561.025	42.76
561.449	42.7
561.874	42.64
562.299	42.58
562.723	42.51
563.148	42.42
563.572	42.33
563.997	42.27
564.421	42.18
564.846	42.12
565.27	42.04
565.694	41.96
566.118	41.88
566.542	41.8
566.966	41.71
567.39	41.63
567.814	41.55
568.238	41.45
568.662	41.37
569.086	41.28
569.509	41.18
569.933	41.09
570.357	41
570.78	40.9
571.204	40.81
571.627	40.72
572.05	40.63
572.474	40.57
572.897	40.49
573.32	40.4
573.743	40.31
574.166	40.24
574.589	40.16
575.012	40.09
575.435	40.02
575.858	39.94
576.281	39.88
576.704	39.81
577.126	39.71
577.549	39.63
577.972	39.56
578.394	39.49
578.817	39.42
579.239	39.35
579.661	39.27
580.084	39.21
580.506	39.15
580.928	39.09
581.35	39.03
581.772	38.99
582.194	38.94
582.616	38.89
583.038	38.84
583.46	38.79
583.882	38.75
584.303	38.69
584.725	38.63
585.147	38.59
585.568	38.53
585.99	38.48
586.411	38.43
586.833	38.37
587.254	38.32
587.675	38.28
588.096	38.22
588.518	38.16
588.939	38.12
589.36	38.06
589.781	37.99
590.202	37.95
590.623	37.89
591.043	37.84
591.464	37.79
591.885	37.72
592.305	37.67
592.726	37.63
593.147	37.58
593.567	37.54
593.987	37.5
594.408	37.47
594.828	37.43
595.248	37.41
595.669	37.37
596.089	37.33
596.509	37.3
596.929	37.27
597.349	37.25
597.769	37.21
598.189	37.16
598.608	37.14
599.028	37.09
599.448	37.05
599.867	37.01
600.287	36.97
600.706	36.96
601.126	36.91
601.545	36.87
601.965	36.83
602.384	36.8
602.803	36.76
603.222	36.71
603.641	36.67
604.061	36.64
604.48	36.59
604.898	36.55
605.317	36.5
605.736	36.46
606.155	36.4
606.574	36.35
606.992	36.29
607.411	36.25
607.829	36.17
608.248	36.1
608.666	36.02
609.085	35.97
609.503	35.9
609.921	35.83
610.339	35.76
610.758	35.71
611.176	35.64
611.594	35.55
612.012	35.47
612.43	35.42
612.847	35.35
613.265	35.27
613.683	35.2
614.101	35.13
614.518	35.05
614.936	34.98
615.353	34.87
615.771	34.8
616.188	34.74
616.606	34.67
617.023	34.61
617.44	34.57
617.857	34.52
618.274	34.46
618.691	34.41
619.108	34.36
619.525	34.32
619.942	34.29
620.359	34.26
620.776	34.22
621.192	34.19
621.609	34.17
622.026	34.11
622.442	34.07
622.859	34.06
623.275	34.02
623.691	34.02
624.108	34
624.524	33.99
624.94	33.96
625.356	33.94
625.772	33.92
626.188	33.91
626.604	33.9
627.02	33.89
627.436	33.87
627.852	33.87
628.268	33.85
628.683	33.83
629.099	33.81
629.514	33.79
629.93	33.77
630.345	33.74
630.761	33.7
631.176	33.66
631.591	33.61
632.007	33.55
632.422	33.48
632.837	33.41
633.252	33.33
633.667	33.24
634.082	33.14
634.497	33.04
634.911	32.94
635.326	32.81
635.741	32.69
636.155	32.55
636.57	32.39
636.984	32.23
637.399	32.05
637.813	31.88
638.228	31.67
638.642	31.46
639.056	31.25
639.47	31.03
639.884	30.81
640.298	30.57
640.712	30.33
641.126	30.1
641.54	29.83
641.954	29.6
642.368	29.35
642.781	29.14
643.195	28.92
643.609	28.7
644.022	28.47
644.436	28.25
644.849	28.04
645.262	27.83
645.676	27.64
646.089	27.48
646.502	27.31
646.915	27.17
647.328	27.01
647.741	26.88
648.154	26.75
648.567	26.65
648.98	26.54
649.393	26.46
649.805	26.38
650.218	26.3
650.631	26.23
651.043	26.16
651.456	26.09
651.868	26.02
652.28	25.94
652.693	25.88
653.105	25.81
653.517	25.73
653.929	25.63
654.341	25.54
654.753	25.43
655.165	25.32
655.577	25.22
655.989	25.07
656.401	24.93
656.813	24.8
657.224	24.62
657.636	24.45
658.047	24.29
658.459	24.12
658.87	23.93
659.282	23.74
659.693	23.54
660.104	23.32
660.515	23.12
660.926	22.9
661.338	22.68
661.749	22.45
662.159	22.22
662.57	22.01
662.981	21.79
663.392	21.57
663.803	21.35
664.213	21.14
664.624	20.94
665.035	20.76
665.445	20.58
665.855	20.39
666.266	20.24
666.676	20.1
667.086	19.92
667.497	19.79
667.907	19.66
668.317	19.55
668.727	19.44
669.137	19.34
669.547	19.24
669.956	19.17
670.366	19.11
670.776	19.05
671.186	19
671.595	18.97
672.005	18.92
672.414	18.91
672.824	18.88
673.233	18.88
673.642	18.89
674.052	18.89
674.461	18.91
674.87	18.93
675.279	18.97
675.688	19.02
676.097	19.08
676.506	19.18
676.915	19.26
677.323	19.38
677.732	19.5
678.141	19.64
678.549	19.81
678.958	20.01
679.366	20.23
679.775	20.47
680.183	20.75
680.592	21.08
681	21.4
681.408	21.77
681.816	22.18
682.224	22.61
682.632	23.08
683.04	23.6
683.448	24.11
683.856	24.67
684.264	25.25
684.671	25.84
685.079	26.44
685.487	27.08
685.894	27.75
686.302	28.41
686.709	29.09
687.116	29.78
687.524	30.47
687.931	31.16
688.338	31.85
688.745	32.54
689.152	33.23
689.559	33.91
689.966	34.6
690.373	35.27
690.78	35.91
691.187	36.53
691.593	37.13
692	37.69
692.407	38.26
692.813	38.8
693.22	39.33
693.626	39.84
694.032	40.34
694.439	40.82
694.845	41.28
695.251	41.71
695.657	42.12
696.063	42.57
696.469	42.99
696.875	43.37
697.281	43.73
697.687	44.1
698.093	44.44
698.498	44.77
698.904	45.07
699.31	45.38
699.715	45.68
700.12	45.98
700.526	46.22
700.931	46.46
701.337	46.71
701.742	46.95
702.147	47.18
702.552	47.4
702.957	47.59
703.362	47.78
703.767	47.95
704.172	48.13
704.577	48.31
704.981	48.49
705.386	48.64
705.791	48.8
706.195	48.96
706.6	49.11
707.004	49.25
707.408	49.4
707.813	49.56
708.217	49.7
708.621	49.82
709.025	49.94
709.43	50.04
709.834	50.19
710.237	50.29
710.641	50.4
711.045	50.47
711.449	50.59
711.853	50.7
712.256	50.77
712.66	50.84
713.064	50.94
713.467	51.04
713.87	51.15
714.274	51.2
714.677	51.31
715.08	51.37
715.484	51.5
715.887	51.57
716.29	51.63
716.693	51.73
717.096	51.8
717.499	51.87
717.901	51.95
718.304	52.01
718.707	52.11
719.109	52.16
719.512	52.23
719.915	52.28
720.317	52.32
720.719	52.36
721.122	52.42
721.524	52.47
721.926	52.53
722.328	52.59
722.731	52.63
723.133	52.67
723.535	52.74
723.937	52.79
724.338	52.81
724.74	52.87
725.142	52.99
725.544	53.02
725.945	53.11
726.347	53.12
726.748	53.12
727.15	53.14
727.551	53.18
727.952	53.17
728.354	53.17
728.755	53.2
729.156	53.21
729.557	53.13
729.958	53.14
730.359	53.12
730.76	53.15
731.161	53.17
731.562	53.2
731.962	53.21
732.363	53.24
732.763	53.28
733.164	53.32
733.564	53.32
733.965	53.35
734.365	53.37
734.766	53.39
735.166	53.39
735.566	53.41
735.966	53.43
736.366	53.44
736.766	53.42
737.166	53.42
737.566	53.42
737.966	53.44
738.365	53.45
738.765	53.46
739.165	53.48
739.564	53.49
739.964	53.51
740.363	53.48
740.763	53.47
741.162	53.49
741.561	53.45
741.96	53.44
742.36	53.42
742.759	53.39
743.158	53.38
743.557	53.35
743.955	53.37
744.354	53.35
744.753	53.36
745.152	53.39
745.55	53.38
745.949	53.42
746.348	53.46
746.746	53.46
747.144	53.49
747.543	53.5
747.941	53.53
748.339	53.5
748.737	53.49
749.136	53.47
749.534	53.46
749.932	53.46
750.33	53.47
750.727	53.46
751.125	53.47
751.523	53.45
751.921	53.44
752.318	53.42
752.716	53.42
753.113	53.42
753.511	53.41
753.908	53.43
754.305	53.45
754.703	53.43
755.1	53.42
755.497	53.41
755.894	53.42
756.291	53.43
756.688	53.41
757.085	53.41
757.482	53.42
757.878	53.45
758.275	53.43
758.672	53.42
759.068	53.44
759.465	53.42
759.861	53.41
760.258	53.41
760.654	53.35
761.05	53.39
761.447	53.4
761.843	53.34
762.239	53.32
762.635	53.3
763.031	53.28
763.427	53.23
763.822	53.23
764.218	53.24
764.614	53.23
765.01	53.23
765.405	53.2
765.801	53.17
766.196	53.19
766.592	53.17
766.987	53.18
767.382	53.18
767.778	53.19
768.173	53.17
768.568	53.12
768.963	53.09
769.358	53.1
769.753	53.1
770.148	53.11
770.542	53.11
770.937	53.1
771.332	53.07
771.726	53.05
772.121	53.04
772.515	53.06
772.91	53.07
773.304	53.08
773.699	53.07
774.093	53.04
774.487	53.01
774.881	53.02
775.275	53.02
775.669	53.03
776.063	53.02
776.457	53.02
776.851	53
777.245	52.98
777.638	52.97
778.032	52.98
778.425	53.01
778.819	53.03
779.212	53.03
779.606	53.04
779.999	53.04
780.392	53.07
780.786	53.04
781.179	53.05
781.572	53.09
781.965	53.11
782.358	53.11
782.751	53.12
783.143	53.13
783.536	53.12
783.929	53.1
784.322	53.11
784.714	53.09
785.107	53.15
785.499	53.16
785.891	53.14
786.284	53.13
786.676	53.11
787.068	53.08
787.46	53.08
787.852	53.11
788.245	53.13
788.636	53.11
789.028	53.12
789.42	53.06
789.812	53.07
790.204	53.09
790.595	53.08
790.987	53.11
791.378	53.13
791.77	53.13
792.161	53.08
792.553	53.06
792.944	53.05
793.335	53.02
793.726	53.04
794.117	53.03
794.508	53
794.899	53.01
795.29	52.98
795.681	52.95
796.072	52.94
796.463	52.96
796.853	52.97
797.244	53
797.634	53.02
798.025	53.05
798.415	53.02
798.806	53.02
799.196	53.04
799.586	53.04
799.976	53.07
800.366	53.08
800.756	53.07
801.146	53.07
801.536	53.06
801.926	53.04
802.316	53.05
802.706	53.09
803.095	53.09
803.485	53.09
803.874	53.06
804.264	53.05
804.653	53.04
805.043	53.02
805.432	53.01
805.821	53.03
806.21	53.06
806.599	53.03
806.988	53.03
807.377	53.01
807.766	53.01
808.155	53.01
808.544	53.03
808.933	53.02
809.321	53.02
809.71	53.01
810.098	52.99
810.487	52.95
810.875	52.95
811.264	52.93
811.652	52.95
812.04	52.93
812.428	52.96
812.816	52.89
813.204	52.88
813.592	52.85
813.98	52.87
814.368	52.88
814.756	52.91
815.144	52.9
815.531	52.88
815.919	52.87
816.306	52.88
816.694	52.87
817.081	52.9
817.469	52.92
817.856	52.92
818.243	52.91
818.63	52.89
819.017	52.84
819.404	52.82
819.791	52.82
820.178	52.81
820.565	52.78
820.952	52.74
821.339	52.74
821.725	52.74
822.112	52.78
822.498	52.77
822.885	52.78
823.271	52.8
823.657	52.77
824.044	52.76
824.43	52.79
824.816	52.81
825.202	52.82
825.588	52.81
825.974	52.79
826.36	52.77
826.746	52.77
827.132	52.79
827.517	52.81
827.903	52.83
828.289	52.88
828.674	52.86
829.06	52.86
829.445	52.86
829.83	52.86
830.216	52.86
830.601	52.86
830.986	52.87
831.371	52.84
831.756	52.81
832.141	52.81
832.526	52.78
832.911	52.76
833.295	52.77
833.68	52.78
834.065	52.78
834.449	52.78
834.834	52.76
835.218	52.75
835.603	52.73
835.987	52.72
836.371	52.7
836.755	52.7
837.139	52.66
837.524	52.66
837.908	52.69
838.291	52.69
838.675	52.67
839.059	52.67
839.443	52.66
839.827	52.65
840.21	52.65
840.594	52.67
840.977	52.66
841.361	52.69
841.744	52.65
842.127	52.6
842.511	52.56
842.894	52.56
843.277	52.55
843.66	52.53
844.043	52.55
844.426	52.53
844.809	52.53
845.191	52.54
845.574	52.53
845.957	52.54
846.339	52.55
846.722	52.57
847.104	52.58
847.487	52.58
847.869	52.59
848.252	52.58
848.634	52.58
849.016	52.55
849.398	52.56
849.78	52.55
850.162	52.54
850.544	52.55
850.926	52.54
851.307	52.54
851.689	52.54
852.071	52.52
852.452	52.51
852.834	52.52
853.215	52.53
853.597	52.52
853.978	52.51
854.359	52.52
854.741	52.52
855.122	52.51
855.503	52.46
855.884	52.45
856.265	52.44
856.646	52.43
857.026	52.44
857.407	52.45
857.788	52.42
858.169	52.43
858.549	52.41
858.93	52.41
859.31	52.42
859.69	52.45
860.071	52.47
860.451	52.49
860.831	52.5
861.211	52.47
861.591	52.46
861.971	52.46
862.351	52.48
862.731	52.48
863.111	52.46
863.491	52.44
863.87	52.43
864.25	52.4
864.629	52.4
865.009	52.38
865.388	52.38
865.768	52.37
866.147	52.37
866.526	52.33
866.905	52.34
867.284	52.35
867.663	52.33
868.042	52.32
868.421	52.32
868.8	52.32
869.179	52.33
869.558	52.33
869.936	52.31
870.315	52.31
870.693	52.32
871.072	52.33
871.45	52.33
871.828	52.37
872.207	52.4
872.585	52.41
872.963	52.43
873.341	52.42
873.719	52.44
874.097	52.46
874.475	52.47
874.853	52.48
875.23	52.49
875.608	52.5
875.986	52.51
876.363	52.49
876.741	52.49
877.118	52.47
877.495	52.48
877.873	52.47
878.25	52.48
878.627	52.47
879.004	52.47
879.381	52.44
879.758	52.4
880.135	52.36
880.512	52.36
880.889	52.35
881.265	52.34
881.642	52.35
882.019	52.35
882.395	52.32
882.772	52.3
883.148	52.28
883.524	52.27
883.901	52.3
884.277	52.28
884.653	52.24
885.029	52.24
885.405	52.23
885.781	52.21
886.157	52.19
886.532	52.2
886.908	52.18
887.284	52.18
887.659	52.17
888.035	52.14
888.411	52.13
888.786	52.14
889.161	52.12
889.537	52.09
889.912	52.09
890.287	52.07
890.662	52.05
891.037	52.05
891.412	52.02
891.787	52.01
892.162	52
892.536	51.99
892.911	51.99
893.286	51.99
893.66	52.02
894.035	52
894.409	51.99
894.784	51.99
895.158	52
895.532	52.02
895.906	52.02
896.281	52.03
896.655	52.02
897.029	52.06
897.402	52.04
897.776	52.03
898.15	52.04
898.524	52.06
898.898	52.07
899.271	52.06
899.645	52.08
900.018	52.1
900.392	52.12
900.765	52.13
901.138	52.08
901.511	52.11
901.884	52.12
902.258	52.12
902.631	52.13
903.003	52.13
903.376	52.17
903.749	52.16
904.122	52.18
904.495	52.19
904.867	52.2
905.24	52.24
905.612	52.23
905.985	52.22
906.357	52.22
906.729	52.2
907.102	52.21
907.474	52.2
907.846	52.2
908.218	52.17
908.59	52.16
908.962	52.15
909.334	52.14
909.705	52.17
910.077	52.17
910.449	52.17
910.82	52.18
911.192	52.19
911.563	52.17
911.935	52.17
912.306	52.18
912.677	52.2
913.048	52.19
913.419	52.18
913.79	52.17
914.161	52.17
914.532	52.17
914.903	52.16
915.274	52.15
915.645	52.15
916.015	52.15
916.386	52.16
916.756	52.16
917.127	52.2
917.497	52.2
917.868	52.21
918.238	52.18
918.608	52.2
918.978	52.2
919.348	52.21
919.718	52.21
920.088	52.23
920.458	52.23
920.828	52.19
921.198	52.18
921.567	52.17
921.937	52.17
922.306	52.18
922.676	52.18
923.045	52.16
923.415	52.15
923.784	52.14
924.153	52.16
924.522	52.18
924.891	52.21
925.26	52.19
925.629	52.21
925.998	52.18
926.367	52.19
926.736	52.17
927.104	52.19
927.473	52.16
927.842	52.15
928.21	52.12
928.578	52.05
928.947	52.02
929.315	52.01
929.683	52
930.051	51.97
930.42	51.95
930.788	51.91
931.156	51.86
931.523	51.84
931.891	51.84
932.259	51.82
932.627	51.84
932.994	51.83
933.362	51.85
933.729	51.82
934.097	51.84
934.464	51.85
934.831	51.88
935.199	51.9
935.566	51.95
935.933	51.92
936.3	51.93
936.667	51.92
937.034	51.95
937.401	51.95
937.767	52
938.134	52
938.501	51.97
938.867	52
939.234	52
939.6	51.99
939.967	52.04
940.333	51.99
940.699	52
941.065	51.92
941.431	51.89
941.798	51.85
942.163	51.81
942.529	51.84
942.895	51.8
943.261	51.76
943.627	51.73
943.992	51.68
944.358	51.68
944.723	51.6
945.089	51.55
945.454	51.59
945.82	51.55
946.185	51.52
946.55	51.42
946.915	51.34
947.28	51.32
947.645	51.28
948.01	51.31
948.375	51.27
948.74	51.28
949.104	51.36
949.469	51.28
949.834	51.28
950.198	51.25
950.562	51.24
950.927	51.22
951.291	51.16
951.655	51.11
952.02	51.06
952.384	51.04
952.748	50.98
953.112	50.98
953.476	50.85
953.839	50.76
954.203	50.77
954.567	50.77
954.931	50.79
955.294	50.78
955.658	50.85
956.021	50.81
956.385	50.8
956.748	50.78
957.111	50.7
957.474	50.79
957.837	50.8
958.2	50.76
958.563	50.71
958.926	50.67
959.289	50.67
959.652	50.59
960.015	50.61
960.377	50.64
960.74	50.66
961.102	50.66
961.465	50.71
961.827	50.78
962.189	50.83
962.552	50.86
962.914	50.88
963.276	50.93
963.638	50.95
964	50.93
964.362	50.92
964.724	50.91
965.085	50.85
965.447	50.75
965.809	50.7
966.17	50.69
966.532	50.68
966.893	50.69
967.255	50.7
967.616	50.74
967.977	50.8
968.338	50.82
968.699	50.88
969.061	50.92
969.421	51.01
969.782	51.02
970.143	50.98
970.504	51.03
970.865	51.08
971.225	51.06
971.586	51.01
971.946	50.94
972.307	50.9
972.667	50.89
973.027	50.92
973.388	50.89
973.748	50.89
974.108	50.97
974.468	50.91
974.828	50.89
975.188	50.91
975.548	50.93
975.907	50.92
976.267	50.92
976.627	50.92
976.986	50.93
977.346	50.89
977.705	50.91
978.064	50.89
978.424	50.95
978.783	50.9
979.142	50.89
979.501	50.9
979.86	50.94
980.219	50.94
980.578	50.98
980.937	50.99
981.296	50.98
981.654	50.97
982.013	50.96
982.371	50.9
982.73	50.93
983.088	50.87
983.447	50.85
983.805	50.88
984.163	50.9
984.521	50.8
984.879	50.7
985.237	50.78
985.595	50.84
985.953	50.82
986.311	50.84
986.669	50.81
987.026	50.76
987.384	50.78
987.741	50.75
988.099	50.81
988.456	50.81
988.814	50.88
989.171	50.84
989.528	50.78
989.885	50.82
990.242	50.82
990.599	50.91
990.956	50.92
991.313	50.93
991.67	50.91
992.027	50.95
992.383	50.97
992.74	51.06
993.096	51.08
993.453	51.05
993.809	51.02
994.165	51.06
994.522	51.04
994.878	51.21
995.234	51.2
995.59	51.18
995.946	51.13
996.302	51.21
996.658	51.16
997.013	51.13
997.369	51.22
997.725	51.32
998.08	51.36
998.436	51.44
998.791	51.36
999.147	51.38
999.502	51.49
999.857	51.5
1000.212	51.4
1000.567	51.46
1000.922	51.45
1001.277	51.43
1001.632	51.33
1001.987	51.43
1002.342	51.35
1002.696	51.37
1003.051	51.42
1003.406	51.45
1003.76	51.43
1004.114	51.45
1004.469	51.4
1004.823	51.83
1005.177	51.82
1005.531	51.92
1005.885	51.89
1006.239	51.84
1006.593	52
1006.947	51.98
1007.301	51.85
1007.655	51.81
1008.008	52.04
1008.362	52.1
1008.715	51.78
1009.069	51.78
1009.422	51.78
1009.776	51.66
1010.129	51.75
1010.482	51.62
1010.835	51.63
1011.188	51.69
1011.541	51.8
1011.894	51.69
1012.247	51.68
1012.6	51.7
1012.952	51.64
1013.305	51.67
1013.657	51.71
1014.01	51.77
1014.362	51.78
1014.715	52.09
1015.067	52.18
1015.419	52.43
1015.771	52.39
1016.123	52.47
1016.475	52.44
1016.827	52.72
1017.179	52.7
1017.531	52.8
1017.883	52.8
1018.234	52.93
1018.586	52.88
1018.938	53.06
1019.289	52.79
1019.64	52.73
1019.992	52.65
1020.343	52.76
1020.694	52.68
1021.045	52.74
1021.396	52.76
1021.747	52.84
1022.098	52.94
1022.449	52.75
1022.8	52.7
1023.151	52.9
1023.501	52.93
1023.852	53.16
1024.202	53
1024.553	52.99
1024.903	53.01
1025.253	53.06
1025.604	53.06
1025.954	52.55
1026.304	52.61
1026.654	52.5
1027.004	52.29
1027.354	52.33
1027.703	52.02
1028.053	52.18
1028.403	52.22
1028.753	51.89
1029.102	52
1029.452	52.14
1029.801	52.73
1030.15	52.67
1030.499	52.52
897.758	1272.93
901.051	1290.82
904.343	1281.47
907.636	1307.18
910.928	1271.78
914.22	1269.76
917.511	1253.82
920.803	1198.22
924.094	1192.23
927.384	1163.77
930.675	1120.23
933.965	1115.1
937.255	1044.42
940.544	1005.18
943.834	955.07
947.123	947.41
950.411	893.06
953.7	875.17
956.988	826.23
960.276	797.15
963.563	784.8
966.851	756.16
970.138	749.44
973.424	726.1
976.711	730.78
979.997	696.22
983.283	692.4
986.568	678.19
989.853	657.73
993.138	648.89
996.423	620.85
999.708	604.44
1002.992	597.85
1006.275	572.29
1009.559	568.94
1012.842	547.72
1016.125	532.79
1019.408	522.97
1022.69	517.42
1025.972	506.23
1029.254	494.13
1032.536	487
1035.817	474.95
1039.098	469.93
1042.379	461.09
1045.659	454.55
1048.939	443.8
1052.219	434.63
1055.498	429.25
1058.778	418.03
1062.057	409.24
1065.335	405.06
1068.614	399.73
1071.892	397.04
1075.17	384.45
1078.447	376.47
1081.724	373.43
1085.001	370.88
1088.278	363.6
1091.554	356.33
1094.83	356.84
1098.106	354.99
1101.382	351.68
1104.657	349.81
1107.932	343.48
1111.206	345
1114.481	336.86
1117.755	333.85
1121.029	331.68
1124.302	331.62
1127.575	324.26
1130.848	320.31
1134.121	316.31
1137.393	314.39
1140.665	307.45
1143.937	305.18
1147.208	304.21
1150.48	303.22
1153.75	299.94
1157.021	295.46
1160.291	295.42
1163.561	293
1166.831	292.33
1170.101	290.23
1173.37	289.97
1176.639	291.25
1179.907	288.42
1183.176	283.92
1186.444	284.15
1189.711	283.45
1192.979	282.66
1196.246	280.81
1199.513	281.08
1202.78	280.11
1206.046	280.23
1209.312	276.76
1212.578	276.78
1215.843	279.62
1219.108	278.39
1222.373	283.83
1225.638	286.03
1228.902	289.85
1232.166	289.54
1235.43	293.22
1238.693	296.63
1241.956	297.48
1245.219	303.31
1248.482	303.85
1251.744	303.49
1255.006	303.85
1258.268	296.8
1261.529	294.07
1264.79	291.62
1268.051	291
1271.312	286.83
1274.572	283.09
1277.832	281.27
1281.092	275.88
1284.351	273.26
1287.61	273.54
1290.869	269.54
1294.128	267.34
1297.386	268.34
1300.644	264.69
1303.902	265.26
1307.159	264.31
1310.416	264.32
1313.673	263.96
1316.93	266.42
1320.186	266.42
1323.442	266.96
1326.697	271.97
1329.953	272.81
1333.208	271.89
1336.463	276.39
1339.717	276.52
1342.972	279.41
1346.226	282.76
1349.479	282.86
1352.733	284.81
1355.986	286.38
1359.238	286.24
1362.491	287.24
1365.743	289.19
1368.995	290
1372.247	288.94
1375.498	288.79
1378.749	290.23
1382	286.46
1385.251	286.87
1388.501	284.7
1391.751	285.12
1395	283.41
1398.25	281.28
1401.499	279.46
1404.748	278.99
1407.996	275.9
1411.244	274.6
1414.492	272.97
1417.74	269.53
1420.987	265.69
1424.234	265.39
1427.481	260.99
1430.728	260.86
1433.974	258.42
1437.22	256.54
1440.465	255.26
1443.711	253.38
1446.956	251.49
1450.201	248.4
1453.445	246.61
1456.689	246.19
1459.933	241.59
1463.177	240.22
1466.42	236.09
1469.663	232.86
1472.906	231.47
1476.148	225.81
1479.391	223.34
1482.633	221.75
1485.874	218.16
1489.115	216.33
1492.356	213.77
1495.597	213.36
1498.838	210.01
1502.078	208.81
1505.318	208.19
1508.557	208.07
1511.797	207.5
1515.036	206.29
1518.274	205.23
1521.513	203.84
1524.751	203.78
1527.989	203.6
1531.227	202.77
1534.464	203.71
1537.701	202.04
1540.938	201.7
1544.174	199.24
1547.41	199.49
1550.646	198.16
1553.882	198.49
1557.117	196.4
1560.352	194.89
1563.587	194.02
1566.821	192.69
1570.055	191.35
1573.289	189.85
1576.523	189.42
1579.756	188.23
1582.989	187.14
1586.222	187.03
1589.454	185.9
1592.686	187.42
1595.918	186.44
1599.15	185.75
1602.381	186.38
1605.612	185.65
1608.843	186.96
1612.073	186.91
1615.303	187.98
1618.533	187.7
1621.762	187.84
1624.992	187.61
1628.221	187.19
1631.449	187.86
1634.678	187.2
1637.906	187.88
1641.134	188.17
1644.361	187.78
1647.588	188.2
1650.815	187.27
1654.042	186.99
1657.269	188.24
1660.495	188.73
1663.72	188.27
1666.946	188.96
1670.171	189.97
1673.396	189.34
1676.621	189.5
1679.845	189.95
1683.069	190
1686.293	191.23
1689.517	192.71
1692.74	192.1
1695.963	192.41
1699.185	194.26
1702.408	194.29
1705.63	194.81
1708.852	195.42
1712.073	195.24
1715.294	195.7
1718.515	196.29
1721.736	195.92
1724.956	195.97
1728.176	196.31
1731.396	198.21
1734.616	197.19
1737.835	197.75
1741.054	196.81
1744.272	197.01
1747.491	199.6
1750.709	199.27
1753.927	199.51
1757.144	198.93
1760.361	199.65
1763.578	199.67
1766.795	199
1770.011	200.44
1773.227	199.99
1776.443	202.53
1779.658	203.74
1782.874	202.58
1786.089	203.53
1789.303	204.21
1792.518	207.02
1795.732	206.8
1798.945	209.02
1802.159	209.02
1805.372	209.71
1808.585	213.76
1811.797	214.11
1815.01	213.98
1818.222	215.93
1821.434	217.18
1824.645	218.24
1827.856	221.39
1831.067	222.91
1834.278	222.36
1837.488	224.19
1840.698	225.9
1843.908	223.64
1847.117	224.54
1850.326	226.59
1853.535	225.78
1856.744	228.78
1859.952	228.6
1863.16	226.41
1866.368	225.75
1869.575	227.23
1872.782	223.78
1875.989	222.54
1879.196	221.76
1882.402	219.87
1885.608	220.33
1888.814	220.47
1892.019	220.2
1895.224	218.95
1898.429	218.52
1901.634	219.29
1904.838	220.07
1908.042	222.26
1911.246	223.24
1914.449	224.65
1917.652	224.76
1920.855	224.6
1924.058	224.08
1927.26	223.09
1930.462	224.21
1933.664	226.56
1936.865	224.72
1940.066	223.63
1943.267	222.7
1946.467	222.26
1949.668	223.72
1952.868	226.56
1956.067	226.46
1959.267	226.64
1962.466	227.4
1965.665	226.67
1968.863	226.85
1972.061	230.22
1975.259	232.82
1978.457	234.96
1981.654	236.55
1984.852	236.6
1988.048	235.66
1991.245	237.98
1994.441	241.01
1997.637	243.02
2000.833	246.94
2004.028	251.06
2007.223	251.68
2010.418	254.62
2013.613	257.98
2016.807	261.14
2020.001	263.35
2023.194	268.1
2026.388	273.76
2029.581	280.32
2032.774	282.23
2035.966	288.18
2039.158	287.97
2042.35	293.93
2045.542	295.36
2048.733	301.02
2051.924	304.19
2055.115	309.71
2058.306	309.89
2061.496	312.5
2064.686	311.83
2067.875	318.03
2071.065	319.51
2074.254	317.5
2077.442	322.2
2080.631	322.93
2083.819	325.38
2087.007	326.52
2090.195	330.64
2093.382	333.8
2096.569	332.14
2099.756	337.55
2102.942	337.89
2106.128	340.27
2109.314	348.63
2112.5	345.9
2115.685	353.63
2118.87	354.15
2122.055	361.5
2125.239	363.57
2128.424	367.66
2131.608	371.65
2134.791	375.75
2137.974	377.62
2141.157	379.5
2144.34	380.25
2147.523	386.13
2150.705	384.35
2153.887	388.45
2157.068	388.99
2160.25	385.07
2163.431	387.18
2166.611	391.25
2169.792	399.17
2172.972	403.17
2176.152	404.93
2179.331	410.12
2182.511	417.23
2185.69	421.13
2188.868	430.53
2192.047	431.19
2195.225	445.12
2198.403	455.49
2201.58	463.46
2204.758	472.26
2207.935	481.87
2211.111	491.39
2214.288	497.15
2217.464	498.03
2220.64	507.21
2223.815	512.83
2226.991	535.41
2230.166	535.49
2233.34	544.54
2236.515	553.02
2239.689	554.2
2242.863	557.63
2246.036	572.88
2249.209	569.51
2252.382	580.48
2255.555	596.13
2258.727	597.68
2261.9	600.35
2265.071	607.26
2268.243	616.17
2271.414	623.68
2274.585	637.81
2277.756	644.67
2280.926	649.77
2284.096	663.87
2287.266	677.7
2290.436	683.61
2293.605	699.7
2296.774	719.74
2299.942	742.17
2303.111	747.79
2306.279	765.49
2309.447	774.83
2312.614	794.37
2315.781	815.33
2318.948	855.5
2322.115	843.53
2325.281	890.34
2328.447	872.33
2331.613	906.39
2334.779	895.68
2337.944	935.39
2341.109	944.65
2344.274	971.19
2347.438	1004.98
2350.602	1005.76
2353.766	1040.44
2356.929	1055.14
2360.092	1047.44
2363.255	1121.67
2366.418	1121.13
2369.58	1143.38
2372.742	1213.78
2375.904	1242.81
2379.066	1233.76
2382.227	1210.21
2385.388	1313.1
2388.548	1306.88
2391.709	1323.32
2394.869	1474.37
2398.029	1411.31
2401.188	1452.37
2404.347	1437.82
2407.506	1414.06
2410.665	1449.07
2413.823	1542.05
2416.981	1634.34
2420.139	1579.67
2423.296	1564.97
2426.453	1630.33
2429.61	1567.66
2432.767	1644.34
2435.923	1623.69
2439.079	1781.77
2442.235	1802.83
2445.391	1792.14
2448.546	1777.89
2451.701	1727.57
2454.855	1724.5
2458.009	1828.54
2461.163	1910.7
2464.317	1980.18
2467.471	2022.46
2470.624	2028.74
2473.777	1973.84
2476.929	1926.65
2480.082	1873.81
2483.234	1848.06
2486.385	1939.26
2489.537	1951.34
2492.688	2021.04
2495.839	1963.47
2498.989	1919.21
2502.14	1938.19
2505.29	1949.78
2508.439	1983.72
2511.589	1976.64
2514.738	2155.39
2517.887	2106.72
2521.035	2220.74
2524.183	2248.67
2527.331	2265.08
2530.479	2253.98
2533.627	2272.81
