Data from C_2_DIV_PA_2N_Splice17_13-43-07-363.txt Node
Date: Sat Mar 07 13:43:07 EST 2020
User: sa697716
Spectrometer: NQ5500242
Trigger mode: 0
Integration Time (sec): 1.450000E-1
Scans to average: 20
Nonlinearity correction enabled: false
Boxcar width: 5
Storing dark spectrum: false
XAxis mode: Wavelengths
Number of Pixels in Spectrum: 512
>>>>>Begin Spectral Data<<<<<
187.83	207.4
188.298	239.57
188.766	224.87
189.233	184.5
189.701	189.24
190.169	230.23
190.636	241.13
191.104	364.14
191.571	83.12
192.039	-242.21
192.506	-830.41
192.974	35.87
193.441	130.73
193.908	87.98
194.375	55.24
194.842	13.19
195.31	52.89
195.777	117.31
196.244	79.44
196.711	68.5
197.177	71.04
197.644	71.23
198.111	71.9
198.578	72.17
199.045	72.31
199.511	72.28
199.978	72.36
200.445	73.04
200.911	72.61
201.378	72.42
201.844	72.74
202.31	72.27
202.777	71.98
203.243	71.63
203.709	70.79
204.176	69.94
204.642	69.4
205.108	68.57
205.574	67.47
206.04	66.75
206.506	66.24
206.972	65.49
207.438	64.79
207.903	63.88
208.369	62.74
208.835	61.91
209.301	60.85
209.766	58.93
210.232	57.42
210.697	55.87
211.163	54.51
211.628	53.13
212.094	51.8
212.559	50.58
213.024	49.38
213.49	48.29
213.955	47.09
214.42	45.8
214.885	44.57
215.35	42.95
215.815	40.84
216.28	38.03
216.745	34.83
217.21	31.77
217.675	28.88
218.14	26.39
218.604	24.19
219.069	22.37
219.534	20.99
219.998	19.8
220.463	18.78
220.927	17.85
221.392	17.18
221.856	16.62
222.32	16.15
222.785	15.74
223.249	15.37
223.713	15.05
224.177	14.78
224.642	14.5
225.106	14.24
225.57	13.97
226.034	13.78
226.497	13.56
226.961	13.35
227.425	13.15
227.889	12.95
228.353	12.75
228.816	12.56
229.28	12.36
229.744	12.17
230.207	11.98
230.671	11.82
231.134	11.66
231.597	11.54
232.061	11.38
232.524	11.23
232.987	11.09
233.45	10.99
233.914	10.86
234.377	10.76
234.84	10.63
235.303	10.54
235.766	10.45
236.229	10.34
236.691	10.23
237.154	10.14
237.617	10.06
238.08	9.97
238.542	9.87
239.005	9.81
239.468	9.7
239.93	9.63
240.393	9.55
240.855	9.45
241.317	9.37
241.78	9.28
242.242	9.19
242.704	9.12
243.166	9.03
243.629	8.97
244.091	8.88
244.553	8.8
245.015	8.72
245.477	8.65
245.939	8.57
246.4	8.49
246.862	8.42
247.324	8.35
247.786	8.27
248.247	8.2
248.709	8.11
249.17	8.03
249.632	7.98
250.093	7.93
250.555	7.87
251.016	7.83
251.477	7.76
251.939	7.72
252.4	7.67
252.861	7.63
253.322	7.58
253.783	7.54
254.244	7.5
254.705	7.45
255.166	7.4
255.627	7.35
256.088	7.3
256.549	7.27
257.009	7.21
257.47	7.16
257.931	7.1
258.391	7.04
258.852	6.99
259.312	6.94
259.773	6.89
260.233	6.85
260.694	6.81
261.154	6.76
261.614	6.72
262.074	6.68
262.534	6.64
262.994	6.61
263.455	6.59
263.915	6.56
264.374	6.53
264.834	6.52
265.294	6.48
265.754	6.47
266.214	6.45
266.673	6.44
267.133	6.43
267.593	6.42
268.052	6.41
268.512	6.4
268.971	6.39
269.431	6.38
269.89	6.37
270.349	6.36
270.809	6.35
271.268	6.35
271.727	6.34
272.186	6.33
272.645	6.32
273.104	6.3
273.563	6.29
274.022	6.28
274.481	6.28
274.94	6.27
275.399	6.26
275.857	6.25
276.316	6.24
276.775	6.23
277.233	6.22
277.692	6.21
278.15	6.21
278.609	6.22
279.067	6.22
279.525	6.21
279.984	6.2
280.442	6.19
280.9	6.19
281.358	6.18
281.816	6.19
282.274	6.19
282.732	6.17
283.19	6.16
283.648	6.14
284.106	6.12
284.564	6.11
285.021	6.11
285.479	6.1
285.937	6.08
286.394	6.07
286.852	6.05
287.309	6.03
287.767	6.02
288.224	6
288.682	5.98
289.139	5.96
289.596	5.94
290.053	5.91
290.511	5.88
290.968	5.87
291.425	5.85
291.882	5.84
292.339	5.83
292.796	5.8
293.252	5.79
293.709	5.78
294.166	5.77
294.623	5.77
295.079	5.76
295.536	5.75
295.992	5.74
296.449	5.73
296.905	5.73
297.362	5.71
297.818	5.71
298.274	5.71
298.731	5.7
299.187	5.68
299.643	5.67
300.099	5.66
300.555	5.66
301.011	5.64
301.467	5.64
301.923	5.63
302.379	5.62
302.835	5.62
303.291	5.61
303.746	5.61
304.202	5.61
304.658	5.61
305.113	5.6
305.569	5.6
306.024	5.59
306.479	5.58
306.935	5.57
307.39	5.57
307.845	5.56
308.301	5.56
308.756	5.55
309.211	5.55
309.666	5.55
310.121	5.54
310.576	5.54
311.031	5.54
311.486	5.55
311.94	5.55
312.395	5.55
312.85	5.55
313.305	5.54
313.759	5.54
314.214	5.55
314.668	5.54
315.123	5.54
315.577	5.54
316.032	5.53
316.486	5.52
316.94	5.51
317.394	5.49
317.849	5.47
318.303	5.46
318.757	5.44
319.211	5.43
319.665	5.41
320.119	5.4
320.572	5.38
321.026	5.36
321.48	5.36
321.934	5.34
322.387	5.33
322.841	5.33
323.295	5.33
323.748	5.33
324.202	5.32
324.655	5.32
325.108	5.32
325.562	5.32
326.015	5.32
326.468	5.32
326.921	5.33
327.374	5.33
327.827	5.34
328.28	5.33
328.733	5.33
329.186	5.33
329.639	5.33
330.092	5.32
330.545	5.33
330.997	5.33
331.45	5.34
331.903	5.34
332.355	5.35
332.808	5.35
333.26	5.34
333.713	5.34
334.165	5.34
334.617	5.34
335.069	5.34
335.522	5.34
335.974	5.34
336.426	5.33
336.878	5.31
337.33	5.31
337.782	5.31
338.234	5.32
338.686	5.31
339.137	5.32
339.589	5.31
340.041	5.3
340.493	5.28
340.944	5.26
341.396	5.26
341.847	5.26
342.299	5.23
342.75	5.21
343.201	5.18
343.653	5.17
344.104	5.14
344.555	5.12
345.006	5.11
345.457	5.11
345.908	5.1
346.359	5.09
346.81	5.07
347.261	5.07
347.712	5.07
348.163	5.06
348.613	5.07
349.064	5.07
349.515	5.06
349.965	5.07
350.416	5.06
350.866	5.05
351.317	5.05
351.767	5.05
352.217	5.06
352.668	5.05
353.118	5.06
353.568	5.04
354.018	5.06
354.468	5.06
354.918	5.07
355.368	5.07
355.818	5.08
356.268	5.08
356.718	5.09
357.168	5.09
357.617	5.09
358.067	5.08
358.517	5.1
358.966	5.1
359.416	5.11
359.865	5.1
360.315	5.11
360.764	5.11
361.213	5.1
361.663	5.09
362.112	5.11
362.561	5.12
363.01	5.12
363.459	5.11
363.908	5.1
364.357	5.1
364.806	5.1
365.255	5.1
365.703	5.11
366.152	5.13
366.601	5.14
367.05	5.14
367.498	5.14
367.947	5.15
368.395	5.15
368.844	5.16
369.292	5.15
369.74	5.16
370.189	5.17
370.637	5.18
371.085	5.17
371.533	5.16
371.981	5.17
372.429	5.17
372.877	5.18
373.325	5.18
373.773	5.18
374.221	5.19
374.669	5.19
375.116	5.19
375.564	5.2
376.012	5.21
376.459	5.22
376.907	5.24
377.354	5.24
377.801	5.26
378.249	5.28
378.696	5.28
379.143	5.3
379.591	5.32
380.038	5.34
380.485	5.34
380.932	5.35
381.379	5.38
381.826	5.39
382.273	5.4
382.72	5.4
383.166	5.4
383.613	5.41
384.06	5.41
384.506	5.42
384.953	5.43
385.4	5.44
385.846	5.45
386.292	5.46
386.739	5.47
387.185	5.48
387.631	5.49
388.078	5.51
388.524	5.53
388.97	5.56
389.416	5.59
389.862	5.61
390.308	5.65
390.754	5.68
391.2	5.7
391.645	5.73
392.091	5.76
392.537	5.79
392.983	5.81
393.428	5.84
393.874	5.85
394.319	5.86
394.765	5.87
395.21	5.88
395.655	5.89
396.101	5.92
396.546	5.94
396.991	5.95
397.436	5.98
397.881	6.03
398.326	6.05
398.771	6.08
399.216	6.09
399.661	6.11
400.106	6.11
400.551	6.12
400.995	6.12
401.44	6.13
401.885	6.15
402.329	6.16
402.774	6.16
403.218	6.19
403.663	6.2
404.107	6.22
404.551	6.23
404.995	6.24
405.44	6.26
405.884	6.28
406.328	6.3
406.772	6.31
407.216	6.32
407.66	6.33
408.104	6.31
408.547	6.32
408.991	6.33
409.435	6.35
409.879	6.38
410.322	6.4
410.766	6.42
411.209	6.45
411.653	6.45
412.096	6.47
412.54	6.49
412.983	6.52
413.426	6.57
413.869	6.58
414.312	6.61
414.756	6.63
415.199	6.63
415.642	6.64
416.085	6.64
416.527	6.64
416.97	6.63
417.413	6.63
417.856	6.61
418.298	6.58
418.741	6.58
419.184	6.56
419.626	6.55
420.069	6.56
420.511	6.55
420.953	6.56
421.396	6.58
421.838	6.59
422.28	6.61
422.722	6.64
423.164	6.65
423.606	6.66
424.048	6.67
424.49	6.67
424.932	6.68
425.374	6.65
425.816	6.6
426.258	6.59
426.699	6.58
427.141	6.58
427.582	6.57
428.024	6.58
428.465	6.58
428.907	6.58
429.348	6.57
429.789	6.56
430.231	6.63
430.672	6.68
431.113	6.7
431.554	6.72
431.995	6.72
432.436	6.72
432.877	6.74
433.318	6.77
433.759	6.8
434.2	6.84
434.64	6.87
435.081	6.86
435.522	6.87
435.962	6.88
436.403	6.89
436.843	6.9
437.284	6.89
437.724	6.88
438.164	6.85
438.604	6.86
439.045	6.86
439.485	6.85
439.925	6.85
440.365	6.85
440.805	6.84
441.245	6.84
441.685	6.87
442.125	6.89
442.564	6.88
443.004	6.88
443.444	6.88
443.883	6.88
444.323	6.86
444.762	6.84
445.202	6.83
445.641	6.85
446.081	6.86
446.52	6.84
446.959	6.85
447.398	6.88
447.837	6.88
448.276	6.87
448.716	6.87
449.154	6.89
449.593	6.9
450.032	6.88
450.471	6.85
450.91	6.82
451.349	6.82
451.787	6.78
452.226	6.74
452.664	6.72
453.103	6.7
453.541	6.68
453.98	6.66
454.418	6.63
454.856	6.62
455.295	6.6
455.733	6.57
456.171	6.54
456.609	6.54
457.047	6.53
457.485	6.52
457.923	6.51
458.361	6.5
458.798	6.5
459.236	6.49
459.674	6.48
460.111	6.48
460.549	6.5
460.987	6.5
461.424	6.49
461.862	6.5
462.299	6.5
462.736	6.51
463.173	6.51
463.611	6.52
464.048	6.54
464.485	6.55
464.922	6.56
465.359	6.56
465.796	6.6
466.233	6.61
466.67	6.62
467.106	6.63
467.543	6.62
467.98	6.6
468.416	6.59
468.853	6.57
469.29	6.56
469.726	6.56
470.162	6.55
470.599	6.51
471.035	6.49
471.471	6.46
471.907	6.43
472.344	6.43
472.78	6.42
473.216	6.39
473.652	6.38
474.088	6.35
474.523	6.34
474.959	6.32
475.395	6.28
475.831	6.26
476.266	6.25
476.702	6.23
477.138	6.21
477.573	6.19
478.008	6.18
478.444	6.16
478.879	6.16
479.314	6.15
479.75	6.13
480.185	6.11
480.62	6.1
481.055	6.08
481.49	6.08
481.925	6.06
482.36	6.05
482.795	6.04
483.229	6.02
483.664	6.02
484.099	6
484.534	5.99
484.968	6
485.403	5.99
485.837	5.99
486.271	5.98
486.706	5.98
487.14	5.97
487.574	5.97
488.009	5.97
488.443	5.96
488.877	5.96
489.311	5.97
489.745	5.96
490.179	5.97
490.613	5.97
491.046	5.98
491.48	5.99
491.914	6
492.348	6.01
492.781	6.02
493.215	6.03
493.648	6.03
494.082	6.04
494.515	6.05
494.948	6.06
495.382	6.06
495.815	6.07
496.248	6.08
496.681	6.1
497.114	6.11
497.547	6.12
497.98	6.14
498.413	6.14
498.846	6.16
499.279	6.17
499.711	6.18
500.144	6.21
500.577	6.23
501.009	6.24
501.442	6.26
501.874	6.29
502.306	6.31
502.739	6.35
503.171	6.38
503.603	6.42
504.036	6.45
504.468	6.49
504.9	6.52
505.332	6.55
505.764	6.6
506.196	6.64
506.627	6.68
507.059	6.74
507.491	6.77
507.923	6.83
508.354	6.89
508.786	6.95
509.217	7.02
509.649	7.09
510.08	7.15
510.512	7.22
510.943	7.3
511.374	7.37
511.805	7.44
512.237	7.52
512.668	7.61
513.099	7.7
513.53	7.79
513.961	7.88
514.391	7.99
514.822	8.12
515.253	8.22
515.684	8.34
516.114	8.47
516.545	8.6
516.975	8.73
517.406	8.84
517.836	8.97
518.267	9.12
518.697	9.24
519.127	9.37
519.558	9.48
519.988	9.62
520.418	9.74
520.848	9.87
521.278	10.01
521.708	10.39
522.138	10.54
522.567	10.67
522.997	10.79
523.427	10.92
523.857	11.06
524.286	11.19
524.716	11.33
525.145	11.47
525.575	11.59
526.004	11.72
526.433	11.58
526.863	11.69
527.292	11.81
527.721	11.92
528.15	12.02
528.579	12.12
529.008	12.23
529.437	12.3
529.866	12.39
530.295	12.48
530.724	12.57
531.152	12.64
531.581	12.72
532.01	12.8
532.438	12.87
532.867	12.93
533.295	12.99
533.723	13.04
534.152	13.1
534.58	13.15
535.008	13.19
535.436	13.24
535.865	13.28
536.293	13.31
536.721	13.33
537.149	13.38
537.576	13.42
538.004	13.46
538.432	13.49
538.86	13.53
539.287	13.54
539.715	13.58
540.143	13.59
540.57	13.62
540.998	13.64
541.425	13.68
541.852	13.7
542.28	13.71
542.707	13.72
543.134	13.73
543.561	13.75
543.988	13.79
544.415	13.8
544.842	13.82
545.269	13.84
545.696	13.87
546.123	13.89
546.549	13.91
546.976	13.94
547.403	13.97
547.829	13.99
548.256	14
548.682	14
549.108	14.02
549.535	14.02
549.961	14.02
550.387	14.01
550.813	14.01
551.24	14
551.666	13.98
552.092	13.96
552.518	13.97
552.943	13.96
553.369	13.96
553.795	13.93
554.221	13.91
554.646	13.88
555.072	13.86
555.498	13.82
555.923	13.78
556.349	13.74
556.774	13.7
557.199	13.65
557.625	13.6
558.05	13.54
558.475	13.49
558.9	13.44
559.325	13.41
559.75	13.34
560.175	13.28
560.6	13.21
561.025	13.15
561.449	13.07
561.874	12.98
562.299	12.91
562.723	12.81
563.148	12.73
563.572	12.64
563.997	12.53
564.421	12.42
564.846	12.32
565.27	12.23
565.694	12.12
566.118	12.01
566.542	11.92
566.966	11.82
567.39	11.73
567.814	11.62
568.238	11.52
568.662	11.43
569.086	11.34
569.509	11.26
569.933	11.16
570.357	11.08
570.78	10.99
571.204	10.91
571.627	10.82
572.05	10.74
572.474	10.67
572.897	10.6
573.32	10.53
573.743	10.45
574.166	10.38
574.589	10.31
575.012	10.25
575.435	10.19
575.858	10.13
576.281	10.07
576.704	10.02
577.126	9.97
577.549	9.91
577.972	9.85
578.394	9.8
578.817	9.76
579.239	9.71
579.661	9.67
580.084	9.64
580.506	9.59
580.928	9.54
581.35	9.49
581.772	9.44
582.194	9.41
582.616	9.38
583.038	9.33
583.46	9.29
583.882	9.26
584.303	9.21
584.725	9.17
585.147	9.16
585.568	9.13
585.99	9.1
586.411	9.07
586.833	9.04
587.254	9
587.675	8.97
588.096	8.94
588.518	8.91
588.939	8.9
589.36	8.87
589.781	8.84
590.202	8.83
590.623	8.81
591.043	8.79
591.464	8.76
591.885	8.74
592.305	8.73
592.726	8.72
593.147	8.7
593.567	8.66
593.987	8.64
594.408	8.62
594.828	8.57
595.248	8.56
595.669	8.55
596.089	8.55
596.509	8.54
596.929	8.52
597.349	8.49
597.769	8.47
598.189	8.45
598.608	8.43
599.028	8.42
599.448	8.39
599.867	8.36
600.287	8.33
600.706	8.31
601.126	8.28
601.545	8.26
601.965	8.25
602.384	8.23
602.803	8.21
603.222	8.19
603.641	8.14
604.061	8.13
604.48	8.1
604.898	8.07
605.317	8.04
605.736	8.01
606.155	7.98
606.574	7.94
606.992	7.9
607.411	7.87
607.829	7.81
608.248	7.77
608.666	7.73
609.085	7.71
609.503	7.69
609.921	7.66
610.339	7.63
610.758	7.6
611.176	7.57
611.594	7.56
612.012	7.52
612.43	7.53
612.847	7.5
613.265	7.48
613.683	7.45
614.101	7.42
614.518	7.39
614.936	7.35
615.353	7.32
615.771	7.28
616.188	7.25
616.606	7.24
617.023	7.21
617.44	7.2
617.857	7.17
618.274	7.14
618.691	7.12
619.108	7.1
619.525	7.08
619.942	7.08
620.359	7.07
620.776	7.06
621.192	7.05
621.609	7.04
622.026	7.02
622.442	7.02
622.859	7.02
623.275	7.01
623.691	7.01
624.108	7.01
624.524	7
624.94	6.99
625.356	6.99
625.772	6.97
626.188	6.96
626.604	6.96
627.02	6.95
627.436	6.95
627.852	6.95
628.268	6.94
628.683	6.93
629.099	6.92
629.514	6.91
629.93	6.91
630.345	6.9
630.761	6.89
631.176	6.89
631.591	6.88
632.007	6.87
632.422	6.85
632.837	6.84
633.252	6.83
633.667	6.82
634.082	6.8
634.497	6.79
634.911	6.78
635.326	6.76
635.741	6.74
636.155	6.71
636.57	6.7
636.984	6.69
637.399	6.68
637.813	6.65
638.228	6.62
638.642	6.59
639.056	6.57
639.47	6.55
639.884	6.53
640.298	6.5
640.712	6.48
641.126	6.45
641.54	6.41
641.954	6.38
642.368	6.36
642.781	6.34
643.195	6.32
643.609	6.3
644.022	6.26
644.436	6.25
644.849	6.22
645.262	6.19
645.676	6.17
646.089	6.15
646.502	6.14
646.915	6.13
647.328	6.11
647.741	6.1
648.154	6.08
648.567	6.08
648.98	6.06
649.393	6.05
649.805	6.04
650.218	6.03
650.631	6.02
651.043	6.01
651.456	6
651.868	5.98
652.28	5.98
652.693	5.97
653.105	5.96
653.517	5.94
653.929	5.94
654.341	5.93
654.753	5.92
655.165	5.91
655.577	5.91
655.989	5.89
656.401	5.87
656.813	5.86
657.224	5.84
657.636	5.81
658.047	5.81
658.459	5.79
658.87	5.77
659.282	5.75
659.693	5.74
660.104	5.72
660.515	5.7
660.926	5.69
661.338	5.67
661.749	5.67
662.159	5.67
662.57	5.65
662.981	5.64
663.392	5.63
663.803	5.62
664.213	5.62
664.624	5.61
665.035	5.6
665.445	5.59
665.855	5.6
666.266	5.6
666.676	5.59
667.086	5.58
667.497	5.59
667.907	5.59
668.317	5.59
668.727	5.59
669.137	5.6
669.547	5.6
669.956	5.62
670.366	5.62
670.776	5.62
671.186	5.63
671.595	5.63
672.005	5.63
672.414	5.66
672.824	5.67
673.233	5.67
673.642	5.68
674.052	5.68
674.461	5.69
674.87	5.69
675.279	5.72
675.688	5.72
676.097	5.74
676.506	5.76
676.915	5.76
677.323	5.77
677.732	5.78
678.141	5.79
678.549	5.82
678.958	5.84
679.366	5.87
679.775	5.87
680.183	5.91
680.592	5.93
681	5.96
681.408	5.99
681.816	6.02
682.224	6.05
682.632	6.08
683.04	6.11
683.448	6.13
683.856	6.15
684.264	6.19
684.671	6.21
685.079	6.24
685.487	6.29
685.894	6.34
686.302	6.38
686.709	6.44
687.116	6.51
687.524	6.58
687.931	6.67
688.338	6.76
688.745	6.87
689.152	6.97
689.559	7.11
689.966	7.26
690.373	7.41
690.78	7.59
691.187	7.77
691.593	7.96
692	8.17
692.407	8.4
692.813	8.65
693.22	8.9
693.626	9.18
694.032	9.46
694.439	9.75
694.845	10.07
695.251	10.38
695.657	10.72
696.063	11.07
696.469	11.44
696.875	11.81
697.281	12.19
697.687	12.6
698.093	13.01
698.498	13.42
698.904	13.84
699.31	14.26
699.715	14.7
700.12	15.16
700.526	15.61
700.931	16.06
701.337	16.52
701.742	16.96
702.147	17.39
702.552	17.85
702.957	18.3
703.362	18.75
703.767	19.19
704.172	19.64
704.577	20.08
704.981	20.55
705.386	20.99
705.791	21.44
706.195	21.91
706.6	22.37
707.004	22.82
707.408	23.27
707.813	23.74
708.217	24.2
708.621	24.67
709.025	25.11
709.43	25.55
709.834	26.02
710.237	26.46
710.641	26.91
711.045	27.36
711.449	27.82
711.853	28.29
712.256	28.72
712.66	29.16
713.064	29.59
713.467	30.05
713.87	30.5
714.274	30.94
714.677	31.38
715.08	31.79
715.484	32.22
715.887	32.66
716.29	33.06
716.693	33.5
717.096	33.93
717.499	34.34
717.901	34.73
718.304	35.11
718.707	35.49
719.109	35.89
719.512	36.28
719.915	36.66
720.317	36.99
720.719	37.33
721.122	37.69
721.524	38.03
721.926	38.39
722.328	38.74
722.731	39.08
723.133	39.42
723.535	39.73
723.937	40.06
724.338	40.34
724.74	40.67
725.142	41.16
725.544	41.44
725.945	41.78
726.347	42.01
726.748	42.24
727.15	42.48
727.551	42.73
727.952	42.97
728.354	43.18
728.755	43.42
729.156	43.62
729.557	43.64
729.958	43.82
730.359	43.98
730.76	44.21
731.161	44.41
731.562	44.62
731.962	44.76
732.363	44.97
732.763	45.15
733.164	45.32
733.564	45.51
733.965	45.67
734.365	45.84
734.766	45.98
735.166	46.12
735.566	46.26
735.966	46.4
736.366	46.55
736.766	46.65
737.166	46.79
737.566	46.92
737.966	47.03
738.365	47.16
738.765	47.27
739.165	47.37
739.564	47.48
739.964	47.57
740.363	47.64
740.763	47.75
741.162	47.83
741.561	47.9
741.96	47.95
742.36	48.02
742.759	48.11
743.158	48.17
743.557	48.23
743.955	48.32
744.354	48.38
744.753	48.46
745.152	48.55
745.55	48.62
745.949	48.68
746.348	48.78
746.746	48.81
747.144	48.86
747.543	48.89
747.941	48.94
748.339	48.95
748.737	48.99
749.136	48.99
749.534	48.97
749.932	48.99
750.33	48.99
750.727	49.01
751.125	49.06
751.523	49.08
751.921	49.1
752.318	49.13
752.716	49.19
753.113	49.21
753.511	49.27
753.908	49.35
754.305	49.43
754.703	49.46
755.1	49.49
755.497	49.52
755.894	49.53
756.291	49.56
756.688	49.6
757.085	49.61
757.482	49.64
757.878	49.66
758.275	49.66
758.672	49.64
759.068	49.69
759.465	49.71
759.861	49.72
760.258	49.74
760.654	49.79
761.05	49.82
761.447	49.83
761.843	49.84
762.239	49.85
762.635	49.86
763.031	49.86
763.427	49.85
763.822	49.85
764.218	49.87
764.614	49.89
765.01	49.86
765.405	49.84
765.801	49.85
766.196	49.84
766.592	49.84
766.987	49.85
767.382	49.83
767.778	49.83
768.173	49.85
768.568	49.84
768.963	49.83
769.358	49.86
769.753	49.86
770.148	49.86
770.542	49.87
770.937	49.87
771.332	49.88
771.726	49.9
772.121	49.92
772.515	49.91
772.91	49.91
773.304	49.92
773.699	49.9
774.093	49.9
774.487	49.91
774.881	49.96
775.275	49.97
775.669	49.96
776.063	49.97
776.457	49.95
776.851	49.96
777.245	49.93
777.638	49.92
778.032	49.92
778.425	49.96
778.819	50
779.212	49.99
779.606	50.01
779.999	50.02
780.392	50.05
780.786	50.06
781.179	50.08
781.572	50.15
781.965	50.18
782.358	50.19
782.751	50.16
783.143	50.16
783.536	50.15
783.929	50.16
784.322	50.17
784.714	50.16
785.107	50.17
785.499	50.17
785.891	50.14
786.284	50.14
786.676	50.18
787.068	50.2
787.46	50.17
787.852	50.17
788.245	50.16
788.636	50.16
789.028	50.16
789.42	50.15
789.812	50.16
790.204	50.19
790.595	50.2
790.987	50.18
791.378	50.22
791.77	50.25
792.161	50.24
792.553	50.24
792.944	50.24
793.335	50.26
793.726	50.28
794.117	50.26
794.508	50.22
794.899	50.21
795.29	50.22
795.681	50.15
796.072	50.13
796.463	50.2
796.853	50.19
797.244	50.19
797.634	50.2
798.025	50.21
798.415	50.22
798.806	50.25
799.196	50.27
799.586	50.28
799.976	50.33
800.366	50.34
800.756	50.31
801.146	50.33
801.536	50.34
801.926	50.33
802.316	50.32
802.706	50.34
803.095	50.36
803.485	50.35
803.874	50.36
804.264	50.36
804.653	50.37
805.043	50.4
805.432	50.38
805.821	50.39
806.21	50.39
806.599	50.41
806.988	50.43
807.377	50.39
807.766	50.4
808.155	50.38
808.544	50.38
808.933	50.37
809.321	50.35
809.71	50.36
810.098	50.38
810.487	50.37
810.875	50.37
811.264	50.36
811.652	50.41
812.04	50.41
812.428	50.44
812.816	50.43
813.204	50.43
813.592	50.43
813.98	50.44
814.368	50.45
814.756	50.46
815.144	50.45
815.531	50.45
815.919	50.41
816.306	50.4
816.694	50.39
817.081	50.41
817.469	50.44
817.856	50.43
818.243	50.42
818.63	50.39
819.017	50.38
819.404	50.37
819.791	50.39
820.178	50.4
820.565	50.41
820.952	50.41
821.339	50.38
821.725	50.38
822.112	50.4
822.498	50.38
822.885	50.4
823.271	50.41
823.657	50.39
824.044	50.38
824.43	50.38
824.816	50.39
825.202	50.39
825.588	50.39
825.974	50.38
826.36	50.38
826.746	50.4
827.132	50.4
827.517	50.45
827.903	50.48
828.289	50.5
828.674	50.51
829.06	50.49
829.445	50.48
829.83	50.49
830.216	50.5
830.601	50.51
830.986	50.51
831.371	50.49
831.756	50.46
832.141	50.45
832.526	50.45
832.911	50.44
833.295	50.46
833.68	50.46
834.065	50.45
834.449	50.43
834.834	50.41
835.218	50.4
835.603	50.4
835.987	50.37
836.371	50.35
836.755	50.33
837.139	50.29
837.524	50.27
837.908	50.27
838.291	50.28
838.675	50.27
839.059	50.29
839.443	50.25
839.827	50.24
840.21	50.24
840.594	50.28
840.977	50.27
841.361	50.28
841.744	50.25
842.127	50.26
842.511	50.23
842.894	50.22
843.277	50.19
843.66	50.19
844.043	50.21
844.426	50.21
844.809	50.2
845.191	50.23
845.574	50.24
845.957	50.27
846.339	50.28
846.722	50.31
847.104	50.33
847.487	50.33
847.869	50.35
848.252	50.34
848.634	50.33
849.016	50.35
849.398	50.31
849.78	50.33
850.162	50.32
850.544	50.29
850.926	50.28
851.307	50.29
851.689	50.32
852.071	50.31
852.452	50.32
852.834	50.34
853.215	50.35
853.597	50.37
853.978	50.35
854.359	50.37
854.741	50.38
855.122	50.38
855.503	50.37
855.884	50.34
856.265	50.34
856.646	50.34
857.026	50.35
857.407	50.33
857.788	50.32
858.169	50.35
858.549	50.34
858.93	50.35
859.31	50.35
859.69	50.38
860.071	50.42
860.451	50.43
860.831	50.45
861.211	50.43
861.591	50.41
861.971	50.4
862.351	50.4
862.731	50.42
863.111	50.42
863.491	50.44
863.87	50.41
864.25	50.4
864.629	50.42
865.009	50.42
865.388	50.43
865.768	50.45
866.147	50.46
866.526	50.48
866.905	50.49
867.284	50.5
867.663	50.48
868.042	50.52
868.421	50.54
868.8	50.53
869.179	50.54
869.558	50.55
869.936	50.55
870.315	50.53
870.693	50.53
871.072	50.53
871.45	50.54
871.828	50.56
872.207	50.58
872.585	50.57
872.963	50.57
873.341	50.57
873.719	50.58
874.097	50.58
874.475	50.6
874.853	50.59
875.23	50.61
875.608	50.59
875.986	50.6
876.363	50.58
876.741	50.59
877.118	50.6
877.495	50.6
877.873	50.62
878.25	50.64
878.627	50.66
879.004	50.64
879.381	50.62
879.758	50.62
880.135	50.6
880.512	50.55
880.889	50.54
881.265	50.51
881.642	50.49
882.019	50.47
882.395	50.45
882.772	50.41
883.148	50.41
883.524	50.39
883.901	50.37
884.277	50.33
884.653	50.31
885.029	50.29
885.405	50.3
885.781	50.26
886.157	50.25
886.532	50.24
886.908	50.23
887.284	50.24
887.659	50.21
888.035	50.21
888.411	50.21
888.786	50.23
889.161	50.24
889.537	50.23
889.912	50.26
890.287	50.26
890.662	50.25
891.037	50.27
891.412	50.24
891.787	50.25
892.162	50.26
892.536	50.26
892.911	50.28
893.286	50.29
893.66	50.28
894.035	50.28
894.409	50.28
894.784	50.3
895.158	50.28
895.532	50.3
895.906	50.3
896.281	50.33
896.655	50.37
897.029	50.38
897.402	50.38
897.776	50.42
898.15	50.43
898.524	50.46
898.898	50.48
899.271	50.51
899.645	50.57
900.018	50.62
900.392	50.63
900.765	50.62
901.138	50.6
901.511	50.6
901.884	50.6
902.258	50.61
902.631	50.61
903.003	50.62
903.376	50.61
903.749	50.59
904.122	50.58
904.495	50.59
904.867	50.61
905.24	50.65
905.612	50.69
905.985	50.68
906.357	50.68
906.729	50.69
907.102	50.68
907.474	50.7
907.846	50.7
908.218	50.7
908.59	50.7
908.962	50.71
909.334	50.7
909.705	50.69
910.077	50.71
910.449	50.73
910.82	50.75
911.192	50.78
911.563	50.77
911.935	50.76
912.306	50.78
912.677	50.78
913.048	50.79
913.419	50.78
913.79	50.76
914.161	50.77
914.532	50.76
914.903	50.77
915.274	50.74
915.645	50.79
916.015	50.83
916.386	50.84
916.756	50.83
917.127	50.84
917.497	50.87
917.868	50.91
918.238	50.91
918.608	50.92
918.978	50.91
919.348	50.96
919.718	50.94
920.088	50.92
920.458	50.93
920.828	50.93
921.198	50.92
921.567	50.95
921.937	50.95
922.306	50.99
922.676	51.02
923.045	51.02
923.415	51.01
923.784	51
924.153	51
924.522	51
924.891	50.99
925.26	50.99
925.629	50.98
925.998	50.99
926.367	50.96
926.736	50.91
927.104	50.91
927.473	50.88
927.842	50.88
928.21	50.89
928.578	50.89
928.947	50.91
929.315	50.92
929.683	50.94
930.051	50.92
930.42	50.93
930.788	50.93
931.156	50.94
931.523	51.01
931.891	51.08
932.259	51.1
932.627	51.11
932.994	51.14
933.362	51.18
933.729	51.2
934.097	51.26
934.464	51.32
934.831	51.35
935.199	51.4
935.566	51.41
935.933	51.37
936.3	51.36
936.667	51.37
937.034	51.45
937.401	51.47
937.767	51.52
938.134	51.52
938.501	51.55
938.867	51.59
939.234	51.6
939.6	51.59
939.967	51.66
940.333	51.67
940.699	51.74
941.065	51.6
941.431	51.58
941.798	51.48
942.163	51.4
942.529	51.31
942.895	51.28
943.261	51.21
943.627	51.17
943.992	51.09
944.358	51.1
944.723	50.97
945.089	50.91
945.454	50.86
945.82	50.8
946.185	50.77
946.55	50.72
946.915	50.66
947.28	50.65
947.645	50.64
948.01	50.65
948.375	50.62
948.74	50.61
949.104	50.65
949.469	50.57
949.834	50.53
950.198	50.5
950.562	50.48
950.927	50.45
951.291	50.38
951.655	50.31
952.02	50.21
952.384	50.12
952.748	50.09
953.112	50.1
953.476	50.1
953.839	50.11
954.203	50.16
954.567	50.13
954.931	50.1
955.294	50.09
955.658	50.16
956.021	50.17
956.385	50.16
956.748	50.21
957.111	50.13
957.474	50.17
957.837	50.11
958.2	50.05
958.563	50.02
958.926	50.04
959.289	50.09
959.652	50.03
960.015	50.03
960.377	50.03
960.74	49.98
961.102	50.03
961.465	50.08
961.827	50.23
962.189	50.31
962.552	50.34
962.914	50.33
963.276	50.36
963.638	50.42
964	50.4
964.362	50.44
964.724	50.45
965.085	50.44
965.447	50.38
965.809	50.31
966.17	50.16
966.532	50.14
966.893	50.18
967.255	50.19
967.616	50.14
967.977	50.18
968.338	50.18
968.699	50.18
969.061	50.17
969.421	50.21
969.782	50.24
970.143	50.37
970.504	50.44
970.865	50.49
971.225	50.46
971.586	50.46
971.946	50.45
972.307	50.43
972.667	50.37
973.027	50.42
973.388	50.36
973.748	50.37
974.108	50.4
974.468	50.31
974.828	50.32
975.188	50.25
975.548	50.2
975.907	50.25
976.267	50.26
976.627	50.37
976.986	50.31
977.346	50.33
977.705	50.27
978.064	50.29
978.424	50.33
978.783	50.27
979.142	50.28
979.501	50.38
979.86	50.37
980.219	50.39
980.578	50.41
980.937	50.48
981.296	50.5
981.654	50.52
982.013	50.51
982.371	50.6
982.73	50.66
983.088	50.7
983.447	50.66
983.805	50.7
984.163	50.71
984.521	50.67
984.879	50.62
985.237	50.64
985.595	50.75
985.953	50.68
986.311	50.56
986.669	50.54
987.026	50.52
987.384	50.52
987.741	50.49
988.099	50.63
988.456	50.62
988.814	50.69
989.171	50.72
989.528	50.68
989.885	50.74
990.242	50.87
990.599	50.91
990.956	51.04
991.313	51.12
991.67	51.18
992.027	51.3
992.383	51.38
992.74	51.49
993.096	51.51
993.453	51.6
993.809	51.59
994.165	51.75
994.522	51.85
994.878	51.95
995.234	52.04
995.59	52.04
995.946	51.88
996.302	51.95
996.658	51.88
997.013	51.91
997.369	51.96
997.725	52.05
998.08	52
998.436	51.91
998.791	51.92
999.147	51.89
999.502	52
999.857	52.07
1000.212	52.08
1000.567	52.2
1000.922	52.19
1001.277	52.18
1001.632	52.16
1001.987	52.11
1002.342	52.17
1002.696	52.1
1003.051	52.3
1003.406	52.46
1003.76	52.41
1004.114	52.47
1004.469	52.5
1004.823	52.82
1005.177	52.74
1005.531	52.9
1005.885	53.08
1006.239	53.16
1006.593	53.37
1006.947	53.17
1007.301	52.9
1007.655	52.94
1008.008	52.98
1008.362	53.13
1008.715	52.95
1009.069	53.06
1009.422	53.15
1009.776	53.07
1010.129	53.08
1010.482	53.01
1010.835	53.14
1011.188	53.33
1011.541	53.39
1011.894	53.39
1012.247	53.35
1012.6	53.41
1012.952	53.52
1013.305	53.45
1013.657	53.7
1014.01	53.76
1014.362	53.83
1014.715	54.11
1015.067	54.29
1015.419	54.44
1015.771	54.55
1016.123	54.54
1016.475	54.61
1016.827	54.64
1017.179	54.81
1017.531	54.61
1017.883	54.7
1018.234	55
1018.586	54.93
1018.938	55.08
1019.289	55.05
1019.64	54.96
1019.992	54.89
1020.343	54.99
1020.694	55.19
1021.045	55.29
1021.396	55.5
1021.747	55.63
1022.098	55.53
1022.449	55.67
1022.8	55.85
1023.151	55.91
1023.501	56.42
1023.852	56.67
1024.202	56.83
1024.553	56.84
1024.903	57.04
1025.253	57.48
1025.604	57.48
1025.954	57.19
1026.304	57.23
1026.654	57.2
1027.004	57.39
1027.354	57.23
1027.703	57.33
1028.053	57.45
1028.403	57.45
1028.753	57.25
1029.102	57.23
1029.452	57.59
1029.801	58.18
1030.15	58.28
1030.499	58.15
897.758	2064.71
901.051	2071.08
904.343	2059.02
907.636	2099.12
910.928	2045.11
914.22	2040.46
917.511	2008.26
920.803	1922.12
924.094	1913.44
927.384	1871.47
930.675	1786.27
933.965	1774.17
937.255	1672.95
940.544	1606.27
943.834	1523.75
947.123	1507.98
950.411	1419.75
953.7	1389.75
956.988	1314.62
960.276	1258.85
963.563	1239.88
966.851	1196.81
970.138	1187.3
973.424	1148.12
976.711	1153.66
979.997	1098.1
983.283	1093.71
986.568	1071.35
989.853	1034.38
993.138	1018.01
996.423	977.86
999.708	950.27
1002.992	943.25
1006.275	895.71
1009.559	885.68
1012.842	856.15
1016.125	829.93
1019.408	815.74
1022.69	802.66
1025.972	789.79
1029.254	768.1
1032.536	756.34
1035.817	738.65
1039.098	727.59
1042.379	712.7
1045.659	706.3
1048.939	688.48
1052.219	675.36
1055.498	662.04
1058.778	649.01
1062.057	630.75
1065.335	623.99
1068.614	616.25
1071.892	611.33
1075.17	588.95
1078.447	578.92
1081.724	574.54
1085.001	568.58
1088.278	556.27
1091.554	545.18
1094.83	544.66
1098.106	542.47
1101.382	537.22
1104.657	533.82
1107.932	523.67
1111.206	528.56
1114.481	514.93
1117.755	508.81
1121.029	505.76
1124.302	507.27
1127.575	496.23
1130.848	489.27
1134.121	484.32
1137.393	482.88
1140.665	470.92
1143.937	469.6
1147.208	462.85
1150.48	463.49
1153.75	456.79
1157.021	448.29
1160.291	448.25
1163.561	444.9
1166.831	443.94
1170.101	441.27
1173.37	438.07
1176.639	440.16
1179.907	434.37
1183.176	431.69
1186.444	430.31
1189.711	430.99
1192.979	430.69
1196.246	426.06
1199.513	427.71
1202.78	425.46
1206.046	424.93
1209.312	421.46
1212.578	421.89
1215.843	425.86
1219.108	423.12
1222.373	432.57
1225.638	435.41
1228.902	443.05
1232.166	443.08
1235.43	447.17
1238.693	453.96
1241.956	455.57
1245.219	464.38
1248.482	462.65
1251.744	463.6
1255.006	464.18
1258.268	451.38
1261.529	446.81
1264.79	441.89
1268.051	440.04
1271.312	433.66
1274.572	427.86
1277.832	423.76
1281.092	416.18
1284.351	413.85
1287.61	413.22
1290.869	406.5
1294.128	404.53
1297.386	404.5
1300.644	400.04
1303.902	401.67
1307.159	398.57
1310.416	400.03
1313.673	400.18
1316.93	403.58
1320.186	404.01
1323.442	405.04
1326.697	414.5
1329.953	414.55
1333.208	416.83
1336.463	421.57
1339.717	422.34
1342.972	428.02
1346.226	430.59
1349.479	430.2
1352.733	434.14
1355.986	435.1
1359.238	435.24
1362.491	437.75
1365.743	443.36
1368.995	442.04
1372.247	440.76
1375.498	441.69
1378.749	447.2
1382	440.6
1385.251	444.13
1388.501	439.9
1391.751	444.6
1395	441.4
1398.25	438.01
1401.499	435.59
1404.748	436.22
1407.996	432.31
1411.244	429.67
1414.492	428.32
1417.74	426.36
1420.987	418.98
1424.234	420.28
1427.481	412.39
1430.728	413.92
1433.974	408.44
1437.22	405.14
1440.465	403.88
1443.711	402.48
1446.956	400.54
1450.201	393.03
1453.445	389.37
1456.689	388.68
1459.933	381.42
1463.177	378.84
1466.42	371.41
1469.663	368.02
1472.906	366.7
1476.148	356.19
1479.391	350.28
1482.633	345.71
1485.874	342.2
1489.115	340.08
1492.356	333.75
1495.597	333.35
1498.838	327.48
1502.078	325.58
1505.318	323.33
1508.557	323.06
1511.797	323.24
1515.036	322.43
1518.274	321.74
1521.513	316.26
1524.751	316.58
1527.989	316.14
1531.227	314.5
1534.464	317.01
1537.701	313.61
1540.938	312.69
1544.174	308.16
1547.41	307.15
1550.646	305.78
1553.882	305.88
1557.117	303.36
1560.352	300.21
1563.587	299.48
1566.821	296.87
1570.055	292.85
1573.289	290.8
1576.523	290.74
1579.756	287.94
1582.989	286.76
1586.222	286.1
1589.454	283.13
1592.686	285.36
1595.918	284
1599.15	283.38
1602.381	283.45
1605.612	283.37
1608.843	285.31
1612.073	284.41
1615.303	286.51
1618.533	286.76
1621.762	285.41
1624.992	286.4
1628.221	286.43
1631.449	286.27
1634.678	284.99
1637.906	286.11
1641.134	286.02
1644.361	285.38
1647.588	286.24
1650.815	284.45
1654.042	282.51
1657.269	285.16
1660.495	285.29
1663.72	282.05
1666.946	283.57
1670.171	284.36
1673.396	284.48
1676.621	284.1
1679.845	283.71
1683.069	283.36
1686.293	285.79
1689.517	287.76
1692.74	286.61
1695.963	287.91
1699.185	292.86
1702.408	292.28
1705.63	293.32
1708.852	294.17
1712.073	295.13
1715.294	296.06
1718.515	296.95
1721.736	296.74
1724.956	297.05
1728.176	297.11
1731.396	300.48
1734.616	298.93
1737.835	300.52
1741.054	298.27
1744.272	299.28
1747.491	302.65
1750.709	303.03
1753.927	304.13
1757.144	302.39
1760.361	305.08
1763.578	305.54
1766.795	304.57
1770.011	305.81
1773.227	306.34
1776.443	310.84
1779.658	312.8
1782.874	310.63
1786.089	312.74
1789.303	313.54
1792.518	317.31
1795.732	316.4
1798.945	320.59
1802.159	319.99
1805.372	322.41
1808.585	328.36
1811.797	329.64
1815.01	328.47
1818.222	332.11
1821.434	333.12
1824.645	335.38
1827.856	341.79
1831.067	345.49
1834.278	342.55
1837.488	345.63
1840.698	348.54
1843.908	344.14
1847.117	346.79
1850.326	350.02
1853.535	348.28
1856.744	355.7
1859.952	354.64
1863.16	353.42
1866.368	350.61
1869.575	357.28
1872.782	351.63
1875.989	350
1879.196	348.77
1882.402	346.95
1885.608	349.16
1888.814	351.92
1892.019	350.14
1895.224	349.7
1898.429	347.17
1901.634	350.98
1904.838	350.32
1908.042	356.08
1911.246	357.77
1914.449	361.14
1917.652	361.2
1920.855	360.65
1924.058	360.1
1927.26	358.83
1930.462	361.36
1933.664	366.41
1936.865	361.98
1940.066	362.99
1943.267	359.9
1946.467	359.21
1949.668	361.72
1952.868	366.34
1956.067	365.57
1959.267	365.03
1962.466	366.4
1965.665	364.72
1968.863	364.93
1972.061	370.67
1975.259	373.17
1978.457	376.06
1981.654	378.42
1984.852	379.94
1988.048	377.75
1991.245	381.32
1994.441	387.47
1997.637	388.86
2000.833	395.48
2004.028	400.85
2007.223	403.36
2010.418	408.25
2013.613	414.1
2016.807	420.16
2020.001	422.14
2023.194	428.65
2026.388	438.26
2029.581	446.87
2032.774	452.62
2035.966	460.94
2039.158	462.67
2042.35	471.6
2045.542	472.25
2048.733	480.21
2051.924	486.46
2055.115	494.01
2058.306	494.84
2061.496	501.67
2064.686	500.92
2067.875	509.56
2071.065	510.49
2074.254	507.98
2077.442	512.09
2080.631	516.3
2083.819	521.28
2087.007	521.21
2090.195	528.11
2093.382	532.35
2096.569	526.57
2099.756	535.57
2102.942	536.08
2106.128	543.76
2109.314	554.71
2112.5	553.59
2115.685	564.86
2118.87	565.66
2122.055	577.12
2125.239	581.9
2128.424	590.51
2131.608	595.1
2134.791	602.64
2137.974	606.31
2141.157	606.79
2144.34	608.48
2147.523	618.21
2150.705	613.76
2153.887	619.03
2157.068	620.78
2160.25	614.19
2163.431	614.8
2166.611	622.44
2169.792	634.39
2172.972	641.47
2176.152	643.66
2179.331	652.84
2182.511	665.25
2185.69	674.1
2188.868	688.79
2192.047	689.06
2195.225	709.48
2198.403	728.98
2201.58	739.92
2204.758	753.88
2207.935	770.07
2211.111	785.24
2214.288	796.42
2217.464	798.3
2220.64	805.71
2223.815	817.45
2226.991	851.92
2230.166	855.39
2233.34	872.66
2236.515	886.42
2239.689	888.01
2242.863	891.65
2246.036	922.05
2249.209	909.79
2252.382	922.89
2255.555	956.87
2258.727	958.16
2261.9	961.74
2265.071	970.35
2268.243	984.33
2271.414	996.84
2274.585	1023.36
2277.756	1034.32
2280.926	1037.55
2284.096	1062.61
2287.266	1088.43
2290.436	1095.71
2293.605	1123.52
2296.774	1161.85
2299.942	1199
2303.111	1205.1
2306.279	1236.3
2309.447	1249.75
2312.614	1281.08
2315.781	1316.86
2318.948	1380.81
2322.115	1358.78
2325.281	1429.07
2328.447	1397.39
2331.613	1456.45
2334.779	1436.92
2337.944	1499.54
2341.109	1517.26
2344.274	1555.31
2347.438	1612.17
2350.602	1615.95
2353.766	1661.47
2356.929	1684.12
2360.092	1672.93
2363.255	1802.64
2366.418	1791.39
2369.58	1834
2372.742	1942.7
2375.904	1989.05
2379.066	1977.02
2382.227	1938.91
2385.388	2101.47
2388.548	2112.86
2391.709	2146.84
2394.869	2396.67
2398.029	2272.88
2401.188	2341.21
2404.347	2323.82
2407.506	2295.49
2410.665	2364.5
2413.823	2509.89
2416.981	2658.39
2420.139	2561.84
2423.296	2531.87
2426.453	2636.22
2429.61	2532.32
2432.767	2667.83
2435.923	2646.85
2439.079	2876.93
2442.235	2912.42
2445.391	2882.54
2448.546	2865.75
2451.701	2783.62
2454.855	2795.43
2458.009	2956.75
2461.163	3072.13
2464.317	3191.12
2467.471	3273.36
2470.624	3268.99
2473.777	3188.07
2476.929	3116.67
2480.082	3029.11
2483.234	2985.86
2486.385	3123.17
2489.537	3133.8
2492.688	3262.93
2495.839	3169.58
2498.989	3107.46
2502.14	3125.91
2505.29	3162.52
2508.439	3216.58
2511.589	3200.2
2514.738	3477.84
2517.887	3413.86
2521.035	3620.7
2524.183	3643.15
2527.331	3669.17
2530.479	3668.68
2533.627	3685.62
