Data from C_2_HIR_WI_4N_Splice17_13-36-08-761.txt Node
Date: Sat Mar 07 13:36:08 EST 2020
User: sa697716
Spectrometer: NQ5500242
Trigger mode: 0
Integration Time (sec): 1.450000E-1
Scans to average: 20
Nonlinearity correction enabled: false
Boxcar width: 5
Storing dark spectrum: false
XAxis mode: Wavelengths
Number of Pixels in Spectrum: 512
>>>>>Begin Spectral Data<<<<<
187.83	236.04
188.298	252.32
188.766	218.98
189.233	179.3
189.701	204.4
190.169	262.15
190.636	285.63
191.104	502.04
191.571	418.19
192.039	196.91
192.506	-191.54
192.974	147.44
193.441	279.94
193.908	133.54
194.375	100.32
194.842	80.06
195.31	181.76
195.777	410.22
196.244	130.35
196.711	108.3
197.177	108.48
197.644	105.45
198.111	105.19
198.578	104.99
199.045	105.63
199.511	104.92
199.978	105.27
200.445	105.74
200.911	105.75
201.378	105.74
201.844	105.46
202.31	104.56
202.777	104.46
203.243	104.07
203.709	103.5
204.176	102.42
204.642	102.01
205.108	101.31
205.574	100.29
206.04	99.05
206.506	98.07
206.972	97.15
207.438	96.19
207.903	94.81
208.369	92.96
208.835	90.94
209.301	88.88
209.766	86.06
210.232	83.37
210.697	80.78
211.163	78.55
211.628	76.48
212.094	74.4
212.559	72.46
213.024	70.74
213.49	69.11
213.955	67.45
214.42	65.57
214.885	63.74
215.35	61.09
215.815	57.77
216.28	53.46
216.745	48.57
217.21	43.66
217.675	39.12
218.14	35.12
218.604	31.62
219.069	28.66
219.534	26.27
219.998	24.3
220.463	22.67
220.927	21.23
221.392	20.09
221.856	19.17
222.32	18.37
222.785	17.71
223.249	17.1
223.713	16.56
224.177	16.11
224.642	15.67
225.106	15.22
225.57	14.81
226.034	14.48
226.497	14.13
226.961	13.8
227.425	13.5
227.889	13.19
228.353	12.9
228.816	12.63
229.28	12.36
229.744	12.1
230.207	11.87
230.671	11.64
231.134	11.4
231.597	11.22
232.061	11.02
232.524	10.86
232.987	10.69
233.45	10.54
233.914	10.38
234.377	10.22
234.84	10.08
235.303	9.96
235.766	9.84
236.229	9.72
236.691	9.6
237.154	9.49
237.617	9.37
238.08	9.26
238.542	9.15
239.005	9.07
239.468	8.97
239.93	8.88
240.393	8.8
240.855	8.69
241.317	8.59
241.78	8.48
242.242	8.37
242.704	8.29
243.166	8.21
243.629	8.13
244.091	8.04
244.553	7.94
245.015	7.85
245.477	7.76
245.939	7.69
246.4	7.61
246.862	7.54
247.324	7.47
247.786	7.39
248.247	7.3
248.709	7.21
249.17	7.12
249.632	7.06
250.093	6.99
250.555	6.93
251.016	6.86
251.477	6.79
251.939	6.74
252.4	6.69
252.861	6.63
253.322	6.58
253.783	6.54
254.244	6.5
254.705	6.45
255.166	6.4
255.627	6.35
256.088	6.3
256.549	6.26
257.009	6.19
257.47	6.13
257.931	6.07
258.391	6.01
258.852	5.94
259.312	5.88
259.773	5.81
260.233	5.75
260.694	5.69
261.154	5.63
261.614	5.58
262.074	5.52
262.534	5.47
262.994	5.42
263.455	5.39
263.915	5.35
264.374	5.31
264.834	5.28
265.294	5.25
265.754	5.22
266.214	5.19
266.673	5.15
267.133	5.14
267.593	5.12
268.052	5.09
268.512	5.08
268.971	5.05
269.431	5.04
269.89	5.02
270.349	5
270.809	4.98
271.268	4.97
271.727	4.96
272.186	4.94
272.645	4.93
273.104	4.91
273.563	4.89
274.022	4.87
274.481	4.86
274.94	4.85
275.399	4.83
275.857	4.82
276.316	4.81
276.775	4.81
277.233	4.8
277.692	4.79
278.15	4.78
278.609	4.79
279.067	4.78
279.525	4.78
279.984	4.77
280.442	4.77
280.9	4.77
281.358	4.78
281.816	4.78
282.274	4.78
282.732	4.77
283.19	4.77
283.648	4.76
284.106	4.76
284.564	4.75
285.021	4.76
285.479	4.75
285.937	4.74
286.394	4.73
286.852	4.72
287.309	4.71
287.767	4.69
288.224	4.67
288.682	4.64
289.139	4.61
289.596	4.59
290.053	4.55
290.511	4.52
290.968	4.49
291.425	4.45
291.882	4.42
292.339	4.38
292.796	4.37
293.252	4.35
293.709	4.33
294.166	4.32
294.623	4.3
295.079	4.29
295.536	4.29
295.992	4.28
296.449	4.27
296.905	4.27
297.362	4.26
297.818	4.25
298.274	4.25
298.731	4.24
299.187	4.23
299.643	4.22
300.099	4.21
300.555	4.2
301.011	4.19
301.467	4.2
301.923	4.18
302.379	4.18
302.835	4.19
303.291	4.19
303.746	4.18
304.202	4.2
304.658	4.19
305.113	4.19
305.569	4.2
306.024	4.21
306.479	4.2
306.935	4.2
307.39	4.2
307.845	4.2
308.301	4.2
308.756	4.2
309.211	4.2
309.666	4.21
310.121	4.22
310.576	4.22
311.031	4.22
311.486	4.23
311.94	4.25
312.395	4.24
312.85	4.25
313.305	4.25
313.759	4.26
314.214	4.26
314.668	4.25
315.123	4.25
315.577	4.24
316.032	4.23
316.486	4.22
316.94	4.2
317.394	4.19
317.849	4.16
318.303	4.14
318.757	4.12
319.211	4.11
319.665	4.09
320.119	4.07
320.572	4.05
321.026	4.03
321.48	4.02
321.934	4.01
322.387	4
322.841	4
323.295	4
323.748	4
324.202	4
324.655	3.99
325.108	4
325.562	4
326.015	4.01
326.468	4.02
326.921	4.02
327.374	4.02
327.827	4.02
328.28	4.01
328.733	4.01
329.186	4.01
329.639	4.02
330.092	4.02
330.545	4.02
330.997	4.03
331.45	4.03
331.903	4.05
332.355	4.07
332.808	4.08
333.26	4.08
333.713	4.08
334.165	4.09
334.617	4.09
335.069	4.09
335.522	4.1
335.974	4.11
336.426	4.11
336.878	4.1
337.33	4.09
337.782	4.09
338.234	4.1
338.686	4.1
339.137	4.1
339.589	4.09
340.041	4.08
340.493	4.07
340.944	4.05
341.396	4.04
341.847	4.03
342.299	4
342.75	3.99
343.201	3.96
343.653	3.95
344.104	3.92
344.555	3.9
345.006	3.88
345.457	3.87
345.908	3.86
346.359	3.85
346.81	3.84
347.261	3.82
347.712	3.82
348.163	3.81
348.613	3.81
349.064	3.81
349.515	3.82
349.965	3.82
350.416	3.82
350.866	3.82
351.317	3.81
351.767	3.82
352.217	3.82
352.668	3.83
353.118	3.84
353.568	3.83
354.018	3.84
354.468	3.86
354.918	3.86
355.368	3.86
355.818	3.87
356.268	3.88
356.718	3.88
357.168	3.88
357.617	3.89
358.067	3.89
358.517	3.9
358.966	3.9
359.416	3.89
359.865	3.89
360.315	3.9
360.764	3.9
361.213	3.9
361.663	3.89
362.112	3.89
362.561	3.89
363.01	3.89
363.459	3.87
363.908	3.86
364.357	3.87
364.806	3.86
365.255	3.86
365.703	3.87
366.152	3.87
366.601	3.89
367.05	3.89
367.498	3.89
367.947	3.9
368.395	3.92
368.844	3.93
369.292	3.93
369.74	3.95
370.189	3.95
370.637	3.95
371.085	3.95
371.533	3.95
371.981	3.95
372.429	3.96
372.877	3.97
373.325	3.98
373.773	3.97
374.221	3.98
374.669	3.99
375.116	3.99
375.564	4
376.012	4.02
376.459	4.04
376.907	4.07
377.354	4.08
377.801	4.11
378.249	4.13
378.696	4.16
379.143	4.2
379.591	4.22
380.038	4.26
380.485	4.3
380.932	4.33
381.379	4.36
381.826	4.4
382.273	4.43
382.72	4.46
383.166	4.49
383.613	4.54
384.06	4.58
384.506	4.62
384.953	4.67
385.4	4.72
385.846	4.79
386.292	4.85
386.739	4.91
387.185	4.98
387.631	5.05
388.078	5.12
388.524	5.2
388.97	5.28
389.416	5.37
389.862	5.46
390.308	5.55
390.754	5.64
391.2	5.72
391.645	5.81
392.091	5.92
392.537	6.02
392.983	6.13
393.428	6.23
393.874	6.34
394.319	6.44
394.765	6.55
395.21	6.65
395.655	6.75
396.101	6.86
396.546	6.98
396.991	7.08
397.436	7.2
397.881	7.32
398.326	7.44
398.771	7.57
399.216	7.68
399.661	7.79
400.106	7.89
400.551	8
400.995	8.09
401.44	8.17
401.885	8.28
402.329	8.38
402.774	8.49
403.218	8.61
403.663	8.71
404.107	8.82
404.551	8.93
404.995	9.02
405.44	9.13
405.884	9.24
406.328	9.36
406.772	9.44
407.216	9.54
407.66	9.62
408.104	9.7
408.547	9.79
408.991	9.87
409.435	9.95
409.879	10.06
410.322	10.15
410.766	10.24
411.209	10.34
411.653	10.45
412.096	10.54
412.54	10.62
412.983	10.73
413.426	10.83
413.869	10.92
414.312	11.04
414.756	11.13
415.199	11.21
415.642	11.29
416.085	11.35
416.527	11.39
416.97	11.42
417.413	11.47
417.856	11.51
418.298	11.54
418.741	11.58
419.184	11.6
419.626	11.65
420.069	11.68
420.511	11.73
420.953	11.77
421.396	11.82
421.838	11.89
422.28	11.95
422.722	12
423.164	12.04
423.606	12.07
424.048	12.11
424.49	12.12
424.932	12.15
425.374	12.13
425.816	12.11
426.258	12.1
426.699	12.07
427.141	12.07
427.582	12.08
428.024	12.11
428.465	12.13
428.907	12.13
429.348	12.11
429.789	12.13
430.231	12.19
430.672	12.26
431.113	12.31
431.554	12.36
431.995	12.4
432.436	12.44
432.877	12.46
433.318	12.52
433.759	12.6
434.2	12.68
434.64	12.73
435.081	12.78
435.522	12.83
435.962	12.87
436.403	12.95
436.843	13.01
437.284	13.06
437.724	13.1
438.164	13.14
438.604	13.2
439.045	13.27
439.485	13.34
439.925	13.42
440.365	13.49
440.805	13.57
441.245	13.65
441.685	13.73
442.125	13.84
442.564	13.95
443.004	14.04
443.444	14.14
443.883	14.24
444.323	14.36
444.762	14.47
445.202	14.59
445.641	14.72
446.081	14.84
446.52	14.95
446.959	15.07
447.398	15.2
447.837	15.33
448.276	15.45
448.716	15.57
449.154	15.69
449.593	15.8
450.032	15.87
450.471	15.95
450.91	16
451.349	16.08
451.787	16.12
452.226	16.16
452.664	16.2
453.103	16.21
453.541	16.23
453.98	16.25
454.418	16.24
454.856	16.27
455.295	16.28
455.733	16.28
456.171	16.29
456.609	16.3
457.047	16.27
457.485	16.27
457.923	16.3
458.361	16.29
458.798	16.29
459.236	16.31
459.674	16.3
460.111	16.3
460.549	16.34
460.987	16.34
461.424	16.37
461.862	16.4
462.299	16.42
462.736	16.44
463.173	16.45
463.611	16.46
464.048	16.46
464.485	16.5
464.922	16.52
465.359	16.53
465.796	16.56
466.233	16.58
466.67	16.59
467.106	16.61
467.543	16.61
467.98	16.62
468.416	16.62
468.853	16.63
469.29	16.64
469.726	16.65
470.162	16.66
470.599	16.65
471.035	16.66
471.471	16.67
471.907	16.67
472.344	16.69
472.78	16.72
473.216	16.73
473.652	16.75
474.088	16.74
474.523	16.76
474.959	16.77
475.395	16.77
475.831	16.78
476.266	16.81
476.702	16.82
477.138	16.83
477.573	16.85
478.008	16.86
478.444	16.85
478.879	16.87
479.314	16.87
479.75	16.9
480.185	16.9
480.62	16.9
481.055	16.88
481.49	16.88
481.925	16.88
482.36	16.9
482.795	16.92
483.229	16.95
483.664	16.96
484.099	16.97
484.534	17.01
484.968	17.05
485.403	17.11
485.837	17.15
486.271	17.21
486.706	17.26
487.14	17.32
487.574	17.41
488.009	17.48
488.443	17.56
488.877	17.67
489.311	17.76
489.745	17.88
490.179	17.99
490.613	18.11
491.046	18.24
491.48	18.37
491.914	18.5
492.348	18.64
492.781	18.79
493.215	18.95
493.648	19.1
494.082	19.26
494.515	19.41
494.948	19.57
495.382	19.74
495.815	19.92
496.248	20.12
496.681	20.31
497.114	20.49
497.547	20.69
497.98	20.9
498.413	21.1
498.846	21.32
499.279	21.54
499.711	21.76
500.144	21.99
500.577	22.23
501.009	22.45
501.442	22.7
501.874	22.97
502.306	23.22
502.739	23.5
503.171	23.76
503.603	24.03
504.036	24.32
504.468	24.61
504.9	24.89
505.332	25.19
505.764	25.49
506.196	25.81
506.627	26.11
507.059	26.43
507.491	26.74
507.923	27.08
508.354	27.42
508.786	27.74
509.217	28.09
509.649	28.44
510.08	28.77
510.512	29.12
510.943	29.45
511.374	29.79
511.805	30.14
512.237	30.48
512.668	30.83
513.099	31.16
513.53	31.51
513.961	31.85
514.391	32.19
514.822	32.54
515.253	32.87
515.684	33.17
516.114	33.5
516.545	33.81
516.975	34.13
517.406	34.45
517.836	34.74
518.267	35.05
518.697	35.33
519.127	35.61
519.558	35.88
519.988	36.16
520.418	36.44
520.848	36.7
521.278	36.95
521.708	37.38
522.138	37.62
522.567	37.88
522.997	38.1
523.427	38.33
523.857	38.55
524.286	38.76
524.716	38.96
525.145	39.16
525.575	39.36
526.004	39.56
526.433	39.56
526.863	39.72
527.292	39.89
527.721	40.03
528.15	40.18
528.579	40.3
529.008	40.45
529.437	40.58
529.866	40.7
530.295	40.82
530.724	40.94
531.152	41.05
531.581	41.18
532.01	41.29
532.438	41.41
532.867	41.51
533.295	41.61
533.723	41.71
534.152	41.79
534.58	41.86
535.008	41.93
535.436	42
535.865	42.07
536.293	42.12
536.721	42.18
537.149	42.25
537.576	42.3
538.004	42.37
538.432	42.42
538.86	42.49
539.287	42.54
539.715	42.6
540.143	42.65
540.57	42.69
540.998	42.72
541.425	42.74
541.852	42.76
542.28	42.81
542.707	42.84
543.134	42.88
543.561	42.89
543.988	42.94
544.415	42.94
544.842	42.95
545.269	42.97
545.696	43.02
546.123	43.05
546.549	43.09
546.976	43.1
547.403	43.13
547.829	43.13
548.256	43.16
548.682	43.17
549.108	43.21
549.535	43.26
549.961	43.29
550.387	43.29
550.813	43.31
551.24	43.31
551.666	43.32
552.092	43.34
552.518	43.36
552.943	43.35
553.369	43.37
553.795	43.38
554.221	43.38
554.646	43.39
555.072	43.38
555.498	43.35
555.923	43.34
556.349	43.31
556.774	43.28
557.199	43.26
557.625	43.22
558.05	43.18
558.475	43.14
558.9	43.11
559.325	43.06
559.75	43.01
560.175	42.97
560.6	42.91
561.025	42.86
561.449	42.78
561.874	42.71
562.299	42.64
562.723	42.57
563.148	42.47
563.572	42.36
563.997	42.28
564.421	42.17
564.846	42.07
565.27	41.97
565.694	41.85
566.118	41.75
566.542	41.67
566.966	41.54
567.39	41.45
567.814	41.34
568.238	41.25
568.662	41.15
569.086	41.07
569.509	40.98
569.933	40.9
570.357	40.81
570.78	40.73
571.204	40.6
571.627	40.53
572.05	40.42
572.474	40.34
572.897	40.24
573.32	40.14
573.743	40.03
574.166	39.94
574.589	39.86
575.012	39.77
575.435	39.68
575.858	39.63
576.281	39.55
576.704	39.48
577.126	39.4
577.549	39.32
577.972	39.25
578.394	39.19
578.817	39.13
579.239	39.05
579.661	38.99
580.084	38.92
580.506	38.84
580.928	38.78
581.35	38.73
581.772	38.66
582.194	38.59
582.616	38.54
583.038	38.48
583.46	38.39
583.882	38.33
584.303	38.27
584.725	38.23
585.147	38.18
585.568	38.12
585.99	38.06
586.411	38.01
586.833	37.96
587.254	37.92
587.675	37.85
588.096	37.82
588.518	37.77
588.939	37.73
589.36	37.67
589.781	37.63
590.202	37.6
590.623	37.54
591.043	37.48
591.464	37.44
591.885	37.39
592.305	37.36
592.726	37.34
593.147	37.31
593.567	37.27
593.987	37.23
594.408	37.18
594.828	37.15
595.248	37.13
595.669	37.11
596.089	37.07
596.509	37.05
596.929	37
597.349	36.94
597.769	36.9
598.189	36.85
598.608	36.84
599.028	36.79
599.448	36.75
599.867	36.72
600.287	36.7
600.706	36.65
601.126	36.59
601.545	36.56
601.965	36.52
602.384	36.5
602.803	36.45
603.222	36.37
603.641	36.32
604.061	36.27
604.48	36.2
604.898	36.12
605.317	36.07
605.736	36.01
606.155	35.94
606.574	35.87
606.992	35.78
607.411	35.72
607.829	35.64
608.248	35.56
608.666	35.47
609.085	35.39
609.503	35.31
609.921	35.22
610.339	35.15
610.758	35.07
611.176	34.99
611.594	34.91
612.012	34.82
612.43	34.75
612.847	34.69
613.265	34.6
613.683	34.52
614.101	34.45
614.518	34.35
614.936	34.27
615.353	34.16
615.771	34.1
616.188	34.02
616.606	33.96
617.023	33.87
617.44	33.83
617.857	33.77
618.274	33.71
618.691	33.63
619.108	33.57
619.525	33.52
619.942	33.49
620.359	33.42
620.776	33.37
621.192	33.32
621.609	33.29
622.026	33.24
622.442	33.2
622.859	33.16
623.275	33.13
623.691	33.12
624.108	33.09
624.524	33.07
624.94	33.06
625.356	33.05
625.772	33.05
626.188	33.03
626.604	32.99
627.02	32.99
627.436	32.99
627.852	32.99
628.268	32.97
628.683	32.96
629.099	32.96
629.514	32.93
629.93	32.92
630.345	32.89
630.761	32.86
631.176	32.83
631.591	32.8
632.007	32.76
632.422	32.7
632.837	32.66
633.252	32.6
633.667	32.53
634.082	32.44
634.497	32.37
634.911	32.28
635.326	32.2
635.741	32.11
636.155	32
636.57	31.88
636.984	31.76
637.399	31.62
637.813	31.48
638.228	31.33
638.642	31.17
639.056	31.02
639.47	30.86
639.884	30.67
640.298	30.49
640.712	30.31
641.126	30.12
641.54	29.93
641.954	29.74
642.368	29.55
642.781	29.37
643.195	29.2
643.609	28.99
644.022	28.8
644.436	28.63
644.849	28.45
645.262	28.28
645.676	28.12
646.089	27.97
646.502	27.81
646.915	27.68
647.328	27.54
647.741	27.41
648.154	27.3
648.567	27.19
648.98	27.09
649.393	26.98
649.805	26.9
650.218	26.81
650.631	26.71
651.043	26.61
651.456	26.51
651.868	26.41
652.28	26.31
652.693	26.22
653.105	26.09
653.517	25.97
653.929	25.87
654.341	25.72
654.753	25.58
655.165	25.43
655.577	25.3
655.989	25.13
656.401	24.97
656.813	24.79
657.224	24.59
657.636	24.4
658.047	24.19
658.459	23.94
658.87	23.7
659.282	23.45
659.693	23.22
660.104	22.96
660.515	22.71
660.926	22.44
661.338	22.18
661.749	21.93
662.159	21.67
662.57	21.44
662.981	21.21
663.392	20.99
663.803	20.77
664.213	20.54
664.624	20.33
665.035	20.14
665.445	19.95
665.855	19.75
666.266	19.57
666.676	19.41
667.086	19.21
667.497	19.04
667.907	18.88
668.317	18.74
668.727	18.62
669.137	18.49
669.547	18.36
669.956	18.24
670.366	18.15
670.776	18.06
671.186	17.96
671.595	17.9
672.005	17.83
672.414	17.78
672.824	17.73
673.233	17.67
673.642	17.64
674.052	17.61
674.461	17.58
674.87	17.56
675.279	17.56
675.688	17.56
676.097	17.59
676.506	17.64
676.915	17.67
677.323	17.72
677.732	17.8
678.141	17.91
678.549	18.02
678.958	18.19
679.366	18.37
679.775	18.55
680.183	18.8
680.592	19.05
681	19.34
681.408	19.67
681.816	20.02
682.224	20.41
682.632	20.82
683.04	21.27
683.448	21.75
683.856	22.25
684.264	22.81
684.671	23.37
685.079	23.98
685.487	24.6
685.894	25.26
686.302	25.95
686.709	26.64
687.116	27.36
687.524	28.1
687.931	28.82
688.338	29.57
688.745	30.31
689.152	31.05
689.559	31.78
689.966	32.53
690.373	33.26
690.78	33.98
691.187	34.68
691.593	35.36
692	36.03
692.407	36.69
692.813	37.32
693.22	37.93
693.626	38.52
694.032	39.11
694.439	39.68
694.845	40.23
695.251	40.77
695.657	41.27
696.063	41.77
696.469	42.27
696.875	42.75
697.281	43.21
697.687	43.64
698.093	44.06
698.498	44.46
698.904	44.85
699.31	45.22
699.715	45.59
700.12	45.95
700.526	46.29
700.931	46.59
701.337	46.87
701.742	47.16
702.147	47.46
702.552	47.75
702.957	48
703.362	48.24
703.767	48.47
704.172	48.69
704.577	48.9
704.981	49.1
705.386	49.32
705.791	49.53
706.195	49.72
706.6	49.93
707.004	50.09
707.408	50.28
707.813	50.48
708.217	50.65
708.621	50.82
709.025	50.97
709.43	51.1
709.834	51.25
710.237	51.38
710.641	51.51
711.045	51.63
711.449	51.78
711.853	51.93
712.256	52.03
712.66	52.15
713.064	52.26
713.467	52.39
713.87	52.53
714.274	52.61
714.677	52.78
715.08	52.91
715.484	53.02
715.887	53.13
716.29	53.21
716.693	53.32
717.096	53.43
717.499	53.53
717.901	53.62
718.304	53.71
718.707	53.83
719.109	53.89
719.512	53.96
719.915	54.06
720.317	54.12
720.719	54.19
721.122	54.26
721.524	54.33
721.926	54.42
722.328	54.51
722.731	54.59
723.133	54.68
723.535	54.75
723.937	54.82
724.338	54.84
724.74	54.91
725.142	55.07
725.544	55.12
725.945	55.18
726.347	55.19
726.748	55.22
727.15	55.21
727.551	55.25
727.952	55.27
728.354	55.3
728.755	55.33
729.156	55.33
729.557	55.25
729.958	55.28
730.359	55.27
730.76	55.3
731.161	55.35
731.562	55.42
731.962	55.41
732.363	55.43
732.763	55.45
733.164	55.48
733.564	55.51
733.965	55.54
734.365	55.55
734.766	55.57
735.166	55.6
735.566	55.6
735.966	55.62
736.366	55.64
736.766	55.66
737.166	55.7
737.566	55.75
737.966	55.76
738.365	55.8
738.765	55.84
739.165	55.86
739.564	55.88
739.964	55.89
740.363	55.85
740.763	55.88
741.162	55.89
741.561	55.87
741.96	55.85
742.36	55.88
742.759	55.86
743.158	55.85
743.557	55.83
743.955	55.86
744.354	55.86
744.753	55.9
745.152	55.9
745.55	55.91
745.949	55.92
746.348	55.95
746.746	55.92
747.144	55.95
747.543	55.94
747.941	55.98
748.339	55.94
748.737	55.96
749.136	55.95
749.534	55.94
749.932	55.91
750.33	55.9
750.727	55.88
751.125	55.88
751.523	55.84
751.921	55.85
752.318	55.82
752.716	55.84
753.113	55.81
753.511	55.8
753.908	55.8
754.305	55.82
754.703	55.82
755.1	55.83
755.497	55.81
755.894	55.82
756.291	55.81
756.688	55.81
757.085	55.83
757.482	55.84
757.878	55.86
758.275	55.86
758.672	55.86
759.068	55.87
759.465	55.88
759.861	55.92
760.258	55.92
760.654	55.95
761.05	55.97
761.447	55.96
761.843	55.97
762.239	55.96
762.635	55.97
763.031	55.97
763.427	55.96
763.822	55.97
764.218	55.98
764.614	56
765.01	55.97
765.405	55.95
765.801	55.94
766.196	55.95
766.592	55.94
766.987	55.95
767.382	55.93
767.778	55.95
768.173	55.93
768.568	55.93
768.963	55.92
769.358	55.93
769.753	55.96
770.148	55.99
770.542	55.99
770.937	56.01
771.332	56.02
771.726	56.04
772.121	56.04
772.515	56.04
772.91	56.04
773.304	56.06
773.699	56.07
774.093	56.04
774.487	56.03
774.881	56.02
775.275	56.02
775.669	55.99
776.063	55.99
776.457	56
776.851	56.02
777.245	56
777.638	55.99
778.032	56
778.425	56.04
778.819	56.04
779.212	56.05
779.606	56.07
779.999	56.08
780.392	56.12
780.786	56.12
781.179	56.12
781.572	56.16
781.965	56.15
782.358	56.14
782.751	56.14
783.143	56.15
783.536	56.16
783.929	56.16
784.322	56.18
784.714	56.17
785.107	56.19
785.499	56.2
785.891	56.18
786.284	56.21
786.676	56.22
787.068	56.19
787.46	56.2
787.852	56.21
788.245	56.19
788.636	56.16
789.028	56.17
789.42	56.16
789.812	56.17
790.204	56.19
790.595	56.18
790.987	56.17
791.378	56.22
791.77	56.24
792.161	56.25
792.553	56.27
792.944	56.24
793.335	56.23
793.726	56.24
794.117	56.21
794.508	56.19
794.899	56.19
795.29	56.18
795.681	56.1
796.072	56.08
796.463	56.11
796.853	56.11
797.244	56.14
797.634	56.14
798.025	56.15
798.415	56.16
798.806	56.17
799.196	56.17
799.586	56.19
799.976	56.27
800.366	56.28
800.756	56.25
801.146	56.24
801.536	56.25
801.926	56.22
802.316	56.21
802.706	56.22
803.095	56.22
803.485	56.2
803.874	56.19
804.264	56.16
804.653	56.17
805.043	56.17
805.432	56.15
805.821	56.18
806.21	56.19
806.599	56.19
806.988	56.19
807.377	56.19
807.766	56.21
808.155	56.19
808.544	56.18
808.933	56.15
809.321	56.14
809.71	56.16
810.098	56.12
810.487	56.09
810.875	56.07
811.264	56.05
811.652	56.08
812.04	56.08
812.428	56.13
812.816	56.1
813.204	56.13
813.592	56.12
813.98	56.13
814.368	56.12
814.756	56.13
815.144	56.13
815.531	56.12
815.919	56.08
816.306	56.06
816.694	56
817.081	56.02
817.469	56
817.856	55.97
818.243	55.94
818.63	55.95
819.017	55.92
819.404	55.9
819.791	55.92
820.178	55.91
820.565	55.9
820.952	55.91
821.339	55.89
821.725	55.88
822.112	55.89
822.498	55.88
822.885	55.9
823.271	55.91
823.657	55.9
824.044	55.88
824.43	55.9
824.816	55.88
825.202	55.87
825.588	55.85
825.974	55.82
826.36	55.82
826.746	55.81
827.132	55.78
827.517	55.79
827.903	55.8
828.289	55.79
828.674	55.77
829.06	55.74
829.445	55.73
829.83	55.75
830.216	55.74
830.601	55.72
830.986	55.73
831.371	55.71
831.756	55.71
832.141	55.68
832.526	55.67
832.911	55.66
833.295	55.64
833.68	55.62
834.065	55.6
834.449	55.57
834.834	55.56
835.218	55.55
835.603	55.53
835.987	55.5
836.371	55.48
836.755	55.45
837.139	55.42
837.524	55.44
837.908	55.47
838.291	55.47
838.675	55.47
839.059	55.46
839.443	55.43
839.827	55.41
840.21	55.39
840.594	55.4
840.977	55.37
841.361	55.38
841.744	55.31
842.127	55.25
842.511	55.23
842.894	55.18
843.277	55.16
843.66	55.14
844.043	55.16
844.426	55.15
844.809	55.15
845.191	55.18
845.574	55.17
845.957	55.21
846.339	55.23
846.722	55.24
847.104	55.26
847.487	55.26
847.869	55.26
848.252	55.26
848.634	55.27
849.016	55.26
849.398	55.25
849.78	55.25
850.162	55.23
850.544	55.22
850.926	55.2
851.307	55.2
851.689	55.19
852.071	55.19
852.452	55.19
852.834	55.19
853.215	55.17
853.597	55.15
853.978	55.15
854.359	55.16
854.741	55.15
855.122	55.14
855.503	55.13
855.884	55.12
856.265	55.1
856.646	55.09
857.026	55.08
857.407	55.1
857.788	55.08
858.169	55.1
858.549	55.09
858.93	55.1
859.31	55.1
859.69	55.11
860.071	55.15
860.451	55.18
860.831	55.19
861.211	55.17
861.591	55.17
861.971	55.19
862.351	55.19
862.731	55.2
863.111	55.17
863.491	55.17
863.87	55.17
864.25	55.14
864.629	55.14
865.009	55.13
865.388	55.14
865.768	55.14
866.147	55.12
866.526	55.11
866.905	55.11
867.284	55.14
867.663	55.12
868.042	55.13
868.421	55.13
868.8	55.12
869.179	55.12
869.558	55.11
869.936	55.09
870.315	55.08
870.693	55.07
871.072	55.07
871.45	55.1
871.828	55.13
872.207	55.12
872.585	55.12
872.963	55.13
873.341	55.14
873.719	55.13
874.097	55.16
874.475	55.21
874.853	55.22
875.23	55.24
875.608	55.2
875.986	55.22
876.363	55.21
876.741	55.23
877.118	55.23
877.495	55.26
877.873	55.28
878.25	55.29
878.627	55.27
879.004	55.27
879.381	55.26
879.758	55.26
880.135	55.25
880.512	55.25
880.889	55.21
881.265	55.16
881.642	55.12
882.019	55.11
882.395	55.07
882.772	55.07
883.148	55.04
883.524	54.98
883.901	54.95
884.277	54.89
884.653	54.85
885.029	54.83
885.405	54.83
885.781	54.8
886.157	54.79
886.532	54.79
886.908	54.75
887.284	54.73
887.659	54.72
888.035	54.69
888.411	54.71
888.786	54.72
889.161	54.73
889.537	54.71
889.912	54.71
890.287	54.68
890.662	54.66
891.037	54.64
891.412	54.63
891.787	54.62
892.162	54.65
892.536	54.62
892.911	54.59
893.286	54.57
893.66	54.57
894.035	54.56
894.409	54.56
894.784	54.57
895.158	54.59
895.532	54.6
895.906	54.61
896.281	54.61
896.655	54.61
897.029	54.63
897.402	54.63
897.776	54.65
898.15	54.65
898.524	54.68
898.898	54.68
899.271	54.67
899.645	54.67
900.018	54.69
900.392	54.73
900.765	54.78
901.138	54.8
901.511	54.85
901.884	54.86
902.258	54.89
902.631	54.9
903.003	54.93
903.376	54.96
903.749	54.98
904.122	55.01
904.495	55.01
904.867	55.04
905.24	55.06
905.612	55.07
905.985	55.06
906.357	55.06
906.729	55.09
907.102	55.08
907.474	55.1
907.846	55.09
908.218	55.06
908.59	55.07
908.962	55.07
909.334	55.07
909.705	55.03
910.077	55.05
910.449	55.05
910.82	55.07
911.192	55.07
911.563	55.07
911.935	55.09
912.306	55.13
912.677	55.14
913.048	55.14
913.419	55.14
913.79	55.18
914.161	55.19
914.532	55.19
914.903	55.18
915.274	55.2
915.645	55.21
916.015	55.22
916.386	55.19
916.756	55.18
917.127	55.2
917.497	55.2
917.868	55.2
918.238	55.19
918.608	55.22
918.978	55.24
919.348	55.26
919.718	55.25
920.088	55.24
920.458	55.26
920.828	55.28
921.198	55.25
921.567	55.27
921.937	55.3
922.306	55.33
922.676	55.31
923.045	55.3
923.415	55.29
923.784	55.3
924.153	55.36
924.522	55.39
924.891	55.39
925.26	55.41
925.629	55.41
925.998	55.41
926.367	55.41
926.736	55.44
927.104	55.44
927.473	55.44
927.842	55.43
928.21	55.47
928.578	55.46
928.947	55.45
929.315	55.45
929.683	55.45
930.051	55.41
930.42	55.4
930.788	55.36
931.156	55.35
931.523	55.38
931.891	55.45
932.259	55.44
932.627	55.48
932.994	55.53
933.362	55.53
933.729	55.58
934.097	55.66
934.464	55.72
934.831	55.76
935.199	55.84
935.566	55.9
935.933	55.84
936.3	55.85
936.667	55.88
937.034	55.91
937.401	55.99
937.767	56.03
938.134	56.07
938.501	56.14
938.867	56.25
939.234	56.26
939.6	56.25
939.967	56.35
940.333	56.37
940.699	56.42
941.065	56.36
941.431	56.34
941.798	56.28
942.163	56.27
942.529	56.18
942.895	56.15
943.261	56.15
943.627	56.15
943.992	56.11
944.358	56.03
944.723	55.92
945.089	55.89
945.454	55.89
945.82	55.88
946.185	55.83
946.55	55.79
946.915	55.73
947.28	55.65
947.645	55.58
948.01	55.57
948.375	55.59
948.74	55.59
949.104	55.6
949.469	55.51
949.834	55.45
950.198	55.48
950.562	55.45
950.927	55.4
951.291	55.3
951.655	55.28
952.02	55.23
952.384	55.16
952.748	55.14
953.112	55.11
953.476	55.07
953.839	55.06
954.203	54.95
954.567	54.96
954.931	54.9
955.294	54.95
955.658	55
956.021	54.97
956.385	54.95
956.748	54.93
957.111	54.92
957.474	54.95
957.837	54.94
958.2	54.94
958.563	54.93
958.926	54.98
959.289	55.03
959.652	54.94
960.015	54.97
960.377	54.98
960.74	55.01
961.102	55.05
961.465	55.14
961.827	55.25
962.189	55.33
962.552	55.32
962.914	55.31
963.276	55.32
963.638	55.4
964	55.4
964.362	55.42
964.724	55.38
965.085	55.34
965.447	55.27
965.809	55.23
966.17	55.23
966.532	55.27
966.893	55.27
967.255	55.27
967.616	55.26
967.977	55.26
968.338	55.29
968.699	55.38
969.061	55.4
969.421	55.44
969.782	55.46
970.143	55.47
970.504	55.5
970.865	55.6
971.225	55.64
971.586	55.6
971.946	55.67
972.307	55.65
972.667	55.65
973.027	55.65
973.388	55.66
973.748	55.66
974.108	55.7
974.468	55.69
974.828	55.71
975.188	55.67
975.548	55.76
975.907	55.78
976.267	55.81
976.627	55.8
976.986	55.82
977.346	55.78
977.705	55.8
978.064	55.78
978.424	55.86
978.783	55.83
979.142	55.9
979.501	55.95
979.86	56.06
980.219	56.11
980.578	56.21
980.937	56.29
981.296	56.43
981.654	56.52
982.013	56.57
982.371	56.59
982.73	56.61
983.088	56.57
983.447	56.52
983.805	56.48
984.163	56.54
984.521	56.54
984.879	56.53
985.237	56.52
985.595	56.53
985.953	56.6
986.311	56.6
986.669	56.66
987.026	56.76
987.384	56.86
987.741	56.84
988.099	56.91
988.456	56.97
988.814	57
989.171	57.02
989.528	57.03
989.885	56.98
990.242	57.04
990.599	57.13
990.956	57.19
991.313	57.23
991.67	57.32
992.027	57.45
992.383	57.52
992.74	57.69
993.096	57.69
993.453	57.74
993.809	57.91
994.165	58.02
994.522	58.13
994.878	58.19
995.234	58.27
995.59	58.31
995.946	58.28
996.302	58.31
996.658	58.3
997.013	58.34
997.369	58.43
997.725	58.46
998.08	58.48
998.436	58.45
998.791	58.58
999.147	58.62
999.502	58.71
999.857	58.83
1000.212	58.86
1000.567	58.94
1000.922	59.01
1001.277	59.03
1001.632	59.01
1001.987	59.06
1002.342	59.17
1002.696	59.18
1003.051	59.32
1003.406	59.5
1003.76	59.48
1004.114	59.59
1004.469	59.76
1004.823	60.22
1005.177	60.34
1005.531	60.54
1005.885	60.72
1006.239	60.78
1006.593	60.98
1006.947	61.09
1007.301	61.02
1007.655	61.12
1008.008	61.18
1008.362	61.31
1008.715	61.17
1009.069	61.38
1009.422	61.55
1009.776	61.61
1010.129	61.81
1010.482	61.92
1010.835	62.1
1011.188	62.35
1011.541	62.5
1011.894	62.62
1012.247	62.69
1012.6	62.8
1012.952	62.84
1013.305	63.04
1013.657	63.18
1014.01	63.22
1014.362	63.14
1014.715	63.11
1015.067	63.34
1015.419	63.44
1015.771	63.53
1016.123	63.69
1016.475	63.84
1016.827	63.93
1017.179	63.95
1017.531	64.09
1017.883	64.18
1018.234	64.51
1018.586	64.74
1018.938	64.95
1019.289	65.07
1019.64	65.36
1019.992	65.32
1020.343	65.47
1020.694	65.81
1021.045	65.8
1021.396	65.89
1021.747	66.25
1022.098	66.51
1022.449	66.68
1022.8	66.72
1023.151	66.92
1023.501	67.27
1023.852	67.67
1024.202	67.85
1024.553	67.91
1024.903	68.49
1025.253	68.82
1025.604	68.9
1025.954	68.78
1026.304	68.88
1026.654	69.09
1027.004	69.15
1027.354	69.09
1027.703	68.84
1028.053	68.91
1028.403	69.14
1028.753	68.91
1029.102	69.25
1029.452	69.53
1029.801	69.99
1030.15	70.02
1030.499	69.84
897.758	1615.52
901.051	1621.9
904.343	1615.38
907.636	1644.23
910.928	1597.62
914.22	1598.64
917.511	1579.25
920.803	1512.51
924.094	1504
927.384	1472.43
930.675	1409.93
933.965	1401.95
937.255	1322.59
940.544	1270.35
943.834	1208.53
947.123	1199.64
950.411	1131.05
953.7	1105.24
956.988	1042.69
960.276	1001.4
963.563	986.27
966.851	949.51
970.138	943.52
973.424	913.34
976.711	918.48
979.997	873.58
983.283	869.25
986.568	849.3
989.853	823.74
993.138	812.43
996.423	781.03
999.708	760.03
1002.992	751.66
1006.275	713.38
1009.559	707.53
1012.842	683.23
1016.125	664.66
1019.408	652.82
1022.69	644.15
1025.972	632.92
1029.254	615.25
1032.536	605.62
1035.817	591.61
1039.098	585.17
1042.379	574.97
1045.659	568.52
1048.939	553.45
1052.219	543.47
1055.498	534.12
1058.778	521.86
1062.057	508.58
1065.335	503.91
1068.614	497.4
1071.892	493.65
1075.17	475.42
1078.447	467.52
1081.724	463.85
1085.001	460.75
1088.278	450.17
1091.554	443.05
1094.83	443.45
1098.106	441.33
1101.382	436.53
1104.657	434.39
1107.932	425.89
1111.206	431.52
1114.481	418.84
1117.755	414.5
1121.029	411.2
1124.302	411.85
1127.575	402.67
1130.848	397.4
1134.121	392.57
1137.393	391.92
1140.665	382.91
1143.937	381.83
1147.208	376.91
1150.48	378
1153.75	373.69
1157.021	367.25
1160.291	367.3
1163.561	364
1166.831	363.36
1170.101	360.99
1173.37	359.71
1176.639	360.9
1179.907	356.46
1183.176	353.28
1186.444	352.02
1189.711	351.74
1192.979	351.08
1196.246	348.12
1199.513	348.99
1202.78	347.71
1206.046	347.37
1209.312	343.63
1212.578	344.37
1215.843	347.76
1219.108	345.28
1222.373	353.22
1225.638	354.84
1228.902	360.92
1232.166	360.6
1235.43	364.35
1238.693	368.03
1241.956	370.5
1245.219	376.42
1248.482	375.74
1251.744	375.1
1255.006	377.87
1258.268	367.44
1261.529	364.16
1264.79	360.55
1268.051	359.5
1271.312	354.59
1274.572	350.64
1277.832	347.15
1281.092	341.64
1284.351	339.12
1287.61	339.24
1290.869	332.82
1294.128	331.51
1297.386	331.55
1300.644	328.44
1303.902	329.13
1307.159	328.01
1310.416	328.48
1313.673	328.17
1316.93	331.55
1320.186	331.48
1323.442	332.01
1326.697	338.59
1329.953	339.57
1333.208	340.53
1336.463	344.38
1339.717	345.24
1342.972	348.59
1346.226	351.6
1349.479	351.6
1352.733	353.45
1355.986	355.22
1359.238	355.48
1362.491	357.49
1365.743	359.98
1368.995	360.59
1372.247	359.76
1375.498	359.97
1378.749	363.3
1382	358.32
1385.251	360.01
1388.501	357.06
1391.751	359.34
1395	357.2
1398.25	353.55
1401.499	352.53
1404.748	351.75
1407.996	348.05
1411.244	345.95
1414.492	344.06
1417.74	341.95
1420.987	336.66
1424.234	337.24
1427.481	331.51
1430.728	331.31
1433.974	328.02
1437.22	324.99
1440.465	324.11
1443.711	322.22
1446.956	320.46
1450.201	315.98
1453.445	312.41
1456.689	311.39
1459.933	305.3
1463.177	303.47
1466.42	299.07
1469.663	295.58
1472.906	293.67
1476.148	285.77
1479.391	282.27
1482.633	279.22
1485.874	274.92
1489.115	273.44
1492.356	270.41
1495.597	270.27
1498.838	266.01
1502.078	264.19
1505.318	263.15
1508.557	262.85
1511.797	262.97
1515.036	261.45
1518.274	260.89
1521.513	258.58
1524.751	258.3
1527.989	257.43
1531.227	256.49
1534.464	257.49
1537.701	255.23
1540.938	254.5
1544.174	251.71
1547.41	251.26
1550.646	250.07
1553.882	250.39
1557.117	247.31
1560.352	245.36
1563.587	244.82
1566.821	242.85
1570.055	239.95
1573.289	238.68
1576.523	238.27
1579.756	236.41
1582.989	235.09
1586.222	235.31
1589.454	233.38
1592.686	235.65
1595.918	234.76
1599.15	233.82
1602.381	234.34
1605.612	234.34
1608.843	235.5
1612.073	235.45
1615.303	236.85
1618.533	237
1621.762	236.15
1624.992	236.16
1628.221	236.03
1631.449	235.79
1634.678	235.36
1637.906	235.92
1641.134	236.27
1644.361	235.44
1647.588	236.3
1650.815	234.9
1654.042	233.98
1657.269	235.42
1660.495	235.8
1663.72	233.92
1666.946	235.1
1670.171	235.6
1673.396	235.53
1676.621	235.34
1679.845	235.57
1683.069	235.03
1686.293	236.71
1689.517	238.43
1692.74	237.68
1695.963	238.65
1699.185	241.52
1702.408	241.99
1705.63	242.46
1708.852	243.25
1712.073	243.97
1715.294	244.4
1718.515	246.26
1721.736	245.94
1724.956	245.93
1728.176	245.96
1731.396	248.74
1734.616	247.08
1737.835	247.63
1741.054	246.37
1744.272	246.96
1747.491	249.19
1750.709	249.82
1753.927	249.21
1757.144	248.33
1760.361	249.74
1763.578	250.44
1766.795	249.13
1770.011	251.07
1773.227	251.22
1776.443	254.57
1779.658	255.52
1782.874	254.49
1786.089	255.69
1789.303	256.54
1792.518	259.98
1795.732	259.98
1798.945	262.62
1802.159	262.34
1805.372	263.79
1808.585	268.26
1811.797	268.72
1815.01	269.37
1818.222	271.69
1821.434	273.48
1824.645	274.36
1827.856	278.89
1831.067	281.11
1834.278	279.38
1837.488	282.1
1840.698	284.26
1843.908	280.97
1847.117	282.8
1850.326	284.16
1853.535	283.16
1856.744	287.28
1859.952	287.4
1863.16	285.06
1866.368	282.56
1869.575	287.42
1872.782	282.02
1875.989	280.87
1879.196	279.91
1882.402	278.1
1885.608	279.24
1888.814	280.11
1892.019	279.15
1895.224	278.32
1898.429	276.85
1901.634	279.54
1904.838	278.41
1908.042	282.59
1911.246	283.21
1914.449	285.4
1917.652	285.04
1920.855	284.33
1924.058	284.29
1927.26	282.78
1930.462	283.55
1933.664	287.94
1936.865	284.49
1940.066	284.83
1943.267	282.39
1946.467	282.31
1949.668	284.12
1952.868	288.02
1956.067	287.85
1959.267	288.04
1962.466	288.86
1965.665	288.08
1968.863	288.36
1972.061	292.71
1975.259	295.31
1978.457	297.9
1981.654	300.5
1984.852	301.25
1988.048	300.03
1991.245	302.57
1994.441	306.18
1997.637	308.64
2000.833	313.86
2004.028	318
2007.223	319.92
2010.418	322.65
2013.613	328.67
2016.807	331.84
2020.001	334.24
2023.194	339.25
2026.388	346.73
2029.581	354.52
2032.774	357.81
2035.966	365
2039.158	365.22
2042.35	372.31
2045.542	374.63
2048.733	380.46
2051.924	385.83
2055.115	393.2
2058.306	393.98
2061.496	398.95
2064.686	398.36
2067.875	405.69
2071.065	407.27
2074.254	405.61
2077.442	410.12
2080.631	412.08
2083.819	415.36
2087.007	415.36
2090.195	419.94
2093.382	423.37
2096.569	419.9
2099.756	427.68
2102.942	427.89
2106.128	433.09
2109.314	442.25
2112.5	440.44
2115.685	450.52
2118.87	451.83
2122.055	460.36
2125.239	463.69
2128.424	469.06
2131.608	474.51
2134.791	479.99
2137.974	481.93
2141.157	482.44
2144.34	483.43
2147.523	492.15
2150.705	487.96
2153.887	492.28
2157.068	494.7
2160.25	488.48
2163.431	491.84
2166.611	495.7
2169.792	505.53
2172.972	511.56
2176.152	513.67
2179.331	521.6
2182.511	529.02
2185.69	536.21
2188.868	545.75
2192.047	546.52
2195.225	564.2
2198.403	577.79
2201.58	588.75
2204.758	598.77
2207.935	611.78
2211.111	623.19
2214.288	630.06
2217.464	632.48
2220.64	640.33
2223.815	650.1
2226.991	677.26
2230.166	678.17
2233.34	690.91
2236.515	700.51
2239.689	701.91
2242.863	704.45
2246.036	728.7
2249.209	720.79
2252.382	731.33
2255.555	755.47
2258.727	757.75
2261.9	761.23
2265.071	768.44
2268.243	780.43
2271.414	791.09
2274.585	809.66
2277.756	817.5
2280.926	820.33
2284.096	841.94
2287.266	861.78
2290.436	867.88
2293.605	888.27
2296.774	915.2
2299.942	944.39
2303.111	947.85
2306.279	971.92
2309.447	982.34
2312.614	1007.57
2315.781	1035.34
2318.948	1082.59
2322.115	1066.67
2325.281	1123.61
2328.447	1100.28
2331.613	1148.64
2334.779	1133.81
2337.944	1182.62
2341.109	1190.61
2344.274	1222.86
2347.438	1268.8
2350.602	1268.08
2353.766	1308.4
2356.929	1327.54
2360.092	1314.85
2363.255	1412.94
2366.418	1403.34
2369.58	1436.2
2372.742	1527.13
2375.904	1567.49
2379.066	1558.11
2382.227	1523.28
2385.388	1655.22
2388.548	1657.03
2391.709	1677.75
2394.869	1875.07
2398.029	1784.31
2401.188	1840.11
2404.347	1824.86
2407.506	1796.15
2410.665	1849.22
2413.823	1962.53
2416.981	2083.47
2420.139	2011.13
2423.296	1990.53
2426.453	2081.15
2429.61	1998.71
2432.767	2103.87
2435.923	2079.08
2439.079	2268.07
2442.235	2295.63
2445.391	2274.77
2448.546	2257.96
2451.701	2191.44
2454.855	2194.45
2458.009	2320.86
2461.163	2406.44
2464.317	2502.25
2467.471	2563.28
2470.624	2558.86
2473.777	2500.08
2476.929	2442.25
2480.082	2365.76
2483.234	2337.86
2486.385	2452.74
2489.537	2464.31
2492.688	2557.51
2495.839	2495.08
2498.989	2435.69
2502.14	2450.96
2505.29	2483.54
2508.439	2521.59
2511.589	2511.02
2514.738	2740.18
2517.887	2683.59
2521.035	2837.05
2524.183	2858.72
2527.331	2880.03
2530.479	2865.99
2533.627	2888.37
