Data from C_2_DIV_PA_2N_Splice17_13-42-55-486.txt Node
Date: Sat Mar 07 13:42:55 EST 2020
User: sa697716
Spectrometer: NQ5500242
Trigger mode: 0
Integration Time (sec): 1.450000E-1
Scans to average: 20
Nonlinearity correction enabled: false
Boxcar width: 5
Storing dark spectrum: false
XAxis mode: Wavelengths
Number of Pixels in Spectrum: 512
>>>>>Begin Spectral Data<<<<<
187.83	184.81
188.298	212.31
188.766	173.45
189.233	145.67
189.701	158.88
190.169	202.25
190.636	202.74
191.104	285.33
191.571	-160.49
192.039	-517.5
192.506	-1054.78
192.974	85.18
193.441	103.99
193.908	-9.31
194.375	18.2
194.842	-4.23
195.31	64.39
195.777	126.06
196.244	71.69
196.711	65.54
197.177	67.75
197.644	67.93
198.111	68.92
198.578	69.73
199.045	70
199.511	69.86
199.978	70.33
200.445	70.74
200.911	70.86
201.378	71.02
201.844	70.98
202.31	70.62
202.777	70.54
203.243	70.53
203.709	70.05
204.176	69.36
204.642	68.9
205.108	68.43
205.574	67.55
206.04	66.64
206.506	65.88
206.972	65.49
207.438	64.9
207.903	63.87
208.369	62.56
208.835	61.34
209.301	60.22
209.766	58.48
210.232	56.68
210.697	55.02
211.163	53.62
211.628	52.45
212.094	50.92
212.559	49.77
213.024	48.69
213.49	47.53
213.955	46.43
214.42	45.18
214.885	43.97
215.35	42.41
215.815	40.5
216.28	37.78
216.745	34.62
217.21	31.66
217.675	28.75
218.14	26.36
218.604	24.31
219.069	22.64
219.534	21.26
219.998	20.1
220.463	19.07
220.927	18.17
221.392	17.48
221.856	16.98
222.32	16.52
222.785	16.21
223.249	15.82
223.713	15.49
224.177	15.19
224.642	14.9
225.106	14.61
225.57	14.34
226.034	14.16
226.497	13.96
226.961	13.74
227.425	13.54
227.889	13.31
228.353	13.13
228.816	12.94
229.28	12.77
229.744	12.59
230.207	12.44
230.671	12.29
231.134	12.11
231.597	11.98
232.061	11.84
232.524	11.71
232.987	11.57
233.45	11.48
233.914	11.36
234.377	11.23
234.84	11.12
235.303	11.01
235.766	10.92
236.229	10.82
236.691	10.71
237.154	10.63
237.617	10.55
238.08	10.45
238.542	10.33
239.005	10.25
239.468	10.16
239.93	10.08
240.393	10
240.855	9.9
241.317	9.81
241.78	9.73
242.242	9.63
242.704	9.55
243.166	9.47
243.629	9.42
244.091	9.33
244.553	9.25
245.015	9.17
245.477	9.09
245.939	9.02
246.4	8.94
246.862	8.87
247.324	8.81
247.786	8.72
248.247	8.65
248.709	8.55
249.17	8.48
249.632	8.43
250.093	8.37
250.555	8.32
251.016	8.26
251.477	8.21
251.939	8.16
252.4	8.1
252.861	8.05
253.322	8.01
253.783	7.98
254.244	7.94
254.705	7.89
255.166	7.84
255.627	7.79
256.088	7.75
256.549	7.7
257.009	7.65
257.47	7.6
257.931	7.54
258.391	7.49
258.852	7.43
259.312	7.38
259.773	7.33
260.233	7.29
260.694	7.25
261.154	7.2
261.614	7.16
262.074	7.11
262.534	7.08
262.994	7.05
263.455	7.02
263.915	6.99
264.374	6.97
264.834	6.94
265.294	6.92
265.754	6.9
266.214	6.88
266.673	6.87
267.133	6.86
267.593	6.85
268.052	6.84
268.512	6.83
268.971	6.82
269.431	6.81
269.89	6.8
270.349	6.79
270.809	6.78
271.268	6.77
271.727	6.77
272.186	6.76
272.645	6.76
273.104	6.75
273.563	6.75
274.022	6.73
274.481	6.73
274.94	6.73
275.399	6.72
275.857	6.72
276.316	6.71
276.775	6.7
277.233	6.69
277.692	6.68
278.15	6.68
278.609	6.68
279.067	6.67
279.525	6.66
279.984	6.65
280.442	6.65
280.9	6.64
281.358	6.63
281.816	6.64
282.274	6.63
282.732	6.62
283.19	6.6
283.648	6.59
284.106	6.58
284.564	6.57
285.021	6.57
285.479	6.56
285.937	6.54
286.394	6.54
286.852	6.51
287.309	6.5
287.767	6.48
288.224	6.46
288.682	6.44
289.139	6.42
289.596	6.4
290.053	6.37
290.511	6.34
290.968	6.33
291.425	6.3
291.882	6.3
292.339	6.28
292.796	6.26
293.252	6.25
293.709	6.25
294.166	6.23
294.623	6.22
295.079	6.21
295.536	6.21
295.992	6.2
296.449	6.19
296.905	6.18
297.362	6.17
297.818	6.16
298.274	6.16
298.731	6.15
299.187	6.14
299.643	6.13
300.099	6.12
300.555	6.11
301.011	6.1
301.467	6.1
301.923	6.09
302.379	6.09
302.835	6.08
303.291	6.08
303.746	6.07
304.202	6.06
304.658	6.06
305.113	6.05
305.569	6.05
306.024	6.04
306.479	6.03
306.935	6.03
307.39	6.02
307.845	6.01
308.301	6.01
308.756	6.01
309.211	6
309.666	6.01
310.121	6.01
310.576	6.01
311.031	6.01
311.486	6.01
311.94	6.01
312.395	6
312.85	6.01
313.305	6
313.759	6.01
314.214	6.01
314.668	5.99
315.123	6
315.577	5.99
316.032	5.98
316.486	5.96
316.94	5.96
317.394	5.95
317.849	5.93
318.303	5.92
318.757	5.89
319.211	5.87
319.665	5.85
320.119	5.83
320.572	5.81
321.026	5.8
321.48	5.78
321.934	5.77
322.387	5.75
322.841	5.75
323.295	5.75
323.748	5.76
324.202	5.75
324.655	5.75
325.108	5.76
325.562	5.76
326.015	5.77
326.468	5.78
326.921	5.78
327.374	5.79
327.827	5.79
328.28	5.79
328.733	5.79
329.186	5.79
329.639	5.78
330.092	5.78
330.545	5.78
330.997	5.76
331.45	5.77
331.903	5.78
332.355	5.78
332.808	5.77
333.26	5.76
333.713	5.76
334.165	5.76
334.617	5.77
335.069	5.77
335.522	5.77
335.974	5.78
336.426	5.77
336.878	5.74
337.33	5.74
337.782	5.75
338.234	5.76
338.686	5.76
339.137	5.76
339.589	5.75
340.041	5.74
340.493	5.72
340.944	5.7
341.396	5.7
341.847	5.69
342.299	5.67
342.75	5.65
343.201	5.61
343.653	5.59
344.104	5.57
344.555	5.56
345.006	5.55
345.457	5.54
345.908	5.53
346.359	5.53
346.81	5.52
347.261	5.52
347.712	5.52
348.163	5.52
348.613	5.53
349.064	5.54
349.515	5.54
349.965	5.53
350.416	5.53
350.866	5.53
351.317	5.52
351.767	5.53
352.217	5.53
352.668	5.53
353.118	5.54
353.568	5.53
354.018	5.53
354.468	5.54
354.918	5.55
355.368	5.56
355.818	5.56
356.268	5.57
356.718	5.57
357.168	5.56
357.617	5.55
358.067	5.54
358.517	5.55
358.966	5.55
359.416	5.55
359.865	5.54
360.315	5.54
360.764	5.55
361.213	5.54
361.663	5.54
362.112	5.54
362.561	5.56
363.01	5.56
363.459	5.55
363.908	5.54
364.357	5.55
364.806	5.55
365.255	5.55
365.703	5.56
366.152	5.57
366.601	5.58
367.05	5.59
367.498	5.59
367.947	5.58
368.395	5.6
368.844	5.6
369.292	5.6
369.74	5.62
370.189	5.62
370.637	5.62
371.085	5.61
371.533	5.61
371.981	5.61
372.429	5.62
372.877	5.64
373.325	5.64
373.773	5.63
374.221	5.63
374.669	5.63
375.116	5.63
375.564	5.63
376.012	5.65
376.459	5.65
376.907	5.67
377.354	5.67
377.801	5.68
378.249	5.69
378.696	5.71
379.143	5.72
379.591	5.73
380.038	5.75
380.485	5.76
380.932	5.78
381.379	5.8
381.826	5.82
382.273	5.84
382.72	5.84
383.166	5.84
383.613	5.85
384.06	5.86
384.506	5.88
384.953	5.88
385.4	5.9
385.846	5.92
386.292	5.91
386.739	5.91
387.185	5.91
387.631	5.93
388.078	5.94
388.524	5.95
388.97	5.97
389.416	6
389.862	6.03
390.308	6.05
390.754	6.07
391.2	6.1
391.645	6.13
392.091	6.17
392.537	6.2
392.983	6.22
393.428	6.25
393.874	6.27
394.319	6.28
394.765	6.29
395.21	6.3
395.655	6.33
396.101	6.35
396.546	6.36
396.991	6.37
397.436	6.39
397.881	6.43
398.326	6.46
398.771	6.48
399.216	6.5
399.661	6.52
400.106	6.53
400.551	6.54
400.995	6.54
401.44	6.56
401.885	6.58
402.329	6.6
402.774	6.61
403.218	6.64
403.663	6.66
404.107	6.67
404.551	6.69
404.995	6.7
405.44	6.71
405.884	6.74
406.328	6.76
406.772	6.76
407.216	6.76
407.66	6.75
408.104	6.74
408.547	6.74
408.991	6.75
409.435	6.76
409.879	6.79
410.322	6.82
410.766	6.83
411.209	6.85
411.653	6.87
412.096	6.91
412.54	6.94
412.983	6.97
413.426	7.03
413.869	7.05
414.312	7.08
414.756	7.09
415.199	7.09
415.642	7.09
416.085	7.1
416.527	7.08
416.97	7.06
417.413	7.05
417.856	7.05
418.298	7.02
418.741	7.02
419.184	7.01
419.626	7
420.069	7
420.511	7
420.953	7.01
421.396	7.03
421.838	7.05
422.28	7.07
422.722	7.08
423.164	7.09
423.606	7.09
424.048	7.09
424.49	7.1
424.932	7.09
425.374	7.06
425.816	7.03
426.258	7
426.699	7
427.141	7.01
427.582	6.99
428.024	7
428.465	7
428.907	6.99
429.348	6.97
429.789	6.99
430.231	7.03
430.672	7.07
431.113	7.1
431.554	7.11
431.995	7.1
432.436	7.12
432.877	7.13
433.318	7.16
433.759	7.19
434.2	7.22
434.64	7.24
435.081	7.24
435.522	7.26
435.962	7.27
436.403	7.3
436.843	7.3
437.284	7.28
437.724	7.27
438.164	7.25
438.604	7.25
439.045	7.23
439.485	7.23
439.925	7.22
440.365	7.2
440.805	7.19
441.245	7.18
441.685	7.19
442.125	7.21
442.564	7.23
443.004	7.22
443.444	7.22
443.883	7.24
444.323	7.22
444.762	7.23
445.202	7.23
445.641	7.25
446.081	7.25
446.52	7.26
446.959	7.26
447.398	7.24
447.837	7.25
448.276	7.24
448.716	7.24
449.154	7.25
449.593	7.25
450.032	7.24
450.471	7.2
450.91	7.18
451.349	7.18
451.787	7.13
452.226	7.11
452.664	7.1
453.103	7.09
453.541	7.05
453.98	7.05
454.418	7.01
454.856	7
455.295	6.99
455.733	6.95
456.171	6.94
456.609	6.95
457.047	6.93
457.485	6.92
457.923	6.91
458.361	6.9
458.798	6.88
459.236	6.88
459.674	6.88
460.111	6.87
460.549	6.89
460.987	6.88
461.424	6.88
461.862	6.89
462.299	6.89
462.736	6.9
463.173	6.92
463.611	6.94
464.048	6.95
464.485	6.95
464.922	6.96
465.359	6.95
465.796	6.98
466.233	6.99
466.67	7.01
467.106	7.02
467.543	7
467.98	6.99
468.416	6.97
468.853	6.95
469.29	6.94
469.726	6.94
470.162	6.92
470.599	6.87
471.035	6.85
471.471	6.82
471.907	6.79
472.344	6.77
472.78	6.77
473.216	6.76
473.652	6.75
474.088	6.71
474.523	6.72
474.959	6.69
475.395	6.68
475.831	6.66
476.266	6.65
476.702	6.63
477.138	6.61
477.573	6.59
478.008	6.58
478.444	6.55
478.879	6.56
479.314	6.53
479.75	6.53
480.185	6.5
480.62	6.48
481.055	6.46
481.49	6.45
481.925	6.45
482.36	6.44
482.795	6.42
483.229	6.42
483.664	6.4
484.099	6.39
484.534	6.37
484.968	6.38
485.403	6.36
485.837	6.36
486.271	6.37
486.706	6.37
487.14	6.35
487.574	6.35
488.009	6.34
488.443	6.33
488.877	6.34
489.311	6.34
489.745	6.34
490.179	6.36
490.613	6.37
491.046	6.36
491.48	6.37
491.914	6.37
492.348	6.38
492.781	6.4
493.215	6.41
493.648	6.42
494.082	6.42
494.515	6.43
494.948	6.43
495.382	6.43
495.815	6.44
496.248	6.45
496.681	6.47
497.114	6.48
497.547	6.49
497.98	6.52
498.413	6.53
498.846	6.55
499.279	6.56
499.711	6.58
500.144	6.6
500.577	6.63
501.009	6.64
501.442	6.66
501.874	6.68
502.306	6.7
502.739	6.74
503.171	6.76
503.603	6.79
504.036	6.83
504.468	6.85
504.9	6.88
505.332	6.91
505.764	6.96
506.196	6.99
506.627	7.03
507.059	7.08
507.491	7.11
507.923	7.15
508.354	7.21
508.786	7.27
509.217	7.33
509.649	7.4
510.08	7.45
510.512	7.53
510.943	7.6
511.374	7.68
511.805	7.76
512.237	7.84
512.668	7.94
513.099	8.02
513.53	8.11
513.961	8.21
514.391	8.32
514.822	8.44
515.253	8.54
515.684	8.65
516.114	8.76
516.545	8.89
516.975	9.01
517.406	9.13
517.836	9.25
518.267	9.39
518.697	9.51
519.127	9.63
519.558	9.75
519.988	9.88
520.418	10.01
520.848	10.14
521.278	10.27
521.708	10.64
522.138	10.78
522.567	10.9
522.997	11.02
523.427	11.15
523.857	11.28
524.286	11.4
524.716	11.53
525.145	11.66
525.575	11.78
526.004	11.91
526.433	11.78
526.863	11.89
527.292	12.02
527.721	12.13
528.15	12.25
528.579	12.34
529.008	12.45
529.437	12.53
529.866	12.62
530.295	12.7
530.724	12.78
531.152	12.86
531.581	12.94
532.01	13
532.438	13.06
532.867	13.11
533.295	13.18
533.723	13.22
534.152	13.28
534.58	13.33
535.008	13.38
535.436	13.42
535.865	13.46
536.293	13.5
536.721	13.54
537.149	13.57
537.576	13.61
538.004	13.64
538.432	13.68
538.86	13.7
539.287	13.73
539.715	13.77
540.143	13.79
540.57	13.8
540.998	13.81
541.425	13.84
541.852	13.87
542.28	13.88
542.707	13.9
543.134	13.93
543.561	13.96
543.988	13.99
544.415	14
544.842	14.01
545.269	14.05
545.696	14.09
546.123	14.08
546.549	14.1
546.976	14.12
547.403	14.16
547.829	14.15
548.256	14.17
548.682	14.17
549.108	14.19
549.535	14.21
549.961	14.22
550.387	14.22
550.813	14.24
551.24	14.24
551.666	14.23
552.092	14.22
552.518	14.22
552.943	14.21
553.369	14.2
553.795	14.17
554.221	14.15
554.646	14.11
555.072	14.08
555.498	14.04
555.923	14.01
556.349	13.96
556.774	13.92
557.199	13.87
557.625	13.82
558.05	13.78
558.475	13.73
558.9	13.67
559.325	13.62
559.75	13.57
560.175	13.5
560.6	13.43
561.025	13.36
561.449	13.29
561.874	13.2
562.299	13.13
562.723	13.03
563.148	12.94
563.572	12.85
563.997	12.76
564.421	12.66
564.846	12.56
565.27	12.46
565.694	12.37
566.118	12.26
566.542	12.18
566.966	12.07
567.39	11.97
567.814	11.88
568.238	11.8
568.662	11.7
569.086	11.61
569.509	11.53
569.933	11.44
570.357	11.36
570.78	11.28
571.204	11.2
571.627	11.13
572.05	11.05
572.474	10.98
572.897	10.9
573.32	10.83
573.743	10.76
574.166	10.69
574.589	10.63
575.012	10.57
575.435	10.5
575.858	10.43
576.281	10.37
576.704	10.32
577.126	10.27
577.549	10.2
577.972	10.14
578.394	10.09
578.817	10.05
579.239	10
579.661	9.96
580.084	9.92
580.506	9.88
580.928	9.83
581.35	9.79
581.772	9.75
582.194	9.72
582.616	9.69
583.038	9.66
583.46	9.6
583.882	9.58
584.303	9.53
584.725	9.5
585.147	9.47
585.568	9.45
585.99	9.42
586.411	9.4
586.833	9.36
587.254	9.33
587.675	9.29
588.096	9.27
588.518	9.25
588.939	9.23
589.36	9.2
589.781	9.15
590.202	9.15
590.623	9.13
591.043	9.11
591.464	9.09
591.885	9.08
592.305	9.06
592.726	9.04
593.147	9.02
593.567	9
593.987	8.97
594.408	8.96
594.828	8.91
595.248	8.89
595.669	8.88
596.089	8.85
596.509	8.84
596.929	8.82
597.349	8.81
597.769	8.79
598.189	8.77
598.608	8.76
599.028	8.74
599.448	8.73
599.867	8.71
600.287	8.68
600.706	8.66
601.126	8.63
601.545	8.62
601.965	8.6
602.384	8.57
602.803	8.54
603.222	8.51
603.641	8.48
604.061	8.46
604.48	8.43
604.898	8.4
605.317	8.37
605.736	8.34
606.155	8.31
606.574	8.28
606.992	8.26
607.411	8.23
607.829	8.17
608.248	8.14
608.666	8.1
609.085	8.07
609.503	8.05
609.921	8.02
610.339	8
610.758	7.96
611.176	7.93
611.594	7.9
612.012	7.86
612.43	7.86
612.847	7.83
613.265	7.81
613.683	7.78
614.101	7.75
614.518	7.71
614.936	7.69
615.353	7.65
615.771	7.64
616.188	7.61
616.606	7.59
617.023	7.56
617.44	7.55
617.857	7.51
618.274	7.49
618.691	7.48
619.108	7.47
619.525	7.45
619.942	7.44
620.359	7.42
620.776	7.4
621.192	7.4
621.609	7.39
622.026	7.38
622.442	7.38
622.859	7.37
623.275	7.35
623.691	7.35
624.108	7.35
624.524	7.35
624.94	7.34
625.356	7.34
625.772	7.33
626.188	7.32
626.604	7.32
627.02	7.31
627.436	7.32
627.852	7.32
628.268	7.31
628.683	7.31
629.099	7.3
629.514	7.3
629.93	7.29
630.345	7.29
630.761	7.28
631.176	7.27
631.591	7.27
632.007	7.27
632.422	7.24
632.837	7.24
633.252	7.22
633.667	7.21
634.082	7.18
634.497	7.18
634.911	7.16
635.326	7.14
635.741	7.12
636.155	7.09
636.57	7.07
636.984	7.06
637.399	7.03
637.813	7
638.228	6.98
638.642	6.95
639.056	6.92
639.47	6.9
639.884	6.87
640.298	6.84
640.712	6.81
641.126	6.78
641.54	6.74
641.954	6.71
642.368	6.7
642.781	6.68
643.195	6.66
643.609	6.63
644.022	6.6
644.436	6.58
644.849	6.55
645.262	6.53
645.676	6.51
646.089	6.5
646.502	6.49
646.915	6.47
647.328	6.45
647.741	6.44
648.154	6.43
648.567	6.43
648.98	6.41
649.393	6.4
649.805	6.39
650.218	6.38
650.631	6.37
651.043	6.35
651.456	6.33
651.868	6.31
652.28	6.3
652.693	6.29
653.105	6.28
653.517	6.26
653.929	6.26
654.341	6.26
654.753	6.26
655.165	6.26
655.577	6.25
655.989	6.24
656.401	6.23
656.813	6.22
657.224	6.21
657.636	6.19
658.047	6.18
658.459	6.15
658.87	6.13
659.282	6.11
659.693	6.08
660.104	6.07
660.515	6.05
660.926	6.04
661.338	6.02
661.749	6
662.159	5.99
662.57	5.99
662.981	5.98
663.392	5.97
663.803	5.98
664.213	5.96
664.624	5.95
665.035	5.95
665.445	5.94
665.855	5.93
666.266	5.95
666.676	5.95
667.086	5.94
667.497	5.94
667.907	5.93
668.317	5.93
668.727	5.95
669.137	5.95
669.547	5.95
669.956	5.96
670.366	5.96
670.776	5.95
671.186	5.96
671.595	5.96
672.005	5.96
672.414	5.98
672.824	5.98
673.233	5.97
673.642	5.99
674.052	6
674.461	6.01
674.87	6.01
675.279	6.04
675.688	6.05
676.097	6.07
676.506	6.09
676.915	6.1
677.323	6.12
677.732	6.14
678.141	6.16
678.549	6.18
678.958	6.2
679.366	6.23
679.775	6.23
680.183	6.26
680.592	6.29
681	6.32
681.408	6.35
681.816	6.37
682.224	6.4
682.632	6.43
683.04	6.46
683.448	6.48
683.856	6.51
684.264	6.55
684.671	6.58
685.079	6.6
685.487	6.63
685.894	6.67
686.302	6.72
686.709	6.77
687.116	6.83
687.524	6.9
687.931	6.98
688.338	7.07
688.745	7.16
689.152	7.27
689.559	7.41
689.966	7.55
690.373	7.71
690.78	7.88
691.187	8.04
691.593	8.24
692	8.45
692.407	8.67
692.813	8.92
693.22	9.17
693.626	9.44
694.032	9.72
694.439	10.02
694.845	10.34
695.251	10.66
695.657	10.99
696.063	11.33
696.469	11.69
696.875	12.07
697.281	12.44
697.687	12.83
698.093	13.22
698.498	13.62
698.904	14.01
699.31	14.41
699.715	14.85
700.12	15.29
700.526	15.73
700.931	16.17
701.337	16.6
701.742	17.03
702.147	17.47
702.552	17.92
702.957	18.36
703.362	18.82
703.767	19.25
704.172	19.68
704.577	20.1
704.981	20.55
705.386	20.99
705.791	21.43
706.195	21.87
706.6	22.33
707.004	22.76
707.408	23.21
707.813	23.66
708.217	24.09
708.621	24.54
709.025	25
709.43	25.43
709.834	25.88
710.237	26.31
710.641	26.75
711.045	27.18
711.449	27.63
711.853	28.1
712.256	28.53
712.66	28.96
713.064	29.39
713.467	29.83
713.87	30.25
714.274	30.66
714.677	31.08
715.08	31.5
715.484	31.9
715.887	32.33
716.29	32.7
716.693	33.1
717.096	33.5
717.499	33.91
717.901	34.29
718.304	34.67
718.707	35.06
719.109	35.44
719.512	35.81
719.915	36.19
720.317	36.5
720.719	36.82
721.122	37.17
721.524	37.52
721.926	37.87
722.328	38.2
722.731	38.51
723.133	38.85
723.535	39.17
723.937	39.46
724.338	39.76
724.74	40.07
725.142	40.58
725.544	40.82
725.945	41.11
726.347	41.33
726.748	41.57
727.15	41.81
727.551	42.08
727.952	42.31
728.354	42.56
728.755	42.77
729.156	42.98
729.557	42.97
729.958	43.19
730.359	43.38
730.76	43.6
731.161	43.79
731.562	43.99
731.962	44.12
732.363	44.3
732.763	44.47
733.164	44.64
733.564	44.8
733.965	44.98
734.365	45.15
734.766	45.28
735.166	45.42
735.566	45.58
735.966	45.73
736.366	45.86
736.766	45.97
737.166	46.08
737.566	46.2
737.966	46.31
738.365	46.41
738.765	46.53
739.165	46.65
739.564	46.76
739.964	46.82
740.363	46.89
740.763	46.97
741.162	47.07
741.561	47.14
741.96	47.21
742.36	47.3
742.759	47.38
743.158	47.44
743.557	47.47
743.955	47.51
744.354	47.58
744.753	47.68
745.152	47.76
745.55	47.81
745.949	47.9
746.348	47.96
746.746	47.99
747.144	48.06
747.543	48.09
747.941	48.13
748.339	48.16
748.737	48.18
749.136	48.19
749.534	48.22
749.932	48.25
750.33	48.25
750.727	48.27
751.125	48.31
751.523	48.29
751.921	48.34
752.318	48.37
752.716	48.43
753.113	48.46
753.511	48.48
753.908	48.54
754.305	48.58
754.703	48.6
755.1	48.63
755.497	48.67
755.894	48.71
756.291	48.74
756.688	48.76
757.085	48.78
757.482	48.82
757.878	48.87
758.275	48.86
758.672	48.86
759.068	48.91
759.465	48.91
759.861	48.93
760.258	48.94
760.654	48.96
761.05	48.99
761.447	49
761.843	49.02
762.239	49
762.635	49.02
763.031	49.01
763.427	49
763.822	49.02
764.218	49.04
764.614	49.06
765.01	49.05
765.405	49.05
765.801	49.03
766.196	49.03
766.592	49.05
766.987	49.06
767.382	49.08
767.778	49.08
768.173	49.1
768.568	49.1
768.963	49.09
769.358	49.11
769.753	49.11
770.148	49.13
770.542	49.13
770.937	49.15
771.332	49.16
771.726	49.17
772.121	49.21
772.515	49.21
772.91	49.2
773.304	49.23
773.699	49.23
774.093	49.22
774.487	49.22
774.881	49.22
775.275	49.2
775.669	49.18
776.063	49.17
776.457	49.13
776.851	49.13
777.245	49.12
777.638	49.13
778.032	49.15
778.425	49.2
778.819	49.21
779.212	49.23
779.606	49.27
779.999	49.3
780.392	49.33
780.786	49.35
781.179	49.36
781.572	49.4
781.965	49.42
782.358	49.42
782.751	49.41
783.143	49.43
783.536	49.43
783.929	49.41
784.322	49.42
784.714	49.42
785.107	49.44
785.499	49.43
785.891	49.44
786.284	49.42
786.676	49.4
787.068	49.42
787.46	49.41
787.852	49.42
788.245	49.4
788.636	49.39
789.028	49.4
789.42	49.39
789.812	49.39
790.204	49.38
790.595	49.41
790.987	49.43
791.378	49.44
791.77	49.44
792.161	49.46
792.553	49.49
792.944	49.49
793.335	49.5
793.726	49.52
794.117	49.53
794.508	49.53
794.899	49.52
795.29	49.49
795.681	49.48
796.072	49.48
796.463	49.53
796.853	49.49
797.244	49.51
797.634	49.51
798.025	49.53
798.415	49.54
798.806	49.57
799.196	49.57
799.586	49.59
799.976	49.6
800.366	49.61
800.756	49.55
801.146	49.6
801.536	49.61
801.926	49.61
802.316	49.62
802.706	49.62
803.095	49.6
803.485	49.58
803.874	49.58
804.264	49.56
804.653	49.6
805.043	49.61
805.432	49.6
805.821	49.62
806.21	49.63
806.599	49.62
806.988	49.62
807.377	49.62
807.766	49.65
808.155	49.65
808.544	49.68
808.933	49.66
809.321	49.65
809.71	49.66
810.098	49.64
810.487	49.6
810.875	49.63
811.264	49.63
811.652	49.68
812.04	49.68
812.428	49.71
812.816	49.69
813.204	49.69
813.592	49.68
813.98	49.67
814.368	49.69
814.756	49.75
815.144	49.71
815.531	49.71
815.919	49.67
816.306	49.67
816.694	49.64
817.081	49.65
817.469	49.67
817.856	49.69
818.243	49.67
818.63	49.64
819.017	49.61
819.404	49.62
819.791	49.6
820.178	49.6
820.565	49.57
820.952	49.59
821.339	49.58
821.725	49.58
822.112	49.58
822.498	49.58
822.885	49.61
823.271	49.62
823.657	49.62
824.044	49.63
824.43	49.63
824.816	49.67
825.202	49.64
825.588	49.64
825.974	49.61
826.36	49.61
826.746	49.61
827.132	49.6
827.517	49.61
827.903	49.61
828.289	49.63
828.674	49.66
829.06	49.62
829.445	49.62
829.83	49.62
830.216	49.63
830.601	49.63
830.986	49.66
831.371	49.63
831.756	49.62
832.141	49.63
832.526	49.61
832.911	49.59
833.295	49.62
833.68	49.64
834.065	49.65
834.449	49.63
834.834	49.61
835.218	49.59
835.603	49.6
835.987	49.57
836.371	49.54
836.755	49.52
837.139	49.49
837.524	49.48
837.908	49.47
838.291	49.47
838.675	49.48
839.059	49.5
839.443	49.49
839.827	49.49
840.21	49.51
840.594	49.52
840.977	49.53
841.361	49.56
841.744	49.53
842.127	49.5
842.511	49.46
842.894	49.43
843.277	49.41
843.66	49.39
844.043	49.41
844.426	49.41
844.809	49.4
845.191	49.41
845.574	49.41
845.957	49.43
846.339	49.45
846.722	49.48
847.104	49.51
847.487	49.51
847.869	49.53
848.252	49.51
848.634	49.51
849.016	49.53
849.398	49.54
849.78	49.53
850.162	49.53
850.544	49.54
850.926	49.54
851.307	49.54
851.689	49.53
852.071	49.54
852.452	49.53
852.834	49.55
853.215	49.53
853.597	49.53
853.978	49.52
854.359	49.54
854.741	49.55
855.122	49.54
855.503	49.53
855.884	49.51
856.265	49.52
856.646	49.52
857.026	49.54
857.407	49.54
857.788	49.54
858.169	49.55
858.549	49.56
858.93	49.54
859.31	49.57
859.69	49.6
860.071	49.63
860.451	49.65
860.831	49.65
861.211	49.6
861.591	49.61
861.971	49.61
862.351	49.62
862.731	49.61
863.111	49.61
863.491	49.6
863.87	49.59
864.25	49.57
864.629	49.57
865.009	49.6
865.388	49.61
865.768	49.63
866.147	49.65
866.526	49.66
866.905	49.65
867.284	49.68
867.663	49.69
868.042	49.71
868.421	49.73
868.8	49.74
869.179	49.75
869.558	49.75
869.936	49.75
870.315	49.74
870.693	49.73
871.072	49.75
871.45	49.75
871.828	49.76
872.207	49.77
872.585	49.75
872.963	49.72
873.341	49.71
873.719	49.72
874.097	49.71
874.475	49.74
874.853	49.75
875.23	49.75
875.608	49.75
875.986	49.78
876.363	49.77
876.741	49.8
877.118	49.82
877.495	49.84
877.873	49.85
878.25	49.86
878.627	49.84
879.004	49.82
879.381	49.82
879.758	49.79
880.135	49.77
880.512	49.75
880.889	49.73
881.265	49.72
881.642	49.68
882.019	49.67
882.395	49.64
882.772	49.61
883.148	49.58
883.524	49.56
883.901	49.56
884.277	49.51
884.653	49.49
885.029	49.47
885.405	49.45
885.781	49.45
886.157	49.43
886.532	49.45
886.908	49.43
887.284	49.43
887.659	49.41
888.035	49.37
888.411	49.37
888.786	49.36
889.161	49.37
889.537	49.37
889.912	49.37
890.287	49.37
890.662	49.34
891.037	49.35
891.412	49.35
891.787	49.35
892.162	49.38
892.536	49.38
892.911	49.38
893.286	49.36
893.66	49.37
894.035	49.38
894.409	49.37
894.784	49.41
895.158	49.42
895.532	49.44
895.906	49.47
896.281	49.5
896.655	49.53
897.029	49.58
897.402	49.6
897.776	49.64
898.15	49.65
898.524	49.71
898.898	49.71
899.271	49.72
899.645	49.73
900.018	49.75
900.392	49.75
900.765	49.76
901.138	49.74
901.511	49.73
901.884	49.72
902.258	49.73
902.631	49.71
903.003	49.73
903.376	49.75
903.749	49.75
904.122	49.75
904.495	49.74
904.867	49.75
905.24	49.8
905.612	49.82
905.985	49.8
906.357	49.81
906.729	49.82
907.102	49.81
907.474	49.82
907.846	49.83
908.218	49.83
908.59	49.87
908.962	49.88
909.334	49.87
909.705	49.88
910.077	49.91
910.449	49.9
910.82	49.91
911.192	49.91
911.563	49.9
911.935	49.91
912.306	49.93
912.677	49.92
913.048	49.93
913.419	49.9
913.79	49.9
914.161	49.9
914.532	49.91
914.903	49.9
915.274	49.92
915.645	49.95
916.015	49.96
916.386	49.96
916.756	49.97
917.127	49.98
917.497	50.01
917.868	50.02
918.238	50.01
918.608	50.06
918.978	50.09
919.348	50.1
919.718	50.08
920.088	50.09
920.458	50.08
920.828	50.08
921.198	50.06
921.567	50.1
921.937	50.12
922.306	50.13
922.676	50.08
923.045	50.07
923.415	50.05
923.784	50.04
924.153	50.06
924.522	50.07
924.891	50.07
925.26	50.09
925.629	50.04
925.998	50.05
926.367	50.05
926.736	50.07
927.104	50.09
927.473	50.11
927.842	50.1
928.21	50.09
928.578	50.08
928.947	50.1
929.315	50.1
929.683	50.11
930.051	50.09
930.42	50.1
930.788	50.13
931.156	50.13
931.523	50.12
931.891	50.2
932.259	50.23
932.627	50.27
932.994	50.3
933.362	50.31
933.729	50.34
934.097	50.4
934.464	50.45
934.831	50.45
935.199	50.52
935.566	50.6
935.933	50.57
936.3	50.6
936.667	50.62
937.034	50.7
937.401	50.75
937.767	50.79
938.134	50.79
938.501	50.8
938.867	50.85
939.234	50.82
939.6	50.76
939.967	50.81
940.333	50.77
940.699	50.79
941.065	50.64
941.431	50.59
941.798	50.55
942.163	50.48
942.529	50.4
942.895	50.31
943.261	50.22
943.627	50.18
943.992	50.12
944.358	50.15
944.723	50.04
945.089	50.02
945.454	50.02
945.82	49.97
946.185	49.97
946.55	49.86
946.915	49.86
947.28	49.89
947.645	49.86
948.01	49.83
948.375	49.74
948.74	49.7
949.104	49.69
949.469	49.65
949.834	49.63
950.198	49.64
950.562	49.63
950.927	49.55
951.291	49.46
951.655	49.42
952.02	49.4
952.384	49.39
952.748	49.41
953.112	49.48
953.476	49.45
953.839	49.39
954.203	49.38
954.567	49.41
954.931	49.42
955.294	49.45
955.658	49.49
956.021	49.43
956.385	49.39
956.748	49.34
957.111	49.27
957.474	49.24
957.837	49.26
958.2	49.22
958.563	49.21
958.926	49.23
959.289	49.23
959.652	49.19
960.015	49.25
960.377	49.28
960.74	49.35
961.102	49.33
961.465	49.37
961.827	49.46
962.189	49.5
962.552	49.5
962.914	49.46
963.276	49.48
963.638	49.51
964	49.46
964.362	49.49
964.724	49.4
965.085	49.35
965.447	49.36
965.809	49.29
966.17	49.26
966.532	49.22
966.893	49.28
967.255	49.21
967.616	49.24
967.977	49.28
968.338	49.26
968.699	49.35
969.061	49.35
969.421	49.33
969.782	49.33
970.143	49.35
970.504	49.46
970.865	49.46
971.225	49.54
971.586	49.48
971.946	49.45
972.307	49.41
972.667	49.34
973.027	49.43
973.388	49.39
973.748	49.39
974.108	49.44
974.468	49.36
974.828	49.41
975.188	49.39
975.548	49.44
975.907	49.46
976.267	49.54
976.627	49.61
976.986	49.6
977.346	49.62
977.705	49.63
978.064	49.64
978.424	49.66
978.783	49.58
979.142	49.59
979.501	49.6
979.86	49.7
980.219	49.71
980.578	49.76
980.937	49.74
981.296	49.72
981.654	49.76
982.013	49.77
982.371	49.83
982.73	49.92
983.088	49.91
983.447	49.92
983.805	49.88
984.163	49.81
984.521	49.72
984.879	49.76
985.237	49.88
985.595	49.93
985.953	49.89
986.311	49.79
986.669	49.79
987.026	49.78
987.384	49.82
987.741	49.78
988.099	49.9
988.456	50
988.814	50.03
989.171	49.96
989.528	49.85
989.885	49.88
990.242	50.03
990.599	49.98
990.956	50.06
991.313	50.11
991.67	50.17
992.027	50.32
992.383	50.34
992.74	50.43
993.096	50.49
993.453	50.56
993.809	50.58
994.165	50.63
994.522	50.86
994.878	50.94
995.234	50.93
995.59	50.92
995.946	50.88
996.302	50.91
996.658	50.91
997.013	50.95
997.369	51.03
997.725	51.17
998.08	51.16
998.436	50.97
998.791	51.03
999.147	50.91
999.502	50.96
999.857	50.79
1000.212	50.8
1000.567	50.82
1000.922	50.85
1001.277	50.88
1001.632	50.86
1001.987	50.83
1002.342	50.88
1002.696	50.86
1003.051	51.17
1003.406	51.34
1003.76	51.52
1004.114	51.53
1004.469	51.62
1004.823	51.94
1005.177	51.94
1005.531	52.06
1005.885	52.26
1006.239	52.44
1006.593	52.47
1006.947	52.44
1007.301	52.36
1007.655	52.27
1008.008	52.38
1008.362	52.5
1008.715	52.24
1009.069	52.3
1009.422	52.42
1009.776	52.38
1010.129	52.3
1010.482	52.38
1010.835	52.33
1011.188	52.45
1011.541	52.55
1011.894	52.64
1012.247	52.64
1012.6	52.71
1012.952	52.74
1013.305	52.55
1013.657	52.65
1014.01	52.63
1014.362	52.57
1014.715	52.84
1015.067	52.94
1015.419	53.13
1015.771	52.99
1016.123	52.94
1016.475	52.98
1016.827	53.27
1017.179	53.57
1017.531	53.54
1017.883	53.66
1018.234	54.06
1018.586	54.2
1018.938	54.48
1019.289	54.48
1019.64	54.58
1019.992	54.63
1020.343	54.75
1020.694	54.68
1021.045	54.52
1021.396	54.85
1021.747	55.15
1022.098	55.06
1022.449	54.8
1022.8	54.93
1023.151	55.01
1023.501	55.33
1023.852	55.51
1024.202	55.72
1024.553	55.55
1024.903	55.86
1025.253	55.95
1025.604	55.83
1025.954	55.72
1026.304	55.93
1026.654	55.9
1027.004	55.81
1027.354	55.74
1027.703	55.91
1028.053	55.75
1028.403	56.29
1028.753	55.96
1029.102	56
1029.452	56.28
1029.801	56.65
1030.15	56.69
1030.499	56.41
897.758	2053.86
901.051	2061.61
904.343	2046.44
907.636	2086.91
910.928	2033.09
914.22	2028.37
917.511	1998.37
920.803	1911.23
924.094	1904.86
927.384	1861.6
930.675	1778.19
933.965	1766.93
937.255	1662
940.544	1598.15
943.834	1517.05
947.123	1502.19
950.411	1413.29
953.7	1382.52
956.988	1308.56
960.276	1251.69
963.563	1230.87
966.851	1189.56
970.138	1180.38
973.424	1144.02
976.711	1149.35
979.997	1092
983.283	1088.37
986.568	1067.08
989.853	1030.27
993.138	1013.46
996.423	973.81
999.708	947.34
1002.992	938.21
1006.275	890.68
1009.559	881.03
1012.842	850.63
1016.125	826.23
1019.408	810.36
1022.69	797.67
1025.972	786.06
1029.254	763.38
1032.536	751.74
1035.817	733.98
1039.098	722.9
1042.379	708.53
1045.659	702.24
1048.939	684.32
1052.219	670.31
1055.498	657.48
1058.778	644.53
1062.057	625.15
1065.335	619.55
1068.614	611.92
1071.892	607.43
1075.17	584.83
1078.447	574.75
1081.724	570.19
1085.001	565.7
1088.278	553.8
1091.554	542.27
1094.83	541.73
1098.106	539.1
1101.382	533.36
1104.657	530.17
1107.932	519.96
1111.206	525.51
1114.481	511.41
1117.755	505.36
1121.029	502.1
1124.302	502.75
1127.575	492.6
1130.848	485.39
1134.121	480.61
1137.393	480.04
1140.665	467.61
1143.937	466.5
1147.208	459.55
1150.48	461.07
1153.75	454.09
1157.021	445.24
1160.291	445.36
1163.561	441.94
1166.831	441.57
1170.101	439.12
1173.37	435.69
1176.639	437.72
1179.907	432.31
1183.176	429.36
1186.444	428.05
1189.711	428.43
1192.979	428.22
1196.246	424.22
1199.513	425.53
1202.78	422.73
1206.046	422.26
1209.312	418.73
1212.578	419.33
1215.843	422.7
1219.108	420.23
1222.373	429.15
1225.638	432.7
1228.902	439.96
1232.166	440.3
1235.43	444.74
1238.693	450.94
1241.956	452.76
1245.219	461.28
1248.482	460.35
1251.744	461.13
1255.006	461.91
1258.268	449.54
1261.529	444.54
1264.79	439.53
1268.051	437.42
1271.312	431.09
1274.572	425.83
1277.832	421.31
1281.092	413.87
1284.351	410.89
1287.61	410.42
1290.869	404.01
1294.128	401.62
1297.386	401.61
1300.644	397.55
1303.902	398.81
1307.159	396.13
1310.416	397.39
1313.673	398.01
1316.93	400.96
1320.186	402.2
1323.442	402.77
1326.697	411.72
1329.953	412.09
1333.208	414.8
1336.463	418.79
1339.717	419.6
1342.972	424.81
1346.226	427.62
1349.479	427.23
1352.733	431.65
1355.986	431.54
1359.238	432.01
1362.491	434.04
1365.743	439.02
1368.995	438.31
1372.247	437.71
1375.498	438.62
1378.749	443.98
1382	437.52
1385.251	440.69
1388.501	436.13
1391.751	440.69
1395	437.68
1398.25	435.12
1401.499	432.96
1404.748	432.63
1407.996	428.84
1411.244	426.29
1414.492	424.7
1417.74	422.57
1420.987	415.41
1424.234	417.41
1427.481	409.78
1430.728	411.04
1433.974	405.83
1437.22	402.37
1440.465	401.38
1443.711	399.74
1446.956	397.6
1450.201	390.59
1453.445	387.13
1456.689	386.64
1459.933	378.86
1463.177	376.88
1466.42	369.83
1469.663	365.66
1472.906	364.03
1476.148	353.5
1479.391	348.34
1482.633	344.18
1485.874	339.94
1489.115	337.89
1492.356	331.55
1495.597	331.22
1498.838	325.18
1502.078	323.16
1505.318	321.27
1508.557	321.29
1511.797	321.18
1515.036	319.81
1518.274	318.94
1521.513	314.71
1524.751	314.47
1527.989	314.28
1531.227	312.68
1534.464	314.62
1537.701	311.34
1540.938	310.49
1544.174	305.73
1547.41	304.79
1550.646	303.35
1553.882	303.56
1557.117	300.44
1560.352	297.77
1563.587	296.7
1566.821	293.98
1570.055	290.02
1573.289	288.22
1576.523	288.3
1579.756	285.83
1582.989	284.5
1586.222	284.16
1589.454	281.19
1592.686	283.67
1595.918	282.27
1599.15	281.72
1602.381	281.93
1605.612	281.89
1608.843	283.78
1612.073	282.36
1615.303	284.83
1618.533	285.25
1621.762	283.44
1624.992	284.48
1628.221	284.09
1631.449	283.97
1634.678	282.92
1637.906	284.17
1641.134	284.31
1644.361	283.35
1647.588	284.6
1650.815	282.49
1654.042	280.65
1657.269	283.34
1660.495	283.34
1663.72	280.16
1666.946	281.66
1670.171	282.39
1673.396	282.01
1676.621	281.98
1679.845	281.77
1683.069	281.44
1686.293	283.73
1689.517	285.44
1692.74	284.45
1695.963	286.03
1699.185	290.92
1702.408	290.21
1705.63	291.75
1708.852	292.58
1712.073	292.99
1715.294	293.96
1718.515	294.82
1721.736	294.44
1724.956	295.39
1728.176	295.32
1731.396	298.22
1734.616	296.82
1737.835	298.49
1741.054	295.65
1744.272	297.35
1747.491	301.15
1750.709	301.36
1753.927	302.27
1757.144	300.78
1760.361	303.18
1763.578	303.63
1766.795	302.46
1770.011	303.88
1773.227	304.3
1776.443	308.72
1779.658	310.51
1782.874	308.1
1786.089	309.89
1789.303	310.96
1792.518	315.19
1795.732	314.18
1798.945	318.44
1802.159	318.22
1805.372	320.29
1808.585	326.21
1811.797	327.41
1815.01	326.28
1818.222	329.72
1821.434	331.89
1824.645	333.59
1827.856	339.01
1831.067	343.13
1834.278	340.24
1837.488	343.5
1840.698	346.25
1843.908	341.87
1847.117	344.69
1850.326	347.58
1853.535	346.47
1856.744	353.08
1859.952	352.53
1863.16	351.71
1866.368	348.54
1869.575	354.94
1872.782	349.41
1875.989	348.04
1879.196	347.62
1882.402	345.94
1885.608	348.02
1888.814	350.49
1892.019	348.83
1895.224	348.61
1898.429	346.33
1901.634	349.79
1904.838	350
1908.042	355.22
1911.246	357.15
1914.449	359.77
1917.652	359.42
1920.855	359.44
1924.058	358.39
1927.26	357.07
1930.462	359.24
1933.664	364.03
1936.865	360.41
1940.066	360.24
1943.267	357.85
1946.467	357.06
1949.668	359.91
1952.868	364.43
1956.067	363.12
1959.267	363.31
1962.466	364.73
1965.665	362.7
1968.863	362.99
1972.061	368.15
1975.259	371.33
1978.457	373.83
1981.654	376.37
1984.852	377.4
1988.048	375.56
1991.245	379.47
1994.441	385.4
1997.637	386.88
2000.833	394.14
2004.028	398.97
2007.223	401.25
2010.418	406.22
2013.613	412.51
2016.807	418.39
2020.001	420.21
2023.194	426.68
2026.388	435.92
2029.581	444.44
2032.774	449.9
2035.966	458.4
2039.158	460.74
2042.35	470.09
2045.542	470.37
2048.733	477.72
2051.924	483.76
2055.115	492.24
2058.306	493.05
2061.496	499.68
2064.686	499.07
2067.875	507.8
2071.065	508.22
2074.254	505.56
2077.442	509.93
2080.631	513.44
2083.819	518.75
2087.007	519.18
2090.195	525.24
2093.382	529.31
2096.569	523.83
2099.756	532.91
2102.942	533.03
2106.128	541.13
2109.314	551.45
2112.5	549.8
2115.685	562.13
2118.87	562.59
2122.055	574.21
2125.239	579.26
2128.424	588.75
2131.608	592.49
2134.791	599.5
2137.974	603.67
2141.157	603.59
2144.34	606.05
2147.523	615.97
2150.705	610.8
2153.887	616.36
2157.068	616.86
2160.25	609.73
2163.431	610.38
2166.611	618.16
2169.792	630.82
2172.972	637.94
2176.152	639.71
2179.331	648.97
2182.511	660.69
2185.69	670.74
2188.868	683.91
2192.047	685.89
2195.225	706.43
2198.403	726.39
2201.58	738.74
2204.758	751.78
2207.935	767.42
2211.111	783.64
2214.288	793.43
2217.464	795.95
2220.64	803.67
2223.815	817.1
2226.991	850.03
2230.166	853.51
2233.34	869.11
2236.515	882.22
2239.689	882.97
2242.863	887.59
2246.036	916.97
2249.209	906.92
2252.382	920.23
2255.555	952.13
2258.727	953.12
2261.9	957.05
2265.071	965.66
2268.243	980.1
2271.414	992.65
2274.585	1019.77
2277.756	1027.72
2280.926	1033.35
2284.096	1057.65
2287.266	1082.21
2290.436	1090.11
2293.605	1117.14
2296.774	1155.36
2299.942	1192.38
2303.111	1196.84
2306.279	1230.37
2309.447	1241.14
2312.614	1276.28
2315.781	1308.77
2318.948	1371.93
2322.115	1350.01
2325.281	1420.48
2328.447	1388.85
2331.613	1447.22
2334.779	1428.39
2337.944	1493.59
2341.109	1506.07
2344.274	1547.59
2347.438	1603.84
2350.602	1609.3
2353.766	1654.46
2356.929	1676.93
2360.092	1666
2363.255	1795.14
2366.418	1783.28
2369.58	1823.31
2372.742	1929.63
2375.904	1978.77
2379.066	1968.14
2382.227	1925.41
2385.388	2083.3
2388.548	2097.11
2391.709	2129.12
2394.869	2374.28
2398.029	2254.18
2401.188	2321.59
2404.347	2311.27
2407.506	2281.25
2410.665	2344.84
2413.823	2486.39
2416.981	2636.15
2420.139	2545.18
2423.296	2511.3
2426.453	2617.07
2429.61	2514.14
2432.767	2647.62
2435.923	2625.54
2439.079	2855.04
2442.235	2887.56
2445.391	2863.27
2448.546	2850.41
2451.701	2769.53
2454.855	2776.44
2458.009	2941.04
2461.163	3059.47
2464.317	3176.34
2467.471	3256.85
2470.624	3259.53
2473.777	3176.54
2476.929	3105.92
2480.082	3015.13
2483.234	2970.41
2486.385	3106.57
2489.537	3121.99
2492.688	3244.6
2495.839	3148.09
2498.989	3088.6
2502.14	3107.03
2505.29	3140.97
2508.439	3194.99
2511.589	3181.93
2514.738	3462.73
2517.887	3395.78
2521.035	3597.37
2524.183	3617.87
2527.331	3647.41
2530.479	3648.75
2533.627	3664.58
