Data from C_2_DIV_IL_4N_Splice17_13-41-08-638.txt Node
Date: Sat Mar 07 13:41:08 EST 2020
User: sa697716
Spectrometer: NQ5500242
Trigger mode: 0
Integration Time (sec): 1.450000E-1
Scans to average: 20
Nonlinearity correction enabled: false
Boxcar width: 5
Storing dark spectrum: false
XAxis mode: Wavelengths
Number of Pixels in Spectrum: 512
>>>>>Begin Spectral Data<<<<<
187.83	225.03
188.298	264.51
188.766	229.95
189.233	164.48
189.701	175.78
190.169	216.96
190.636	238.85
191.104	374.93
191.571	146.83
192.039	-205.73
192.506	-27.27
192.974	104.18
193.441	228.99
193.908	82.55
194.375	19.56
194.842	1
195.31	108.79
195.777	405.95
196.244	116.62
196.711	98.87
197.177	97.07
197.644	96.62
198.111	96.71
198.578	97.18
199.045	97.66
199.511	97.21
199.978	97.53
200.445	97.88
200.911	97.61
201.378	97.58
201.844	97.35
202.31	96.94
202.777	96.96
203.243	96.55
203.709	96.01
204.176	95.07
204.642	94.38
205.108	93.55
205.574	92.12
206.04	91.23
206.506	90.51
206.972	89.97
207.438	89.4
207.903	87.98
208.369	86.25
208.835	84.49
209.301	82.8
209.766	80.39
210.232	78.02
210.697	75.88
211.163	73.95
211.628	72.17
212.094	70.04
212.559	68.44
213.024	66.9
213.49	65.57
213.955	64.23
214.42	62.45
214.885	60.85
215.35	58.68
215.815	55.72
216.28	51.71
216.745	47.27
217.21	43.03
217.675	38.9
218.14	35.37
218.604	32.36
219.069	29.78
219.534	27.76
219.998	26.04
220.463	24.59
220.927	23.36
221.392	22.37
221.856	21.57
222.32	20.9
222.785	20.34
223.249	19.83
223.713	19.31
224.177	18.87
224.642	18.45
225.106	18.05
225.57	17.66
226.034	17.35
226.497	17.04
226.961	16.74
227.425	16.43
227.889	16.1
228.353	15.8
228.816	15.52
229.28	15.26
229.744	14.99
230.207	14.75
230.671	14.52
231.134	14.25
231.597	14.06
232.061	13.84
232.524	13.63
232.987	13.45
233.45	13.27
233.914	13.11
234.377	12.91
234.84	12.77
235.303	12.62
235.766	12.47
236.229	12.34
236.691	12.18
237.154	12.05
237.617	11.93
238.08	11.79
238.542	11.66
239.005	11.54
239.468	11.42
239.93	11.29
240.393	11.17
240.855	11.03
241.317	10.91
241.78	10.78
242.242	10.66
242.704	10.54
243.166	10.43
243.629	10.32
244.091	10.21
244.553	10.12
245.015	10.01
245.477	9.91
245.939	9.82
246.4	9.72
246.862	9.63
247.324	9.54
247.786	9.45
248.247	9.36
248.709	9.26
249.17	9.17
249.632	9.09
250.093	9.02
250.555	8.95
251.016	8.88
251.477	8.82
251.939	8.75
252.4	8.69
252.861	8.63
253.322	8.57
253.783	8.52
254.244	8.47
254.705	8.4
255.166	8.33
255.627	8.26
256.088	8.21
256.549	8.14
257.009	8.07
257.47	8.01
257.931	7.93
258.391	7.85
258.852	7.78
259.312	7.71
259.773	7.65
260.233	7.59
260.694	7.54
261.154	7.48
261.614	7.43
262.074	7.36
262.534	7.31
262.994	7.27
263.455	7.24
263.915	7.2
264.374	7.16
264.834	7.12
265.294	7.08
265.754	7.05
266.214	7.01
266.673	6.98
267.133	6.96
267.593	6.94
268.052	6.91
268.512	6.89
268.971	6.87
269.431	6.85
269.89	6.83
270.349	6.8
270.809	6.78
271.268	6.76
271.727	6.74
272.186	6.72
272.645	6.7
273.104	6.68
273.563	6.67
274.022	6.65
274.481	6.64
274.94	6.62
275.399	6.6
275.857	6.59
276.316	6.57
276.775	6.55
277.233	6.54
277.692	6.53
278.15	6.52
278.609	6.51
279.067	6.5
279.525	6.48
279.984	6.47
280.442	6.46
280.9	6.46
281.358	6.45
281.816	6.44
282.274	6.43
282.732	6.41
283.19	6.41
283.648	6.39
284.106	6.37
284.564	6.35
285.021	6.34
285.479	6.32
285.937	6.3
286.394	6.28
286.852	6.25
287.309	6.22
287.767	6.2
288.224	6.16
288.682	6.13
289.139	6.09
289.596	6.06
290.053	6.02
290.511	5.99
290.968	5.96
291.425	5.93
291.882	5.9
292.339	5.88
292.796	5.86
293.252	5.84
293.709	5.82
294.166	5.81
294.623	5.8
295.079	5.78
295.536	5.77
295.992	5.76
296.449	5.75
296.905	5.73
297.362	5.72
297.818	5.7
298.274	5.69
298.731	5.68
299.187	5.66
299.643	5.64
300.099	5.64
300.555	5.62
301.011	5.6
301.467	5.59
301.923	5.58
302.379	5.57
302.835	5.57
303.291	5.56
303.746	5.55
304.202	5.56
304.658	5.55
305.113	5.54
305.569	5.54
306.024	5.54
306.479	5.54
306.935	5.53
307.39	5.54
307.845	5.54
308.301	5.55
308.756	5.54
309.211	5.54
309.666	5.55
310.121	5.55
310.576	5.55
311.031	5.55
311.486	5.55
311.94	5.55
312.395	5.55
312.85	5.54
313.305	5.53
313.759	5.53
314.214	5.53
314.668	5.52
315.123	5.51
315.577	5.51
316.032	5.5
316.486	5.49
316.94	5.48
317.394	5.45
317.849	5.43
318.303	5.41
318.757	5.39
319.211	5.37
319.665	5.35
320.119	5.33
320.572	5.31
321.026	5.3
321.48	5.29
321.934	5.27
322.387	5.27
322.841	5.26
323.295	5.26
323.748	5.26
324.202	5.26
324.655	5.26
325.108	5.26
325.562	5.26
326.015	5.26
326.468	5.25
326.921	5.25
327.374	5.25
327.827	5.26
328.28	5.25
328.733	5.25
329.186	5.25
329.639	5.25
330.092	5.24
330.545	5.25
330.997	5.25
331.45	5.26
331.903	5.27
332.355	5.28
332.808	5.27
333.26	5.27
333.713	5.27
334.165	5.27
334.617	5.27
335.069	5.27
335.522	5.27
335.974	5.28
336.426	5.27
336.878	5.27
337.33	5.26
337.782	5.26
338.234	5.28
338.686	5.27
339.137	5.26
339.589	5.25
340.041	5.23
340.493	5.21
340.944	5.18
341.396	5.17
341.847	5.15
342.299	5.13
342.75	5.1
343.201	5.07
343.653	5.04
344.104	5.01
344.555	5.01
345.006	4.99
345.457	4.98
345.908	4.97
346.359	4.96
346.81	4.95
347.261	4.94
347.712	4.94
348.163	4.93
348.613	4.94
349.064	4.94
349.515	4.93
349.965	4.94
350.416	4.93
350.866	4.94
351.317	4.94
351.767	4.95
352.217	4.95
352.668	4.95
353.118	4.96
353.568	4.95
354.018	4.97
354.468	4.98
354.918	4.98
355.368	4.99
355.818	4.99
356.268	4.99
356.718	4.98
357.168	4.98
357.617	4.98
358.067	4.97
358.517	4.99
358.966	4.99
359.416	4.98
359.865	4.97
360.315	4.98
360.764	4.98
361.213	4.98
361.663	4.97
362.112	4.97
362.561	4.97
363.01	4.98
363.459	4.96
363.908	4.96
364.357	4.96
364.806	4.95
365.255	4.96
365.703	4.96
366.152	4.96
366.601	4.97
367.05	4.97
367.498	4.97
367.947	4.96
368.395	4.96
368.844	4.96
369.292	4.95
369.74	4.96
370.189	4.95
370.637	4.95
371.085	4.93
371.533	4.93
371.981	4.93
372.429	4.93
372.877	4.93
373.325	4.93
373.773	4.92
374.221	4.92
374.669	4.91
375.116	4.89
375.564	4.88
376.012	4.88
376.459	4.87
376.907	4.88
377.354	4.86
377.801	4.87
378.249	4.88
378.696	4.88
379.143	4.88
379.591	4.87
380.038	4.88
380.485	4.89
380.932	4.9
381.379	4.92
381.826	4.92
382.273	4.92
382.72	4.9
383.166	4.91
383.613	4.91
384.06	4.9
384.506	4.91
384.953	4.93
385.4	4.93
385.846	4.95
386.292	4.95
386.739	4.95
387.185	4.96
387.631	4.98
388.078	4.99
388.524	5.01
388.97	5.03
389.416	5.06
389.862	5.08
390.308	5.1
390.754	5.12
391.2	5.15
391.645	5.18
392.091	5.22
392.537	5.25
392.983	5.27
393.428	5.31
393.874	5.34
394.319	5.36
394.765	5.38
395.21	5.41
395.655	5.43
396.101	5.46
396.546	5.49
396.991	5.51
397.436	5.54
397.881	5.6
398.326	5.63
398.771	5.67
399.216	5.71
399.661	5.74
400.106	5.77
400.551	5.8
400.995	5.82
401.44	5.84
401.885	5.87
402.329	5.91
402.774	5.93
403.218	5.97
403.663	6
404.107	6.02
404.551	6.06
404.995	6.08
405.44	6.12
405.884	6.17
406.328	6.21
406.772	6.24
407.216	6.27
407.66	6.29
408.104	6.3
408.547	6.34
408.991	6.38
409.435	6.4
409.879	6.44
410.322	6.49
410.766	6.52
411.209	6.56
411.653	6.6
412.096	6.64
412.54	6.69
412.983	6.73
413.426	6.8
413.869	6.83
414.312	6.88
414.756	6.93
415.199	6.95
415.642	6.97
416.085	6.99
416.527	6.99
416.97	7
417.413	7
417.856	7
418.298	7
418.741	7.02
419.184	7.02
419.626	7.04
420.069	7.06
420.511	7.09
420.953	7.11
421.396	7.17
421.838	7.21
422.28	7.24
422.722	7.28
423.164	7.28
423.606	7.3
424.048	7.32
424.49	7.32
424.932	7.32
425.374	7.28
425.816	7.26
426.258	7.23
426.699	7.21
427.141	7.23
427.582	7.25
428.024	7.28
428.465	7.29
428.907	7.28
429.348	7.28
429.789	7.31
430.231	7.36
430.672	7.42
431.113	7.47
431.554	7.51
431.995	7.53
432.436	7.54
432.877	7.55
433.318	7.6
433.759	7.65
434.2	7.7
434.64	7.73
435.081	7.74
435.522	7.76
435.962	7.77
436.403	7.8
436.843	7.81
437.284	7.82
437.724	7.83
438.164	7.82
438.604	7.83
439.045	7.84
439.485	7.85
439.925	7.86
440.365	7.86
440.805	7.88
441.245	7.89
441.685	7.91
442.125	7.94
442.564	7.97
443.004	7.99
443.444	8.01
443.883	8.04
444.323	8.05
444.762	8.07
445.202	8.08
445.641	8.12
446.081	8.15
446.52	8.16
446.959	8.19
447.398	8.22
447.837	8.24
448.276	8.25
448.716	8.27
449.154	8.29
449.593	8.3
450.032	8.32
450.471	8.31
450.91	8.29
451.349	8.31
451.787	8.29
452.226	8.27
452.664	8.25
453.103	8.25
453.541	8.22
453.98	8.22
454.418	8.19
454.856	8.17
455.295	8.15
455.733	8.14
456.171	8.11
456.609	8.11
457.047	8.08
457.485	8.08
457.923	8.07
458.361	8.05
458.798	8.05
459.236	8.04
459.674	8.04
460.111	8.04
460.549	8.06
460.987	8.07
461.424	8.06
461.862	8.08
462.299	8.08
462.736	8.08
463.173	8.1
463.611	8.11
464.048	8.12
464.485	8.13
464.922	8.12
465.359	8.11
465.796	8.14
466.233	8.15
466.67	8.16
467.106	8.18
467.543	8.19
467.98	8.18
468.416	8.16
468.853	8.14
469.29	8.13
469.726	8.13
470.162	8.12
470.599	8.08
471.035	8.06
471.471	8.04
471.907	8.02
472.344	8.01
472.78	8.01
473.216	7.98
473.652	7.99
474.088	7.97
474.523	7.97
474.959	7.97
475.395	7.96
475.831	7.96
476.266	7.94
476.702	7.91
477.138	7.9
477.573	7.88
478.008	7.88
478.444	7.86
478.879	7.86
479.314	7.84
479.75	7.82
480.185	7.8
480.62	7.77
481.055	7.76
481.49	7.75
481.925	7.74
482.36	7.73
482.795	7.72
483.229	7.71
483.664	7.71
484.099	7.7
484.534	7.7
484.968	7.72
485.403	7.72
485.837	7.73
486.271	7.75
486.706	7.76
487.14	7.76
487.574	7.78
488.009	7.79
488.443	7.8
488.877	7.84
489.311	7.86
489.745	7.88
490.179	7.91
490.613	7.95
491.046	7.97
491.48	8.01
491.914	8.06
492.348	8.1
492.781	8.16
493.215	8.2
493.648	8.24
494.082	8.29
494.515	8.35
494.948	8.41
495.382	8.46
495.815	8.53
496.248	8.59
496.681	8.66
497.114	8.72
497.547	8.79
497.98	8.87
498.413	8.96
498.846	9.04
499.279	9.12
499.711	9.2
500.144	9.3
500.577	9.41
501.009	9.51
501.442	9.62
501.874	9.75
502.306	9.86
502.739	10.01
503.171	10.13
503.603	10.27
504.036	10.41
504.468	10.56
504.9	10.7
505.332	10.85
505.764	11.02
506.196	11.2
506.627	11.38
507.059	11.58
507.491	11.75
507.923	11.95
508.354	12.15
508.786	12.37
509.217	12.59
509.649	12.82
510.08	13.06
510.512	13.31
510.943	13.54
511.374	13.78
511.805	14.04
512.237	14.29
512.668	14.57
513.099	14.84
513.53	15.12
513.961	15.4
514.391	15.69
514.822	16
515.253	16.28
515.684	16.57
516.114	16.88
516.545	17.18
516.975	17.47
517.406	17.77
517.836	18.06
518.267	18.39
518.697	18.68
519.127	18.98
519.558	19.26
519.988	19.58
520.418	19.87
520.848	20.16
521.278	20.44
521.708	20.97
522.138	21.27
522.567	21.54
522.997	21.8
523.427	22.07
523.857	22.33
524.286	22.59
524.716	22.83
525.145	23.09
525.575	23.33
526.004	23.57
526.433	23.55
526.863	23.76
527.292	23.99
527.721	24.19
528.15	24.37
528.579	24.55
529.008	24.74
529.437	24.89
529.866	25.05
530.295	25.2
530.724	25.35
531.152	25.52
531.581	25.67
532.01	25.8
532.438	25.92
532.867	26.06
533.295	26.19
533.723	26.29
534.152	26.41
534.58	26.53
535.008	26.6
535.436	26.72
535.865	26.8
536.293	26.86
536.721	26.93
537.149	27.02
537.576	27.08
538.004	27.16
538.432	27.22
538.86	27.29
539.287	27.32
539.715	27.4
540.143	27.42
540.57	27.47
540.998	27.52
541.425	27.57
541.852	27.61
542.28	27.67
542.707	27.7
543.134	27.74
543.561	27.77
543.988	27.81
544.415	27.84
544.842	27.87
545.269	27.91
545.696	27.95
546.123	27.98
546.549	28.03
546.976	28.07
547.403	28.1
547.829	28.13
548.256	28.17
548.682	28.21
549.108	28.25
549.535	28.3
549.961	28.32
550.387	28.33
550.813	28.37
551.24	28.37
551.666	28.36
552.092	28.37
552.518	28.36
552.943	28.34
553.369	28.33
553.795	28.3
554.221	28.27
554.646	28.24
555.072	28.22
555.498	28.17
555.923	28.12
556.349	28.06
556.774	28
557.199	27.94
557.625	27.88
558.05	27.83
558.475	27.77
558.9	27.69
559.325	27.63
559.75	27.53
560.175	27.45
560.6	27.35
561.025	27.29
561.449	27.19
561.874	27.08
562.299	26.98
562.723	26.86
563.148	26.73
563.572	26.6
563.997	26.45
564.421	26.31
564.846	26.18
565.27	26.05
565.694	25.89
566.118	25.75
566.542	25.62
566.966	25.45
567.39	25.3
567.814	25.15
568.238	25
568.662	24.87
569.086	24.74
569.509	24.59
569.933	24.45
570.357	24.3
570.78	24.15
571.204	24
571.627	23.88
572.05	23.73
572.474	23.62
572.897	23.49
573.32	23.36
573.743	23.23
574.166	23.11
574.589	22.97
575.012	22.84
575.435	22.73
575.858	22.61
576.281	22.49
576.704	22.37
577.126	22.25
577.549	22.15
577.972	22.04
578.394	21.94
578.817	21.86
579.239	21.78
579.661	21.69
580.084	21.59
580.506	21.51
580.928	21.43
581.35	21.38
581.772	21.3
582.194	21.22
582.616	21.14
583.038	21.06
583.46	20.96
583.882	20.89
584.303	20.8
584.725	20.73
585.147	20.69
585.568	20.62
585.99	20.54
586.411	20.46
586.833	20.4
587.254	20.32
587.675	20.26
588.096	20.2
588.518	20.15
588.939	20.12
589.36	20.06
589.781	19.99
590.202	19.95
590.623	19.91
591.043	19.86
591.464	19.82
591.885	19.78
592.305	19.73
592.726	19.7
593.147	19.65
593.567	19.6
593.987	19.56
594.408	19.51
594.828	19.45
595.248	19.42
595.669	19.39
596.089	19.35
596.509	19.31
596.929	19.29
597.349	19.26
597.769	19.21
598.189	19.17
598.608	19.14
599.028	19.11
599.448	19.07
599.867	19.03
600.287	18.99
600.706	18.95
601.126	18.91
601.545	18.86
601.965	18.82
602.384	18.78
602.803	18.72
603.222	18.67
603.641	18.61
604.061	18.56
604.48	18.49
604.898	18.41
605.317	18.35
605.736	18.28
606.155	18.2
606.574	18.12
606.992	18.05
607.411	17.98
607.829	17.87
608.248	17.78
608.666	17.68
609.085	17.6
609.503	17.53
609.921	17.46
610.339	17.38
610.758	17.29
611.176	17.2
611.594	17.12
612.012	17.02
612.43	16.98
612.847	16.9
613.265	16.81
613.683	16.74
614.101	16.65
614.518	16.56
614.936	16.48
615.353	16.39
615.771	16.32
616.188	16.25
616.606	16.19
617.023	16.12
617.44	16.07
617.857	16.01
618.274	15.94
618.691	15.89
619.108	15.84
619.525	15.79
619.942	15.75
620.359	15.71
620.776	15.67
621.192	15.64
621.609	15.6
622.026	15.56
622.442	15.55
622.859	15.52
623.275	15.5
623.691	15.5
624.108	15.48
624.524	15.46
624.94	15.45
625.356	15.45
625.772	15.43
626.188	15.42
626.604	15.42
627.02	15.4
627.436	15.39
627.852	15.4
628.268	15.38
628.683	15.36
629.099	15.35
629.514	15.32
629.93	15.3
630.345	15.27
630.761	15.25
631.176	15.21
631.591	15.18
632.007	15.14
632.422	15.08
632.837	15.04
633.252	14.99
633.667	14.93
634.082	14.87
634.497	14.81
634.911	14.74
635.326	14.66
635.741	14.58
636.155	14.48
636.57	14.4
636.984	14.31
637.399	14.21
637.813	14.11
638.228	13.99
638.642	13.88
639.056	13.76
639.47	13.65
639.884	13.54
640.298	13.41
640.712	13.3
641.126	13.18
641.54	13.06
641.954	12.94
642.368	12.81
642.781	12.71
643.195	12.6
643.609	12.49
644.022	12.37
644.436	12.26
644.849	12.15
645.262	12.04
645.676	11.93
646.089	11.85
646.502	11.77
646.915	11.69
647.328	11.61
647.741	11.55
648.154	11.48
648.567	11.43
648.98	11.36
649.393	11.32
649.805	11.28
650.218	11.22
650.631	11.16
651.043	11.1
651.456	11.05
651.868	10.99
652.28	10.94
652.693	10.89
653.105	10.82
653.517	10.77
653.929	10.71
654.341	10.64
654.753	10.58
655.165	10.52
655.577	10.45
655.989	10.36
656.401	10.27
656.813	10.2
657.224	10.1
657.636	10.01
658.047	9.92
658.459	9.82
658.87	9.72
659.282	9.61
659.693	9.51
660.104	9.4
660.515	9.3
660.926	9.21
661.338	9.1
661.749	9
662.159	8.91
662.57	8.83
662.981	8.75
663.392	8.67
663.803	8.59
664.213	8.51
664.624	8.46
665.035	8.39
665.445	8.33
665.855	8.28
666.266	8.23
666.676	8.19
667.086	8.13
667.497	8.09
667.907	8.04
668.317	8.02
668.727	7.99
669.137	7.96
669.547	7.95
669.956	7.93
670.366	7.92
670.776	7.91
671.186	7.89
671.595	7.88
672.005	7.87
672.414	7.88
672.824	7.88
673.233	7.88
673.642	7.89
674.052	7.9
674.461	7.91
674.87	7.91
675.279	7.93
675.688	7.95
676.097	7.98
676.506	8.02
676.915	8.04
677.323	8.07
677.732	8.1
678.141	8.14
678.549	8.17
678.958	8.22
679.366	8.27
679.775	8.33
680.183	8.42
680.592	8.5
681	8.59
681.408	8.69
681.816	8.79
682.224	8.92
682.632	9.06
683.04	9.2
683.448	9.38
683.856	9.56
684.264	9.76
684.671	9.97
685.079	10.2
685.487	10.46
685.894	10.75
686.302	11.07
686.709	11.39
687.116	11.76
687.524	12.16
687.931	12.56
688.338	13
688.745	13.45
689.152	13.92
689.559	14.44
689.966	14.95
690.373	15.47
690.78	16.04
691.187	16.59
691.593	17.16
692	17.74
692.407	18.34
692.813	18.96
693.22	19.57
693.626	20.18
694.032	20.79
694.439	21.43
694.845	22.07
695.251	22.68
695.657	23.3
696.063	23.93
696.469	24.55
696.875	25.17
697.281	25.77
697.687	26.39
698.093	27
698.498	27.59
698.904	28.17
699.31	28.74
699.715	29.3
700.12	29.86
700.526	30.41
700.931	30.95
701.337	31.47
701.742	31.97
702.147	32.47
702.552	32.95
702.957	33.42
703.362	33.89
703.767	34.34
704.172	34.79
704.577	35.23
704.981	35.66
705.386	36.07
705.791	36.48
706.195	36.9
706.6	37.32
707.004	37.7
707.408	38.09
707.813	38.46
708.217	38.85
708.621	39.21
709.025	39.58
709.43	39.93
709.834	40.29
710.237	40.62
710.641	40.96
711.045	41.28
711.449	41.63
711.853	41.97
712.256	42.27
712.66	42.57
713.064	42.87
713.467	43.16
713.87	43.45
714.274	43.71
714.677	44
715.08	44.26
715.484	44.53
715.887	44.82
716.29	45.05
716.693	45.32
717.096	45.58
717.499	45.82
717.901	46.06
718.304	46.28
718.707	46.52
719.109	46.76
719.512	46.96
719.915	47.18
720.317	47.35
720.719	47.54
721.122	47.71
721.524	47.89
721.926	48.06
722.328	48.24
722.731	48.4
723.133	48.58
723.535	48.71
723.937	48.87
724.338	48.98
724.74	49.14
725.142	49.46
725.544	49.6
725.945	49.79
726.347	49.91
726.748	50.03
727.15	50.18
727.551	50.33
727.952	50.46
728.354	50.59
728.755	50.71
729.156	50.79
729.557	50.71
729.958	50.79
730.359	50.84
730.76	50.94
731.161	51.03
731.562	51.1
731.962	51.11
732.363	51.2
732.763	51.25
733.164	51.3
733.564	51.37
733.965	51.43
734.365	51.52
734.766	51.57
735.166	51.62
735.566	51.7
735.966	51.74
736.366	51.81
736.766	51.85
737.166	51.91
737.566	52
737.966	52.06
738.365	52.11
738.765	52.18
739.165	52.22
739.564	52.29
739.964	52.31
740.363	52.36
740.763	52.41
741.162	52.45
741.561	52.48
741.96	52.49
742.36	52.52
742.759	52.57
743.158	52.57
743.557	52.6
743.955	52.65
744.354	52.65
744.753	52.69
745.152	52.73
745.55	52.74
745.949	52.77
746.348	52.81
746.746	52.82
747.144	52.84
747.543	52.84
747.941	52.86
748.339	52.8
748.737	52.82
749.136	52.79
749.534	52.74
749.932	52.74
750.33	52.73
750.727	52.72
751.125	52.73
751.523	52.72
751.921	52.77
752.318	52.76
752.716	52.81
753.113	52.84
753.511	52.89
753.908	52.95
754.305	52.99
754.703	53
755.1	53.03
755.497	53.06
755.894	53.05
756.291	53.05
756.688	53.06
757.085	53.07
757.482	53.08
757.878	53.09
758.275	53.09
758.672	53.07
759.068	53.09
759.465	53.1
759.861	53.09
760.258	53.12
760.654	53.13
761.05	53.16
761.447	53.18
761.843	53.17
762.239	53.19
762.635	53.18
763.031	53.2
763.427	53.18
763.822	53.17
764.218	53.19
764.614	53.2
765.01	53.17
765.405	53.16
765.801	53.12
766.196	53.14
766.592	53.1
766.987	53.11
767.382	53.12
767.778	53.14
768.173	53.13
768.568	53.13
768.963	53.13
769.358	53.17
769.753	53.17
770.148	53.21
770.542	53.21
770.937	53.22
771.332	53.22
771.726	53.24
772.121	53.27
772.515	53.29
772.91	53.3
773.304	53.3
773.699	53.27
774.093	53.28
774.487	53.28
774.881	53.29
775.275	53.29
775.669	53.3
776.063	53.28
776.457	53.27
776.851	53.24
777.245	53.21
777.638	53.21
778.032	53.23
778.425	53.24
778.819	53.25
779.212	53.27
779.606	53.27
779.999	53.24
780.392	53.27
780.786	53.27
781.179	53.31
781.572	53.35
781.965	53.34
782.358	53.37
782.751	53.36
783.143	53.36
783.536	53.33
783.929	53.34
784.322	53.4
784.714	53.38
785.107	53.39
785.499	53.38
785.891	53.41
786.284	53.42
786.676	53.43
787.068	53.43
787.46	53.45
787.852	53.46
788.245	53.46
788.636	53.43
789.028	53.46
789.42	53.47
789.812	53.46
790.204	53.45
790.595	53.47
790.987	53.46
791.378	53.48
791.77	53.46
792.161	53.46
792.553	53.5
792.944	53.49
793.335	53.47
793.726	53.48
794.117	53.48
794.508	53.43
794.899	53.41
795.29	53.43
795.681	53.4
796.072	53.42
796.463	53.49
796.853	53.47
797.244	53.49
797.634	53.5
798.025	53.52
798.415	53.54
798.806	53.58
799.196	53.6
799.586	53.6
799.976	53.65
800.366	53.61
800.756	53.57
801.146	53.6
801.536	53.6
801.926	53.62
802.316	53.61
802.706	53.61
803.095	53.63
803.485	53.62
803.874	53.6
804.264	53.59
804.653	53.61
805.043	53.63
805.432	53.63
805.821	53.64
806.21	53.65
806.599	53.64
806.988	53.63
807.377	53.61
807.766	53.62
808.155	53.6
808.544	53.59
808.933	53.6
809.321	53.58
809.71	53.53
810.098	53.53
810.487	53.51
810.875	53.5
811.264	53.5
811.652	53.53
812.04	53.53
812.428	53.59
812.816	53.6
813.204	53.59
813.592	53.57
813.98	53.61
814.368	53.63
814.756	53.61
815.144	53.6
815.531	53.62
815.919	53.61
816.306	53.59
816.694	53.56
817.081	53.53
817.469	53.54
817.856	53.55
818.243	53.52
818.63	53.5
819.017	53.47
819.404	53.45
819.791	53.43
820.178	53.42
820.565	53.39
820.952	53.39
821.339	53.38
821.725	53.38
822.112	53.37
822.498	53.4
822.885	53.42
823.271	53.42
823.657	53.42
824.044	53.42
824.43	53.43
824.816	53.46
825.202	53.45
825.588	53.46
825.974	53.46
826.36	53.45
826.746	53.43
827.132	53.43
827.517	53.45
827.903	53.48
828.289	53.46
828.674	53.47
829.06	53.44
829.445	53.44
829.83	53.42
830.216	53.37
830.601	53.39
830.986	53.39
831.371	53.37
831.756	53.38
832.141	53.36
832.526	53.37
832.911	53.34
833.295	53.33
833.68	53.33
834.065	53.33
834.449	53.35
834.834	53.33
835.218	53.29
835.603	53.28
835.987	53.26
836.371	53.25
836.755	53.2
837.139	53.2
837.524	53.21
837.908	53.24
838.291	53.24
838.675	53.25
839.059	53.25
839.443	53.27
839.827	53.26
840.21	53.25
840.594	53.24
840.977	53.27
841.361	53.27
841.744	53.24
842.127	53.17
842.511	53.15
842.894	53.11
843.277	53.1
843.66	53.06
844.043	53.06
844.426	53.06
844.809	53.07
845.191	53.07
845.574	53.07
845.957	53.07
846.339	53.11
846.722	53.12
847.104	53.13
847.487	53.12
847.869	53.14
848.252	53.13
848.634	53.12
849.016	53.12
849.398	53.13
849.78	53.14
850.162	53.15
850.544	53.12
850.926	53.12
851.307	53.12
851.689	53.14
852.071	53.16
852.452	53.16
852.834	53.2
853.215	53.19
853.597	53.19
853.978	53.19
854.359	53.21
854.741	53.22
855.122	53.22
855.503	53.18
855.884	53.16
856.265	53.14
856.646	53.14
857.026	53.15
857.407	53.15
857.788	53.13
858.169	53.12
858.549	53.09
858.93	53.07
859.31	53.08
859.69	53.11
860.071	53.14
860.451	53.14
860.831	53.14
861.211	53.09
861.591	53.08
861.971	53.08
862.351	53.07
862.731	53.11
863.111	53.11
863.491	53.11
863.87	53.13
864.25	53.11
864.629	53.13
865.009	53.13
865.388	53.14
865.768	53.15
866.147	53.16
866.526	53.19
866.905	53.17
867.284	53.2
867.663	53.2
868.042	53.18
868.421	53.22
868.8	53.23
869.179	53.24
869.558	53.25
869.936	53.24
870.315	53.22
870.693	53.21
871.072	53.24
871.45	53.26
871.828	53.29
872.207	53.31
872.585	53.31
872.963	53.31
873.341	53.3
873.719	53.32
874.097	53.33
874.475	53.37
874.853	53.38
875.23	53.38
875.608	53.37
875.986	53.36
876.363	53.34
876.741	53.35
877.118	53.37
877.495	53.4
877.873	53.38
878.25	53.41
878.627	53.37
879.004	53.35
879.381	53.35
879.758	53.31
880.135	53.32
880.512	53.29
880.889	53.24
881.265	53.2
881.642	53.18
882.019	53.17
882.395	53.13
882.772	53.13
883.148	53.1
883.524	53.09
883.901	53.09
884.277	53.05
884.653	53.03
885.029	53.01
885.405	53
885.781	52.97
886.157	52.95
886.532	52.93
886.908	52.9
887.284	52.9
887.659	52.84
888.035	52.81
888.411	52.82
888.786	52.83
889.161	52.84
889.537	52.84
889.912	52.84
890.287	52.84
890.662	52.83
891.037	52.85
891.412	52.85
891.787	52.86
892.162	52.87
892.536	52.86
892.911	52.84
893.286	52.83
893.66	52.83
894.035	52.85
894.409	52.85
894.784	52.87
895.158	52.86
895.532	52.89
895.906	52.92
896.281	52.92
896.655	52.94
897.029	52.98
897.402	53
897.776	53.01
898.15	53.03
898.524	53.05
898.898	53.05
899.271	53.09
899.645	53.11
900.018	53.13
900.392	53.16
900.765	53.18
901.138	53.15
901.511	53.15
901.884	53.17
902.258	53.17
902.631	53.19
903.003	53.24
903.376	53.22
903.749	53.19
904.122	53.19
904.495	53.2
904.867	53.22
905.24	53.29
905.612	53.32
905.985	53.32
906.357	53.31
906.729	53.31
907.102	53.31
907.474	53.31
907.846	53.33
908.218	53.34
908.59	53.36
908.962	53.36
909.334	53.35
909.705	53.33
910.077	53.36
910.449	53.38
910.82	53.39
911.192	53.41
911.563	53.42
911.935	53.42
912.306	53.45
912.677	53.48
913.048	53.53
913.419	53.52
913.79	53.56
914.161	53.57
914.532	53.58
914.903	53.58
915.274	53.59
915.645	53.63
916.015	53.63
916.386	53.62
916.756	53.6
917.127	53.59
917.497	53.63
917.868	53.61
918.238	53.6
918.608	53.65
918.978	53.67
919.348	53.68
919.718	53.67
920.088	53.7
920.458	53.71
920.828	53.68
921.198	53.63
921.567	53.62
921.937	53.65
922.306	53.61
922.676	53.6
923.045	53.6
923.415	53.58
923.784	53.59
924.153	53.6
924.522	53.61
924.891	53.66
925.26	53.7
925.629	53.74
925.998	53.76
926.367	53.81
926.736	53.8
927.104	53.78
927.473	53.75
927.842	53.71
928.21	53.71
928.578	53.67
928.947	53.68
929.315	53.66
929.683	53.64
930.051	53.58
930.42	53.56
930.788	53.57
931.156	53.58
931.523	53.61
931.891	53.68
932.259	53.67
932.627	53.74
932.994	53.76
933.362	53.77
933.729	53.79
934.097	53.85
934.464	53.93
934.831	53.91
935.199	53.95
935.566	54.01
935.933	53.99
936.3	54.05
936.667	54.08
937.034	54.16
937.401	54.21
937.767	54.27
938.134	54.31
938.501	54.33
938.867	54.47
939.234	54.52
939.6	54.53
939.967	54.57
940.333	54.54
940.699	54.53
941.065	54.47
941.431	54.49
941.798	54.46
942.163	54.41
942.529	54.35
942.895	54.31
943.261	54.24
943.627	54.22
943.992	54.18
944.358	54.15
944.723	54.14
945.089	54.07
945.454	54.04
945.82	53.99
946.185	53.99
946.55	53.92
946.915	53.86
947.28	53.9
947.645	53.85
948.01	53.88
948.375	53.86
948.74	53.77
949.104	53.79
949.469	53.73
949.834	53.71
950.198	53.69
950.562	53.66
950.927	53.69
951.291	53.59
951.655	53.54
952.02	53.42
952.384	53.34
952.748	53.36
953.112	53.31
953.476	53.26
953.839	53.16
954.203	53.14
954.567	53.15
954.931	53.06
955.294	53.08
955.658	53.14
956.021	53.16
956.385	53.16
956.748	53.15
957.111	53.11
957.474	53.09
957.837	53.12
958.2	53.06
958.563	53.05
958.926	53.15
959.289	53.1
959.652	53.03
960.015	53.05
960.377	53.05
960.74	53.08
961.102	53.11
961.465	53.16
961.827	53.26
962.189	53.3
962.552	53.34
962.914	53.27
963.276	53.32
963.638	53.34
964	53.3
964.362	53.35
964.724	53.3
965.085	53.27
965.447	53.28
965.809	53.25
966.17	53.23
966.532	53.19
966.893	53.19
967.255	53.19
967.616	53.19
967.977	53.23
968.338	53.27
968.699	53.28
969.061	53.26
969.421	53.27
969.782	53.29
970.143	53.3
970.504	53.36
970.865	53.42
971.225	53.42
971.586	53.4
971.946	53.38
972.307	53.35
972.667	53.32
973.027	53.37
973.388	53.33
973.748	53.35
974.108	53.4
974.468	53.37
974.828	53.4
975.188	53.4
975.548	53.42
975.907	53.47
976.267	53.45
976.627	53.53
976.986	53.52
977.346	53.5
977.705	53.46
978.064	53.48
978.424	53.46
978.783	53.37
979.142	53.38
979.501	53.41
979.86	53.45
980.219	53.54
980.578	53.6
980.937	53.68
981.296	53.73
981.654	53.79
982.013	53.84
982.371	53.89
982.73	54.02
983.088	54.08
983.447	54.12
983.805	54.17
984.163	54.15
984.521	54.11
984.879	54.12
985.237	54.16
985.595	54.21
985.953	54.16
986.311	54.17
986.669	54.07
987.026	53.99
987.384	54.01
987.741	53.94
988.099	54.04
988.456	54.06
988.814	54.11
989.171	54.13
989.528	54.09
989.885	54.11
990.242	54.15
990.599	54.25
990.956	54.34
991.313	54.41
991.67	54.55
992.027	54.75
992.383	54.86
992.74	54.93
993.096	55
993.453	55.05
993.809	55.12
994.165	55.23
994.522	55.47
994.878	55.52
995.234	55.59
995.59	55.57
995.946	55.47
996.302	55.53
996.658	55.56
997.013	55.59
997.369	55.71
997.725	55.82
998.08	55.95
998.436	55.87
998.791	56.04
999.147	56.02
999.502	56.06
999.857	55.97
1000.212	55.93
1000.567	56.04
1000.922	56.18
1001.277	56.2
1001.632	56.16
1001.987	56.11
1002.342	56.08
1002.696	56
1003.051	56.16
1003.406	56.38
1003.76	56.47
1004.114	56.49
1004.469	56.48
1004.823	56.75
1005.177	56.79
1005.531	56.97
1005.885	56.99
1006.239	57.26
1006.593	57.56
1006.947	57.68
1007.301	57.54
1007.655	57.59
1008.008	57.83
1008.362	58.1
1008.715	58
1009.069	58.18
1009.422	58.28
1009.776	58.3
1010.129	58.26
1010.482	58.22
1010.835	58.27
1011.188	58.46
1011.541	58.59
1011.894	58.73
1012.247	58.64
1012.6	58.66
1012.952	58.85
1013.305	58.91
1013.657	59.31
1014.01	59.49
1014.362	59.63
1014.715	59.81
1015.067	60.04
1015.419	60.28
1015.771	60.16
1016.123	60.38
1016.475	60.51
1016.827	60.55
1017.179	60.77
1017.531	60.77
1017.883	60.8
1018.234	61.06
1018.586	61.25
1018.938	61.59
1019.289	61.61
1019.64	61.86
1019.992	61.9
1020.343	62.08
1020.694	62.33
1021.045	62.39
1021.396	62.42
1021.747	62.55
1022.098	62.57
1022.449	62.57
1022.8	62.63
1023.151	62.88
1023.501	63.12
1023.852	63.41
1024.202	63.54
1024.553	63.41
1024.903	63.72
1025.253	64.26
1025.604	64.61
1025.954	64.51
1026.304	64.81
1026.654	64.8
1027.004	64.66
1027.354	64.51
1027.703	64.31
1028.053	64.41
1028.403	64.99
1028.753	64.75
1029.102	64.92
1029.452	65.16
1029.801	65.83
1030.15	65.69
1030.499	65.62
897.758	1942.32
901.051	1942.84
904.343	1933.26
907.636	1972.28
910.928	1922.51
914.22	1916.3
917.511	1889.47
920.803	1809.16
924.094	1801.79
927.384	1762.63
930.675	1682.89
933.965	1669.54
937.255	1577.35
940.544	1515.07
943.834	1436.14
947.123	1420.82
950.411	1341.9
953.7	1313.55
956.988	1240.83
960.276	1187.34
963.563	1171.73
966.851	1129.95
970.138	1121.06
973.424	1083.99
976.711	1092.41
979.997	1037.93
983.283	1035.44
986.568	1012.43
989.853	978.4
993.138	962.78
996.423	926.42
999.708	899.09
1002.992	892.25
1006.275	847.09
1009.559	839.14
1012.842	807.64
1016.125	786.73
1019.408	770.15
1022.69	758.17
1025.972	745.85
1029.254	726.4
1032.536	714.54
1035.817	698.45
1039.098	688.59
1042.379	674.52
1045.659	667.14
1048.939	651.13
1052.219	637.42
1055.498	627.05
1058.778	614.42
1062.057	596.97
1065.335	590.92
1068.614	583.88
1071.892	577.93
1075.17	557.19
1078.447	548.03
1081.724	544.55
1085.001	539.07
1088.278	527.33
1091.554	517.89
1094.83	517.48
1098.106	515.4
1101.382	510.86
1104.657	506.81
1107.932	497.86
1111.206	502.95
1114.481	489.72
1117.755	483.46
1121.029	480.5
1124.302	481.46
1127.575	470.14
1130.848	463.93
1134.121	458.71
1137.393	457.14
1140.665	446.88
1143.937	445.37
1147.208	439.26
1150.48	440.04
1153.75	434.23
1157.021	425.69
1160.291	426.17
1163.561	422.95
1166.831	422.57
1170.101	420.08
1173.37	417.36
1176.639	418.73
1179.907	414.28
1183.176	411.06
1186.444	409.45
1189.711	410.2
1192.979	410.46
1196.246	406.09
1199.513	407.96
1202.78	405.23
1206.046	405.04
1209.312	401.3
1212.578	402
1215.843	404.71
1219.108	402.45
1222.373	411.59
1225.638	413.89
1228.902	421.34
1232.166	421.1
1235.43	425.58
1238.693	431.78
1241.956	432.9
1245.219	441.39
1248.482	439.85
1251.744	440.92
1255.006	441.41
1258.268	430.49
1261.529	426.35
1264.79	421.03
1268.051	419.37
1271.312	412.46
1274.572	406.87
1277.832	403.71
1281.092	396.34
1284.351	394.04
1287.61	393.57
1290.869	387.85
1294.128	384.98
1297.386	384.12
1300.644	381
1303.902	382.32
1307.159	379.83
1310.416	381.27
1313.673	381.21
1316.93	385.09
1320.186	385.39
1323.442	386.94
1326.697	394.71
1329.953	394.85
1333.208	397.59
1336.463	401.95
1339.717	403.26
1342.972	408.42
1346.226	410.95
1349.479	410.85
1352.733	413.67
1355.986	414.5
1359.238	413.92
1362.491	416.71
1365.743	421.66
1368.995	421.69
1372.247	418.74
1375.498	419.2
1378.749	424.78
1382	418.6
1385.251	421.57
1388.501	417.58
1391.751	421.91
1395	418.61
1398.25	415.34
1401.499	413.89
1404.748	413.23
1407.996	410.28
1411.244	407.95
1414.492	405.25
1417.74	402.91
1420.987	396.28
1424.234	397.56
1427.481	389.64
1430.728	391.59
1433.974	386.76
1437.22	383.25
1440.465	382.16
1443.711	381.09
1446.956	379.54
1450.201	372.8
1453.445	369.97
1456.689	368.7
1459.933	362
1463.177	360.64
1466.42	352.96
1469.663	349.31
1472.906	347.59
1476.148	338.44
1479.391	332.65
1482.633	328.48
1485.874	324.96
1489.115	322.73
1492.356	317.61
1495.597	317.02
1498.838	311.95
1502.078	310.53
1505.318	308.62
1508.557	308
1511.797	308.14
1515.036	307.26
1518.274	306.59
1521.513	302.21
1524.751	302.2
1527.989	301.6
1531.227	299.93
1534.464	301.62
1537.701	298.62
1540.938	297.86
1544.174	294.23
1547.41	293.23
1550.646	292.21
1553.882	292.09
1557.117	289.71
1560.352	286.79
1563.587	286.79
1566.821	284.45
1570.055	280.21
1573.289	278.9
1576.523	278.85
1579.756	276.13
1582.989	274.56
1586.222	274.34
1589.454	271.96
1592.686	273.47
1595.918	272.93
1599.15	271.63
1602.381	271.57
1605.612	271.83
1608.843	273.75
1612.073	272.29
1615.303	274.64
1618.533	275.14
1621.762	273.48
1624.992	273.92
1628.221	274.06
1631.449	273.65
1634.678	273.16
1637.906	274.54
1641.134	274.39
1644.361	273.2
1647.588	274.61
1650.815	272.82
1654.042	271.3
1657.269	273.71
1660.495	274.15
1663.72	271.39
1666.946	272.53
1670.171	272.94
1673.396	272.75
1676.621	272.91
1679.845	272.82
1683.069	272.59
1686.293	274.27
1689.517	276.08
1692.74	275.15
1695.963	276.77
1699.185	280.96
1702.408	280.68
1705.63	281.55
1708.852	283.11
1712.073	283.22
1715.294	283.83
1718.515	285.2
1721.736	285.14
1724.956	285.46
1728.176	285.5
1731.396	288.09
1734.616	286.92
1737.835	288.16
1741.054	286.8
1744.272	286.91
1747.491	290.58
1750.709	291.08
1753.927	291.3
1757.144	289.79
1760.361	292.5
1763.578	292.75
1766.795	291.6
1770.011	293.06
1773.227	293.82
1776.443	297.16
1779.658	299.47
1782.874	297.51
1786.089	299.09
1789.303	300.37
1792.518	304
1795.732	302.89
1798.945	306.75
1802.159	306.69
1805.372	308.92
1808.585	314.11
1811.797	315.13
1815.01	314.23
1818.222	317.65
1821.434	318.97
1824.645	320.48
1827.856	326.4
1831.067	329.91
1834.278	327.28
1837.488	329.69
1840.698	332.24
1843.908	328.27
1847.117	330.6
1850.326	333.29
1853.535	331.97
1856.744	338.38
1859.952	337.14
1863.16	336.39
1866.368	333.04
1869.575	339.39
1872.782	333.49
1875.989	332.05
1879.196	331.71
1882.402	329.71
1885.608	331.18
1888.814	333.21
1892.019	331.59
1895.224	331.65
1898.429	329.38
1901.634	332.74
1904.838	331.51
1908.042	337.53
1911.246	338.73
1914.449	340.81
1917.652	341.03
1920.855	340.88
1924.058	339.37
1927.26	338.12
1930.462	340.41
1933.664	344.46
1936.865	340.77
1940.066	341.79
1943.267	339.12
1946.467	338.87
1949.668	341.61
1952.868	345.62
1956.067	344.99
1959.267	345.83
1962.466	347.04
1965.665	344.67
1968.863	344.95
1972.061	350.51
1975.259	353.09
1978.457	355.67
1981.654	358.33
1984.852	358.78
1988.048	357.56
1991.245	360.8
1994.441	366.34
1997.637	368.03
2000.833	374.82
2004.028	379.85
2007.223	382.04
2010.418	386.57
2013.613	391.91
2016.807	396.6
2020.001	398.79
2023.194	404.94
2026.388	414.29
2029.581	422.56
2032.774	427.34
2035.966	435.63
2039.158	437.11
2042.35	445.74
2045.542	446.42
2048.733	453.9
2051.924	460.44
2055.115	468.62
2058.306	469.22
2061.496	475.88
2064.686	473.9
2067.875	482.5
2071.065	483.08
2074.254	481.31
2077.442	485.77
2080.631	489.48
2083.819	494.14
2087.007	493.91
2090.195	500.58
2093.382	504.32
2096.569	498.52
2099.756	508.11
2102.942	508.22
2106.128	516.3
2109.314	526.71
2112.5	524.57
2115.685	536.25
2118.87	537.73
2122.055	548.5
2125.239	552.67
2128.424	560.73
2131.608	565.59
2134.791	571.42
2137.974	574.71
2141.157	575.45
2144.34	576.41
2147.523	585.55
2150.705	580.66
2153.887	585.57
2157.068	586.44
2160.25	579.66
2163.431	581.33
2166.611	587.6
2169.792	600.74
2172.972	608.41
2176.152	609.9
2179.331	619.38
2182.511	630.95
2185.69	639.43
2188.868	652.38
2192.047	654.26
2195.225	674.06
2198.403	692.14
2201.58	702.82
2204.758	716.63
2207.935	731.43
2211.111	745.15
2214.288	754.35
2217.464	757.02
2220.64	764.65
2223.815	776.94
2226.991	808.65
2230.166	810.96
2233.34	826.9
2236.515	840.52
2239.689	840.08
2242.863	842.96
2246.036	873.03
2249.209	862.25
2252.382	873.84
2255.555	904.08
2258.727	905.94
2261.9	907.82
2265.071	917.81
2268.243	930.33
2271.414	941.82
2274.585	966.38
2277.756	977.72
2280.926	979.66
2284.096	1003.41
2287.266	1027.84
2290.436	1035.64
2293.605	1060.74
2296.774	1098.11
2299.942	1129.41
2303.111	1135.42
2306.279	1166.67
2309.447	1177.01
2312.614	1203.45
2315.781	1238.19
2318.948	1298.39
2322.115	1277.79
2325.281	1346.17
2328.447	1315
2331.613	1369.29
2334.779	1354.03
2337.944	1416.7
2341.109	1428.35
2344.274	1469.39
2347.438	1525.25
2350.602	1527.46
2353.766	1567.93
2356.929	1591.35
2360.092	1578.93
2363.255	1699.85
2366.418	1691.18
2369.58	1728.6
2372.742	1828.7
2375.904	1874.97
2379.066	1861.34
2382.227	1827.49
2385.388	1978.42
2388.548	1986.51
2391.709	2016.76
2394.869	2243.92
2398.029	2136.1
2401.188	2199.98
2404.347	2187.37
2407.506	2157.49
2410.665	2220.71
2413.823	2355.6
2416.981	2492.57
2420.139	2406.36
2423.296	2379.97
2426.453	2475.67
2429.61	2382.49
2432.767	2507.04
2435.923	2483.25
2439.079	2699.71
2442.235	2733.29
2445.391	2703
2448.546	2692.71
2451.701	2611.32
2454.855	2615.92
2458.009	2776.09
2461.163	2887.04
2464.317	2999.1
2467.471	3072.04
2470.624	3070.48
2473.777	3002.13
2476.929	2932.4
2480.082	2849.85
2483.234	2806.67
2486.385	2943.75
2489.537	2955.02
2492.688	3074.94
2495.839	2985.02
2498.989	2921.36
2502.14	2940.53
2505.29	2983.1
2508.439	3025.33
2511.589	3010.93
2514.738	3278.66
2517.887	3213.09
2521.035	3410.77
2524.183	3436.21
2527.331	3456.92
2530.479	3459.25
2533.627	3483.32
