Data from C_2_DIV_OH_2N_Splice17_13-25-06-990.txt Node
Date: Sat Mar 07 13:25:06 EST 2020
User: sa697716
Spectrometer: NQ5500242
Trigger mode: 0
Integration Time (sec): 1.450000E-1
Scans to average: 20
Nonlinearity correction enabled: false
Boxcar width: 5
Storing dark spectrum: false
XAxis mode: Wavelengths
Number of Pixels in Spectrum: 512
>>>>>Begin Spectral Data<<<<<
187.83	159.84
188.298	161.35
188.766	132.89
189.233	110.09
189.701	126.58
190.169	157.39
190.636	197.09
191.104	325.67
191.571	219.12
192.039	48.63
192.506	-410.78
192.974	149.75
193.441	160.89
193.908	10.23
194.375	12.19
194.842	2.63
195.31	55.96
195.777	119.66
196.244	38.49
196.711	34.59
197.177	38.33
197.644	37.48
198.111	37
198.578	36.9
199.045	37.28
199.511	37.39
199.978	37.2
200.445	37.05
200.911	37.18
201.378	37.26
201.844	37.27
202.31	36.6
202.777	36.42
203.243	36.33
203.709	36.26
204.176	35.78
204.642	35.37
205.108	35.54
205.574	35.4
206.04	34.61
206.506	34.08
206.972	33.99
207.438	33.84
207.903	33.26
208.369	32.43
208.835	31.47
209.301	30.8
209.766	29.65
210.232	28.7
210.697	27.81
211.163	27.39
211.628	26.68
212.094	25.78
212.559	25.04
213.024	24.58
213.49	24.17
213.955	23.61
214.42	23.25
214.885	22.86
215.35	22.09
215.815	21.09
216.28	19.65
216.745	18.22
217.21	16.8
217.675	15.41
218.14	14.22
218.604	13.24
219.069	12.45
219.534	11.77
219.998	11.21
220.463	10.74
220.927	10.32
221.392	10.03
221.856	9.76
222.32	9.51
222.785	9.35
223.249	9.19
223.713	9.01
224.177	8.87
224.642	8.68
225.106	8.5
225.57	8.36
226.034	8.23
226.497	8.07
226.961	7.94
227.425	7.81
227.889	7.69
228.353	7.56
228.816	7.44
229.28	7.32
229.744	7.21
230.207	7.12
230.671	7
231.134	6.89
231.597	6.82
232.061	6.72
232.524	6.63
232.987	6.54
233.45	6.48
233.914	6.41
234.377	6.32
234.84	6.26
235.303	6.19
235.766	6.12
236.229	6.07
236.691	6
237.154	5.94
237.617	5.89
238.08	5.83
238.542	5.77
239.005	5.71
239.468	5.67
239.93	5.61
240.393	5.56
240.855	5.51
241.317	5.45
241.78	5.39
242.242	5.34
242.704	5.3
243.166	5.25
243.629	5.22
244.091	5.17
244.553	5.11
245.015	5.07
245.477	5.02
245.939	4.97
246.4	4.94
246.862	4.9
247.324	4.86
247.786	4.81
248.247	4.77
248.709	4.71
249.17	4.67
249.632	4.65
250.093	4.62
250.555	4.58
251.016	4.55
251.477	4.51
251.939	4.49
252.4	4.46
252.861	4.43
253.322	4.4
253.783	4.37
254.244	4.35
254.705	4.32
255.166	4.28
255.627	4.26
256.088	4.23
256.549	4.21
257.009	4.18
257.47	4.15
257.931	4.11
258.391	4.08
258.852	4.05
259.312	4.01
259.773	3.98
260.233	3.96
260.694	3.93
261.154	3.9
261.614	3.87
262.074	3.85
262.534	3.83
262.994	3.81
263.455	3.79
263.915	3.77
264.374	3.75
264.834	3.73
265.294	3.71
265.754	3.7
266.214	3.68
266.673	3.67
267.133	3.66
267.593	3.65
268.052	3.63
268.512	3.62
268.971	3.61
269.431	3.6
269.89	3.59
270.349	3.58
270.809	3.57
271.268	3.56
271.727	3.54
272.186	3.53
272.645	3.52
273.104	3.51
273.563	3.5
274.022	3.49
274.481	3.48
274.94	3.47
275.399	3.46
275.857	3.44
276.316	3.43
276.775	3.42
277.233	3.41
277.692	3.4
278.15	3.4
278.609	3.4
279.067	3.39
279.525	3.38
279.984	3.37
280.442	3.36
280.9	3.36
281.358	3.35
281.816	3.34
282.274	3.33
282.732	3.32
283.19	3.31
283.648	3.29
284.106	3.28
284.564	3.26
285.021	3.26
285.479	3.26
285.937	3.24
286.394	3.24
286.852	3.23
287.309	3.22
287.767	3.2
288.224	3.18
288.682	3.17
289.139	3.15
289.596	3.14
290.053	3.11
290.511	3.09
290.968	3.08
291.425	3.07
291.882	3.06
292.339	3.04
292.796	3.04
293.252	3.02
293.709	3.01
294.166	3
294.623	2.99
295.079	2.98
295.536	2.97
295.992	2.97
296.449	2.96
296.905	2.95
297.362	2.94
297.818	2.93
298.274	2.93
298.731	2.92
299.187	2.91
299.643	2.9
300.099	2.9
300.555	2.89
301.011	2.88
301.467	2.87
301.923	2.86
302.379	2.85
302.835	2.85
303.291	2.84
303.746	2.84
304.202	2.84
304.658	2.83
305.113	2.83
305.569	2.82
306.024	2.82
306.479	2.81
306.935	2.8
307.39	2.79
307.845	2.79
308.301	2.79
308.756	2.79
309.211	2.78
309.666	2.78
310.121	2.77
310.576	2.77
311.031	2.76
311.486	2.77
311.94	2.77
312.395	2.76
312.85	2.76
313.305	2.75
313.759	2.74
314.214	2.74
314.668	2.72
315.123	2.72
315.577	2.72
316.032	2.71
316.486	2.7
316.94	2.7
317.394	2.69
317.849	2.68
318.303	2.66
318.757	2.64
319.211	2.64
319.665	2.63
320.119	2.62
320.572	2.61
321.026	2.6
321.48	2.6
321.934	2.58
322.387	2.57
322.841	2.57
323.295	2.57
323.748	2.57
324.202	2.56
324.655	2.56
325.108	2.55
325.562	2.55
326.015	2.54
326.468	2.54
326.921	2.53
327.374	2.53
327.827	2.53
328.28	2.53
328.733	2.53
329.186	2.52
329.639	2.52
330.092	2.52
330.545	2.52
330.997	2.51
331.45	2.52
331.903	2.53
332.355	2.53
332.808	2.53
333.26	2.52
333.713	2.52
334.165	2.52
334.617	2.52
335.069	2.51
335.522	2.5
335.974	2.51
336.426	2.5
336.878	2.49
337.33	2.47
337.782	2.47
338.234	2.47
338.686	2.47
339.137	2.47
339.589	2.46
340.041	2.47
340.493	2.46
340.944	2.45
341.396	2.44
341.847	2.43
342.299	2.43
342.75	2.41
343.201	2.39
343.653	2.39
344.104	2.37
344.555	2.36
345.006	2.35
345.457	2.34
345.908	2.34
346.359	2.34
346.81	2.34
347.261	2.33
347.712	2.33
348.163	2.33
348.613	2.34
349.064	2.34
349.515	2.34
349.965	2.33
350.416	2.33
350.866	2.32
351.317	2.31
351.767	2.32
352.217	2.32
352.668	2.32
353.118	2.31
353.568	2.3
354.018	2.3
354.468	2.3
354.918	2.3
355.368	2.3
355.818	2.3
356.268	2.3
356.718	2.29
357.168	2.29
357.617	2.28
358.067	2.28
358.517	2.3
358.966	2.3
359.416	2.3
359.865	2.29
360.315	2.29
360.764	2.29
361.213	2.29
361.663	2.28
362.112	2.29
362.561	2.29
363.01	2.29
363.459	2.27
363.908	2.25
364.357	2.26
364.806	2.25
365.255	2.25
365.703	2.25
366.152	2.26
366.601	2.26
367.05	2.26
367.498	2.25
367.947	2.25
368.395	2.26
368.844	2.27
369.292	2.27
369.74	2.27
370.189	2.26
370.637	2.26
371.085	2.25
371.533	2.25
371.981	2.24
372.429	2.23
372.877	2.24
373.325	2.23
373.773	2.22
374.221	2.21
374.669	2.2
375.116	2.2
375.564	2.19
376.012	2.19
376.459	2.19
376.907	2.2
377.354	2.2
377.801	2.21
378.249	2.2
378.696	2.2
379.143	2.2
379.591	2.21
380.038	2.22
380.485	2.22
380.932	2.23
381.379	2.23
381.826	2.24
382.273	2.25
382.72	2.24
383.166	2.24
383.613	2.26
384.06	2.28
384.506	2.29
384.953	2.31
385.4	2.33
385.846	2.37
386.292	2.4
386.739	2.43
387.185	2.46
387.631	2.5
388.078	2.54
388.524	2.55
388.97	2.57
389.416	2.6
389.862	2.65
390.308	2.7
390.754	2.75
391.2	2.8
391.645	2.85
392.091	2.89
392.537	2.93
392.983	2.99
393.428	3.08
393.874	3.2
394.319	3.32
394.765	3.43
395.21	3.55
395.655	3.68
396.101	3.81
396.546	3.96
396.991	4.13
397.436	4.31
397.881	4.49
398.326	4.65
398.771	4.8
399.216	4.92
399.661	5.05
400.106	5.15
400.551	5.22
400.995	5.29
401.44	5.36
401.885	5.41
402.329	5.47
402.774	5.54
403.218	5.62
403.663	5.72
404.107	5.82
404.551	5.92
404.995	6.03
405.44	6.12
405.884	6.22
406.328	6.35
406.772	6.49
407.216	6.63
407.66	6.76
408.104	6.87
408.547	6.96
408.991	7.06
409.435	7.16
409.879	7.29
410.322	7.43
410.766	7.58
411.209	7.72
411.653	7.84
412.096	7.95
412.54	8.06
412.983	8.16
413.426	8.3
413.869	8.43
414.312	8.55
414.756	8.64
415.199	8.72
415.642	8.78
416.085	8.84
416.527	8.88
416.97	8.89
417.413	8.9
417.856	8.89
418.298	8.87
418.741	8.88
419.184	8.9
419.626	8.93
420.069	8.98
420.511	9.03
420.953	9.09
421.396	9.17
421.838	9.26
422.28	9.37
422.722	9.5
423.164	9.6
423.606	9.67
424.048	9.74
424.49	9.77
424.932	9.73
425.374	9.62
425.816	9.45
426.258	9.27
426.699	9.16
427.141	9.17
427.582	9.25
428.024	9.37
428.465	9.51
428.907	9.62
429.348	9.73
429.789	9.89
430.231	10.18
430.672	10.56
431.113	10.98
431.554	11.36
431.995	11.65
432.436	11.87
432.877	12.03
433.318	12.18
433.759	12.35
434.2	12.55
434.64	12.78
435.081	12.99
435.522	13.18
435.962	13.33
436.403	13.48
436.843	13.6
437.284	13.72
437.724	13.86
438.164	14.03
438.604	14.23
439.045	14.45
439.485	14.62
439.925	14.78
440.365	14.91
440.805	15.01
441.245	15.1
441.685	15.2
442.125	15.31
442.564	15.45
443.004	15.57
443.444	15.73
443.883	15.88
444.323	16.04
444.762	16.18
445.202	16.35
445.641	16.57
446.081	16.82
446.52	17.07
446.959	17.31
447.398	17.47
447.837	17.58
448.276	17.61
448.716	17.62
449.154	17.67
449.593	17.71
450.032	17.7
450.471	17.65
450.91	17.57
451.349	17.51
451.787	17.44
452.226	17.4
452.664	17.39
453.103	17.43
453.541	17.43
453.98	17.41
454.418	17.36
454.856	17.32
455.295	17.29
455.733	17.25
456.171	17.22
456.609	17.22
457.047	17.23
457.485	17.25
457.923	17.28
458.361	17.34
458.798	17.41
459.236	17.49
459.674	17.57
460.111	17.66
460.549	17.76
460.987	17.85
461.424	17.93
461.862	18.03
462.299	18.11
462.736	18.17
463.173	18.26
463.611	18.38
464.048	18.53
464.485	18.72
464.922	18.9
465.359	19.08
465.796	19.26
466.233	19.42
466.67	19.6
467.106	19.83
467.543	20.08
467.98	20.33
468.416	20.53
468.853	20.73
469.29	20.9
469.726	21.12
470.162	21.31
470.599	21.51
471.035	21.7
471.471	21.83
471.907	21.91
472.344	21.96
472.78	22.01
473.216	22.07
473.652	22.15
474.088	22.19
474.523	22.22
474.959	22.23
475.395	22.24
475.831	22.24
476.266	22.28
476.702	22.28
477.138	22.28
477.573	22.27
478.008	22.23
478.444	22.15
478.879	22.06
479.314	21.93
479.75	21.79
480.185	21.62
480.62	21.4
481.055	21.08
481.49	20.7
481.925	20.29
482.36	19.89
482.795	19.57
483.229	19.32
483.664	19.13
484.099	18.94
484.534	18.79
484.968	18.7
485.403	18.68
485.837	18.76
486.271	18.92
486.706	19.08
487.14	19.18
487.574	19.24
488.009	19.26
488.443	19.26
488.877	19.3
489.311	19.34
489.745	19.37
490.179	19.41
490.613	19.43
491.046	19.46
491.48	19.53
491.914	19.62
492.348	19.74
492.781	19.88
493.215	19.98
493.648	20.05
494.082	20.1
494.515	20.13
494.948	20.16
495.382	20.18
495.815	20.2
496.248	20.2
496.681	20.2
497.114	20.17
497.547	20.15
497.98	20.17
498.413	20.24
498.846	20.32
499.279	20.4
499.711	20.46
500.144	20.58
500.577	20.7
501.009	20.88
501.442	21.08
501.874	21.32
502.306	21.54
502.739	21.74
503.171	21.89
503.603	22.04
504.036	22.22
504.468	22.42
504.9	22.59
505.332	22.77
505.764	22.91
506.196	23.06
506.627	23.21
507.059	23.39
507.491	23.59
507.923	23.79
508.354	24.01
508.786	24.18
509.217	24.33
509.649	24.49
510.08	24.64
510.512	24.82
510.943	25
511.374	25.16
511.805	25.27
512.237	25.29
512.668	25.28
513.099	25.29
513.53	25.34
513.961	25.41
514.391	25.51
514.822	25.66
515.253	25.83
515.684	26
516.114	26.23
516.545	26.49
516.975	26.89
517.406	27.32
517.836	27.74
518.267	28.13
518.697	28.51
519.127	28.87
519.558	29.23
519.988	29.57
520.418	29.89
520.848	30.16
521.278	30.43
521.708	30.74
522.138	30.83
522.567	30.89
522.997	30.98
523.427	31.11
523.857	31.27
524.286	31.41
524.716	31.55
525.145	31.69
525.575	31.84
526.004	31.99
526.433	32.06
526.863	32.35
527.292	32.65
527.721	32.86
528.15	33
528.579	33.06
529.008	33.09
529.437	33.09
529.866	33.08
530.295	33.08
530.724	33.1
531.152	33.12
531.581	33.14
532.01	33.14
532.438	33.18
532.867	33.23
533.295	33.3
533.723	33.36
534.152	33.41
534.58	33.46
535.008	33.44
535.436	33.39
535.865	33.28
536.293	33.15
536.721	33.08
537.149	33.05
537.576	33.04
538.004	33.05
538.432	33.04
538.86	33.04
539.287	33.05
539.715	33.15
540.143	33.25
540.57	33.4
540.998	33.54
541.425	33.68
541.852	33.79
542.28	33.91
542.707	33.97
543.134	34.05
543.561	34.13
543.988	34.2
544.415	34.25
544.842	34.3
545.269	34.37
545.696	34.46
546.123	34.53
546.549	34.6
546.976	34.67
547.403	34.77
547.829	34.86
548.256	34.95
548.682	35.02
549.108	35.11
549.535	35.19
549.961	35.25
550.387	35.31
550.813	35.4
551.24	35.45
551.666	35.45
552.092	35.46
552.518	35.44
552.943	35.42
553.369	35.38
553.795	35.3
554.221	35.21
554.646	35.08
555.072	34.93
555.498	34.76
555.923	34.63
556.349	34.53
556.774	34.43
557.199	34.33
557.625	34.22
558.05	34.15
558.475	34.07
558.9	34
559.325	33.94
559.75	33.87
560.175	33.8
560.6	33.66
561.025	33.5
561.449	33.32
561.874	33.11
562.299	32.94
562.723	32.77
563.148	32.57
563.572	32.36
563.997	32.14
564.421	31.91
564.846	31.69
565.27	31.5
565.694	31.32
566.118	31.1
566.542	30.91
566.966	30.69
567.39	30.45
567.814	30.27
568.238	30.12
568.662	29.97
569.086	29.86
569.509	29.74
569.933	29.63
570.357	29.49
570.78	29.38
571.204	29.27
571.627	29.18
572.05	29.07
572.474	28.96
572.897	28.85
573.32	28.71
573.743	28.55
574.166	28.4
574.589	28.26
575.012	28.16
575.435	28.09
575.858	28.04
576.281	27.99
576.704	27.96
577.126	27.92
577.549	27.88
577.972	27.89
578.394	27.92
578.817	27.98
579.239	28.02
579.661	28.06
580.084	28.11
580.506	28.12
580.928	28.12
581.35	28.11
581.772	28.1
582.194	28.09
582.616	28.07
583.038	28.05
583.46	28.02
583.882	27.97
584.303	27.87
584.725	27.72
585.147	27.57
585.568	27.45
585.99	27.39
586.411	27.35
586.833	27.32
587.254	27.31
587.675	27.29
588.096	27.27
588.518	27.3
588.939	27.39
589.36	27.52
589.781	27.67
590.202	27.8
590.623	27.89
591.043	27.94
591.464	28.01
591.885	28.05
592.305	28.1
592.726	28.13
593.147	28.16
593.567	28.16
593.987	28.15
594.408	28.16
594.828	28.16
595.248	28.17
595.669	28.18
596.089	28.15
596.509	28.12
596.929	28.07
597.349	28.01
597.769	27.94
598.189	27.89
598.608	27.87
599.028	27.86
599.448	27.84
599.867	27.82
600.287	27.81
600.706	27.81
601.126	27.79
601.545	27.8
601.965	27.81
602.384	27.81
602.803	27.82
603.222	27.81
603.641	27.76
604.061	27.71
604.48	27.65
604.898	27.57
605.317	27.5
605.736	27.43
606.155	27.34
606.574	27.27
606.992	27.21
607.411	27.13
607.829	27.02
608.248	26.93
608.666	26.85
609.085	26.77
609.503	26.7
609.921	26.61
610.339	26.53
610.758	26.46
611.176	26.37
611.594	26.28
612.012	26.17
612.43	26.07
612.847	25.98
613.265	25.89
613.683	25.83
614.101	25.78
614.518	25.74
614.936	25.69
615.353	25.63
615.771	25.6
616.188	25.57
616.606	25.57
617.023	25.58
617.44	25.57
617.857	25.54
618.274	25.49
618.691	25.41
619.108	25.33
619.525	25.26
619.942	25.17
620.359	25.06
620.776	24.95
621.192	24.84
621.609	24.72
622.026	24.63
622.442	24.56
622.859	24.48
623.275	24.4
623.691	24.32
624.108	24.25
624.524	24.2
624.94	24.14
625.356	24.1
625.772	24.04
626.188	24.01
626.604	23.95
627.02	23.88
627.436	23.83
627.852	23.81
628.268	23.8
628.683	23.8
629.099	23.77
629.514	23.77
629.93	23.76
630.345	23.76
630.761	23.74
631.176	23.74
631.591	23.73
632.007	23.72
632.422	23.7
632.837	23.66
633.252	23.63
633.667	23.62
634.082	23.58
634.497	23.55
634.911	23.5
635.326	23.45
635.741	23.37
636.155	23.3
636.57	23.23
636.984	23.14
637.399	23.04
637.813	22.94
638.228	22.83
638.642	22.73
639.056	22.61
639.47	22.52
639.884	22.42
640.298	22.33
640.712	22.25
641.126	22.16
641.54	22.05
641.954	21.97
642.368	21.85
642.781	21.74
643.195	21.64
643.609	21.53
644.022	21.43
644.436	21.32
644.849	21.19
645.262	21.05
645.676	20.92
646.089	20.82
646.502	20.75
646.915	20.7
647.328	20.63
647.741	20.55
648.154	20.5
648.567	20.44
648.98	20.4
649.393	20.38
649.805	20.37
650.218	20.35
650.631	20.29
651.043	20.16
651.456	19.97
651.868	19.74
652.28	19.48
652.693	19.25
653.105	19.06
653.517	18.89
653.929	18.77
654.341	18.67
654.753	18.59
655.165	18.54
655.577	18.55
655.989	18.62
656.401	18.73
656.813	18.9
657.224	19.01
657.636	19.08
658.047	19.13
658.459	19.13
658.87	19.12
659.282	19.07
659.693	19.01
660.104	18.95
660.515	18.88
660.926	18.81
661.338	18.74
661.749	18.65
662.159	18.56
662.57	18.49
662.981	18.4
663.392	18.32
663.803	18.26
664.213	18.18
664.624	18.1
665.035	18.04
665.445	17.96
665.855	17.88
666.266	17.81
666.676	17.75
667.086	17.65
667.497	17.57
667.907	17.49
668.317	17.42
668.727	17.36
669.137	17.3
669.547	17.24
669.956	17.18
670.366	17.14
670.776	17.08
671.186	17.04
671.595	17
672.005	16.95
672.414	16.92
672.824	16.88
673.233	16.86
673.642	16.83
674.052	16.8
674.461	16.77
674.87	16.74
675.279	16.73
675.688	16.71
676.097	16.69
676.506	16.7
676.915	16.69
677.323	16.69
677.732	16.68
678.141	16.69
678.549	16.7
678.958	16.7
679.366	16.72
679.775	16.71
680.183	16.71
680.592	16.74
681	16.75
681.408	16.77
681.816	16.76
682.224	16.69
682.632	16.55
683.04	16.34
683.448	16.15
683.856	15.98
684.264	15.86
684.671	15.76
685.079	15.66
685.487	15.58
685.894	15.54
686.302	15.56
686.709	15.67
687.116	15.89
687.524	16.21
687.931	16.56
688.338	16.92
688.745	17.28
689.152	17.64
689.559	18.02
689.966	18.4
690.373	18.76
690.78	19.13
691.187	19.5
691.593	19.87
692	20.24
692.407	20.57
692.813	20.93
693.22	21.27
693.626	21.61
694.032	21.95
694.439	22.29
694.845	22.62
695.251	22.95
695.657	23.26
696.063	23.59
696.469	23.86
696.875	24.15
697.281	24.42
697.687	24.69
698.093	24.97
698.498	25.22
698.904	25.5
699.31	25.79
699.715	26.09
700.12	26.39
700.526	26.66
700.931	26.97
701.337	27.26
701.742	27.54
702.147	27.83
702.552	28.13
702.957	28.39
703.362	28.65
703.767	28.89
704.172	29.12
704.577	29.31
704.981	29.54
705.386	29.77
705.791	29.97
706.195	30.2
706.6	30.42
707.004	30.62
707.408	30.82
707.813	31.04
708.217	31.21
708.621	31.41
709.025	31.61
709.43	31.77
709.834	31.94
710.237	32.11
710.641	32.25
711.045	32.39
711.449	32.54
711.853	32.7
712.256	32.78
712.66	32.85
713.064	32.89
713.467	32.89
713.87	32.88
714.274	32.81
714.677	32.75
715.08	32.66
715.484	32.6
715.887	32.54
716.29	32.46
716.693	32.5
717.096	32.59
717.499	32.7
717.901	32.89
718.304	33.12
718.707	33.33
719.109	33.56
719.512	33.75
719.915	33.93
720.317	34.07
720.719	34.21
721.122	34.31
721.524	34.38
721.926	34.45
722.328	34.47
722.731	34.47
723.133	34.51
723.535	34.55
723.937	34.64
724.338	34.7
724.74	34.77
725.142	34.93
725.544	35.01
725.945	35.11
726.347	35.15
726.748	35.18
727.15	35.24
727.551	35.33
727.952	35.38
728.354	35.47
728.755	35.58
729.156	35.68
729.557	35.71
729.958	35.81
730.359	35.89
730.76	36.01
731.161	36.13
731.562	36.24
731.962	36.28
732.363	36.35
732.763	36.38
733.164	36.4
733.564	36.46
733.965	36.46
734.365	36.46
734.766	36.44
735.166	36.42
735.566	36.4
735.966	36.38
736.366	36.37
736.766	36.36
737.166	36.35
737.566	36.34
737.966	36.31
738.365	36.29
738.765	36.29
739.165	36.29
739.564	36.3
739.964	36.31
740.363	36.28
740.763	36.29
741.162	36.3
741.561	36.29
741.96	36.29
742.36	36.3
742.759	36.32
743.158	36.31
743.557	36.28
743.955	36.26
744.354	36.24
744.753	36.25
745.152	36.23
745.55	36.18
745.949	36.16
746.348	36.12
746.746	36.06
747.144	36.03
747.543	35.98
747.941	35.98
748.339	35.94
748.737	35.91
749.136	35.87
749.534	35.84
749.932	35.84
750.33	35.8
750.727	35.77
751.125	35.76
751.523	35.72
751.921	35.71
752.318	35.65
752.716	35.62
753.113	35.57
753.511	35.52
753.908	35.5
754.305	35.44
754.703	35.31
755.1	35.06
755.497	34.65
755.894	34.06
756.291	33.35
756.688	32.61
757.085	31.89
757.482	31.23
757.878	30.63
758.275	30.02
758.672	29.4
759.068	28.87
759.465	28.47
759.861	28.26
760.258	28.27
760.654	28.45
761.05	28.73
761.447	29.01
761.843	29.28
762.239	29.57
762.635	29.88
763.031	30.26
763.427	30.7
763.822	31.15
764.218	31.57
764.614	31.98
765.01	32.35
765.405	32.68
765.801	32.99
766.196	33.28
766.592	33.51
766.987	33.68
767.382	33.8
767.778	33.89
768.173	33.94
768.568	34.02
768.963	34.03
769.358	34.07
769.753	34.08
770.148	34.07
770.542	34.03
770.937	34
771.332	33.98
771.726	33.98
772.121	33.96
772.515	33.94
772.91	33.91
773.304	33.89
773.699	33.85
774.093	33.82
774.487	33.82
774.881	33.82
775.275	33.8
775.669	33.77
776.063	33.72
776.457	33.67
776.851	33.64
777.245	33.57
777.638	33.52
778.032	33.5
778.425	33.45
778.819	33.39
779.212	33.35
779.606	33.29
779.999	33.24
780.392	33.22
780.786	33.17
781.179	33.12
781.572	33.11
781.965	33.1
782.358	33.06
782.751	33.04
783.143	33
783.536	32.95
783.929	32.91
784.322	32.88
784.714	32.83
785.107	32.8
785.499	32.75
785.891	32.69
786.284	32.62
786.676	32.56
787.068	32.48
787.46	32.42
787.852	32.38
788.245	32.34
788.636	32.27
789.028	32.18
789.42	32.11
789.812	32.05
790.204	32
790.595	31.95
790.987	31.89
791.378	31.84
791.77	31.8
792.161	31.76
792.553	31.7
792.944	31.67
793.335	31.66
793.726	31.65
794.117	31.6
794.508	31.54
794.899	31.48
795.29	31.42
795.681	31.35
796.072	31.28
796.463	31.27
796.853	31.21
797.244	31.14
797.634	31.06
798.025	31.01
798.415	30.95
798.806	30.88
799.196	30.85
799.586	30.81
799.976	30.79
800.366	30.73
800.756	30.62
801.146	30.59
801.536	30.56
801.926	30.51
802.316	30.45
802.706	30.4
803.095	30.37
803.485	30.32
803.874	30.27
804.264	30.2
804.653	30.14
805.043	30.08
805.432	30
805.821	29.92
806.21	29.87
806.599	29.81
806.988	29.75
807.377	29.65
807.766	29.57
808.155	29.5
808.544	29.44
808.933	29.36
809.321	29.26
809.71	29.21
810.098	29.11
810.487	29
810.875	28.88
811.264	28.79
811.652	28.74
812.04	28.62
812.428	28.5
812.816	28.39
813.204	28.28
813.592	28.17
813.98	28.07
814.368	27.99
814.756	27.89
815.144	27.82
815.531	27.74
815.919	27.65
816.306	27.62
816.694	27.58
817.081	27.57
817.469	27.57
817.856	27.54
818.243	27.5
818.63	27.45
819.017	27.4
819.404	27.34
819.791	27.29
820.178	27.26
820.565	27.22
820.952	27.18
821.339	27.12
821.725	27.07
822.112	27.06
822.498	27.05
822.885	27.03
823.271	27.02
823.657	27
824.044	26.99
824.43	26.95
824.816	26.89
825.202	26.84
825.588	26.79
825.974	26.74
826.36	26.7
826.746	26.64
827.132	26.59
827.517	26.55
827.903	26.55
828.289	26.51
828.674	26.49
829.06	26.46
829.445	26.44
829.83	26.39
830.216	26.35
830.601	26.3
830.986	26.29
831.371	26.27
831.756	26.25
832.141	26.21
832.526	26.18
832.911	26.15
833.295	26.13
833.68	26.11
834.065	26.13
834.449	26.12
834.834	26.11
835.218	26.08
835.603	26.06
835.987	26.03
836.371	26
836.755	25.98
837.139	25.94
837.524	25.93
837.908	25.93
838.291	25.9
838.675	25.86
839.059	25.84
839.443	25.82
839.827	25.8
840.21	25.78
840.594	25.76
840.977	25.74
841.361	25.72
841.744	25.68
842.127	25.64
842.511	25.63
842.894	25.62
843.277	25.59
843.66	25.58
844.043	25.56
844.426	25.55
844.809	25.53
845.191	25.53
845.574	25.51
845.957	25.5
846.339	25.48
846.722	25.46
847.104	25.43
847.487	25.41
847.869	25.38
848.252	25.36
848.634	25.34
849.016	25.33
849.398	25.3
849.78	25.27
850.162	25.25
850.544	25.22
850.926	25.18
851.307	25.16
851.689	25.14
852.071	25.12
852.452	25.12
852.834	25.11
853.215	25.08
853.597	25.08
853.978	25.09
854.359	25.1
854.741	25.11
855.122	25.11
855.503	25.12
855.884	25.11
856.265	25.13
856.646	25.12
857.026	25.11
857.407	25.1
857.788	25.09
858.169	25.08
858.549	25.06
858.93	25.06
859.31	25.03
859.69	25.04
860.071	25.04
860.451	25.02
860.831	24.99
861.211	24.96
861.591	24.94
861.971	24.91
862.351	24.89
862.731	24.86
863.111	24.82
863.491	24.82
863.87	24.76
864.25	24.74
864.629	24.71
865.009	24.71
865.388	24.7
865.768	24.68
866.147	24.68
866.526	24.67
866.905	24.67
867.284	24.67
867.663	24.66
868.042	24.67
868.421	24.66
868.8	24.67
869.179	24.66
869.558	24.65
869.936	24.65
870.315	24.63
870.693	24.62
871.072	24.62
871.45	24.6
871.828	24.6
872.207	24.6
872.585	24.58
872.963	24.55
873.341	24.54
873.719	24.52
874.097	24.51
874.475	24.51
874.853	24.49
875.23	24.48
875.608	24.47
875.986	24.46
876.363	24.44
876.741	24.43
877.118	24.43
877.495	24.43
877.873	24.44
878.25	24.43
878.627	24.42
879.004	24.42
879.381	24.41
879.758	24.4
880.135	24.39
880.512	24.38
880.889	24.38
881.265	24.37
881.642	24.36
882.019	24.34
882.395	24.35
882.772	24.34
883.148	24.34
883.524	24.32
883.901	24.33
884.277	24.32
884.653	24.31
885.029	24.3
885.405	24.3
885.781	24.31
886.157	24.31
886.532	24.31
886.908	24.3
887.284	24.29
887.659	24.29
888.035	24.26
888.411	24.25
888.786	24.24
889.161	24.23
889.537	24.2
889.912	24.19
890.287	24.17
890.662	24.16
891.037	24.15
891.412	24.13
891.787	24.1
892.162	24.1
892.536	24.08
892.911	24.06
893.286	24.04
893.66	24.05
894.035	24.02
894.409	23.99
894.784	23.97
895.158	23.95
895.532	23.95
895.906	23.95
896.281	23.92
896.655	23.91
897.029	23.92
897.402	23.9
897.776	23.88
898.15	23.87
898.524	23.87
898.898	23.87
899.271	23.86
899.645	23.87
900.018	23.86
900.392	23.88
900.765	23.88
901.138	23.87
901.511	23.88
901.884	23.89
902.258	23.89
902.631	23.89
903.003	23.9
903.376	23.88
903.749	23.86
904.122	23.88
904.495	23.88
904.867	23.87
905.24	23.88
905.612	23.85
905.985	23.84
906.357	23.85
906.729	23.85
907.102	23.83
907.474	23.83
907.846	23.81
908.218	23.78
908.59	23.78
908.962	23.77
909.334	23.75
909.705	23.77
910.077	23.77
910.449	23.75
910.82	23.75
911.192	23.75
911.563	23.74
911.935	23.74
912.306	23.72
912.677	23.72
913.048	23.73
913.419	23.73
913.79	23.71
914.161	23.72
914.532	23.72
914.903	23.71
915.274	23.71
915.645	23.72
916.015	23.73
916.386	23.75
916.756	23.74
917.127	23.76
917.497	23.76
917.868	23.78
918.238	23.75
918.608	23.75
918.978	23.76
919.348	23.77
919.718	23.76
920.088	23.75
920.458	23.73
920.828	23.71
921.198	23.66
921.567	23.65
921.937	23.64
922.306	23.65
922.676	23.63
923.045	23.62
923.415	23.58
923.784	23.58
924.153	23.57
924.522	23.57
924.891	23.59
925.26	23.58
925.629	23.57
925.998	23.53
926.367	23.52
926.736	23.52
927.104	23.52
927.473	23.5
927.842	23.48
928.21	23.48
928.578	23.46
928.947	23.47
929.315	23.44
929.683	23.39
930.051	23.39
930.42	23.36
930.788	23.34
931.156	23.3
931.523	23.28
931.891	23.31
932.259	23.27
932.627	23.26
932.994	23.21
933.362	23.23
933.729	23.25
934.097	23.22
934.464	23.21
934.831	23.2
935.199	23.21
935.566	23.24
935.933	23.17
936.3	23.19
936.667	23.16
937.034	23.22
937.401	23.25
937.767	23.24
938.134	23.32
938.501	23.36
938.867	23.41
939.234	23.43
939.6	23.43
939.967	23.51
940.333	23.48
940.699	23.52
941.065	23.46
941.431	23.47
941.798	23.48
942.163	23.43
942.529	23.44
942.895	23.45
943.261	23.44
943.627	23.42
943.992	23.38
944.358	23.44
944.723	23.44
945.089	23.4
945.454	23.39
945.82	23.39
946.185	23.4
946.55	23.32
946.915	23.27
947.28	23.24
947.645	23.24
948.01	23.27
948.375	23.21
948.74	23.21
949.104	23.23
949.469	23.22
949.834	23.23
950.198	23.25
950.562	23.21
950.927	23.21
951.291	23.21
951.655	23.18
952.02	23.1
952.384	23.08
952.748	23.05
953.112	23.03
953.476	22.99
953.839	22.91
954.203	22.85
954.567	22.9
954.931	22.86
955.294	22.83
955.658	22.85
956.021	22.88
956.385	22.89
956.748	22.92
957.111	22.89
957.474	22.88
957.837	22.85
958.2	22.87
958.563	22.83
958.926	22.85
959.289	22.86
959.652	22.84
960.015	22.8
960.377	22.78
960.74	22.79
961.102	22.81
961.465	22.85
961.827	22.93
962.189	22.95
962.552	22.95
962.914	22.94
963.276	23
963.638	22.99
964	22.99
964.362	23.01
964.724	22.97
965.085	22.96
965.447	22.95
965.809	22.93
966.17	22.92
966.532	22.93
966.893	22.93
967.255	22.85
967.616	22.89
967.977	22.93
968.338	22.92
968.699	22.92
969.061	22.93
969.421	22.92
969.782	22.95
970.143	22.94
970.504	22.96
970.865	23
971.225	23.05
971.586	23.03
971.946	23.01
972.307	23.02
972.667	23.01
973.027	23.07
973.388	23.06
973.748	23.07
974.108	23.1
974.468	23.08
974.828	23.09
975.188	23.06
975.548	23.08
975.907	23.04
976.267	23
976.627	23.08
976.986	23
977.346	22.95
977.705	22.84
978.064	22.83
978.424	22.88
978.783	22.84
979.142	22.84
979.501	22.91
979.86	22.94
980.219	22.98
980.578	22.95
980.937	23
981.296	23.03
981.654	23.09
982.013	23.14
982.371	23.16
982.73	23.2
983.088	23.21
983.447	23.18
983.805	23.18
984.163	23.21
984.521	23.21
984.879	23.14
985.237	23.21
985.595	23.26
985.953	23.22
986.311	23.16
986.669	23.08
987.026	23.07
987.384	23.14
987.741	23.21
988.099	23.2
988.456	23.24
988.814	23.35
989.171	23.31
989.528	23.3
989.885	23.28
990.242	23.3
990.599	23.4
990.956	23.49
991.313	23.46
991.67	23.46
992.027	23.51
992.383	23.5
992.74	23.47
993.096	23.46
993.453	23.5
993.809	23.58
994.165	23.57
994.522	23.58
994.878	23.57
995.234	23.6
995.59	23.54
995.946	23.54
996.302	23.57
996.658	23.66
997.013	23.76
997.369	23.78
997.725	23.82
998.08	23.92
998.436	23.97
998.791	24.03
999.147	23.97
999.502	24
999.857	23.97
1000.212	23.91
1000.567	23.85
1000.922	23.83
1001.277	23.82
1001.632	23.8
1001.987	23.76
1002.342	23.6
1002.696	23.63
1003.051	23.82
1003.406	23.97
1003.76	24.04
1004.114	24.1
1004.469	24.12
1004.823	24.34
1005.177	24.37
1005.531	24.38
1005.885	24.44
1006.239	24.57
1006.593	24.67
1006.947	24.63
1007.301	24.44
1007.655	24.38
1008.008	24.5
1008.362	24.64
1008.715	24.4
1009.069	24.47
1009.422	24.57
1009.776	24.53
1010.129	24.66
1010.482	24.45
1010.835	24.5
1011.188	24.63
1011.541	24.79
1011.894	24.72
1012.247	24.65
1012.6	24.73
1012.952	24.75
1013.305	24.8
1013.657	24.98
1014.01	24.88
1014.362	24.89
1014.715	24.97
1015.067	24.98
1015.419	25.09
1015.771	25.29
1016.123	25.38
1016.475	25.48
1016.827	25.59
1017.179	25.51
1017.531	25.49
1017.883	25.48
1018.234	25.75
1018.586	25.76
1018.938	26.14
1019.289	25.96
1019.64	25.95
1019.992	26.07
1020.343	26.05
1020.694	26.09
1021.045	26.24
1021.396	26.15
1021.747	26.42
1022.098	26.42
1022.449	26.39
1022.8	26.1
1023.151	26.2
1023.501	26.35
1023.852	26.36
1024.202	26.21
1024.553	26
1024.903	26.11
1025.253	26.42
1025.604	26.55
1025.954	26.62
1026.304	26.64
1026.654	26.94
1027.004	26.87
1027.354	26.68
1027.703	26.43
1028.053	26.59
1028.403	26.78
1028.753	26.57
1029.102	26.38
1029.452	26.17
1029.801	26.02
1030.15	25.82
1030.499	25.4
897.758	1399.7
901.051	1406.53
904.343	1402.49
907.636	1425.73
910.928	1384.83
914.22	1387.41
917.511	1372.93
920.803	1312.03
924.094	1304.69
927.384	1274.16
930.675	1224.31
933.965	1216.67
937.255	1144.89
940.544	1099
943.834	1044.96
947.123	1037.64
950.411	975.05
953.7	953.78
956.988	900.34
960.276	864.8
963.563	851.41
966.851	819.11
970.138	811.31
973.424	785.75
976.711	791.12
979.997	753.35
983.283	750.07
986.568	733.84
989.853	710.38
993.138	699.57
996.423	672.2
999.708	654.39
1002.992	647.29
1006.275	618.06
1009.559	612.08
1012.842	588.67
1016.125	572.23
1019.408	560.75
1022.69	553.62
1025.972	544.04
1029.254	529.68
1032.536	521.7
1035.817	508.44
1039.098	501.55
1042.379	491.73
1045.659	486.75
1048.939	474.89
1052.219	466.01
1055.498	458.99
1058.778	448.79
1062.057	436.86
1065.335	432.26
1068.614	427.21
1071.892	423.04
1075.17	409.77
1078.447	402.21
1081.724	398.93
1085.001	396.23
1088.278	387.4
1091.554	379.99
1094.83	379.94
1098.106	378.08
1101.382	374.22
1104.657	371.72
1107.932	366.22
1111.206	368.23
1114.481	359.44
1117.755	355.77
1121.029	352.95
1124.302	353.04
1127.575	345.72
1130.848	341.24
1134.121	337.69
1137.393	336.64
1140.665	328.63
1143.937	326.78
1147.208	324.21
1150.48	323.33
1153.75	318.79
1157.021	314.37
1160.291	314.47
1163.561	311.14
1166.831	311.67
1170.101	308.72
1173.37	308.34
1176.639	309.21
1179.907	306.32
1183.176	303.34
1186.444	302.57
1189.711	302.37
1192.979	301.42
1196.246	299.14
1199.513	300.22
1202.78	297.88
1206.046	298.12
1209.312	295.02
1212.578	295.36
1215.843	298.31
1219.108	295.35
1222.373	301.82
1225.638	304.46
1228.902	308.46
1232.166	309.14
1235.43	311.56
1238.693	315.76
1241.956	317.48
1245.219	322.2
1248.482	322.64
1251.744	321.97
1255.006	323.87
1258.268	315.2
1261.529	312.11
1264.79	309.83
1268.051	307.5
1271.312	304
1274.572	299.93
1277.832	297.21
1281.092	292.14
1284.351	289.56
1287.61	289.09
1290.869	284.95
1294.128	283.57
1297.386	283.27
1300.644	279.8
1303.902	280.72
1307.159	279.87
1310.416	279.5
1313.673	279.38
1316.93	282.08
1320.186	282.35
1323.442	283.27
1326.697	287.81
1329.953	289.13
1333.208	290.38
1336.463	293.97
1339.717	294.51
1342.972	297.57
1346.226	301.55
1349.479	301.57
1352.733	303.12
1355.986	305.09
1359.238	305.3
1362.491	306.94
1365.743	309.54
1368.995	308.78
1372.247	308.5
1375.498	308.22
1378.749	311.47
1382	306.44
1385.251	308.09
1388.501	306.49
1391.751	307.09
1395	305.79
1398.25	303.66
1401.499	301.78
1404.748	302.19
1407.996	299.77
1411.244	298.68
1414.492	296.27
1417.74	294.51
1420.987	289.36
1424.234	289.63
1427.481	284.96
1430.728	284.82
1433.974	282.01
1437.22	279.53
1440.465	278.52
1443.711	276.03
1446.956	274.52
1450.201	270.75
1453.445	268.28
1456.689	267.55
1459.933	262.45
1463.177	260.81
1466.42	256.4
1469.663	253.26
1472.906	251.7
1476.148	244.82
1479.391	242.18
1482.633	239.65
1485.874	236.31
1489.115	234.39
1492.356	232.19
1495.597	231.64
1498.838	228.43
1502.078	227.26
1505.318	226.36
1508.557	225.79
1511.797	225.82
1515.036	224.56
1518.274	224.15
1521.513	221.88
1524.751	221.5
1527.989	220.36
1531.227	219.17
1534.464	219.67
1537.701	217.4
1540.938	216.86
1544.174	214.73
1547.41	214.48
1550.646	212.94
1553.882	212.55
1557.117	210.38
1560.352	209.21
1563.587	208.37
1566.821	206.88
1570.055	204.51
1573.289	203.44
1576.523	202.74
1579.756	201.27
1582.989	200.1
1586.222	200.14
1589.454	199.05
1592.686	200.5
1595.918	199.37
1599.15	198.85
1602.381	199.5
1605.612	199.43
1608.843	200.29
1612.073	200.16
1615.303	201.21
1618.533	201.08
1621.762	200.25
1624.992	200.67
1628.221	200.29
1631.449	200.44
1634.678	199.92
1637.906	200.11
1641.134	200.5
1644.361	199.63
1647.588	200.22
1650.815	199.18
1654.042	198.64
1657.269	199.72
1660.495	199.28
1663.72	199.09
1666.946	199.45
1670.171	200.01
1673.396	200.02
1676.621	199.63
1679.845	200.62
1683.069	200.62
1686.293	201.78
1689.517	203.15
1692.74	203.29
1695.963	203.99
1699.185	205.66
1702.408	206.07
1705.63	206.65
1708.852	207.06
1712.073	207.99
1715.294	208
1718.515	209.32
1721.736	209.01
1724.956	209.3
1728.176	209.4
1731.396	211.24
1734.616	210.21
1737.835	211.14
1741.054	209.69
1744.272	210.39
1747.491	212.04
1750.709	212.63
1753.927	212.46
1757.144	211.83
1760.361	213.06
1763.578	212.82
1766.795	212.26
1770.011	213.95
1773.227	213.86
1776.443	216.85
1779.658	217.87
1782.874	217.32
1786.089	218.07
1789.303	218.76
1792.518	221.86
1795.732	221.36
1798.945	223.97
1802.159	223.92
1805.372	224.5
1808.585	228.24
1811.797	228.76
1815.01	229.3
1818.222	230.99
1821.434	232.36
1824.645	233.3
1827.856	236.94
1831.067	238.67
1834.278	237.79
1837.488	240.07
1840.698	242.01
1843.908	239.5
1847.117	240.92
1850.326	242.48
1853.535	242.05
1856.744	246.11
1859.952	245.77
1863.16	244.12
1866.368	242.67
1869.575	246.27
1872.782	242.48
1875.989	241.12
1879.196	240.56
1882.402	239.44
1885.608	240.11
1888.814	240.59
1892.019	239.78
1895.224	239.18
1898.429	238.2
1901.634	240.24
1904.838	240.01
1908.042	242.34
1911.246	243.54
1914.449	245.22
1917.652	244.9
1920.855	244.98
1924.058	244.69
1927.26	243.16
1930.462	244.42
1933.664	247
1936.865	244.93
1940.066	244.63
1943.267	244.22
1946.467	243.42
1949.668	244.77
1952.868	247.69
1956.067	246.89
1959.267	248.31
1962.466	249.4
1965.665	247.76
1968.863	248.31
1972.061	252.5
1975.259	254.43
1978.457	255.27
1981.654	258.26
1984.852	258.77
1988.048	258.33
1991.245	260.83
1994.441	262.91
1997.637	264.69
2000.833	270.44
2004.028	274.24
2007.223	273.89
2010.418	277.27
2013.613	282.08
2016.807	284.81
2020.001	287.08
2023.194	291.04
2026.388	297.66
2029.581	304.31
2032.774	307.22
2035.966	312.25
2039.158	312.64
2042.35	319.56
2045.542	321.62
2048.733	327.57
2051.924	332.24
2055.115	337.68
2058.306	338.82
2061.496	341.73
2064.686	341.17
2067.875	346.55
2071.065	348.46
2074.254	346.44
2077.442	350.53
2080.631	352.15
2083.819	355.15
2087.007	354.98
2090.195	359.84
2093.382	363.36
2096.569	360.94
2099.756	367.24
2102.942	368.24
2106.128	371.48
2109.314	381.28
2112.5	380.02
2115.685	388.04
2118.87	388.43
2122.055	396.26
2125.239	398.96
2128.424	403.15
2131.608	407.38
2134.791	413.48
2137.974	415.18
2141.157	416.08
2144.34	415.89
2147.523	422.87
2150.705	419.69
2153.887	423.44
2157.068	424.67
2160.25	420.12
2163.431	422.61
2166.611	426.7
2169.792	433.57
2172.972	439.59
2176.152	442.19
2179.331	448.94
2182.511	456.35
2185.69	460.9
2188.868	469.63
2192.047	470.74
2195.225	485.21
2198.403	496.98
2201.58	507.22
2204.758	515.98
2207.935	526.59
2211.111	536.26
2214.288	541.49
2217.464	542.53
2220.64	552.23
2223.815	560.79
2226.991	583.1
2230.166	584.23
2233.34	594.13
2236.515	602.6
2239.689	603.95
2242.863	607.07
2246.036	626.29
2249.209	621.49
2252.382	632.04
2255.555	652.01
2258.727	654.3
2261.9	656.51
2265.071	662.97
2268.243	675.64
2271.414	682.59
2274.585	699.13
2277.756	705.71
2280.926	708.17
2284.096	726.18
2287.266	743.13
2290.436	746.18
2293.605	764.26
2296.774	789.73
2299.942	814.47
2303.111	814.56
2306.279	836.1
2309.447	847.78
2312.614	869.17
2315.781	894.28
2318.948	935.32
2322.115	920.7
2325.281	971.78
2328.447	952.73
2331.613	991.6
2334.779	980.6
2337.944	1026.52
2341.109	1034.72
2344.274	1059.88
2347.438	1098.56
2350.602	1099.66
2353.766	1132.36
2356.929	1149.25
2360.092	1141.64
2363.255	1223.46
2366.418	1219.29
2369.58	1242.09
2372.742	1320.43
2375.904	1352.74
2379.066	1344.51
2382.227	1317.55
2385.388	1429.05
2388.548	1426.11
2391.709	1442.67
2394.869	1610.43
2398.029	1537.06
2401.188	1584.59
2404.347	1576.11
2407.506	1545.94
2410.665	1589.57
2413.823	1689.54
2416.981	1789.62
2420.139	1726.48
2423.296	1715.24
2426.453	1793.64
2429.61	1720.98
2432.767	1804.43
2435.923	1782.04
2439.079	1951.63
2442.235	1978.73
2445.391	1961.49
2448.546	1943.7
2451.701	1890.8
2454.855	1894.8
2458.009	2002.54
2461.163	2081.13
2464.317	2157.04
2467.471	2214.37
2470.624	2214.39
2473.777	2150.03
2476.929	2097.36
2480.082	2036.16
2483.234	2015.5
2486.385	2116.15
2489.537	2124.41
2492.688	2207.86
2495.839	2140.85
2498.989	2098.86
2502.14	2105.43
2505.29	2128.85
2508.439	2169.88
2511.589	2161.41
2514.738	2357.46
2517.887	2305.95
2521.035	2436.18
2524.183	2461.97
2527.331	2476.03
2530.479	2474.95
2533.627	2488.58
