Data from C_2_DIV_WI_4N_Splice17_13-21-45-161.txt Node
Date: Sat Mar 07 13:21:45 EST 2020
User: sa697716
Spectrometer: NQ5500242
Trigger mode: 0
Integration Time (sec): 1.450000E-1
Scans to average: 20
Nonlinearity correction enabled: false
Boxcar width: 5
Storing dark spectrum: false
XAxis mode: Wavelengths
Number of Pixels in Spectrum: 512
>>>>>Begin Spectral Data<<<<<
187.83	178.56
188.298	192.62
188.766	179.24
189.233	127.41
189.701	136.15
190.169	166.31
190.636	167.53
191.104	168.8
191.571	50.33
192.039	-180.81
192.506	-561
192.974	263.43
193.441	369.82
193.908	190
194.375	49.82
194.842	19.66
195.31	45.29
195.777	-13.75
196.244	30.26
196.711	41.4
197.177	46.11
197.644	45.92
198.111	45.46
198.578	45.9
199.045	46.25
199.511	46.27
199.978	46.12
200.445	46.37
200.911	46.2
201.378	46.43
201.844	46.44
202.31	45.68
202.777	45.81
203.243	46.1
203.709	45.69
204.176	45.33
204.642	45.52
205.108	45.57
205.574	45.28
206.04	44.92
206.506	44.33
206.972	44.15
207.438	43.85
207.903	43.21
208.369	42.33
208.835	41.57
209.301	40.68
209.766	39.11
210.232	38.02
210.697	37.04
211.163	36.23
211.628	35.45
212.094	34.59
212.559	33.9
213.024	32.96
213.49	32.26
213.955	31.45
214.42	30.74
214.885	29.99
215.35	28.94
215.815	27.55
216.28	25.54
216.745	23.4
217.21	21.37
217.675	19.5
218.14	17.89
218.604	16.47
219.069	15.29
219.534	14.34
219.998	13.49
220.463	12.78
220.927	12.15
221.392	11.69
221.856	11.32
222.32	10.97
222.785	10.68
223.249	10.42
223.713	10.17
224.177	9.96
224.642	9.74
225.106	9.53
225.57	9.34
226.034	9.17
226.497	9.02
226.961	8.85
227.425	8.72
227.889	8.57
228.353	8.43
228.816	8.29
229.28	8.16
229.744	8.03
230.207	7.92
230.671	7.78
231.134	7.66
231.597	7.58
232.061	7.46
232.524	7.35
232.987	7.25
233.45	7.16
233.914	7.06
234.377	6.97
234.84	6.88
235.303	6.81
235.766	6.76
236.229	6.68
236.691	6.59
237.154	6.52
237.617	6.46
238.08	6.39
238.542	6.33
239.005	6.28
239.468	6.23
239.93	6.17
240.393	6.11
240.855	6.03
241.317	5.97
241.78	5.91
242.242	5.85
242.704	5.81
243.166	5.74
243.629	5.68
244.091	5.61
244.553	5.55
245.015	5.49
245.477	5.43
245.939	5.39
246.4	5.34
246.862	5.29
247.324	5.24
247.786	5.19
248.247	5.14
248.709	5.08
249.17	5.03
249.632	5
250.093	4.96
250.555	4.92
251.016	4.88
251.477	4.83
251.939	4.8
252.4	4.76
252.861	4.73
253.322	4.7
253.783	4.66
254.244	4.64
254.705	4.6
255.166	4.55
255.627	4.52
256.088	4.5
256.549	4.47
257.009	4.43
257.47	4.39
257.931	4.35
258.391	4.31
258.852	4.28
259.312	4.25
259.773	4.21
260.233	4.19
260.694	4.16
261.154	4.12
261.614	4.1
262.074	4.06
262.534	4.04
262.994	4.02
263.455	3.99
263.915	3.96
264.374	3.93
264.834	3.91
265.294	3.88
265.754	3.86
266.214	3.83
266.673	3.81
267.133	3.79
267.593	3.78
268.052	3.76
268.512	3.75
268.971	3.74
269.431	3.73
269.89	3.72
270.349	3.71
270.809	3.69
271.268	3.68
271.727	3.67
272.186	3.66
272.645	3.65
273.104	3.64
273.563	3.63
274.022	3.62
274.481	3.61
274.94	3.61
275.399	3.6
275.857	3.59
276.316	3.58
276.775	3.57
277.233	3.56
277.692	3.55
278.15	3.54
278.609	3.54
279.067	3.53
279.525	3.52
279.984	3.51
280.442	3.5
280.9	3.5
281.358	3.5
281.816	3.5
282.274	3.49
282.732	3.49
283.19	3.48
283.648	3.47
284.106	3.46
284.564	3.46
285.021	3.45
285.479	3.45
285.937	3.44
286.394	3.43
286.852	3.42
287.309	3.41
287.767	3.39
288.224	3.38
288.682	3.38
289.139	3.36
289.596	3.34
290.053	3.32
290.511	3.3
290.968	3.29
291.425	3.27
291.882	3.25
292.339	3.23
292.796	3.22
293.252	3.2
293.709	3.19
294.166	3.19
294.623	3.18
295.079	3.17
295.536	3.16
295.992	3.15
296.449	3.15
296.905	3.15
297.362	3.14
297.818	3.13
298.274	3.13
298.731	3.12
299.187	3.11
299.643	3.11
300.099	3.11
300.555	3.1
301.011	3.1
301.467	3.09
301.923	3.08
302.379	3.07
302.835	3.07
303.291	3.07
303.746	3.06
304.202	3.06
304.658	3.06
305.113	3.05
305.569	3.05
306.024	3.05
306.479	3.04
306.935	3.04
307.39	3.04
307.845	3.04
308.301	3.04
308.756	3.04
309.211	3.05
309.666	3.05
310.121	3.05
310.576	3.06
311.031	3.06
311.486	3.06
311.94	3.07
312.395	3.07
312.85	3.06
313.305	3.06
313.759	3.06
314.214	3.05
314.668	3.04
315.123	3.03
315.577	3.03
316.032	3.01
316.486	3.01
316.94	3.01
317.394	3
317.849	2.99
318.303	2.99
318.757	2.98
319.211	2.97
319.665	2.95
320.119	2.95
320.572	2.93
321.026	2.93
321.48	2.92
321.934	2.9
322.387	2.89
322.841	2.88
323.295	2.89
323.748	2.88
324.202	2.88
324.655	2.88
325.108	2.88
325.562	2.88
326.015	2.88
326.468	2.88
326.921	2.88
327.374	2.88
327.827	2.88
328.28	2.87
328.733	2.87
329.186	2.87
329.639	2.87
330.092	2.87
330.545	2.87
330.997	2.86
331.45	2.87
331.903	2.88
332.355	2.89
332.808	2.9
333.26	2.89
333.713	2.88
334.165	2.88
334.617	2.9
335.069	2.89
335.522	2.89
335.974	2.9
336.426	2.89
336.878	2.89
337.33	2.89
337.782	2.89
338.234	2.9
338.686	2.91
339.137	2.91
339.589	2.89
340.041	2.9
340.493	2.89
340.944	2.88
341.396	2.87
341.847	2.87
342.299	2.85
342.75	2.84
343.201	2.82
343.653	2.81
344.104	2.8
344.555	2.79
345.006	2.77
345.457	2.77
345.908	2.76
346.359	2.75
346.81	2.74
347.261	2.73
347.712	2.73
348.163	2.72
348.613	2.73
349.064	2.73
349.515	2.74
349.965	2.74
350.416	2.74
350.866	2.74
351.317	2.74
351.767	2.75
352.217	2.76
352.668	2.76
353.118	2.76
353.568	2.75
354.018	2.75
354.468	2.75
354.918	2.75
355.368	2.75
355.818	2.75
356.268	2.75
356.718	2.76
357.168	2.75
357.617	2.75
358.067	2.75
358.517	2.77
358.966	2.77
359.416	2.77
359.865	2.77
360.315	2.77
360.764	2.77
361.213	2.77
361.663	2.77
362.112	2.78
362.561	2.79
363.01	2.8
363.459	2.78
363.908	2.78
364.357	2.79
364.806	2.78
365.255	2.78
365.703	2.8
366.152	2.81
366.601	2.81
367.05	2.82
367.498	2.82
367.947	2.83
368.395	2.85
368.844	2.86
369.292	2.85
369.74	2.86
370.189	2.87
370.637	2.87
371.085	2.87
371.533	2.88
371.981	2.88
372.429	2.88
372.877	2.89
373.325	2.9
373.773	2.9
374.221	2.92
374.669	2.93
375.116	2.93
375.564	2.94
376.012	2.95
376.459	2.97
376.907	2.99
377.354	3.01
377.801	3.03
378.249	3.03
378.696	3.05
379.143	3.07
379.591	3.08
380.038	3.1
380.485	3.12
380.932	3.14
381.379	3.16
381.826	3.18
382.273	3.19
382.72	3.2
383.166	3.22
383.613	3.25
384.06	3.26
384.506	3.28
384.953	3.3
385.4	3.32
385.846	3.35
386.292	3.37
386.739	3.39
387.185	3.41
387.631	3.44
388.078	3.47
388.524	3.48
388.97	3.51
389.416	3.54
389.862	3.57
390.308	3.61
390.754	3.63
391.2	3.67
391.645	3.7
392.091	3.74
392.537	3.77
392.983	3.81
393.428	3.85
393.874	3.88
394.319	3.91
394.765	3.93
395.21	3.96
395.655	3.99
396.101	4.02
396.546	4.04
396.991	4.07
397.436	4.1
397.881	4.13
398.326	4.17
398.771	4.2
399.216	4.24
399.661	4.27
400.106	4.29
400.551	4.31
400.995	4.33
401.44	4.36
401.885	4.37
402.329	4.38
402.774	4.4
403.218	4.43
403.663	4.44
404.107	4.46
404.551	4.47
404.995	4.49
405.44	4.5
405.884	4.51
406.328	4.53
406.772	4.54
407.216	4.56
407.66	4.56
408.104	4.56
408.547	4.57
408.991	4.59
409.435	4.6
409.879	4.61
410.322	4.64
410.766	4.66
411.209	4.69
411.653	4.72
412.096	4.74
412.54	4.77
412.983	4.77
413.426	4.81
413.869	4.83
414.312	4.86
414.756	4.89
415.199	4.89
415.642	4.91
416.085	4.92
416.527	4.91
416.97	4.89
417.413	4.89
417.856	4.91
418.298	4.89
418.741	4.89
419.184	4.88
419.626	4.88
420.069	4.89
420.511	4.89
420.953	4.89
421.396	4.91
421.838	4.92
422.28	4.94
422.722	4.96
423.164	4.97
423.606	4.98
424.048	4.98
424.49	4.97
424.932	4.95
425.374	4.93
425.816	4.91
426.258	4.9
426.699	4.89
427.141	4.87
427.582	4.86
428.024	4.86
428.465	4.86
428.907	4.85
429.348	4.83
429.789	4.84
430.231	4.86
430.672	4.89
431.113	4.91
431.554	4.92
431.995	4.94
432.436	4.95
432.877	4.96
433.318	4.97
433.759	5.01
434.2	5.04
434.64	5.06
435.081	5.07
435.522	5.09
435.962	5.09
436.403	5.11
436.843	5.14
437.284	5.15
437.724	5.16
438.164	5.15
438.604	5.16
439.045	5.17
439.485	5.17
439.925	5.18
440.365	5.19
440.805	5.2
441.245	5.23
441.685	5.25
442.125	5.28
442.564	5.29
443.004	5.32
443.444	5.35
443.883	5.37
444.323	5.39
444.762	5.42
445.202	5.45
445.641	5.5
446.081	5.52
446.52	5.52
446.959	5.56
447.398	5.6
447.837	5.62
448.276	5.64
448.716	5.68
449.154	5.72
449.593	5.74
450.032	5.76
450.471	5.75
450.91	5.77
451.349	5.8
451.787	5.79
452.226	5.79
452.664	5.81
453.103	5.81
453.541	5.82
453.98	5.83
454.418	5.82
454.856	5.83
455.295	5.84
455.733	5.81
456.171	5.8
456.609	5.82
457.047	5.8
457.485	5.79
457.923	5.79
458.361	5.78
458.798	5.77
459.236	5.77
459.674	5.76
460.111	5.75
460.549	5.76
460.987	5.76
461.424	5.75
461.862	5.76
462.299	5.77
462.736	5.77
463.173	5.77
463.611	5.78
464.048	5.8
464.485	5.8
464.922	5.81
465.359	5.81
465.796	5.82
466.233	5.82
466.67	5.84
467.106	5.85
467.543	5.85
467.98	5.84
468.416	5.82
468.853	5.81
469.29	5.81
469.726	5.83
470.162	5.83
470.599	5.82
471.035	5.82
471.471	5.8
471.907	5.8
472.344	5.79
472.78	5.81
473.216	5.82
473.652	5.83
474.088	5.82
474.523	5.81
474.959	5.81
475.395	5.8
475.831	5.8
476.266	5.8
476.702	5.79
477.138	5.81
477.573	5.8
478.008	5.8
478.444	5.78
478.879	5.8
479.314	5.79
479.75	5.79
480.185	5.79
480.62	5.78
481.055	5.77
481.49	5.77
481.925	5.76
482.36	5.76
482.795	5.75
483.229	5.76
483.664	5.76
484.099	5.75
484.534	5.76
484.968	5.77
485.403	5.78
485.837	5.8
486.271	5.83
486.706	5.84
487.14	5.86
487.574	5.89
488.009	5.92
488.443	5.94
488.877	5.98
489.311	6.02
489.745	6.06
490.179	6.11
490.613	6.16
491.046	6.21
491.48	6.26
491.914	6.32
492.348	6.37
492.781	6.43
493.215	6.49
493.648	6.57
494.082	6.62
494.515	6.7
494.948	6.76
495.382	6.82
495.815	6.91
496.248	7
496.681	7.09
497.114	7.19
497.547	7.29
497.98	7.4
498.413	7.5
498.846	7.62
499.279	7.73
499.711	7.86
500.144	7.99
500.577	8.11
501.009	8.24
501.442	8.37
501.874	8.51
502.306	8.66
502.739	8.82
503.171	8.99
503.603	9.16
504.036	9.33
504.468	9.51
504.9	9.69
505.332	9.88
505.764	10.08
506.196	10.28
506.627	10.5
507.059	10.71
507.491	10.92
507.923	11.14
508.354	11.37
508.786	11.6
509.217	11.84
509.649	12.09
510.08	12.34
510.512	12.59
510.943	12.85
511.374	13.11
511.805	13.37
512.237	13.63
512.668	13.9
513.099	14.18
513.53	14.46
513.961	14.75
514.391	15.04
514.822	15.33
515.253	15.61
515.684	15.9
516.114	16.2
516.545	16.5
516.975	16.79
517.406	17.09
517.836	17.36
518.267	17.66
518.697	17.93
519.127	18.19
519.558	18.46
519.988	18.73
520.418	19
520.848	19.26
521.278	19.51
521.708	19.83
522.138	20.09
522.567	20.34
522.997	20.58
523.427	20.81
523.857	21.07
524.286	21.29
524.716	21.52
525.145	21.72
525.575	21.93
526.004	22.14
526.433	22.26
526.863	22.43
527.292	22.62
527.721	22.77
528.15	22.92
528.579	23.07
529.008	23.23
529.437	23.38
529.866	23.51
530.295	23.64
530.724	23.76
531.152	23.89
531.581	24
532.01	24.1
532.438	24.21
532.867	24.32
533.295	24.41
533.723	24.49
534.152	24.55
534.58	24.64
535.008	24.69
535.436	24.75
535.865	24.8
536.293	24.85
536.721	24.91
537.149	24.97
537.576	25
538.004	25.06
538.432	25.11
538.86	25.17
539.287	25.2
539.715	25.27
540.143	25.31
540.57	25.35
540.998	25.37
541.425	25.39
541.852	25.42
542.28	25.46
542.707	25.49
543.134	25.51
543.561	25.53
543.988	25.54
544.415	25.55
544.842	25.56
545.269	25.58
545.696	25.62
546.123	25.65
546.549	25.67
546.976	25.69
547.403	25.71
547.829	25.73
548.256	25.74
548.682	25.75
549.108	25.77
549.535	25.78
549.961	25.8
550.387	25.79
550.813	25.79
551.24	25.78
551.666	25.78
552.092	25.77
552.518	25.76
552.943	25.74
553.369	25.73
553.795	25.7
554.221	25.67
554.646	25.63
555.072	25.6
555.498	25.55
555.923	25.49
556.349	25.43
556.774	25.37
557.199	25.32
557.625	25.26
558.05	25.2
558.475	25.14
558.9	25.08
559.325	25.03
559.75	24.97
560.175	24.9
560.6	24.82
561.025	24.74
561.449	24.65
561.874	24.54
562.299	24.45
562.723	24.34
563.148	24.23
563.572	24.11
563.997	23.98
564.421	23.84
564.846	23.72
565.27	23.59
565.694	23.47
566.118	23.33
566.542	23.21
566.966	23.07
567.39	22.94
567.814	22.8
568.238	22.66
568.662	22.52
569.086	22.39
569.509	22.26
569.933	22.11
570.357	21.98
570.78	21.85
571.204	21.72
571.627	21.59
572.05	21.46
572.474	21.35
572.897	21.22
573.32	21.11
573.743	20.97
574.166	20.86
574.589	20.74
575.012	20.63
575.435	20.52
575.858	20.4
576.281	20.3
576.704	20.2
577.126	20.09
577.549	20.01
577.972	19.91
578.394	19.83
578.817	19.75
579.239	19.66
579.661	19.58
580.084	19.49
580.506	19.43
580.928	19.35
581.35	19.28
581.772	19.2
582.194	19.12
582.616	19.03
583.038	18.96
583.46	18.87
583.882	18.81
584.303	18.72
584.725	18.66
585.147	18.59
585.568	18.52
585.99	18.44
586.411	18.38
586.833	18.32
587.254	18.26
587.675	18.2
588.096	18.15
588.518	18.11
588.939	18.08
589.36	18.02
589.781	17.97
590.202	17.93
590.623	17.9
591.043	17.85
591.464	17.82
591.885	17.78
592.305	17.75
592.726	17.71
593.147	17.65
593.567	17.61
593.987	17.57
594.408	17.53
594.828	17.49
595.248	17.44
595.669	17.41
596.089	17.36
596.509	17.35
596.929	17.3
597.349	17.27
597.769	17.25
598.189	17.21
598.608	17.18
599.028	17.14
599.448	17.1
599.867	17.05
600.287	17.01
600.706	16.99
601.126	16.93
601.545	16.9
601.965	16.87
602.384	16.82
602.803	16.77
603.222	16.72
603.641	16.68
604.061	16.63
604.48	16.58
604.898	16.51
605.317	16.43
605.736	16.39
606.155	16.33
606.574	16.25
606.992	16.18
607.411	16.1
607.829	16.01
608.248	15.92
608.666	15.85
609.085	15.78
609.503	15.72
609.921	15.64
610.339	15.55
610.758	15.48
611.176	15.4
611.594	15.32
612.012	15.24
612.43	15.19
612.847	15.11
613.265	15.04
613.683	14.96
614.101	14.88
614.518	14.8
614.936	14.72
615.353	14.65
615.771	14.58
616.188	14.52
616.606	14.47
617.023	14.4
617.44	14.36
617.857	14.29
618.274	14.24
618.691	14.2
619.108	14.16
619.525	14.13
619.942	14.08
620.359	14.05
620.776	14.02
621.192	13.99
621.609	13.96
622.026	13.93
622.442	13.91
622.859	13.88
623.275	13.84
623.691	13.83
624.108	13.81
624.524	13.8
624.94	13.78
625.356	13.75
625.772	13.73
626.188	13.73
626.604	13.72
627.02	13.7
627.436	13.7
627.852	13.69
628.268	13.67
628.683	13.65
629.099	13.64
629.514	13.62
629.93	13.6
630.345	13.57
630.761	13.53
631.176	13.51
631.591	13.47
632.007	13.42
632.422	13.37
632.837	13.33
633.252	13.26
633.667	13.19
634.082	13.12
634.497	13.03
634.911	12.96
635.326	12.87
635.741	12.76
636.155	12.67
636.57	12.57
636.984	12.47
637.399	12.35
637.813	12.24
638.228	12.12
638.642	12
639.056	11.87
639.47	11.73
639.884	11.62
640.298	11.47
640.712	11.34
641.126	11.21
641.54	11.08
641.954	10.94
642.368	10.81
642.781	10.69
643.195	10.57
643.609	10.46
644.022	10.34
644.436	10.23
644.849	10.12
645.262	10.01
645.676	9.91
646.089	9.81
646.502	9.72
646.915	9.64
647.328	9.56
647.741	9.48
648.154	9.4
648.567	9.34
648.98	9.28
649.393	9.22
649.805	9.18
650.218	9.13
650.631	9.1
651.043	9.05
651.456	9.02
651.868	8.97
652.28	8.93
652.693	8.89
653.105	8.84
653.517	8.79
653.929	8.75
654.341	8.69
654.753	8.62
655.165	8.55
655.577	8.49
655.989	8.4
656.401	8.32
656.813	8.24
657.224	8.15
657.636	8.04
658.047	7.96
658.459	7.86
658.87	7.76
659.282	7.65
659.693	7.55
660.104	7.44
660.515	7.34
660.926	7.23
661.338	7.12
661.749	7.03
662.159	6.94
662.57	6.84
662.981	6.75
663.392	6.66
663.803	6.59
664.213	6.5
664.624	6.42
665.035	6.34
665.445	6.28
665.855	6.23
666.266	6.16
666.676	6.12
667.086	6.07
667.497	6.03
667.907	6
668.317	5.97
668.727	5.94
669.137	5.92
669.547	5.9
669.956	5.88
670.366	5.87
670.776	5.86
671.186	5.84
671.595	5.83
672.005	5.82
672.414	5.82
672.824	5.83
673.233	5.84
673.642	5.86
674.052	5.87
674.461	5.89
674.87	5.91
675.279	5.93
675.688	5.96
676.097	6
676.506	6.04
676.915	6.07
677.323	6.11
677.732	6.15
678.141	6.2
678.549	6.26
678.958	6.32
679.366	6.39
679.775	6.47
680.183	6.56
680.592	6.66
681	6.77
681.408	6.9
681.816	7.04
682.224	7.18
682.632	7.35
683.04	7.51
683.448	7.7
683.856	7.9
684.264	8.13
684.671	8.37
685.079	8.62
685.487	8.92
685.894	9.21
686.302	9.54
686.709	9.89
687.116	10.26
687.524	10.67
687.931	11.09
688.338	11.55
688.745	12.01
689.152	12.48
689.559	13
689.966	13.52
690.373	14.05
690.78	14.59
691.187	15.14
691.593	15.7
692	16.26
692.407	16.81
692.813	17.37
693.22	17.94
693.626	18.51
694.032	19.07
694.439	19.63
694.845	20.2
695.251	20.76
695.657	21.3
696.063	21.84
696.469	22.38
696.875	22.93
697.281	23.46
697.687	23.99
698.093	24.5
698.498	24.99
698.904	25.48
699.31	25.96
699.715	26.45
700.12	26.93
700.526	27.38
700.931	27.83
701.337	28.26
701.742	28.68
702.147	29.08
702.552	29.47
702.957	29.84
703.362	30.21
703.767	30.56
704.172	30.89
704.577	31.22
704.981	31.57
705.386	31.91
705.791	32.24
706.195	32.55
706.6	32.88
707.004	33.19
707.408	33.5
707.813	33.82
708.217	34.12
708.621	34.42
709.025	34.71
709.43	34.95
709.834	35.23
710.237	35.49
710.641	35.73
711.045	35.95
711.449	36.22
711.853	36.49
712.256	36.72
712.66	36.96
713.064	37.18
713.467	37.4
713.87	37.64
714.274	37.86
714.677	38.08
715.08	38.32
715.484	38.56
715.887	38.78
716.29	38.98
716.693	39.18
717.096	39.37
717.499	39.58
717.901	39.76
718.304	39.94
718.707	40.11
719.109	40.28
719.512	40.42
719.915	40.58
720.317	40.69
720.719	40.79
721.122	40.94
721.524	41.08
721.926	41.22
722.328	41.38
722.731	41.5
723.133	41.63
723.535	41.74
723.937	41.88
724.338	41.98
724.74	42.12
725.142	42.35
725.544	42.44
725.945	42.55
726.347	42.63
726.748	42.68
727.15	42.75
727.551	42.86
727.952	42.96
728.354	43.02
728.755	43.07
729.156	43.14
729.557	43.1
729.958	43.16
730.359	43.23
730.76	43.31
731.161	43.36
731.562	43.43
731.962	43.44
732.363	43.5
732.763	43.58
733.164	43.65
733.564	43.71
733.965	43.75
734.365	43.82
734.766	43.87
735.166	43.9
735.566	43.97
735.966	44.01
736.366	44.06
736.766	44.1
737.166	44.14
737.566	44.16
737.966	44.19
738.365	44.25
738.765	44.29
739.165	44.31
739.564	44.35
739.964	44.38
740.363	44.41
740.763	44.44
741.162	44.46
741.561	44.47
741.96	44.49
742.36	44.5
742.759	44.52
743.158	44.5
743.557	44.52
743.955	44.54
744.354	44.58
744.753	44.62
745.152	44.67
745.55	44.67
745.949	44.69
746.348	44.72
746.746	44.75
747.144	44.77
747.543	44.79
747.941	44.8
748.339	44.78
748.737	44.74
749.136	44.7
749.534	44.66
749.932	44.68
750.33	44.67
750.727	44.67
751.125	44.66
751.523	44.64
751.921	44.66
752.318	44.68
752.716	44.7
753.113	44.73
753.511	44.74
753.908	44.78
754.305	44.77
754.703	44.77
755.1	44.78
755.497	44.8
755.894	44.81
756.291	44.8
756.688	44.77
757.085	44.78
757.482	44.79
757.878	44.8
758.275	44.78
758.672	44.79
759.068	44.84
759.465	44.83
759.861	44.83
760.258	44.84
760.654	44.84
761.05	44.87
761.447	44.86
761.843	44.84
762.239	44.84
762.635	44.84
763.031	44.85
763.427	44.79
763.822	44.78
764.218	44.79
764.614	44.79
765.01	44.78
765.405	44.77
765.801	44.75
766.196	44.77
766.592	44.76
766.987	44.76
767.382	44.74
767.778	44.78
768.173	44.77
768.568	44.76
768.963	44.75
769.358	44.77
769.753	44.77
770.148	44.79
770.542	44.79
770.937	44.81
771.332	44.82
771.726	44.84
772.121	44.82
772.515	44.83
772.91	44.84
773.304	44.83
773.699	44.81
774.093	44.81
774.487	44.83
774.881	44.83
775.275	44.81
775.669	44.79
776.063	44.77
776.457	44.78
776.851	44.77
777.245	44.74
777.638	44.73
778.032	44.73
778.425	44.75
778.819	44.75
779.212	44.76
779.606	44.79
779.999	44.81
780.392	44.85
780.786	44.85
781.179	44.86
781.572	44.91
781.965	44.94
782.358	44.96
782.751	44.93
783.143	44.92
783.536	44.91
783.929	44.88
784.322	44.9
784.714	44.89
785.107	44.91
785.499	44.91
785.891	44.89
786.284	44.89
786.676	44.91
787.068	44.94
787.46	44.96
787.852	44.96
788.245	44.96
788.636	44.96
789.028	44.97
789.42	44.95
789.812	44.98
790.204	44.98
790.595	44.98
790.987	44.97
791.378	45
791.77	45
792.161	45.01
792.553	45.03
792.944	45.02
793.335	45.02
793.726	45.03
794.117	45
794.508	44.97
794.899	44.98
795.29	45
795.681	44.96
796.072	44.95
796.463	44.97
796.853	44.97
797.244	44.99
797.634	44.97
798.025	44.99
798.415	45
798.806	45.01
799.196	44.99
799.586	45.01
799.976	45.02
800.366	45.01
800.756	44.99
801.146	45.01
801.536	45.01
801.926	45
802.316	45.01
802.706	45.02
803.095	45.04
803.485	45.05
803.874	45.04
804.264	45.04
804.653	45.05
805.043	45.06
805.432	45.07
805.821	45.11
806.21	45.11
806.599	45.1
806.988	45.12
807.377	45.11
807.766	45.12
808.155	45.12
808.544	45.13
808.933	45.14
809.321	45.14
809.71	45.11
810.098	45.07
810.487	45.07
810.875	45.07
811.264	45.05
811.652	45.08
812.04	45.06
812.428	45.07
812.816	45.07
813.204	45.07
813.592	45.08
813.98	45.1
814.368	45.1
814.756	45.11
815.144	45.1
815.531	45.09
815.919	45.08
816.306	45.07
816.694	45.06
817.081	45.04
817.469	45.05
817.856	45.03
818.243	45.01
818.63	45.03
819.017	45.02
819.404	45.02
819.791	45.03
820.178	45.04
820.565	45.04
820.952	45.03
821.339	45.05
821.725	45.05
822.112	45.08
822.498	45.11
822.885	45.13
823.271	45.15
823.657	45.14
824.044	45.13
824.43	45.13
824.816	45.14
825.202	45.12
825.588	45.13
825.974	45.12
826.36	45.1
826.746	45.06
827.132	45.05
827.517	45.03
827.903	45.05
828.289	45.07
828.674	45.06
829.06	45.04
829.445	45.05
829.83	45.04
830.216	45.04
830.601	45.05
830.986	45.06
831.371	45.05
831.756	45.06
832.141	45.04
832.526	45.06
832.911	45.06
833.295	45.07
833.68	45.09
834.065	45.08
834.449	45.06
834.834	45.04
835.218	45.04
835.603	45.03
835.987	45.03
836.371	45.01
836.755	44.98
837.139	44.98
837.524	44.97
837.908	44.98
838.291	45
838.675	45.02
839.059	45.03
839.443	45.03
839.827	45.03
840.21	45.02
840.594	45.05
840.977	45.05
841.361	45.05
841.744	45.05
842.127	45.02
842.511	44.98
842.894	44.95
843.277	44.93
843.66	44.9
844.043	44.9
844.426	44.91
844.809	44.9
845.191	44.91
845.574	44.89
845.957	44.91
846.339	44.9
846.722	44.94
847.104	44.95
847.487	44.95
847.869	44.98
848.252	44.97
848.634	44.95
849.016	44.96
849.398	44.99
849.78	44.98
850.162	44.96
850.544	44.97
850.926	44.96
851.307	44.96
851.689	44.97
852.071	44.97
852.452	44.96
852.834	45
853.215	45
853.597	44.99
853.978	45.01
854.359	45.03
854.741	45.04
855.122	45.03
855.503	45.03
855.884	45.02
856.265	45.02
856.646	45.01
857.026	45
857.407	45.01
857.788	44.99
858.169	45
858.549	44.99
858.93	44.99
859.31	44.99
859.69	45
860.071	45.03
860.451	45.03
860.831	45.06
861.211	45.05
861.591	45.02
861.971	45.01
862.351	45.03
862.731	45.05
863.111	45.04
863.491	45.05
863.87	45.04
864.25	45.01
864.629	45
865.009	44.99
865.388	45.01
865.768	45.01
866.147	45.03
866.526	45.01
866.905	44.98
867.284	44.98
867.663	45
868.042	45.01
868.421	45.04
868.8	45.04
869.179	45.06
869.558	45.04
869.936	45.04
870.315	45.04
870.693	45.07
871.072	45.08
871.45	45.07
871.828	45.09
872.207	45.09
872.585	45.06
872.963	45.08
873.341	45.06
873.719	45.09
874.097	45.07
874.475	45.08
874.853	45.06
875.23	45.08
875.608	45.1
875.986	45.11
876.363	45.11
876.741	45.13
877.118	45.11
877.495	45.12
877.873	45.11
878.25	45.15
878.627	45.15
879.004	45.15
879.381	45.14
879.758	45.12
880.135	45.1
880.512	45.08
880.889	45.09
881.265	45.09
881.642	45.1
882.019	45.1
882.395	45.07
882.772	45.06
883.148	45.05
883.524	45.03
883.901	45.04
884.277	45.03
884.653	45.02
885.029	45.02
885.405	45.02
885.781	45.01
886.157	45.01
886.532	45.01
886.908	45.01
887.284	45.01
887.659	44.98
888.035	44.97
888.411	44.95
888.786	44.94
889.161	44.94
889.537	44.91
889.912	44.91
890.287	44.91
890.662	44.9
891.037	44.91
891.412	44.91
891.787	44.91
892.162	44.92
892.536	44.93
892.911	44.93
893.286	44.93
893.66	44.92
894.035	44.94
894.409	44.93
894.784	44.94
895.158	44.92
895.532	44.92
895.906	44.92
896.281	44.93
896.655	44.94
897.029	44.96
897.402	44.95
897.776	44.97
898.15	44.95
898.524	44.98
898.898	44.97
899.271	44.97
899.645	44.98
900.018	45
900.392	44.99
900.765	45
901.138	44.99
901.511	45
901.884	45.01
902.258	45.01
902.631	44.96
903.003	44.97
903.376	44.99
903.749	45
904.122	45
904.495	45.02
904.867	45.02
905.24	45.04
905.612	45.06
905.985	45.06
906.357	45.06
906.729	45.1
907.102	45.1
907.474	45.12
907.846	45.12
908.218	45.11
908.59	45.13
908.962	45.15
909.334	45.14
909.705	45.12
910.077	45.17
910.449	45.17
910.82	45.17
911.192	45.16
911.563	45.13
911.935	45.12
912.306	45.14
912.677	45.1
913.048	45.09
913.419	45.05
913.79	45.06
914.161	45.03
914.532	45.02
914.903	45.02
915.274	45.05
915.645	45.06
916.015	45.06
916.386	45.09
916.756	45.1
917.127	45.1
917.497	45.14
917.868	45.15
918.238	45.16
918.608	45.17
918.978	45.15
919.348	45.14
919.718	45.14
920.088	45.15
920.458	45.14
920.828	45.14
921.198	45.09
921.567	45.07
921.937	45.07
922.306	45.07
922.676	45.06
923.045	45.04
923.415	45.02
923.784	45.02
924.153	45.01
924.522	45.03
924.891	45
925.26	45.02
925.629	45.02
925.998	44.98
926.367	44.96
926.736	44.98
927.104	45.01
927.473	45.01
927.842	44.99
928.21	45.03
928.578	44.98
928.947	45
929.315	44.97
929.683	44.96
930.051	44.98
930.42	45
930.788	44.96
931.156	44.97
931.523	44.99
931.891	45.01
932.259	44.97
932.627	45
932.994	44.98
933.362	45.02
933.729	45.03
934.097	45.02
934.464	45.01
934.831	45.05
935.199	45.04
935.566	45.01
935.933	44.96
936.3	44.94
936.667	44.93
937.034	45.01
937.401	45
937.767	45
938.134	44.99
938.501	45.04
938.867	45.06
939.234	45.05
939.6	45.04
939.967	45.05
940.333	45.02
940.699	45.03
941.065	44.94
941.431	44.92
941.798	44.89
942.163	44.89
942.529	44.85
942.895	44.78
943.261	44.75
943.627	44.78
943.992	44.83
944.358	44.84
944.723	44.81
945.089	44.8
945.454	44.83
945.82	44.81
946.185	44.83
946.55	44.75
946.915	44.68
947.28	44.64
947.645	44.59
948.01	44.58
948.375	44.61
948.74	44.56
949.104	44.6
949.469	44.58
949.834	44.51
950.198	44.45
950.562	44.43
950.927	44.5
951.291	44.46
951.655	44.44
952.02	44.4
952.384	44.37
952.748	44.37
953.112	44.33
953.476	44.27
953.839	44.29
954.203	44.32
954.567	44.32
954.931	44.22
955.294	44.21
955.658	44.25
956.021	44.26
956.385	44.22
956.748	44.22
957.111	44.17
957.474	44.15
957.837	44.13
958.2	44.1
958.563	44.13
958.926	44.16
959.289	44.2
959.652	44.2
960.015	44.2
960.377	44.22
960.74	44.23
961.102	44.24
961.465	44.28
961.827	44.36
962.189	44.41
962.552	44.42
962.914	44.45
963.276	44.44
963.638	44.44
964	44.42
964.362	44.42
964.724	44.39
965.085	44.37
965.447	44.33
965.809	44.28
966.17	44.23
966.532	44.2
966.893	44.2
967.255	44.2
967.616	44.17
967.977	44.13
968.338	44.07
968.699	44.11
969.061	44.16
969.421	44.18
969.782	44.22
970.143	44.19
970.504	44.24
970.865	44.24
971.225	44.26
971.586	44.27
971.946	44.31
972.307	44.33
972.667	44.27
973.027	44.3
973.388	44.34
973.748	44.35
974.108	44.43
974.468	44.36
974.828	44.39
975.188	44.38
975.548	44.4
975.907	44.4
976.267	44.45
976.627	44.55
976.986	44.47
977.346	44.43
977.705	44.41
978.064	44.35
978.424	44.4
978.783	44.36
979.142	44.38
979.501	44.38
979.86	44.41
980.219	44.41
980.578	44.4
980.937	44.46
981.296	44.44
981.654	44.45
982.013	44.49
982.371	44.48
982.73	44.46
983.088	44.48
983.447	44.45
983.805	44.45
984.163	44.43
984.521	44.44
984.879	44.44
985.237	44.48
985.595	44.49
985.953	44.49
986.311	44.47
986.669	44.5
987.026	44.48
987.384	44.53
987.741	44.52
988.099	44.61
988.456	44.51
988.814	44.47
989.171	44.53
989.528	44.55
989.885	44.6
990.242	44.67
990.599	44.8
990.956	44.83
991.313	44.88
991.67	44.84
992.027	44.86
992.383	44.95
992.74	45.01
993.096	45
993.453	44.94
993.809	44.91
994.165	44.86
994.522	44.78
994.878	44.84
995.234	44.79
995.59	44.85
995.946	44.8
996.302	44.81
996.658	44.83
997.013	44.85
997.369	44.96
997.725	44.98
998.08	45.08
998.436	45.06
998.791	45.03
999.147	45.06
999.502	45.05
999.857	45
1000.212	44.92
1000.567	44.97
1000.922	44.97
1001.277	44.97
1001.632	45.04
1001.987	45
1002.342	44.9
1002.696	44.97
1003.051	45.09
1003.406	45.18
1003.76	45.18
1004.114	45.24
1004.469	45.22
1004.823	45.36
1005.177	45.34
1005.531	45.39
1005.885	45.41
1006.239	45.56
1006.593	45.57
1006.947	45.43
1007.301	45.32
1007.655	45.39
1008.008	45.47
1008.362	45.59
1008.715	45.51
1009.069	45.66
1009.422	45.67
1009.776	45.53
1010.129	45.55
1010.482	45.45
1010.835	45.67
1011.188	45.73
1011.541	45.87
1011.894	45.94
1012.247	45.86
1012.6	46
1012.952	45.85
1013.305	45.81
1013.657	46.11
1014.01	46.16
1014.362	46.08
1014.715	46.06
1015.067	46.19
1015.419	46.18
1015.771	46.11
1016.123	46.13
1016.475	45.94
1016.827	46
1017.179	46.07
1017.531	45.89
1017.883	45.87
1018.234	46.06
1018.586	46.04
1018.938	46.27
1019.289	46.22
1019.64	46.16
1019.992	46.05
1020.343	46.2
1020.694	46.18
1021.045	46.26
1021.396	46.41
1021.747	46.63
1022.098	46.75
1022.449	46.69
1022.8	46.63
1023.151	46.76
1023.501	46.89
1023.852	47.12
1024.202	47.08
1024.553	47.08
1024.903	47.02
1025.253	47.07
1025.604	47.03
1025.954	46.92
1026.304	46.93
1026.654	46.84
1027.004	46.85
1027.354	46.65
1027.703	46.47
1028.053	46.5
1028.403	46.45
1028.753	46.32
1029.102	46.14
1029.452	45.88
1029.801	45.89
1030.15	45.9
1030.499	45.71
897.758	1365.08
901.051	1377.89
904.343	1373.63
907.636	1394.79
910.928	1360.31
914.22	1358.49
917.511	1339.85
920.803	1279.67
924.094	1275.98
927.384	1244.69
930.675	1197.11
933.965	1191.3
937.255	1117.38
940.544	1072.87
943.834	1020.85
947.123	1011.75
950.411	951.38
953.7	932.65
956.988	881.92
960.276	845.44
963.563	834.78
966.851	803.07
970.138	795.45
973.424	771.97
976.711	774.19
979.997	739.74
983.283	733.41
986.568	718.91
989.853	696.03
993.138	685.87
996.423	657.27
999.708	637.07
1002.992	631.28
1006.275	604.21
1009.559	597.49
1012.842	575.63
1016.125	558.08
1019.408	548.07
1022.69	540.12
1025.972	529.86
1029.254	516.25
1032.536	508.31
1035.817	497.37
1039.098	489.55
1042.379	478.11
1045.659	473.92
1048.939	463.59
1052.219	452.69
1055.498	447.16
1058.778	436.27
1062.057	425.91
1065.335	421.33
1068.614	417.19
1071.892	412.19
1075.17	398.84
1078.447	391.89
1081.724	388.59
1085.001	385.22
1088.278	378.2
1091.554	369.39
1094.83	370.62
1098.106	368.21
1101.382	364.21
1104.657	361.48
1107.932	356.05
1111.206	357.9
1114.481	349.25
1117.755	345.4
1121.029	342.43
1124.302	342.22
1127.575	335.95
1130.848	331.35
1134.121	327.84
1137.393	326.28
1140.665	318.71
1143.937	316.39
1147.208	315.38
1150.48	314.14
1153.75	310.01
1157.021	305.76
1160.291	306.16
1163.561	302.29
1166.831	303.28
1170.101	300.86
1173.37	300.2
1176.639	301.01
1179.907	297.64
1183.176	293.4
1186.444	293.43
1189.711	293.14
1192.979	291.98
1196.246	289.61
1199.513	291.05
1202.78	287.98
1206.046	287.93
1209.312	285
1212.578	285.42
1215.843	288.83
1219.108	286.98
1222.373	292.55
1225.638	294.88
1228.902	299.4
1232.166	299.68
1235.43	302.13
1238.693	306.25
1241.956	307.79
1245.219	312.88
1248.482	312.26
1251.744	311.75
1255.006	313.45
1258.268	305.03
1261.529	301.89
1264.79	299.79
1268.051	298.34
1271.312	294.73
1274.572	290.33
1277.832	287.58
1281.092	283.09
1284.351	281.35
1287.61	281.13
1290.869	277.05
1294.128	276
1297.386	275.53
1300.644	271.77
1303.902	272.44
1307.159	272.26
1310.416	272.68
1313.673	272
1316.93	274.33
1320.186	275.06
1323.442	275.2
1326.697	280.53
1329.953	281.47
1333.208	282.87
1336.463	286.39
1339.717	287.17
1342.972	289.43
1346.226	292.47
1349.479	293.22
1352.733	294.93
1355.986	296.03
1359.238	296.86
1362.491	297.72
1365.743	301.1
1368.995	300.81
1372.247	299.49
1375.498	299.71
1378.749	302.28
1382	298.6
1385.251	300.15
1388.501	298.84
1391.751	299.65
1395	298.41
1398.25	296.02
1401.499	294.52
1404.748	294.69
1407.996	293.82
1411.244	291.95
1414.492	290.6
1417.74	288.82
1420.987	283.71
1424.234	283.33
1427.481	279.55
1430.728	279.17
1433.974	276.56
1437.22	274.36
1440.465	273.66
1443.711	271.45
1446.956	269.74
1450.201	266.51
1453.445	263.38
1456.689	263.32
1459.933	258.23
1463.177	257.03
1466.42	252.79
1469.663	249.25
1472.906	247.34
1476.148	240.92
1479.391	237.9
1482.633	235.74
1485.874	232.04
1489.115	230.93
1492.356	227.53
1495.597	227.5
1498.838	223.09
1502.078	221.98
1505.318	221.28
1508.557	220.7
1511.797	220.44
1515.036	218.97
1518.274	217.87
1521.513	215.73
1524.751	215.63
1527.989	215.37
1531.227	213.82
1534.464	214.65
1537.701	213.05
1540.938	212.66
1544.174	209.83
1547.41	209.26
1550.646	208.27
1553.882	208.48
1557.117	205.9
1560.352	204.43
1563.587	203.42
1566.821	202.32
1570.055	199.99
1573.289	198.54
1576.523	198.11
1579.756	197.02
1582.989	195.87
1586.222	195.6
1589.454	194.2
1592.686	195.72
1595.918	194.73
1599.15	194.4
1602.381	194.29
1605.612	194.34
1608.843	195.09
1612.073	194.8
1615.303	195.99
1618.533	195.92
1621.762	195.36
1624.992	195.77
1628.221	195.45
1631.449	195.2
1634.678	193.95
1637.906	195.07
1641.134	195.05
1644.361	194.27
1647.588	195.07
1650.815	193.91
1654.042	193.14
1657.269	194.67
1660.495	194.47
1663.72	193.37
1666.946	194.52
1670.171	195.57
1673.396	195.28
1676.621	195.37
1679.845	195.72
1683.069	195.29
1686.293	196.61
1689.517	198.26
1692.74	197.55
1695.963	198.36
1699.185	200.84
1702.408	200.17
1705.63	201.24
1708.852	201.22
1712.073	201.92
1715.294	202.52
1718.515	203.87
1721.736	203.57
1724.956	203.79
1728.176	204.06
1731.396	206.02
1734.616	204.99
1737.835	206.41
1741.054	205.13
1744.272	206.49
1747.491	207.97
1750.709	208.24
1753.927	208.15
1757.144	207.74
1760.361	208.88
1763.578	209.06
1766.795	208.05
1770.011	209.84
1773.227	209.57
1776.443	212.25
1779.658	212.63
1782.874	212.26
1786.089	213.19
1789.303	213.82
1792.518	216.57
1795.732	216.51
1798.945	218.62
1802.159	218.96
1805.372	219.58
1808.585	223.11
1811.797	223.66
1815.01	224.33
1818.222	226.27
1821.434	227.54
1824.645	228.86
1827.856	232.25
1831.067	233.75
1834.278	233.17
1837.488	235.68
1840.698	236.95
1843.908	235.18
1847.117	236.58
1850.326	237.88
1853.535	237.49
1856.744	241.67
1859.952	240.75
1863.16	239.12
1866.368	237.74
1869.575	241.67
1872.782	236.95
1875.989	237.44
1879.196	236.18
1882.402	234.83
1885.608	236.07
1888.814	236.46
1892.019	235.1
1895.224	234.83
1898.429	234.2
1901.634	236.12
1904.838	235
1908.042	238.48
1911.246	238.52
1914.449	240.8
1917.652	241.04
1920.855	240.37
1924.058	240.26
1927.26	239.4
1930.462	240.68
1933.664	243.07
1936.865	241.07
1940.066	241.44
1943.267	240.03
1946.467	239.33
1949.668	240.92
1952.868	243.06
1956.067	243.31
1959.267	243.72
1962.466	244.83
1965.665	243.81
1968.863	243.98
1972.061	247.66
1975.259	249.85
1978.457	251.91
1981.654	254.51
1984.852	255.13
1988.048	254.73
1991.245	256.81
1994.441	259.76
1997.637	261.05
2000.833	267.01
2004.028	270.52
2007.223	271.19
2010.418	273.65
2013.613	278.79
2016.807	281.75
2020.001	283.69
2023.194	287.69
2026.388	294.03
2029.581	300.53
2032.774	303.99
2035.966	307.81
2039.158	308.67
2042.35	314.93
2045.542	316.74
2048.733	322.14
2051.924	326.4
2055.115	331.66
2058.306	332.8
2061.496	336.18
2064.686	335.95
2067.875	340.63
2071.065	343.95
2074.254	343.09
2077.442	346.46
2080.631	348.37
2083.819	350.34
2087.007	350.48
2090.195	355.97
2093.382	358.84
2096.569	356.64
2099.756	361.1
2102.942	363.11
2106.128	365.5
2109.314	372.79
2112.5	372.58
2115.685	381.56
2118.87	381.61
2122.055	389.28
2125.239	390.87
2128.424	395.95
2131.608	399.69
2134.791	406.68
2137.974	408.36
2141.157	408.9
2144.34	410.83
2147.523	416.93
2150.705	413.3
2153.887	416.84
2157.068	418.43
2160.25	414.52
2163.431	416.67
2166.611	420.33
2169.792	428.45
2172.972	432.91
2176.152	434.88
2179.331	440.64
2182.511	447.85
2185.69	452.72
2188.868	462.53
2192.047	462.99
2195.225	476.29
2198.403	488.56
2201.58	499.4
2204.758	506.62
2207.935	517.01
2211.111	526.65
2214.288	532.82
2217.464	533.95
2220.64	541.37
2223.815	548.08
2226.991	571.8
2230.166	573
2233.34	582.08
2236.515	588.34
2239.689	590.01
2242.863	592.91
2246.036	611.35
2249.209	607.45
2252.382	617.43
2255.555	636.77
2258.727	639.94
2261.9	642.69
2265.071	650.01
2268.243	659.1
2271.414	668.75
2274.585	685.19
2277.756	693.04
2280.926	696.7
2284.096	712.19
2287.266	729.77
2290.436	735.21
2293.605	752.51
2296.774	774.52
2299.942	798.85
2303.111	805.42
2306.279	824.71
2309.447	834.38
2312.614	854.5
2315.781	877.81
2318.948	921.9
2322.115	906.08
2325.281	955.49
2328.447	935.87
2331.613	976.91
2334.779	964.78
2337.944	1005.62
2341.109	1013.28
2344.274	1041.16
2347.438	1081.41
2350.602	1082.72
2353.766	1109.73
2356.929	1128.03
2360.092	1121.31
2363.255	1200.78
2366.418	1194.11
2369.58	1219.73
2372.742	1296.94
2375.904	1330.08
2379.066	1322.68
2382.227	1295.11
2385.388	1408.4
2388.548	1409.9
2391.709	1427.53
2394.869	1589.51
2398.029	1522.81
2401.188	1565.57
2404.347	1553.5
2407.506	1524.14
2410.665	1569.19
2413.823	1666.93
2416.981	1765.52
2420.139	1700.83
2423.296	1687.87
2426.453	1761.51
2429.61	1692.85
2432.767	1771.28
2435.923	1755.69
2439.079	1928.31
2442.235	1949.21
2445.391	1933.61
2448.546	1918
2451.701	1859.93
2454.855	1860.15
2458.009	1970.06
2461.163	2043.3
2464.317	2125.26
2467.471	2182.23
2470.624	2181.42
2473.777	2116.86
2476.929	2069.32
2480.082	2007.88
2483.234	1983.94
2486.385	2084.58
2489.537	2096.13
2492.688	2174.25
2495.839	2117.79
2498.989	2065.14
2502.14	2077.29
2505.29	2100.93
2508.439	2125.01
2511.589	2119.51
2514.738	2315.62
2517.887	2263.21
2521.035	2400.42
2524.183	2415.94
2527.331	2432.94
2530.479	2425.73
2533.627	2445.49
