Data from C_2_HIR_IL_4N_Splice17_13-13-14-886.txt Node
Date: Sat Mar 07 13:13:14 EST 2020
User: sa697716
Spectrometer: NQ5500242
Trigger mode: 0
Integration Time (sec): 1.450000E-1
Scans to average: 20
Nonlinearity correction enabled: false
Boxcar width: 5
Storing dark spectrum: false
XAxis mode: Wavelengths
Number of Pixels in Spectrum: 512
>>>>>Begin Spectral Data<<<<<
187.83	105.18
188.298	115.02
188.766	114.36
189.233	97.54
189.701	89.72
190.169	95.61
190.636	82.1
191.104	148.24
191.571	239.78
192.039	44.3
192.506	-134.37
192.974	-33.97
193.441	-39.71
193.908	47.96
194.375	48.32
194.842	1.62
195.31	-4.29
195.777	-175.2
196.244	41.5
196.711	49.97
197.177	51.1
197.644	49.56
198.111	49.54
198.578	49.31
199.045	48.64
199.511	48.75
199.978	48.65
200.445	48.93
200.911	49
201.378	49.05
201.844	48.74
202.31	48.28
202.777	48.33
203.243	48.46
203.709	48.37
204.176	48.09
204.642	47.62
205.108	47.69
205.574	47.13
206.04	46.48
206.506	45.71
206.972	45.41
207.438	45.25
207.903	44.69
208.369	43.73
208.835	42.96
209.301	42.33
209.766	41.1
210.232	39.83
210.697	38.94
211.163	38.32
211.628	37.78
212.094	37
212.559	36.23
213.024	35.49
213.49	34.85
213.955	33.98
214.42	33.34
214.885	32.69
215.35	31.67
215.815	30.39
216.28	28.52
216.745	26.55
217.21	24.54
217.675	22.64
218.14	21.13
218.604	19.74
219.069	18.6
219.534	17.65
219.998	16.84
220.463	16.19
220.927	15.57
221.392	15.11
221.856	14.71
222.32	14.36
222.785	14.08
223.249	13.76
223.713	13.52
224.177	13.31
224.642	13.07
225.106	12.83
225.57	12.59
226.034	12.41
226.497	12.21
226.961	12.02
227.425	11.86
227.889	11.69
228.353	11.53
228.816	11.36
229.28	11.19
229.744	11.04
230.207	10.91
230.671	10.77
231.134	10.63
231.597	10.51
232.061	10.39
232.524	10.25
232.987	10.13
233.45	10.03
233.914	9.92
234.377	9.8
234.84	9.69
235.303	9.6
235.766	9.51
236.229	9.4
236.691	9.29
237.154	9.21
237.617	9.13
238.08	9.04
238.542	8.95
239.005	8.88
239.468	8.8
239.93	8.73
240.393	8.65
240.855	8.56
241.317	8.48
241.78	8.41
242.242	8.32
242.704	8.24
243.166	8.17
243.629	8.1
244.091	8.01
244.553	7.94
245.015	7.87
245.477	7.8
245.939	7.74
246.4	7.68
246.862	7.62
247.324	7.57
247.786	7.51
248.247	7.45
248.709	7.37
249.17	7.31
249.632	7.26
250.093	7.22
250.555	7.16
251.016	7.11
251.477	7.06
251.939	7.02
252.4	6.97
252.861	6.93
253.322	6.9
253.783	6.88
254.244	6.85
254.705	6.8
255.166	6.76
255.627	6.72
256.088	6.7
256.549	6.67
257.009	6.64
257.47	6.6
257.931	6.57
258.391	6.52
258.852	6.48
259.312	6.44
259.773	6.41
260.233	6.39
260.694	6.36
261.154	6.33
261.614	6.3
262.074	6.26
262.534	6.24
262.994	6.22
263.455	6.19
263.915	6.16
264.374	6.15
264.834	6.13
265.294	6.1
265.754	6.08
266.214	6.06
266.673	6.05
267.133	6.03
267.593	6.02
268.052	6
268.512	6
268.971	5.99
269.431	5.98
269.89	5.97
270.349	5.96
270.809	5.94
271.268	5.94
271.727	5.92
272.186	5.91
272.645	5.9
273.104	5.88
273.563	5.87
274.022	5.86
274.481	5.85
274.94	5.84
275.399	5.83
275.857	5.83
276.316	5.82
276.775	5.81
277.233	5.81
277.692	5.79
278.15	5.79
278.609	5.78
279.067	5.77
279.525	5.76
279.984	5.76
280.442	5.74
280.9	5.74
281.358	5.73
281.816	5.72
282.274	5.71
282.732	5.71
283.19	5.7
283.648	5.69
284.106	5.68
284.564	5.67
285.021	5.66
285.479	5.65
285.937	5.64
286.394	5.63
286.852	5.62
287.309	5.61
287.767	5.59
288.224	5.57
288.682	5.56
289.139	5.54
289.596	5.52
290.053	5.5
290.511	5.48
290.968	5.46
291.425	5.45
291.882	5.43
292.339	5.42
292.796	5.41
293.252	5.4
293.709	5.39
294.166	5.39
294.623	5.38
295.079	5.38
295.536	5.37
295.992	5.36
296.449	5.36
296.905	5.35
297.362	5.35
297.818	5.34
298.274	5.34
298.731	5.33
299.187	5.32
299.643	5.31
300.099	5.31
300.555	5.31
301.011	5.31
301.467	5.31
301.923	5.3
302.379	5.29
302.835	5.29
303.291	5.28
303.746	5.28
304.202	5.27
304.658	5.27
305.113	5.27
305.569	5.26
306.024	5.26
306.479	5.25
306.935	5.24
307.39	5.24
307.845	5.25
308.301	5.25
308.756	5.25
309.211	5.26
309.666	5.27
310.121	5.26
310.576	5.27
311.031	5.27
311.486	5.27
311.94	5.28
312.395	5.28
312.85	5.27
313.305	5.26
313.759	5.26
314.214	5.25
314.668	5.24
315.123	5.24
315.577	5.24
316.032	5.23
316.486	5.22
316.94	5.2
317.394	5.19
317.849	5.18
318.303	5.17
318.757	5.16
319.211	5.15
319.665	5.13
320.119	5.11
320.572	5.1
321.026	5.09
321.48	5.07
321.934	5.06
322.387	5.05
322.841	5.05
323.295	5.05
323.748	5.05
324.202	5.04
324.655	5.04
325.108	5.04
325.562	5.05
326.015	5.04
326.468	5.04
326.921	5.04
327.374	5.04
327.827	5.04
328.28	5.03
328.733	5.04
329.186	5.04
329.639	5.03
330.092	5.03
330.545	5.03
330.997	5.02
331.45	5.03
331.903	5.03
332.355	5.03
332.808	5.03
333.26	5.02
333.713	5.01
334.165	5.01
334.617	5.02
335.069	5.01
335.522	5.01
335.974	5.02
336.426	5.01
336.878	5
337.33	5
337.782	5
338.234	4.99
338.686	4.99
339.137	4.99
339.589	4.96
340.041	4.96
340.493	4.94
340.944	4.92
341.396	4.91
341.847	4.9
342.299	4.88
342.75	4.87
343.201	4.86
343.653	4.84
344.104	4.82
344.555	4.81
345.006	4.8
345.457	4.8
345.908	4.78
346.359	4.78
346.81	4.77
347.261	4.76
347.712	4.75
348.163	4.73
348.613	4.73
349.064	4.74
349.515	4.73
349.965	4.72
350.416	4.71
350.866	4.71
351.317	4.7
351.767	4.7
352.217	4.69
352.668	4.69
353.118	4.7
353.568	4.69
354.018	4.69
354.468	4.7
354.918	4.71
355.368	4.72
355.818	4.72
356.268	4.71
356.718	4.72
357.168	4.71
357.617	4.71
358.067	4.71
358.517	4.71
358.966	4.71
359.416	4.71
359.865	4.69
360.315	4.7
360.764	4.7
361.213	4.71
361.663	4.7
362.112	4.71
362.561	4.71
363.01	4.73
363.459	4.72
363.908	4.73
364.357	4.75
364.806	4.74
365.255	4.74
365.703	4.76
366.152	4.78
366.601	4.81
367.05	4.82
367.498	4.83
367.947	4.85
368.395	4.88
368.844	4.9
369.292	4.92
369.74	4.97
370.189	5.01
370.637	5.03
371.085	5.06
371.533	5.11
371.981	5.15
372.429	5.21
372.877	5.27
373.325	5.33
373.773	5.39
374.221	5.46
374.669	5.54
375.116	5.61
375.564	5.71
376.012	5.81
376.459	5.91
376.907	6.03
377.354	6.14
377.801	6.27
378.249	6.41
378.696	6.55
379.143	6.7
379.591	6.85
380.038	7
380.485	7.17
380.932	7.33
381.379	7.51
381.826	7.69
382.273	7.87
382.72	8.04
383.166	8.22
383.613	8.41
384.06	8.59
384.506	8.78
384.953	8.98
385.4	9.17
385.846	9.37
386.292	9.56
386.739	9.74
387.185	9.93
387.631	10.13
388.078	10.32
388.524	10.49
388.97	10.68
389.416	10.86
389.862	11.03
390.308	11.19
390.754	11.36
391.2	11.5
391.645	11.65
392.091	11.82
392.537	11.96
392.983	12.1
393.428	12.25
393.874	12.36
394.319	12.48
394.765	12.59
395.21	12.69
395.655	12.77
396.101	12.88
396.546	12.96
396.991	13.03
397.436	13.1
397.881	13.17
398.326	13.24
398.771	13.3
399.216	13.36
399.661	13.41
400.106	13.44
400.551	13.46
400.995	13.47
401.44	13.47
401.885	13.48
402.329	13.49
402.774	13.51
403.218	13.54
403.663	13.54
404.107	13.53
404.551	13.51
404.995	13.51
405.44	13.5
405.884	13.5
406.328	13.5
406.772	13.46
407.216	13.44
407.66	13.4
408.104	13.34
408.547	13.31
408.991	13.29
409.435	13.28
409.879	13.27
410.322	13.26
410.766	13.24
411.209	13.24
411.653	13.24
412.096	13.22
412.54	13.21
412.983	13.21
413.426	13.21
413.869	13.2
414.312	13.18
414.756	13.15
415.199	13.12
415.642	13.1
416.085	13.05
416.527	13.01
416.97	12.96
417.413	12.91
417.856	12.88
418.298	12.83
418.741	12.79
419.184	12.76
419.626	12.73
420.069	12.71
420.511	12.68
420.953	12.66
421.396	12.64
421.838	12.65
422.28	12.64
422.722	12.63
423.164	12.61
423.606	12.59
424.048	12.57
424.49	12.54
424.932	12.51
425.374	12.46
425.816	12.41
426.258	12.37
426.699	12.34
427.141	12.31
427.582	12.28
428.024	12.28
428.465	12.26
428.907	12.24
429.348	12.22
429.789	12.22
430.231	12.25
430.672	12.29
431.113	12.31
431.554	12.32
431.995	12.32
432.436	12.34
432.877	12.35
433.318	12.38
433.759	12.41
434.2	12.45
434.64	12.48
435.081	12.5
435.522	12.52
435.962	12.54
436.403	12.6
436.843	12.63
437.284	12.64
437.724	12.67
438.164	12.69
438.604	12.72
439.045	12.76
439.485	12.79
439.925	12.83
440.365	12.86
440.805	12.89
441.245	12.93
441.685	13
442.125	13.06
442.564	13.12
443.004	13.17
443.444	13.25
443.883	13.31
444.323	13.36
444.762	13.41
445.202	13.5
445.641	13.57
446.081	13.65
446.52	13.71
446.959	13.79
447.398	13.86
447.837	13.94
448.276	14
448.716	14.08
449.154	14.17
449.593	14.26
450.032	14.32
450.471	14.39
450.91	14.44
451.349	14.51
451.787	14.58
452.226	14.62
452.664	14.69
453.103	14.74
453.541	14.79
453.98	14.85
454.418	14.9
454.856	14.94
455.295	14.96
455.733	14.99
456.171	15.03
456.609	15.07
457.047	15.12
457.485	15.14
457.923	15.2
458.361	15.26
458.798	15.3
459.236	15.34
459.674	15.39
460.111	15.45
460.549	15.52
460.987	15.57
461.424	15.62
461.862	15.65
462.299	15.7
462.736	15.72
463.173	15.73
463.611	15.76
464.048	15.79
464.485	15.8
464.922	15.82
465.359	15.83
465.796	15.85
466.233	15.85
466.67	15.86
467.106	15.86
467.543	15.85
467.98	15.84
468.416	15.83
468.853	15.83
469.29	15.83
469.726	15.81
470.162	15.77
470.599	15.75
471.035	15.72
471.471	15.69
471.907	15.66
472.344	15.66
472.78	15.65
473.216	15.61
473.652	15.59
474.088	15.55
474.523	15.55
474.959	15.54
475.395	15.51
475.831	15.49
476.266	15.48
476.702	15.49
477.138	15.48
477.573	15.47
478.008	15.48
478.444	15.49
478.879	15.52
479.314	15.53
479.75	15.55
480.185	15.56
480.62	15.59
481.055	15.63
481.49	15.66
481.925	15.7
482.36	15.76
482.795	15.81
483.229	15.88
483.664	15.95
484.099	16.02
484.534	16.11
484.968	16.22
485.403	16.3
485.837	16.42
486.271	16.54
486.706	16.67
487.14	16.8
487.574	16.94
488.009	17.11
488.443	17.26
488.877	17.43
489.311	17.6
489.745	17.78
490.179	17.99
490.613	18.2
491.046	18.4
491.48	18.62
491.914	18.86
492.348	19.09
492.781	19.33
493.215	19.58
493.648	19.83
494.082	20.09
494.515	20.34
494.948	20.62
495.382	20.89
495.815	21.17
496.248	21.46
496.681	21.75
497.114	22.05
497.547	22.34
497.98	22.65
498.413	22.96
498.846	23.28
499.279	23.61
499.711	23.93
500.144	24.27
500.577	24.6
501.009	24.94
501.442	25.28
501.874	25.62
502.306	25.97
502.739	26.33
503.171	26.68
503.603	27.05
504.036	27.42
504.468	27.79
504.9	28.16
505.332	28.52
505.764	28.9
506.196	29.28
506.627	29.66
507.059	30.06
507.491	30.42
507.923	30.82
508.354	31.22
508.786	31.59
509.217	32
509.649	32.4
510.08	32.78
510.512	33.18
510.943	33.56
511.374	33.94
511.805	34.3
512.237	34.67
512.668	35.03
513.099	35.38
513.53	35.74
513.961	36.08
514.391	36.42
514.822	36.77
515.253	37.08
515.684	37.41
516.114	37.71
516.545	38.03
516.975	38.35
517.406	38.65
517.836	38.96
518.267	39.25
518.697	39.53
519.127	39.79
519.558	40.06
519.988	40.31
520.418	40.55
520.848	40.81
521.278	41.05
521.708	41.44
522.138	41.65
522.567	41.86
522.997	42.07
523.427	42.27
523.857	42.47
524.286	42.64
524.716	42.84
525.145	43.02
525.575	43.19
526.004	43.34
526.433	43.34
526.863	43.49
527.292	43.62
527.721	43.75
528.15	43.88
528.579	44.01
529.008	44.13
529.437	44.23
529.866	44.34
530.295	44.45
530.724	44.58
531.152	44.68
531.581	44.79
532.01	44.9
532.438	45.01
532.867	45.11
533.295	45.19
533.723	45.29
534.152	45.39
534.58	45.49
535.008	45.53
535.436	45.6
535.865	45.67
536.293	45.72
536.721	45.78
537.149	45.84
537.576	45.87
538.004	45.93
538.432	45.96
538.86	45.99
539.287	46.03
539.715	46.11
540.143	46.15
540.57	46.18
540.998	46.23
541.425	46.26
541.852	46.29
542.28	46.33
542.707	46.36
543.134	46.4
543.561	46.44
543.988	46.45
544.415	46.46
544.842	46.47
545.269	46.51
545.696	46.51
546.123	46.51
546.549	46.53
546.976	46.55
547.403	46.56
547.829	46.58
548.256	46.59
548.682	46.61
549.108	46.63
549.535	46.66
549.961	46.65
550.387	46.67
550.813	46.7
551.24	46.72
551.666	46.71
552.092	46.73
552.518	46.73
552.943	46.73
553.369	46.71
553.795	46.7
554.221	46.68
554.646	46.68
555.072	46.67
555.498	46.66
555.923	46.63
556.349	46.63
556.774	46.58
557.199	46.55
557.625	46.5
558.05	46.48
558.475	46.45
558.9	46.42
559.325	46.4
559.75	46.34
560.175	46.3
560.6	46.24
561.025	46.17
561.449	46.13
561.874	46.06
562.299	46.03
562.723	45.95
563.148	45.87
563.572	45.78
563.997	45.7
564.421	45.61
564.846	45.52
565.27	45.44
565.694	45.36
566.118	45.28
566.542	45.21
566.966	45.1
567.39	45.03
567.814	44.94
568.238	44.85
568.662	44.78
569.086	44.71
569.509	44.62
569.933	44.55
570.357	44.45
570.78	44.36
571.204	44.28
571.627	44.2
572.05	44.12
572.474	44.07
572.897	44
573.32	43.91
573.743	43.82
574.166	43.75
574.589	43.66
575.012	43.59
575.435	43.51
575.858	43.44
576.281	43.36
576.704	43.29
577.126	43.2
577.549	43.13
577.972	43.06
578.394	42.97
578.817	42.9
579.239	42.84
579.661	42.79
580.084	42.72
580.506	42.64
580.928	42.59
581.35	42.53
581.772	42.47
582.194	42.41
582.616	42.37
583.038	42.32
583.46	42.26
583.882	42.21
584.303	42.15
584.725	42.1
585.147	42.06
585.568	42
585.99	41.94
586.411	41.88
586.833	41.83
587.254	41.76
587.675	41.71
588.096	41.66
588.518	41.62
588.939	41.59
589.36	41.52
589.781	41.48
590.202	41.44
590.623	41.39
591.043	41.33
591.464	41.29
591.885	41.24
592.305	41.21
592.726	41.18
593.147	41.11
593.567	41.06
593.987	41.03
594.408	40.98
594.828	40.93
595.248	40.9
595.669	40.86
596.089	40.81
596.509	40.79
596.929	40.74
597.349	40.68
597.769	40.66
598.189	40.6
598.608	40.56
599.028	40.54
599.448	40.5
599.867	40.45
600.287	40.42
600.706	40.39
601.126	40.32
601.545	40.28
601.965	40.24
602.384	40.2
602.803	40.17
603.222	40.12
603.641	40.07
604.061	40.04
604.48	39.99
604.898	39.93
605.317	39.88
605.736	39.84
606.155	39.79
606.574	39.73
606.992	39.65
607.411	39.6
607.829	39.52
608.248	39.46
608.666	39.39
609.085	39.34
609.503	39.3
609.921	39.23
610.339	39.15
610.758	39.1
611.176	39.03
611.594	38.98
612.012	38.91
612.43	38.83
612.847	38.76
613.265	38.68
613.683	38.61
614.101	38.52
614.518	38.44
614.936	38.36
615.353	38.26
615.771	38.2
616.188	38.12
616.606	38.06
617.023	38.01
617.44	37.96
617.857	37.9
618.274	37.82
618.691	37.77
619.108	37.72
619.525	37.68
619.942	37.66
620.359	37.61
620.776	37.58
621.192	37.54
621.609	37.52
622.026	37.48
622.442	37.46
622.859	37.45
623.275	37.41
623.691	37.39
624.108	37.38
624.524	37.36
624.94	37.36
625.356	37.35
625.772	37.35
626.188	37.33
626.604	37.32
627.02	37.32
627.436	37.32
627.852	37.33
628.268	37.32
628.683	37.3
629.099	37.28
629.514	37.25
629.93	37.23
630.345	37.2
630.761	37.15
631.176	37.13
631.591	37.08
632.007	37.03
632.422	36.95
632.837	36.89
633.252	36.79
633.667	36.7
634.082	36.59
634.497	36.48
634.911	36.35
635.326	36.23
635.741	36.07
636.155	35.9
636.57	35.72
636.984	35.56
637.399	35.37
637.813	35.19
638.228	34.98
638.642	34.76
639.056	34.53
639.47	34.32
639.884	34.06
640.298	33.82
640.712	33.57
641.126	33.31
641.54	33.04
641.954	32.78
642.368	32.53
642.781	32.28
643.195	32.05
643.609	31.81
644.022	31.56
644.436	31.34
644.849	31.11
645.262	30.9
645.676	30.7
646.089	30.52
646.502	30.34
646.915	30.17
647.328	30.02
647.741	29.85
648.154	29.71
648.567	29.58
648.98	29.46
649.393	29.35
649.805	29.26
650.218	29.17
650.631	29.09
651.043	28.99
651.456	28.91
651.868	28.82
652.28	28.77
652.693	28.69
653.105	28.62
653.517	28.54
653.929	28.47
654.341	28.36
654.753	28.25
655.165	28.15
655.577	28.03
655.989	27.91
656.401	27.77
656.813	27.63
657.224	27.46
657.636	27.28
658.047	27.1
658.459	26.9
658.87	26.71
659.282	26.52
659.693	26.3
660.104	26.08
660.515	25.84
660.926	25.61
661.338	25.36
661.749	25.12
662.159	24.89
662.57	24.67
662.981	24.44
663.392	24.2
663.803	23.97
664.213	23.75
664.624	23.55
665.035	23.34
665.445	23.14
665.855	22.95
666.266	22.79
666.676	22.63
667.086	22.45
667.497	22.31
667.907	22.18
668.317	22.05
668.727	21.92
669.137	21.81
669.547	21.73
669.956	21.65
670.366	21.59
670.776	21.52
671.186	21.47
671.595	21.42
672.005	21.37
672.414	21.35
672.824	21.33
673.233	21.32
673.642	21.33
674.052	21.34
674.461	21.36
674.87	21.38
675.279	21.44
675.688	21.5
676.097	21.59
676.506	21.7
676.915	21.82
677.323	21.95
677.732	22.1
678.141	22.28
678.549	22.47
678.958	22.7
679.366	22.98
679.775	23.24
680.183	23.56
680.592	23.93
681	24.32
681.408	24.73
681.816	25.18
682.224	25.67
682.632	26.19
683.04	26.75
683.448	27.34
683.856	27.93
684.264	28.57
684.671	29.21
685.079	29.87
685.487	30.56
685.894	31.28
686.302	32
686.709	32.72
687.116	33.43
687.524	34.15
687.931	34.87
688.338	35.59
688.745	36.33
689.152	37.03
689.559	37.74
689.966	38.44
690.373	39.09
690.78	39.76
691.187	40.42
691.593	41.05
692	41.67
692.407	42.25
692.813	42.82
693.22	43.35
693.626	43.87
694.032	44.38
694.439	44.84
694.845	45.3
695.251	45.74
695.657	46.14
696.063	46.55
696.469	46.92
696.875	47.3
697.281	47.65
697.687	48.01
698.093	48.33
698.498	48.64
698.904	48.97
699.31	49.26
699.715	49.55
700.12	49.83
700.526	50.08
700.931	50.33
701.337	50.57
701.742	50.79
702.147	51
702.552	51.22
702.957	51.38
703.362	51.55
703.767	51.71
704.172	51.87
704.577	52.02
704.981	52.2
705.386	52.34
705.791	52.49
706.195	52.65
706.6	52.79
707.004	52.93
707.408	53.09
707.813	53.24
708.217	53.38
708.621	53.51
709.025	53.62
709.43	53.72
709.834	53.85
710.237	53.94
710.641	54.03
711.045	54.14
711.449	54.24
711.853	54.33
712.256	54.41
712.66	54.5
713.064	54.57
713.467	54.67
713.87	54.77
714.274	54.84
714.677	54.93
715.08	54.99
715.484	55.04
715.887	55.13
716.29	55.2
716.693	55.27
717.096	55.34
717.499	55.43
717.901	55.49
718.304	55.53
718.707	55.58
719.109	55.65
719.512	55.72
719.915	55.79
720.317	55.81
720.719	55.82
721.122	55.88
721.524	55.95
721.926	55.97
722.328	56.03
722.731	56.07
723.133	56.14
723.535	56.18
723.937	56.24
724.338	56.27
724.74	56.32
725.142	56.46
725.544	56.46
725.945	56.49
726.347	56.5
726.748	56.52
727.15	56.53
727.551	56.55
727.952	56.56
728.354	56.56
728.755	56.55
729.156	56.57
729.557	56.49
729.958	56.53
730.359	56.53
730.76	56.59
731.161	56.62
731.562	56.66
731.962	56.64
732.363	56.68
732.763	56.69
733.164	56.7
733.564	56.71
733.965	56.72
734.365	56.74
734.766	56.75
735.166	56.74
735.566	56.75
735.966	56.77
736.366	56.79
736.766	56.77
737.166	56.8
737.566	56.81
737.966	56.82
738.365	56.83
738.765	56.84
739.165	56.84
739.564	56.86
739.964	56.85
740.363	56.84
740.763	56.84
741.162	56.86
741.561	56.83
741.96	56.83
742.36	56.85
742.759	56.84
743.158	56.82
743.557	56.8
743.955	56.79
744.354	56.78
744.753	56.79
745.152	56.79
745.55	56.79
745.949	56.82
746.348	56.84
746.746	56.83
747.144	56.86
747.543	56.85
747.941	56.88
748.339	56.87
748.737	56.87
749.136	56.84
749.534	56.78
749.932	56.78
750.33	56.74
750.727	56.71
751.125	56.71
751.523	56.69
751.921	56.7
752.318	56.68
752.716	56.66
753.113	56.66
753.511	56.68
753.908	56.73
754.305	56.73
754.703	56.71
755.1	56.73
755.497	56.72
755.894	56.71
756.291	56.69
756.688	56.67
757.085	56.69
757.482	56.7
757.878	56.68
758.275	56.67
758.672	56.69
759.068	56.72
759.465	56.7
759.861	56.72
760.258	56.75
760.654	56.77
761.05	56.81
761.447	56.8
761.843	56.79
762.239	56.82
762.635	56.8
763.031	56.77
763.427	56.73
763.822	56.75
764.218	56.72
764.614	56.68
765.01	56.6
765.405	56.58
765.801	56.57
766.196	56.56
766.592	56.5
766.987	56.5
767.382	56.47
767.778	56.47
768.173	56.43
768.568	56.42
768.963	56.43
769.358	56.46
769.753	56.45
770.148	56.46
770.542	56.43
770.937	56.46
771.332	56.45
771.726	56.47
772.121	56.45
772.515	56.46
772.91	56.43
773.304	56.45
773.699	56.43
774.093	56.4
774.487	56.37
774.881	56.4
775.275	56.38
775.669	56.33
776.063	56.31
776.457	56.32
776.851	56.3
777.245	56.29
777.638	56.27
778.032	56.28
778.425	56.32
778.819	56.31
779.212	56.3
779.606	56.31
779.999	56.34
780.392	56.36
780.786	56.37
781.179	56.38
781.572	56.43
781.965	56.44
782.358	56.45
782.751	56.43
783.143	56.46
783.536	56.46
783.929	56.43
784.322	56.44
784.714	56.43
785.107	56.44
785.499	56.44
785.891	56.41
786.284	56.4
786.676	56.39
787.068	56.38
787.46	56.38
787.852	56.38
788.245	56.4
788.636	56.38
789.028	56.39
789.42	56.37
789.812	56.39
790.204	56.39
790.595	56.39
790.987	56.39
791.378	56.42
791.77	56.43
792.161	56.42
792.553	56.42
792.944	56.4
793.335	56.41
793.726	56.43
794.117	56.39
794.508	56.36
794.899	56.35
795.29	56.34
795.681	56.32
796.072	56.27
796.463	56.3
796.853	56.31
797.244	56.33
797.634	56.33
798.025	56.36
798.415	56.37
798.806	56.37
799.196	56.4
799.586	56.41
799.976	56.42
800.366	56.47
800.756	56.45
801.146	56.44
801.536	56.45
801.926	56.44
802.316	56.43
802.706	56.45
803.095	56.47
803.485	56.46
803.874	56.44
804.264	56.43
804.653	56.42
805.043	56.41
805.432	56.37
805.821	56.36
806.21	56.36
806.599	56.37
806.988	56.33
807.377	56.33
807.766	56.31
808.155	56.31
808.544	56.3
808.933	56.27
809.321	56.26
809.71	56.28
810.098	56.28
810.487	56.24
810.875	56.23
811.264	56.23
811.652	56.26
812.04	56.25
812.428	56.28
812.816	56.28
813.204	56.28
813.592	56.24
813.98	56.26
814.368	56.25
814.756	56.24
815.144	56.22
815.531	56.2
815.919	56.18
816.306	56.19
816.694	56.17
817.081	56.18
817.469	56.19
817.856	56.22
818.243	56.16
818.63	56.18
819.017	56.2
819.404	56.18
819.791	56.19
820.178	56.2
820.565	56.19
820.952	56.15
821.339	56.11
821.725	56.13
822.112	56.12
822.498	56.15
822.885	56.16
823.271	56.14
823.657	56.16
824.044	56.15
824.43	56.16
824.816	56.16
825.202	56.15
825.588	56.17
825.974	56.13
826.36	56.15
826.746	56.14
827.132	56.13
827.517	56.15
827.903	56.15
828.289	56.15
828.674	56.14
829.06	56.12
829.445	56.12
829.83	56.11
830.216	56.13
830.601	56.1
830.986	56.12
831.371	56.09
831.756	56.11
832.141	56.08
832.526	56.11
832.911	56.08
833.295	56.09
833.68	56.11
834.065	56.14
834.449	56.13
834.834	56.13
835.218	56.14
835.603	56.16
835.987	56.12
836.371	56.14
836.755	56.09
837.139	56.09
837.524	56.09
837.908	56.1
838.291	56.09
838.675	56.09
839.059	56.1
839.443	56.06
839.827	56.02
840.21	55.99
840.594	55.98
840.977	55.98
841.361	56
841.744	55.99
842.127	55.95
842.511	55.92
842.894	55.89
843.277	55.87
843.66	55.85
844.043	55.89
844.426	55.91
844.809	55.92
845.191	55.92
845.574	55.91
845.957	55.9
846.339	55.91
846.722	55.91
847.104	55.94
847.487	55.94
847.869	55.95
848.252	55.94
848.634	55.96
849.016	55.96
849.398	55.97
849.78	55.96
850.162	55.96
850.544	55.95
850.926	55.94
851.307	55.93
851.689	55.93
852.071	55.94
852.452	55.95
852.834	55.96
853.215	55.94
853.597	55.93
853.978	55.91
854.359	55.91
854.741	55.92
855.122	55.92
855.503	55.93
855.884	55.93
856.265	55.93
856.646	55.88
857.026	55.87
857.407	55.89
857.788	55.89
858.169	55.92
858.549	55.9
858.93	55.93
859.31	55.92
859.69	55.92
860.071	55.93
860.451	55.91
860.831	55.91
861.211	55.89
861.591	55.86
861.971	55.84
862.351	55.84
862.731	55.84
863.111	55.79
863.491	55.79
863.87	55.77
864.25	55.76
864.629	55.77
865.009	55.77
865.388	55.76
865.768	55.76
866.147	55.76
866.526	55.73
866.905	55.74
867.284	55.76
867.663	55.77
868.042	55.78
868.421	55.81
868.8	55.81
869.179	55.82
869.558	55.83
869.936	55.83
870.315	55.81
870.693	55.82
871.072	55.85
871.45	55.85
871.828	55.85
872.207	55.87
872.585	55.83
872.963	55.81
873.341	55.79
873.719	55.79
874.097	55.78
874.475	55.8
874.853	55.82
875.23	55.83
875.608	55.84
875.986	55.86
876.363	55.84
876.741	55.85
877.118	55.87
877.495	55.9
877.873	55.94
878.25	55.99
878.627	56
879.004	55.99
879.381	56
879.758	55.96
880.135	55.94
880.512	55.91
880.889	55.9
881.265	55.85
881.642	55.82
882.019	55.77
882.395	55.71
882.772	55.69
883.148	55.64
883.524	55.6
883.901	55.58
884.277	55.56
884.653	55.54
885.029	55.52
885.405	55.55
885.781	55.55
886.157	55.56
886.532	55.56
886.908	55.54
887.284	55.56
887.659	55.55
888.035	55.53
888.411	55.54
888.786	55.56
889.161	55.56
889.537	55.55
889.912	55.55
890.287	55.53
890.662	55.51
891.037	55.51
891.412	55.49
891.787	55.48
892.162	55.49
892.536	55.48
892.911	55.46
893.286	55.47
893.66	55.48
894.035	55.48
894.409	55.45
894.784	55.45
895.158	55.45
895.532	55.45
895.906	55.44
896.281	55.44
896.655	55.42
897.029	55.42
897.402	55.4
897.776	55.38
898.15	55.38
898.524	55.43
898.898	55.43
899.271	55.46
899.645	55.49
900.018	55.52
900.392	55.54
900.765	55.56
901.138	55.58
901.511	55.59
901.884	55.63
902.258	55.63
902.631	55.62
903.003	55.63
903.376	55.61
903.749	55.6
904.122	55.62
904.495	55.62
904.867	55.65
905.24	55.66
905.612	55.67
905.985	55.64
906.357	55.65
906.729	55.66
907.102	55.67
907.474	55.68
907.846	55.66
908.218	55.62
908.59	55.62
908.962	55.6
909.334	55.6
909.705	55.61
910.077	55.6
910.449	55.57
910.82	55.57
911.192	55.58
911.563	55.58
911.935	55.57
912.306	55.59
912.677	55.59
913.048	55.61
913.419	55.57
913.79	55.56
914.161	55.59
914.532	55.6
914.903	55.62
915.274	55.59
915.645	55.57
916.015	55.59
916.386	55.61
916.756	55.6
917.127	55.59
917.497	55.62
917.868	55.63
918.238	55.61
918.608	55.62
918.978	55.59
919.348	55.63
919.718	55.65
920.088	55.66
920.458	55.66
920.828	55.66
921.198	55.64
921.567	55.65
921.937	55.63
922.306	55.64
922.676	55.67
923.045	55.68
923.415	55.64
923.784	55.66
924.153	55.65
924.522	55.63
924.891	55.62
925.26	55.63
925.629	55.62
925.998	55.62
926.367	55.6
926.736	55.57
927.104	55.56
927.473	55.54
927.842	55.5
928.21	55.5
928.578	55.48
928.947	55.46
929.315	55.42
929.683	55.41
930.051	55.36
930.42	55.36
930.788	55.34
931.156	55.32
931.523	55.31
931.891	55.33
932.259	55.33
932.627	55.34
932.994	55.37
933.362	55.36
933.729	55.37
934.097	55.36
934.464	55.35
934.831	55.36
935.199	55.37
935.566	55.37
935.933	55.28
936.3	55.24
936.667	55.22
937.034	55.2
937.401	55.23
937.767	55.19
938.134	55.24
938.501	55.23
938.867	55.25
939.234	55.23
939.6	55.23
939.967	55.27
940.333	55.27
940.699	55.26
941.065	55.22
941.431	55.18
941.798	55.15
942.163	55.11
942.529	55.1
942.895	55.01
943.261	54.97
943.627	54.94
943.992	54.94
944.358	54.89
944.723	54.82
945.089	54.73
945.454	54.78
945.82	54.75
946.185	54.75
946.55	54.65
946.915	54.62
947.28	54.55
947.645	54.57
948.01	54.59
948.375	54.58
948.74	54.62
949.104	54.69
949.469	54.64
949.834	54.61
950.198	54.6
950.562	54.62
950.927	54.65
951.291	54.62
951.655	54.55
952.02	54.49
952.384	54.46
952.748	54.44
953.112	54.43
953.476	54.37
953.839	54.37
954.203	54.33
954.567	54.31
954.931	54.25
955.294	54.22
955.658	54.27
956.021	54.23
956.385	54.22
956.748	54.17
957.111	54.08
957.474	54.09
957.837	54.05
958.2	54.06
958.563	54.07
958.926	54.08
959.289	54.06
959.652	53.99
960.015	53.96
960.377	53.95
960.74	54
961.102	54.05
961.465	54.09
961.827	54.12
962.189	54.1
962.552	54.06
962.914	54.03
963.276	54.1
963.638	54.15
964	54.18
964.362	54.22
964.724	54.18
965.085	54.19
965.447	54.15
965.809	54.11
966.17	54.11
966.532	54.14
966.893	54.15
967.255	54.13
967.616	54.07
967.977	54.07
968.338	54.08
968.699	54.12
969.061	54.08
969.421	54.12
969.782	54.15
970.143	54.18
970.504	54.17
970.865	54.2
971.225	54.18
971.586	54.22
971.946	54.23
972.307	54.17
972.667	54.08
973.027	54.13
973.388	54.14
973.748	54.17
974.108	54.18
974.468	54.14
974.828	54.15
975.188	54.18
975.548	54.19
975.907	54.23
976.267	54.24
976.627	54.31
976.986	54.27
977.346	54.18
977.705	54.13
978.064	54.12
978.424	54.18
978.783	54.12
979.142	54.13
979.501	54.12
979.86	54.12
980.219	54.1
980.578	54.13
980.937	54.19
981.296	54.25
981.654	54.25
982.013	54.27
982.371	54.23
982.73	54.25
983.088	54.22
983.447	54.24
983.805	54.17
984.163	54.13
984.521	54.08
984.879	53.98
985.237	53.98
985.595	54.08
985.953	54.06
986.311	54.02
986.669	54.04
987.026	54.05
987.384	54.02
987.741	53.97
988.099	54.08
988.456	54.06
988.814	54.1
989.171	54.07
989.528	53.97
989.885	54.02
990.242	54.11
990.599	54.11
990.956	54.21
991.313	54.22
991.67	54.28
992.027	54.32
992.383	54.31
992.74	54.43
993.096	54.41
993.453	54.47
993.809	54.4
994.165	54.35
994.522	54.44
994.878	54.41
995.234	54.47
995.59	54.53
995.946	54.52
996.302	54.56
996.658	54.5
997.013	54.47
997.369	54.43
997.725	54.53
998.08	54.71
998.436	54.66
998.791	54.68
999.147	54.63
999.502	54.63
999.857	54.58
1000.212	54.58
1000.567	54.52
1000.922	54.45
1001.277	54.53
1001.632	54.33
1001.987	54.24
1002.342	54.21
1002.696	54.06
1003.051	54.13
1003.406	54.19
1003.76	54.14
1004.114	54.1
1004.469	54.18
1004.823	54.58
1005.177	54.55
1005.531	54.71
1005.885	54.68
1006.239	54.62
1006.593	54.87
1006.947	54.9
1007.301	54.78
1007.655	54.88
1008.008	54.96
1008.362	55.04
1008.715	54.91
1009.069	55.01
1009.422	54.89
1009.776	54.82
1010.129	54.84
1010.482	54.68
1010.835	54.67
1011.188	54.87
1011.541	54.89
1011.894	55.04
1012.247	54.86
1012.6	54.81
1012.952	54.61
1013.305	54.82
1013.657	55.03
1014.01	55.12
1014.362	55.29
1014.715	55.53
1015.067	55.58
1015.419	55.66
1015.771	55.45
1016.123	55.65
1016.475	55.67
1016.827	55.78
1017.179	55.7
1017.531	55.55
1017.883	55.57
1018.234	55.6
1018.586	55.46
1018.938	55.55
1019.289	55.38
1019.64	55.54
1019.992	55.5
1020.343	55.58
1020.694	55.65
1021.045	55.68
1021.396	55.83
1021.747	55.92
1022.098	55.94
1022.449	55.75
1022.8	55.84
1023.151	55.85
1023.501	56.06
1023.852	56.23
1024.202	55.99
1024.553	55.98
1024.903	55.88
1025.253	55.92
1025.604	55.94
1025.954	55.76
1026.304	56.02
1026.654	55.91
1027.004	56.05
1027.354	55.64
1027.703	55.21
1028.053	55.48
1028.403	55.42
1028.753	55.45
1029.102	55.41
1029.452	55.37
1029.801	55.56
1030.15	55.38
1030.499	55.11
897.758	1272.31
901.051	1286.04
904.343	1281.29
907.636	1308.55
910.928	1271.83
914.22	1270.44
917.511	1251.57
920.803	1199.13
924.094	1196.36
927.384	1166.56
930.675	1121.71
933.965	1116.67
937.255	1048.01
940.544	1006.68
943.834	954.09
947.123	948.1
950.411	890.65
953.7	873.92
956.988	827.44
960.276	793.08
963.563	781.7
966.851	753.5
970.138	747.8
973.424	724.05
976.711	727.98
979.997	694.61
983.283	690.08
986.568	677.58
989.853	656.64
993.138	646.74
996.423	620.94
999.708	604.04
1002.992	597.95
1006.275	570.11
1009.559	567.14
1012.842	545.96
1016.125	530.94
1019.408	522.17
1022.69	515.48
1025.972	504.76
1029.254	492.33
1032.536	485.22
1035.817	473.94
1039.098	468.76
1042.379	460.49
1045.659	454.2
1048.939	443.58
1052.219	435.14
1055.498	428.66
1058.778	418.57
1062.057	409.78
1065.335	405.64
1068.614	400.51
1071.892	397.38
1075.17	383.9
1078.447	376.5
1081.724	373.76
1085.001	372.21
1088.278	364.28
1091.554	356.8
1094.83	357.75
1098.106	355.38
1101.382	352
1104.657	350.22
1107.932	343.95
1111.206	345.91
1114.481	337.46
1117.755	334.67
1121.029	331.71
1124.302	331.38
1127.575	324.65
1130.848	320.14
1134.121	317.08
1137.393	315.19
1140.665	308.27
1143.937	306.03
1147.208	305.27
1150.48	304.75
1153.75	301.24
1157.021	296.59
1160.291	297.05
1163.561	294.94
1166.831	294.86
1170.101	292.03
1173.37	292.14
1176.639	293.05
1179.907	290.27
1183.176	286.36
1186.444	286.16
1189.711	284.76
1192.979	284.22
1196.246	282.81
1199.513	282.68
1202.78	280.84
1206.046	281.29
1209.312	278.08
1212.578	277.97
1215.843	280.56
1219.108	279.63
1222.373	284.94
1225.638	287.31
1228.902	291.01
1232.166	289.9
1235.43	293.6
1238.693	297.49
1241.956	298.14
1245.219	303.39
1248.482	304.23
1251.744	303.98
1255.006	304.19
1258.268	296.99
1261.529	294.56
1264.79	292.46
1268.051	292.72
1271.312	287.62
1274.572	283.8
1277.832	282.6
1281.092	276.5
1284.351	274.03
1287.61	274.15
1290.869	270.09
1294.128	268.29
1297.386	268.68
1300.644	265.35
1303.902	265.34
1307.159	265.49
1310.416	265.5
1313.673	264.51
1316.93	267.89
1320.186	268.02
1323.442	268.23
1326.697	273.06
1329.953	274.26
1333.208	274.51
1336.463	278.05
1339.717	278.08
1342.972	280.58
1346.226	283.72
1349.479	284.14
1352.733	285.41
1355.986	287.09
1359.238	287.37
1362.491	288.39
1365.743	290.23
1368.995	290.15
1372.247	288.41
1375.498	288.6
1378.749	290.59
1382	286.35
1385.251	286.55
1388.501	284.82
1391.751	284.61
1395	283.14
1398.25	280.7
1401.499	278.55
1404.748	278.13
1407.996	275.99
1411.244	274.58
1414.492	272.72
1417.74	269.99
1420.987	266.18
1424.234	265.9
1427.481	261.87
1430.728	261.25
1433.974	259.26
1437.22	257.19
1440.465	255.84
1443.711	254.08
1446.956	252.01
1450.201	248.66
1453.445	246.57
1456.689	245.86
1459.933	241.36
1463.177	239.15
1466.42	235.59
1469.663	232.44
1472.906	230.95
1476.148	225.4
1479.391	223.28
1482.633	221.35
1485.874	218.13
1489.115	216.36
1492.356	214.04
1495.597	213.34
1498.838	210.52
1502.078	209.14
1505.318	208.1
1508.557	208.28
1511.797	208.09
1515.036	206.07
1518.274	205.95
1521.513	204.31
1524.751	204.2
1527.989	203.78
1531.227	203.12
1534.464	203.99
1537.701	202.66
1540.938	202.34
1544.174	199.38
1547.41	199.9
1550.646	199.03
1553.882	198.61
1557.117	196.62
1560.352	195.54
1563.587	194.97
1566.821	193.55
1570.055	192.09
1573.289	190.41
1576.523	190.05
1579.756	189.4
1582.989	187.82
1586.222	188
1589.454	187.31
1592.686	188.47
1595.918	187.45
1599.15	186.74
1602.381	187.43
1605.612	186.81
1608.843	188.05
1612.073	188.13
1615.303	189.18
1618.533	189.06
1621.762	188.97
1624.992	188.74
1628.221	188.72
1631.449	188.81
1634.678	188.57
1637.906	189.23
1641.134	189.59
1644.361	189.39
1647.588	189.32
1650.815	188.32
1654.042	187.72
1657.269	188.84
1660.495	188.99
1663.72	188.56
1666.946	189.46
1670.171	189.79
1673.396	189.87
1676.621	189.72
1679.845	189.82
1683.069	189.91
1686.293	191.17
1689.517	192.83
1692.74	192.25
1695.963	192.65
1699.185	194.27
1702.408	194.16
1705.63	194.84
1708.852	194.94
1712.073	195.05
1715.294	195.75
1718.515	196.92
1721.736	196.59
1724.956	196.38
1728.176	196.7
1731.396	198.61
1734.616	197.64
1737.835	198.58
1741.054	197.39
1744.272	197.57
1747.491	200.11
1750.709	199.86
1753.927	199.61
1757.144	199
1760.361	199.82
1763.578	200.05
1766.795	199.14
1770.011	200.94
1773.227	200.25
1776.443	202.78
1779.658	203.69
1782.874	202.49
1786.089	203.65
1789.303	204.46
1792.518	207.44
1795.732	207.27
1798.945	209.16
1802.159	209.44
1805.372	209.84
1808.585	214.02
1811.797	214.5
1815.01	214.79
1818.222	216.81
1821.434	217.54
1824.645	218.23
1827.856	221.53
1831.067	223.26
1834.278	222.54
1837.488	224.11
1840.698	225.91
1843.908	223.54
1847.117	224.5
1850.326	225.92
1853.535	225.63
1856.744	228.84
1859.952	228.85
1863.16	225.99
1866.368	225.21
1869.575	227.73
1872.782	223.88
1875.989	222.79
1879.196	222.07
1882.402	220.24
1885.608	221.07
1888.814	220.75
1892.019	220.25
1895.224	219.14
1898.429	219.21
1901.634	220.13
1904.838	219.95
1908.042	222.6
1911.246	222.89
1914.449	224.4
1917.652	224.68
1920.855	224.16
1924.058	223.68
1927.26	222.71
1930.462	223.42
1933.664	225.68
1936.865	223.5
1940.066	222.68
1943.267	222.32
1946.467	222.17
1949.668	223.33
1952.868	226.11
1956.067	225.68
1959.267	226.38
1962.466	227.01
1965.665	226.32
1968.863	226.56
1972.061	229.56
1975.259	231.99
1978.457	233.61
1981.654	235.6
1984.852	235.59
1988.048	234.58
1991.245	237.29
1994.441	239.45
1997.637	241.65
2000.833	246.32
2004.028	249.89
2007.223	250.77
2010.418	253.98
2013.613	257.51
2016.807	260.24
2020.001	262.34
2023.194	267.06
2026.388	272.37
2029.581	279.17
2032.774	281.37
2035.966	286.95
2039.158	287.13
2042.35	293.43
2045.542	294.8
2048.733	299.35
2051.924	302.72
2055.115	308.49
2058.306	308.68
2061.496	311.65
2064.686	311.16
2067.875	316.48
2071.065	317.89
2074.254	315.93
2077.442	320.37
2080.631	321.59
2083.819	324.84
2087.007	325.5
2090.195	329.49
2093.382	332.19
2096.569	330.61
2099.756	335.32
2102.942	336.26
2106.128	338.4
2109.314	347.19
2112.5	344.83
2115.685	351.73
2118.87	352.64
2122.055	360.63
2125.239	362.43
2128.424	368.25
2131.608	371.72
2134.791	376.59
2137.974	378.54
2141.157	380.68
2144.34	380.81
2147.523	386.4
2150.705	384.96
2153.887	388.75
2157.068	388.95
2160.25	385.56
2163.431	386.26
2166.611	390.3
2169.792	399
2172.972	402.64
2176.152	404.38
2179.331	409.96
2182.511	417.24
2185.69	421.33
2188.868	429.89
2192.047	430.85
2195.225	444.86
2198.403	455.15
2201.58	462.43
2204.758	470.59
2207.935	480.57
2211.111	490.61
2214.288	495.56
2217.464	496.19
2220.64	504.73
2223.815	511.04
2226.991	532.37
2230.166	532.16
2233.34	541.43
2236.515	552.04
2239.689	552.27
2242.863	553.85
2246.036	568.55
2249.209	566.75
2252.382	578.04
2255.555	594.03
2258.727	595.36
2261.9	599.69
2265.071	606.67
2268.243	616.05
2271.414	621.5
2274.585	635.86
2277.756	644.09
2280.926	649.15
2284.096	662.2
2287.266	676.95
2290.436	681.3
2293.605	697.25
2296.774	717.2
2299.942	739.79
2303.111	745.05
2306.279	763.49
2309.447	773.07
2312.614	792.13
2315.781	811.36
2318.948	851.7
2322.115	837.74
2325.281	886.86
2328.447	867.37
2331.613	901.18
2334.779	889.96
2337.944	930.4
2341.109	939.24
2344.274	966.95
2347.438	1001.53
2350.602	1003.47
2353.766	1033.84
2356.929	1049.22
2360.092	1040.11
2363.255	1116.33
2366.418	1114.47
2369.58	1135.84
2372.742	1203.32
2375.904	1233.45
2379.066	1222.29
2382.227	1196.38
2385.388	1301.8
2388.548	1298.8
2391.709	1316.79
2394.869	1470.26
2398.029	1405.75
2401.188	1446.77
2404.347	1431.57
2407.506	1409.3
2410.665	1449.11
2413.823	1539.9
2416.981	1634.52
2420.139	1577.93
2423.296	1563.74
2426.453	1628.32
2429.61	1562.17
2432.767	1639.1
2435.923	1616.58
2439.079	1778.79
2442.235	1798.74
2445.391	1781.48
2448.546	1765.99
2451.701	1718.13
2454.855	1713.08
2458.009	1815.39
2461.163	1895.14
2464.317	1962.51
2467.471	2011.6
2470.624	2018.52
2473.777	1963.94
2476.929	1921.03
2480.082	1863.86
2483.234	1843.47
2486.385	1933.93
2489.537	1944.85
2492.688	2014.77
2495.839	1959.71
2498.989	1915.61
2502.14	1927.73
2505.29	1944.65
2508.439	1974.55
2511.589	1964.57
2514.738	2145.66
2517.887	2097.67
2521.035	2213.71
2524.183	2237.71
2527.331	2252.67
2530.479	2237.93
2533.627	2259.77
