Data from C_2_DIV_IL_4N_Splice17_13-40-53-798.txt Node
Date: Sat Mar 07 13:40:53 EST 2020
User: sa697716
Spectrometer: NQ5500242
Trigger mode: 0
Integration Time (sec): 1.450000E-1
Scans to average: 20
Nonlinearity correction enabled: false
Boxcar width: 5
Storing dark spectrum: false
XAxis mode: Wavelengths
Number of Pixels in Spectrum: 512
>>>>>Begin Spectral Data<<<<<
187.83	229.4
188.298	249.15
188.766	214.5
189.233	164.23
189.701	163.47
190.169	217.34
190.636	232.12
191.104	276.55
191.571	138.74
192.039	-252.09
192.506	-519.41
192.974	102.83
193.441	183.84
193.908	26.22
194.375	45.91
194.842	-80.73
195.31	27.65
195.777	45.91
196.244	85.83
196.711	91.1
197.177	93.85
197.644	94.28
198.111	93.98
198.578	94.41
199.045	95.34
199.511	95.04
199.978	95.4
200.445	95.93
200.911	95.98
201.378	96.12
201.844	96.08
202.31	95.86
202.777	95.51
203.243	95.26
203.709	94.47
204.176	93.36
204.642	92.52
205.108	91.88
205.574	90.54
206.04	89.29
206.506	88.29
206.972	87.44
207.438	86.32
207.903	85.25
208.369	83.42
208.835	81.69
209.301	79.93
209.766	77.72
210.232	75.72
210.697	73.61
211.163	71.8
211.628	70.13
212.094	68.5
212.559	66.88
213.024	65.07
213.49	63.84
213.955	62.39
214.42	60.78
214.885	59.2
215.35	56.91
215.815	54.09
216.28	50.35
216.745	46.12
217.21	41.94
217.675	38.03
218.14	34.79
218.604	31.98
219.069	29.63
219.534	27.74
219.998	26
220.463	24.62
220.927	23.39
221.392	22.46
221.856	21.69
222.32	21.02
222.785	20.47
223.249	19.9
223.713	19.4
224.177	18.96
224.642	18.54
225.106	18.14
225.57	17.76
226.034	17.46
226.497	17.16
226.961	16.87
227.425	16.59
227.889	16.3
228.353	16.04
228.816	15.76
229.28	15.51
229.744	15.25
230.207	15.02
230.671	14.79
231.134	14.53
231.597	14.33
232.061	14.11
232.524	13.9
232.987	13.72
233.45	13.54
233.914	13.36
234.377	13.19
234.84	13.03
235.303	12.88
235.766	12.75
236.229	12.62
236.691	12.46
237.154	12.31
237.617	12.2
238.08	12.06
238.542	11.93
239.005	11.82
239.468	11.69
239.93	11.57
240.393	11.45
240.855	11.32
241.317	11.2
241.78	11.08
242.242	10.96
242.704	10.86
243.166	10.74
243.629	10.66
244.091	10.55
244.553	10.45
245.015	10.35
245.477	10.26
245.939	10.17
246.4	10.08
246.862	9.99
247.324	9.91
247.786	9.8
248.247	9.72
248.709	9.61
249.17	9.52
249.632	9.46
250.093	9.39
250.555	9.3
251.016	9.24
251.477	9.17
251.939	9.09
252.4	9.02
252.861	8.96
253.322	8.91
253.783	8.85
254.244	8.8
254.705	8.72
255.166	8.66
255.627	8.59
256.088	8.53
256.549	8.46
257.009	8.4
257.47	8.34
257.931	8.27
258.391	8.19
258.852	8.12
259.312	8.05
259.773	7.98
260.233	7.92
260.694	7.86
261.154	7.8
261.614	7.74
262.074	7.68
262.534	7.62
262.994	7.57
263.455	7.53
263.915	7.48
264.374	7.44
264.834	7.41
265.294	7.36
265.754	7.33
266.214	7.29
266.673	7.27
267.133	7.25
267.593	7.22
268.052	7.2
268.512	7.18
268.971	7.16
269.431	7.13
269.89	7.11
270.349	7.1
270.809	7.08
271.268	7.06
271.727	7.03
272.186	7.02
272.645	7
273.104	6.97
273.563	6.95
274.022	6.93
274.481	6.92
274.94	6.91
275.399	6.88
275.857	6.86
276.316	6.85
276.775	6.83
277.233	6.82
277.692	6.81
278.15	6.8
278.609	6.79
279.067	6.79
279.525	6.78
279.984	6.75
280.442	6.74
280.9	6.74
281.358	6.73
281.816	6.72
282.274	6.71
282.732	6.7
283.19	6.68
283.648	6.66
284.106	6.64
284.564	6.61
285.021	6.61
285.479	6.59
285.937	6.57
286.394	6.55
286.852	6.53
287.309	6.5
287.767	6.47
288.224	6.45
288.682	6.42
289.139	6.38
289.596	6.35
290.053	6.31
290.511	6.28
290.968	6.25
291.425	6.21
291.882	6.19
292.339	6.17
292.796	6.15
293.252	6.12
293.709	6.11
294.166	6.1
294.623	6.08
295.079	6.06
295.536	6.05
295.992	6.04
296.449	6.03
296.905	6.01
297.362	6
297.818	5.98
298.274	5.97
298.731	5.96
299.187	5.94
299.643	5.93
300.099	5.92
300.555	5.91
301.011	5.9
301.467	5.89
301.923	5.88
302.379	5.87
302.835	5.87
303.291	5.87
303.746	5.86
304.202	5.86
304.658	5.85
305.113	5.84
305.569	5.85
306.024	5.84
306.479	5.83
306.935	5.83
307.39	5.83
307.845	5.83
308.301	5.82
308.756	5.83
309.211	5.82
309.666	5.83
310.121	5.84
310.576	5.84
311.031	5.84
311.486	5.84
311.94	5.84
312.395	5.85
312.85	5.85
313.305	5.85
313.759	5.84
314.214	5.84
314.668	5.82
315.123	5.81
315.577	5.8
316.032	5.79
316.486	5.77
316.94	5.76
317.394	5.73
317.849	5.71
318.303	5.68
318.757	5.66
319.211	5.64
319.665	5.61
320.119	5.6
320.572	5.57
321.026	5.56
321.48	5.55
321.934	5.53
322.387	5.52
322.841	5.51
323.295	5.52
323.748	5.51
324.202	5.51
324.655	5.51
325.108	5.51
325.562	5.51
326.015	5.51
326.468	5.51
326.921	5.51
327.374	5.51
327.827	5.51
328.28	5.51
328.733	5.5
329.186	5.5
329.639	5.5
330.092	5.5
330.545	5.51
330.997	5.52
331.45	5.52
331.903	5.53
332.355	5.53
332.808	5.53
333.26	5.53
333.713	5.53
334.165	5.53
334.617	5.54
335.069	5.53
335.522	5.53
335.974	5.53
336.426	5.53
336.878	5.51
337.33	5.51
337.782	5.51
338.234	5.52
338.686	5.51
339.137	5.52
339.589	5.49
340.041	5.48
340.493	5.46
340.944	5.43
341.396	5.41
341.847	5.39
342.299	5.36
342.75	5.34
343.201	5.31
343.653	5.29
344.104	5.25
344.555	5.24
345.006	5.21
345.457	5.2
345.908	5.18
346.359	5.18
346.81	5.17
347.261	5.17
347.712	5.17
348.163	5.16
348.613	5.16
349.064	5.17
349.515	5.17
349.965	5.17
350.416	5.16
350.866	5.17
351.317	5.16
351.767	5.17
352.217	5.16
352.668	5.16
353.118	5.16
353.568	5.15
354.018	5.15
354.468	5.16
354.918	5.16
355.368	5.17
355.818	5.18
356.268	5.18
356.718	5.18
357.168	5.18
357.617	5.17
358.067	5.17
358.517	5.19
358.966	5.19
359.416	5.19
359.865	5.18
360.315	5.18
360.764	5.18
361.213	5.17
361.663	5.16
362.112	5.17
362.561	5.17
363.01	5.17
363.459	5.14
363.908	5.14
364.357	5.14
364.806	5.14
365.255	5.13
365.703	5.14
366.152	5.16
366.601	5.17
367.05	5.16
367.498	5.16
367.947	5.16
368.395	5.17
368.844	5.17
369.292	5.16
369.74	5.17
370.189	5.17
370.637	5.15
371.085	5.13
371.533	5.12
371.981	5.12
372.429	5.12
372.877	5.12
373.325	5.12
373.773	5.11
374.221	5.11
374.669	5.1
375.116	5.09
375.564	5.09
376.012	5.1
376.459	5.1
376.907	5.1
377.354	5.09
377.801	5.09
378.249	5.08
378.696	5.09
379.143	5.08
379.591	5.08
380.038	5.07
380.485	5.07
380.932	5.06
381.379	5.07
381.826	5.07
382.273	5.07
382.72	5.05
383.166	5.05
383.613	5.04
384.06	5.04
384.506	5.05
384.953	5.06
385.4	5.07
385.846	5.08
386.292	5.08
386.739	5.08
387.185	5.09
387.631	5.1
388.078	5.12
388.524	5.13
388.97	5.16
389.416	5.17
389.862	5.2
390.308	5.22
390.754	5.25
391.2	5.28
391.645	5.32
392.091	5.36
392.537	5.39
392.983	5.41
393.428	5.45
393.874	5.47
394.319	5.5
394.765	5.52
395.21	5.54
395.655	5.57
396.101	5.61
396.546	5.64
396.991	5.66
397.436	5.7
397.881	5.75
398.326	5.79
398.771	5.83
399.216	5.86
399.661	5.9
400.106	5.93
400.551	5.95
400.995	5.96
401.44	5.99
401.885	6.01
402.329	6.05
402.774	6.07
403.218	6.13
403.663	6.15
404.107	6.2
404.551	6.23
404.995	6.27
405.44	6.3
405.884	6.34
406.328	6.38
406.772	6.41
407.216	6.44
407.66	6.46
408.104	6.46
408.547	6.48
408.991	6.51
409.435	6.54
409.879	6.57
410.322	6.61
410.766	6.66
411.209	6.7
411.653	6.73
412.096	6.78
412.54	6.82
412.983	6.86
413.426	6.93
413.869	6.97
414.312	7.02
414.756	7.05
415.199	7.08
415.642	7.1
416.085	7.11
416.527	7.12
416.97	7.12
417.413	7.14
417.856	7.15
418.298	7.15
418.741	7.15
419.184	7.16
419.626	7.17
420.069	7.19
420.511	7.21
420.953	7.24
421.396	7.27
421.838	7.31
422.28	7.33
422.722	7.38
423.164	7.39
423.606	7.41
424.048	7.42
424.49	7.42
424.932	7.41
425.374	7.39
425.816	7.36
426.258	7.36
426.699	7.35
427.141	7.35
427.582	7.35
428.024	7.38
428.465	7.38
428.907	7.37
429.348	7.37
429.789	7.4
430.231	7.45
430.672	7.52
431.113	7.56
431.554	7.59
431.995	7.61
432.436	7.62
432.877	7.65
433.318	7.7
433.759	7.75
434.2	7.8
434.64	7.83
435.081	7.85
435.522	7.85
435.962	7.87
436.403	7.89
436.843	7.91
437.284	7.9
437.724	7.9
438.164	7.88
438.604	7.9
439.045	7.91
439.485	7.91
439.925	7.9
440.365	7.92
440.805	7.92
441.245	7.95
441.685	7.98
442.125	8.02
442.564	8.01
443.004	8.03
443.444	8.06
443.883	8.08
444.323	8.09
444.762	8.11
445.202	8.11
445.641	8.14
446.081	8.14
446.52	8.15
446.959	8.19
447.398	8.22
447.837	8.24
448.276	8.25
448.716	8.26
449.154	8.29
449.593	8.3
450.032	8.31
450.471	8.29
450.91	8.29
451.349	8.29
451.787	8.26
452.226	8.24
452.664	8.24
453.103	8.22
453.541	8.21
453.98	8.2
454.418	8.18
454.856	8.18
455.295	8.18
455.733	8.14
456.171	8.12
456.609	8.12
457.047	8.09
457.485	8.08
457.923	8.08
458.361	8.06
458.798	8.05
459.236	8.04
459.674	8.04
460.111	8.03
460.549	8.05
460.987	8.06
461.424	8.06
461.862	8.08
462.299	8.08
462.736	8.09
463.173	8.1
463.611	8.11
464.048	8.13
464.485	8.14
464.922	8.13
465.359	8.13
465.796	8.17
466.233	8.18
466.67	8.19
467.106	8.2
467.543	8.19
467.98	8.18
468.416	8.16
468.853	8.16
469.29	8.15
469.726	8.16
470.162	8.16
470.599	8.12
471.035	8.1
471.471	8.09
471.907	8.08
472.344	8.07
472.78	8.07
473.216	8.05
473.652	8.03
474.088	8
474.523	8
474.959	7.99
475.395	7.96
475.831	7.95
476.266	7.93
476.702	7.92
477.138	7.91
477.573	7.89
478.008	7.89
478.444	7.88
478.879	7.89
479.314	7.87
479.75	7.86
480.185	7.83
480.62	7.83
481.055	7.81
481.49	7.79
481.925	7.78
482.36	7.79
482.795	7.77
483.229	7.76
483.664	7.75
484.099	7.74
484.534	7.74
484.968	7.76
485.403	7.76
485.837	7.77
486.271	7.78
486.706	7.78
487.14	7.78
487.574	7.8
488.009	7.82
488.443	7.82
488.877	7.85
489.311	7.88
489.745	7.89
490.179	7.93
490.613	7.96
491.046	7.99
491.48	8.03
491.914	8.06
492.348	8.11
492.781	8.16
493.215	8.22
493.648	8.26
494.082	8.3
494.515	8.35
494.948	8.4
495.382	8.46
495.815	8.52
496.248	8.6
496.681	8.67
497.114	8.74
497.547	8.81
497.98	8.88
498.413	8.96
498.846	9.05
499.279	9.14
499.711	9.22
500.144	9.32
500.577	9.43
501.009	9.53
501.442	9.64
501.874	9.76
502.306	9.87
502.739	10.02
503.171	10.15
503.603	10.3
504.036	10.44
504.468	10.59
504.9	10.74
505.332	10.91
505.764	11.07
506.196	11.24
506.627	11.42
507.059	11.61
507.491	11.78
507.923	11.98
508.354	12.19
508.786	12.41
509.217	12.64
509.649	12.87
510.08	13.09
510.512	13.34
510.943	13.59
511.374	13.85
511.805	14.11
512.237	14.38
512.668	14.65
513.099	14.92
513.53	15.2
513.961	15.48
514.391	15.79
514.822	16.1
515.253	16.4
515.684	16.69
516.114	17
516.545	17.31
516.975	17.61
517.406	17.92
517.836	18.22
518.267	18.54
518.697	18.85
519.127	19.13
519.558	19.43
519.988	19.73
520.418	20.04
520.848	20.33
521.278	20.63
521.708	21.17
522.138	21.45
522.567	21.73
522.997	22
523.427	22.26
523.857	22.53
524.286	22.8
524.716	23.06
525.145	23.3
525.575	23.54
526.004	23.76
526.433	23.76
526.863	24
527.292	24.23
527.721	24.44
528.15	24.63
528.579	24.83
529.008	25.01
529.437	25.18
529.866	25.35
530.295	25.5
530.724	25.67
531.152	25.82
531.581	25.96
532.01	26.09
532.438	26.22
532.867	26.35
533.295	26.49
533.723	26.6
534.152	26.72
534.58	26.82
535.008	26.92
535.436	27
535.865	27.09
536.293	27.17
536.721	27.24
537.149	27.32
537.576	27.38
538.004	27.44
538.432	27.5
538.86	27.56
539.287	27.61
539.715	27.68
540.143	27.73
540.57	27.78
540.998	27.82
541.425	27.87
541.852	27.92
542.28	27.98
542.707	28.04
543.134	28.07
543.561	28.12
543.988	28.17
544.415	28.2
544.842	28.25
545.269	28.3
545.696	28.35
546.123	28.39
546.549	28.43
546.976	28.47
547.403	28.49
547.829	28.53
548.256	28.56
548.682	28.59
549.108	28.65
549.535	28.68
549.961	28.7
550.387	28.7
550.813	28.72
551.24	28.71
551.666	28.71
552.092	28.72
552.518	28.73
552.943	28.72
553.369	28.7
553.795	28.67
554.221	28.65
554.646	28.61
555.072	28.6
555.498	28.54
555.923	28.51
556.349	28.46
556.774	28.41
557.199	28.35
557.625	28.29
558.05	28.23
558.475	28.15
558.9	28.08
559.325	28.02
559.75	27.93
560.175	27.86
560.6	27.76
561.025	27.68
561.449	27.58
561.874	27.45
562.299	27.33
562.723	27.2
563.148	27.07
563.572	26.91
563.997	26.77
564.421	26.63
564.846	26.49
565.27	26.34
565.694	26.19
566.118	26.03
566.542	25.88
566.966	25.72
567.39	25.58
567.814	25.43
568.238	25.29
568.662	25.14
569.086	24.98
569.509	24.83
569.933	24.7
570.357	24.56
570.78	24.4
571.204	24.27
571.627	24.15
572.05	24
572.474	23.89
572.897	23.77
573.32	23.65
573.743	23.53
574.166	23.4
574.589	23.27
575.012	23.15
575.435	23.05
575.858	22.93
576.281	22.8
576.704	22.68
577.126	22.56
577.549	22.44
577.972	22.32
578.394	22.21
578.817	22.12
579.239	22.03
579.661	21.94
580.084	21.84
580.506	21.75
580.928	21.66
581.35	21.59
581.772	21.49
582.194	21.41
582.616	21.35
583.038	21.27
583.46	21.18
583.882	21.09
584.303	21
584.725	20.91
585.147	20.85
585.568	20.77
585.99	20.71
586.411	20.66
586.833	20.59
587.254	20.52
587.675	20.46
588.096	20.41
588.518	20.35
588.939	20.31
589.36	20.26
589.781	20.21
590.202	20.19
590.623	20.14
591.043	20.09
591.464	20.06
591.885	20.01
592.305	19.98
592.726	19.94
593.147	19.9
593.567	19.87
593.987	19.82
594.408	19.78
594.828	19.71
595.248	19.67
595.669	19.62
596.089	19.56
596.509	19.53
596.929	19.49
597.349	19.46
597.769	19.42
598.189	19.37
598.608	19.34
599.028	19.32
599.448	19.28
599.867	19.24
600.287	19.2
600.706	19.16
601.126	19.12
601.545	19.08
601.965	19.03
602.384	18.98
602.803	18.92
603.222	18.85
603.641	18.78
604.061	18.73
604.48	18.64
604.898	18.57
605.317	18.5
605.736	18.41
606.155	18.34
606.574	18.25
606.992	18.17
607.411	18.1
607.829	18
608.248	17.91
608.666	17.81
609.085	17.74
609.503	17.67
609.921	17.58
610.339	17.51
610.758	17.42
611.176	17.33
611.594	17.26
612.012	17.17
612.43	17.1
612.847	17.02
613.265	16.94
613.683	16.86
614.101	16.78
614.518	16.69
614.936	16.62
615.353	16.54
615.771	16.47
616.188	16.39
616.606	16.32
617.023	16.27
617.44	16.21
617.857	16.15
618.274	16.09
618.691	16.04
619.108	15.99
619.525	15.92
619.942	15.88
620.359	15.83
620.776	15.79
621.192	15.75
621.609	15.71
622.026	15.68
622.442	15.65
622.859	15.62
623.275	15.58
623.691	15.57
624.108	15.55
624.524	15.53
624.94	15.52
625.356	15.51
625.772	15.5
626.188	15.49
626.604	15.48
627.02	15.47
627.436	15.47
627.852	15.46
628.268	15.45
628.683	15.44
629.099	15.44
629.514	15.42
629.93	15.4
630.345	15.38
630.761	15.35
631.176	15.31
631.591	15.29
632.007	15.26
632.422	15.2
632.837	15.16
633.252	15.12
633.667	15.05
634.082	14.99
634.497	14.93
634.911	14.85
635.326	14.77
635.741	14.71
636.155	14.61
636.57	14.53
636.984	14.45
637.399	14.36
637.813	14.24
638.228	14.14
638.642	14.02
639.056	13.9
639.47	13.8
639.884	13.68
640.298	13.54
640.712	13.43
641.126	13.3
641.54	13.16
641.954	13.03
642.368	12.91
642.781	12.79
643.195	12.67
643.609	12.55
644.022	12.43
644.436	12.32
644.849	12.21
645.262	12.1
645.676	12
646.089	11.91
646.502	11.83
646.915	11.76
647.328	11.68
647.741	11.61
648.154	11.54
648.567	11.49
648.98	11.41
649.393	11.35
649.805	11.3
650.218	11.24
650.631	11.19
651.043	11.14
651.456	11.08
651.868	11.02
652.28	10.97
652.693	10.92
653.105	10.86
653.517	10.82
653.929	10.76
654.341	10.69
654.753	10.61
655.165	10.54
655.577	10.47
655.989	10.4
656.401	10.32
656.813	10.24
657.224	10.14
657.636	10.04
658.047	9.95
658.459	9.85
658.87	9.76
659.282	9.66
659.693	9.56
660.104	9.44
660.515	9.32
660.926	9.22
661.338	9.11
661.749	9.02
662.159	8.93
662.57	8.84
662.981	8.74
663.392	8.67
663.803	8.59
664.213	8.51
664.624	8.45
665.035	8.39
665.445	8.32
665.855	8.27
666.266	8.21
666.676	8.17
667.086	8.1
667.497	8.07
667.907	8.03
668.317	7.99
668.727	7.98
669.137	7.94
669.547	7.93
669.956	7.91
670.366	7.9
670.776	7.88
671.186	7.87
671.595	7.87
672.005	7.86
672.414	7.86
672.824	7.86
673.233	7.85
673.642	7.86
674.052	7.87
674.461	7.87
674.87	7.89
675.279	7.91
675.688	7.92
676.097	7.95
676.506	7.99
676.915	8.02
677.323	8.05
677.732	8.07
678.141	8.12
678.549	8.15
678.958	8.2
679.366	8.25
679.775	8.3
680.183	8.39
680.592	8.47
681	8.55
681.408	8.65
681.816	8.76
682.224	8.88
682.632	9.02
683.04	9.17
683.448	9.34
683.856	9.52
684.264	9.73
684.671	9.94
685.079	10.17
685.487	10.44
685.894	10.74
686.302	11.05
686.709	11.39
687.116	11.75
687.524	12.14
687.931	12.57
688.338	13.01
688.745	13.46
689.152	13.95
689.559	14.47
689.966	15
690.373	15.53
690.78	16.11
691.187	16.67
691.593	17.27
692	17.88
692.407	18.47
692.813	19.09
693.22	19.72
693.626	20.35
694.032	20.99
694.439	21.63
694.845	22.28
695.251	22.9
695.657	23.53
696.063	24.17
696.469	24.82
696.875	25.45
697.281	26.08
697.687	26.7
698.093	27.32
698.498	27.93
698.904	28.51
699.31	29.08
699.715	29.67
700.12	30.26
700.526	30.82
700.931	31.36
701.337	31.9
701.742	32.42
702.147	32.93
702.552	33.44
702.957	33.91
703.362	34.38
703.767	34.84
704.172	35.3
704.577	35.76
704.981	36.19
705.386	36.61
705.791	37.02
706.195	37.45
706.6	37.86
707.004	38.24
707.408	38.64
707.813	39.06
708.217	39.44
708.621	39.82
709.025	40.15
709.43	40.51
709.834	40.88
710.237	41.22
710.641	41.54
711.045	41.85
711.449	42.17
711.853	42.51
712.256	42.8
712.66	43.1
713.064	43.39
713.467	43.69
713.87	43.99
714.274	44.26
714.677	44.55
715.08	44.82
715.484	45.13
715.887	45.42
716.29	45.66
716.693	45.93
717.096	46.21
717.499	46.45
717.901	46.7
718.304	46.92
718.707	47.16
719.109	47.41
719.512	47.62
719.915	47.83
720.317	48.01
720.719	48.17
721.122	48.36
721.524	48.53
721.926	48.74
722.328	48.91
722.731	49.09
723.133	49.27
723.535	49.44
723.937	49.63
724.338	49.78
724.74	49.93
725.142	50.28
725.544	50.43
725.945	50.63
726.347	50.74
726.748	50.87
727.15	50.97
727.551	51.11
727.952	51.2
728.354	51.3
728.755	51.39
729.156	51.51
729.557	51.43
729.958	51.53
730.359	51.56
730.76	51.69
731.161	51.8
731.562	51.91
731.962	51.94
732.363	52.04
732.763	52.13
733.164	52.23
733.564	52.29
733.965	52.37
734.365	52.46
734.766	52.53
735.166	52.57
735.566	52.63
735.966	52.7
736.366	52.78
736.766	52.81
737.166	52.87
737.566	52.9
737.966	52.95
738.365	53
738.765	53.06
739.165	53.11
739.564	53.16
739.964	53.19
740.363	53.21
740.763	53.24
741.162	53.28
741.561	53.28
741.96	53.29
742.36	53.32
742.759	53.35
743.158	53.36
743.557	53.37
743.955	53.41
744.354	53.41
744.753	53.47
745.152	53.53
745.55	53.56
745.949	53.61
746.348	53.65
746.746	53.64
747.144	53.67
747.543	53.67
747.941	53.67
748.339	53.64
748.737	53.67
749.136	53.65
749.534	53.6
749.932	53.59
750.33	53.55
750.727	53.56
751.125	53.58
751.523	53.56
751.921	53.59
752.318	53.62
752.716	53.64
753.113	53.64
753.511	53.66
753.908	53.71
754.305	53.76
754.703	53.81
755.1	53.84
755.497	53.85
755.894	53.89
756.291	53.91
756.688	53.94
757.085	53.97
757.482	53.98
757.878	54.02
758.275	54.03
758.672	54.02
759.068	54.03
759.465	54.04
759.861	54.06
760.258	54.09
760.654	54.09
761.05	54.1
761.447	54.12
761.843	54.11
762.239	54.1
762.635	54.07
763.031	54.07
763.427	54.05
763.822	54.04
764.218	54.05
764.614	54.03
765.01	54.04
765.405	54.04
765.801	53.99
766.196	54.01
766.592	54.01
766.987	54.02
767.382	54
767.778	54.02
768.173	54.04
768.568	54.04
768.963	54.02
769.358	54.03
769.753	54
770.148	54.05
770.542	54.05
770.937	54.07
771.332	54.08
771.726	54.08
772.121	54.1
772.515	54.06
772.91	54.07
773.304	54.11
773.699	54.1
774.093	54.11
774.487	54.08
774.881	54.12
775.275	54.09
775.669	54.1
776.063	54.12
776.457	54.15
776.851	54.14
777.245	54.11
777.638	54.08
778.032	54.08
778.425	54.1
778.819	54.1
779.212	54.1
779.606	54.12
779.999	54.12
780.392	54.11
780.786	54.07
781.179	54.11
781.572	54.16
781.965	54.2
782.358	54.2
782.751	54.18
783.143	54.2
783.536	54.17
783.929	54.17
784.322	54.18
784.714	54.17
785.107	54.22
785.499	54.18
785.891	54.18
786.284	54.19
786.676	54.19
787.068	54.21
787.46	54.23
787.852	54.27
788.245	54.26
788.636	54.27
789.028	54.29
789.42	54.3
789.812	54.35
790.204	54.36
790.595	54.34
790.987	54.34
791.378	54.37
791.77	54.38
792.161	54.34
792.553	54.33
792.944	54.33
793.335	54.33
793.726	54.32
794.117	54.28
794.508	54.25
794.899	54.24
795.29	54.24
795.681	54.17
796.072	54.14
796.463	54.2
796.853	54.22
797.244	54.21
797.634	54.2
798.025	54.21
798.415	54.22
798.806	54.23
799.196	54.25
799.586	54.26
799.976	54.3
800.366	54.3
800.756	54.28
801.146	54.28
801.536	54.3
801.926	54.3
802.316	54.29
802.706	54.31
803.095	54.34
803.485	54.36
803.874	54.36
804.264	54.33
804.653	54.36
805.043	54.37
805.432	54.39
805.821	54.39
806.21	54.42
806.599	54.4
806.988	54.39
807.377	54.36
807.766	54.36
808.155	54.32
808.544	54.36
808.933	54.33
809.321	54.3
809.71	54.27
810.098	54.28
810.487	54.24
810.875	54.28
811.264	54.26
811.652	54.3
812.04	54.28
812.428	54.3
812.816	54.29
813.204	54.29
813.592	54.24
813.98	54.24
814.368	54.23
814.756	54.26
815.144	54.22
815.531	54.21
815.919	54.18
816.306	54.17
816.694	54.19
817.081	54.16
817.469	54.18
817.856	54.2
818.243	54.2
818.63	54.19
819.017	54.17
819.404	54.16
819.791	54.16
820.178	54.17
820.565	54.16
820.952	54.17
821.339	54.15
821.725	54.14
822.112	54.17
822.498	54.18
822.885	54.22
823.271	54.23
823.657	54.19
824.044	54.21
824.43	54.2
824.816	54.22
825.202	54.17
825.588	54.16
825.974	54.15
826.36	54.13
826.746	54.12
827.132	54.09
827.517	54.07
827.903	54.11
828.289	54.11
828.674	54.11
829.06	54.08
829.445	54.06
829.83	54.09
830.216	54.07
830.601	54.06
830.986	54.06
831.371	54.04
831.756	54.05
832.141	54.05
832.526	54.05
832.911	54.04
833.295	54.03
833.68	54.07
834.065	54.05
834.449	54.05
834.834	54.05
835.218	54.05
835.603	54.05
835.987	54.02
836.371	54
836.755	53.97
837.139	53.94
837.524	53.92
837.908	53.9
838.291	53.9
838.675	53.91
839.059	53.9
839.443	53.89
839.827	53.88
840.21	53.88
840.594	53.9
840.977	53.88
841.361	53.9
841.744	53.89
842.127	53.86
842.511	53.84
842.894	53.82
843.277	53.82
843.66	53.79
844.043	53.79
844.426	53.79
844.809	53.75
845.191	53.77
845.574	53.75
845.957	53.76
846.339	53.78
846.722	53.78
847.104	53.78
847.487	53.77
847.869	53.8
848.252	53.81
848.634	53.83
849.016	53.87
849.398	53.85
849.78	53.84
850.162	53.83
850.544	53.82
850.926	53.83
851.307	53.84
851.689	53.87
852.071	53.84
852.452	53.82
852.834	53.81
853.215	53.77
853.597	53.79
853.978	53.78
854.359	53.78
854.741	53.79
855.122	53.77
855.503	53.75
855.884	53.73
856.265	53.72
856.646	53.71
857.026	53.72
857.407	53.72
857.788	53.73
858.169	53.75
858.549	53.77
858.93	53.76
859.31	53.79
859.69	53.81
860.071	53.83
860.451	53.85
860.831	53.84
861.211	53.82
861.591	53.81
861.971	53.8
862.351	53.82
862.731	53.83
863.111	53.82
863.491	53.81
863.87	53.78
864.25	53.76
864.629	53.76
865.009	53.78
865.388	53.77
865.768	53.78
866.147	53.78
866.526	53.75
866.905	53.74
867.284	53.75
867.663	53.75
868.042	53.78
868.421	53.8
868.8	53.81
869.179	53.8
869.558	53.81
869.936	53.81
870.315	53.82
870.693	53.83
871.072	53.85
871.45	53.87
871.828	53.89
872.207	53.9
872.585	53.89
872.963	53.9
873.341	53.89
873.719	53.92
874.097	53.94
874.475	53.95
874.853	53.95
875.23	53.98
875.608	53.97
875.986	53.99
876.363	53.98
876.741	53.99
877.118	54.01
877.495	54.02
877.873	54.01
878.25	54.03
878.627	54.04
879.004	54.03
879.381	54
879.758	53.96
880.135	53.95
880.512	53.92
880.889	53.91
881.265	53.88
881.642	53.84
882.019	53.82
882.395	53.77
882.772	53.75
883.148	53.72
883.524	53.7
883.901	53.7
884.277	53.66
884.653	53.61
885.029	53.58
885.405	53.56
885.781	53.54
886.157	53.52
886.532	53.51
886.908	53.49
887.284	53.48
887.659	53.43
888.035	53.4
888.411	53.37
888.786	53.39
889.161	53.39
889.537	53.4
889.912	53.4
890.287	53.41
890.662	53.38
891.037	53.38
891.412	53.36
891.787	53.39
892.162	53.41
892.536	53.42
892.911	53.42
893.286	53.41
893.66	53.42
894.035	53.42
894.409	53.4
894.784	53.42
895.158	53.42
895.532	53.45
895.906	53.46
896.281	53.45
896.655	53.46
897.029	53.47
897.402	53.48
897.776	53.5
898.15	53.51
898.524	53.58
898.898	53.6
899.271	53.63
899.645	53.63
900.018	53.66
900.392	53.69
900.765	53.73
901.138	53.75
901.511	53.76
901.884	53.78
902.258	53.79
902.631	53.79
903.003	53.81
903.376	53.8
903.749	53.83
904.122	53.84
904.495	53.86
904.867	53.85
905.24	53.89
905.612	53.9
905.985	53.89
906.357	53.9
906.729	53.88
907.102	53.87
907.474	53.91
907.846	53.91
908.218	53.9
908.59	53.93
908.962	53.94
909.334	53.93
909.705	53.92
910.077	53.94
910.449	53.95
910.82	53.97
911.192	53.97
911.563	53.95
911.935	53.95
912.306	53.98
912.677	53.99
913.048	54
913.419	53.99
913.79	54.01
914.161	54.04
914.532	54.06
914.903	54.08
915.274	54.11
915.645	54.14
916.015	54.15
916.386	54.13
916.756	54.09
917.127	54.12
917.497	54.12
917.868	54.15
918.238	54.13
918.608	54.13
918.978	54.12
919.348	54.14
919.718	54.12
920.088	54.14
920.458	54.16
920.828	54.17
921.198	54.13
921.567	54.16
921.937	54.16
922.306	54.17
922.676	54.18
923.045	54.18
923.415	54.15
923.784	54.16
924.153	54.2
924.522	54.22
924.891	54.24
925.26	54.29
925.629	54.31
925.998	54.29
926.367	54.33
926.736	54.33
927.104	54.33
927.473	54.32
927.842	54.31
928.21	54.31
928.578	54.29
928.947	54.26
929.315	54.26
929.683	54.25
930.051	54.23
930.42	54.22
930.788	54.22
931.156	54.18
931.523	54.24
931.891	54.31
932.259	54.33
932.627	54.39
932.994	54.41
933.362	54.43
933.729	54.48
934.097	54.53
934.464	54.58
934.831	54.64
935.199	54.74
935.566	54.78
935.933	54.73
936.3	54.76
936.667	54.75
937.034	54.88
937.401	54.92
937.767	54.97
938.134	55.03
938.501	55.08
938.867	55.12
939.234	55.16
939.6	55.13
939.967	55.2
940.333	55.21
940.699	55.21
941.065	55.1
941.431	55.03
941.798	55
942.163	54.96
942.529	54.88
942.895	54.84
943.261	54.78
943.627	54.77
943.992	54.67
944.358	54.6
944.723	54.57
945.089	54.52
945.454	54.52
945.82	54.46
946.185	54.44
946.55	54.36
946.915	54.29
947.28	54.27
947.645	54.26
948.01	54.27
948.375	54.24
948.74	54.15
949.104	54.19
949.469	54.13
949.834	54.07
950.198	54.01
950.562	53.97
950.927	53.96
951.291	53.86
951.655	53.8
952.02	53.78
952.384	53.74
952.748	53.75
953.112	53.76
953.476	53.71
953.839	53.64
954.203	53.63
954.567	53.66
954.931	53.6
955.294	53.63
955.658	53.67
956.021	53.67
956.385	53.61
956.748	53.57
957.111	53.46
957.474	53.48
957.837	53.5
958.2	53.45
958.563	53.39
958.926	53.43
959.289	53.42
959.652	53.4
960.015	53.39
960.377	53.47
960.74	53.5
961.102	53.53
961.465	53.59
961.827	53.68
962.189	53.75
962.552	53.8
962.914	53.77
963.276	53.82
963.638	53.83
964	53.87
964.362	53.88
964.724	53.8
965.085	53.79
965.447	53.76
965.809	53.73
966.17	53.65
966.532	53.66
966.893	53.73
967.255	53.72
967.616	53.72
967.977	53.67
968.338	53.65
968.699	53.76
969.061	53.79
969.421	53.79
969.782	53.78
970.143	53.9
970.504	53.93
970.865	53.95
971.225	53.98
971.586	53.98
971.946	54.05
972.307	54.06
972.667	54.05
973.027	54.07
973.388	54.06
973.748	54.1
974.108	54.11
974.468	54.07
974.828	54.11
975.188	54.04
975.548	53.98
975.907	54.07
976.267	54.06
976.627	54.13
976.986	54.04
977.346	54.06
977.705	54
978.064	53.97
978.424	54
978.783	53.93
979.142	54
979.501	54.13
979.86	54.16
980.219	54.19
980.578	54.15
980.937	54.23
981.296	54.27
981.654	54.34
982.013	54.43
982.371	54.47
982.73	54.53
983.088	54.5
983.447	54.44
983.805	54.44
984.163	54.42
984.521	54.45
984.879	54.42
985.237	54.45
985.595	54.56
985.953	54.51
986.311	54.49
986.669	54.57
987.026	54.71
987.384	54.81
987.741	54.74
988.099	54.93
988.456	54.99
988.814	55.12
989.171	55.13
989.528	55.12
989.885	55.17
990.242	55.24
990.599	55.27
990.956	55.34
991.313	55.35
991.67	55.4
992.027	55.55
992.383	55.64
992.74	55.69
993.096	55.76
993.453	55.75
993.809	55.76
994.165	55.82
994.522	55.9
994.878	55.93
995.234	55.96
995.59	56.06
995.946	55.96
996.302	56
996.658	56.1
997.013	56.11
997.369	56.16
997.725	56.33
998.08	56.47
998.436	56.42
998.791	56.33
999.147	56.34
999.502	56.38
999.857	56.28
1000.212	56.28
1000.567	56.33
1000.922	56.43
1001.277	56.63
1001.632	56.54
1001.987	56.51
1002.342	56.5
1002.696	56.6
1003.051	56.91
1003.406	57.01
1003.76	57.1
1004.114	57.15
1004.469	57.25
1004.823	57.55
1005.177	57.52
1005.531	57.58
1005.885	57.7
1006.239	57.93
1006.593	58.18
1006.947	58.06
1007.301	57.97
1007.655	58.03
1008.008	58.14
1008.362	58.34
1008.715	58.21
1009.069	58.39
1009.422	58.59
1009.776	58.6
1010.129	58.52
1010.482	58.56
1010.835	58.65
1011.188	58.86
1011.541	59.08
1011.894	59.19
1012.247	59.11
1012.6	59.17
1012.952	59.21
1013.305	59.28
1013.657	59.57
1014.01	59.81
1014.362	59.67
1014.715	59.82
1015.067	60.1
1015.419	60.31
1015.771	60.37
1016.123	60.5
1016.475	60.64
1016.827	60.7
1017.179	60.86
1017.531	60.8
1017.883	60.78
1018.234	61.25
1018.586	61.53
1018.938	61.77
1019.289	61.7
1019.64	61.79
1019.992	61.86
1020.343	61.94
1020.694	62.17
1021.045	62.35
1021.396	62.74
1021.747	63.02
1022.098	63.01
1022.449	63.04
1022.8	62.99
1023.151	63.11
1023.501	63.58
1023.852	63.67
1024.202	63.86
1024.553	63.85
1024.903	64.02
1025.253	64.14
1025.604	64.29
1025.954	64.16
1026.304	64.28
1026.654	64.46
1027.004	64.71
1027.354	64.73
1027.703	64.91
1028.053	64.96
1028.403	65.35
1028.753	65.12
1029.102	65.14
1029.452	65.3
1029.801	65.73
1030.15	65.74
1030.499	65.6
897.758	1932.67
901.051	1934.35
904.343	1926.36
907.636	1963.43
910.928	1913.25
914.22	1906.86
917.511	1878.13
920.803	1800.01
924.094	1789.64
927.384	1749.17
930.675	1673.07
933.965	1660.89
937.255	1568.19
940.544	1504.86
943.834	1428.94
947.123	1413.76
950.411	1334.82
953.7	1306.54
956.988	1231.13
960.276	1181.68
963.563	1164.58
966.851	1122.53
970.138	1114.26
973.424	1077.66
976.711	1084.97
979.997	1031.49
983.283	1027.91
986.568	1005.06
989.853	970.6
993.138	956.53
996.423	919.54
999.708	893.12
1002.992	885.42
1006.275	841.34
1009.559	832.82
1012.842	802.7
1016.125	780.63
1019.408	765.57
1022.69	753.81
1025.972	741.56
1029.254	722.53
1032.536	711.11
1035.817	695.4
1039.098	686.03
1042.379	671.97
1045.659	665.28
1048.939	648.53
1052.219	635.2
1055.498	624.33
1058.778	611.94
1062.057	595.19
1065.335	588.51
1068.614	581.59
1071.892	575.96
1075.17	555.65
1078.447	545.9
1081.724	541.97
1085.001	537.52
1088.278	526.43
1091.554	516.37
1094.83	515.44
1098.106	513.95
1101.382	509.37
1104.657	504.74
1107.932	496.23
1111.206	500.65
1114.481	487.95
1117.755	482.25
1121.029	478.69
1124.302	478.76
1127.575	468.73
1130.848	462.85
1134.121	456.85
1137.393	454.92
1140.665	445.57
1143.937	443.23
1147.208	437.92
1150.48	438.24
1153.75	431.78
1157.021	424.89
1160.291	425.14
1163.561	421.21
1166.831	420.42
1170.101	418.36
1173.37	416.1
1176.639	416.87
1179.907	412.2
1183.176	408.69
1186.444	407.22
1189.711	408.2
1192.979	407.21
1196.246	403.11
1199.513	404.66
1202.78	402.55
1206.046	401.97
1209.312	398.17
1212.578	399.37
1215.843	402.73
1219.108	399.39
1222.373	408.62
1225.638	411.02
1228.902	418.02
1232.166	417.89
1235.43	422.84
1238.693	428.24
1241.956	430.47
1245.219	438.32
1248.482	436.51
1251.744	436.98
1255.006	439.17
1258.268	427.82
1261.529	423.43
1264.79	418.43
1268.051	417.1
1271.312	410.53
1274.572	405.51
1277.832	401.25
1281.092	394.75
1284.351	392.54
1287.61	392.38
1290.869	386.13
1294.128	383.54
1297.386	383.51
1300.644	380
1303.902	381.05
1307.159	378.66
1310.416	379.81
1313.673	380.02
1316.93	383.1
1320.186	383.15
1323.442	384.55
1326.697	391.62
1329.953	392.32
1333.208	394.4
1336.463	398.88
1339.717	400.18
1342.972	404.96
1346.226	407.49
1349.479	407.32
1352.733	410.24
1355.986	411.74
1359.238	410.83
1362.491	414.35
1365.743	418.69
1368.995	418.28
1372.247	416.3
1375.498	417.04
1378.749	422.18
1382	416.08
1385.251	419.21
1388.501	415.72
1391.751	419.75
1395	416.62
1398.25	413.46
1401.499	411.45
1404.748	410.79
1407.996	407.72
1411.244	405.09
1414.492	403.11
1417.74	400.73
1420.987	393.75
1424.234	394.63
1427.481	387.44
1430.728	389.23
1433.974	384.03
1437.22	381.16
1440.465	380.79
1443.711	378.92
1446.956	377.6
1450.201	370.31
1453.445	367.24
1456.689	366.56
1459.933	359.36
1463.177	357.62
1466.42	351.02
1469.663	347.1
1472.906	345.42
1476.148	335.39
1479.391	330.65
1482.633	326.39
1485.874	322.74
1489.115	320.91
1492.356	315.76
1495.597	315.21
1498.838	310.12
1502.078	308.07
1505.318	306.55
1508.557	306.21
1511.797	306.49
1515.036	305.17
1518.274	304.21
1521.513	300.03
1524.751	300.28
1527.989	299.72
1531.227	298.26
1534.464	299.76
1537.701	296.8
1540.938	295.96
1544.174	292.31
1547.41	291.39
1550.646	290.11
1553.882	290.21
1557.117	287.46
1560.352	284.9
1563.587	284.24
1566.821	282.11
1570.055	277.83
1573.289	276.35
1576.523	276.28
1579.756	273.47
1582.989	272.2
1586.222	271.86
1589.454	269.8
1592.686	271.73
1595.918	270.9
1599.15	269.89
1602.381	269.92
1605.612	270.38
1608.843	271.92
1612.073	270.74
1615.303	272.86
1618.533	273.1
1621.762	272.06
1624.992	272.21
1628.221	272.44
1631.449	271.78
1634.678	271.02
1637.906	272.44
1641.134	272.62
1644.361	271.73
1647.588	273.19
1650.815	271.48
1654.042	269.89
1657.269	271.84
1660.495	272.23
1663.72	269.51
1666.946	270.83
1670.171	271.58
1673.396	271.46
1676.621	271.24
1679.845	270.93
1683.069	270.83
1686.293	272.82
1689.517	274.7
1692.74	273.93
1695.963	275.57
1699.185	279.7
1702.408	279.62
1705.63	280.52
1708.852	281.5
1712.073	281.71
1715.294	282.77
1718.515	283.83
1721.736	283.49
1724.956	284.08
1728.176	284.08
1731.396	286.39
1734.616	285.59
1737.835	286.54
1741.054	284.92
1744.272	285.69
1747.491	289.2
1750.709	289.69
1753.927	289.83
1757.144	288.29
1760.361	290.51
1763.578	290.75
1766.795	289.8
1770.011	291.6
1773.227	291.69
1776.443	295.38
1779.658	297.07
1782.874	295.43
1786.089	297.01
1789.303	298.15
1792.518	302.17
1795.732	301.26
1798.945	305.2
1802.159	304.99
1805.372	306.39
1808.585	312.31
1811.797	313.13
1815.01	312.01
1818.222	315.2
1821.434	316.72
1824.645	318.29
1827.856	323.85
1831.067	327.26
1834.278	324.39
1837.488	327.35
1840.698	329.5
1843.908	325.57
1847.117	328.45
1850.326	331.62
1853.535	329.82
1856.744	335.98
1859.952	335.44
1863.16	334.62
1866.368	331.38
1869.575	338.15
1872.782	331.86
1875.989	331.22
1879.196	330.52
1882.402	328
1885.608	329.87
1888.814	332.15
1892.019	330.5
1895.224	330.13
1898.429	327.66
1901.634	331.16
1904.838	330.48
1908.042	336.29
1911.246	336.83
1914.449	339.18
1917.652	339.19
1920.855	338.93
1924.058	337.84
1927.26	336.33
1930.462	338.45
1933.664	342.72
1936.865	339.18
1940.066	339.05
1943.267	336.46
1946.467	336.6
1949.668	339.3
1952.868	343.22
1956.067	342.28
1959.267	343.06
1962.466	344.43
1965.665	341.89
1968.863	341.95
1972.061	347.44
1975.259	350.67
1978.457	353.2
1981.654	355.34
1984.852	355.91
1988.048	354.77
1991.245	357.62
1994.441	362.26
1997.637	363.98
2000.833	371.71
2004.028	376.84
2007.223	377.8
2010.418	382.56
2013.613	387.68
2016.807	392.64
2020.001	395.37
2023.194	401.83
2026.388	412.03
2029.581	420.48
2032.774	425.39
2035.966	432.78
2039.158	434.3
2042.35	443.43
2045.542	444.34
2048.733	452.27
2051.924	458.31
2055.115	466.02
2058.306	466.35
2061.496	471.94
2064.686	471.11
2067.875	479.2
2071.065	481.17
2074.254	478.66
2077.442	483.44
2080.631	485.95
2083.819	490.85
2087.007	490.11
2090.195	496.15
2093.382	500.52
2096.569	495.14
2099.756	504.09
2102.942	504.61
2106.128	510.98
2109.314	522.28
2112.5	520.25
2115.685	531.56
2118.87	532.82
2122.055	544.2
2125.239	548.63
2128.424	555.89
2131.608	560.3
2134.791	567.73
2137.974	570.54
2141.157	571.38
2144.34	571.76
2147.523	582.62
2150.705	578.19
2153.887	582.02
2157.068	583.49
2160.25	577.05
2163.431	579.41
2166.611	586.41
2169.792	597.05
2172.972	605.4
2176.152	606.88
2179.331	616.68
2182.511	626.7
2185.69	634.93
2188.868	649.15
2192.047	650.28
2195.225	668.64
2198.403	686.83
2201.58	698.32
2204.758	712.5
2207.935	727.19
2211.111	740.8
2214.288	749.76
2217.464	751.14
2220.64	760.42
2223.815	772.14
2226.991	802.78
2230.166	806.43
2233.34	821.82
2236.515	833.97
2239.689	833.97
2242.863	836.48
2246.036	865.94
2249.209	855.13
2252.382	867.17
2255.555	897.91
2258.727	899.02
2261.9	903.69
2265.071	912.3
2268.243	925.78
2271.414	936.53
2274.585	961.06
2277.756	971.8
2280.926	972.34
2284.096	996.8
2287.266	1020.9
2290.436	1026.3
2293.605	1052.92
2296.774	1089.32
2299.942	1122.21
2303.111	1126.79
2306.279	1158.17
2309.447	1170.02
2312.614	1197.89
2315.781	1234.77
2318.948	1292.73
2322.115	1273.23
2325.281	1342.56
2328.447	1311.06
2331.613	1365.35
2334.779	1348.98
2337.944	1408.15
2341.109	1420.49
2344.274	1458.09
2347.438	1515.38
2350.602	1514.73
2353.766	1557.37
2356.929	1580.86
2360.092	1566.61
2363.255	1686.41
2366.418	1675.24
2369.58	1713.26
2372.742	1817.45
2375.904	1863.37
2379.066	1850.93
2382.227	1814.18
2385.388	1967.02
2388.548	1975.99
2391.709	2004.31
2394.869	2231.03
2398.029	2126.46
2401.188	2191.16
2404.347	2178.73
2407.506	2146.18
2410.665	2209.55
2413.823	2342.81
2416.981	2478.16
2420.139	2396.3
2423.296	2367.87
2426.453	2465.23
2429.61	2370.99
2432.767	2489.18
2435.923	2467.09
2439.079	2685.17
2442.235	2715.22
2445.391	2684.63
2448.546	2675.15
2451.701	2598.63
2454.855	2599.44
2458.009	2756.54
2461.163	2867.11
2464.317	2975.93
2467.471	3053.13
2470.624	3051.9
2473.777	2973.92
2476.929	2910.76
2480.082	2826.72
2483.234	2784.17
2486.385	2915.21
2489.537	2926.16
2492.688	3045.1
2495.839	2957.46
2498.989	2900.9
2502.14	2915.94
2505.29	2950.09
2508.439	2997.82
2511.589	2981.96
2514.738	3249.1
2517.887	3183.18
2521.035	3380.1
2524.183	3406.24
2527.331	3428.6
2530.479	3427.43
2533.627	3446.46
