Data from C_2_DIV_WI_4N_Splice17_13-21-56-450.txt Node
Date: Sat Mar 07 13:21:56 EST 2020
User: sa697716
Spectrometer: NQ5500242
Trigger mode: 0
Integration Time (sec): 1.450000E-1
Scans to average: 20
Nonlinearity correction enabled: false
Boxcar width: 5
Storing dark spectrum: false
XAxis mode: Wavelengths
Number of Pixels in Spectrum: 512
>>>>>Begin Spectral Data<<<<<
187.83	213.75
188.298	239
188.766	216.29
189.233	181.68
189.701	183.88
190.169	208.5
190.636	220.08
191.104	339.4
191.571	293.56
192.039	28.96
192.506	-224.51
192.974	120.72
193.441	398.64
193.908	203.17
194.375	137.81
194.842	41.65
195.31	72.49
195.777	51.13
196.244	46.85
196.711	46.42
197.177	47.32
197.644	45.62
198.111	45.95
198.578	45.87
199.045	46.08
199.511	46.24
199.978	46.87
200.445	47.17
200.911	47.02
201.378	46.83
201.844	46.86
202.31	46.61
202.777	46.84
203.243	46.34
203.709	45.8
204.176	45.4
204.642	45.07
205.108	44.53
205.574	43.87
206.04	43.15
206.506	42.8
206.972	42.59
207.438	42.17
207.903	41.37
208.369	40.65
208.835	39.99
209.301	39.26
209.766	38.25
210.232	37.33
210.697	36.27
211.163	35.59
211.628	34.67
212.094	33.59
212.559	32.8
213.024	32.27
213.49	31.73
213.955	30.93
214.42	30.15
214.885	29.14
215.35	27.98
215.815	26.61
216.28	24.64
216.745	22.59
217.21	20.63
217.675	18.74
218.14	17.14
218.604	15.84
219.069	14.72
219.534	13.75
219.998	12.97
220.463	12.3
220.927	11.69
221.392	11.28
221.856	10.93
222.32	10.58
222.785	10.29
223.249	10.04
223.713	9.76
224.177	9.56
224.642	9.35
225.106	9.14
225.57	8.94
226.034	8.78
226.497	8.61
226.961	8.46
227.425	8.32
227.889	8.19
228.353	8.04
228.816	7.92
229.28	7.77
229.744	7.68
230.207	7.56
230.671	7.44
231.134	7.34
231.597	7.24
232.061	7.14
232.524	7.04
232.987	6.94
233.45	6.87
233.914	6.77
234.377	6.69
234.84	6.58
235.303	6.52
235.766	6.46
236.229	6.39
236.691	6.32
237.154	6.25
237.617	6.19
238.08	6.13
238.542	6.05
239.005	6.01
239.468	5.95
239.93	5.91
240.393	5.87
240.855	5.8
241.317	5.74
241.78	5.69
242.242	5.63
242.704	5.59
243.166	5.54
243.629	5.5
244.091	5.43
244.553	5.38
245.015	5.33
245.477	5.28
245.939	5.23
246.4	5.18
246.862	5.13
247.324	5.09
247.786	5.04
248.247	4.99
248.709	4.93
249.17	4.88
249.632	4.86
250.093	4.81
250.555	4.77
251.016	4.73
251.477	4.69
251.939	4.66
252.4	4.62
252.861	4.59
253.322	4.56
253.783	4.53
254.244	4.51
254.705	4.47
255.166	4.43
255.627	4.4
256.088	4.37
256.549	4.35
257.009	4.31
257.47	4.28
257.931	4.24
258.391	4.2
258.852	4.16
259.312	4.13
259.773	4.09
260.233	4.07
260.694	4.04
261.154	4
261.614	3.98
262.074	3.94
262.534	3.92
262.994	3.89
263.455	3.87
263.915	3.85
264.374	3.82
264.834	3.8
265.294	3.78
265.754	3.77
266.214	3.75
266.673	3.73
267.133	3.71
267.593	3.7
268.052	3.69
268.512	3.68
268.971	3.67
269.431	3.66
269.89	3.65
270.349	3.64
270.809	3.62
271.268	3.61
271.727	3.6
272.186	3.59
272.645	3.58
273.104	3.57
273.563	3.56
274.022	3.55
274.481	3.54
274.94	3.53
275.399	3.51
275.857	3.51
276.316	3.5
276.775	3.49
277.233	3.49
277.692	3.48
278.15	3.47
278.609	3.46
279.067	3.46
279.525	3.45
279.984	3.45
280.442	3.44
280.9	3.44
281.358	3.43
281.816	3.43
282.274	3.42
282.732	3.41
283.19	3.4
283.648	3.39
284.106	3.38
284.564	3.37
285.021	3.37
285.479	3.35
285.937	3.34
286.394	3.34
286.852	3.32
287.309	3.32
287.767	3.31
288.224	3.3
288.682	3.28
289.139	3.27
289.596	3.26
290.053	3.24
290.511	3.22
290.968	3.22
291.425	3.2
291.882	3.19
292.339	3.17
292.796	3.16
293.252	3.15
293.709	3.15
294.166	3.14
294.623	3.13
295.079	3.13
295.536	3.12
295.992	3.11
296.449	3.1
296.905	3.09
297.362	3.09
297.818	3.09
298.274	3.08
298.731	3.07
299.187	3.06
299.643	3.04
300.099	3.04
300.555	3.03
301.011	3.03
301.467	3.02
301.923	3.01
302.379	3
302.835	3
303.291	2.99
303.746	2.99
304.202	3
304.658	3
305.113	3
305.569	3
306.024	2.99
306.479	2.98
306.935	2.98
307.39	2.98
307.845	2.98
308.301	2.98
308.756	2.97
309.211	2.97
309.666	2.98
310.121	2.98
310.576	2.97
311.031	2.98
311.486	2.99
311.94	3
312.395	2.99
312.85	2.99
313.305	2.98
313.759	2.99
314.214	2.98
314.668	2.98
315.123	2.98
315.577	2.98
316.032	2.98
316.486	2.97
316.94	2.97
317.394	2.97
317.849	2.96
318.303	2.95
318.757	2.94
319.211	2.93
319.665	2.91
320.119	2.9
320.572	2.88
321.026	2.87
321.48	2.86
321.934	2.85
322.387	2.84
322.841	2.84
323.295	2.84
323.748	2.84
324.202	2.84
324.655	2.83
325.108	2.83
325.562	2.83
326.015	2.84
326.468	2.84
326.921	2.84
327.374	2.84
327.827	2.84
328.28	2.84
328.733	2.84
329.186	2.84
329.639	2.84
330.092	2.85
330.545	2.85
330.997	2.85
331.45	2.85
331.903	2.86
332.355	2.87
332.808	2.87
333.26	2.87
333.713	2.87
334.165	2.86
334.617	2.87
335.069	2.86
335.522	2.87
335.974	2.88
336.426	2.87
336.878	2.85
337.33	2.86
337.782	2.86
338.234	2.87
338.686	2.87
339.137	2.88
339.589	2.88
340.041	2.88
340.493	2.87
340.944	2.85
341.396	2.85
341.847	2.85
342.299	2.83
342.75	2.82
343.201	2.8
343.653	2.79
344.104	2.77
344.555	2.76
345.006	2.74
345.457	2.74
345.908	2.74
346.359	2.74
346.81	2.73
347.261	2.73
347.712	2.73
348.163	2.72
348.613	2.72
349.064	2.73
349.515	2.73
349.965	2.74
350.416	2.73
350.866	2.73
351.317	2.73
351.767	2.73
352.217	2.73
352.668	2.73
353.118	2.73
353.568	2.72
354.018	2.72
354.468	2.73
354.918	2.73
355.368	2.72
355.818	2.73
356.268	2.73
356.718	2.74
357.168	2.74
357.617	2.74
358.067	2.74
358.517	2.76
358.966	2.76
359.416	2.77
359.865	2.77
360.315	2.78
360.764	2.78
361.213	2.78
361.663	2.77
362.112	2.78
362.561	2.79
363.01	2.79
363.459	2.78
363.908	2.78
364.357	2.78
364.806	2.78
365.255	2.78
365.703	2.79
366.152	2.81
366.601	2.82
367.05	2.83
367.498	2.83
367.947	2.84
368.395	2.85
368.844	2.86
369.292	2.86
369.74	2.87
370.189	2.88
370.637	2.88
371.085	2.87
371.533	2.88
371.981	2.88
372.429	2.89
372.877	2.9
373.325	2.92
373.773	2.92
374.221	2.92
374.669	2.94
375.116	2.94
375.564	2.96
376.012	2.97
376.459	2.98
376.907	3
377.354	3.01
377.801	3.04
378.249	3.05
378.696	3.08
379.143	3.09
379.591	3.1
380.038	3.12
380.485	3.14
380.932	3.16
381.379	3.19
381.826	3.2
382.273	3.22
382.72	3.23
383.166	3.24
383.613	3.26
384.06	3.28
384.506	3.3
384.953	3.32
385.4	3.34
385.846	3.37
386.292	3.38
386.739	3.41
387.185	3.43
387.631	3.46
388.078	3.49
388.524	3.51
388.97	3.54
389.416	3.57
389.862	3.6
390.308	3.64
390.754	3.66
391.2	3.7
391.645	3.72
392.091	3.77
392.537	3.8
392.983	3.83
393.428	3.87
393.874	3.91
394.319	3.93
394.765	3.96
395.21	3.98
395.655	4.02
396.101	4.05
396.546	4.07
396.991	4.09
397.436	4.11
397.881	4.15
398.326	4.17
398.771	4.2
399.216	4.23
399.661	4.26
400.106	4.28
400.551	4.3
400.995	4.31
401.44	4.33
401.885	4.36
402.329	4.38
402.774	4.4
403.218	4.43
403.663	4.45
404.107	4.47
404.551	4.49
404.995	4.51
405.44	4.52
405.884	4.54
406.328	4.57
406.772	4.58
407.216	4.6
407.66	4.6
408.104	4.59
408.547	4.6
408.991	4.61
409.435	4.62
409.879	4.64
410.322	4.67
410.766	4.68
411.209	4.71
411.653	4.74
412.096	4.76
412.54	4.79
412.983	4.82
413.426	4.86
413.869	4.87
414.312	4.9
414.756	4.91
415.199	4.91
415.642	4.93
416.085	4.94
416.527	4.93
416.97	4.91
417.413	4.92
417.856	4.91
418.298	4.89
418.741	4.9
419.184	4.9
419.626	4.91
420.069	4.94
420.511	4.94
420.953	4.93
421.396	4.95
421.838	4.96
422.28	4.97
422.722	4.99
423.164	4.99
423.606	5
424.048	5
424.49	4.99
424.932	4.97
425.374	4.95
425.816	4.93
426.258	4.92
426.699	4.91
427.141	4.9
427.582	4.9
428.024	4.91
428.465	4.9
428.907	4.9
429.348	4.88
429.789	4.88
430.231	4.9
430.672	4.91
431.113	4.92
431.554	4.94
431.995	4.93
432.436	4.94
432.877	4.96
433.318	4.97
433.759	5
434.2	5.03
434.64	5.05
435.081	5.07
435.522	5.09
435.962	5.11
436.403	5.14
436.843	5.16
437.284	5.15
437.724	5.16
438.164	5.15
438.604	5.17
439.045	5.18
439.485	5.19
439.925	5.19
440.365	5.2
440.805	5.21
441.245	5.22
441.685	5.26
442.125	5.3
442.564	5.31
443.004	5.34
443.444	5.36
443.883	5.38
444.323	5.39
444.762	5.41
445.202	5.45
445.641	5.48
446.081	5.51
446.52	5.52
446.959	5.55
447.398	5.58
447.837	5.62
448.276	5.62
448.716	5.65
449.154	5.69
449.593	5.73
450.032	5.76
450.471	5.77
450.91	5.78
451.349	5.81
451.787	5.8
452.226	5.81
452.664	5.82
453.103	5.83
453.541	5.84
453.98	5.85
454.418	5.83
454.856	5.83
455.295	5.82
455.733	5.8
456.171	5.79
456.609	5.8
457.047	5.78
457.485	5.77
457.923	5.76
458.361	5.75
458.798	5.74
459.236	5.74
459.674	5.73
460.111	5.73
460.549	5.76
460.987	5.76
461.424	5.77
461.862	5.77
462.299	5.78
462.736	5.78
463.173	5.78
463.611	5.8
464.048	5.81
464.485	5.8
464.922	5.81
465.359	5.8
465.796	5.82
466.233	5.82
466.67	5.83
467.106	5.83
467.543	5.83
467.98	5.83
468.416	5.82
468.853	5.82
469.29	5.8
469.726	5.8
470.162	5.8
470.599	5.78
471.035	5.76
471.471	5.75
471.907	5.76
472.344	5.76
472.78	5.76
473.216	5.76
473.652	5.77
474.088	5.78
474.523	5.8
474.959	5.79
475.395	5.77
475.831	5.78
476.266	5.78
476.702	5.76
477.138	5.75
477.573	5.76
478.008	5.75
478.444	5.74
478.879	5.75
479.314	5.73
479.75	5.74
480.185	5.73
480.62	5.73
481.055	5.72
481.49	5.72
481.925	5.72
482.36	5.73
482.795	5.73
483.229	5.73
483.664	5.74
484.099	5.74
484.534	5.75
484.968	5.77
485.403	5.79
485.837	5.81
486.271	5.84
486.706	5.86
487.14	5.87
487.574	5.9
488.009	5.93
488.443	5.95
488.877	5.98
489.311	6.02
489.745	6.06
490.179	6.1
490.613	6.15
491.046	6.2
491.48	6.24
491.914	6.3
492.348	6.35
492.781	6.41
493.215	6.47
493.648	6.54
494.082	6.61
494.515	6.68
494.948	6.74
495.382	6.81
495.815	6.89
496.248	6.97
496.681	7.07
497.114	7.15
497.547	7.24
497.98	7.35
498.413	7.44
498.846	7.54
499.279	7.65
499.711	7.76
500.144	7.89
500.577	8.02
501.009	8.13
501.442	8.26
501.874	8.4
502.306	8.55
502.739	8.7
503.171	8.85
503.603	9.01
504.036	9.19
504.468	9.35
504.9	9.52
505.332	9.69
505.764	9.88
506.196	10.07
506.627	10.27
507.059	10.47
507.491	10.68
507.923	10.88
508.354	11.1
508.786	11.33
509.217	11.56
509.649	11.79
510.08	12.02
510.512	12.27
510.943	12.51
511.374	12.77
511.805	13.03
512.237	13.27
512.668	13.53
513.099	13.79
513.53	14.05
513.961	14.32
514.391	14.59
514.822	14.87
515.253	15.12
515.684	15.4
516.114	15.66
516.545	15.92
516.975	16.2
517.406	16.47
517.836	16.72
518.267	17
518.697	17.26
519.127	17.52
519.558	17.78
519.988	18.05
520.418	18.29
520.848	18.53
521.278	18.78
521.708	19.2
522.138	19.44
522.567	19.67
522.997	19.89
523.427	20.13
523.857	20.34
524.286	20.56
524.716	20.75
525.145	20.96
525.575	21.16
526.004	21.35
526.433	21.36
526.863	21.54
527.292	21.71
527.721	21.86
528.15	22.02
528.579	22.16
529.008	22.29
529.437	22.42
529.866	22.54
530.295	22.67
530.724	22.77
531.152	22.89
531.581	22.98
532.01	23.09
532.438	23.19
532.867	23.28
533.295	23.35
533.723	23.43
534.152	23.51
534.58	23.59
535.008	23.64
535.436	23.72
535.865	23.78
536.293	23.84
536.721	23.88
537.149	23.91
537.576	23.95
538.004	24.01
538.432	24.05
538.86	24.08
539.287	24.11
539.715	24.16
540.143	24.19
540.57	24.22
540.998	24.25
541.425	24.29
541.852	24.32
542.28	24.35
542.707	24.37
543.134	24.39
543.561	24.43
543.988	24.46
544.415	24.46
544.842	24.47
545.269	24.49
545.696	24.52
546.123	24.53
546.549	24.56
546.976	24.59
547.403	24.61
547.829	24.62
548.256	24.64
548.682	24.64
549.108	24.66
549.535	24.69
549.961	24.68
550.387	24.69
550.813	24.68
551.24	24.67
551.666	24.67
552.092	24.66
552.518	24.65
552.943	24.64
553.369	24.63
553.795	24.61
554.221	24.58
554.646	24.56
555.072	24.54
555.498	24.49
555.923	24.45
556.349	24.4
556.774	24.35
557.199	24.29
557.625	24.22
558.05	24.17
558.475	24.12
558.9	24.07
559.325	24
559.75	23.92
560.175	23.86
560.6	23.78
561.025	23.7
561.449	23.61
561.874	23.52
562.299	23.43
562.723	23.33
563.148	23.22
563.572	23.08
563.997	22.97
564.421	22.85
564.846	22.72
565.27	22.61
565.694	22.5
566.118	22.39
566.542	22.29
566.966	22.15
567.39	22.03
567.814	21.89
568.238	21.78
568.662	21.66
569.086	21.53
569.509	21.42
569.933	21.31
570.357	21.17
570.78	21.04
571.204	20.91
571.627	20.79
572.05	20.66
572.474	20.56
572.897	20.44
573.32	20.33
573.743	20.21
574.166	20.09
574.589	19.96
575.012	19.86
575.435	19.76
575.858	19.65
576.281	19.56
576.704	19.46
577.126	19.35
577.549	19.26
577.972	19.17
578.394	19.1
578.817	19.02
579.239	18.95
579.661	18.87
580.084	18.79
580.506	18.72
580.928	18.63
581.35	18.57
581.772	18.49
582.194	18.42
582.616	18.35
583.038	18.28
583.46	18.2
583.882	18.13
584.303	18.05
584.725	17.99
585.147	17.94
585.568	17.9
585.99	17.85
586.411	17.8
586.833	17.75
587.254	17.69
587.675	17.64
588.096	17.58
588.518	17.53
588.939	17.49
589.36	17.44
589.781	17.37
590.202	17.32
590.623	17.28
591.043	17.22
591.464	17.18
591.885	17.12
592.305	17.08
592.726	17.07
593.147	17.03
593.567	17
593.987	16.95
594.408	16.91
594.828	16.88
595.248	16.84
595.669	16.81
596.089	16.77
596.509	16.75
596.929	16.72
597.349	16.67
597.769	16.63
598.189	16.6
598.608	16.59
599.028	16.57
599.448	16.53
599.867	16.5
600.287	16.46
600.706	16.42
601.126	16.38
601.545	16.35
601.965	16.32
602.384	16.28
602.803	16.24
603.222	16.19
603.641	16.13
604.061	16.09
604.48	16.03
604.898	15.98
605.317	15.92
605.736	15.86
606.155	15.8
606.574	15.73
606.992	15.66
607.411	15.59
607.829	15.49
608.248	15.42
608.666	15.35
609.085	15.29
609.503	15.21
609.921	15.15
610.339	15.08
610.758	15.02
611.176	14.94
611.594	14.87
612.012	14.81
612.43	14.76
612.847	14.69
613.265	14.62
613.683	14.54
614.101	14.49
614.518	14.41
614.936	14.33
615.353	14.26
615.771	14.2
616.188	14.13
616.606	14.06
617.023	14
617.44	13.96
617.857	13.9
618.274	13.85
618.691	13.78
619.108	13.73
619.525	13.69
619.942	13.66
620.359	13.61
620.776	13.57
621.192	13.54
621.609	13.52
622.026	13.5
622.442	13.47
622.859	13.45
623.275	13.43
623.691	13.41
624.108	13.4
624.524	13.38
624.94	13.38
625.356	13.36
625.772	13.35
626.188	13.33
626.604	13.31
627.02	13.3
627.436	13.3
627.852	13.29
628.268	13.28
628.683	13.27
629.099	13.25
629.514	13.23
629.93	13.2
630.345	13.19
630.761	13.15
631.176	13.12
631.591	13.08
632.007	13.03
632.422	12.98
632.837	12.94
633.252	12.88
633.667	12.81
634.082	12.74
634.497	12.67
634.911	12.59
635.326	12.51
635.741	12.43
636.155	12.34
636.57	12.25
636.984	12.15
637.399	12.04
637.813	11.93
638.228	11.82
638.642	11.71
639.056	11.6
639.47	11.49
639.884	11.38
640.298	11.26
640.712	11.13
641.126	11
641.54	10.88
641.954	10.75
642.368	10.62
642.781	10.51
643.195	10.39
643.609	10.28
644.022	10.16
644.436	10.05
644.849	9.94
645.262	9.83
645.676	9.73
646.089	9.64
646.502	9.57
646.915	9.5
647.328	9.42
647.741	9.35
648.154	9.28
648.567	9.23
648.98	9.17
649.393	9.12
649.805	9.07
650.218	9.03
650.631	8.98
651.043	8.93
651.456	8.88
651.868	8.84
652.28	8.79
652.693	8.76
653.105	8.7
653.517	8.64
653.929	8.59
654.341	8.53
654.753	8.47
655.165	8.41
655.577	8.34
655.989	8.27
656.401	8.19
656.813	8.11
657.224	8.02
657.636	7.94
658.047	7.86
658.459	7.77
658.87	7.68
659.282	7.57
659.693	7.48
660.104	7.37
660.515	7.28
660.926	7.2
661.338	7.09
661.749	6.99
662.159	6.9
662.57	6.81
662.981	6.73
663.392	6.65
663.803	6.58
664.213	6.51
664.624	6.44
665.035	6.37
665.445	6.32
665.855	6.26
666.266	6.22
666.676	6.19
667.086	6.14
667.497	6.09
667.907	6.07
668.317	6.04
668.727	6.01
669.137	5.98
669.547	5.97
669.956	5.95
670.366	5.95
670.776	5.94
671.186	5.93
671.595	5.92
672.005	5.93
672.414	5.94
672.824	5.95
673.233	5.96
673.642	5.99
674.052	6.01
674.461	6.02
674.87	6.04
675.279	6.08
675.688	6.11
676.097	6.15
676.506	6.18
676.915	6.22
677.323	6.26
677.732	6.31
678.141	6.36
678.549	6.4
678.958	6.47
679.366	6.55
679.775	6.62
680.183	6.7
680.592	6.8
681	6.92
681.408	7.02
681.816	7.16
682.224	7.3
682.632	7.45
683.04	7.63
683.448	7.81
683.856	8
684.264	8.22
684.671	8.46
685.079	8.7
685.487	8.98
685.894	9.28
686.302	9.59
686.709	9.93
687.116	10.28
687.524	10.65
687.931	11.04
688.338	11.46
688.745	11.89
689.152	12.34
689.559	12.81
689.966	13.3
690.373	13.8
690.78	14.31
691.187	14.81
691.593	15.34
692	15.87
692.407	16.39
692.813	16.92
693.22	17.46
693.626	17.98
694.032	18.52
694.439	19.03
694.845	19.55
695.251	20.07
695.657	20.57
696.063	21.08
696.469	21.58
696.875	22.06
697.281	22.54
697.687	23.01
698.093	23.48
698.498	23.92
698.904	24.38
699.31	24.83
699.715	25.26
700.12	25.69
700.526	26.11
700.931	26.53
701.337	26.96
701.742	27.34
702.147	27.73
702.552	28.13
702.957	28.49
703.362	28.85
703.767	29.18
704.172	29.52
704.577	29.85
704.981	30.15
705.386	30.47
705.791	30.76
706.195	31.08
706.6	31.39
707.004	31.66
707.408	31.96
707.813	32.24
708.217	32.53
708.621	32.81
709.025	33.07
709.43	33.32
709.834	33.57
710.237	33.82
710.641	34.05
711.045	34.28
711.449	34.53
711.853	34.78
712.256	35
712.66	35.21
713.064	35.42
713.467	35.63
713.87	35.86
714.274	36.07
714.677	36.28
715.08	36.47
715.484	36.68
715.887	36.87
716.29	37.03
716.693	37.21
717.096	37.38
717.499	37.56
717.901	37.73
718.304	37.89
718.707	38.06
719.109	38.21
719.512	38.35
719.915	38.51
720.317	38.62
720.719	38.76
721.122	38.92
721.524	39.04
721.926	39.18
722.328	39.31
722.731	39.41
723.133	39.54
723.535	39.67
723.937	39.79
724.338	39.88
724.74	40
725.142	40.2
725.544	40.26
725.945	40.39
726.347	40.48
726.748	40.58
727.15	40.67
727.551	40.77
727.952	40.84
728.354	40.92
728.755	40.99
729.156	41.07
729.557	41.03
729.958	41.09
730.359	41.13
730.76	41.19
731.161	41.24
731.562	41.32
731.962	41.35
732.363	41.41
732.763	41.46
733.164	41.52
733.564	41.56
733.965	41.6
734.365	41.66
734.766	41.7
735.166	41.74
735.566	41.79
735.966	41.83
736.366	41.86
736.766	41.89
737.166	41.91
737.566	41.93
737.966	41.96
738.365	42
738.765	42.02
739.165	42.03
739.564	42.08
739.964	42.11
740.363	42.11
740.763	42.15
741.162	42.17
741.561	42.19
741.96	42.19
742.36	42.2
742.759	42.22
743.158	42.26
743.557	42.29
743.955	42.3
744.354	42.32
744.753	42.34
745.152	42.35
745.55	42.36
745.949	42.4
746.348	42.44
746.746	42.42
747.144	42.47
747.543	42.47
747.941	42.49
748.339	42.48
748.737	42.48
749.136	42.48
749.534	42.45
749.932	42.45
750.33	42.44
750.727	42.44
751.125	42.47
751.523	42.43
751.921	42.44
752.318	42.44
752.716	42.42
753.113	42.42
753.511	42.44
753.908	42.47
754.305	42.51
754.703	42.51
755.1	42.52
755.497	42.52
755.894	42.53
756.291	42.54
756.688	42.53
757.085	42.55
757.482	42.55
757.878	42.56
758.275	42.54
758.672	42.52
759.068	42.53
759.465	42.53
759.861	42.53
760.258	42.53
760.654	42.52
761.05	42.53
761.447	42.54
761.843	42.54
762.239	42.54
762.635	42.56
763.031	42.57
763.427	42.55
763.822	42.54
764.218	42.55
764.614	42.57
765.01	42.54
765.405	42.55
765.801	42.53
766.196	42.53
766.592	42.52
766.987	42.51
767.382	42.48
767.778	42.49
768.173	42.49
768.568	42.49
768.963	42.47
769.358	42.47
769.753	42.47
770.148	42.44
770.542	42.45
770.937	42.45
771.332	42.44
771.726	42.45
772.121	42.46
772.515	42.49
772.91	42.46
773.304	42.48
773.699	42.51
774.093	42.48
774.487	42.5
774.881	42.52
775.275	42.52
775.669	42.51
776.063	42.52
776.457	42.51
776.851	42.47
777.245	42.47
777.638	42.47
778.032	42.47
778.425	42.5
778.819	42.51
779.212	42.51
779.606	42.51
779.999	42.5
780.392	42.52
780.786	42.55
781.179	42.58
781.572	42.62
781.965	42.61
782.358	42.61
782.751	42.58
783.143	42.58
783.536	42.55
783.929	42.55
784.322	42.59
784.714	42.58
785.107	42.54
785.499	42.54
785.891	42.51
786.284	42.53
786.676	42.53
787.068	42.54
787.46	42.54
787.852	42.57
788.245	42.57
788.636	42.55
789.028	42.57
789.42	42.59
789.812	42.58
790.204	42.6
790.595	42.6
790.987	42.61
791.378	42.64
791.77	42.64
792.161	42.64
792.553	42.64
792.944	42.64
793.335	42.63
793.726	42.64
794.117	42.64
794.508	42.63
794.899	42.62
795.29	42.6
795.681	42.57
796.072	42.55
796.463	42.56
796.853	42.57
797.244	42.59
797.634	42.6
798.025	42.6
798.415	42.6
798.806	42.58
799.196	42.58
799.586	42.61
799.976	42.65
800.366	42.68
800.756	42.67
801.146	42.69
801.536	42.71
801.926	42.68
802.316	42.68
802.706	42.72
803.095	42.74
803.485	42.75
803.874	42.73
804.264	42.72
804.653	42.72
805.043	42.72
805.432	42.7
805.821	42.69
806.21	42.71
806.599	42.72
806.988	42.69
807.377	42.69
807.766	42.71
808.155	42.7
808.544	42.71
808.933	42.68
809.321	42.66
809.71	42.68
810.098	42.67
810.487	42.64
810.875	42.64
811.264	42.67
811.652	42.65
812.04	42.63
812.428	42.67
812.816	42.66
813.204	42.68
813.592	42.68
813.98	42.68
814.368	42.67
814.756	42.7
815.144	42.68
815.531	42.67
815.919	42.68
816.306	42.67
816.694	42.66
817.081	42.67
817.469	42.68
817.856	42.69
818.243	42.66
818.63	42.69
819.017	42.68
819.404	42.69
819.791	42.68
820.178	42.68
820.565	42.68
820.952	42.65
821.339	42.64
821.725	42.64
822.112	42.66
822.498	42.7
822.885	42.69
823.271	42.67
823.657	42.65
824.044	42.66
824.43	42.68
824.816	42.68
825.202	42.69
825.588	42.68
825.974	42.66
826.36	42.65
826.746	42.63
827.132	42.61
827.517	42.62
827.903	42.64
828.289	42.63
828.674	42.59
829.06	42.6
829.445	42.59
829.83	42.63
830.216	42.61
830.601	42.6
830.986	42.61
831.371	42.6
831.756	42.61
832.141	42.6
832.526	42.6
832.911	42.62
833.295	42.59
833.68	42.59
834.065	42.57
834.449	42.58
834.834	42.59
835.218	42.59
835.603	42.59
835.987	42.57
836.371	42.57
836.755	42.56
837.139	42.54
837.524	42.56
837.908	42.58
838.291	42.57
838.675	42.57
839.059	42.54
839.443	42.52
839.827	42.53
840.21	42.53
840.594	42.54
840.977	42.54
841.361	42.54
841.744	42.53
842.127	42.5
842.511	42.51
842.894	42.5
843.277	42.53
843.66	42.52
844.043	42.54
844.426	42.55
844.809	42.55
845.191	42.57
845.574	42.58
845.957	42.6
846.339	42.62
846.722	42.62
847.104	42.64
847.487	42.63
847.869	42.64
848.252	42.63
848.634	42.61
849.016	42.63
849.398	42.61
849.78	42.61
850.162	42.59
850.544	42.57
850.926	42.56
851.307	42.55
851.689	42.54
852.071	42.54
852.452	42.55
852.834	42.54
853.215	42.53
853.597	42.56
853.978	42.55
854.359	42.55
854.741	42.56
855.122	42.56
855.503	42.57
855.884	42.59
856.265	42.57
856.646	42.56
857.026	42.56
857.407	42.57
857.788	42.55
858.169	42.55
858.549	42.57
858.93	42.56
859.31	42.57
859.69	42.58
860.071	42.61
860.451	42.62
860.831	42.65
861.211	42.64
861.591	42.63
861.971	42.62
862.351	42.62
862.731	42.62
863.111	42.61
863.491	42.61
863.87	42.6
864.25	42.56
864.629	42.56
865.009	42.56
865.388	42.54
865.768	42.55
866.147	42.57
866.526	42.58
866.905	42.57
867.284	42.57
867.663	42.56
868.042	42.57
868.421	42.6
868.8	42.6
869.179	42.59
869.558	42.61
869.936	42.61
870.315	42.58
870.693	42.57
871.072	42.58
871.45	42.6
871.828	42.61
872.207	42.64
872.585	42.62
872.963	42.64
873.341	42.63
873.719	42.63
874.097	42.64
874.475	42.67
874.853	42.68
875.23	42.68
875.608	42.67
875.986	42.7
876.363	42.67
876.741	42.67
877.118	42.65
877.495	42.65
877.873	42.67
878.25	42.69
878.627	42.7
879.004	42.71
879.381	42.7
879.758	42.69
880.135	42.66
880.512	42.66
880.889	42.68
881.265	42.68
881.642	42.68
882.019	42.67
882.395	42.65
882.772	42.64
883.148	42.61
883.524	42.6
883.901	42.59
884.277	42.56
884.653	42.55
885.029	42.54
885.405	42.55
885.781	42.54
886.157	42.52
886.532	42.53
886.908	42.49
887.284	42.5
887.659	42.48
888.035	42.47
888.411	42.48
888.786	42.5
889.161	42.52
889.537	42.52
889.912	42.51
890.287	42.53
890.662	42.51
891.037	42.56
891.412	42.54
891.787	42.53
892.162	42.55
892.536	42.55
892.911	42.54
893.286	42.52
893.66	42.5
894.035	42.51
894.409	42.49
894.784	42.5
895.158	42.48
895.532	42.5
895.906	42.5
896.281	42.48
896.655	42.49
897.029	42.51
897.402	42.49
897.776	42.5
898.15	42.5
898.524	42.51
898.898	42.49
899.271	42.5
899.645	42.51
900.018	42.55
900.392	42.58
900.765	42.57
901.138	42.56
901.511	42.58
901.884	42.59
902.258	42.59
902.631	42.6
903.003	42.62
903.376	42.62
903.749	42.61
904.122	42.61
904.495	42.62
904.867	42.63
905.24	42.62
905.612	42.65
905.985	42.64
906.357	42.65
906.729	42.67
907.102	42.68
907.474	42.73
907.846	42.71
908.218	42.7
908.59	42.72
908.962	42.72
909.334	42.76
909.705	42.73
910.077	42.73
910.449	42.74
910.82	42.72
911.192	42.71
911.563	42.67
911.935	42.66
912.306	42.65
912.677	42.65
913.048	42.65
913.419	42.6
913.79	42.59
914.161	42.63
914.532	42.62
914.903	42.65
915.274	42.65
915.645	42.65
916.015	42.69
916.386	42.7
916.756	42.68
917.127	42.66
917.497	42.69
917.868	42.68
918.238	42.65
918.608	42.67
918.978	42.64
919.348	42.63
919.718	42.63
920.088	42.62
920.458	42.63
920.828	42.6
921.198	42.64
921.567	42.67
921.937	42.69
922.306	42.67
922.676	42.66
923.045	42.67
923.415	42.68
923.784	42.7
924.153	42.72
924.522	42.73
924.891	42.74
925.26	42.71
925.629	42.69
925.998	42.71
926.367	42.72
926.736	42.73
927.104	42.72
927.473	42.69
927.842	42.66
928.21	42.64
928.578	42.63
928.947	42.65
929.315	42.65
929.683	42.62
930.051	42.59
930.42	42.58
930.788	42.54
931.156	42.5
931.523	42.52
931.891	42.54
932.259	42.57
932.627	42.59
932.994	42.59
933.362	42.58
933.729	42.62
934.097	42.63
934.464	42.66
934.831	42.7
935.199	42.76
935.566	42.77
935.933	42.72
936.3	42.69
936.667	42.65
937.034	42.65
937.401	42.67
937.767	42.64
938.134	42.62
938.501	42.63
938.867	42.65
939.234	42.63
939.6	42.59
939.967	42.63
940.333	42.61
940.699	42.61
941.065	42.54
941.431	42.52
941.798	42.48
942.163	42.51
942.529	42.46
942.895	42.37
943.261	42.3
943.627	42.32
943.992	42.32
944.358	42.28
944.723	42.23
945.089	42.18
945.454	42.24
945.82	42.25
946.185	42.21
946.55	42.19
946.915	42.21
947.28	42.19
947.645	42.16
948.01	42.17
948.375	42.23
948.74	42.28
949.104	42.34
949.469	42.27
949.834	42.17
950.198	42.14
950.562	42.1
950.927	42.07
951.291	42.04
951.655	41.98
952.02	41.97
952.384	41.91
952.748	41.84
953.112	41.88
953.476	41.86
953.839	41.9
954.203	41.87
954.567	41.86
954.931	41.82
955.294	41.83
955.658	41.91
956.021	41.89
956.385	41.85
956.748	41.87
957.111	41.83
957.474	41.83
957.837	41.77
958.2	41.78
958.563	41.81
958.926	41.87
959.289	41.87
959.652	41.82
960.015	41.82
960.377	41.82
960.74	41.85
961.102	41.81
961.465	41.86
961.827	41.97
962.189	42.01
962.552	42.04
962.914	41.97
963.276	41.97
963.638	41.96
964	41.95
964.362	41.96
964.724	41.92
965.085	41.92
965.447	41.9
965.809	41.89
966.17	41.81
966.532	41.8
966.893	41.87
967.255	41.88
967.616	41.87
967.977	41.86
968.338	41.88
968.699	41.96
969.061	41.96
969.421	41.93
969.782	41.89
970.143	41.94
970.504	41.93
970.865	41.93
971.225	41.93
971.586	41.93
971.946	41.92
972.307	41.92
972.667	41.87
973.027	41.92
973.388	41.95
973.748	41.98
974.108	42.06
974.468	42.06
974.828	42.1
975.188	42.15
975.548	42.17
975.907	42.2
976.267	42.23
976.627	42.26
976.986	42.16
977.346	42.18
977.705	42.22
978.064	42.17
978.424	42.17
978.783	42.1
979.142	42.07
979.501	42.12
979.86	42.19
980.219	42.21
980.578	42.23
980.937	42.34
981.296	42.28
981.654	42.25
982.013	42.24
982.371	42.25
982.73	42.26
983.088	42.23
983.447	42.22
983.805	42.19
984.163	42.14
984.521	42.11
984.879	42
985.237	42.09
985.595	42.15
985.953	42.19
986.311	42.15
986.669	42.14
987.026	42.14
987.384	42.16
987.741	42.11
988.099	42.2
988.456	42.23
988.814	42.27
989.171	42.26
989.528	42.18
989.885	42.11
990.242	42.17
990.599	42.18
990.956	42.23
991.313	42.23
991.67	42.2
992.027	42.24
992.383	42.25
992.74	42.4
993.096	42.39
993.453	42.4
993.809	42.43
994.165	42.56
994.522	42.6
994.878	42.61
995.234	42.66
995.59	42.71
995.946	42.64
996.302	42.69
996.658	42.67
997.013	42.55
997.369	42.68
997.725	42.7
998.08	42.69
998.436	42.74
998.791	42.79
999.147	42.78
999.502	42.84
999.857	42.82
1000.212	42.73
1000.567	42.67
1000.922	42.77
1001.277	42.61
1001.632	42.57
1001.987	42.49
1002.342	42.4
1002.696	42.33
1003.051	42.43
1003.406	42.53
1003.76	42.6
1004.114	42.61
1004.469	42.72
1004.823	42.95
1005.177	43.09
1005.531	43.25
1005.885	43.21
1006.239	43.28
1006.593	43.38
1006.947	43.41
1007.301	43.28
1007.655	43.21
1008.008	43.3
1008.362	43.25
1008.715	43.15
1009.069	43.26
1009.422	43.34
1009.776	43.41
1010.129	43.35
1010.482	43.49
1010.835	43.45
1011.188	43.47
1011.541	43.58
1011.894	43.6
1012.247	43.68
1012.6	43.6
1012.952	43.48
1013.305	43.38
1013.657	43.43
1014.01	43.48
1014.362	43.33
1014.715	43.48
1015.067	43.72
1015.419	43.78
1015.771	43.75
1016.123	43.68
1016.475	43.69
1016.827	43.59
1017.179	43.68
1017.531	43.61
1017.883	43.7
1018.234	43.86
1018.586	43.64
1018.938	43.64
1019.289	43.48
1019.64	43.59
1019.992	43.54
1020.343	43.53
1020.694	43.54
1021.045	43.39
1021.396	43.49
1021.747	43.63
1022.098	43.73
1022.449	43.94
1022.8	43.87
1023.151	44
1023.501	44.03
1023.852	44.33
1024.202	44.28
1024.553	44.49
1024.903	44.92
1025.253	45.13
1025.604	45.24
1025.954	44.84
1026.304	44.96
1026.654	44.84
1027.004	44.84
1027.354	44.93
1027.703	44.71
1028.053	44.96
1028.403	45.02
1028.753	44.55
1029.102	44.53
1029.452	44.4
1029.801	44.72
1030.15	44.43
1030.499	44.42
897.758	1366.73
901.051	1375.04
904.343	1372.04
907.636	1393.41
910.928	1357.1
914.22	1355.43
917.511	1335.76
920.803	1278.07
924.094	1270.65
927.384	1239.63
930.675	1192.73
933.965	1186.47
937.255	1115.45
940.544	1071.26
943.834	1017.68
947.123	1008.48
950.411	949.9
953.7	931.37
956.988	876.24
960.276	842.9
963.563	831.49
966.851	800.58
970.138	791.84
973.424	768.16
976.711	771.45
979.997	736.54
983.283	731.83
986.568	715.95
989.853	693.02
993.138	684.55
996.423	655.86
999.708	635.63
1002.992	628.91
1006.275	601.72
1009.559	596.29
1012.842	574.11
1016.125	556.36
1019.408	545.49
1022.69	538.21
1025.972	527.63
1029.254	514.31
1032.536	506.39
1035.817	495.63
1039.098	488.64
1042.379	478.31
1045.659	472.14
1048.939	461.13
1052.219	451.81
1055.498	445.9
1058.778	435.35
1062.057	424.87
1065.335	420.22
1068.614	416.17
1071.892	410.62
1075.17	396.81
1078.447	389.74
1081.724	386.52
1085.001	383.02
1088.278	375.56
1091.554	366.98
1094.83	367.9
1098.106	365.66
1101.382	362.06
1104.657	358.61
1107.932	353.4
1111.206	355.82
1114.481	346.41
1117.755	342.88
1121.029	340.19
1124.302	340.23
1127.575	333.65
1130.848	329.18
1134.121	325.75
1137.393	323.59
1140.665	316.82
1143.937	315.05
1147.208	312.96
1150.48	312.58
1153.75	308.62
1157.021	304.38
1160.291	304.34
1163.561	301.34
1166.831	301.43
1170.101	299.34
1173.37	298.54
1176.639	299.26
1179.907	296.14
1183.176	292.53
1186.444	292.15
1189.711	291.61
1192.979	290.19
1196.246	288.39
1199.513	289.32
1202.78	286.71
1206.046	286.3
1209.312	283.77
1212.578	283.67
1215.843	286.77
1219.108	284.99
1222.373	290.68
1225.638	292.92
1228.902	297.58
1232.166	297.34
1235.43	300.35
1238.693	303.9
1241.956	305.97
1245.219	310.65
1248.482	310.89
1251.744	310.1
1255.006	311.56
1258.268	303.6
1261.529	300.74
1264.79	298.93
1268.051	296.92
1271.312	293.25
1274.572	289.75
1277.832	286.79
1281.092	282.37
1284.351	280.19
1287.61	280
1290.869	275.43
1294.128	273.94
1297.386	273.97
1300.644	269.96
1303.902	271.07
1307.159	269.9
1310.416	269.97
1313.673	269.65
1316.93	272.24
1320.186	272.87
1323.442	272.85
1326.697	278.73
1329.953	280.14
1333.208	281.14
1336.463	284.19
1339.717	285.3
1342.972	288.34
1346.226	291.02
1349.479	291.44
1352.733	293.14
1355.986	294.07
1359.238	295.23
1362.491	295.84
1365.743	298.62
1368.995	298.54
1372.247	297.6
1375.498	297.69
1378.749	300.55
1382	297.3
1385.251	298.02
1388.501	296.71
1391.751	297.96
1395	296.94
1398.25	294.78
1401.499	293.44
1404.748	293.34
1407.996	292.61
1411.244	290.87
1414.492	288.98
1417.74	287.35
1420.987	283.26
1424.234	282.8
1427.481	279.18
1430.728	278.48
1433.974	275.73
1437.22	273.24
1440.465	272.57
1443.711	270.26
1446.956	268.57
1450.201	265.64
1453.445	262.63
1456.689	261.97
1459.933	257.09
1463.177	255.06
1466.42	251.23
1469.663	248.1
1472.906	246.42
1476.148	239.68
1479.391	236.8
1482.633	234.49
1485.874	230.61
1489.115	229.27
1492.356	226.76
1495.597	226.37
1498.838	222.6
1502.078	221.36
1505.318	220.43
1508.557	219.74
1511.797	219.83
1515.036	218.11
1518.274	217.39
1521.513	215.06
1524.751	214.86
1527.989	213.57
1531.227	212.36
1534.464	212.98
1537.701	211.29
1540.938	210.89
1544.174	208.41
1547.41	207.76
1550.646	206.81
1553.882	206.95
1557.117	204.34
1560.352	202.86
1563.587	202.34
1566.821	201.14
1570.055	198.71
1573.289	197.18
1576.523	196.57
1579.756	195.18
1582.989	194.31
1586.222	193.92
1589.454	192.48
1592.686	194.18
1595.918	193.1
1599.15	192.71
1602.381	192.68
1605.612	192.81
1608.843	193.6
1612.073	193.36
1615.303	194.48
1618.533	194.17
1621.762	193.81
1624.992	194.04
1628.221	193.92
1631.449	193.94
1634.678	192.7
1637.906	193.8
1641.134	193.73
1644.361	193.15
1647.588	194.08
1650.815	192.97
1654.042	192.45
1657.269	194.12
1660.495	193.9
1663.72	192.4
1666.946	193.47
1670.171	194.27
1673.396	194.2
1676.621	194.2
1679.845	194.51
1683.069	194.06
1686.293	195.61
1689.517	196.98
1692.74	196.24
1695.963	197.13
1699.185	199.97
1702.408	199.36
1705.63	200.39
1708.852	200.01
1712.073	201
1715.294	201.48
1718.515	202.95
1721.736	202.62
1724.956	202.7
1728.176	202.84
1731.396	204.51
1734.616	203.82
1737.835	205.13
1741.054	204.03
1744.272	205.23
1747.491	206.52
1750.709	206.66
1753.927	206.52
1757.144	205.98
1760.361	207.19
1763.578	207.54
1766.795	206.78
1770.011	208.4
1773.227	208.09
1776.443	210.32
1779.658	211.29
1782.874	211
1786.089	211.87
1789.303	212.45
1792.518	215.35
1795.732	214.78
1798.945	216.93
1802.159	217.17
1805.372	217.47
1808.585	221.33
1811.797	222.51
1815.01	222.45
1818.222	224.32
1821.434	225.8
1824.645	226.95
1827.856	230.34
1831.067	232.74
1834.278	231.76
1837.488	234.61
1840.698	236.13
1843.908	234.1
1847.117	235.36
1850.326	237.28
1853.535	236.71
1856.744	241.11
1859.952	240.72
1863.16	238.98
1866.368	237.69
1869.575	241.96
1872.782	237.22
1875.989	237.14
1879.196	236.06
1882.402	234.45
1885.608	235.62
1888.814	236.21
1892.019	234.94
1895.224	234.52
1898.429	234.07
1901.634	235.96
1904.838	235
1908.042	238.68
1911.246	238.88
1914.449	241.35
1917.652	241.67
1920.855	241
1924.058	240.46
1927.26	239.77
1930.462	240.91
1933.664	243.28
1936.865	240.46
1940.066	240.84
1943.267	239.46
1946.467	239.03
1949.668	240.75
1952.868	242.93
1956.067	242.98
1959.267	243.5
1962.466	244.57
1965.665	243.09
1968.863	243.35
1972.061	247.4
1975.259	249.94
1978.457	251.3
1981.654	253.95
1984.852	254.08
1988.048	253.88
1991.245	256.47
1994.441	259.64
1997.637	260.66
2000.833	266.73
2004.028	270.14
2007.223	271.21
2010.418	273.26
2013.613	277.83
2016.807	280.58
2020.001	282.65
2023.194	287.25
2026.388	293.2
2029.581	299.81
2032.774	303.38
2035.966	307.61
2039.158	308.66
2042.35	314.54
2045.542	316.65
2048.733	322.14
2051.924	326.18
2055.115	331.45
2058.306	331.84
2061.496	335.28
2064.686	335.15
2067.875	340.27
2071.065	342.72
2074.254	341.21
2077.442	345.27
2080.631	346.55
2083.819	349.53
2087.007	349.55
2090.195	354.53
2093.382	357.42
2096.569	354.99
2099.756	359.33
2102.942	361.03
2106.128	363.95
2109.314	371.54
2112.5	370.34
2115.685	379.13
2118.87	379.37
2122.055	387.3
2125.239	389.51
2128.424	394.4
2131.608	398.69
2134.791	404.84
2137.974	407.28
2141.157	407.33
2144.34	409.32
2147.523	415.01
2150.705	411.67
2153.887	415.6
2157.068	417.2
2160.25	412.52
2163.431	415.88
2166.611	419.23
2169.792	427.27
2172.972	431.26
2176.152	433.77
2179.331	439.53
2182.511	447.76
2185.69	452.48
2188.868	462.27
2192.047	462.88
2195.225	477.16
2198.403	487.65
2201.58	497.27
2204.758	505.94
2207.935	515.6
2211.111	526.66
2214.288	532.03
2217.464	533.56
2220.64	541.1
2223.815	547.63
2226.991	570.31
2230.166	571.74
2233.34	581.04
2236.515	589.04
2239.689	590.06
2242.863	593.88
2246.036	611.64
2249.209	607.61
2252.382	618.39
2255.555	637.74
2258.727	640.59
2261.9	642.57
2265.071	649.18
2268.243	660.55
2271.414	668.56
2274.585	685.82
2277.756	691.42
2280.926	695.03
2284.096	711.09
2287.266	727.54
2290.436	733.47
2293.605	750.55
2296.774	774.89
2299.942	798.92
2303.111	804.57
2306.279	823.71
2309.447	833.84
2312.614	854.45
2315.781	879.35
2318.948	923.72
2322.115	907.21
2325.281	954.99
2328.447	934.06
2331.613	972.73
2334.779	961.28
2337.944	1002.64
2341.109	1012.2
2344.274	1038.21
2347.438	1077.44
2350.602	1077.8
2353.766	1104.79
2356.929	1122.33
2360.092	1116.56
2363.255	1199.65
2366.418	1195.59
2369.58	1219.92
2372.742	1293.11
2375.904	1327.05
2379.066	1319.32
2382.227	1293.1
2385.388	1405.02
2388.548	1406.04
2391.709	1423.81
2394.869	1586.5
2398.029	1514.48
2401.188	1554.74
2404.347	1546.36
2407.506	1517.73
2410.665	1562.95
2413.823	1662.12
2416.981	1762.27
2420.139	1697.82
2423.296	1683.43
2426.453	1757.39
2429.61	1689.42
2432.767	1772.39
2435.923	1757.61
2439.079	1927.32
2442.235	1945.62
2445.391	1929.69
2448.546	1911.51
2451.701	1854.76
2454.855	1853.85
2458.009	1968.53
2461.163	2044.88
2464.317	2122.82
2467.471	2175.95
2470.624	2176.6
2473.777	2113.61
2476.929	2069.94
2480.082	2005.64
2483.234	1983.43
2486.385	2081.84
2489.537	2092.74
2492.688	2169.3
2495.839	2112.04
2498.989	2065.1
2502.14	2075.07
2505.29	2101.52
2508.439	2123.17
2511.589	2117.39
2514.738	2316.63
2517.887	2263.8
2521.035	2402.02
2524.183	2421.35
2527.331	2437.04
2530.479	2428.27
2533.627	2444.13
