Data from C_2_DEC_NC_4N_Splice17_13-28-37-164.txt Node
Date: Sat Mar 07 13:28:37 EST 2020
User: sa697716
Spectrometer: NQ5500242
Trigger mode: 0
Integration Time (sec): 1.450000E-1
Scans to average: 20
Nonlinearity correction enabled: false
Boxcar width: 5
Storing dark spectrum: false
XAxis mode: Wavelengths
Number of Pixels in Spectrum: 512
>>>>>Begin Spectral Data<<<<<
187.83	91.26
188.298	87.7
188.766	83.76
189.233	76.33
189.701	75.91
190.169	85.04
190.636	85.82
191.104	178.82
191.571	175.87
192.039	142.75
192.506	-69.17
192.974	99.67
193.441	-24.19
193.908	18.74
194.375	66.99
194.842	18.44
195.31	51.09
195.777	171.32
196.244	58.78
196.711	48.18
197.177	48.03
197.644	47.3
198.111	46.64
198.578	47
199.045	47.22
199.511	46.98
199.978	47.03
200.445	47.03
200.911	46.88
201.378	46.8
201.844	46.84
202.31	46.95
202.777	46.73
203.243	46.78
203.709	46.53
204.176	46.08
204.642	45.77
205.108	45.53
205.574	45.15
206.04	44.56
206.506	44.53
206.972	44.15
207.438	43.65
207.903	42.84
208.369	41.73
208.835	41.1
209.301	40.13
209.766	39.01
210.232	37.81
210.697	36.72
211.163	35.8
211.628	34.7
212.094	33.52
212.559	32.74
213.024	32.26
213.49	31.64
213.955	30.75
214.42	30.06
214.885	29.13
215.35	28.1
215.815	26.64
216.28	24.84
216.745	22.71
217.21	20.57
217.675	18.61
218.14	16.85
218.604	15.39
219.069	14.18
219.534	13.14
219.998	12.34
220.463	11.65
220.927	10.99
221.392	10.51
221.856	10.15
222.32	9.83
222.785	9.54
223.249	9.27
223.713	9.03
224.177	8.83
224.642	8.64
225.106	8.41
225.57	8.21
226.034	8.1
226.497	7.95
226.961	7.81
227.425	7.7
227.889	7.56
228.353	7.45
228.816	7.35
229.28	7.24
229.744	7.12
230.207	7.03
230.671	6.95
231.134	6.84
231.597	6.76
232.061	6.67
232.524	6.58
232.987	6.5
233.45	6.43
233.914	6.37
234.377	6.29
234.84	6.23
235.303	6.17
235.766	6.11
236.229	6.04
236.691	5.98
237.154	5.92
237.617	5.86
238.08	5.8
238.542	5.74
239.005	5.69
239.468	5.63
239.93	5.58
240.393	5.53
240.855	5.48
241.317	5.42
241.78	5.37
242.242	5.31
242.704	5.27
243.166	5.22
243.629	5.18
244.091	5.12
244.553	5.07
245.015	5.04
245.477	4.98
245.939	4.95
246.4	4.92
246.862	4.88
247.324	4.85
247.786	4.8
248.247	4.76
248.709	4.72
249.17	4.67
249.632	4.65
250.093	4.61
250.555	4.58
251.016	4.54
251.477	4.5
251.939	4.47
252.4	4.45
252.861	4.43
253.322	4.4
253.783	4.38
254.244	4.37
254.705	4.33
255.166	4.3
255.627	4.28
256.088	4.26
256.549	4.25
257.009	4.21
257.47	4.19
257.931	4.16
258.391	4.13
258.852	4.1
259.312	4.08
259.773	4.05
260.233	4.03
260.694	4.02
261.154	3.99
261.614	3.96
262.074	3.94
262.534	3.92
262.994	3.9
263.455	3.88
263.915	3.86
264.374	3.84
264.834	3.83
265.294	3.8
265.754	3.79
266.214	3.77
266.673	3.76
267.133	3.75
267.593	3.74
268.052	3.73
268.512	3.73
268.971	3.72
269.431	3.71
269.89	3.71
270.349	3.71
270.809	3.7
271.268	3.7
271.727	3.69
272.186	3.68
272.645	3.68
273.104	3.67
273.563	3.66
274.022	3.65
274.481	3.65
274.94	3.65
275.399	3.64
275.857	3.64
276.316	3.63
276.775	3.63
277.233	3.63
277.692	3.63
278.15	3.62
278.609	3.62
279.067	3.62
279.525	3.62
279.984	3.61
280.442	3.61
280.9	3.61
281.358	3.6
281.816	3.6
282.274	3.6
282.732	3.59
283.19	3.58
283.648	3.58
284.106	3.58
284.564	3.57
285.021	3.57
285.479	3.57
285.937	3.56
286.394	3.56
286.852	3.55
287.309	3.55
287.767	3.55
288.224	3.54
288.682	3.52
289.139	3.51
289.596	3.5
290.053	3.49
290.511	3.47
290.968	3.46
291.425	3.44
291.882	3.44
292.339	3.41
292.796	3.41
293.252	3.41
293.709	3.41
294.166	3.4
294.623	3.4
295.079	3.4
295.536	3.4
295.992	3.39
296.449	3.39
296.905	3.39
297.362	3.39
297.818	3.38
298.274	3.37
298.731	3.36
299.187	3.35
299.643	3.35
300.099	3.34
300.555	3.34
301.011	3.34
301.467	3.34
301.923	3.33
302.379	3.33
302.835	3.33
303.291	3.33
303.746	3.33
304.202	3.33
304.658	3.33
305.113	3.34
305.569	3.34
306.024	3.33
306.479	3.33
306.935	3.33
307.39	3.34
307.845	3.34
308.301	3.34
308.756	3.34
309.211	3.33
309.666	3.35
310.121	3.34
310.576	3.34
311.031	3.34
311.486	3.34
311.94	3.35
312.395	3.34
312.85	3.34
313.305	3.34
313.759	3.34
314.214	3.34
314.668	3.32
315.123	3.32
315.577	3.31
316.032	3.31
316.486	3.3
316.94	3.29
317.394	3.28
317.849	3.27
318.303	3.26
318.757	3.24
319.211	3.24
319.665	3.23
320.119	3.22
320.572	3.21
321.026	3.2
321.48	3.19
321.934	3.18
322.387	3.18
322.841	3.18
323.295	3.18
323.748	3.17
324.202	3.17
324.655	3.16
325.108	3.16
325.562	3.16
326.015	3.16
326.468	3.17
326.921	3.17
327.374	3.17
327.827	3.17
328.28	3.17
328.733	3.16
329.186	3.16
329.639	3.17
330.092	3.16
330.545	3.16
330.997	3.16
331.45	3.17
331.903	3.17
332.355	3.18
332.808	3.19
333.26	3.19
333.713	3.19
334.165	3.18
334.617	3.19
335.069	3.19
335.522	3.19
335.974	3.2
336.426	3.19
336.878	3.18
337.33	3.17
337.782	3.16
338.234	3.17
338.686	3.16
339.137	3.16
339.589	3.15
340.041	3.15
340.493	3.14
340.944	3.12
341.396	3.11
341.847	3.1
342.299	3.09
342.75	3.07
343.201	3.05
343.653	3.05
344.104	3.03
344.555	3.02
345.006	3.01
345.457	3
345.908	3
346.359	3
346.81	3
347.261	3
347.712	3
348.163	2.99
348.613	2.99
349.064	3
349.515	3
349.965	3
350.416	2.99
350.866	2.99
351.317	2.99
351.767	2.98
352.217	2.97
352.668	2.98
353.118	2.98
353.568	2.98
354.018	2.99
354.468	3
354.918	3
355.368	3
355.818	3.01
356.268	3
356.718	3.01
357.168	3.01
357.617	3
358.067	2.99
358.517	3
358.966	3
359.416	3
359.865	3
360.315	3
360.764	3
361.213	3
361.663	2.99
362.112	2.98
362.561	2.99
363.01	3
363.459	2.97
363.908	2.97
364.357	2.96
364.806	2.95
365.255	2.95
365.703	2.97
366.152	2.98
366.601	2.98
367.05	2.99
367.498	2.98
367.947	2.98
368.395	2.99
368.844	2.99
369.292	2.99
369.74	3
370.189	3
370.637	2.98
371.085	2.97
371.533	2.97
371.981	2.97
372.429	2.98
372.877	2.98
373.325	2.98
373.773	2.97
374.221	2.97
374.669	2.96
375.116	2.96
375.564	2.96
376.012	2.96
376.459	2.96
376.907	2.96
377.354	2.96
377.801	2.96
378.249	2.96
378.696	2.97
379.143	2.97
379.591	2.97
380.038	2.97
380.485	2.98
380.932	2.98
381.379	2.99
381.826	2.99
382.273	2.99
382.72	2.99
383.166	2.99
383.613	3
384.06	2.99
384.506	2.99
384.953	3
385.4	3.01
385.846	3.02
386.292	3.02
386.739	3.03
387.185	3.02
387.631	3.03
388.078	3.04
388.524	3.04
388.97	3.04
389.416	3.05
389.862	3.06
390.308	3.08
390.754	3.1
391.2	3.12
391.645	3.13
392.091	3.16
392.537	3.19
392.983	3.2
393.428	3.23
393.874	3.25
394.319	3.27
394.765	3.28
395.21	3.29
395.655	3.31
396.101	3.33
396.546	3.35
396.991	3.38
397.436	3.39
397.881	3.42
398.326	3.45
398.771	3.48
399.216	3.5
399.661	3.54
400.106	3.55
400.551	3.57
400.995	3.57
401.44	3.59
401.885	3.59
402.329	3.61
402.774	3.63
403.218	3.65
403.663	3.67
404.107	3.69
404.551	3.7
404.995	3.73
405.44	3.74
405.884	3.76
406.328	3.79
406.772	3.8
407.216	3.82
407.66	3.82
408.104	3.82
408.547	3.84
408.991	3.85
409.435	3.86
409.879	3.87
410.322	3.9
410.766	3.92
411.209	3.94
411.653	3.97
412.096	3.99
412.54	4.02
412.983	4.03
413.426	4.07
413.869	4.08
414.312	4.12
414.756	4.13
415.199	4.14
415.642	4.15
416.085	4.16
416.527	4.15
416.97	4.15
417.413	4.15
417.856	4.16
418.298	4.15
418.741	4.16
419.184	4.16
419.626	4.17
420.069	4.18
420.511	4.18
420.953	4.2
421.396	4.22
421.838	4.21
422.28	4.23
422.722	4.25
423.164	4.26
423.606	4.26
424.048	4.27
424.49	4.28
424.932	4.28
425.374	4.28
425.816	4.26
426.258	4.25
426.699	4.24
427.141	4.23
427.582	4.24
428.024	4.24
428.465	4.25
428.907	4.24
429.348	4.23
429.789	4.23
430.231	4.25
430.672	4.28
431.113	4.3
431.554	4.32
431.995	4.34
432.436	4.35
432.877	4.35
433.318	4.37
433.759	4.4
434.2	4.43
434.64	4.45
435.081	4.45
435.522	4.47
435.962	4.47
436.403	4.5
436.843	4.51
437.284	4.52
437.724	4.52
438.164	4.51
438.604	4.5
439.045	4.52
439.485	4.52
439.925	4.53
440.365	4.52
440.805	4.53
441.245	4.55
441.685	4.57
442.125	4.58
442.564	4.6
443.004	4.61
443.444	4.63
443.883	4.65
444.323	4.65
444.762	4.68
445.202	4.72
445.641	4.75
446.081	4.76
446.52	4.76
446.959	4.79
447.398	4.82
447.837	4.86
448.276	4.88
448.716	4.9
449.154	4.92
449.593	4.95
450.032	4.95
450.471	4.94
450.91	4.95
451.349	4.97
451.787	4.97
452.226	4.95
452.664	4.93
453.103	4.93
453.541	4.94
453.98	4.94
454.418	4.93
454.856	4.93
455.295	4.93
455.733	4.91
456.171	4.9
456.609	4.89
457.047	4.89
457.485	4.9
457.923	4.9
458.361	4.88
458.798	4.88
459.236	4.88
459.674	4.87
460.111	4.88
460.549	4.91
460.987	4.91
461.424	4.92
461.862	4.92
462.299	4.92
462.736	4.92
463.173	4.92
463.611	4.93
464.048	4.93
464.485	4.94
464.922	4.94
465.359	4.94
465.796	4.94
466.233	4.95
466.67	4.96
467.106	4.98
467.543	4.98
467.98	4.98
468.416	4.97
468.853	4.97
469.29	4.96
469.726	4.96
470.162	4.95
470.599	4.94
471.035	4.94
471.471	4.95
471.907	4.94
472.344	4.93
472.78	4.93
473.216	4.93
473.652	4.93
474.088	4.93
474.523	4.95
474.959	4.94
475.395	4.94
475.831	4.93
476.266	4.92
476.702	4.91
477.138	4.91
477.573	4.92
478.008	4.92
478.444	4.91
478.879	4.91
479.314	4.91
479.75	4.9
480.185	4.9
480.62	4.9
481.055	4.89
481.49	4.88
481.925	4.89
482.36	4.88
482.795	4.88
483.229	4.89
483.664	4.9
484.099	4.89
484.534	4.89
484.968	4.9
485.403	4.91
485.837	4.93
486.271	4.95
486.706	4.97
487.14	4.98
487.574	5.01
488.009	5.03
488.443	5.05
488.877	5.08
489.311	5.12
489.745	5.16
490.179	5.19
490.613	5.24
491.046	5.27
491.48	5.31
491.914	5.36
492.348	5.4
492.781	5.46
493.215	5.52
493.648	5.57
494.082	5.63
494.515	5.69
494.948	5.76
495.382	5.82
495.815	5.89
496.248	5.98
496.681	6.06
497.114	6.15
497.547	6.23
497.98	6.33
498.413	6.43
498.846	6.53
499.279	6.63
499.711	6.73
500.144	6.85
500.577	6.98
501.009	7.1
501.442	7.23
501.874	7.37
502.306	7.5
502.739	7.66
503.171	7.81
503.603	7.97
504.036	8.14
504.468	8.31
504.9	8.48
505.332	8.66
505.764	8.85
506.196	9.04
506.627	9.24
507.059	9.45
507.491	9.65
507.923	9.86
508.354	10.09
508.786	10.33
509.217	10.58
509.649	10.82
510.08	11.07
510.512	11.32
510.943	11.57
511.374	11.82
511.805	12.1
512.237	12.37
512.668	12.65
513.099	12.92
513.53	13.18
513.961	13.46
514.391	13.74
514.822	14.03
515.253	14.32
515.684	14.62
516.114	14.92
516.545	15.21
516.975	15.5
517.406	15.79
517.836	16.08
518.267	16.4
518.697	16.68
519.127	16.97
519.558	17.25
519.988	17.52
520.418	17.79
520.848	18.05
521.278	18.33
521.708	18.77
522.138	19.03
522.567	19.28
522.997	19.51
523.427	19.77
523.857	20
524.286	20.23
524.716	20.47
525.145	20.69
525.575	20.91
526.004	21.11
526.433	21.14
526.863	21.33
527.292	21.51
527.721	21.69
528.15	21.86
528.579	22.04
529.008	22.2
529.437	22.35
529.866	22.51
530.295	22.65
530.724	22.79
531.152	22.91
531.581	23.04
532.01	23.17
532.438	23.28
532.867	23.4
533.295	23.49
533.723	23.58
534.152	23.67
534.58	23.74
535.008	23.8
535.436	23.88
535.865	23.93
536.293	24
536.721	24.04
537.149	24.11
537.576	24.14
538.004	24.18
538.432	24.2
538.86	24.25
539.287	24.28
539.715	24.34
540.143	24.36
540.57	24.4
540.998	24.42
541.425	24.45
541.852	24.46
542.28	24.5
542.707	24.52
543.134	24.55
543.561	24.56
543.988	24.58
544.415	24.6
544.842	24.61
545.269	24.64
545.696	24.66
546.123	24.68
546.549	24.7
546.976	24.72
547.403	24.74
547.829	24.75
548.256	24.78
548.682	24.79
549.108	24.82
549.535	24.84
549.961	24.85
550.387	24.87
550.813	24.89
551.24	24.89
551.666	24.88
552.092	24.88
552.518	24.87
552.943	24.85
553.369	24.85
553.795	24.81
554.221	24.79
554.646	24.74
555.072	24.7
555.498	24.64
555.923	24.6
556.349	24.56
556.774	24.5
557.199	24.44
557.625	24.38
558.05	24.32
558.475	24.26
558.9	24.19
559.325	24.14
559.75	24.05
560.175	23.97
560.6	23.89
561.025	23.79
561.449	23.68
561.874	23.59
562.299	23.48
562.723	23.36
563.148	23.23
563.572	23.09
563.997	22.95
564.421	22.82
564.846	22.71
565.27	22.57
565.694	22.45
566.118	22.33
566.542	22.19
566.966	22.05
567.39	21.91
567.814	21.78
568.238	21.64
568.662	21.52
569.086	21.38
569.509	21.24
569.933	21.1
570.357	20.96
570.78	20.82
571.204	20.68
571.627	20.55
572.05	20.42
572.474	20.31
572.897	20.18
573.32	20.05
573.743	19.93
574.166	19.81
574.589	19.67
575.012	19.57
575.435	19.45
575.858	19.33
576.281	19.22
576.704	19.13
577.126	19.01
577.549	18.9
577.972	18.8
578.394	18.7
578.817	18.62
579.239	18.54
579.661	18.43
580.084	18.35
580.506	18.28
580.928	18.2
581.35	18.11
581.772	18.03
582.194	17.96
582.616	17.89
583.038	17.81
583.46	17.72
583.882	17.64
584.303	17.58
584.725	17.52
585.147	17.44
585.568	17.37
585.99	17.31
586.411	17.27
586.833	17.2
587.254	17.14
587.675	17.08
588.096	17.02
588.518	16.97
588.939	16.92
589.36	16.85
589.781	16.81
590.202	16.77
590.623	16.71
591.043	16.64
591.464	16.61
591.885	16.56
592.305	16.53
592.726	16.5
593.147	16.45
593.567	16.41
593.987	16.37
594.408	16.33
594.828	16.28
595.248	16.26
595.669	16.24
596.089	16.22
596.509	16.19
596.929	16.15
597.349	16.12
597.769	16.08
598.189	16.04
598.608	16.02
599.028	15.99
599.448	15.96
599.867	15.91
600.287	15.86
600.706	15.81
601.126	15.77
601.545	15.73
601.965	15.68
602.384	15.64
602.803	15.59
603.222	15.54
603.641	15.48
604.061	15.43
604.48	15.37
604.898	15.3
605.317	15.23
605.736	15.17
606.155	15.1
606.574	15.02
606.992	14.95
607.411	14.88
607.829	14.78
608.248	14.69
608.666	14.62
609.085	14.55
609.503	14.48
609.921	14.4
610.339	14.31
610.758	14.24
611.176	14.16
611.594	14.09
612.012	14
612.43	13.94
612.847	13.87
613.265	13.78
613.683	13.7
614.101	13.61
614.518	13.54
614.936	13.46
615.353	13.38
615.771	13.31
616.188	13.24
616.606	13.18
617.023	13.12
617.44	13.07
617.857	13.02
618.274	12.97
618.691	12.91
619.108	12.86
619.525	12.81
619.942	12.78
620.359	12.76
620.776	12.71
621.192	12.68
621.609	12.64
622.026	12.61
622.442	12.59
622.859	12.57
623.275	12.56
623.691	12.54
624.108	12.52
624.524	12.49
624.94	12.47
625.356	12.47
625.772	12.46
626.188	12.46
626.604	12.45
627.02	12.43
627.436	12.42
627.852	12.4
628.268	12.4
628.683	12.39
629.099	12.38
629.514	12.36
629.93	12.35
630.345	12.31
630.761	12.28
631.176	12.24
631.591	12.21
632.007	12.17
632.422	12.11
632.837	12.06
633.252	11.99
633.667	11.93
634.082	11.87
634.497	11.78
634.911	11.7
635.326	11.61
635.741	11.53
636.155	11.43
636.57	11.33
636.984	11.23
637.399	11.12
637.813	11
638.228	10.88
638.642	10.75
639.056	10.62
639.47	10.49
639.884	10.36
640.298	10.22
640.712	10.09
641.126	9.96
641.54	9.82
641.954	9.68
642.368	9.56
642.781	9.45
643.195	9.32
643.609	9.2
644.022	9.07
644.436	8.96
644.849	8.85
645.262	8.74
645.676	8.64
646.089	8.55
646.502	8.47
646.915	8.39
647.328	8.31
647.741	8.22
648.154	8.17
648.567	8.12
648.98	8.07
649.393	8.02
649.805	7.96
650.218	7.92
650.631	7.88
651.043	7.84
651.456	7.79
651.868	7.75
652.28	7.71
652.693	7.67
653.105	7.62
653.517	7.56
653.929	7.51
654.341	7.45
654.753	7.38
655.165	7.31
655.577	7.23
655.989	7.16
656.401	7.09
656.813	7.01
657.224	6.91
657.636	6.82
658.047	6.73
658.459	6.64
658.87	6.55
659.282	6.46
659.693	6.36
660.104	6.27
660.515	6.17
660.926	6.08
661.338	5.99
661.749	5.91
662.159	5.83
662.57	5.76
662.981	5.68
663.392	5.6
663.803	5.54
664.213	5.47
664.624	5.42
665.035	5.36
665.445	5.31
665.855	5.26
666.266	5.21
666.676	5.16
667.086	5.11
667.497	5.08
667.907	5.05
668.317	5.01
668.727	4.98
669.137	4.96
669.547	4.95
669.956	4.93
670.366	4.92
670.776	4.91
671.186	4.91
671.595	4.91
672.005	4.91
672.414	4.91
672.824	4.92
673.233	4.93
673.642	4.94
674.052	4.94
674.461	4.96
674.87	4.98
675.279	5.01
675.688	5.03
676.097	5.05
676.506	5.08
676.915	5.1
677.323	5.15
677.732	5.18
678.141	5.23
678.549	5.28
678.958	5.33
679.366	5.39
679.775	5.45
680.183	5.53
680.592	5.62
681	5.72
681.408	5.83
681.816	5.93
682.224	6.05
682.632	6.19
683.04	6.34
683.448	6.51
683.856	6.68
684.264	6.89
684.671	7.11
685.079	7.34
685.487	7.62
685.894	7.9
686.302	8.21
686.709	8.55
687.116	8.93
687.524	9.3
687.931	9.71
688.338	10.14
688.745	10.58
689.152	11.05
689.559	11.55
689.966	12.06
690.373	12.59
690.78	13.14
691.187	13.69
691.593	14.25
692	14.83
692.407	15.39
692.813	15.97
693.22	16.56
693.626	17.14
694.032	17.72
694.439	18.29
694.845	18.87
695.251	19.43
695.657	20
696.063	20.54
696.469	21.1
696.875	21.67
697.281	22.23
697.687	22.78
698.093	23.31
698.498	23.84
698.904	24.36
699.31	24.86
699.715	25.38
700.12	25.88
700.526	26.38
700.931	26.85
701.337	27.32
701.742	27.76
702.147	28.2
702.552	28.64
702.957	29.05
703.362	29.45
703.767	29.84
704.172	30.23
704.577	30.59
704.981	30.96
705.386	31.31
705.791	31.65
706.195	32
706.6	32.34
707.004	32.67
707.408	33
707.813	33.34
708.217	33.66
708.621	33.97
709.025	34.29
709.43	34.58
709.834	34.89
710.237	35.18
710.641	35.45
711.045	35.73
711.449	36
711.853	36.29
712.256	36.51
712.66	36.75
713.064	36.99
713.467	37.22
713.87	37.46
714.274	37.69
714.677	37.93
715.08	38.15
715.484	38.35
715.887	38.58
716.29	38.76
716.693	38.98
717.096	39.2
717.499	39.4
717.901	39.59
718.304	39.77
718.707	39.94
719.109	40.12
719.512	40.33
719.915	40.52
720.317	40.66
720.719	40.81
721.122	40.96
721.524	41.13
721.926	41.28
722.328	41.45
722.731	41.58
723.133	41.76
723.535	41.87
723.937	41.99
724.338	42.11
724.74	42.24
725.142	42.44
725.544	42.56
725.945	42.7
726.347	42.78
726.748	42.87
727.15	42.96
727.551	43.04
727.952	43.12
728.354	43.2
728.755	43.28
729.156	43.35
729.557	43.35
729.958	43.43
730.359	43.47
730.76	43.56
731.161	43.62
731.562	43.71
731.962	43.74
732.363	43.82
732.763	43.88
733.164	43.95
733.564	44.01
733.965	44.06
734.365	44.12
734.766	44.16
735.166	44.21
735.566	44.26
735.966	44.33
736.366	44.36
736.766	44.38
737.166	44.42
737.566	44.46
737.966	44.49
738.365	44.51
738.765	44.55
739.165	44.57
739.564	44.6
739.964	44.61
740.363	44.61
740.763	44.66
741.162	44.71
741.561	44.73
741.96	44.74
742.36	44.75
742.759	44.77
743.158	44.79
743.557	44.82
743.955	44.85
744.354	44.87
744.753	44.91
745.152	44.94
745.55	44.96
745.949	44.96
746.348	45.01
746.746	45.04
747.144	45.07
747.543	45.08
747.941	45.08
748.339	45.04
748.737	45.03
749.136	45.02
749.534	45.01
749.932	44.99
750.33	44.98
750.727	44.99
751.125	44.99
751.523	44.98
751.921	45
752.318	45.03
752.716	45.08
753.113	45.11
753.511	45.13
753.908	45.14
754.305	45.18
754.703	45.18
755.1	45.18
755.497	45.17
755.894	45.18
756.291	45.15
756.688	45.12
757.085	45.13
757.482	45.1
757.878	45.1
758.275	45.09
758.672	45.08
759.068	45.12
759.465	45.09
759.861	45.08
760.258	45.11
760.654	45.14
761.05	45.15
761.447	45.17
761.843	45.17
762.239	45.16
762.635	45.13
763.031	45.12
763.427	45.09
763.822	45.11
764.218	45.14
764.614	45.1
765.01	45.07
765.405	45.05
765.801	45.01
766.196	45.02
766.592	45.03
766.987	45.05
767.382	45.05
767.778	45.07
768.173	45.07
768.568	45.05
768.963	45.05
769.358	45.06
769.753	45.08
770.148	45.09
770.542	45.1
770.937	45.11
771.332	45.12
771.726	45.12
772.121	45.1
772.515	45.11
772.91	45.11
773.304	45.12
773.699	45.12
774.093	45.12
774.487	45.1
774.881	45.09
775.275	45.07
775.669	45.07
776.063	45.05
776.457	45.06
776.851	45.06
777.245	45.04
777.638	45.01
778.032	45
778.425	45.03
778.819	45.04
779.212	45.05
779.606	45.07
779.999	45.05
780.392	45.1
780.786	45.11
781.179	45.11
781.572	45.16
781.965	45.18
782.358	45.2
782.751	45.17
783.143	45.2
783.536	45.19
783.929	45.19
784.322	45.21
784.714	45.19
785.107	45.2
785.499	45.19
785.891	45.18
786.284	45.19
786.676	45.17
787.068	45.19
787.46	45.18
787.852	45.18
788.245	45.2
788.636	45.17
789.028	45.16
789.42	45.14
789.812	45.16
790.204	45.16
790.595	45.18
790.987	45.19
791.378	45.21
791.77	45.23
792.161	45.22
792.553	45.19
792.944	45.21
793.335	45.22
793.726	45.23
794.117	45.21
794.508	45.19
794.899	45.17
795.29	45.16
795.681	45.15
796.072	45.11
796.463	45.12
796.853	45.15
797.244	45.16
797.634	45.16
798.025	45.18
798.415	45.19
798.806	45.2
799.196	45.21
799.586	45.23
799.976	45.23
800.366	45.25
800.756	45.23
801.146	45.23
801.536	45.25
801.926	45.25
802.316	45.22
802.706	45.22
803.095	45.24
803.485	45.22
803.874	45.2
804.264	45.2
804.653	45.22
805.043	45.22
805.432	45.21
805.821	45.2
806.21	45.19
806.599	45.21
806.988	45.22
807.377	45.22
807.766	45.23
808.155	45.21
808.544	45.21
808.933	45.2
809.321	45.21
809.71	45.21
810.098	45.19
810.487	45.18
810.875	45.17
811.264	45.15
811.652	45.16
812.04	45.16
812.428	45.22
812.816	45.22
813.204	45.21
813.592	45.2
813.98	45.21
814.368	45.24
814.756	45.26
815.144	45.25
815.531	45.26
815.919	45.23
816.306	45.25
816.694	45.21
817.081	45.21
817.469	45.23
817.856	45.25
818.243	45.23
818.63	45.19
819.017	45.16
819.404	45.15
819.791	45.14
820.178	45.17
820.565	45.13
820.952	45.14
821.339	45.12
821.725	45.1
822.112	45.11
822.498	45.13
822.885	45.18
823.271	45.22
823.657	45.19
824.044	45.19
824.43	45.19
824.816	45.18
825.202	45.19
825.588	45.2
825.974	45.2
826.36	45.2
826.746	45.16
827.132	45.12
827.517	45.11
827.903	45.14
828.289	45.15
828.674	45.15
829.06	45.16
829.445	45.13
829.83	45.14
830.216	45.13
830.601	45.13
830.986	45.12
831.371	45.12
831.756	45.12
832.141	45.12
832.526	45.09
832.911	45.09
833.295	45.1
833.68	45.14
834.065	45.11
834.449	45.1
834.834	45.09
835.218	45.1
835.603	45.09
835.987	45.09
836.371	45.06
836.755	45.06
837.139	45.04
837.524	45.02
837.908	45.03
838.291	45.06
838.675	45.08
839.059	45.1
839.443	45.09
839.827	45.08
840.21	45.04
840.594	45.06
840.977	45.05
841.361	45.07
841.744	45.04
842.127	45
842.511	44.97
842.894	44.95
843.277	44.94
843.66	44.92
844.043	44.92
844.426	44.96
844.809	44.97
845.191	44.98
845.574	44.96
845.957	44.99
846.339	45.01
846.722	45.01
847.104	45.02
847.487	45
847.869	45.02
848.252	45.03
848.634	44.99
849.016	45
849.398	45
849.78	45.01
850.162	45
850.544	45.01
850.926	45.01
851.307	45
851.689	45.01
852.071	45.02
852.452	45.02
852.834	45.05
853.215	45.02
853.597	45.02
853.978	44.99
854.359	44.99
854.741	44.97
855.122	44.95
855.503	44.95
855.884	44.95
856.265	44.95
856.646	44.94
857.026	44.93
857.407	44.96
857.788	44.96
858.169	45
858.549	45.01
858.93	45.02
859.31	45.06
859.69	45.07
860.071	45.08
860.451	45.08
860.831	45.08
861.211	45.08
861.591	45.05
861.971	45.04
862.351	45.03
862.731	45.02
863.111	44.99
863.491	44.99
863.87	44.99
864.25	44.96
864.629	44.95
865.009	44.95
865.388	44.96
865.768	44.98
866.147	44.99
866.526	44.99
866.905	45.02
867.284	45.04
867.663	45.03
868.042	45.04
868.421	45.07
868.8	45.07
869.179	45.08
869.558	45.07
869.936	45.06
870.315	45.04
870.693	45.04
871.072	45.01
871.45	45.02
871.828	45.03
872.207	45.02
872.585	44.99
872.963	44.98
873.341	44.98
873.719	44.99
874.097	44.97
874.475	45.01
874.853	45.03
875.23	45.04
875.608	45.04
875.986	45.04
876.363	45.04
876.741	45.06
877.118	45.06
877.495	45.08
877.873	45.09
878.25	45.13
878.627	45.13
879.004	45.11
879.381	45.11
879.758	45.08
880.135	45.08
880.512	45.06
880.889	45.05
881.265	45.04
881.642	45.04
882.019	45.02
882.395	44.99
882.772	44.97
883.148	44.96
883.524	44.96
883.901	44.99
884.277	44.96
884.653	44.97
885.029	44.96
885.405	44.97
885.781	44.96
886.157	44.96
886.532	44.99
886.908	44.97
887.284	44.98
887.659	44.96
888.035	44.93
888.411	44.92
888.786	44.92
889.161	44.93
889.537	44.91
889.912	44.9
890.287	44.89
890.662	44.85
891.037	44.86
891.412	44.84
891.787	44.82
892.162	44.82
892.536	44.82
892.911	44.81
893.286	44.8
893.66	44.8
894.035	44.81
894.409	44.79
894.784	44.8
895.158	44.79
895.532	44.82
895.906	44.82
896.281	44.81
896.655	44.81
897.029	44.82
897.402	44.81
897.776	44.81
898.15	44.8
898.524	44.82
898.898	44.82
899.271	44.82
899.645	44.82
900.018	44.85
900.392	44.86
900.765	44.9
901.138	44.89
901.511	44.91
901.884	44.95
902.258	44.94
902.631	44.95
903.003	44.95
903.376	44.95
903.749	44.93
904.122	44.91
904.495	44.91
904.867	44.91
905.24	44.93
905.612	44.94
905.985	44.91
906.357	44.9
906.729	44.91
907.102	44.91
907.474	44.94
907.846	44.97
908.218	44.98
908.59	44.99
908.962	44.98
909.334	45
909.705	44.99
910.077	44.99
910.449	45.03
910.82	45.04
911.192	45.06
911.563	45.04
911.935	45
912.306	45.01
912.677	45.02
913.048	45.04
913.419	45.03
913.79	45.05
914.161	45.07
914.532	45.04
914.903	45.06
915.274	45.05
915.645	45.07
916.015	45.1
916.386	45.1
916.756	45.07
917.127	45.08
917.497	45.07
917.868	45.05
918.238	45.02
918.608	45.05
918.978	45.02
919.348	45.01
919.718	45
920.088	45
920.458	44.97
920.828	44.97
921.198	44.92
921.567	44.92
921.937	44.93
922.306	44.93
922.676	44.94
923.045	44.95
923.415	44.94
923.784	44.93
924.153	44.95
924.522	44.96
924.891	44.96
925.26	44.97
925.629	44.98
925.998	44.96
926.367	44.93
926.736	44.94
927.104	44.93
927.473	44.94
927.842	44.91
928.21	44.91
928.578	44.92
928.947	44.94
929.315	44.92
929.683	44.95
930.051	44.96
930.42	45.01
930.788	44.94
931.156	44.9
931.523	44.92
931.891	44.97
932.259	44.96
932.627	44.94
932.994	44.93
933.362	44.94
933.729	44.89
934.097	44.88
934.464	44.88
934.831	44.9
935.199	44.93
935.566	44.88
935.933	44.82
936.3	44.82
936.667	44.82
937.034	44.84
937.401	44.87
937.767	44.89
938.134	44.86
938.501	44.83
938.867	44.88
939.234	44.87
939.6	44.87
939.967	44.87
940.333	44.84
940.699	44.85
941.065	44.77
941.431	44.73
941.798	44.68
942.163	44.69
942.529	44.7
942.895	44.67
943.261	44.63
943.627	44.62
943.992	44.6
944.358	44.61
944.723	44.6
945.089	44.61
945.454	44.63
945.82	44.67
946.185	44.65
946.55	44.59
946.915	44.57
947.28	44.52
947.645	44.52
948.01	44.6
948.375	44.55
948.74	44.49
949.104	44.48
949.469	44.44
949.834	44.41
950.198	44.39
950.562	44.37
950.927	44.31
951.291	44.31
951.655	44.29
952.02	44.19
952.384	44.19
952.748	44.23
953.112	44.22
953.476	44.18
953.839	44.08
954.203	44.01
954.567	43.98
954.931	43.96
955.294	43.95
955.658	44
956.021	44
956.385	43.98
956.748	43.95
957.111	43.92
957.474	43.94
957.837	43.94
958.2	43.97
958.563	43.97
958.926	43.96
959.289	43.96
959.652	43.92
960.015	43.96
960.377	43.93
960.74	43.96
961.102	43.97
961.465	43.96
961.827	44
962.189	44.03
962.552	44.04
962.914	44.05
963.276	44.05
963.638	44.04
964	44
964.362	44.05
964.724	44
965.085	43.98
965.447	43.98
965.809	43.99
966.17	43.95
966.532	43.95
966.893	43.97
967.255	43.98
967.616	44.01
967.977	44.01
968.338	43.96
968.699	43.95
969.061	43.96
969.421	43.91
969.782	43.91
970.143	43.88
970.504	43.87
970.865	43.91
971.225	43.87
971.586	43.84
971.946	43.87
972.307	43.87
972.667	43.9
973.027	43.9
973.388	43.91
973.748	43.88
974.108	44
974.468	44
974.828	44.02
975.188	44.07
975.548	44.05
975.907	44.08
976.267	44.1
976.627	44.16
976.986	44.15
977.346	44.15
977.705	44.21
978.064	44.18
978.424	44.23
978.783	44.16
979.142	44.13
979.501	44.15
979.86	44.11
980.219	44.08
980.578	44.01
980.937	44.05
981.296	44.07
981.654	43.98
982.013	44.02
982.371	43.98
982.73	44.02
983.088	44
983.447	43.99
983.805	43.99
984.163	44
984.521	44.06
984.879	44.05
985.237	44.06
985.595	44.21
985.953	44.07
986.311	44.02
986.669	44.07
987.026	44.05
987.384	44.1
987.741	44.08
988.099	44.15
988.456	44.11
988.814	44.11
989.171	44.14
989.528	44.07
989.885	44.13
990.242	44.2
990.599	44.19
990.956	44.3
991.313	44.33
991.67	44.32
992.027	44.41
992.383	44.41
992.74	44.5
993.096	44.48
993.453	44.45
993.809	44.46
994.165	44.51
994.522	44.56
994.878	44.54
995.234	44.51
995.59	44.58
995.946	44.56
996.302	44.64
996.658	44.61
997.013	44.64
997.369	44.69
997.725	44.76
998.08	44.87
998.436	44.82
998.791	44.73
999.147	44.68
999.502	44.72
999.857	44.66
1000.212	44.61
1000.567	44.65
1000.922	44.66
1001.277	44.68
1001.632	44.52
1001.987	44.31
1002.342	44.29
1002.696	44.43
1003.051	44.57
1003.406	44.7
1003.76	44.79
1004.114	44.86
1004.469	44.87
1004.823	45.13
1005.177	45.06
1005.531	45.25
1005.885	45.36
1006.239	45.3
1006.593	45.46
1006.947	45.5
1007.301	45.31
1007.655	45.3
1008.008	45.32
1008.362	45.39
1008.715	45.12
1009.069	45.32
1009.422	45.46
1009.776	45.53
1010.129	45.71
1010.482	45.64
1010.835	45.58
1011.188	45.73
1011.541	45.66
1011.894	45.73
1012.247	45.66
1012.6	45.68
1012.952	45.56
1013.305	45.57
1013.657	45.69
1014.01	45.64
1014.362	45.65
1014.715	45.84
1015.067	45.9
1015.419	45.93
1015.771	45.91
1016.123	45.95
1016.475	46
1016.827	45.98
1017.179	45.76
1017.531	45.88
1017.883	45.88
1018.234	45.94
1018.586	45.86
1018.938	45.98
1019.289	45.99
1019.64	46.14
1019.992	46.17
1020.343	46.25
1020.694	46.46
1021.045	46.58
1021.396	46.46
1021.747	46.58
1022.098	46.51
1022.449	46.53
1022.8	46.32
1023.151	46.25
1023.501	46.11
1023.852	46.24
1024.202	46.17
1024.553	46.17
1024.903	46.24
1025.253	46.35
1025.604	46.36
1025.954	46.23
1026.304	46.2
1026.654	46.3
1027.004	46.34
1027.354	46.27
1027.703	45.99
1028.053	46.03
1028.403	46.09
1028.753	46
1029.102	46.02
1029.452	46.13
1029.801	46.52
1030.15	46.5
1030.499	46.44
897.758	1406.28
901.051	1412.21
904.343	1406.17
907.636	1430.23
910.928	1391.86
914.22	1393.39
917.511	1376.74
920.803	1318.52
924.094	1312.53
927.384	1281.45
930.675	1228.25
933.965	1220.56
937.255	1150.87
940.544	1105.56
943.834	1052.92
947.123	1043.38
950.411	979.94
953.7	958.68
956.988	906.11
960.276	870.83
963.563	856.12
966.851	825.23
970.138	818.66
973.424	791.35
976.711	797.23
979.997	756.68
983.283	751.79
986.568	737.25
989.853	715.59
993.138	702.95
996.423	675.75
999.708	657.77
1002.992	649.45
1006.275	621.6
1009.559	615.63
1012.842	592.32
1016.125	576.27
1019.408	566.49
1022.69	558.54
1025.972	546.82
1029.254	533.59
1032.536	523.94
1035.817	513.72
1039.098	506.66
1042.379	495.55
1045.659	490.55
1048.939	478.22
1052.219	469.77
1055.498	462.83
1058.778	451.43
1062.057	440.93
1065.335	435.8
1068.614	430.08
1071.892	425.33
1075.17	412.8
1078.447	403.86
1081.724	401.15
1085.001	398.32
1088.278	389.91
1091.554	381.86
1094.83	382.89
1098.106	380.91
1101.382	377.89
1104.657	375.15
1107.932	368.26
1111.206	369.3
1114.481	361.44
1117.755	357.36
1121.029	354.46
1124.302	354.04
1127.575	347.37
1130.848	342.84
1134.121	338.64
1137.393	336.43
1140.665	328.82
1143.937	327.74
1147.208	325.59
1150.48	324.66
1153.75	320.81
1157.021	316.31
1160.291	316.31
1163.561	312.56
1166.831	312.82
1170.101	310.4
1173.37	310.17
1176.639	311.53
1179.907	308.16
1183.176	304.76
1186.444	304.15
1189.711	303.16
1192.979	302.41
1196.246	299.99
1199.513	301.21
1202.78	298.91
1206.046	299.22
1209.312	295.51
1212.578	296.09
1215.843	298.4
1219.108	296.93
1222.373	302.62
1225.638	305.11
1228.902	309.41
1232.166	310.06
1235.43	312.92
1238.693	316.49
1241.956	318
1245.219	323.49
1248.482	322.57
1251.744	322.29
1255.006	324.24
1258.268	316.03
1261.529	313.22
1264.79	310.53
1268.051	308.63
1271.312	304.01
1274.572	299.84
1277.832	297.58
1281.092	292.88
1284.351	291.05
1287.61	290.84
1290.869	285.87
1294.128	284.34
1297.386	284.25
1300.644	280.94
1303.902	282.09
1307.159	281.47
1310.416	281.8
1313.673	280.8
1316.93	283.36
1320.186	283.55
1323.442	284.39
1326.697	289.37
1329.953	290.57
1333.208	291.41
1336.463	295.94
1339.717	295.89
1342.972	298.59
1346.226	301.92
1349.479	302.07
1352.733	303.79
1355.986	305.15
1359.238	305.38
1362.491	306.85
1365.743	309.12
1368.995	309.66
1372.247	309.59
1375.498	309.48
1378.749	312.8
1382	309.01
1385.251	310.45
1388.501	308.51
1391.751	309.65
1395	308.02
1398.25	304.98
1401.499	304.11
1404.748	303.59
1407.996	299.09
1411.244	298.18
1414.492	296.51
1417.74	293.9
1420.987	289.33
1424.234	288.63
1427.481	285.01
1430.728	284.77
1433.974	282.27
1437.22	279.45
1440.465	278.74
1443.711	276.93
1446.956	275.05
1450.201	271.07
1453.445	269.07
1456.689	268.28
1459.933	263.07
1463.177	260.81
1466.42	256.8
1469.663	253.78
1472.906	251.97
1476.148	245.65
1479.391	242.47
1482.633	240.19
1485.874	236.6
1489.115	234.51
1492.356	231.39
1495.597	231.88
1498.838	228.45
1502.078	226.93
1505.318	226.14
1508.557	225.76
1511.797	225.26
1515.036	223.92
1518.274	222.99
1521.513	221.75
1524.751	220.96
1527.989	220.85
1531.227	219.21
1534.464	219.92
1537.701	218.01
1540.938	217.38
1544.174	214.93
1547.41	214.9
1550.646	213.86
1553.882	214.02
1557.117	211.01
1560.352	209.95
1563.587	208.97
1566.821	207.43
1570.055	205.29
1573.289	203.9
1576.523	203.16
1579.756	201.9
1582.989	200.53
1586.222	200.57
1589.454	198.04
1592.686	199.84
1595.918	198.71
1599.15	198.08
1602.381	198.94
1605.612	198.61
1608.843	199.49
1612.073	199.37
1615.303	200.41
1618.533	199.91
1621.762	200
1624.992	201.28
1628.221	200.97
1631.449	200.72
1634.678	200.03
1637.906	200.67
1641.134	200.56
1644.361	200.03
1647.588	201.02
1650.815	200.01
1654.042	199.29
1657.269	199.89
1660.495	200.16
1663.72	198.94
1666.946	200.25
1670.171	201.08
1673.396	200.83
1676.621	201.38
1679.845	201.74
1683.069	201.61
1686.293	202.96
1689.517	204.49
1692.74	204.14
1695.963	204.82
1699.185	207.06
1702.408	206.87
1705.63	207.8
1708.852	207.78
1712.073	208.15
1715.294	208.72
1718.515	209.6
1721.736	209.09
1724.956	210.05
1728.176	209.93
1731.396	211.54
1734.616	210.94
1737.835	211.91
1741.054	210.63
1744.272	211.29
1747.491	213.24
1750.709	213.33
1753.927	213.49
1757.144	213.35
1760.361	213.94
1763.578	214.46
1766.795	213.67
1770.011	215.51
1773.227	215.32
1776.443	217.59
1779.658	218.84
1782.874	218.3
1786.089	219.08
1789.303	219.82
1792.518	222.33
1795.732	221.97
1798.945	224.31
1802.159	224.59
1805.372	224.83
1808.585	228.62
1811.797	229.58
1815.01	229.62
1818.222	231.35
1821.434	233.29
1824.645	234.06
1827.856	237.6
1831.067	239.75
1834.278	239.25
1837.488	240.88
1840.698	242.61
1843.908	240.36
1847.117	241.24
1850.326	242.92
1853.535	242.63
1856.744	245.8
1859.952	246.15
1863.16	244.44
1866.368	242.42
1869.575	245.27
1872.782	241.84
1875.989	241.7
1879.196	241.37
1882.402	240.35
1885.608	241.26
1888.814	241.87
1892.019	241.52
1895.224	240.6
1898.429	239.98
1901.634	242.38
1904.838	241.69
1908.042	245.29
1911.246	245.62
1914.449	247.04
1917.652	247.38
1920.855	247.28
1924.058	246.66
1927.26	245.59
1930.462	246.56
1933.664	249.4
1936.865	247.28
1940.066	247.31
1943.267	245.58
1946.467	244.97
1949.668	246.73
1952.868	249.93
1956.067	249.74
1959.267	250.29
1962.466	251.42
1965.665	250.08
1968.863	250.05
1972.061	253.95
1975.259	255.72
1978.457	257.56
1981.654	260.59
1984.852	260.68
1988.048	259.36
1991.245	261.49
1994.441	264.83
1997.637	265.97
2000.833	271.97
2004.028	275.89
2007.223	276.19
2010.418	279.24
2013.613	283.88
2016.807	286.33
2020.001	289.16
2023.194	293.43
2026.388	300.09
2029.581	305.49
2032.774	309.17
2035.966	314.54
2039.158	314.66
2042.35	321.43
2045.542	324.29
2048.733	329.1
2051.924	333.88
2055.115	339.43
2058.306	340.2
2061.496	343.97
2064.686	344.39
2067.875	349.84
2071.065	351.69
2074.254	350.19
2077.442	354.33
2080.631	355.42
2083.819	359.18
2087.007	358.31
2090.195	363.3
2093.382	365.93
2096.569	363.39
2099.756	369.83
2102.942	370.51
2106.128	373.13
2109.314	381.74
2112.5	380.28
2115.685	389.48
2118.87	389.8
2122.055	399.34
2125.239	401.64
2128.424	407.16
2131.608	410.36
2134.791	416.3
2137.974	418.09
2141.157	419.28
2144.34	420.72
2147.523	427.29
2150.705	423.97
2153.887	427.72
2157.068	427.57
2160.25	422.19
2163.431	425.49
2166.611	429.72
2169.792	437.8
2172.972	442.68
2176.152	444.99
2179.331	451.02
2182.511	457.25
2185.69	462.89
2188.868	472.57
2192.047	473.89
2195.225	488.6
2198.403	500.11
2201.58	509.26
2204.758	516.77
2207.935	527.87
2211.111	538.4
2214.288	544.28
2217.464	547.04
2220.64	554.87
2223.815	563.1
2226.991	586.99
2230.166	588.26
2233.34	597.01
2236.515	608.78
2239.689	608.96
2242.863	612.24
2246.036	631.18
2249.209	625.27
2252.382	636.39
2255.555	655.34
2258.727	657.64
2261.9	658.5
2265.071	665.19
2268.243	677.23
2271.414	685.35
2274.585	701.27
2277.756	708.71
2280.926	712.98
2284.096	731.27
2287.266	748.13
2290.436	753.14
2293.605	770.31
2296.774	795.2
2299.942	820.91
2303.111	825.28
2306.279	842.06
2309.447	855.96
2312.614	877.1
2315.781	900.48
2318.948	943.85
2322.115	928.42
2325.281	979.72
2328.447	958.28
2331.613	1003.21
2334.779	991.69
2337.944	1033.54
2341.109	1043.99
2344.274	1070.3
2347.438	1110.45
2350.602	1109.17
2353.766	1141.2
2356.929	1157.87
2360.092	1148.94
2363.255	1233.76
2366.418	1223.19
2369.58	1247.16
2372.742	1329.27
2375.904	1363.05
2379.066	1353.78
2382.227	1323.46
2385.388	1439.72
2388.548	1440.89
2391.709	1458.13
2394.869	1628.07
2398.029	1558.78
2401.188	1604.1
2404.347	1594.56
2407.506	1563.58
2410.665	1610.38
2413.823	1707.83
2416.981	1812.14
2420.139	1749.32
2423.296	1732.89
2426.453	1810.75
2429.61	1738.17
2432.767	1818.05
2435.923	1799.15
2439.079	1970.31
2442.235	1995.57
2445.391	1973.78
2448.546	1962.55
2451.701	1907.62
2454.855	1905.52
2458.009	2018.3
2461.163	2097.3
2464.317	2184.07
2467.471	2240.6
2470.624	2242.76
2473.777	2180.37
2476.929	2126.21
2480.082	2068.28
2483.234	2041.46
2486.385	2147.51
2489.537	2160
2492.688	2241.98
2495.839	2179.23
2498.989	2125.95
2502.14	2134.88
2505.29	2159.22
2508.439	2196.19
2511.589	2190.97
2514.738	2387.65
2517.887	2336.19
2521.035	2468.5
2524.183	2491.67
2527.331	2505.8
2530.479	2500.52
2533.627	2519.34
