Data from C_2_DIV_PA_2N_Splice17_13-42-58-443.txt Node
Date: Sat Mar 07 13:42:58 EST 2020
User: sa697716
Spectrometer: NQ5500242
Trigger mode: 0
Integration Time (sec): 1.450000E-1
Scans to average: 20
Nonlinearity correction enabled: false
Boxcar width: 5
Storing dark spectrum: false
XAxis mode: Wavelengths
Number of Pixels in Spectrum: 512
>>>>>Begin Spectral Data<<<<<
187.83	199.83
188.298	213.33
188.766	211.7
189.233	185.76
189.701	183.82
190.169	213.46
190.636	219.49
191.104	258
191.571	-179.01
192.039	-401.78
192.506	-47.24
192.974	-71.51
193.441	-112.96
193.908	31.49
194.375	77.91
194.842	16.42
195.31	84.57
195.777	334.49
196.244	89.85
196.711	72.2
197.177	73.75
197.644	73.25
198.111	72.98
198.578	72.92
199.045	72.56
199.511	72.23
199.978	72.41
200.445	72.5
200.911	72.08
201.378	71.78
201.844	71.99
202.31	71.86
202.777	71.8
203.243	71.66
203.709	71.06
204.176	70.35
204.642	69.87
205.108	69.03
205.574	68.34
206.04	67.41
206.506	66.89
206.972	65.86
207.438	64.9
207.903	63.84
208.369	62.22
208.835	61.14
209.301	60.18
209.766	58.46
210.232	57.06
210.697	55.43
211.163	54.16
211.628	52.77
212.094	51.39
212.559	50.33
213.024	49.16
213.49	48.6
213.955	47.45
214.42	46.01
214.885	44.78
215.35	43.06
215.815	40.9
216.28	38.04
216.745	34.86
217.21	31.89
217.675	28.96
218.14	26.53
218.604	24.29
219.069	22.51
219.534	21.19
219.998	19.95
220.463	19
220.927	18.12
221.392	17.48
221.856	16.96
222.32	16.49
222.785	16.11
223.249	15.72
223.713	15.38
224.177	15.12
224.642	14.8
225.106	14.52
225.57	14.23
226.034	14.02
226.497	13.79
226.961	13.59
227.425	13.38
227.889	13.15
228.353	12.96
228.816	12.76
229.28	12.57
229.744	12.41
230.207	12.26
230.671	12.1
231.134	11.92
231.597	11.8
232.061	11.66
232.524	11.52
232.987	11.41
233.45	11.31
233.914	11.2
234.377	11.06
234.84	10.95
235.303	10.85
235.766	10.75
236.229	10.66
236.691	10.55
237.154	10.46
237.617	10.38
238.08	10.28
238.542	10.19
239.005	10.11
239.468	10.02
239.93	9.94
240.393	9.85
240.855	9.74
241.317	9.65
241.78	9.56
242.242	9.45
242.704	9.37
243.166	9.28
243.629	9.21
244.091	9.13
244.553	9.04
245.015	8.97
245.477	8.89
245.939	8.83
246.4	8.76
246.862	8.68
247.324	8.63
247.786	8.56
248.247	8.49
248.709	8.39
249.17	8.32
249.632	8.27
250.093	8.21
250.555	8.14
251.016	8.09
251.477	8.03
251.939	7.99
252.4	7.94
252.861	7.87
253.322	7.84
253.783	7.8
254.244	7.76
254.705	7.71
255.166	7.66
255.627	7.62
256.088	7.58
256.549	7.53
257.009	7.47
257.47	7.42
257.931	7.37
258.391	7.31
258.852	7.25
259.312	7.2
259.773	7.16
260.233	7.12
260.694	7.08
261.154	7.03
261.614	6.99
262.074	6.95
262.534	6.91
262.994	6.88
263.455	6.85
263.915	6.83
264.374	6.8
264.834	6.77
265.294	6.75
265.754	6.72
266.214	6.71
266.673	6.7
267.133	6.69
267.593	6.68
268.052	6.68
268.512	6.67
268.971	6.67
269.431	6.66
269.89	6.65
270.349	6.65
270.809	6.64
271.268	6.63
271.727	6.61
272.186	6.6
272.645	6.59
273.104	6.58
273.563	6.56
274.022	6.54
274.481	6.54
274.94	6.53
275.399	6.52
275.857	6.51
276.316	6.5
276.775	6.5
277.233	6.49
277.692	6.49
278.15	6.48
278.609	6.49
279.067	6.48
279.525	6.47
279.984	6.46
280.442	6.46
280.9	6.46
281.358	6.45
281.816	6.45
282.274	6.44
282.732	6.43
283.19	6.43
283.648	6.41
284.106	6.4
284.564	6.39
285.021	6.39
285.479	6.38
285.937	6.36
286.394	6.35
286.852	6.33
287.309	6.31
287.767	6.3
288.224	6.28
288.682	6.25
289.139	6.23
289.596	6.22
290.053	6.19
290.511	6.17
290.968	6.16
291.425	6.13
291.882	6.12
292.339	6.11
292.796	6.09
293.252	6.07
293.709	6.07
294.166	6.06
294.623	6.05
295.079	6.04
295.536	6.04
295.992	6.02
296.449	6.01
296.905	6.01
297.362	6
297.818	5.99
298.274	5.99
298.731	5.97
299.187	5.97
299.643	5.96
300.099	5.95
300.555	5.94
301.011	5.93
301.467	5.94
301.923	5.92
302.379	5.92
302.835	5.91
303.291	5.9
303.746	5.9
304.202	5.89
304.658	5.88
305.113	5.88
305.569	5.87
306.024	5.88
306.479	5.86
306.935	5.85
307.39	5.85
307.845	5.84
308.301	5.84
308.756	5.83
309.211	5.83
309.666	5.84
310.121	5.83
310.576	5.83
311.031	5.83
311.486	5.83
311.94	5.83
312.395	5.82
312.85	5.83
313.305	5.81
313.759	5.82
314.214	5.82
314.668	5.81
315.123	5.81
315.577	5.8
316.032	5.79
316.486	5.78
316.94	5.78
317.394	5.77
317.849	5.75
318.303	5.74
318.757	5.71
319.211	5.7
319.665	5.68
320.119	5.66
320.572	5.64
321.026	5.63
321.48	5.62
321.934	5.6
322.387	5.59
322.841	5.59
323.295	5.6
323.748	5.6
324.202	5.59
324.655	5.59
325.108	5.6
325.562	5.6
326.015	5.6
326.468	5.6
326.921	5.6
327.374	5.59
327.827	5.6
328.28	5.59
328.733	5.59
329.186	5.59
329.639	5.59
330.092	5.59
330.545	5.59
330.997	5.6
331.45	5.6
331.903	5.61
332.355	5.62
332.808	5.61
333.26	5.61
333.713	5.6
334.165	5.6
334.617	5.6
335.069	5.59
335.522	5.59
335.974	5.59
336.426	5.59
336.878	5.58
337.33	5.58
337.782	5.58
338.234	5.59
338.686	5.59
339.137	5.59
339.589	5.58
340.041	5.58
340.493	5.55
340.944	5.53
341.396	5.51
341.847	5.49
342.299	5.47
342.75	5.45
343.201	5.42
343.653	5.4
344.104	5.39
344.555	5.37
345.006	5.35
345.457	5.35
345.908	5.35
346.359	5.35
346.81	5.35
347.261	5.34
347.712	5.34
348.163	5.33
348.613	5.34
349.064	5.35
349.515	5.35
349.965	5.36
350.416	5.35
350.866	5.36
351.317	5.34
351.767	5.35
352.217	5.36
352.668	5.36
353.118	5.37
353.568	5.35
354.018	5.36
354.468	5.37
354.918	5.37
355.368	5.38
355.818	5.38
356.268	5.38
356.718	5.39
357.168	5.38
357.617	5.37
358.067	5.37
358.517	5.38
358.966	5.37
359.416	5.37
359.865	5.37
360.315	5.37
360.764	5.38
361.213	5.37
361.663	5.36
362.112	5.37
362.561	5.38
363.01	5.38
363.459	5.38
363.908	5.38
364.357	5.38
364.806	5.37
365.255	5.37
365.703	5.39
366.152	5.41
366.601	5.42
367.05	5.43
367.498	5.43
367.947	5.43
368.395	5.44
368.844	5.45
369.292	5.44
369.74	5.45
370.189	5.45
370.637	5.45
371.085	5.44
371.533	5.44
371.981	5.45
372.429	5.45
372.877	5.46
373.325	5.46
373.773	5.46
374.221	5.46
374.669	5.46
375.116	5.46
375.564	5.47
376.012	5.47
376.459	5.48
376.907	5.49
377.354	5.5
377.801	5.52
378.249	5.53
378.696	5.55
379.143	5.57
379.591	5.59
380.038	5.6
380.485	5.62
380.932	5.63
381.379	5.64
381.826	5.65
382.273	5.67
382.72	5.66
383.166	5.67
383.613	5.67
384.06	5.67
384.506	5.68
384.953	5.69
385.4	5.7
385.846	5.72
386.292	5.73
386.739	5.74
387.185	5.75
387.631	5.77
388.078	5.78
388.524	5.8
388.97	5.82
389.416	5.85
389.862	5.88
390.308	5.91
390.754	5.93
391.2	5.96
391.645	5.98
392.091	6.01
392.537	6.04
392.983	6.06
393.428	6.09
393.874	6.1
394.319	6.11
394.765	6.13
395.21	6.15
395.655	6.17
396.101	6.19
396.546	6.2
396.991	6.22
397.436	6.23
397.881	6.27
398.326	6.29
398.771	6.32
399.216	6.34
399.661	6.35
400.106	6.36
400.551	6.37
400.995	6.38
401.44	6.39
401.885	6.41
402.329	6.44
402.774	6.44
403.218	6.48
403.663	6.49
404.107	6.51
404.551	6.52
404.995	6.53
405.44	6.54
405.884	6.57
406.328	6.59
406.772	6.59
407.216	6.6
407.66	6.61
408.104	6.59
408.547	6.59
408.991	6.61
409.435	6.61
409.879	6.63
410.322	6.66
410.766	6.67
411.209	6.69
411.653	6.71
412.096	6.72
412.54	6.74
412.983	6.77
413.426	6.82
413.869	6.85
414.312	6.89
414.756	6.92
415.199	6.91
415.642	6.91
416.085	6.92
416.527	6.9
416.97	6.88
417.413	6.87
417.856	6.86
418.298	6.84
418.741	6.82
419.184	6.8
419.626	6.8
420.069	6.82
420.511	6.83
420.953	6.84
421.396	6.88
421.838	6.9
422.28	6.91
422.722	6.94
423.164	6.94
423.606	6.96
424.048	6.97
424.49	6.96
424.932	6.95
425.374	6.9
425.816	6.88
426.258	6.85
426.699	6.85
427.141	6.85
427.582	6.84
428.024	6.86
428.465	6.85
428.907	6.83
429.348	6.81
429.789	6.82
430.231	6.87
430.672	6.89
431.113	6.92
431.554	6.94
431.995	6.94
432.436	6.95
432.877	6.95
433.318	6.98
433.759	7.02
434.2	7.05
434.64	7.09
435.081	7.1
435.522	7.11
435.962	7.11
436.403	7.13
436.843	7.14
437.284	7.13
437.724	7.12
438.164	7.1
438.604	7.11
439.045	7.12
439.485	7.11
439.925	7.1
440.365	7.09
440.805	7.1
441.245	7.1
441.685	7.11
442.125	7.11
442.564	7.12
443.004	7.13
443.444	7.13
443.883	7.12
444.323	7.09
444.762	7.09
445.202	7.07
445.641	7.08
446.081	7.08
446.52	7.07
446.959	7.09
447.398	7.1
447.837	7.08
448.276	7.07
448.716	7.07
449.154	7.08
449.593	7.09
450.032	7.08
450.471	7.05
450.91	7.04
451.349	7.04
451.787	7.01
452.226	6.98
452.664	6.97
453.103	6.95
453.541	6.93
453.98	6.92
454.418	6.89
454.856	6.87
455.295	6.85
455.733	6.82
456.171	6.79
456.609	6.78
457.047	6.75
457.485	6.74
457.923	6.74
458.361	6.73
458.798	6.71
459.236	6.71
459.674	6.71
460.111	6.7
460.549	6.73
460.987	6.73
461.424	6.73
461.862	6.74
462.299	6.75
462.736	6.76
463.173	6.75
463.611	6.77
464.048	6.78
464.485	6.78
464.922	6.78
465.359	6.78
465.796	6.81
466.233	6.82
466.67	6.84
467.106	6.84
467.543	6.82
467.98	6.82
468.416	6.78
468.853	6.78
469.29	6.76
469.726	6.76
470.162	6.75
470.599	6.71
471.035	6.68
471.471	6.66
471.907	6.64
472.344	6.64
472.78	6.63
473.216	6.61
473.652	6.6
474.088	6.58
474.523	6.58
474.959	6.56
475.395	6.52
475.831	6.51
476.266	6.48
476.702	6.46
477.138	6.43
477.573	6.41
478.008	6.4
478.444	6.38
478.879	6.39
479.314	6.36
479.75	6.35
480.185	6.33
480.62	6.32
481.055	6.31
481.49	6.3
481.925	6.29
482.36	6.29
482.795	6.28
483.229	6.26
483.664	6.25
484.099	6.24
484.534	6.23
484.968	6.22
485.403	6.22
485.837	6.21
486.271	6.21
486.706	6.2
487.14	6.2
487.574	6.2
488.009	6.2
488.443	6.19
488.877	6.2
489.311	6.21
489.745	6.2
490.179	6.22
490.613	6.23
491.046	6.23
491.48	6.23
491.914	6.23
492.348	6.23
492.781	6.25
493.215	6.26
493.648	6.27
494.082	6.28
494.515	6.29
494.948	6.3
495.382	6.31
495.815	6.32
496.248	6.34
496.681	6.35
497.114	6.35
497.547	6.36
497.98	6.38
498.413	6.38
498.846	6.39
499.279	6.41
499.711	6.41
500.144	6.44
500.577	6.45
501.009	6.46
501.442	6.5
501.874	6.52
502.306	6.54
502.739	6.58
503.171	6.61
503.603	6.64
504.036	6.67
504.468	6.7
504.9	6.72
505.332	6.76
505.764	6.81
506.196	6.85
506.627	6.9
507.059	6.95
507.491	6.98
507.923	7.03
508.354	7.09
508.786	7.15
509.217	7.21
509.649	7.28
510.08	7.34
510.512	7.42
510.943	7.48
511.374	7.56
511.805	7.63
512.237	7.72
512.668	7.81
513.099	7.89
513.53	7.98
513.961	8.08
514.391	8.19
514.822	8.31
515.253	8.41
515.684	8.53
516.114	8.64
516.545	8.76
516.975	8.89
517.406	9.01
517.836	9.14
518.267	9.28
518.697	9.41
519.127	9.53
519.558	9.66
519.988	9.79
520.418	9.92
520.848	10.05
521.278	10.18
521.708	10.55
522.138	10.69
522.567	10.82
522.997	10.95
523.427	11.11
523.857	11.24
524.286	11.36
524.716	11.49
525.145	11.62
525.575	11.75
526.004	11.87
526.433	11.74
526.863	11.85
527.292	11.97
527.721	12.08
528.15	12.16
528.579	12.26
529.008	12.37
529.437	12.45
529.866	12.54
530.295	12.62
530.724	12.71
531.152	12.8
531.581	12.88
532.01	12.94
532.438	13
532.867	13.06
533.295	13.12
533.723	13.16
534.152	13.22
534.58	13.28
535.008	13.3
535.436	13.36
535.865	13.4
536.293	13.43
536.721	13.47
537.149	13.52
537.576	13.56
538.004	13.6
538.432	13.63
538.86	13.66
539.287	13.68
539.715	13.71
540.143	13.72
540.57	13.73
540.998	13.74
541.425	13.77
541.852	13.79
542.28	13.81
542.707	13.83
543.134	13.85
543.561	13.87
543.988	13.88
544.415	13.9
544.842	13.92
545.269	13.96
545.696	13.99
546.123	14.01
546.549	14.03
546.976	14.05
547.403	14.07
547.829	14.09
548.256	14.1
548.682	14.12
549.108	14.14
549.535	14.16
549.961	14.16
550.387	14.17
550.813	14.17
551.24	14.15
551.666	14.14
552.092	14.13
552.518	14.13
552.943	14.13
553.369	14.11
553.795	14.09
554.221	14.07
554.646	14.03
555.072	14
555.498	13.96
555.923	13.94
556.349	13.9
556.774	13.85
557.199	13.8
557.625	13.74
558.05	13.69
558.475	13.63
558.9	13.58
559.325	13.53
559.75	13.47
560.175	13.4
560.6	13.32
561.025	13.25
561.449	13.17
561.874	13.1
562.299	13.03
562.723	12.95
563.148	12.85
563.572	12.75
563.997	12.66
564.421	12.55
564.846	12.46
565.27	12.36
565.694	12.28
566.118	12.17
566.542	12.08
566.966	11.98
567.39	11.88
567.814	11.78
568.238	11.69
568.662	11.6
569.086	11.51
569.509	11.42
569.933	11.33
570.357	11.23
570.78	11.14
571.204	11.07
571.627	10.99
572.05	10.89
572.474	10.84
572.897	10.76
573.32	10.7
573.743	10.62
574.166	10.56
574.589	10.49
575.012	10.43
575.435	10.37
575.858	10.31
576.281	10.25
576.704	10.2
577.126	10.15
577.549	10.08
577.972	10.02
578.394	9.96
578.817	9.92
579.239	9.89
579.661	9.85
580.084	9.81
580.506	9.77
580.928	9.72
581.35	9.68
581.772	9.63
582.194	9.59
582.616	9.56
583.038	9.51
583.46	9.46
583.882	9.42
584.303	9.39
584.725	9.35
585.147	9.33
585.568	9.3
585.99	9.27
586.411	9.25
586.833	9.23
587.254	9.19
587.675	9.19
588.096	9.15
588.518	9.12
588.939	9.1
589.36	9.07
589.781	9.02
590.202	9.01
590.623	9
591.043	8.97
591.464	8.94
591.885	8.92
592.305	8.89
592.726	8.89
593.147	8.88
593.567	8.86
593.987	8.84
594.408	8.82
594.828	8.79
595.248	8.77
595.669	8.75
596.089	8.74
596.509	8.73
596.929	8.7
597.349	8.68
597.769	8.66
598.189	8.63
598.608	8.61
599.028	8.6
599.448	8.58
599.867	8.55
600.287	8.53
600.706	8.51
601.126	8.49
601.545	8.48
601.965	8.46
602.384	8.44
602.803	8.42
603.222	8.39
603.641	8.36
604.061	8.35
604.48	8.32
604.898	8.29
605.317	8.26
605.736	8.24
606.155	8.21
606.574	8.17
606.992	8.12
607.411	8.09
607.829	8.03
608.248	7.99
608.666	7.95
609.085	7.92
609.503	7.9
609.921	7.87
610.339	7.84
610.758	7.81
611.176	7.77
611.594	7.75
612.012	7.72
612.43	7.72
612.847	7.7
613.265	7.68
613.683	7.64
614.101	7.61
614.518	7.58
614.936	7.55
615.353	7.53
615.771	7.51
616.188	7.48
616.606	7.46
617.023	7.43
617.44	7.4
617.857	7.38
618.274	7.36
618.691	7.34
619.108	7.32
619.525	7.3
619.942	7.28
620.359	7.26
620.776	7.25
621.192	7.24
621.609	7.24
622.026	7.24
622.442	7.24
622.859	7.23
623.275	7.22
623.691	7.21
624.108	7.21
624.524	7.2
624.94	7.2
625.356	7.21
625.772	7.19
626.188	7.18
626.604	7.19
627.02	7.18
627.436	7.18
627.852	7.18
628.268	7.17
628.683	7.16
629.099	7.16
629.514	7.15
629.93	7.15
630.345	7.15
630.761	7.14
631.176	7.13
631.591	7.12
632.007	7.11
632.422	7.1
632.837	7.09
633.252	7.08
633.667	7.06
634.082	7.04
634.497	7.02
634.911	7.01
635.326	6.99
635.741	6.98
636.155	6.95
636.57	6.94
636.984	6.93
637.399	6.91
637.813	6.88
638.228	6.86
638.642	6.83
639.056	6.8
639.47	6.78
639.884	6.75
640.298	6.72
640.712	6.7
641.126	6.67
641.54	6.62
641.954	6.59
642.368	6.56
642.781	6.55
643.195	6.52
643.609	6.5
644.022	6.47
644.436	6.45
644.849	6.41
645.262	6.38
645.676	6.36
646.089	6.35
646.502	6.34
646.915	6.32
647.328	6.3
647.741	6.29
648.154	6.27
648.567	6.27
648.98	6.26
649.393	6.26
649.805	6.25
650.218	6.25
650.631	6.25
651.043	6.24
651.456	6.24
651.868	6.23
652.28	6.21
652.693	6.21
653.105	6.19
653.517	6.18
653.929	6.16
654.341	6.15
654.753	6.13
655.165	6.12
655.577	6.12
655.989	6.1
656.401	6.09
656.813	6.09
657.224	6.07
657.636	6.05
658.047	6.04
658.459	6.03
658.87	6.01
659.282	6
659.693	5.99
660.104	5.96
660.515	5.94
660.926	5.92
661.338	5.9
661.749	5.89
662.159	5.87
662.57	5.87
662.981	5.87
663.392	5.86
663.803	5.85
664.213	5.84
664.624	5.83
665.035	5.83
665.445	5.83
665.855	5.81
666.266	5.81
666.676	5.81
667.086	5.81
667.497	5.8
667.907	5.81
668.317	5.81
668.727	5.81
669.137	5.81
669.547	5.82
669.956	5.82
670.366	5.84
670.776	5.84
671.186	5.84
671.595	5.83
672.005	5.83
672.414	5.83
672.824	5.83
673.233	5.84
673.642	5.84
674.052	5.86
674.461	5.87
674.87	5.88
675.279	5.91
675.688	5.93
676.097	5.95
676.506	5.97
676.915	5.99
677.323	6.01
677.732	6.02
678.141	6.05
678.549	6.05
678.958	6.07
679.366	6.09
679.775	6.09
680.183	6.12
680.592	6.15
681	6.17
681.408	6.19
681.816	6.23
682.224	6.25
682.632	6.28
683.04	6.32
683.448	6.34
683.856	6.37
684.264	6.41
684.671	6.42
685.079	6.45
685.487	6.49
685.894	6.54
686.302	6.59
686.709	6.65
687.116	6.72
687.524	6.78
687.931	6.88
688.338	6.98
688.745	7.08
689.152	7.19
689.559	7.33
689.966	7.47
690.373	7.62
690.78	7.79
691.187	7.96
691.593	8.15
692	8.37
692.407	8.57
692.813	8.82
693.22	9.07
693.626	9.34
694.032	9.63
694.439	9.92
694.845	10.22
695.251	10.54
695.657	10.87
696.063	11.22
696.469	11.58
696.875	11.98
697.281	12.34
697.687	12.74
698.093	13.14
698.498	13.54
698.904	13.95
699.31	14.37
699.715	14.81
700.12	15.25
700.526	15.69
700.931	16.12
701.337	16.55
701.742	16.99
702.147	17.44
702.552	17.88
702.957	18.32
703.362	18.77
703.767	19.2
704.172	19.64
704.577	20.07
704.981	20.52
705.386	20.97
705.791	21.42
706.195	21.86
706.6	22.31
707.004	22.75
707.408	23.19
707.813	23.65
708.217	24.1
708.621	24.54
709.025	24.98
709.43	25.42
709.834	25.86
710.237	26.3
710.641	26.75
711.045	27.19
711.449	27.65
711.853	28.11
712.256	28.54
712.66	28.99
713.064	29.44
713.467	29.9
713.87	30.34
714.274	30.76
714.677	31.19
715.08	31.61
715.484	32.03
715.887	32.47
716.29	32.84
716.693	33.26
717.096	33.66
717.499	34.05
717.901	34.44
718.304	34.81
718.707	35.2
719.109	35.58
719.512	35.95
719.915	36.34
720.317	36.67
720.719	37.01
721.122	37.35
721.524	37.68
721.926	38.04
722.328	38.37
722.731	38.7
723.133	39.04
723.535	39.36
723.937	39.67
724.338	39.93
724.74	40.23
725.142	40.72
725.544	41
725.945	41.33
726.347	41.57
726.748	41.84
727.15	42.08
727.551	42.34
727.952	42.56
728.354	42.8
728.755	43.01
729.156	43.24
729.557	43.28
729.958	43.49
730.359	43.68
730.76	43.89
731.161	44.1
731.562	44.29
731.962	44.42
732.363	44.6
732.763	44.76
733.164	44.94
733.564	45.1
733.965	45.24
734.365	45.42
734.766	45.54
735.166	45.65
735.566	45.79
735.966	45.92
736.366	46.07
736.766	46.19
737.166	46.31
737.566	46.42
737.966	46.55
738.365	46.66
738.765	46.77
739.165	46.86
739.564	46.99
739.964	47.06
740.363	47.13
740.763	47.24
741.162	47.34
741.561	47.42
741.96	47.5
742.36	47.56
742.759	47.63
743.158	47.71
743.557	47.76
743.955	47.8
744.354	47.86
744.753	47.94
745.152	47.99
745.55	48.07
745.949	48.13
746.348	48.2
746.746	48.23
747.144	48.28
747.543	48.29
747.941	48.35
748.339	48.37
748.737	48.42
749.136	48.44
749.534	48.44
749.932	48.45
750.33	48.45
750.727	48.48
751.125	48.53
751.523	48.54
751.921	48.6
752.318	48.65
752.716	48.71
753.113	48.73
753.511	48.78
753.908	48.83
754.305	48.89
754.703	48.94
755.1	48.98
755.497	49.01
755.894	49.04
756.291	49.05
756.688	49.06
757.085	49.08
757.482	49.1
757.878	49.14
758.275	49.15
758.672	49.14
759.068	49.18
759.465	49.19
759.861	49.21
760.258	49.25
760.654	49.26
761.05	49.27
761.447	49.31
761.843	49.33
762.239	49.33
762.635	49.33
763.031	49.33
763.427	49.3
763.822	49.31
764.218	49.32
764.614	49.32
765.01	49.32
765.405	49.33
765.801	49.3
766.196	49.3
766.592	49.3
766.987	49.33
767.382	49.34
767.778	49.35
768.173	49.36
768.568	49.35
768.963	49.37
769.358	49.4
769.753	49.41
770.148	49.42
770.542	49.43
770.937	49.44
771.332	49.42
771.726	49.43
772.121	49.46
772.515	49.43
772.91	49.45
773.304	49.45
773.699	49.43
774.093	49.42
774.487	49.41
774.881	49.45
775.275	49.46
775.669	49.43
776.063	49.43
776.457	49.45
776.851	49.47
777.245	49.45
777.638	49.45
778.032	49.48
778.425	49.52
778.819	49.53
779.212	49.54
779.606	49.55
779.999	49.57
780.392	49.62
780.786	49.61
781.179	49.62
781.572	49.67
781.965	49.68
782.358	49.7
782.751	49.69
783.143	49.69
783.536	49.67
783.929	49.67
784.322	49.71
784.714	49.68
785.107	49.71
785.499	49.71
785.891	49.71
786.284	49.71
786.676	49.7
787.068	49.7
787.46	49.71
787.852	49.71
788.245	49.72
788.636	49.67
789.028	49.7
789.42	49.67
789.812	49.7
790.204	49.7
790.595	49.7
790.987	49.68
791.378	49.68
791.77	49.72
792.161	49.74
792.553	49.72
792.944	49.74
793.335	49.74
793.726	49.77
794.117	49.74
794.508	49.75
794.899	49.75
795.29	49.76
795.681	49.74
796.072	49.74
796.463	49.8
796.853	49.81
797.244	49.82
797.634	49.81
798.025	49.82
798.415	49.85
798.806	49.86
799.196	49.87
799.586	49.91
799.976	49.96
800.366	49.96
800.756	49.91
801.146	49.92
801.536	49.91
801.926	49.9
802.316	49.89
802.706	49.91
803.095	49.91
803.485	49.91
803.874	49.89
804.264	49.89
804.653	49.88
805.043	49.87
805.432	49.88
805.821	49.89
806.21	49.91
806.599	49.93
806.988	49.92
807.377	49.91
807.766	49.92
808.155	49.92
808.544	49.92
808.933	49.92
809.321	49.93
809.71	49.91
810.098	49.9
810.487	49.87
810.875	49.88
811.264	49.88
811.652	49.9
812.04	49.89
812.428	49.96
812.816	49.96
813.204	49.94
813.592	49.92
813.98	49.92
814.368	49.97
814.756	49.97
815.144	49.95
815.531	49.97
815.919	49.95
816.306	49.96
816.694	49.93
817.081	49.92
817.469	49.95
817.856	49.96
818.243	49.97
818.63	49.94
819.017	49.95
819.404	49.94
819.791	49.92
820.178	49.92
820.565	49.91
820.952	49.89
821.339	49.89
821.725	49.9
822.112	49.91
822.498	49.94
822.885	49.97
823.271	49.97
823.657	49.94
824.044	49.96
824.43	49.97
824.816	49.99
825.202	49.98
825.588	49.99
825.974	49.95
826.36	49.95
826.746	49.92
827.132	49.89
827.517	49.91
827.903	49.95
828.289	49.95
828.674	49.96
829.06	49.94
829.445	49.93
829.83	49.95
830.216	49.95
830.601	49.96
830.986	50
831.371	49.96
831.756	49.96
832.141	49.95
832.526	49.93
832.911	49.93
833.295	49.94
833.68	49.94
834.065	49.91
834.449	49.91
834.834	49.9
835.218	49.89
835.603	49.93
835.987	49.89
836.371	49.88
836.755	49.85
837.139	49.81
837.524	49.8
837.908	49.82
838.291	49.85
838.675	49.85
839.059	49.84
839.443	49.81
839.827	49.77
840.21	49.78
840.594	49.81
840.977	49.85
841.361	49.88
841.744	49.84
842.127	49.81
842.511	49.79
842.894	49.78
843.277	49.77
843.66	49.76
844.043	49.77
844.426	49.79
844.809	49.77
845.191	49.77
845.574	49.73
845.957	49.76
846.339	49.78
846.722	49.77
847.104	49.78
847.487	49.79
847.869	49.82
848.252	49.83
848.634	49.81
849.016	49.8
849.398	49.81
849.78	49.83
850.162	49.84
850.544	49.84
850.926	49.85
851.307	49.81
851.689	49.82
852.071	49.82
852.452	49.81
852.834	49.83
853.215	49.82
853.597	49.83
853.978	49.81
854.359	49.82
854.741	49.84
855.122	49.84
855.503	49.85
855.884	49.83
856.265	49.82
856.646	49.82
857.026	49.84
857.407	49.85
857.788	49.8
858.169	49.83
858.549	49.82
858.93	49.81
859.31	49.81
859.69	49.84
860.071	49.86
860.451	49.87
860.831	49.88
861.211	49.86
861.591	49.85
861.971	49.88
862.351	49.91
862.731	49.92
863.111	49.91
863.491	49.91
863.87	49.89
864.25	49.9
864.629	49.91
865.009	49.91
865.388	49.93
865.768	49.96
866.147	49.97
866.526	49.95
866.905	49.97
867.284	50
867.663	50.01
868.042	50.03
868.421	50.06
868.8	50.07
869.179	50.1
869.558	50.09
869.936	50.08
870.315	50.08
870.693	50.1
871.072	50.09
871.45	50.09
871.828	50.11
872.207	50.12
872.585	50.1
872.963	50.09
873.341	50.06
873.719	50.07
874.097	50.07
874.475	50.06
874.853	50.05
875.23	50.05
875.608	50.03
875.986	50.04
876.363	50.03
876.741	50.02
877.118	50.03
877.495	50.05
877.873	50.07
878.25	50.1
878.627	50.1
879.004	50.1
879.381	50.1
879.758	50.1
880.135	50.08
880.512	50.08
880.889	50.08
881.265	50.07
881.642	50.04
882.019	50.01
882.395	49.98
882.772	49.96
883.148	49.92
883.524	49.92
883.901	49.89
884.277	49.87
884.653	49.82
885.029	49.79
885.405	49.79
885.781	49.78
886.157	49.77
886.532	49.78
886.908	49.77
887.284	49.76
887.659	49.74
888.035	49.72
888.411	49.74
888.786	49.77
889.161	49.78
889.537	49.77
889.912	49.76
890.287	49.76
890.662	49.73
891.037	49.73
891.412	49.74
891.787	49.72
892.162	49.72
892.536	49.7
892.911	49.7
893.286	49.71
893.66	49.72
894.035	49.74
894.409	49.73
894.784	49.74
895.158	49.74
895.532	49.76
895.906	49.79
896.281	49.83
896.655	49.86
897.029	49.88
897.402	49.88
897.776	49.89
898.15	49.9
898.524	49.94
898.898	49.97
899.271	50
899.645	50.02
900.018	50.05
900.392	50.04
900.765	50.03
901.138	50.04
901.511	50.05
901.884	50.07
902.258	50.08
902.631	50.08
903.003	50.09
903.376	50.09
903.749	50.08
904.122	50.08
904.495	50.11
904.867	50.13
905.24	50.15
905.612	50.17
905.985	50.14
906.357	50.15
906.729	50.14
907.102	50.15
907.474	50.18
907.846	50.19
908.218	50.17
908.59	50.18
908.962	50.2
909.334	50.21
909.705	50.21
910.077	50.25
910.449	50.24
910.82	50.25
911.192	50.25
911.563	50.22
911.935	50.2
912.306	50.25
912.677	50.28
913.048	50.29
913.419	50.27
913.79	50.26
914.161	50.27
914.532	50.27
914.903	50.29
915.274	50.32
915.645	50.34
916.015	50.38
916.386	50.36
916.756	50.32
917.127	50.31
917.497	50.33
917.868	50.35
918.238	50.33
918.608	50.37
918.978	50.37
919.348	50.37
919.718	50.4
920.088	50.39
920.458	50.4
920.828	50.38
921.198	50.33
921.567	50.33
921.937	50.33
922.306	50.33
922.676	50.32
923.045	50.33
923.415	50.32
923.784	50.28
924.153	50.3
924.522	50.31
924.891	50.31
925.26	50.34
925.629	50.37
925.998	50.35
926.367	50.37
926.736	50.37
927.104	50.35
927.473	50.36
927.842	50.36
928.21	50.37
928.578	50.35
928.947	50.4
929.315	50.42
929.683	50.44
930.051	50.47
930.42	50.47
930.788	50.46
931.156	50.47
931.523	50.48
931.891	50.52
932.259	50.54
932.627	50.62
932.994	50.64
933.362	50.65
933.729	50.66
934.097	50.7
934.464	50.75
934.831	50.79
935.199	50.84
935.566	50.9
935.933	50.89
936.3	50.91
936.667	50.89
937.034	50.99
937.401	51.04
937.767	51.09
938.134	51.06
938.501	51.06
938.867	51.07
939.234	51.04
939.6	51.01
939.967	51.02
940.333	51.05
940.699	51.04
941.065	50.9
941.431	50.88
941.798	50.8
942.163	50.81
942.529	50.75
942.895	50.74
943.261	50.65
943.627	50.62
943.992	50.58
944.358	50.46
944.723	50.44
945.089	50.41
945.454	50.35
945.82	50.31
946.185	50.21
946.55	50.11
946.915	50.08
947.28	50.06
947.645	50.02
948.01	50.02
948.375	50.04
948.74	50
949.104	50.01
949.469	49.95
949.834	49.93
950.198	49.96
950.562	49.99
950.927	50
951.291	49.94
951.655	49.91
952.02	49.86
952.384	49.8
952.748	49.76
953.112	49.75
953.476	49.75
953.839	49.72
954.203	49.75
954.567	49.74
954.931	49.65
955.294	49.68
955.658	49.7
956.021	49.68
956.385	49.62
956.748	49.64
957.111	49.6
957.474	49.6
957.837	49.55
958.2	49.5
958.563	49.48
958.926	49.53
959.289	49.51
959.652	49.46
960.015	49.51
960.377	49.56
960.74	49.58
961.102	49.59
961.465	49.62
961.827	49.71
962.189	49.72
962.552	49.75
962.914	49.74
963.276	49.85
963.638	49.88
964	49.84
964.362	49.82
964.724	49.79
965.085	49.75
965.447	49.69
965.809	49.68
966.17	49.65
966.532	49.63
966.893	49.63
967.255	49.57
967.616	49.58
967.977	49.58
968.338	49.55
968.699	49.62
969.061	49.66
969.421	49.73
969.782	49.75
970.143	49.8
970.504	49.85
970.865	49.87
971.225	49.88
971.586	49.91
971.946	49.94
972.307	50
972.667	50.01
973.027	50.03
973.388	50
973.748	50.03
974.108	50.06
974.468	49.99
974.828	50.08
975.188	50.04
975.548	50.01
975.907	50.06
976.267	50.07
976.627	50.07
976.986	50
977.346	49.95
977.705	49.91
978.064	49.9
978.424	49.92
978.783	49.86
979.142	49.89
979.501	49.97
979.86	49.95
980.219	49.93
980.578	49.94
980.937	50.03
981.296	50.06
981.654	50.09
982.013	50.12
982.371	50.13
982.73	50.12
983.088	50.17
983.447	50.09
983.805	50.18
984.163	50.16
984.521	50.15
984.879	50.09
985.237	50.15
985.595	50.22
985.953	50.18
986.311	50.21
986.669	50.22
987.026	50.2
987.384	50.29
987.741	50.22
988.099	50.37
988.456	50.36
988.814	50.47
989.171	50.52
989.528	50.44
989.885	50.45
990.242	50.54
990.599	50.62
990.956	50.66
991.313	50.67
991.67	50.66
992.027	50.88
992.383	50.99
992.74	51.09
993.096	51.1
993.453	51.13
993.809	51.24
994.165	51.22
994.522	51.38
994.878	51.5
995.234	51.54
995.59	51.6
995.946	51.43
996.302	51.34
996.658	51.33
997.013	51.37
997.369	51.55
997.725	51.66
998.08	51.73
998.436	51.6
998.791	51.61
999.147	51.59
999.502	51.64
999.857	51.59
1000.212	51.62
1000.567	51.65
1000.922	51.61
1001.277	51.61
1001.632	51.44
1001.987	51.41
1002.342	51.43
1002.696	51.36
1003.051	51.51
1003.406	51.61
1003.76	51.67
1004.114	51.68
1004.469	51.75
1004.823	52.16
1005.177	52.14
1005.531	52.33
1005.885	52.58
1006.239	52.66
1006.593	52.92
1006.947	52.96
1007.301	52.95
1007.655	52.91
1008.008	53.16
1008.362	53.29
1008.715	53.04
1009.069	53.17
1009.422	53.29
1009.776	53.21
1010.129	53.23
1010.482	53.11
1010.835	53.1
1011.188	53.11
1011.541	53.3
1011.894	53.26
1012.247	53.15
1012.6	53.13
1012.952	53.14
1013.305	53.04
1013.657	53.14
1014.01	53.36
1014.362	53.39
1014.715	53.6
1015.067	53.8
1015.419	53.79
1015.771	53.8
1016.123	53.75
1016.475	53.89
1016.827	53.9
1017.179	54.1
1017.531	54.1
1017.883	53.96
1018.234	54.36
1018.586	54.5
1018.938	54.92
1019.289	55.12
1019.64	55.27
1019.992	55.39
1020.343	55.41
1020.694	55.51
1021.045	55.43
1021.396	55.42
1021.747	55.71
1022.098	55.62
1022.449	55.49
1022.8	55.18
1023.151	55.13
1023.501	55.42
1023.852	55.83
1024.202	55.85
1024.553	55.82
1024.903	56.22
1025.253	56.52
1025.604	56.44
1025.954	56.23
1026.304	56.2
1026.654	56.41
1027.004	56.22
1027.354	56.09
1027.703	56
1028.053	56.27
1028.403	56.82
1028.753	56.58
1029.102	56.88
1029.452	57.18
1029.801	57.73
1030.15	57.9
1030.499	57.73
897.758	2058.02
901.051	2065.58
904.343	2051.11
907.636	2094.23
910.928	2040.23
914.22	2035.8
917.511	2008.17
920.803	1918.67
924.094	1911.86
927.384	1866.73
930.675	1784.67
933.965	1772.88
937.255	1667.31
940.544	1603.29
943.834	1518.9
947.123	1503.61
950.411	1416.05
953.7	1384.49
956.988	1310.12
960.276	1254.65
963.563	1234.94
966.851	1192.16
970.138	1182.36
973.424	1145.94
976.711	1150.93
979.997	1095.04
983.283	1090.61
986.568	1067.73
989.853	1031.37
993.138	1015.7
996.423	975.22
999.708	948.48
1002.992	939.8
1006.275	892.52
1009.559	882.97
1012.842	853.52
1016.125	827.59
1019.408	813.08
1022.69	799.83
1025.972	787.37
1029.254	765.14
1032.536	753.37
1035.817	734.63
1039.098	723.84
1042.379	710.59
1045.659	704.07
1048.939	685.18
1052.219	672.8
1055.498	659.35
1058.778	646.62
1062.057	628.08
1065.335	621.84
1068.614	613.93
1071.892	609.34
1075.17	587.41
1078.447	576.41
1081.724	571.83
1085.001	567.45
1088.278	555.24
1091.554	543.74
1094.83	543.45
1098.106	540.77
1101.382	535.02
1104.657	531.78
1107.932	522.09
1111.206	527.38
1114.481	513.65
1117.755	507.44
1121.029	504.35
1124.302	504.51
1127.575	494.31
1130.848	487.12
1134.121	482.16
1137.393	481.45
1140.665	469.15
1143.937	467.67
1147.208	460.74
1150.48	461.65
1153.75	455.02
1157.021	445.83
1160.291	446.36
1163.561	443.16
1166.831	442.18
1170.101	439.89
1173.37	437.1
1176.639	439.14
1179.907	433.6
1183.176	430.96
1186.444	429.38
1189.711	429.79
1192.979	429.91
1196.246	425.71
1199.513	426.45
1202.78	424.61
1206.046	423.9
1209.312	419.9
1212.578	420.39
1215.843	424.17
1219.108	421.36
1222.373	430.71
1225.638	433.94
1228.902	441.31
1232.166	441.44
1235.43	446.13
1238.693	452.26
1241.956	454.34
1245.219	462.53
1248.482	461.49
1251.744	462.3
1255.006	462.39
1258.268	450.17
1261.529	445.43
1264.79	439.97
1268.051	438.29
1271.312	431.97
1274.572	426.03
1277.832	421.68
1281.092	414.22
1284.351	411.62
1287.61	411.12
1290.869	405.19
1294.128	402.47
1297.386	402.56
1300.644	398.89
1303.902	399.81
1307.159	396.93
1310.416	398.68
1313.673	398.77
1316.93	402.19
1320.186	402.75
1323.442	403.44
1326.697	412.41
1329.953	412.52
1333.208	415.15
1336.463	419.39
1339.717	420.26
1342.972	425.93
1346.226	428.35
1349.479	428.29
1352.733	432.3
1355.986	433.35
1359.238	433.53
1362.491	435.65
1365.743	441.25
1368.995	440.55
1372.247	439.31
1375.498	440.3
1378.749	445.26
1382	438.9
1385.251	441.71
1388.501	437.89
1391.751	441.96
1395	439.32
1398.25	436.33
1401.499	433.99
1404.748	433.47
1407.996	430.08
1411.244	427.48
1414.492	426.15
1417.74	424.31
1420.987	417.47
1424.234	418.35
1427.481	410.73
1430.728	412.05
1433.974	406.67
1437.22	403.57
1440.465	402.53
1443.711	400.94
1446.956	398.59
1450.201	391.49
1453.445	388.02
1456.689	387.27
1459.933	379.93
1463.177	377.78
1466.42	370.35
1469.663	366.54
1472.906	364.85
1476.148	354
1479.391	348.94
1482.633	344.79
1485.874	340.59
1489.115	338.15
1492.356	332.01
1495.597	331.97
1498.838	325.89
1502.078	324.01
1505.318	322.1
1508.557	321.9
1511.797	322.27
1515.036	320.49
1518.274	319.89
1521.513	315.6
1524.751	315.61
1527.989	315.3
1531.227	313.25
1534.464	315.78
1537.701	312.2
1540.938	311.16
1544.174	306.64
1547.41	305.71
1550.646	304.54
1553.882	304.48
1557.117	301.36
1560.352	298.53
1563.587	297.62
1566.821	295.21
1570.055	290.85
1573.289	289.14
1576.523	289.27
1579.756	286.51
1582.989	285.14
1586.222	284.76
1589.454	282.1
1592.686	284.55
1595.918	283.39
1599.15	282.62
1602.381	282.53
1605.612	282.57
1608.843	284.58
1612.073	283.16
1615.303	285.65
1618.533	286.06
1621.762	284.17
1624.992	284.78
1628.221	284.61
1631.449	284.24
1634.678	283.74
1637.906	284.87
1641.134	284.82
1644.361	283.92
1647.588	285.17
1650.815	283.06
1654.042	281.18
1657.269	284.04
1660.495	284.26
1663.72	281.02
1666.946	282.69
1670.171	282.93
1673.396	282.88
1676.621	283.11
1679.845	282.51
1683.069	282.58
1686.293	284.58
1689.517	286.57
1692.74	285.46
1695.963	286.85
1699.185	291.71
1702.408	290.86
1705.63	292.4
1708.852	292.99
1712.073	293.6
1715.294	294.85
1718.515	295.07
1721.736	295.37
1724.956	295.9
1728.176	295.73
1731.396	298.76
1734.616	297.51
1737.835	299
1741.054	296.7
1744.272	298.3
1747.491	301.46
1750.709	302.06
1753.927	303.22
1757.144	301.26
1760.361	303.49
1763.578	304.29
1766.795	303.32
1770.011	304.36
1773.227	304.95
1776.443	308.86
1779.658	310.98
1782.874	308.96
1786.089	310.53
1789.303	311.55
1792.518	315.77
1795.732	315.01
1798.945	319.08
1802.159	318.69
1805.372	320.9
1808.585	326.94
1811.797	328.17
1815.01	327.01
1818.222	330.42
1821.434	332.11
1824.645	333.97
1827.856	339.75
1831.067	343.97
1834.278	340.74
1837.488	344.15
1840.698	346.95
1843.908	342.45
1847.117	345.5
1850.326	348.54
1853.535	346.9
1856.744	354.5
1859.952	353.27
1863.16	352.45
1866.368	349.11
1869.575	355.93
1872.782	350.2
1875.989	348.96
1879.196	348.31
1882.402	346.36
1885.608	348.43
1888.814	351.39
1892.019	349.37
1895.224	349.55
1898.429	347.11
1901.634	350.77
1904.838	350.79
1908.042	356.22
1911.246	357.79
1914.449	360.69
1917.652	360.49
1920.855	360.61
1924.058	359.26
1927.26	357.63
1930.462	360.23
1933.664	364.95
1936.865	361.1
1940.066	361.13
1943.267	358.29
1946.467	357.74
1949.668	360.62
1952.868	364.96
1956.067	363.53
1959.267	363.74
1962.466	365.31
1965.665	363.48
1968.863	364.08
1972.061	369.2
1975.259	372.44
1978.457	375.13
1981.654	377.83
1984.852	378.66
1988.048	377.08
1991.245	380.74
1994.441	387.1
1997.637	388.32
2000.833	395.09
2004.028	399.92
2007.223	402.71
2010.418	407.16
2013.613	413.69
2016.807	419.3
2020.001	421.41
2023.194	427.77
2026.388	437.37
2029.581	445.8
2032.774	451.13
2035.966	459.85
2039.158	461.76
2042.35	470.76
2045.542	471.28
2048.733	479.04
2051.924	484.91
2055.115	493.11
2058.306	493.91
2061.496	500.43
2064.686	499.95
2067.875	508.96
2071.065	509.04
2074.254	506.84
2077.442	510.77
2080.631	514.57
2083.819	519.5
2087.007	519.73
2090.195	526.5
2093.382	530.67
2096.569	524.89
2099.756	533.73
2102.942	533.74
2106.128	542.09
2109.314	552.82
2112.5	551.55
2115.685	563.67
2118.87	564.17
2122.055	576.18
2125.239	580.29
2128.424	589.24
2131.608	593.95
2134.791	600.51
2137.974	605.36
2141.157	604.99
2144.34	606.9
2147.523	616.68
2150.705	611.66
2153.887	617.21
2157.068	618.24
2160.25	611.49
2163.431	612.55
2166.611	620.09
2169.792	633.07
2172.972	639.34
2176.152	641.85
2179.331	650.83
2182.511	663.54
2185.69	672.92
2188.868	686.4
2192.047	687.89
2195.225	708.93
2198.403	727.57
2201.58	740.53
2204.758	752.95
2207.935	769.31
2211.111	785.11
2214.288	795.4
2217.464	797.1
2220.64	804.57
2223.815	817.54
2226.991	851.3
2230.166	853.84
2233.34	872.03
2236.515	883.51
2239.689	885.97
2242.863	890.06
2246.036	918.92
2249.209	908.85
2252.382	922.01
2255.555	955.57
2258.727	956.66
2261.9	960.15
2265.071	969.59
2268.243	982.03
2271.414	995.47
2274.585	1021.76
2277.756	1030.55
2280.926	1036.53
2284.096	1059.48
2287.266	1084.36
2290.436	1092.15
2293.605	1119.16
2296.774	1156.66
2299.942	1194.28
2303.111	1200.09
2306.279	1232.43
2309.447	1242.94
2312.614	1278.76
2315.781	1310.46
2318.948	1375.73
2322.115	1353.48
2325.281	1423.36
2328.447	1392.05
2331.613	1450.69
2334.779	1431.16
2337.944	1496.99
2341.109	1510.56
2344.274	1552.13
2347.438	1608.14
2350.602	1612.71
2353.766	1659.47
2356.929	1682.79
2360.092	1671.85
2363.255	1801.75
2366.418	1790.3
2369.58	1829.02
2372.742	1937.07
2375.904	1985.43
2379.066	1975.53
2382.227	1934.33
2385.388	2097.43
2388.548	2106.27
2391.709	2140.1
2394.869	2384.45
2398.029	2265.94
2401.188	2333.55
2404.347	2322.71
2407.506	2290.5
2410.665	2357.89
2413.823	2501.68
2416.981	2648.94
2420.139	2553.77
2423.296	2523.76
2426.453	2627.4
2429.61	2525.65
2432.767	2658.3
2435.923	2636.89
2439.079	2866.22
2442.235	2898.72
2445.391	2869.54
2448.546	2852.51
2451.701	2772.3
2454.855	2781.13
2458.009	2943.83
2461.163	3062.52
2464.317	3180.73
2467.471	3258.44
2470.624	3262.24
2473.777	3179.52
2476.929	3109.99
2480.082	3021.76
2483.234	2978.7
2486.385	3114.57
2489.537	3129.16
2492.688	3252
2495.839	3156.05
2498.989	3095.52
2502.14	3113.44
2505.29	3146.36
2508.439	3199.17
2511.589	3185.6
2514.738	3466.91
2517.887	3400.72
2521.035	3602.75
2524.183	3628.89
2527.331	3655.91
2530.479	3656.38
2533.627	3672.72
