Data from C_2_DEC_ON_6N_Splice17_13-17-21-004.txt Node
Date: Sat Mar 07 13:17:21 EST 2020
User: sa697716
Spectrometer: NQ5500242
Trigger mode: 0
Integration Time (sec): 1.450000E-1
Scans to average: 20
Nonlinearity correction enabled: false
Boxcar width: 5
Storing dark spectrum: false
XAxis mode: Wavelengths
Number of Pixels in Spectrum: 512
>>>>>Begin Spectral Data<<<<<
187.83	95.38
188.298	115.98
188.766	116.5
189.233	96.95
189.701	101.45
190.169	133.37
190.636	125.76
191.104	121.84
191.571	-155.79
192.039	-17.74
192.506	-250.21
192.974	74.27
193.441	116.25
193.908	122.33
194.375	67.62
194.842	36.83
195.31	93.7
195.777	143.65
196.244	46.81
196.711	43.31
197.177	45.48
197.644	43.18
198.111	43.03
198.578	43.87
199.045	44.49
199.511	44.34
199.978	44.7
200.445	45.06
200.911	45.08
201.378	45.18
201.844	45.37
202.31	45.35
202.777	45.99
203.243	46.07
203.709	45.66
204.176	44.91
204.642	44.82
205.108	44.66
205.574	44.16
206.04	43.61
206.506	43.11
206.972	42.56
207.438	42.1
207.903	41.35
208.369	40.2
208.835	39.39
209.301	38.7
209.766	37.43
210.232	36.33
210.697	35.32
211.163	34.56
211.628	33.79
212.094	32.88
212.559	32.23
213.024	31.43
213.49	30.85
213.955	30.13
214.42	29.43
214.885	28.64
215.35	27.53
215.815	26.18
216.28	24.23
216.745	22.16
217.21	20.26
217.675	18.44
218.14	16.91
218.604	15.66
219.069	14.54
219.534	13.59
219.998	12.81
220.463	12.16
220.927	11.56
221.392	11.12
221.856	10.76
222.32	10.43
222.785	10.15
223.249	9.87
223.713	9.64
224.177	9.45
224.642	9.26
225.106	9.07
225.57	8.86
226.034	8.71
226.497	8.56
226.961	8.41
227.425	8.26
227.889	8.11
228.353	7.99
228.816	7.84
229.28	7.71
229.744	7.59
230.207	7.46
230.671	7.36
231.134	7.25
231.597	7.16
232.061	7.06
232.524	6.97
232.987	6.88
233.45	6.8
233.914	6.71
234.377	6.61
234.84	6.52
235.303	6.47
235.766	6.4
236.229	6.32
236.691	6.24
237.154	6.16
237.617	6.1
238.08	6.03
238.542	5.95
239.005	5.9
239.468	5.85
239.93	5.79
240.393	5.74
240.855	5.66
241.317	5.6
241.78	5.55
242.242	5.47
242.704	5.43
243.166	5.36
243.629	5.31
244.091	5.24
244.553	5.19
245.015	5.14
245.477	5.08
245.939	5.03
246.4	5
246.862	4.95
247.324	4.92
247.786	4.86
248.247	4.82
248.709	4.77
249.17	4.74
249.632	4.7
250.093	4.66
250.555	4.63
251.016	4.59
251.477	4.54
251.939	4.51
252.4	4.47
252.861	4.44
253.322	4.41
253.783	4.38
254.244	4.36
254.705	4.31
255.166	4.28
255.627	4.25
256.088	4.23
256.549	4.2
257.009	4.16
257.47	4.13
257.931	4.09
258.391	4.05
258.852	4.02
259.312	3.99
259.773	3.95
260.233	3.93
260.694	3.9
261.154	3.86
261.614	3.83
262.074	3.8
262.534	3.77
262.994	3.75
263.455	3.73
263.915	3.71
264.374	3.68
264.834	3.67
265.294	3.65
265.754	3.63
266.214	3.61
266.673	3.59
267.133	3.58
267.593	3.57
268.052	3.56
268.512	3.55
268.971	3.53
269.431	3.52
269.89	3.5
270.349	3.5
270.809	3.48
271.268	3.47
271.727	3.46
272.186	3.44
272.645	3.44
273.104	3.42
273.563	3.41
274.022	3.4
274.481	3.39
274.94	3.38
275.399	3.36
275.857	3.36
276.316	3.34
276.775	3.33
277.233	3.33
277.692	3.32
278.15	3.32
278.609	3.31
279.067	3.3
279.525	3.3
279.984	3.28
280.442	3.29
280.9	3.28
281.358	3.28
281.816	3.28
282.274	3.28
282.732	3.27
283.19	3.26
283.648	3.26
284.106	3.25
284.564	3.25
285.021	3.26
285.479	3.25
285.937	3.24
286.394	3.24
286.852	3.23
287.309	3.22
287.767	3.21
288.224	3.2
288.682	3.2
289.139	3.18
289.596	3.17
290.053	3.15
290.511	3.14
290.968	3.12
291.425	3.1
291.882	3.09
292.339	3.07
292.796	3.07
293.252	3.05
293.709	3.05
294.166	3.04
294.623	3.03
295.079	3.02
295.536	3.01
295.992	3.01
296.449	3
296.905	2.99
297.362	2.98
297.818	2.98
298.274	2.98
298.731	2.96
299.187	2.96
299.643	2.94
300.099	2.94
300.555	2.94
301.011	2.94
301.467	2.94
301.923	2.93
302.379	2.94
302.835	2.93
303.291	2.93
303.746	2.93
304.202	2.93
304.658	2.93
305.113	2.93
305.569	2.93
306.024	2.92
306.479	2.91
306.935	2.91
307.39	2.91
307.845	2.91
308.301	2.91
308.756	2.91
309.211	2.91
309.666	2.92
310.121	2.92
310.576	2.92
311.031	2.92
311.486	2.93
311.94	2.93
312.395	2.94
312.85	2.94
313.305	2.94
313.759	2.94
314.214	2.94
314.668	2.93
315.123	2.93
315.577	2.92
316.032	2.92
316.486	2.91
316.94	2.91
317.394	2.89
317.849	2.88
318.303	2.87
318.757	2.85
319.211	2.85
319.665	2.83
320.119	2.82
320.572	2.81
321.026	2.8
321.48	2.79
321.934	2.78
322.387	2.78
322.841	2.77
323.295	2.77
323.748	2.77
324.202	2.76
324.655	2.76
325.108	2.76
325.562	2.76
326.015	2.76
326.468	2.76
326.921	2.75
327.374	2.74
327.827	2.74
328.28	2.74
328.733	2.74
329.186	2.74
329.639	2.73
330.092	2.73
330.545	2.73
330.997	2.73
331.45	2.72
331.903	2.74
332.355	2.75
332.808	2.75
333.26	2.75
333.713	2.74
334.165	2.74
334.617	2.75
335.069	2.74
335.522	2.75
335.974	2.75
336.426	2.75
336.878	2.74
337.33	2.73
337.782	2.73
338.234	2.73
338.686	2.73
339.137	2.73
339.589	2.73
340.041	2.72
340.493	2.71
340.944	2.7
341.396	2.7
341.847	2.69
342.299	2.67
342.75	2.67
343.201	2.65
343.653	2.64
344.104	2.63
344.555	2.61
345.006	2.6
345.457	2.59
345.908	2.59
346.359	2.58
346.81	2.57
347.261	2.57
347.712	2.56
348.163	2.55
348.613	2.56
349.064	2.56
349.515	2.56
349.965	2.57
350.416	2.56
350.866	2.56
351.317	2.55
351.767	2.56
352.217	2.56
352.668	2.57
353.118	2.58
353.568	2.57
354.018	2.58
354.468	2.59
354.918	2.59
355.368	2.59
355.818	2.6
356.268	2.6
356.718	2.6
357.168	2.6
357.617	2.59
358.067	2.59
358.517	2.6
358.966	2.6
359.416	2.6
359.865	2.6
360.315	2.6
360.764	2.6
361.213	2.61
361.663	2.61
362.112	2.62
362.561	2.64
363.01	2.65
363.459	2.63
363.908	2.64
364.357	2.65
364.806	2.66
365.255	2.67
365.703	2.68
366.152	2.69
366.601	2.7
367.05	2.71
367.498	2.71
367.947	2.72
368.395	2.74
368.844	2.76
369.292	2.76
369.74	2.77
370.189	2.78
370.637	2.8
371.085	2.8
371.533	2.82
371.981	2.84
372.429	2.85
372.877	2.87
373.325	2.88
373.773	2.9
374.221	2.91
374.669	2.94
375.116	2.95
375.564	2.97
376.012	2.99
376.459	3
376.907	3.03
377.354	3.05
377.801	3.09
378.249	3.11
378.696	3.13
379.143	3.16
379.591	3.18
380.038	3.21
380.485	3.23
380.932	3.26
381.379	3.28
381.826	3.3
382.273	3.32
382.72	3.32
383.166	3.35
383.613	3.37
384.06	3.4
384.506	3.42
384.953	3.45
385.4	3.47
385.846	3.5
386.292	3.52
386.739	3.55
387.185	3.57
387.631	3.61
388.078	3.64
388.524	3.66
388.97	3.69
389.416	3.71
389.862	3.74
390.308	3.78
390.754	3.81
391.2	3.83
391.645	3.85
392.091	3.89
392.537	3.92
392.983	3.95
393.428	3.98
393.874	4.01
394.319	4.03
394.765	4.05
395.21	4.06
395.655	4.07
396.101	4.09
396.546	4.11
396.991	4.13
397.436	4.13
397.881	4.15
398.326	4.16
398.771	4.17
399.216	4.18
399.661	4.21
400.106	4.21
400.551	4.22
400.995	4.22
401.44	4.23
401.885	4.23
402.329	4.23
402.774	4.22
403.218	4.24
403.663	4.24
404.107	4.25
404.551	4.24
404.995	4.25
405.44	4.25
405.884	4.25
406.328	4.25
406.772	4.25
407.216	4.26
407.66	4.26
408.104	4.23
408.547	4.23
408.991	4.24
409.435	4.24
409.879	4.25
410.322	4.25
410.766	4.26
411.209	4.26
411.653	4.27
412.096	4.28
412.54	4.29
412.983	4.31
413.426	4.34
413.869	4.34
414.312	4.35
414.756	4.36
415.199	4.37
415.642	4.37
416.085	4.37
416.527	4.37
416.97	4.36
417.413	4.36
417.856	4.35
418.298	4.34
418.741	4.34
419.184	4.33
419.626	4.32
420.069	4.34
420.511	4.33
420.953	4.33
421.396	4.33
421.838	4.33
422.28	4.34
422.722	4.33
423.164	4.34
423.606	4.33
424.048	4.34
424.49	4.33
424.932	4.32
425.374	4.3
425.816	4.28
426.258	4.27
426.699	4.26
427.141	4.25
427.582	4.25
428.024	4.25
428.465	4.25
428.907	4.24
429.348	4.23
429.789	4.22
430.231	4.24
430.672	4.28
431.113	4.3
431.554	4.31
431.995	4.34
432.436	4.34
432.877	4.34
433.318	4.37
433.759	4.4
434.2	4.43
434.64	4.45
435.081	4.47
435.522	4.48
435.962	4.5
436.403	4.55
436.843	4.55
437.284	4.56
437.724	4.58
438.164	4.56
438.604	4.57
439.045	4.58
439.485	4.58
439.925	4.58
440.365	4.59
440.805	4.6
441.245	4.6
441.685	4.63
442.125	4.67
442.564	4.68
443.004	4.7
443.444	4.72
443.883	4.75
444.323	4.75
444.762	4.77
445.202	4.78
445.641	4.81
446.081	4.82
446.52	4.83
446.959	4.85
447.398	4.89
447.837	4.92
448.276	4.94
448.716	4.95
449.154	4.99
449.593	5.02
450.032	5.04
450.471	5.02
450.91	5.03
451.349	5.05
451.787	5.03
452.226	5.02
452.664	5.01
453.103	5.01
453.541	5.01
453.98	5.02
454.418	5
454.856	5
455.295	5
455.733	4.98
456.171	4.97
456.609	4.98
457.047	4.97
457.485	4.97
457.923	4.96
458.361	4.96
458.798	4.94
459.236	4.95
459.674	4.94
460.111	4.94
460.549	4.96
460.987	4.97
461.424	4.97
461.862	4.98
462.299	4.99
462.736	4.99
463.173	4.99
463.611	4.99
464.048	5
464.485	5.01
464.922	5.03
465.359	5.02
465.796	5.02
466.233	5.04
466.67	5.03
467.106	5.04
467.543	5.04
467.98	5.04
468.416	5.05
468.853	5.05
469.29	5.04
469.726	5.02
470.162	5.02
470.599	5.01
471.035	5
471.471	5
471.907	4.98
472.344	4.99
472.78	4.99
473.216	4.98
473.652	4.99
474.088	4.99
474.523	4.99
474.959	4.99
475.395	4.98
475.831	4.98
476.266	4.98
476.702	4.97
477.138	4.97
477.573	4.97
478.008	4.97
478.444	4.94
478.879	4.94
479.314	4.94
479.75	4.93
480.185	4.91
480.62	4.91
481.055	4.9
481.49	4.9
481.925	4.9
482.36	4.89
482.795	4.88
483.229	4.88
483.664	4.89
484.099	4.89
484.534	4.89
484.968	4.91
485.403	4.93
485.837	4.94
486.271	4.96
486.706	4.96
487.14	4.98
487.574	5
488.009	5.03
488.443	5.05
488.877	5.08
489.311	5.12
489.745	5.15
490.179	5.18
490.613	5.22
491.046	5.26
491.48	5.31
491.914	5.36
492.348	5.42
492.781	5.48
493.215	5.53
493.648	5.59
494.082	5.65
494.515	5.71
494.948	5.78
495.382	5.85
495.815	5.92
496.248	6
496.681	6.09
497.114	6.18
497.547	6.26
497.98	6.36
498.413	6.45
498.846	6.54
499.279	6.64
499.711	6.75
500.144	6.87
500.577	6.99
501.009	7.1
501.442	7.23
501.874	7.37
502.306	7.5
502.739	7.65
503.171	7.8
503.603	7.96
504.036	8.13
504.468	8.3
504.9	8.46
505.332	8.64
505.764	8.83
506.196	9.01
506.627	9.21
507.059	9.41
507.491	9.61
507.923	9.82
508.354	10.06
508.786	10.29
509.217	10.52
509.649	10.76
510.08	11
510.512	11.24
510.943	11.5
511.374	11.77
511.805	12.04
512.237	12.3
512.668	12.57
513.099	12.83
513.53	13.11
513.961	13.39
514.391	13.68
514.822	13.98
515.253	14.27
515.684	14.57
516.114	14.86
516.545	15.14
516.975	15.44
517.406	15.75
517.836	16.05
518.267	16.35
518.697	16.64
519.127	16.92
519.558	17.2
519.988	17.49
520.418	17.77
520.848	18.04
521.278	18.32
521.708	18.66
522.138	18.92
522.567	19.17
522.997	19.41
523.427	19.66
523.857	19.91
524.286	20.13
524.716	20.36
525.145	20.58
525.575	20.8
526.004	21.01
526.433	21.14
526.863	21.33
527.292	21.53
527.721	21.72
528.15	21.89
528.579	22.06
529.008	22.23
529.437	22.37
529.866	22.51
530.295	22.66
530.724	22.79
531.152	22.91
531.581	23.04
532.01	23.15
532.438	23.26
532.867	23.37
533.295	23.47
533.723	23.56
534.152	23.65
534.58	23.74
535.008	23.81
535.436	23.87
535.865	23.95
536.293	24.01
536.721	24.07
537.149	24.13
537.576	24.18
538.004	24.24
538.432	24.29
538.86	24.35
539.287	24.39
539.715	24.44
540.143	24.48
540.57	24.51
540.998	24.56
541.425	24.59
541.852	24.64
542.28	24.66
542.707	24.68
543.134	24.71
543.561	24.73
543.988	24.77
544.415	24.79
544.842	24.82
545.269	24.84
545.696	24.85
546.123	24.88
546.549	24.89
546.976	24.92
547.403	24.95
547.829	24.96
548.256	24.98
548.682	24.98
549.108	24.99
549.535	25
549.961	25.02
550.387	25.03
550.813	25.04
551.24	25.04
551.666	25.02
552.092	25
552.518	25.01
552.943	24.99
553.369	24.99
553.795	24.95
554.221	24.94
554.646	24.9
555.072	24.86
555.498	24.8
555.923	24.75
556.349	24.7
556.774	24.64
557.199	24.57
557.625	24.51
558.05	24.42
558.475	24.36
558.9	24.28
559.325	24.2
559.75	24.11
560.175	24.02
560.6	23.9
561.025	23.8
561.449	23.69
561.874	23.57
562.299	23.45
562.723	23.32
563.148	23.17
563.572	23.02
563.997	22.86
564.421	22.71
564.846	22.56
565.27	22.43
565.694	22.29
566.118	22.13
566.542	21.97
566.966	21.82
567.39	21.67
567.814	21.53
568.238	21.38
568.662	21.23
569.086	21.09
569.509	20.95
569.933	20.81
570.357	20.66
570.78	20.51
571.204	20.38
571.627	20.24
572.05	20.1
572.474	19.98
572.897	19.86
573.32	19.74
573.743	19.59
574.166	19.47
574.589	19.35
575.012	19.23
575.435	19.11
575.858	18.99
576.281	18.87
576.704	18.77
577.126	18.66
577.549	18.55
577.972	18.43
578.394	18.34
578.817	18.24
579.239	18.14
579.661	18.06
580.084	18
580.506	17.92
580.928	17.84
581.35	17.77
581.772	17.68
582.194	17.62
582.616	17.56
583.038	17.48
583.46	17.4
583.882	17.33
584.303	17.24
584.725	17.17
585.147	17.1
585.568	17.03
585.99	16.95
586.411	16.89
586.833	16.82
587.254	16.75
587.675	16.7
588.096	16.63
588.518	16.57
588.939	16.52
589.36	16.45
589.781	16.38
590.202	16.34
590.623	16.28
591.043	16.21
591.464	16.16
591.885	16.1
592.305	16.05
592.726	16.02
593.147	15.97
593.567	15.91
593.987	15.86
594.408	15.82
594.828	15.76
595.248	15.72
595.669	15.69
596.089	15.65
596.509	15.61
596.929	15.56
597.349	15.52
597.769	15.47
598.189	15.44
598.608	15.41
599.028	15.38
599.448	15.35
599.867	15.3
600.287	15.26
600.706	15.21
601.126	15.19
601.545	15.14
601.965	15.1
602.384	15.06
602.803	15.01
603.222	14.97
603.641	14.91
604.061	14.86
604.48	14.81
604.898	14.76
605.317	14.71
605.736	14.65
606.155	14.6
606.574	14.54
606.992	14.49
607.411	14.43
607.829	14.34
608.248	14.27
608.666	14.2
609.085	14.14
609.503	14.08
609.921	14.01
610.339	13.95
610.758	13.89
611.176	13.82
611.594	13.76
612.012	13.7
612.43	13.65
612.847	13.58
613.265	13.53
613.683	13.46
614.101	13.39
614.518	13.32
614.936	13.25
615.353	13.17
615.771	13.11
616.188	13.05
616.606	12.99
617.023	12.95
617.44	12.92
617.857	12.86
618.274	12.82
618.691	12.78
619.108	12.74
619.525	12.71
619.942	12.68
620.359	12.65
620.776	12.62
621.192	12.59
621.609	12.56
622.026	12.52
622.442	12.51
622.859	12.48
623.275	12.47
623.691	12.47
624.108	12.45
624.524	12.43
624.94	12.42
625.356	12.42
625.772	12.41
626.188	12.4
626.604	12.39
627.02	12.38
627.436	12.38
627.852	12.37
628.268	12.35
628.683	12.34
629.099	12.32
629.514	12.3
629.93	12.28
630.345	12.25
630.761	12.21
631.176	12.18
631.591	12.13
632.007	12.09
632.422	12.03
632.837	11.96
633.252	11.9
633.667	11.82
634.082	11.73
634.497	11.63
634.911	11.53
635.326	11.43
635.741	11.31
636.155	11.18
636.57	11.06
636.984	10.93
637.399	10.8
637.813	10.66
638.228	10.51
638.642	10.37
639.056	10.22
639.47	10.09
639.884	9.94
640.298	9.8
640.712	9.66
641.126	9.52
641.54	9.37
641.954	9.21
642.368	9.07
642.781	8.95
643.195	8.82
643.609	8.69
644.022	8.55
644.436	8.43
644.849	8.32
645.262	8.21
645.676	8.1
646.089	8.02
646.502	7.95
646.915	7.88
647.328	7.81
647.741	7.75
648.154	7.69
648.567	7.64
648.98	7.6
649.393	7.55
649.805	7.52
650.218	7.49
650.631	7.46
651.043	7.43
651.456	7.4
651.868	7.37
652.28	7.35
652.693	7.34
653.105	7.32
653.517	7.29
653.929	7.27
654.341	7.24
654.753	7.21
655.165	7.16
655.577	7.13
655.989	7.08
656.401	7.03
656.813	6.98
657.224	6.91
657.636	6.85
658.047	6.8
658.459	6.73
658.87	6.66
659.282	6.59
659.693	6.53
660.104	6.45
660.515	6.38
660.926	6.32
661.338	6.24
661.749	6.18
662.159	6.11
662.57	6.05
662.981	6
663.392	5.94
663.803	5.89
664.213	5.83
664.624	5.78
665.035	5.73
665.445	5.69
665.855	5.66
666.266	5.63
666.676	5.6
667.086	5.57
667.497	5.55
667.907	5.53
668.317	5.51
668.727	5.5
669.137	5.5
669.547	5.49
669.956	5.48
670.366	5.48
670.776	5.48
671.186	5.48
671.595	5.49
672.005	5.49
672.414	5.5
672.824	5.52
673.233	5.54
673.642	5.56
674.052	5.58
674.461	5.6
674.87	5.63
675.279	5.67
675.688	5.71
676.097	5.74
676.506	5.79
676.915	5.84
677.323	5.9
677.732	5.95
678.141	6
678.549	6.07
678.958	6.15
679.366	6.23
679.775	6.31
680.183	6.4
680.592	6.51
681	6.62
681.408	6.75
681.816	6.88
682.224	7.04
682.632	7.21
683.04	7.38
683.448	7.58
683.856	7.77
684.264	8.01
684.671	8.26
685.079	8.53
685.487	8.84
685.894	9.16
686.302	9.51
686.709	9.88
687.116	10.28
687.524	10.71
687.931	11.16
688.338	11.65
688.745	12.14
689.152	12.67
689.559	13.23
689.966	13.79
690.373	14.36
690.78	14.97
691.187	15.59
691.593	16.23
692	16.87
692.407	17.51
692.813	18.17
693.22	18.83
693.626	19.51
694.032	20.18
694.439	20.84
694.845	21.52
695.251	22.18
695.657	22.83
696.063	23.48
696.469	24.14
696.875	24.79
697.281	25.43
697.687	26.07
698.093	26.69
698.498	27.28
698.904	27.9
699.31	28.48
699.715	29.09
700.12	29.67
700.526	30.23
700.931	30.77
701.337	31.31
701.742	31.82
702.147	32.32
702.552	32.83
702.957	33.33
703.362	33.79
703.767	34.25
704.172	34.69
704.577	35.13
704.981	35.55
705.386	35.97
705.791	36.38
706.195	36.79
706.6	37.21
707.004	37.59
707.408	37.99
707.813	38.37
708.217	38.75
708.621	39.1
709.025	39.44
709.43	39.81
709.834	40.17
710.237	40.5
710.641	40.83
711.045	41.14
711.449	41.47
711.853	41.79
712.256	42.09
712.66	42.38
713.064	42.67
713.467	42.95
713.87	43.22
714.274	43.47
714.677	43.75
715.08	43.98
715.484	44.24
715.887	44.5
716.29	44.69
716.693	44.95
717.096	45.2
717.499	45.44
717.901	45.69
718.304	45.91
718.707	46.13
719.109	46.35
719.512	46.55
719.915	46.75
720.317	46.91
720.719	47.09
721.122	47.26
721.524	47.4
721.926	47.57
722.328	47.75
722.731	47.92
723.133	48.11
723.535	48.25
723.937	48.41
724.338	48.58
724.74	48.74
725.142	49.03
725.544	49.17
725.945	49.34
726.347	49.46
726.748	49.55
727.15	49.64
727.551	49.76
727.952	49.87
728.354	49.97
728.755	50.06
729.156	50.14
729.557	50.09
729.958	50.16
730.359	50.23
730.76	50.32
731.161	50.41
731.562	50.52
731.962	50.56
732.363	50.64
732.763	50.73
733.164	50.78
733.564	50.85
733.965	50.93
734.365	51
734.766	51.05
735.166	51.1
735.566	51.16
735.966	51.23
736.366	51.29
736.766	51.31
737.166	51.37
737.566	51.42
737.966	51.44
738.365	51.49
738.765	51.54
739.165	51.58
739.564	51.61
739.964	51.66
740.363	51.65
740.763	51.68
741.162	51.73
741.561	51.72
741.96	51.73
742.36	51.76
742.759	51.79
743.158	51.8
743.557	51.81
743.955	51.83
744.354	51.84
744.753	51.88
745.152	51.91
745.55	51.93
745.949	51.98
746.348	52.01
746.746	52.04
747.144	52.04
747.543	52.04
747.941	52.04
748.339	52.05
748.737	52.05
749.136	52.04
749.534	52.04
749.932	52.03
750.33	52.03
750.727	52.04
751.125	52.03
751.523	52.05
751.921	52.05
752.318	52.06
752.716	52.06
753.113	52.07
753.511	52.1
753.908	52.13
754.305	52.15
754.703	52.13
755.1	52.1
755.497	52.11
755.894	52.12
756.291	52.14
756.688	52.14
757.085	52.17
757.482	52.18
757.878	52.19
758.275	52.15
758.672	52.12
759.068	52.16
759.465	52.16
759.861	52.14
760.258	52.15
760.654	52.15
761.05	52.12
761.447	52.1
761.843	52.1
762.239	52.07
762.635	52.07
763.031	52.08
763.427	52.03
763.822	52.02
764.218	52.04
764.614	52.02
765.01	52.03
765.405	52.02
765.801	52.01
766.196	52
766.592	51.96
766.987	51.97
767.382	51.96
767.778	51.98
768.173	52
768.568	51.97
768.963	51.95
769.358	51.93
769.753	51.94
770.148	51.92
770.542	51.91
770.937	51.92
771.332	51.91
771.726	51.91
772.121	51.89
772.515	51.9
772.91	51.9
773.304	51.93
773.699	51.91
774.093	51.9
774.487	51.9
774.881	51.95
775.275	51.95
775.669	51.92
776.063	51.91
776.457	51.93
776.851	51.9
777.245	51.87
777.638	51.82
778.032	51.84
778.425	51.85
778.819	51.85
779.212	51.81
779.606	51.84
779.999	51.85
780.392	51.84
780.786	51.84
781.179	51.85
781.572	51.89
781.965	51.91
782.358	51.9
782.751	51.91
783.143	51.91
783.536	51.91
783.929	51.9
784.322	51.91
784.714	51.93
785.107	51.95
785.499	51.95
785.891	51.96
786.284	51.98
786.676	51.97
787.068	51.94
787.46	51.96
787.852	51.98
788.245	51.97
788.636	51.97
789.028	51.97
789.42	51.94
789.812	51.95
790.204	51.95
790.595	51.93
790.987	51.94
791.378	51.96
791.77	51.93
792.161	51.93
792.553	51.92
792.944	51.91
793.335	51.89
793.726	51.92
794.117	51.89
794.508	51.86
794.899	51.85
795.29	51.83
795.681	51.8
796.072	51.82
796.463	51.84
796.853	51.83
797.244	51.83
797.634	51.84
798.025	51.84
798.415	51.88
798.806	51.92
799.196	51.93
799.586	51.95
799.976	51.99
800.366	52
800.756	52
801.146	52.04
801.536	52.05
801.926	52.07
802.316	52.06
802.706	52.05
803.095	52.06
803.485	52.07
803.874	52.06
804.264	52.07
804.653	52.07
805.043	52.09
805.432	52.09
805.821	52.1
806.21	52.09
806.599	52.07
806.988	52.06
807.377	52.04
807.766	52.04
808.155	52.03
808.544	52.04
808.933	52.01
809.321	51.96
809.71	51.94
810.098	51.94
810.487	51.93
810.875	51.95
811.264	51.94
811.652	51.96
812.04	51.97
812.428	52
812.816	51.97
813.204	52
813.592	52.01
813.98	52.02
814.368	51.99
814.756	51.98
815.144	51.98
815.531	51.98
815.919	51.96
816.306	51.94
816.694	51.92
817.081	51.92
817.469	51.92
817.856	51.91
818.243	51.87
818.63	51.88
819.017	51.88
819.404	51.86
819.791	51.86
820.178	51.87
820.565	51.85
820.952	51.84
821.339	51.82
821.725	51.82
822.112	51.85
822.498	51.89
822.885	51.92
823.271	51.94
823.657	51.93
824.044	51.97
824.43	51.98
824.816	51.99
825.202	52
825.588	52.02
825.974	51.99
826.36	51.99
826.746	51.96
827.132	51.94
827.517	51.93
827.903	51.96
828.289	51.95
828.674	51.95
829.06	51.94
829.445	51.92
829.83	51.92
830.216	51.92
830.601	51.92
830.986	51.94
831.371	51.93
831.756	51.97
832.141	51.93
832.526	51.93
832.911	51.91
833.295	51.95
833.68	51.96
834.065	52
834.449	51.99
834.834	51.98
835.218	51.98
835.603	52
835.987	51.98
836.371	52.01
836.755	51.99
837.139	51.98
837.524	51.98
837.908	52
838.291	51.99
838.675	51.99
839.059	51.98
839.443	51.95
839.827	51.92
840.21	51.9
840.594	51.89
840.977	51.88
841.361	51.89
841.744	51.83
842.127	51.8
842.511	51.77
842.894	51.77
843.277	51.77
843.66	51.76
844.043	51.77
844.426	51.78
844.809	51.77
845.191	51.8
845.574	51.81
845.957	51.85
846.339	51.86
846.722	51.86
847.104	51.88
847.487	51.88
847.869	51.89
848.252	51.9
848.634	51.9
849.016	51.9
849.398	51.9
849.78	51.89
850.162	51.89
850.544	51.88
850.926	51.88
851.307	51.85
851.689	51.88
852.071	51.9
852.452	51.88
852.834	51.9
853.215	51.88
853.597	51.85
853.978	51.85
854.359	51.83
854.741	51.84
855.122	51.85
855.503	51.86
855.884	51.82
856.265	51.8
856.646	51.78
857.026	51.79
857.407	51.79
857.788	51.78
858.169	51.81
858.549	51.82
858.93	51.81
859.31	51.79
859.69	51.83
860.071	51.85
860.451	51.87
860.831	51.87
861.211	51.82
861.591	51.82
861.971	51.82
862.351	51.82
862.731	51.82
863.111	51.83
863.491	51.84
863.87	51.81
864.25	51.8
864.629	51.8
865.009	51.8
865.388	51.81
865.768	51.82
866.147	51.85
866.526	51.84
866.905	51.84
867.284	51.85
867.663	51.84
868.042	51.85
868.421	51.86
868.8	51.87
869.179	51.91
869.558	51.93
869.936	51.91
870.315	51.91
870.693	51.9
871.072	51.91
871.45	51.92
871.828	51.93
872.207	51.94
872.585	51.92
872.963	51.93
873.341	51.91
873.719	51.93
874.097	51.92
874.475	51.96
874.853	51.97
875.23	51.96
875.608	51.96
875.986	51.99
876.363	51.98
876.741	51.99
877.118	51.98
877.495	52.02
877.873	52.02
878.25	52.07
878.627	52.06
879.004	52.05
879.381	52.09
879.758	52.06
880.135	52.06
880.512	52.05
880.889	52.04
881.265	52.04
881.642	52.01
882.019	52
882.395	51.94
882.772	51.92
883.148	51.88
883.524	51.85
883.901	51.85
884.277	51.81
884.653	51.79
885.029	51.79
885.405	51.77
885.781	51.76
886.157	51.74
886.532	51.74
886.908	51.72
887.284	51.74
887.659	51.7
888.035	51.69
888.411	51.67
888.786	51.66
889.161	51.66
889.537	51.65
889.912	51.65
890.287	51.66
890.662	51.66
891.037	51.68
891.412	51.66
891.787	51.65
892.162	51.65
892.536	51.66
892.911	51.66
893.286	51.66
893.66	51.66
894.035	51.66
894.409	51.66
894.784	51.67
895.158	51.65
895.532	51.67
895.906	51.69
896.281	51.7
896.655	51.68
897.029	51.7
897.402	51.7
897.776	51.72
898.15	51.74
898.524	51.75
898.898	51.74
899.271	51.75
899.645	51.75
900.018	51.77
900.392	51.79
900.765	51.81
901.138	51.8
901.511	51.8
901.884	51.79
902.258	51.8
902.631	51.79
903.003	51.79
903.376	51.79
903.749	51.8
904.122	51.79
904.495	51.78
904.867	51.78
905.24	51.8
905.612	51.82
905.985	51.81
906.357	51.81
906.729	51.82
907.102	51.8
907.474	51.83
907.846	51.82
908.218	51.82
908.59	51.85
908.962	51.91
909.334	51.9
909.705	51.87
910.077	51.89
910.449	51.88
910.82	51.9
911.192	51.92
911.563	51.91
911.935	51.89
912.306	51.89
912.677	51.88
913.048	51.85
913.419	51.85
913.79	51.87
914.161	51.89
914.532	51.89
914.903	51.89
915.274	51.9
915.645	51.92
916.015	51.95
916.386	51.98
916.756	51.98
917.127	51.97
917.497	52
917.868	52.01
918.238	51.97
918.608	51.99
918.978	51.99
919.348	52.01
919.718	51.99
920.088	51.99
920.458	51.98
920.828	51.99
921.198	51.96
921.567	51.94
921.937	51.93
922.306	51.95
922.676	51.94
923.045	51.9
923.415	51.85
923.784	51.83
924.153	51.84
924.522	51.86
924.891	51.85
925.26	51.87
925.629	51.88
925.998	51.88
926.367	51.85
926.736	51.84
927.104	51.86
927.473	51.87
927.842	51.87
928.21	51.85
928.578	51.82
928.947	51.81
929.315	51.81
929.683	51.83
930.051	51.79
930.42	51.81
930.788	51.79
931.156	51.78
931.523	51.79
931.891	51.82
932.259	51.81
932.627	51.82
932.994	51.81
933.362	51.81
933.729	51.76
934.097	51.81
934.464	51.79
934.831	51.78
935.199	51.76
935.566	51.76
935.933	51.7
936.3	51.69
936.667	51.68
937.034	51.71
937.401	51.71
937.767	51.72
938.134	51.68
938.501	51.7
938.867	51.77
939.234	51.75
939.6	51.73
939.967	51.76
940.333	51.74
940.699	51.79
941.065	51.77
941.431	51.76
941.798	51.76
942.163	51.74
942.529	51.7
942.895	51.65
943.261	51.66
943.627	51.61
943.992	51.62
944.358	51.62
944.723	51.56
945.089	51.51
945.454	51.52
945.82	51.53
946.185	51.53
946.55	51.46
946.915	51.43
947.28	51.42
947.645	51.45
948.01	51.38
948.375	51.34
948.74	51.32
949.104	51.34
949.469	51.33
949.834	51.28
950.198	51.26
950.562	51.27
950.927	51.27
951.291	51.19
951.655	51.16
952.02	51.15
952.384	51.1
952.748	51.08
953.112	51.06
953.476	50.95
953.839	50.89
954.203	50.89
954.567	50.86
954.931	50.8
955.294	50.79
955.658	50.82
956.021	50.88
956.385	50.87
956.748	50.84
957.111	50.77
957.474	50.82
957.837	50.81
958.2	50.75
958.563	50.77
958.926	50.8
959.289	50.84
959.652	50.82
960.015	50.77
960.377	50.78
960.74	50.82
961.102	50.86
961.465	50.89
961.827	50.94
962.189	50.96
962.552	50.98
962.914	50.96
963.276	50.97
963.638	50.97
964	50.98
964.362	50.99
964.724	50.94
965.085	50.98
965.447	50.95
965.809	50.98
966.17	50.94
966.532	50.91
966.893	50.92
967.255	50.91
967.616	50.84
967.977	50.86
968.338	50.85
968.699	50.93
969.061	50.89
969.421	50.92
969.782	50.92
970.143	51
970.504	51.04
970.865	51
971.225	51.02
971.586	51.07
971.946	51.03
972.307	51.01
972.667	50.93
973.027	50.97
973.388	50.93
973.748	50.92
974.108	50.96
974.468	50.91
974.828	50.96
975.188	50.93
975.548	50.95
975.907	50.94
976.267	50.99
976.627	51.02
976.986	50.94
977.346	50.9
977.705	50.83
978.064	50.78
978.424	50.76
978.783	50.73
979.142	50.75
979.501	50.74
979.86	50.77
980.219	50.77
980.578	50.72
980.937	50.82
981.296	50.75
981.654	50.82
982.013	50.78
982.371	50.83
982.73	50.89
983.088	50.84
983.447	50.83
983.805	50.86
984.163	50.85
984.521	50.85
984.879	50.77
985.237	50.87
985.595	50.89
985.953	50.94
986.311	50.86
986.669	50.74
987.026	50.79
987.384	50.81
987.741	50.79
988.099	50.86
988.456	50.87
988.814	50.91
989.171	50.94
989.528	50.89
989.885	50.88
990.242	50.95
990.599	51.05
990.956	51.04
991.313	51.02
991.67	51.02
992.027	50.99
992.383	51.05
992.74	51.2
993.096	51.18
993.453	51.29
993.809	51.33
994.165	51.4
994.522	51.46
994.878	51.52
995.234	51.6
995.59	51.5
995.946	51.48
996.302	51.55
996.658	51.44
997.013	51.41
997.369	51.38
997.725	51.38
998.08	51.33
998.436	51.36
998.791	51.36
999.147	51.28
999.502	51.43
999.857	51.42
1000.212	51.27
1000.567	51.23
1000.922	51.17
1001.277	51.18
1001.632	51.04
1001.987	51.03
1002.342	50.9
1002.696	50.86
1003.051	50.95
1003.406	51
1003.76	51.06
1004.114	51.09
1004.469	51.21
1004.823	51.53
1005.177	51.46
1005.531	51.61
1005.885	51.73
1006.239	51.84
1006.593	52
1006.947	51.98
1007.301	51.94
1007.655	51.93
1008.008	52.03
1008.362	51.97
1008.715	51.85
1009.069	51.92
1009.422	51.93
1009.776	51.84
1010.129	51.91
1010.482	51.83
1010.835	51.88
1011.188	51.92
1011.541	52
1011.894	52.01
1012.247	52.08
1012.6	52.01
1012.952	51.9
1013.305	51.93
1013.657	52.11
1014.01	51.98
1014.362	51.96
1014.715	52.01
1015.067	51.94
1015.419	52.06
1015.771	52.11
1016.123	52.12
1016.475	52.18
1016.827	52.24
1017.179	52.18
1017.531	52.28
1017.883	52.4
1018.234	52.48
1018.586	52.39
1018.938	52.64
1019.289	52.41
1019.64	52.26
1019.992	52.07
1020.343	52.11
1020.694	52.37
1021.045	52.32
1021.396	52.03
1021.747	52.16
1022.098	52.23
1022.449	52.28
1022.8	52.22
1023.151	52.27
1023.501	52.38
1023.852	52.71
1024.202	52.7
1024.553	52.5
1024.903	52.63
1025.253	52.91
1025.604	52.76
1025.954	52.5
1026.304	52.54
1026.654	52.62
1027.004	52.76
1027.354	52.78
1027.703	52.53
1028.053	52.43
1028.403	52.53
1028.753	52.5
1029.102	52.33
1029.452	52.29
1029.801	52.46
1030.15	52.31
1030.499	52.03
897.758	1333.1
901.051	1338.53
904.343	1336.54
907.636	1361.5
910.928	1321.79
914.22	1327.12
917.511	1305.5
920.803	1249.1
924.094	1247.38
927.384	1220.65
930.675	1172.47
933.965	1165.72
937.255	1096.66
940.544	1053.51
943.834	1000.35
947.123	993.8
950.411	931.74
953.7	914.44
956.988	866.21
960.276	829.66
963.563	816.72
966.851	786.12
970.138	779.6
973.424	756.12
976.711	759.93
979.997	725.04
983.283	720.78
986.568	706.02
989.853	684.35
993.138	673.18
996.423	645.47
999.708	627.35
1002.992	621.43
1006.275	592.83
1009.559	587.84
1012.842	565.76
1016.125	550.32
1019.408	540.99
1022.69	534.53
1025.972	522.47
1029.254	509.85
1032.536	503.08
1035.817	491.2
1039.098	484.67
1042.379	476.49
1045.659	471.23
1048.939	460.12
1052.219	451.1
1055.498	443.9
1058.778	433.62
1062.057	424.12
1065.335	419.96
1068.614	414.17
1071.892	411.5
1075.17	397.73
1078.447	389.68
1081.724	387.1
1085.001	384.45
1088.278	377.17
1091.554	369.39
1094.83	369.47
1098.106	367.96
1101.382	363.94
1104.657	362.81
1107.932	356.4
1111.206	359.43
1114.481	350.12
1117.755	346.67
1121.029	343.6
1124.302	342.16
1127.575	336.51
1130.848	332.17
1134.121	328.22
1137.393	326.48
1140.665	318.72
1143.937	316.77
1147.208	314.24
1150.48	313.53
1153.75	310.36
1157.021	306.21
1160.291	306.48
1163.561	303.21
1166.831	303.56
1170.101	301.32
1173.37	300.78
1176.639	301.64
1179.907	298.98
1183.176	296.03
1186.444	296.25
1189.711	295.06
1192.979	294.76
1196.246	292.59
1199.513	293.45
1202.78	290.63
1206.046	290.88
1209.312	287.58
1212.578	288.08
1215.843	290.35
1219.108	288.06
1222.373	293.96
1225.638	296.25
1228.902	299.45
1232.166	300.14
1235.43	302.71
1238.693	307.15
1241.956	308.01
1245.219	314.11
1248.482	312.93
1251.744	312.81
1255.006	314.7
1258.268	305.76
1261.529	302.53
1264.79	300.85
1268.051	298.87
1271.312	295.66
1274.572	291.61
1277.832	289.41
1281.092	283.91
1284.351	282.41
1287.61	282.27
1290.869	277.86
1294.128	276.73
1297.386	277.45
1300.644	273.65
1303.902	274.35
1307.159	273.6
1310.416	274.05
1313.673	273.96
1316.93	276.85
1320.186	276.87
1323.442	277.42
1326.697	282.3
1329.953	282.84
1333.208	283.12
1336.463	287.39
1339.717	288.21
1342.972	290.06
1346.226	293.15
1349.479	293.38
1352.733	295.16
1355.986	296.31
1359.238	296.34
1362.491	297.74
1365.743	300.98
1368.995	300.65
1372.247	299.32
1375.498	299.26
1378.749	302.09
1382	298.12
1385.251	298.29
1388.501	296.75
1391.751	297.92
1395	296.48
1398.25	293.62
1401.499	291.77
1404.748	291.56
1407.996	289.79
1411.244	287.83
1414.492	285.69
1417.74	282.9
1420.987	278.96
1424.234	278
1427.481	273.71
1430.728	272.76
1433.974	270.31
1437.22	267.55
1440.465	266.92
1443.711	263.83
1446.956	262.56
1450.201	259.36
1453.445	256.9
1456.689	256.29
1459.933	251.17
1463.177	249.54
1466.42	245.39
1469.663	242.8
1472.906	241.57
1476.148	235.17
1479.391	232.6
1482.633	230.36
1485.874	226.45
1489.115	224.84
1492.356	222.8
1495.597	222.71
1498.838	219.4
1502.078	218.61
1505.318	217.59
1508.557	217.26
1511.797	217.72
1515.036	216.24
1518.274	215.76
1521.513	214.88
1524.751	214.66
1527.989	213.89
1531.227	212.97
1534.464	213.71
1537.701	212.17
1540.938	211.52
1544.174	209.18
1547.41	208.34
1550.646	207.45
1553.882	207.34
1557.117	204.68
1560.352	203.38
1563.587	202.49
1566.821	201.39
1570.055	199.71
1573.289	197.98
1576.523	197.73
1579.756	196.32
1582.989	195.53
1586.222	195.65
1589.454	194.44
1592.686	196.15
1595.918	195.1
1599.15	194.7
1602.381	195.14
1605.612	194.85
1608.843	195.9
1612.073	195.72
1615.303	197.16
1618.533	196.74
1621.762	196.35
1624.992	196.38
1628.221	195.91
1631.449	195.93
1634.678	195.61
1637.906	196.18
1641.134	196.06
1644.361	195.64
1647.588	196.5
1650.815	195.15
1654.042	194.83
1657.269	196.33
1660.495	196.62
1663.72	196
1666.946	197.01
1670.171	197.49
1673.396	196.95
1676.621	197.31
1679.845	197.82
1683.069	196.98
1686.293	198.93
1689.517	200.24
1692.74	199.44
1695.963	200.06
1699.185	202.11
1702.408	201.6
1705.63	202.22
1708.852	202.68
1712.073	203.33
1715.294	203.64
1718.515	205.43
1721.736	204.39
1724.956	204.77
1728.176	205.03
1731.396	206.85
1734.616	205.31
1737.835	206.69
1741.054	205.33
1744.272	206.13
1747.491	207.64
1750.709	207.49
1753.927	207.06
1757.144	206.9
1760.361	207.5
1763.578	207.87
1766.795	206.85
1770.011	209.09
1773.227	208.85
1776.443	211.42
1779.658	212.32
1782.874	211.75
1786.089	212.82
1789.303	213.42
1792.518	215.37
1795.732	215.46
1798.945	217.53
1802.159	217.98
1805.372	218.38
1808.585	222.34
1811.797	222.83
1815.01	223.08
1818.222	224.6
1821.434	226.37
1824.645	227.26
1827.856	231.42
1831.067	232.99
1834.278	232.14
1837.488	233.82
1840.698	235.32
1843.908	232.82
1847.117	233.98
1850.326	235.11
1853.535	234.82
1856.744	237.48
1859.952	237.14
1863.16	234.99
1866.368	233.46
1869.575	236.31
1872.782	232.55
1875.989	230.91
1879.196	230.3
1882.402	228.8
1885.608	229.44
1888.814	229.44
1892.019	229.03
1895.224	228.42
1898.429	227.37
1901.634	229.13
1904.838	228.8
1908.042	231.45
1911.246	232.96
1914.449	234.27
1917.652	234.11
1920.855	234.43
1924.058	234.03
1927.26	232.89
1930.462	234.37
1933.664	237.1
1936.865	235.18
1940.066	234.37
1943.267	233.48
1946.467	232.74
1949.668	234.33
1952.868	236.92
1956.067	236.51
1959.267	237.28
1962.466	238.03
1965.665	236.57
1968.863	236.7
1972.061	240.37
1975.259	242.8
1978.457	244.56
1981.654	246.84
1984.852	246.83
1988.048	246.37
1991.245	249.04
1994.441	251.16
1997.637	253.26
2000.833	258.16
2004.028	262.1
2007.223	262.29
2010.418	265.05
2013.613	269.6
2016.807	272.71
2020.001	274.72
2023.194	279.94
2026.388	285.31
2029.581	292.35
2032.774	294.58
2035.966	300.15
2039.158	300.33
2042.35	306.78
2045.542	308.96
2048.733	314.04
2051.924	317.47
2055.115	323.97
2058.306	323.6
2061.496	327.28
2064.686	327.17
2067.875	333.52
2071.065	334.61
2074.254	333.16
2077.442	336.66
2080.631	338.24
2083.819	341
2087.007	341.74
2090.195	345.17
2093.382	348.67
2096.569	346.3
2099.756	351.54
2102.942	352.09
2106.128	355.34
2109.314	364.39
2112.5	363.39
2115.685	370.48
2118.87	371.11
2122.055	378.56
2125.239	381.79
2128.424	385.65
2131.608	389.47
2134.791	394.42
2137.974	396.29
2141.157	397.44
2144.34	397.51
2147.523	403.78
2150.705	401.85
2153.887	405.47
2157.068	407.09
2160.25	403.77
2163.431	405.98
2166.611	410.17
2169.792	418.12
2172.972	423.19
2176.152	425.95
2179.331	431.45
2182.511	438.83
2185.69	443.54
2188.868	452.83
2192.047	452.8
2195.225	465.57
2198.403	478.88
2201.58	487.5
2204.758	495.33
2207.935	506.12
2211.111	514.52
2214.288	519.78
2217.464	520.85
2220.64	529.48
2223.815	536.14
2226.991	560.64
2230.166	561.03
2233.34	568.32
2236.515	576.52
2239.689	579.86
2242.863	581.26
2246.036	598.42
2249.209	595.5
2252.382	606.47
2255.555	624.02
2258.727	626.87
2261.9	628.85
2265.071	635.2
2268.243	645.41
2271.414	654.76
2274.585	668.18
2277.756	675.74
2280.926	682.52
2284.096	697.06
2287.266	712.49
2290.436	716.87
2293.605	733.62
2296.774	754.76
2299.942	778.62
2303.111	783.39
2306.279	799.63
2309.447	811.51
2312.614	832.02
2315.781	851.53
2318.948	894.07
2322.115	878.95
2325.281	927.54
2328.447	908.43
2331.613	943.52
2334.779	932.65
2337.944	976.48
2341.109	985.4
2344.274	1009.59
2347.438	1045.55
2350.602	1048.73
2353.766	1077.12
2356.929	1094.71
2360.092	1087.42
2363.255	1165.93
2366.418	1164.13
2369.58	1190.45
2372.742	1259.3
2375.904	1293.03
2379.066	1287.27
2382.227	1259.73
2385.388	1364.68
2388.548	1368.21
2391.709	1384.67
2394.869	1540.98
2398.029	1474.97
2401.188	1516.56
2404.347	1503.7
2407.506	1477.31
2410.665	1522.49
2413.823	1612.77
2416.981	1713.07
2420.139	1656.64
2423.296	1637.78
2426.453	1704.35
2429.61	1640.23
2432.767	1714.97
2435.923	1700.53
2439.079	1861.25
2442.235	1885.54
2445.391	1866.18
2448.546	1851.82
2451.701	1796.74
2454.855	1792.26
2458.009	1900.32
2461.163	1987.25
2464.317	2058.6
2467.471	2109.63
2470.624	2108.18
2473.777	2058.04
2476.929	2005.1
2480.082	1946.47
2483.234	1924.8
2486.385	2026.49
2489.537	2037.39
2492.688	2119.11
2495.839	2051.27
2498.989	2006.34
2502.14	2019.37
2505.29	2040.66
2508.439	2070.25
2511.589	2068.28
2514.738	2254.05
2517.887	2206.38
2521.035	2327.28
2524.183	2358.16
2527.331	2367.6
2530.479	2366.21
2533.627	2387.87
