Data from C_2_HIR_WI_4N_Splice17_13-36-05-902.txt Node
Date: Sat Mar 07 13:36:05 EST 2020
User: sa697716
Spectrometer: NQ5500242
Trigger mode: 0
Integration Time (sec): 1.450000E-1
Scans to average: 20
Nonlinearity correction enabled: false
Boxcar width: 5
Storing dark spectrum: false
XAxis mode: Wavelengths
Number of Pixels in Spectrum: 512
>>>>>Begin Spectral Data<<<<<
187.83	243.49
188.298	268.69
188.766	266.53
189.233	206.82
189.701	215.28
190.169	248.34
190.636	288.81
191.104	393.47
191.571	359.66
192.039	214.6
192.506	761.64
192.974	9.09
193.441	20.55
193.908	124.57
194.375	109.11
194.842	90.61
195.31	170.11
195.777	252.97
196.244	113.07
196.711	108.84
197.177	109.14
197.644	108.14
198.111	107.62
198.578	106.77
199.045	106.8
199.511	105.77
199.978	105.69
200.445	105.8
200.911	106.32
201.378	106.16
201.844	105.84
202.31	105.33
202.777	105.03
203.243	104.84
203.709	104.38
204.176	103.64
204.642	103.07
205.108	102.14
205.574	101.09
206.04	99.71
206.506	98.69
206.972	97.71
207.438	96.34
207.903	94.73
208.369	92.44
208.835	90.53
209.301	88.22
209.766	85.75
210.232	83.48
210.697	80.82
211.163	78.59
211.628	76.61
212.094	74.42
212.559	72.73
213.024	70.95
213.49	69.34
213.955	67.66
214.42	65.64
214.885	63.63
215.35	60.89
215.815	57.64
216.28	53.39
216.745	48.53
217.21	43.74
217.675	39.12
218.14	35.22
218.604	31.73
219.069	28.84
219.534	26.5
219.998	24.51
220.463	22.89
220.927	21.43
221.392	20.34
221.856	19.4
222.32	18.62
222.785	17.98
223.249	17.33
223.713	16.81
224.177	16.36
224.642	15.93
225.106	15.46
225.57	15.06
226.034	14.74
226.497	14.39
226.961	14.08
227.425	13.77
227.889	13.48
228.353	13.21
228.816	12.93
229.28	12.65
229.744	12.39
230.207	12.17
230.671	11.93
231.134	11.71
231.597	11.5
232.061	11.3
232.524	11.1
232.987	10.9
233.45	10.75
233.914	10.6
234.377	10.44
234.84	10.3
235.303	10.18
235.766	10.04
236.229	9.92
236.691	9.8
237.154	9.71
237.617	9.61
238.08	9.52
238.542	9.41
239.005	9.31
239.468	9.22
239.93	9.15
240.393	9.06
240.855	8.96
241.317	8.86
241.78	8.75
242.242	8.63
242.704	8.53
243.166	8.43
243.629	8.34
244.091	8.23
244.553	8.13
245.015	8.03
245.477	7.93
245.939	7.85
246.4	7.77
246.862	7.69
247.324	7.61
247.786	7.53
248.247	7.44
248.709	7.36
249.17	7.27
249.632	7.21
250.093	7.14
250.555	7.08
251.016	7.02
251.477	6.95
251.939	6.89
252.4	6.83
252.861	6.77
253.322	6.73
253.783	6.68
254.244	6.65
254.705	6.6
255.166	6.55
255.627	6.49
256.088	6.44
256.549	6.4
257.009	6.34
257.47	6.3
257.931	6.25
258.391	6.18
258.852	6.12
259.312	6.06
259.773	6
260.233	5.94
260.694	5.9
261.154	5.84
261.614	5.79
262.074	5.74
262.534	5.69
262.994	5.65
263.455	5.61
263.915	5.58
264.374	5.53
264.834	5.49
265.294	5.46
265.754	5.43
266.214	5.4
266.673	5.37
267.133	5.34
267.593	5.32
268.052	5.29
268.512	5.27
268.971	5.26
269.431	5.24
269.89	5.22
270.349	5.21
270.809	5.18
271.268	5.17
271.727	5.16
272.186	5.14
272.645	5.13
273.104	5.1
273.563	5.09
274.022	5.07
274.481	5.06
274.94	5.04
275.399	5.02
275.857	5.01
276.316	5
276.775	4.99
277.233	4.99
277.692	4.98
278.15	4.97
278.609	4.97
279.067	4.97
279.525	4.96
279.984	4.96
280.442	4.96
280.9	4.96
281.358	4.96
281.816	4.96
282.274	4.95
282.732	4.94
283.19	4.95
283.648	4.93
284.106	4.93
284.564	4.93
285.021	4.93
285.479	4.92
285.937	4.91
286.394	4.91
286.852	4.89
287.309	4.88
287.767	4.86
288.224	4.84
288.682	4.82
289.139	4.78
289.596	4.75
290.053	4.72
290.511	4.69
290.968	4.66
291.425	4.62
291.882	4.6
292.339	4.57
292.796	4.55
293.252	4.53
293.709	4.52
294.166	4.51
294.623	4.5
295.079	4.49
295.536	4.48
295.992	4.48
296.449	4.47
296.905	4.46
297.362	4.46
297.818	4.44
298.274	4.44
298.731	4.43
299.187	4.41
299.643	4.4
300.099	4.4
300.555	4.39
301.011	4.38
301.467	4.37
301.923	4.36
302.379	4.35
302.835	4.35
303.291	4.35
303.746	4.36
304.202	4.36
304.658	4.37
305.113	4.36
305.569	4.37
306.024	4.38
306.479	4.38
306.935	4.38
307.39	4.39
307.845	4.4
308.301	4.4
308.756	4.4
309.211	4.4
309.666	4.41
310.121	4.42
310.576	4.43
311.031	4.43
311.486	4.44
311.94	4.45
312.395	4.45
312.85	4.46
313.305	4.46
313.759	4.47
314.214	4.47
314.668	4.46
315.123	4.45
315.577	4.45
316.032	4.43
316.486	4.42
316.94	4.41
317.394	4.4
317.849	4.37
318.303	4.34
318.757	4.32
319.211	4.3
319.665	4.28
320.119	4.26
320.572	4.24
321.026	4.23
321.48	4.21
321.934	4.2
322.387	4.19
322.841	4.19
323.295	4.19
323.748	4.18
324.202	4.18
324.655	4.17
325.108	4.17
325.562	4.17
326.015	4.17
326.468	4.18
326.921	4.18
327.374	4.18
327.827	4.19
328.28	4.19
328.733	4.2
329.186	4.2
329.639	4.21
330.092	4.22
330.545	4.23
330.997	4.23
331.45	4.25
331.903	4.26
332.355	4.27
332.808	4.27
333.26	4.26
333.713	4.27
334.165	4.27
334.617	4.28
335.069	4.28
335.522	4.29
335.974	4.3
336.426	4.29
336.878	4.29
337.33	4.29
337.782	4.29
338.234	4.3
338.686	4.29
339.137	4.29
339.589	4.28
340.041	4.28
340.493	4.25
340.944	4.23
341.396	4.22
341.847	4.19
342.299	4.17
342.75	4.14
343.201	4.12
343.653	4.1
344.104	4.07
344.555	4.05
345.006	4.03
345.457	4.03
345.908	4.02
346.359	4.01
346.81	4.01
347.261	4.01
347.712	4.01
348.163	4
348.613	4
349.064	4.01
349.515	4
349.965	4.01
350.416	4
350.866	4
351.317	3.99
351.767	3.99
352.217	3.99
352.668	4
353.118	4
353.568	4
354.018	4.01
354.468	4.03
354.918	4.03
355.368	4.04
355.818	4.05
356.268	4.05
356.718	4.05
357.168	4.05
357.617	4.05
358.067	4.05
358.517	4.07
358.966	4.07
359.416	4.07
359.865	4.06
360.315	4.06
360.764	4.07
361.213	4.07
361.663	4.06
362.112	4.07
362.561	4.08
363.01	4.09
363.459	4.06
363.908	4.06
364.357	4.06
364.806	4.07
365.255	4.06
365.703	4.07
366.152	4.07
366.601	4.09
367.05	4.1
367.498	4.09
367.947	4.09
368.395	4.11
368.844	4.12
369.292	4.12
369.74	4.13
370.189	4.15
370.637	4.15
371.085	4.15
371.533	4.14
371.981	4.13
372.429	4.14
372.877	4.15
373.325	4.15
373.773	4.16
374.221	4.17
374.669	4.18
375.116	4.18
375.564	4.2
376.012	4.21
376.459	4.25
376.907	4.29
377.354	4.31
377.801	4.34
378.249	4.38
378.696	4.4
379.143	4.44
379.591	4.47
380.038	4.52
380.485	4.56
380.932	4.6
381.379	4.64
381.826	4.67
382.273	4.7
382.72	4.74
383.166	4.78
383.613	4.83
384.06	4.88
384.506	4.93
384.953	4.99
385.4	5.05
385.846	5.12
386.292	5.18
386.739	5.25
387.185	5.32
387.631	5.41
388.078	5.5
388.524	5.58
388.97	5.67
389.416	5.77
389.862	5.86
390.308	5.95
390.754	6.05
391.2	6.16
391.645	6.27
392.091	6.4
392.537	6.51
392.983	6.62
393.428	6.75
393.874	6.86
394.319	6.97
394.765	7.08
395.21	7.19
395.655	7.31
396.101	7.42
396.546	7.52
396.991	7.63
397.436	7.74
397.881	7.88
398.326	8.01
398.771	8.14
399.216	8.27
399.661	8.4
400.106	8.52
400.551	8.64
400.995	8.74
401.44	8.85
401.885	8.95
402.329	9.06
402.774	9.17
403.218	9.27
403.663	9.38
404.107	9.49
404.551	9.6
404.995	9.69
405.44	9.79
405.884	9.91
406.328	10.01
406.772	10.1
407.216	10.2
407.66	10.29
408.104	10.36
408.547	10.44
408.991	10.53
409.435	10.62
409.879	10.72
410.322	10.83
410.766	10.93
411.209	11.02
411.653	11.13
412.096	11.21
412.54	11.3
412.983	11.41
413.426	11.54
413.869	11.63
414.312	11.73
414.756	11.82
415.199	11.89
415.642	11.96
416.085	12.04
416.527	12.07
416.97	12.11
417.413	12.15
417.856	12.16
418.298	12.19
418.741	12.23
419.184	12.27
419.626	12.31
420.069	12.35
420.511	12.38
420.953	12.43
421.396	12.5
421.838	12.55
422.28	12.62
422.722	12.69
423.164	12.71
423.606	12.75
424.048	12.76
424.49	12.76
424.932	12.76
425.374	12.74
425.816	12.71
426.258	12.68
426.699	12.68
427.141	12.68
427.582	12.69
428.024	12.71
428.465	12.72
428.907	12.73
429.348	12.73
429.789	12.77
430.231	12.85
430.672	12.91
431.113	12.98
431.554	13.03
431.995	13.06
432.436	13.09
432.877	13.12
433.318	13.18
433.759	13.25
434.2	13.33
434.64	13.4
435.081	13.45
435.522	13.49
435.962	13.54
436.403	13.6
436.843	13.67
437.284	13.71
437.724	13.78
438.164	13.82
438.604	13.9
439.045	13.96
439.485	14
439.925	14.05
440.365	14.12
440.805	14.21
441.245	14.33
441.685	14.46
442.125	14.58
442.564	14.68
443.004	14.78
443.444	14.89
443.883	15.04
444.323	15.16
444.762	15.31
445.202	15.44
445.641	15.58
446.081	15.69
446.52	15.78
446.959	15.91
447.398	16.04
447.837	16.18
448.276	16.29
448.716	16.4
449.154	16.55
449.593	16.67
450.032	16.78
450.471	16.85
450.91	16.91
451.349	16.99
451.787	17.04
452.226	17.1
452.664	17.14
453.103	17.17
453.541	17.17
453.98	17.19
454.418	17.19
454.856	17.21
455.295	17.23
455.733	17.23
456.171	17.23
456.609	17.26
457.047	17.24
457.485	17.24
457.923	17.27
458.361	17.29
458.798	17.29
459.236	17.29
459.674	17.29
460.111	17.3
460.549	17.32
460.987	17.34
461.424	17.34
461.862	17.37
462.299	17.38
462.736	17.38
463.173	17.39
463.611	17.39
464.048	17.42
464.485	17.43
464.922	17.43
465.359	17.44
465.796	17.46
466.233	17.48
466.67	17.49
467.106	17.51
467.543	17.51
467.98	17.52
468.416	17.53
468.853	17.53
469.29	17.53
469.726	17.57
470.162	17.59
470.599	17.59
471.035	17.6
471.471	17.61
471.907	17.62
472.344	17.67
472.78	17.7
473.216	17.71
473.652	17.74
474.088	17.73
474.523	17.75
474.959	17.76
475.395	17.77
475.831	17.79
476.266	17.82
476.702	17.81
477.138	17.81
477.573	17.82
478.008	17.83
478.444	17.83
478.879	17.86
479.314	17.86
479.75	17.88
480.185	17.88
480.62	17.88
481.055	17.88
481.49	17.88
481.925	17.89
482.36	17.91
482.795	17.92
483.229	17.94
483.664	17.96
484.099	17.98
484.534	18.01
484.968	18.05
485.403	18.1
485.837	18.15
486.271	18.22
486.706	18.27
487.14	18.34
487.574	18.41
488.009	18.51
488.443	18.59
488.877	18.7
489.311	18.79
489.745	18.89
490.179	19.01
490.613	19.14
491.046	19.25
491.48	19.39
491.914	19.53
492.348	19.66
492.781	19.82
493.215	19.99
493.648	20.13
494.082	20.29
494.515	20.45
494.948	20.61
495.382	20.77
495.815	20.95
496.248	21.14
496.681	21.33
497.114	21.52
497.547	21.68
497.98	21.89
498.413	22.09
498.846	22.31
499.279	22.52
499.711	22.76
500.144	23.02
500.577	23.24
501.009	23.47
501.442	23.72
501.874	23.99
502.306	24.27
502.739	24.54
503.171	24.82
503.603	25.11
504.036	25.41
504.468	25.68
504.9	25.97
505.332	26.27
505.764	26.59
506.196	26.91
506.627	27.23
507.059	27.54
507.491	27.84
507.923	28.16
508.354	28.49
508.786	28.85
509.217	29.19
509.649	29.54
510.08	29.88
510.512	30.21
510.943	30.53
511.374	30.87
511.805	31.23
512.237	31.59
512.668	31.95
513.099	32.28
513.53	32.6
513.961	32.95
514.391	33.28
514.822	33.65
515.253	33.98
515.684	34.31
516.114	34.62
516.545	34.95
516.975	35.27
517.406	35.57
517.836	35.89
518.267	36.19
518.697	36.49
519.127	36.76
519.558	37.02
519.988	37.32
520.418	37.59
520.848	37.85
521.278	38.09
521.708	38.5
522.138	38.76
522.567	38.98
522.997	39.21
523.427	39.41
523.857	39.61
524.286	39.81
524.716	40.01
525.145	40.21
525.575	40.4
526.004	40.57
526.433	40.56
526.863	40.72
527.292	40.87
527.721	41.01
528.15	41.16
528.579	41.32
529.008	41.47
529.437	41.59
529.866	41.7
530.295	41.85
530.724	41.99
531.152	42.12
531.581	42.23
532.01	42.34
532.438	42.45
532.867	42.57
533.295	42.67
533.723	42.75
534.152	42.84
534.58	42.93
535.008	42.98
535.436	43.05
535.865	43.11
536.293	43.17
536.721	43.23
537.149	43.29
537.576	43.35
538.004	43.39
538.432	43.45
538.86	43.51
539.287	43.57
539.715	43.62
540.143	43.66
540.57	43.71
540.998	43.74
541.425	43.77
541.852	43.81
542.28	43.86
542.707	43.91
543.134	43.95
543.561	43.98
543.988	44
544.415	44.01
544.842	44.03
545.269	44.05
545.696	44.11
546.123	44.15
546.549	44.17
546.976	44.16
547.403	44.17
547.829	44.19
548.256	44.22
548.682	44.25
549.108	44.28
549.535	44.34
549.961	44.35
550.387	44.35
550.813	44.37
551.24	44.38
551.666	44.41
552.092	44.43
552.518	44.45
552.943	44.43
553.369	44.4
553.795	44.4
554.221	44.38
554.646	44.38
555.072	44.38
555.498	44.36
555.923	44.34
556.349	44.3
556.774	44.27
557.199	44.23
557.625	44.2
558.05	44.18
558.475	44.14
558.9	44.11
559.325	44.08
559.75	44.03
560.175	43.99
560.6	43.94
561.025	43.91
561.449	43.84
561.874	43.77
562.299	43.7
562.723	43.63
563.148	43.56
563.572	43.45
563.997	43.33
564.421	43.24
564.846	43.15
565.27	43.05
565.694	42.94
566.118	42.84
566.542	42.75
566.966	42.65
567.39	42.56
567.814	42.45
568.238	42.36
568.662	42.27
569.086	42.17
569.509	42.07
569.933	41.97
570.357	41.88
570.78	41.78
571.204	41.69
571.627	41.61
572.05	41.5
572.474	41.43
572.897	41.36
573.32	41.27
573.743	41.16
574.166	41.08
574.589	40.99
575.012	40.91
575.435	40.83
575.858	40.73
576.281	40.65
576.704	40.57
577.126	40.49
577.549	40.39
577.972	40.31
578.394	40.25
578.817	40.18
579.239	40.13
579.661	40.05
580.084	39.98
580.506	39.93
580.928	39.86
581.35	39.81
581.772	39.74
582.194	39.69
582.616	39.64
583.038	39.58
583.46	39.5
583.882	39.44
584.303	39.38
584.725	39.34
585.147	39.27
585.568	39.23
585.99	39.18
586.411	39.15
586.833	39.08
587.254	39.03
587.675	38.97
588.096	38.93
588.518	38.9
588.939	38.87
589.36	38.82
589.781	38.79
590.202	38.74
590.623	38.69
591.043	38.62
591.464	38.61
591.885	38.57
592.305	38.54
592.726	38.51
593.147	38.46
593.567	38.41
593.987	38.37
594.408	38.32
594.828	38.27
595.248	38.25
595.669	38.23
596.089	38.19
596.509	38.15
596.929	38.12
597.349	38.08
597.769	38.05
598.189	38.01
598.608	37.99
599.028	37.95
599.448	37.9
599.867	37.85
600.287	37.81
600.706	37.77
601.126	37.74
601.545	37.69
601.965	37.65
602.384	37.6
602.803	37.56
603.222	37.5
603.641	37.45
604.061	37.41
604.48	37.34
604.898	37.28
605.317	37.22
605.736	37.16
606.155	37.11
606.574	37.02
606.992	36.96
607.411	36.9
607.829	36.8
608.248	36.7
608.666	36.62
609.085	36.54
609.503	36.46
609.921	36.37
610.339	36.28
610.758	36.19
611.176	36.1
611.594	36
612.012	35.9
612.43	35.83
612.847	35.76
613.265	35.68
613.683	35.59
614.101	35.51
614.518	35.42
614.936	35.34
615.353	35.25
615.771	35.2
616.188	35.12
616.606	35.04
617.023	34.98
617.44	34.92
617.857	34.87
618.274	34.81
618.691	34.73
619.108	34.67
619.525	34.61
619.942	34.58
620.359	34.52
620.776	34.48
621.192	34.46
621.609	34.42
622.026	34.37
622.442	34.33
622.859	34.32
623.275	34.31
623.691	34.29
624.108	34.28
624.524	34.25
624.94	34.24
625.356	34.21
625.772	34.18
626.188	34.19
626.604	34.18
627.02	34.16
627.436	34.13
627.852	34.12
628.268	34.1
628.683	34.08
629.099	34.07
629.514	34.04
629.93	34.05
630.345	34.02
630.761	33.96
631.176	33.94
631.591	33.9
632.007	33.86
632.422	33.8
632.837	33.75
633.252	33.69
633.667	33.6
634.082	33.52
634.497	33.45
634.911	33.35
635.326	33.26
635.741	33.14
636.155	33.02
636.57	32.91
636.984	32.8
637.399	32.66
637.813	32.51
638.228	32.39
638.642	32.23
639.056	32.05
639.47	31.89
639.884	31.72
640.298	31.54
640.712	31.36
641.126	31.18
641.54	30.98
641.954	30.78
642.368	30.61
642.781	30.42
643.195	30.22
643.609	30.03
644.022	29.85
644.436	29.68
644.849	29.5
645.262	29.34
645.676	29.17
646.089	29.02
646.502	28.87
646.915	28.71
647.328	28.55
647.741	28.44
648.154	28.33
648.567	28.22
648.98	28.12
649.393	28.01
649.805	27.93
650.218	27.84
650.631	27.75
651.043	27.67
651.456	27.57
651.868	27.47
652.28	27.37
652.693	27.27
653.105	27.17
653.517	27.06
653.929	26.94
654.341	26.8
654.753	26.65
655.165	26.49
655.577	26.34
655.989	26.18
656.401	26.02
656.813	25.84
657.224	25.63
657.636	25.4
658.047	25.18
658.459	24.94
658.87	24.72
659.282	24.49
659.693	24.26
660.104	24.01
660.515	23.75
660.926	23.48
661.338	23.2
661.749	22.95
662.159	22.71
662.57	22.46
662.981	22.22
663.392	21.98
663.803	21.74
664.213	21.5
664.624	21.28
665.035	21.07
665.445	20.87
665.855	20.68
666.266	20.5
666.676	20.33
667.086	20.15
667.497	19.98
667.907	19.82
668.317	19.67
668.727	19.53
669.137	19.4
669.547	19.28
669.956	19.16
670.366	19.07
670.776	18.97
671.186	18.88
671.595	18.81
672.005	18.74
672.414	18.68
672.824	18.63
673.233	18.59
673.642	18.56
674.052	18.52
674.461	18.51
674.87	18.49
675.279	18.5
675.688	18.52
676.097	18.53
676.506	18.57
676.915	18.61
677.323	18.68
677.732	18.76
678.141	18.86
678.549	18.99
678.958	19.13
679.366	19.3
679.775	19.47
680.183	19.7
680.592	19.97
681	20.26
681.408	20.59
681.816	20.95
682.224	21.34
682.632	21.76
683.04	22.22
683.448	22.73
683.856	23.26
684.264	23.83
684.671	24.43
685.079	25.02
685.487	25.68
685.894	26.34
686.302	27.03
686.709	27.72
687.116	28.44
687.524	29.18
687.931	29.93
688.338	30.65
688.745	31.39
689.152	32.12
689.559	32.89
689.966	33.62
690.373	34.35
690.78	35.07
691.187	35.75
691.593	36.44
692	37.09
692.407	37.71
692.813	38.38
693.22	38.98
693.626	39.59
694.032	40.18
694.439	40.74
694.845	41.28
695.251	41.83
695.657	42.34
696.063	42.84
696.469	43.31
696.875	43.8
697.281	44.22
697.687	44.67
698.093	45.07
698.498	45.45
698.904	45.83
699.31	46.19
699.715	46.52
700.12	46.86
700.526	47.19
700.931	47.52
701.337	47.82
701.742	48.12
702.147	48.39
702.552	48.66
702.957	48.9
703.362	49.15
703.767	49.39
704.172	49.62
704.577	49.84
704.981	50.05
705.386	50.25
705.791	50.47
706.195	50.65
706.6	50.86
707.004	51.04
707.408	51.23
707.813	51.41
708.217	51.57
708.621	51.76
709.025	51.93
709.43	52.05
709.834	52.23
710.237	52.35
710.641	52.5
711.045	52.63
711.449	52.78
711.853	52.94
712.256	53.05
712.66	53.17
713.064	53.28
713.467	53.4
713.87	53.53
714.274	53.62
714.677	53.77
715.08	53.85
715.484	53.94
715.887	54.06
716.29	54.13
716.693	54.25
717.096	54.35
717.499	54.43
717.901	54.55
718.304	54.63
718.707	54.7
719.109	54.78
719.512	54.87
719.915	54.95
720.317	54.98
720.719	55.02
721.122	55.07
721.524	55.13
721.926	55.2
722.328	55.25
722.731	55.34
723.133	55.43
723.535	55.47
723.937	55.54
724.338	55.59
724.74	55.66
725.142	55.83
725.544	55.86
725.945	55.93
726.347	55.94
726.748	55.97
727.15	55.97
727.551	56.01
727.952	56.03
728.354	56.08
728.755	56.1
729.156	56.12
729.557	56.06
729.958	56.12
730.359	56.14
730.76	56.21
731.161	56.22
731.562	56.29
731.962	56.28
732.363	56.3
732.763	56.33
733.164	56.36
733.564	56.4
733.965	56.4
734.365	56.4
734.766	56.42
735.166	56.43
735.566	56.46
735.966	56.48
736.366	56.5
736.766	56.51
737.166	56.52
737.566	56.54
737.966	56.56
738.365	56.58
738.765	56.62
739.165	56.64
739.564	56.66
739.964	56.68
740.363	56.67
740.763	56.69
741.162	56.72
741.561	56.71
741.96	56.71
742.36	56.74
742.759	56.74
743.158	56.73
743.557	56.69
743.955	56.69
744.354	56.7
744.753	56.73
745.152	56.75
745.55	56.74
745.949	56.76
746.348	56.77
746.746	56.76
747.144	56.78
747.543	56.77
747.941	56.79
748.339	56.77
748.737	56.75
749.136	56.73
749.534	56.69
749.932	56.68
750.33	56.64
750.727	56.65
751.125	56.64
751.523	56.62
751.921	56.62
752.318	56.65
752.716	56.67
753.113	56.7
753.511	56.71
753.908	56.73
754.305	56.75
754.703	56.79
755.1	56.8
755.497	56.81
755.894	56.79
756.291	56.8
756.688	56.79
757.085	56.79
757.482	56.78
757.878	56.79
758.275	56.8
758.672	56.78
759.068	56.8
759.465	56.79
759.861	56.8
760.258	56.88
760.654	56.91
761.05	56.94
761.447	56.97
761.843	56.97
762.239	56.98
762.635	56.96
763.031	56.98
763.427	56.95
763.822	56.98
764.218	56.99
764.614	56.99
765.01	56.95
765.405	56.9
765.801	56.87
766.196	56.87
766.592	56.85
766.987	56.86
767.382	56.85
767.778	56.84
768.173	56.82
768.568	56.77
768.963	56.75
769.358	56.77
769.753	56.8
770.148	56.8
770.542	56.82
770.937	56.83
771.332	56.84
771.726	56.87
772.121	56.88
772.515	56.91
772.91	56.91
773.304	56.94
773.699	56.92
774.093	56.93
774.487	56.94
774.881	56.94
775.275	56.92
775.669	56.89
776.063	56.88
776.457	56.89
776.851	56.86
777.245	56.84
777.638	56.8
778.032	56.82
778.425	56.83
778.819	56.8
779.212	56.82
779.606	56.83
779.999	56.86
780.392	56.9
780.786	56.9
781.179	56.94
781.572	56.99
781.965	57
782.358	57
782.751	56.99
783.143	57.03
783.536	57.02
783.929	57.03
784.322	57.04
784.714	57.03
785.107	57.06
785.499	57.03
785.891	57.01
786.284	57.02
786.676	57.05
787.068	57.04
787.46	57.04
787.852	57.03
788.245	57.03
788.636	57.03
789.028	57.04
789.42	57
789.812	57.03
790.204	57.03
790.595	57.05
790.987	57.03
791.378	57.05
791.77	57.07
792.161	57.09
792.553	57.09
792.944	57.04
793.335	57.06
793.726	57.09
794.117	57.07
794.508	57.04
794.899	57.02
795.29	57.02
795.681	57.01
796.072	56.99
796.463	57.03
796.853	57.05
797.244	57.08
797.634	57.04
798.025	57.07
798.415	57.09
798.806	57.12
799.196	57.14
799.586	57.14
799.976	57.17
800.366	57.18
800.756	57.16
801.146	57.17
801.536	57.2
801.926	57.21
802.316	57.18
802.706	57.18
803.095	57.21
803.485	57.2
803.874	57.2
804.264	57.19
804.653	57.19
805.043	57.2
805.432	57.19
805.821	57.21
806.21	57.19
806.599	57.19
806.988	57.2
807.377	57.16
807.766	57.17
808.155	57.17
808.544	57.18
808.933	57.14
809.321	57.12
809.71	57.1
810.098	57.06
810.487	57.05
810.875	57.03
811.264	57.02
811.652	57.04
812.04	57.01
812.428	57.04
812.816	57.01
813.204	57
813.592	56.96
813.98	56.97
814.368	56.97
814.756	56.96
815.144	56.97
815.531	56.96
815.919	56.95
816.306	56.94
816.694	56.91
817.081	56.93
817.469	56.97
817.856	57
818.243	56.96
818.63	56.94
819.017	56.94
819.404	56.91
819.791	56.91
820.178	56.9
820.565	56.91
820.952	56.9
821.339	56.85
821.725	56.83
822.112	56.85
822.498	56.88
822.885	56.9
823.271	56.89
823.657	56.86
824.044	56.87
824.43	56.87
824.816	56.88
825.202	56.88
825.588	56.89
825.974	56.87
826.36	56.85
826.746	56.81
827.132	56.79
827.517	56.81
827.903	56.84
828.289	56.85
828.674	56.82
829.06	56.81
829.445	56.77
829.83	56.76
830.216	56.74
830.601	56.72
830.986	56.69
831.371	56.68
831.756	56.66
832.141	56.65
832.526	56.62
832.911	56.61
833.295	56.6
833.68	56.63
834.065	56.61
834.449	56.62
834.834	56.64
835.218	56.67
835.603	56.65
835.987	56.61
836.371	56.6
836.755	56.56
837.139	56.54
837.524	56.54
837.908	56.54
838.291	56.55
838.675	56.55
839.059	56.53
839.443	56.49
839.827	56.48
840.21	56.47
840.594	56.48
840.977	56.47
841.361	56.49
841.744	56.45
842.127	56.4
842.511	56.39
842.894	56.36
843.277	56.34
843.66	56.32
844.043	56.31
844.426	56.3
844.809	56.3
845.191	56.33
845.574	56.3
845.957	56.32
846.339	56.33
846.722	56.33
847.104	56.35
847.487	56.35
847.869	56.36
848.252	56.36
848.634	56.39
849.016	56.39
849.398	56.37
849.78	56.36
850.162	56.33
850.544	56.33
850.926	56.32
851.307	56.31
851.689	56.33
852.071	56.34
852.452	56.34
852.834	56.33
853.215	56.31
853.597	56.32
853.978	56.31
854.359	56.35
854.741	56.33
855.122	56.32
855.503	56.32
855.884	56.28
856.265	56.28
856.646	56.26
857.026	56.27
857.407	56.3
857.788	56.27
858.169	56.3
858.549	56.31
858.93	56.31
859.31	56.33
859.69	56.35
860.071	56.4
860.451	56.42
860.831	56.42
861.211	56.38
861.591	56.36
861.971	56.36
862.351	56.34
862.731	56.33
863.111	56.33
863.491	56.3
863.87	56.27
864.25	56.22
864.629	56.2
865.009	56.21
865.388	56.22
865.768	56.24
866.147	56.23
866.526	56.23
866.905	56.21
867.284	56.23
867.663	56.24
868.042	56.26
868.421	56.28
868.8	56.27
869.179	56.28
869.558	56.27
869.936	56.24
870.315	56.23
870.693	56.25
871.072	56.26
871.45	56.25
871.828	56.25
872.207	56.27
872.585	56.25
872.963	56.27
873.341	56.27
873.719	56.29
874.097	56.33
874.475	56.36
874.853	56.37
875.23	56.39
875.608	56.41
875.986	56.45
876.363	56.45
876.741	56.47
877.118	56.5
877.495	56.49
877.873	56.51
878.25	56.5
878.627	56.5
879.004	56.51
879.381	56.51
879.758	56.48
880.135	56.45
880.512	56.41
880.889	56.39
881.265	56.32
881.642	56.32
882.019	56.31
882.395	56.31
882.772	56.29
883.148	56.24
883.524	56.21
883.901	56.18
884.277	56.14
884.653	56.11
885.029	56.1
885.405	56.1
885.781	56.08
886.157	56.06
886.532	56.05
886.908	56.03
887.284	56.02
887.659	55.98
888.035	55.97
888.411	55.99
888.786	56.03
889.161	56.03
889.537	56.02
889.912	56.01
890.287	55.99
890.662	55.97
891.037	55.95
891.412	55.92
891.787	55.93
892.162	55.93
892.536	55.92
892.911	55.87
893.286	55.86
893.66	55.86
894.035	55.85
894.409	55.81
894.784	55.83
895.158	55.82
895.532	55.83
895.906	55.82
896.281	55.82
896.655	55.81
897.029	55.82
897.402	55.8
897.776	55.8
898.15	55.8
898.524	55.84
898.898	55.85
899.271	55.86
899.645	55.89
900.018	55.93
900.392	55.97
900.765	56
901.138	56.03
901.511	56.08
901.884	56.1
902.258	56.16
902.631	56.19
903.003	56.21
903.376	56.24
903.749	56.25
904.122	56.28
904.495	56.29
904.867	56.33
905.24	56.36
905.612	56.36
905.985	56.35
906.357	56.32
906.729	56.33
907.102	56.34
907.474	56.36
907.846	56.36
908.218	56.34
908.59	56.35
908.962	56.34
909.334	56.32
909.705	56.31
910.077	56.34
910.449	56.37
910.82	56.37
911.192	56.38
911.563	56.35
911.935	56.36
912.306	56.38
912.677	56.41
913.048	56.44
913.419	56.43
913.79	56.44
914.161	56.47
914.532	56.45
914.903	56.47
915.274	56.48
915.645	56.53
916.015	56.55
916.386	56.54
916.756	56.51
917.127	56.5
917.497	56.54
917.868	56.58
918.238	56.58
918.608	56.63
918.978	56.63
919.348	56.67
919.718	56.66
920.088	56.67
920.458	56.7
920.828	56.7
921.198	56.68
921.567	56.69
921.937	56.72
922.306	56.7
922.676	56.68
923.045	56.66
923.415	56.58
923.784	56.56
924.153	56.59
924.522	56.6
924.891	56.63
925.26	56.63
925.629	56.63
925.998	56.59
926.367	56.62
926.736	56.65
927.104	56.66
927.473	56.67
927.842	56.68
928.21	56.66
928.578	56.63
928.947	56.64
929.315	56.62
929.683	56.64
930.051	56.61
930.42	56.58
930.788	56.58
931.156	56.56
931.523	56.59
931.891	56.66
932.259	56.71
932.627	56.73
932.994	56.74
933.362	56.79
933.729	56.79
934.097	56.82
934.464	56.89
934.831	56.9
935.199	56.95
935.566	56.97
935.933	56.93
936.3	56.89
936.667	56.89
937.034	56.98
937.401	56.99
937.767	57.04
938.134	57.11
938.501	57.13
938.867	57.19
939.234	57.19
939.6	57.24
939.967	57.3
940.333	57.31
940.699	57.42
941.065	57.35
941.431	57.33
941.798	57.32
942.163	57.29
942.529	57.25
942.895	57.24
943.261	57.25
943.627	57.22
943.992	57.24
944.358	57.22
944.723	57.11
945.089	56.99
945.454	57.03
945.82	57.01
946.185	57.03
946.55	56.93
946.915	56.87
947.28	56.84
947.645	56.8
948.01	56.77
948.375	56.74
948.74	56.71
949.104	56.79
949.469	56.65
949.834	56.57
950.198	56.5
950.562	56.48
950.927	56.43
951.291	56.28
951.655	56.22
952.02	56.16
952.384	56.06
952.748	56.09
953.112	56.06
953.476	56.08
953.839	56.06
954.203	56.07
954.567	56.04
954.931	56.01
955.294	56.08
955.658	56.15
956.021	56.11
956.385	56.11
956.748	56.05
957.111	55.98
957.474	55.99
957.837	55.92
958.2	55.87
958.563	55.88
958.926	55.92
959.289	55.93
959.652	55.89
960.015	55.9
960.377	55.9
960.74	55.94
961.102	56
961.465	56.05
961.827	56.18
962.189	56.26
962.552	56.24
962.914	56.24
963.276	56.24
963.638	56.28
964	56.32
964.362	56.36
964.724	56.36
965.085	56.32
965.447	56.25
965.809	56.22
966.17	56.17
966.532	56.21
966.893	56.24
967.255	56.27
967.616	56.25
967.977	56.29
968.338	56.26
968.699	56.3
969.061	56.35
969.421	56.44
969.782	56.5
970.143	56.56
970.504	56.59
970.865	56.61
971.225	56.6
971.586	56.59
971.946	56.54
972.307	56.61
972.667	56.61
973.027	56.64
973.388	56.67
973.748	56.68
974.108	56.73
974.468	56.71
974.828	56.78
975.188	56.77
975.548	56.81
975.907	56.87
976.267	56.93
976.627	56.95
976.986	56.91
977.346	56.81
977.705	56.76
978.064	56.79
978.424	56.86
978.783	56.77
979.142	56.83
979.501	56.92
979.86	56.96
980.219	56.96
980.578	56.99
980.937	57
981.296	57
981.654	57.04
982.013	57.04
982.371	56.98
982.73	57.04
983.088	56.99
983.447	56.91
983.805	56.95
984.163	56.92
984.521	56.91
984.879	56.96
985.237	57.04
985.595	57.09
985.953	57.1
986.311	57.14
986.669	57.19
987.026	57.27
987.384	57.43
987.741	57.42
988.099	57.56
988.456	57.58
988.814	57.61
989.171	57.66
989.528	57.68
989.885	57.66
990.242	57.81
990.599	57.84
990.956	57.95
991.313	57.91
991.67	57.99
992.027	58.07
992.383	58.16
992.74	58.3
993.096	58.34
993.453	58.37
993.809	58.46
994.165	58.46
994.522	58.59
994.878	58.68
995.234	58.66
995.59	58.62
995.946	58.65
996.302	58.66
996.658	58.73
997.013	58.79
997.369	59.02
997.725	59.28
998.08	59.36
998.436	59.38
998.791	59.49
999.147	59.57
999.502	59.72
999.857	59.7
1000.212	59.79
1000.567	59.9
1000.922	59.99
1001.277	59.93
1001.632	59.76
1001.987	59.82
1002.342	59.73
1002.696	59.66
1003.051	59.98
1003.406	60.05
1003.76	60.12
1004.114	60.21
1004.469	60.22
1004.823	60.42
1005.177	60.57
1005.531	60.68
1005.885	60.8
1006.239	61.11
1006.593	61.29
1006.947	61.29
1007.301	61.36
1007.655	61.42
1008.008	61.64
1008.362	61.75
1008.715	61.78
1009.069	61.93
1009.422	62.21
1009.776	62.31
1010.129	62.34
1010.482	62.39
1010.835	62.56
1011.188	62.61
1011.541	62.67
1011.894	62.69
1012.247	62.83
1012.6	62.95
1012.952	62.9
1013.305	62.9
1013.657	63.11
1014.01	63.25
1014.362	63.35
1014.715	63.4
1015.067	63.83
1015.419	64.19
1015.771	64.18
1016.123	64.41
1016.475	64.56
1016.827	64.71
1017.179	64.96
1017.531	64.82
1017.883	64.78
1018.234	65.2
1018.586	65.38
1018.938	65.51
1019.289	65.53
1019.64	65.75
1019.992	65.55
1020.343	65.71
1020.694	65.91
1021.045	65.86
1021.396	66.14
1021.747	66.6
1022.098	66.6
1022.449	66.51
1022.8	66.82
1023.151	66.91
1023.501	67.04
1023.852	67.5
1024.202	67.49
1024.553	67.81
1024.903	68.22
1025.253	68.54
1025.604	68.5
1025.954	68.44
1026.304	68.91
1026.654	68.87
1027.004	69.06
1027.354	69.37
1027.703	69.28
1028.053	69.39
1028.403	69.69
1028.753	69.56
1029.102	69.97
1029.452	70.39
1029.801	70.92
1030.15	70.9
1030.499	70.83
897.758	1615.52
901.051	1621.9
904.343	1615.38
907.636	1644.23
910.928	1597.62
914.22	1598.64
917.511	1579.25
920.803	1512.51
924.094	1504
927.384	1472.43
930.675	1409.93
933.965	1401.95
937.255	1322.59
940.544	1270.35
943.834	1208.53
947.123	1199.64
950.411	1131.05
953.7	1105.24
956.988	1042.69
960.276	1001.4
963.563	986.27
966.851	949.51
970.138	943.52
973.424	913.34
976.711	918.48
979.997	873.58
983.283	869.25
986.568	849.3
989.853	823.74
993.138	812.43
996.423	781.03
999.708	760.03
1002.992	751.66
1006.275	713.38
1009.559	707.53
1012.842	683.23
1016.125	664.66
1019.408	652.82
1022.69	644.15
1025.972	632.92
1029.254	615.25
1032.536	605.62
1035.817	591.61
1039.098	585.17
1042.379	574.97
1045.659	568.52
1048.939	553.45
1052.219	543.47
1055.498	534.12
1058.778	521.86
1062.057	508.58
1065.335	503.91
1068.614	497.4
1071.892	493.65
1075.17	475.42
1078.447	467.52
1081.724	463.85
1085.001	460.75
1088.278	450.17
1091.554	443.05
1094.83	443.45
1098.106	441.33
1101.382	436.53
1104.657	434.39
1107.932	425.89
1111.206	431.52
1114.481	418.84
1117.755	414.5
1121.029	411.2
1124.302	411.85
1127.575	402.67
1130.848	397.4
1134.121	392.57
1137.393	391.92
1140.665	382.91
1143.937	381.83
1147.208	376.91
1150.48	378
1153.75	373.69
1157.021	367.25
1160.291	367.3
1163.561	364
1166.831	363.36
1170.101	360.99
1173.37	359.71
1176.639	360.9
1179.907	356.46
1183.176	353.28
1186.444	352.02
1189.711	351.74
1192.979	351.08
1196.246	348.12
1199.513	348.99
1202.78	347.71
1206.046	347.37
1209.312	343.63
1212.578	344.37
1215.843	347.76
1219.108	345.28
1222.373	353.22
1225.638	354.84
1228.902	360.92
1232.166	360.6
1235.43	364.35
1238.693	368.03
1241.956	370.5
1245.219	376.42
1248.482	375.74
1251.744	375.1
1255.006	377.87
1258.268	367.44
1261.529	364.16
1264.79	360.55
1268.051	359.5
1271.312	354.59
1274.572	350.64
1277.832	347.15
1281.092	341.64
1284.351	339.12
1287.61	339.24
1290.869	332.82
1294.128	331.51
1297.386	331.55
1300.644	328.44
1303.902	329.13
1307.159	328.01
1310.416	328.48
1313.673	328.17
1316.93	331.55
1320.186	331.48
1323.442	332.01
1326.697	338.59
1329.953	339.57
1333.208	340.53
1336.463	344.38
1339.717	345.24
1342.972	348.59
1346.226	351.6
1349.479	351.6
1352.733	353.45
1355.986	355.22
1359.238	355.48
1362.491	357.49
1365.743	359.98
1368.995	360.59
1372.247	359.76
1375.498	359.97
1378.749	363.3
1382	358.32
1385.251	360.01
1388.501	357.06
1391.751	359.34
1395	357.2
1398.25	353.55
1401.499	352.53
1404.748	351.75
1407.996	348.05
1411.244	345.95
1414.492	344.06
1417.74	341.95
1420.987	336.66
1424.234	337.24
1427.481	331.51
1430.728	331.31
1433.974	328.02
1437.22	324.99
1440.465	324.11
1443.711	322.22
1446.956	320.46
1450.201	315.98
1453.445	312.41
1456.689	311.39
1459.933	305.3
1463.177	303.47
1466.42	299.07
1469.663	295.58
1472.906	293.67
1476.148	285.77
1479.391	282.27
1482.633	279.22
1485.874	274.92
1489.115	273.44
1492.356	270.41
1495.597	270.27
1498.838	266.01
1502.078	264.19
1505.318	263.15
1508.557	262.85
1511.797	262.97
1515.036	261.45
1518.274	260.89
1521.513	258.58
1524.751	258.3
1527.989	257.43
1531.227	256.49
1534.464	257.49
1537.701	255.23
1540.938	254.5
1544.174	251.71
1547.41	251.26
1550.646	250.07
1553.882	250.39
1557.117	247.31
1560.352	245.36
1563.587	244.82
1566.821	242.85
1570.055	239.95
1573.289	238.68
1576.523	238.27
1579.756	236.41
1582.989	235.09
1586.222	235.31
1589.454	233.38
1592.686	235.65
1595.918	234.76
1599.15	233.82
1602.381	234.34
1605.612	234.34
1608.843	235.5
1612.073	235.45
1615.303	236.85
1618.533	237
1621.762	236.15
1624.992	236.16
1628.221	236.03
1631.449	235.79
1634.678	235.36
1637.906	235.92
1641.134	236.27
1644.361	235.44
1647.588	236.3
1650.815	234.9
1654.042	233.98
1657.269	235.42
1660.495	235.8
1663.72	233.92
1666.946	235.1
1670.171	235.6
1673.396	235.53
1676.621	235.34
1679.845	235.57
1683.069	235.03
1686.293	236.71
1689.517	238.43
1692.74	237.68
1695.963	238.65
1699.185	241.52
1702.408	241.99
1705.63	242.46
1708.852	243.25
1712.073	243.97
1715.294	244.4
1718.515	246.26
1721.736	245.94
1724.956	245.93
1728.176	245.96
1731.396	248.74
1734.616	247.08
1737.835	247.63
1741.054	246.37
1744.272	246.96
1747.491	249.19
1750.709	249.82
1753.927	249.21
1757.144	248.33
1760.361	249.74
1763.578	250.44
1766.795	249.13
1770.011	251.07
1773.227	251.22
1776.443	254.57
1779.658	255.52
1782.874	254.49
1786.089	255.69
1789.303	256.54
1792.518	259.98
1795.732	259.98
1798.945	262.62
1802.159	262.34
1805.372	263.79
1808.585	268.26
1811.797	268.72
1815.01	269.37
1818.222	271.69
1821.434	273.48
1824.645	274.36
1827.856	278.89
1831.067	281.11
1834.278	279.38
1837.488	282.1
1840.698	284.26
1843.908	280.97
1847.117	282.8
1850.326	284.16
1853.535	283.16
1856.744	287.28
1859.952	287.4
1863.16	285.06
1866.368	282.56
1869.575	287.42
1872.782	282.02
1875.989	280.87
1879.196	279.91
1882.402	278.1
1885.608	279.24
1888.814	280.11
1892.019	279.15
1895.224	278.32
1898.429	276.85
1901.634	279.54
1904.838	278.41
1908.042	282.59
1911.246	283.21
1914.449	285.4
1917.652	285.04
1920.855	284.33
1924.058	284.29
1927.26	282.78
1930.462	283.55
1933.664	287.94
1936.865	284.49
1940.066	284.83
1943.267	282.39
1946.467	282.31
1949.668	284.12
1952.868	288.02
1956.067	287.85
1959.267	288.04
1962.466	288.86
1965.665	288.08
1968.863	288.36
1972.061	292.71
1975.259	295.31
1978.457	297.9
1981.654	300.5
1984.852	301.25
1988.048	300.03
1991.245	302.57
1994.441	306.18
1997.637	308.64
2000.833	313.86
2004.028	318
2007.223	319.92
2010.418	322.65
2013.613	328.67
2016.807	331.84
2020.001	334.24
2023.194	339.25
2026.388	346.73
2029.581	354.52
2032.774	357.81
2035.966	365
2039.158	365.22
2042.35	372.31
2045.542	374.63
2048.733	380.46
2051.924	385.83
2055.115	393.2
2058.306	393.98
2061.496	398.95
2064.686	398.36
2067.875	405.69
2071.065	407.27
2074.254	405.61
2077.442	410.12
2080.631	412.08
2083.819	415.36
2087.007	415.36
2090.195	419.94
2093.382	423.37
2096.569	419.9
2099.756	427.68
2102.942	427.89
2106.128	433.09
2109.314	442.25
2112.5	440.44
2115.685	450.52
2118.87	451.83
2122.055	460.36
2125.239	463.69
2128.424	469.06
2131.608	474.51
2134.791	479.99
2137.974	481.93
2141.157	482.44
2144.34	483.43
2147.523	492.15
2150.705	487.96
2153.887	492.28
2157.068	494.7
2160.25	488.48
2163.431	491.84
2166.611	495.7
2169.792	505.53
2172.972	511.56
2176.152	513.67
2179.331	521.6
2182.511	529.02
2185.69	536.21
2188.868	545.75
2192.047	546.52
2195.225	564.2
2198.403	577.79
2201.58	588.75
2204.758	598.77
2207.935	611.78
2211.111	623.19
2214.288	630.06
2217.464	632.48
2220.64	640.33
2223.815	650.1
2226.991	677.26
2230.166	678.17
2233.34	690.91
2236.515	700.51
2239.689	701.91
2242.863	704.45
2246.036	728.7
2249.209	720.79
2252.382	731.33
2255.555	755.47
2258.727	757.75
2261.9	761.23
2265.071	768.44
2268.243	780.43
2271.414	791.09
2274.585	809.66
2277.756	817.5
2280.926	820.33
2284.096	841.94
2287.266	861.78
2290.436	867.88
2293.605	888.27
2296.774	915.2
2299.942	944.39
2303.111	947.85
2306.279	971.92
2309.447	982.34
2312.614	1007.57
2315.781	1035.34
2318.948	1082.59
2322.115	1066.67
2325.281	1123.61
2328.447	1100.28
2331.613	1148.64
2334.779	1133.81
2337.944	1182.62
2341.109	1190.61
2344.274	1222.86
2347.438	1268.8
2350.602	1268.08
2353.766	1308.4
2356.929	1327.54
2360.092	1314.85
2363.255	1412.94
2366.418	1403.34
2369.58	1436.2
2372.742	1527.13
2375.904	1567.49
2379.066	1558.11
2382.227	1523.28
2385.388	1655.22
2388.548	1657.03
2391.709	1677.75
2394.869	1875.07
2398.029	1784.31
2401.188	1840.11
2404.347	1824.86
2407.506	1796.15
2410.665	1849.22
2413.823	1962.53
2416.981	2083.47
2420.139	2011.13
2423.296	1990.53
2426.453	2081.15
2429.61	1998.71
2432.767	2103.87
2435.923	2079.08
2439.079	2268.07
2442.235	2295.63
2445.391	2274.77
2448.546	2257.96
2451.701	2191.44
2454.855	2194.45
2458.009	2320.86
2461.163	2406.44
2464.317	2502.25
2467.471	2563.28
2470.624	2558.86
2473.777	2500.08
2476.929	2442.25
2480.082	2365.76
2483.234	2337.86
2486.385	2452.74
2489.537	2464.31
2492.688	2557.51
2495.839	2495.08
2498.989	2435.69
2502.14	2450.96
2505.29	2483.54
2508.439	2521.59
2511.589	2511.02
2514.738	2740.18
2517.887	2683.59
2521.035	2837.05
2524.183	2858.72
2527.331	2880.03
2530.479	2865.99
2533.627	2888.37
