Data from C_2_DEC_CT_2N_Splice17_13-30-06-764.txt Node
Date: Sat Mar 07 13:30:06 EST 2020
User: sa697716
Spectrometer: NQ5500242
Trigger mode: 0
Integration Time (sec): 1.450000E-1
Scans to average: 20
Nonlinearity correction enabled: false
Boxcar width: 5
Storing dark spectrum: false
XAxis mode: Wavelengths
Number of Pixels in Spectrum: 512
>>>>>Begin Spectral Data<<<<<
187.83	100.94
188.298	132.69
188.766	96.63
189.233	86.96
189.701	103.93
190.169	117.49
190.636	110.05
191.104	126.76
191.571	-109.87
192.039	-213.33
192.506	-726.63
192.974	217.22
193.441	331.88
193.908	21.66
194.375	22.24
194.842	58.43
195.31	71.8
195.777	-61.69
196.244	41.13
196.711	47.15
197.177	50.18
197.644	51.46
198.111	51.45
198.578	52.39
199.045	53.26
199.511	53.5
199.978	53.36
200.445	53.8
200.911	54.19
201.378	54.25
201.844	54.09
202.31	53.89
202.777	53.63
203.243	53.7
203.709	53.35
204.176	52.82
204.642	52.36
205.108	52.45
205.574	51.76
206.04	50.99
206.506	50.38
206.972	50.38
207.438	50.1
207.903	49.25
208.369	48.21
208.835	47.22
209.301	46.44
209.766	45.2
210.232	43.96
210.697	42.89
211.163	42.01
211.628	41.19
212.094	39.71
212.559	38.74
213.024	37.98
213.49	37.18
213.955	36.36
214.42	35.42
214.885	34.43
215.35	33.17
215.815	31.63
216.28	29.56
216.745	27.27
217.21	25.37
217.675	23.26
218.14	21.51
218.604	20.04
219.069	18.82
219.534	17.86
219.998	17.03
220.463	16.31
220.927	15.64
221.392	15.14
221.856	14.72
222.32	14.32
222.785	14.04
223.249	13.75
223.713	13.48
224.177	13.23
224.642	12.95
225.106	12.7
225.57	12.46
226.034	12.27
226.497	12.08
226.961	11.87
227.425	11.7
227.889	11.52
228.353	11.35
228.816	11.18
229.28	11
229.744	10.84
230.207	10.69
230.671	10.54
231.134	10.39
231.597	10.27
232.061	10.16
232.524	10.03
232.987	9.91
233.45	9.79
233.914	9.67
234.377	9.56
234.84	9.45
235.303	9.36
235.766	9.27
236.229	9.18
236.691	9.08
237.154	8.97
237.617	8.88
238.08	8.8
238.542	8.69
239.005	8.61
239.468	8.53
239.93	8.45
240.393	8.37
240.855	8.27
241.317	8.2
241.78	8.12
242.242	8.03
242.704	7.96
243.166	7.88
243.629	7.83
244.091	7.75
244.553	7.68
245.015	7.6
245.477	7.52
245.939	7.46
246.4	7.39
246.862	7.33
247.324	7.27
247.786	7.21
248.247	7.14
248.709	7.06
249.17	7
249.632	6.95
250.093	6.9
250.555	6.86
251.016	6.81
251.477	6.76
251.939	6.73
252.4	6.69
252.861	6.65
253.322	6.62
253.783	6.59
254.244	6.55
254.705	6.52
255.166	6.47
255.627	6.43
256.088	6.39
256.549	6.36
257.009	6.3
257.47	6.26
257.931	6.21
258.391	6.16
258.852	6.12
259.312	6.08
259.773	6.04
260.233	6.02
260.694	5.98
261.154	5.94
261.614	5.91
262.074	5.88
262.534	5.84
262.994	5.82
263.455	5.79
263.915	5.77
264.374	5.75
264.834	5.73
265.294	5.7
265.754	5.69
266.214	5.67
266.673	5.65
267.133	5.63
267.593	5.62
268.052	5.6
268.512	5.59
268.971	5.57
269.431	5.55
269.89	5.54
270.349	5.53
270.809	5.51
271.268	5.5
271.727	5.48
272.186	5.47
272.645	5.46
273.104	5.44
273.563	5.43
274.022	5.42
274.481	5.41
274.94	5.4
275.399	5.39
275.857	5.37
276.316	5.36
276.775	5.35
277.233	5.34
277.692	5.33
278.15	5.32
278.609	5.3
279.067	5.29
279.525	5.28
279.984	5.27
280.442	5.25
280.9	5.25
281.358	5.23
281.816	5.23
282.274	5.21
282.732	5.2
283.19	5.18
283.648	5.17
284.106	5.15
284.564	5.14
285.021	5.13
285.479	5.11
285.937	5.1
286.394	5.09
286.852	5.07
287.309	5.05
287.767	5.04
288.224	5.03
288.682	5.01
289.139	4.99
289.596	4.97
290.053	4.95
290.511	4.94
290.968	4.92
291.425	4.9
291.882	4.89
292.339	4.87
292.796	4.86
293.252	4.85
293.709	4.84
294.166	4.84
294.623	4.83
295.079	4.82
295.536	4.81
295.992	4.79
296.449	4.78
296.905	4.77
297.362	4.76
297.818	4.75
298.274	4.74
298.731	4.72
299.187	4.7
299.643	4.69
300.099	4.68
300.555	4.68
301.011	4.67
301.467	4.67
301.923	4.66
302.379	4.64
302.835	4.65
303.291	4.64
303.746	4.64
304.202	4.64
304.658	4.63
305.113	4.62
305.569	4.61
306.024	4.61
306.479	4.6
306.935	4.59
307.39	4.59
307.845	4.58
308.301	4.57
308.756	4.58
309.211	4.57
309.666	4.58
310.121	4.58
310.576	4.58
311.031	4.57
311.486	4.58
311.94	4.58
312.395	4.57
312.85	4.58
313.305	4.57
313.759	4.57
314.214	4.56
314.668	4.55
315.123	4.54
315.577	4.54
316.032	4.53
316.486	4.52
316.94	4.51
317.394	4.5
317.849	4.48
318.303	4.46
318.757	4.44
319.211	4.43
319.665	4.42
320.119	4.41
320.572	4.39
321.026	4.38
321.48	4.37
321.934	4.36
322.387	4.36
322.841	4.36
323.295	4.36
323.748	4.35
324.202	4.34
324.655	4.34
325.108	4.33
325.562	4.33
326.015	4.32
326.468	4.32
326.921	4.3
327.374	4.29
327.827	4.29
328.28	4.27
328.733	4.27
329.186	4.26
329.639	4.26
330.092	4.25
330.545	4.24
330.997	4.24
331.45	4.24
331.903	4.25
332.355	4.26
332.808	4.25
333.26	4.26
333.713	4.25
334.165	4.24
334.617	4.24
335.069	4.23
335.522	4.24
335.974	4.24
336.426	4.23
336.878	4.21
337.33	4.21
337.782	4.21
338.234	4.21
338.686	4.21
339.137	4.22
339.589	4.21
340.041	4.2
340.493	4.19
340.944	4.17
341.396	4.16
341.847	4.16
342.299	4.14
342.75	4.13
343.201	4.11
343.653	4.09
344.104	4.07
344.555	4.06
345.006	4.05
345.457	4.03
345.908	4.02
346.359	4.02
346.81	4
347.261	4
347.712	3.99
348.163	3.98
348.613	3.98
349.064	3.98
349.515	3.98
349.965	3.98
350.416	3.97
350.866	3.96
351.317	3.95
351.767	3.96
352.217	3.95
352.668	3.95
353.118	3.96
353.568	3.95
354.018	3.95
354.468	3.95
354.918	3.96
355.368	3.97
355.818	3.97
356.268	3.97
356.718	3.97
357.168	3.97
357.617	3.97
358.067	3.97
358.517	3.97
358.966	3.96
359.416	3.96
359.865	3.95
360.315	3.96
360.764	3.96
361.213	3.96
361.663	3.95
362.112	3.95
362.561	3.96
363.01	3.96
363.459	3.94
363.908	3.94
364.357	3.95
364.806	3.93
365.255	3.92
365.703	3.93
366.152	3.93
366.601	3.94
367.05	3.95
367.498	3.93
367.947	3.94
368.395	3.95
368.844	3.94
369.292	3.93
369.74	3.94
370.189	3.95
370.637	3.94
371.085	3.93
371.533	3.92
371.981	3.91
372.429	3.91
372.877	3.9
373.325	3.89
373.773	3.89
374.221	3.89
374.669	3.88
375.116	3.87
375.564	3.87
376.012	3.87
376.459	3.86
376.907	3.87
377.354	3.86
377.801	3.86
378.249	3.86
378.696	3.86
379.143	3.86
379.591	3.86
380.038	3.87
380.485	3.88
380.932	3.87
381.379	3.88
381.826	3.88
382.273	3.88
382.72	3.86
383.166	3.87
383.613	3.87
384.06	3.87
384.506	3.86
384.953	3.87
385.4	3.87
385.846	3.87
386.292	3.88
386.739	3.87
387.185	3.88
387.631	3.9
388.078	3.91
388.524	3.92
388.97	3.93
389.416	3.95
389.862	3.96
390.308	3.98
390.754	4
391.2	4.02
391.645	4.04
392.091	4.07
392.537	4.09
392.983	4.1
393.428	4.13
393.874	4.14
394.319	4.17
394.765	4.18
395.21	4.2
395.655	4.21
396.101	4.25
396.546	4.27
396.991	4.29
397.436	4.31
397.881	4.35
398.326	4.39
398.771	4.42
399.216	4.45
399.661	4.49
400.106	4.52
400.551	4.54
400.995	4.56
401.44	4.6
401.885	4.63
402.329	4.65
402.774	4.68
403.218	4.72
403.663	4.75
404.107	4.78
404.551	4.8
404.995	4.83
405.44	4.86
405.884	4.9
406.328	4.92
406.772	4.95
407.216	4.97
407.66	4.99
408.104	5
408.547	5.02
408.991	5.04
409.435	5.07
409.879	5.09
410.322	5.14
410.766	5.16
411.209	5.2
411.653	5.23
412.096	5.27
412.54	5.31
412.983	5.34
413.426	5.39
413.869	5.42
414.312	5.46
414.756	5.5
415.199	5.51
415.642	5.54
416.085	5.55
416.527	5.55
416.97	5.56
417.413	5.56
417.856	5.58
418.298	5.58
418.741	5.6
419.184	5.59
419.626	5.6
420.069	5.62
420.511	5.62
420.953	5.65
421.396	5.68
421.838	5.69
422.28	5.71
422.722	5.73
423.164	5.73
423.606	5.75
424.048	5.76
424.49	5.77
424.932	5.77
425.374	5.76
425.816	5.73
426.258	5.71
426.699	5.69
427.141	5.7
427.582	5.68
428.024	5.69
428.465	5.68
428.907	5.67
429.348	5.66
429.789	5.65
430.231	5.68
430.672	5.72
431.113	5.74
431.554	5.76
431.995	5.77
432.436	5.79
432.877	5.79
433.318	5.8
433.759	5.83
434.2	5.85
434.64	5.88
435.081	5.88
435.522	5.88
435.962	5.88
436.403	5.91
436.843	5.92
437.284	5.92
437.724	5.94
438.164	5.94
438.604	5.96
439.045	5.96
439.485	5.98
439.925	5.98
440.365	6.01
440.805	6.03
441.245	6.06
441.685	6.08
442.125	6.12
442.564	6.15
443.004	6.18
443.444	6.21
443.883	6.25
444.323	6.27
444.762	6.31
445.202	6.33
445.641	6.37
446.081	6.4
446.52	6.43
446.959	6.47
447.398	6.5
447.837	6.52
448.276	6.55
448.716	6.59
449.154	6.64
449.593	6.67
450.032	6.7
450.471	6.71
450.91	6.73
451.349	6.76
451.787	6.77
452.226	6.77
452.664	6.81
453.103	6.82
453.541	6.82
453.98	6.83
454.418	6.81
454.856	6.8
455.295	6.8
455.733	6.78
456.171	6.76
456.609	6.76
457.047	6.75
457.485	6.74
457.923	6.73
458.361	6.72
458.798	6.71
459.236	6.71
459.674	6.7
460.111	6.71
460.549	6.72
460.987	6.73
461.424	6.74
461.862	6.75
462.299	6.75
462.736	6.75
463.173	6.76
463.611	6.76
464.048	6.79
464.485	6.8
464.922	6.8
465.359	6.82
465.796	6.83
466.233	6.83
466.67	6.83
467.106	6.84
467.543	6.84
467.98	6.84
468.416	6.83
468.853	6.82
469.29	6.82
469.726	6.83
470.162	6.82
470.599	6.82
471.035	6.81
471.471	6.81
471.907	6.8
472.344	6.81
472.78	6.81
473.216	6.81
473.652	6.81
474.088	6.8
474.523	6.81
474.959	6.8
475.395	6.79
475.831	6.81
476.266	6.82
476.702	6.82
477.138	6.81
477.573	6.81
478.008	6.82
478.444	6.82
478.879	6.83
479.314	6.82
479.75	6.82
480.185	6.81
480.62	6.81
481.055	6.8
481.49	6.79
481.925	6.81
482.36	6.81
482.795	6.81
483.229	6.81
483.664	6.82
484.099	6.83
484.534	6.85
484.968	6.87
485.403	6.88
485.837	6.91
486.271	6.94
486.706	6.96
487.14	6.98
487.574	7.01
488.009	7.05
488.443	7.08
488.877	7.14
489.311	7.18
489.745	7.23
490.179	7.3
490.613	7.36
491.046	7.41
491.48	7.48
491.914	7.56
492.348	7.64
492.781	7.72
493.215	7.8
493.648	7.89
494.082	7.97
494.515	8.06
494.948	8.14
495.382	8.24
495.815	8.34
496.248	8.45
496.681	8.56
497.114	8.68
497.547	8.8
497.98	8.93
498.413	9.06
498.846	9.2
499.279	9.35
499.711	9.5
500.144	9.65
500.577	9.81
501.009	9.97
501.442	10.14
501.874	10.31
502.306	10.48
502.739	10.68
503.171	10.88
503.603	11.08
504.036	11.29
504.468	11.48
504.9	11.69
505.332	11.92
505.764	12.15
506.196	12.38
506.627	12.61
507.059	12.87
507.491	13.11
507.923	13.36
508.354	13.62
508.786	13.88
509.217	14.16
509.649	14.43
510.08	14.71
510.512	15
510.943	15.28
511.374	15.56
511.805	15.85
512.237	16.14
512.668	16.45
513.099	16.74
513.53	17.03
513.961	17.32
514.391	17.62
514.822	17.92
515.253	18.21
515.684	18.49
516.114	18.78
516.545	19.06
516.975	19.35
517.406	19.64
517.836	19.91
518.267	20.21
518.697	20.5
519.127	20.76
519.558	21.04
519.988	21.3
520.418	21.57
520.848	21.83
521.278	22.08
521.708	22.48
522.138	22.71
522.567	22.94
522.997	23.14
523.427	23.35
523.857	23.55
524.286	23.75
524.716	23.93
525.145	24.13
525.575	24.31
526.004	24.49
526.433	24.49
526.863	24.67
527.292	24.83
527.721	24.97
528.15	25.11
528.579	25.25
529.008	25.39
529.437	25.51
529.866	25.63
530.295	25.76
530.724	25.85
531.152	25.95
531.581	26.04
532.01	26.13
532.438	26.23
532.867	26.32
533.295	26.4
533.723	26.47
534.152	26.56
534.58	26.63
535.008	26.68
535.436	26.74
535.865	26.8
536.293	26.86
536.721	26.91
537.149	26.96
537.576	27.01
538.004	27.05
538.432	27.09
538.86	27.12
539.287	27.13
539.715	27.17
540.143	27.2
540.57	27.23
540.998	27.25
541.425	27.27
541.852	27.3
542.28	27.32
542.707	27.33
543.134	27.36
543.561	27.39
543.988	27.42
544.415	27.43
544.842	27.46
545.269	27.48
545.696	27.52
546.123	27.54
546.549	27.55
546.976	27.57
547.403	27.59
547.829	27.6
548.256	27.61
548.682	27.62
549.108	27.64
549.535	27.66
549.961	27.66
550.387	27.67
550.813	27.66
551.24	27.67
551.666	27.66
552.092	27.67
552.518	27.66
552.943	27.65
553.369	27.64
553.795	27.62
554.221	27.6
554.646	27.57
555.072	27.54
555.498	27.5
555.923	27.47
556.349	27.43
556.774	27.36
557.199	27.33
557.625	27.28
558.05	27.23
558.475	27.18
558.9	27.13
559.325	27.08
559.75	27.02
560.175	26.97
560.6	26.88
561.025	26.81
561.449	26.74
561.874	26.65
562.299	26.56
562.723	26.47
563.148	26.37
563.572	26.26
563.997	26.17
564.421	26.06
564.846	25.95
565.27	25.85
565.694	25.75
566.118	25.63
566.542	25.53
566.966	25.41
567.39	25.29
567.814	25.16
568.238	25.04
568.662	24.91
569.086	24.79
569.509	24.67
569.933	24.57
570.357	24.44
570.78	24.33
571.204	24.2
571.627	24.08
572.05	23.96
572.474	23.86
572.897	23.76
573.32	23.64
573.743	23.53
574.166	23.42
574.589	23.3
575.012	23.2
575.435	23.1
575.858	23.01
576.281	22.91
576.704	22.82
577.126	22.73
577.549	22.64
577.972	22.55
578.394	22.45
578.817	22.37
579.239	22.29
579.661	22.2
580.084	22.13
580.506	22.06
580.928	21.99
581.35	21.91
581.772	21.83
582.194	21.76
582.616	21.69
583.038	21.63
583.46	21.55
583.882	21.49
584.303	21.43
584.725	21.36
585.147	21.3
585.568	21.24
585.99	21.19
586.411	21.12
586.833	21.06
587.254	21.01
587.675	20.95
588.096	20.89
588.518	20.84
588.939	20.81
589.36	20.75
589.781	20.69
590.202	20.65
590.623	20.6
591.043	20.58
591.464	20.55
591.885	20.51
592.305	20.48
592.726	20.46
593.147	20.43
593.567	20.39
593.987	20.35
594.408	20.32
594.828	20.28
595.248	20.26
595.669	20.22
596.089	20.2
596.509	20.17
596.929	20.13
597.349	20.1
597.769	20.07
598.189	20.03
598.608	20
599.028	19.97
599.448	19.94
599.867	19.9
600.287	19.87
600.706	19.82
601.126	19.78
601.545	19.74
601.965	19.7
602.384	19.66
602.803	19.61
603.222	19.56
603.641	19.5
604.061	19.44
604.48	19.36
604.898	19.29
605.317	19.22
605.736	19.14
606.155	19.07
606.574	18.99
606.992	18.9
607.411	18.83
607.829	18.73
608.248	18.64
608.666	18.55
609.085	18.48
609.503	18.4
609.921	18.32
610.339	18.22
610.758	18.15
611.176	18.05
611.594	17.97
612.012	17.88
612.43	17.82
612.847	17.75
613.265	17.67
613.683	17.59
614.101	17.51
614.518	17.43
614.936	17.36
615.353	17.28
615.771	17.21
616.188	17.14
616.606	17.08
617.023	17.01
617.44	16.96
617.857	16.9
618.274	16.83
618.691	16.77
619.108	16.73
619.525	16.67
619.942	16.63
620.359	16.59
620.776	16.55
621.192	16.51
621.609	16.48
622.026	16.43
622.442	16.41
622.859	16.4
623.275	16.36
623.691	16.35
624.108	16.33
624.524	16.3
624.94	16.29
625.356	16.28
625.772	16.27
626.188	16.25
626.604	16.23
627.02	16.19
627.436	16.18
627.852	16.17
628.268	16.16
628.683	16.15
629.099	16.15
629.514	16.13
629.93	16.11
630.345	16.08
630.761	16.05
631.176	16.02
631.591	16
632.007	15.97
632.422	15.92
632.837	15.85
633.252	15.8
633.667	15.73
634.082	15.65
634.497	15.6
634.911	15.52
635.326	15.45
635.741	15.36
636.155	15.27
636.57	15.16
636.984	15.07
637.399	14.97
637.813	14.86
638.228	14.73
638.642	14.61
639.056	14.47
639.47	14.36
639.884	14.22
640.298	14.07
640.712	13.93
641.126	13.8
641.54	13.65
641.954	13.51
642.368	13.36
642.781	13.23
643.195	13.1
643.609	12.97
644.022	12.83
644.436	12.7
644.849	12.58
645.262	12.46
645.676	12.34
646.089	12.23
646.502	12.12
646.915	12.03
647.328	11.92
647.741	11.83
648.154	11.74
648.567	11.66
648.98	11.59
649.393	11.52
649.805	11.46
650.218	11.38
650.631	11.32
651.043	11.26
651.456	11.19
651.868	11.11
652.28	11.04
652.693	10.97
653.105	10.9
653.517	10.82
653.929	10.74
654.341	10.65
654.753	10.57
655.165	10.48
655.577	10.38
655.989	10.28
656.401	10.18
656.813	10.07
657.224	9.95
657.636	9.82
658.047	9.71
658.459	9.57
658.87	9.43
659.282	9.29
659.693	9.15
660.104	9.01
660.515	8.87
660.926	8.74
661.338	8.6
661.749	8.46
662.159	8.33
662.57	8.2
662.981	8.09
663.392	7.98
663.803	7.87
664.213	7.77
664.624	7.67
665.035	7.58
665.445	7.5
665.855	7.42
666.266	7.35
666.676	7.28
667.086	7.2
667.497	7.13
667.907	7.08
668.317	7.02
668.727	6.98
669.137	6.93
669.547	6.9
669.956	6.85
670.366	6.83
670.776	6.8
671.186	6.78
671.595	6.77
672.005	6.74
672.414	6.73
672.824	6.72
673.233	6.72
673.642	6.71
674.052	6.71
674.461	6.72
674.87	6.73
675.279	6.75
675.688	6.77
676.097	6.8
676.506	6.83
676.915	6.87
677.323	6.9
677.732	6.94
678.141	6.99
678.549	7.04
678.958	7.11
679.366	7.19
679.775	7.26
680.183	7.36
680.592	7.47
681	7.6
681.408	7.75
681.816	7.92
682.224	8.1
682.632	8.31
683.04	8.53
683.448	8.77
683.856	9.03
684.264	9.32
684.671	9.62
685.079	9.96
685.487	10.32
685.894	10.71
686.302	11.12
686.709	11.55
687.116	12.01
687.524	12.49
687.931	12.98
688.338	13.5
688.745	14.03
689.152	14.58
689.559	15.14
689.966	15.71
690.373	16.27
690.78	16.85
691.187	17.44
691.593	18.02
692	18.6
692.407	19.18
692.813	19.74
693.22	20.3
693.626	20.86
694.032	21.42
694.439	21.96
694.845	22.48
695.251	23
695.657	23.51
696.063	24.01
696.469	24.5
696.875	24.99
697.281	25.47
697.687	25.94
698.093	26.39
698.498	26.81
698.904	27.22
699.31	27.65
699.715	28.07
700.12	28.46
700.526	28.84
700.931	29.2
701.337	29.53
701.742	29.86
702.147	30.18
702.552	30.5
702.957	30.79
703.362	31.11
703.767	31.38
704.172	31.65
704.577	31.93
704.981	32.19
705.386	32.46
705.791	32.71
706.195	32.99
706.6	33.24
707.004	33.49
707.408	33.74
707.813	33.98
708.217	34.21
708.621	34.43
709.025	34.62
709.43	34.83
709.834	35.02
710.237	35.22
710.641	35.39
711.045	35.56
711.449	35.75
711.853	35.94
712.256	36.09
712.66	36.26
713.064	36.4
713.467	36.57
713.87	36.73
714.274	36.86
714.677	37.02
715.08	37.16
715.484	37.31
715.887	37.45
716.29	37.57
716.693	37.73
717.096	37.85
717.499	37.99
717.901	38.11
718.304	38.23
718.707	38.37
719.109	38.48
719.512	38.6
719.915	38.68
720.317	38.77
720.719	38.84
721.122	38.93
721.524	39.04
721.926	39.15
722.328	39.25
722.731	39.32
723.133	39.42
723.535	39.48
723.937	39.57
724.338	39.66
724.74	39.76
725.142	39.93
725.544	39.99
725.945	40.08
726.347	40.13
726.748	40.18
727.15	40.25
727.551	40.3
727.952	40.35
728.354	40.4
728.755	40.43
729.156	40.45
729.557	40.41
729.958	40.43
730.359	40.46
730.76	40.51
731.161	40.55
731.562	40.61
731.962	40.61
732.363	40.67
732.763	40.7
733.164	40.76
733.564	40.79
733.965	40.85
734.365	40.91
734.766	40.93
735.166	40.98
735.566	41.02
735.966	41.04
736.366	41.07
736.766	41.07
737.166	41.1
737.566	41.1
737.966	41.13
738.365	41.13
738.765	41.15
739.165	41.15
739.564	41.15
739.964	41.14
740.363	41.16
740.763	41.21
741.162	41.24
741.561	41.25
741.96	41.28
742.36	41.31
742.759	41.34
743.158	41.34
743.557	41.35
743.955	41.39
744.354	41.4
744.753	41.43
745.152	41.45
745.55	41.44
745.949	41.45
746.348	41.45
746.746	41.42
747.144	41.43
747.543	41.44
747.941	41.45
748.339	41.43
748.737	41.43
749.136	41.42
749.534	41.38
749.932	41.39
750.33	41.4
750.727	41.41
751.125	41.44
751.523	41.43
751.921	41.43
752.318	41.44
752.716	41.47
753.113	41.49
753.511	41.5
753.908	41.52
754.305	41.54
754.703	41.53
755.1	41.53
755.497	41.53
755.894	41.53
756.291	41.53
756.688	41.51
757.085	41.5
757.482	41.5
757.878	41.51
758.275	41.5
758.672	41.5
759.068	41.52
759.465	41.52
759.861	41.51
760.258	41.5
760.654	41.5
761.05	41.52
761.447	41.52
761.843	41.51
762.239	41.52
762.635	41.51
763.031	41.5
763.427	41.51
763.822	41.52
764.218	41.54
764.614	41.55
765.01	41.53
765.405	41.53
765.801	41.53
766.196	41.52
766.592	41.49
766.987	41.51
767.382	41.5
767.778	41.49
768.173	41.48
768.568	41.47
768.963	41.46
769.358	41.5
769.753	41.49
770.148	41.48
770.542	41.48
770.937	41.49
771.332	41.49
771.726	41.49
772.121	41.48
772.515	41.48
772.91	41.48
773.304	41.49
773.699	41.48
774.093	41.49
774.487	41.51
774.881	41.54
775.275	41.55
775.669	41.54
776.063	41.52
776.457	41.53
776.851	41.52
777.245	41.5
777.638	41.5
778.032	41.5
778.425	41.52
778.819	41.52
779.212	41.51
779.606	41.53
779.999	41.53
780.392	41.6
780.786	41.58
781.179	41.61
781.572	41.66
781.965	41.68
782.358	41.68
782.751	41.65
783.143	41.66
783.536	41.67
783.929	41.65
784.322	41.67
784.714	41.65
785.107	41.68
785.499	41.67
785.891	41.67
786.284	41.66
786.676	41.66
787.068	41.68
787.46	41.73
787.852	41.74
788.245	41.73
788.636	41.73
789.028	41.73
789.42	41.74
789.812	41.73
790.204	41.73
790.595	41.74
790.987	41.75
791.378	41.76
791.77	41.76
792.161	41.74
792.553	41.77
792.944	41.75
793.335	41.76
793.726	41.77
794.117	41.77
794.508	41.78
794.899	41.78
795.29	41.78
795.681	41.76
796.072	41.74
796.463	41.78
796.853	41.77
797.244	41.8
797.634	41.8
798.025	41.81
798.415	41.81
798.806	41.81
799.196	41.82
799.586	41.82
799.976	41.85
800.366	41.86
800.756	41.86
801.146	41.87
801.536	41.88
801.926	41.86
802.316	41.86
802.706	41.89
803.095	41.91
803.485	41.9
803.874	41.88
804.264	41.87
804.653	41.87
805.043	41.88
805.432	41.89
805.821	41.9
806.21	41.93
806.599	41.93
806.988	41.92
807.377	41.9
807.766	41.92
808.155	41.91
808.544	41.92
808.933	41.92
809.321	41.88
809.71	41.89
810.098	41.88
810.487	41.86
810.875	41.86
811.264	41.89
811.652	41.94
812.04	41.95
812.428	42
812.816	42
813.204	42.02
813.592	42.03
813.98	42.03
814.368	42.06
814.756	42.08
815.144	42.07
815.531	42.03
815.919	42.02
816.306	42.02
816.694	42
817.081	42.01
817.469	42.01
817.856	42.02
818.243	42
818.63	41.97
819.017	41.97
819.404	41.98
819.791	42.01
820.178	42.02
820.565	41.98
820.952	41.99
821.339	42
821.725	42.01
822.112	42.03
822.498	42.05
822.885	42.09
823.271	42.08
823.657	42.05
824.044	42.05
824.43	42.06
824.816	42.08
825.202	42.08
825.588	42.07
825.974	42.06
826.36	42.03
826.746	42.02
827.132	41.98
827.517	42
827.903	42.03
828.289	42.04
828.674	42.04
829.06	42.03
829.445	42.02
829.83	42
830.216	42
830.601	42.01
830.986	42.02
831.371	42.03
831.756	42.05
832.141	42.04
832.526	42.03
832.911	42.02
833.295	42.02
833.68	42.04
834.065	42.06
834.449	42.06
834.834	42.05
835.218	42.05
835.603	42.05
835.987	42.02
836.371	42
836.755	41.98
837.139	41.96
837.524	41.96
837.908	41.96
838.291	41.96
838.675	41.95
839.059	41.97
839.443	41.96
839.827	41.95
840.21	41.95
840.594	41.98
840.977	42
841.361	42.01
841.744	42.01
842.127	41.98
842.511	41.98
842.894	41.98
843.277	41.97
843.66	41.96
844.043	41.97
844.426	41.98
844.809	41.99
845.191	41.98
845.574	41.99
845.957	41.99
846.339	42.02
846.722	42.02
847.104	42.04
847.487	42.02
847.869	42.02
848.252	42.03
848.634	42.02
849.016	42.01
849.398	42.03
849.78	42.03
850.162	42.01
850.544	42
850.926	42
851.307	41.99
851.689	42
852.071	42.04
852.452	42.02
852.834	42.04
853.215	42.03
853.597	42.02
853.978	42.03
854.359	42.06
854.741	42.05
855.122	42.07
855.503	42.07
855.884	42.07
856.265	42.06
856.646	42.06
857.026	42.06
857.407	42.07
857.788	42.07
858.169	42.08
858.549	42.07
858.93	42.11
859.31	42.11
859.69	42.14
860.071	42.16
860.451	42.17
860.831	42.19
861.211	42.17
861.591	42.17
861.971	42.18
862.351	42.18
862.731	42.21
863.111	42.18
863.491	42.16
863.87	42.15
864.25	42.13
864.629	42.14
865.009	42.15
865.388	42.15
865.768	42.14
866.147	42.13
866.526	42.11
866.905	42.1
867.284	42.11
867.663	42.13
868.042	42.14
868.421	42.15
868.8	42.16
869.179	42.15
869.558	42.15
869.936	42.15
870.315	42.15
870.693	42.15
871.072	42.16
871.45	42.17
871.828	42.18
872.207	42.17
872.585	42.15
872.963	42.15
873.341	42.16
873.719	42.18
874.097	42.19
874.475	42.19
874.853	42.21
875.23	42.23
875.608	42.22
875.986	42.22
876.363	42.22
876.741	42.24
877.118	42.25
877.495	42.27
877.873	42.26
878.25	42.29
878.627	42.32
879.004	42.31
879.381	42.3
879.758	42.28
880.135	42.28
880.512	42.29
880.889	42.29
881.265	42.26
881.642	42.25
882.019	42.25
882.395	42.23
882.772	42.2
883.148	42.17
883.524	42.16
883.901	42.16
884.277	42.14
884.653	42.1
885.029	42.09
885.405	42.09
885.781	42.07
886.157	42.06
886.532	42.06
886.908	42.07
887.284	42.09
887.659	42.09
888.035	42.09
888.411	42.11
888.786	42.14
889.161	42.13
889.537	42.14
889.912	42.15
890.287	42.14
890.662	42.14
891.037	42.15
891.412	42.13
891.787	42.12
892.162	42.11
892.536	42.08
892.911	42.08
893.286	42.09
893.66	42.1
894.035	42.1
894.409	42.1
894.784	42.11
895.158	42.09
895.532	42.11
895.906	42.12
896.281	42.13
896.655	42.14
897.029	42.13
897.402	42.12
897.776	42.13
898.15	42.13
898.524	42.15
898.898	42.13
899.271	42.15
899.645	42.16
900.018	42.16
900.392	42.19
900.765	42.21
901.138	42.21
901.511	42.22
901.884	42.2
902.258	42.21
902.631	42.21
903.003	42.23
903.376	42.21
903.749	42.21
904.122	42.23
904.495	42.22
904.867	42.21
905.24	42.23
905.612	42.26
905.985	42.29
906.357	42.29
906.729	42.31
907.102	42.32
907.474	42.34
907.846	42.35
908.218	42.32
908.59	42.33
908.962	42.33
909.334	42.31
909.705	42.28
910.077	42.26
910.449	42.25
910.82	42.24
911.192	42.21
911.563	42.19
911.935	42.18
912.306	42.2
912.677	42.2
913.048	42.21
913.419	42.21
913.79	42.24
914.161	42.26
914.532	42.26
914.903	42.27
915.274	42.28
915.645	42.28
916.015	42.28
916.386	42.27
916.756	42.25
917.127	42.25
917.497	42.24
917.868	42.22
918.238	42.18
918.608	42.21
918.978	42.18
919.348	42.21
919.718	42.2
920.088	42.23
920.458	42.23
920.828	42.26
921.198	42.22
921.567	42.25
921.937	42.25
922.306	42.26
922.676	42.22
923.045	42.23
923.415	42.2
923.784	42.22
924.153	42.23
924.522	42.22
924.891	42.2
925.26	42.21
925.629	42.18
925.998	42.18
926.367	42.18
926.736	42.24
927.104	42.21
927.473	42.19
927.842	42.15
928.21	42.14
928.578	42.12
928.947	42.13
929.315	42.12
929.683	42.1
930.051	42.08
930.42	42.09
930.788	42.04
931.156	42.03
931.523	42.03
931.891	42.08
932.259	42.04
932.627	42.07
932.994	42.08
933.362	42.05
933.729	42.08
934.097	42.1
934.464	42.13
934.831	42.18
935.199	42.24
935.566	42.28
935.933	42.21
936.3	42.24
936.667	42.28
937.034	42.3
937.401	42.37
937.767	42.39
938.134	42.42
938.501	42.44
938.867	42.46
939.234	42.44
939.6	42.45
939.967	42.54
940.333	42.51
940.699	42.49
941.065	42.48
941.431	42.52
941.798	42.52
942.163	42.51
942.529	42.48
942.895	42.47
943.261	42.47
943.627	42.44
943.992	42.42
944.358	42.45
944.723	42.47
945.089	42.44
945.454	42.42
945.82	42.4
946.185	42.45
946.55	42.39
946.915	42.33
947.28	42.31
947.645	42.3
948.01	42.31
948.375	42.27
948.74	42.23
949.104	42.21
949.469	42.15
949.834	42.12
950.198	42.04
950.562	42.05
950.927	42.08
951.291	42.01
951.655	41.97
952.02	41.93
952.384	41.9
952.748	41.86
953.112	41.86
953.476	41.84
953.839	41.79
954.203	41.78
954.567	41.74
954.931	41.67
955.294	41.65
955.658	41.69
956.021	41.67
956.385	41.63
956.748	41.62
957.111	41.58
957.474	41.57
957.837	41.56
958.2	41.52
958.563	41.5
958.926	41.52
959.289	41.54
959.652	41.46
960.015	41.43
960.377	41.41
960.74	41.44
961.102	41.39
961.465	41.42
961.827	41.45
962.189	41.48
962.552	41.43
962.914	41.4
963.276	41.44
963.638	41.47
964	41.45
964.362	41.47
964.724	41.4
965.085	41.41
965.447	41.32
965.809	41.29
966.17	41.23
966.532	41.25
966.893	41.25
967.255	41.21
967.616	41.16
967.977	41.2
968.338	41.19
968.699	41.24
969.061	41.25
969.421	41.25
969.782	41.27
970.143	41.33
970.504	41.37
970.865	41.42
971.225	41.4
971.586	41.41
971.946	41.39
972.307	41.37
972.667	41.27
973.027	41.3
973.388	41.31
973.748	41.29
974.108	41.31
974.468	41.27
974.828	41.26
975.188	41.26
975.548	41.24
975.907	41.26
976.267	41.27
976.627	41.33
976.986	41.27
977.346	41.24
977.705	41.23
978.064	41.21
978.424	41.26
978.783	41.22
979.142	41.2
979.501	41.28
979.86	41.33
980.219	41.3
980.578	41.34
980.937	41.37
981.296	41.38
981.654	41.36
982.013	41.33
982.371	41.29
982.73	41.32
983.088	41.38
983.447	41.3
983.805	41.23
984.163	41.21
984.521	41.12
984.879	41.15
985.237	41.22
985.595	41.32
985.953	41.31
986.311	41.31
986.669	41.31
987.026	41.28
987.384	41.34
987.741	41.33
988.099	41.37
988.456	41.44
988.814	41.43
989.171	41.42
989.528	41.37
989.885	41.34
990.242	41.31
990.599	41.31
990.956	41.29
991.313	41.26
991.67	41.32
992.027	41.47
992.383	41.5
992.74	41.59
993.096	41.58
993.453	41.56
993.809	41.64
994.165	41.75
994.522	41.82
994.878	41.88
995.234	41.97
995.59	41.92
995.946	41.82
996.302	41.82
996.658	41.76
997.013	41.73
997.369	41.83
997.725	41.96
998.08	42.02
998.436	42.04
998.791	42.06
999.147	42
999.502	42.1
999.857	42.09
1000.212	42.05
1000.567	42.05
1000.922	42.05
1001.277	42.06
1001.632	41.89
1001.987	41.84
1002.342	41.74
1002.696	41.76
1003.051	41.95
1003.406	42
1003.76	42.01
1004.114	42.03
1004.469	42.08
1004.823	42.48
1005.177	42.45
1005.531	42.64
1005.885	42.61
1006.239	42.77
1006.593	42.88
1006.947	42.73
1007.301	42.58
1007.655	42.66
1008.008	42.7
1008.362	42.79
1008.715	42.5
1009.069	42.61
1009.422	42.51
1009.776	42.54
1010.129	42.42
1010.482	42.37
1010.835	42.48
1011.188	42.64
1011.541	42.7
1011.894	42.77
1012.247	42.81
1012.6	42.87
1012.952	42.84
1013.305	42.88
1013.657	42.94
1014.01	43.15
1014.362	43.04
1014.715	43.21
1015.067	43.18
1015.419	43.07
1015.771	43.19
1016.123	43.2
1016.475	43.26
1016.827	43.35
1017.179	43.53
1017.531	43.61
1017.883	43.48
1018.234	43.85
1018.586	43.71
1018.938	43.93
1019.289	44.07
1019.64	43.94
1019.992	43.99
1020.343	44.05
1020.694	44.03
1021.045	43.8
1021.396	43.82
1021.747	44.03
1022.098	43.77
1022.449	43.67
1022.8	43.82
1023.151	43.82
1023.501	44.07
1023.852	43.97
1024.202	43.84
1024.553	43.8
1024.903	44.26
1025.253	44.48
1025.604	44.57
1025.954	44.62
1026.304	44.75
1026.654	44.7
1027.004	44.68
1027.354	44.57
1027.703	44.56
1028.053	44.83
1028.403	45.04
1028.753	44.8
1029.102	44.82
1029.452	44.81
1029.801	45.07
1030.15	45.17
1030.499	45.05
897.758	1420.89
901.051	1429.21
904.343	1423
907.636	1449.92
910.928	1411.6
914.22	1413.74
917.511	1392.24
920.803	1335.97
924.094	1330.73
927.384	1299.91
930.675	1247.08
933.965	1239.89
937.255	1168.47
940.544	1122.2
943.834	1067.33
947.123	1058.42
950.411	993.33
953.7	975.09
956.988	920.34
960.276	884.85
963.563	868.76
966.851	837.89
970.138	829.9
973.424	802.81
976.711	806.9
979.997	768.45
983.283	763.81
986.568	748.61
989.853	726.64
993.138	713.75
996.423	686.32
999.708	667.96
1002.992	660.46
1006.275	632.35
1009.559	626.72
1012.842	604.07
1016.125	585.88
1019.408	575.88
1022.69	568.19
1025.972	555.54
1029.254	542.71
1032.536	532.49
1035.817	522.07
1039.098	514.87
1042.379	504.52
1045.659	497.87
1048.939	486.9
1052.219	478.75
1055.498	470.41
1058.778	459.29
1062.057	449.69
1065.335	444.52
1068.614	439.17
1071.892	434.41
1075.17	420.95
1078.447	412.43
1081.724	410.63
1085.001	406.83
1088.278	397.04
1091.554	389.59
1094.83	390.09
1098.106	387.18
1101.382	383.43
1104.657	380.42
1107.932	374.65
1111.206	376.34
1114.481	366.93
1117.755	362.91
1121.029	359.59
1124.302	360.65
1127.575	353.49
1130.848	349.17
1134.121	345.29
1137.393	344.11
1140.665	335.93
1143.937	334.42
1147.208	331.68
1150.48	331.01
1153.75	327.03
1157.021	322.74
1160.291	322.41
1163.561	319.25
1166.831	319.61
1170.101	317.29
1173.37	316.49
1176.639	318.53
1179.907	314.61
1183.176	311.21
1186.444	311.2
1189.711	310.53
1192.979	310.12
1196.246	307.79
1199.513	309.37
1202.78	306.77
1206.046	306.5
1209.312	303.14
1212.578	303.8
1215.843	305.9
1219.108	304.93
1222.373	310.93
1225.638	313.57
1228.902	317.78
1232.166	318.39
1235.43	320.43
1238.693	324.98
1241.956	326.47
1245.219	332.03
1248.482	331.49
1251.744	331.83
1255.006	333.04
1258.268	324.42
1261.529	321.07
1264.79	318.25
1268.051	315.79
1271.312	312.3
1274.572	308.38
1277.832	305.96
1281.092	300.88
1284.351	298.47
1287.61	298.6
1290.869	293.47
1294.128	291.94
1297.386	291.79
1300.644	289.4
1303.902	290.34
1307.159	289.17
1310.416	288.81
1313.673	288.36
1316.93	291.11
1320.186	291.68
1323.442	291.91
1326.697	297.42
1329.953	298.78
1333.208	299.93
1336.463	303.3
1339.717	303.64
1342.972	307.61
1346.226	310.06
1349.479	310.49
1352.733	312.27
1355.986	312.34
1359.238	313.05
1362.491	314.5
1365.743	317.37
1368.995	317.53
1372.247	317.25
1375.498	317.85
1378.749	320.07
1382	316.39
1385.251	318.17
1388.501	316.09
1391.751	318.91
1395	316.95
1398.25	314.48
1401.499	312.84
1404.748	312.64
1407.996	309.57
1411.244	308
1414.492	306.11
1417.74	304.18
1420.987	298.73
1424.234	298.29
1427.481	294.71
1430.728	294.88
1433.974	292.12
1437.22	289.5
1440.465	287.88
1443.711	285.67
1446.956	284.06
1450.201	279.44
1453.445	278.09
1456.689	277.37
1459.933	272.69
1463.177	270.16
1466.42	266.19
1469.663	262.87
1472.906	261.11
1476.148	255.17
1479.391	251.69
1482.633	249.16
1485.874	246.42
1489.115	243.87
1492.356	241.58
1495.597	241.61
1498.838	237.87
1502.078	236.07
1505.318	235.23
1508.557	234.86
1511.797	235.02
1515.036	233.94
1518.274	233.32
1521.513	230.44
1524.751	230.26
1527.989	229.24
1531.227	227.9
1534.464	228.32
1537.701	226.71
1540.938	226.08
1544.174	223.33
1547.41	222.96
1550.646	221.74
1553.882	221.93
1557.117	219.85
1560.352	218.33
1563.587	217.29
1566.821	216.06
1570.055	213.92
1573.289	212.34
1576.523	211.99
1579.756	210.48
1582.989	209.09
1586.222	209.31
1589.454	207.58
1592.686	209.6
1595.918	208.48
1599.15	208.02
1602.381	208.29
1605.612	208.07
1608.843	209.15
1612.073	208.86
1615.303	209.89
1618.533	209.85
1621.762	209.28
1624.992	209.45
1628.221	208.85
1631.449	208.98
1634.678	208.24
1637.906	208.71
1641.134	209.18
1644.361	208.48
1647.588	208.95
1650.815	208.2
1654.042	207.58
1657.269	208.9
1660.495	208.97
1663.72	208.15
1666.946	208.83
1670.171	209.82
1673.396	209.75
1676.621	209.46
1679.845	209.6
1683.069	209.97
1686.293	211.03
1689.517	212.41
1692.74	211.55
1695.963	212.54
1699.185	214.52
1702.408	214.64
1705.63	215.37
1708.852	215.7
1712.073	216.49
1715.294	217.15
1718.515	218.24
1721.736	217.98
1724.956	218.79
1728.176	218.94
1731.396	220.82
1734.616	219.94
1737.835	220.77
1741.054	219.56
1744.272	220.39
1747.491	222.25
1750.709	222.47
1753.927	222.28
1757.144	221.91
1760.361	222.42
1763.578	223.04
1766.795	222.35
1770.011	223.95
1773.227	223.97
1776.443	226.52
1779.658	227.53
1782.874	226.69
1786.089	227.78
1789.303	228.61
1792.518	231.02
1795.732	230.97
1798.945	233.42
1802.159	233.39
1805.372	234.02
1808.585	237.85
1811.797	238.95
1815.01	238.99
1818.222	241.08
1821.434	242.73
1824.645	243.53
1827.856	247.7
1831.067	249.47
1834.278	248.52
1837.488	250.28
1840.698	252.2
1843.908	249.85
1847.117	251.07
1850.326	252.44
1853.535	252.43
1856.744	256.22
1859.952	256.05
1863.16	254.45
1866.368	252.65
1869.575	255.97
1872.782	251.34
1875.989	251.03
1879.196	250.36
1882.402	248
1885.608	248.92
1888.814	249.23
1892.019	248.16
1895.224	247.21
1898.429	246.16
1901.634	247.56
1904.838	247.51
1908.042	251.11
1911.246	250.81
1914.449	252.17
1917.652	252.55
1920.855	252.53
1924.058	251.42
1927.26	250.16
1930.462	251.28
1933.664	254.34
1936.865	252.63
1940.066	251.72
1943.267	250.34
1946.467	250.49
1949.668	252.24
1952.868	255.23
1956.067	254.79
1959.267	256.32
1962.466	257.12
1965.665	255.34
1968.863	255.79
1972.061	259.46
1975.259	261.82
1978.457	264.18
1981.654	266.35
1984.852	266.35
1988.048	265.81
1991.245	268.4
1994.441	270.82
1997.637	272.8
2000.833	278.95
2004.028	282.24
2007.223	283.09
2010.418	285.75
2013.613	290.86
2016.807	293.81
2020.001	297.17
2023.194	301.16
2026.388	308.25
2029.581	314.42
2032.774	318.38
2035.966	323.49
2039.158	323.78
2042.35	330.15
2045.542	333.42
2048.733	338.22
2051.924	342.66
2055.115	347.88
2058.306	349.03
2061.496	352.6
2064.686	352.65
2067.875	358.4
2071.065	360.99
2074.254	359.14
2077.442	363.57
2080.631	364.15
2083.819	367.4
2087.007	368.29
2090.195	372.83
2093.382	376.26
2096.569	373.14
2099.756	379.07
2102.942	379.01
2106.128	382.5
2109.314	391.64
2112.5	389.73
2115.685	400
2118.87	400.27
2122.055	409.14
2125.239	411.95
2128.424	416.48
2131.608	421.03
2134.791	426.51
2137.974	429.03
2141.157	429.24
2144.34	430.36
2147.523	438.11
2150.705	433.09
2153.887	437.53
2157.068	437.24
2160.25	432.85
2163.431	435.75
2166.611	439.02
2169.792	448.22
2172.972	451.2
2176.152	454.57
2179.331	461.2
2182.511	467.92
2185.69	473.45
2188.868	483.36
2192.047	484.23
2195.225	498.93
2198.403	511.2
2201.58	520.92
2204.758	530.31
2207.935	543.64
2211.111	553.98
2214.288	559.64
2217.464	561.19
2220.64	568.85
2223.815	575.78
2226.991	600.53
2230.166	600.56
2233.34	610.99
2236.515	621.59
2239.689	620.94
2242.863	623.33
2246.036	641
2249.209	634.52
2252.382	646.57
2255.555	667.79
2258.727	669.86
2261.9	671.81
2265.071	679.49
2268.243	690.11
2271.414	697.28
2274.585	712.66
2277.756	721.37
2280.926	726.25
2284.096	744.12
2287.266	760.92
2290.436	766.47
2293.605	783.98
2296.774	807.65
2299.942	833.19
2303.111	838.27
2306.279	857.57
2309.447	870.85
2312.614	891.3
2315.781	914.51
2318.948	957.94
2322.115	941.46
2325.281	990.06
2328.447	971.6
2331.613	1012.33
2334.779	1000.48
2337.944	1042.43
2341.109	1051.92
2344.274	1080
2347.438	1118.39
2350.602	1116.89
2353.766	1154.63
2356.929	1171.18
2360.092	1161.94
2363.255	1243.58
2366.418	1238.46
2369.58	1264.19
2372.742	1344.96
2375.904	1378.82
2379.066	1370.31
2382.227	1342.35
2385.388	1458.39
2388.548	1455.72
2391.709	1477.38
2394.869	1644.54
2398.029	1577.48
2401.188	1625.33
2404.347	1614.76
2407.506	1585.25
2410.665	1632.61
2413.823	1728.96
2416.981	1831.58
2420.139	1773.24
2423.296	1751.94
2426.453	1824.21
2429.61	1759.99
2432.767	1839.39
2435.923	1815.71
2439.079	1983.99
2442.235	2014.4
2445.391	1992.06
2448.546	1976.2
2451.701	1921.41
2454.855	1917.75
2458.009	2042.6
2461.163	2119.67
2464.317	2197.13
2467.471	2256.2
2470.624	2259.78
2473.777	2194.2
2476.929	2137.01
2480.082	2077.47
2483.234	2055.85
2486.385	2159.65
2489.537	2170.44
2492.688	2246.89
2495.839	2192.48
2498.989	2142.17
2502.14	2148.65
2505.29	2171
2508.439	2214.39
2511.589	2206.2
2514.738	2405.97
2517.887	2353.83
2521.035	2497.6
2524.183	2517.51
2527.331	2530.29
2530.479	2520.65
2533.627	2543.04
