Data from C_2_DEC_ON_6N_Splice17_13-17-22-947.txt Node
Date: Sat Mar 07 13:17:22 EST 2020
User: sa697716
Spectrometer: NQ5500242
Trigger mode: 0
Integration Time (sec): 1.450000E-1
Scans to average: 20
Nonlinearity correction enabled: false
Boxcar width: 5
Storing dark spectrum: false
XAxis mode: Wavelengths
Number of Pixels in Spectrum: 512
>>>>>Begin Spectral Data<<<<<
187.83	155.07
188.298	164.27
188.766	120.16
189.233	110.6
189.701	114.52
190.169	132.68
190.636	156.05
191.104	297.58
191.571	69.46
192.039	70.11
192.506	-69.11
192.974	53.88
193.441	105.95
193.908	-64.42
194.375	44.33
194.842	-3.21
195.31	43.14
195.777	129.45
196.244	56.61
196.711	44.7
197.177	46.57
197.644	45.49
198.111	46.02
198.578	45.98
199.045	47.07
199.511	46.54
199.978	46.76
200.445	46.82
200.911	46.9
201.378	47.16
201.844	47.29
202.31	46.89
202.777	47.07
203.243	46.86
203.709	46.73
204.176	45.87
204.642	45.7
205.108	45.65
205.574	45.43
206.04	44.73
206.506	44.21
206.972	43.93
207.438	43.47
207.903	42.82
208.369	42.13
208.835	41.29
209.301	40.47
209.766	39.17
210.232	37.84
210.697	36.55
211.163	35.93
211.628	35.05
212.094	33.94
212.559	33.27
213.024	32.44
213.49	31.63
213.955	31
214.42	30.39
214.885	29.61
215.35	28.57
215.815	27.13
216.28	25.27
216.745	23.19
217.21	21.3
217.675	19.37
218.14	17.66
218.604	16.15
219.069	14.89
219.534	13.85
219.998	13.01
220.463	12.32
220.927	11.7
221.392	11.2
221.856	10.8
222.32	10.42
222.785	10.13
223.249	9.89
223.713	9.68
224.177	9.48
224.642	9.28
225.106	9.08
225.57	8.89
226.034	8.74
226.497	8.57
226.961	8.42
227.425	8.27
227.889	8.13
228.353	7.99
228.816	7.84
229.28	7.69
229.744	7.58
230.207	7.46
230.671	7.33
231.134	7.21
231.597	7.13
232.061	7.03
232.524	6.93
232.987	6.82
233.45	6.75
233.914	6.67
234.377	6.58
234.84	6.49
235.303	6.43
235.766	6.37
236.229	6.3
236.691	6.22
237.154	6.15
237.617	6.09
238.08	6.04
238.542	5.97
239.005	5.91
239.468	5.86
239.93	5.81
240.393	5.74
240.855	5.67
241.317	5.61
241.78	5.54
242.242	5.47
242.704	5.42
243.166	5.36
243.629	5.31
244.091	5.25
244.553	5.2
245.015	5.14
245.477	5.08
245.939	5.04
246.4	5
246.862	4.97
247.324	4.93
247.786	4.88
248.247	4.84
248.709	4.78
249.17	4.73
249.632	4.7
250.093	4.66
250.555	4.62
251.016	4.58
251.477	4.53
251.939	4.49
252.4	4.46
252.861	4.42
253.322	4.39
253.783	4.36
254.244	4.34
254.705	4.3
255.166	4.27
255.627	4.24
256.088	4.23
256.549	4.2
257.009	4.16
257.47	4.13
257.931	4.09
258.391	4.06
258.852	4.02
259.312	3.99
259.773	3.95
260.233	3.93
260.694	3.9
261.154	3.86
261.614	3.83
262.074	3.8
262.534	3.77
262.994	3.75
263.455	3.73
263.915	3.7
264.374	3.68
264.834	3.66
265.294	3.63
265.754	3.61
266.214	3.59
266.673	3.58
267.133	3.57
267.593	3.55
268.052	3.54
268.512	3.53
268.971	3.53
269.431	3.52
269.89	3.5
270.349	3.49
270.809	3.47
271.268	3.46
271.727	3.45
272.186	3.43
272.645	3.42
273.104	3.41
273.563	3.4
274.022	3.38
274.481	3.37
274.94	3.36
275.399	3.35
275.857	3.35
276.316	3.33
276.775	3.32
277.233	3.32
277.692	3.31
278.15	3.31
278.609	3.31
279.067	3.3
279.525	3.3
279.984	3.29
280.442	3.29
280.9	3.29
281.358	3.29
281.816	3.29
282.274	3.29
282.732	3.29
283.19	3.28
283.648	3.27
284.106	3.26
284.564	3.26
285.021	3.26
285.479	3.26
285.937	3.25
286.394	3.25
286.852	3.24
287.309	3.24
287.767	3.22
288.224	3.21
288.682	3.2
289.139	3.19
289.596	3.17
290.053	3.15
290.511	3.13
290.968	3.11
291.425	3.1
291.882	3.08
292.339	3.06
292.796	3.05
293.252	3.04
293.709	3.03
294.166	3.02
294.623	3.01
295.079	3.01
295.536	3
295.992	2.99
296.449	2.98
296.905	2.97
297.362	2.97
297.818	2.96
298.274	2.96
298.731	2.95
299.187	2.94
299.643	2.93
300.099	2.93
300.555	2.93
301.011	2.92
301.467	2.92
301.923	2.91
302.379	2.91
302.835	2.91
303.291	2.91
303.746	2.9
304.202	2.91
304.658	2.91
305.113	2.91
305.569	2.91
306.024	2.91
306.479	2.91
306.935	2.91
307.39	2.91
307.845	2.91
308.301	2.91
308.756	2.92
309.211	2.91
309.666	2.93
310.121	2.93
310.576	2.93
311.031	2.93
311.486	2.93
311.94	2.94
312.395	2.93
312.85	2.94
313.305	2.93
313.759	2.93
314.214	2.93
314.668	2.91
315.123	2.91
315.577	2.91
316.032	2.91
316.486	2.9
316.94	2.9
317.394	2.89
317.849	2.87
318.303	2.87
318.757	2.85
319.211	2.84
319.665	2.83
320.119	2.82
320.572	2.8
321.026	2.8
321.48	2.79
321.934	2.77
322.387	2.77
322.841	2.76
323.295	2.76
323.748	2.77
324.202	2.76
324.655	2.76
325.108	2.77
325.562	2.76
326.015	2.76
326.468	2.76
326.921	2.76
327.374	2.77
327.827	2.76
328.28	2.76
328.733	2.75
329.186	2.75
329.639	2.75
330.092	2.74
330.545	2.74
330.997	2.74
331.45	2.74
331.903	2.75
332.355	2.75
332.808	2.75
333.26	2.75
333.713	2.75
334.165	2.75
334.617	2.75
335.069	2.75
335.522	2.75
335.974	2.76
336.426	2.75
336.878	2.74
337.33	2.73
337.782	2.73
338.234	2.74
338.686	2.74
339.137	2.75
339.589	2.74
340.041	2.74
340.493	2.73
340.944	2.71
341.396	2.7
341.847	2.7
342.299	2.69
342.75	2.68
343.201	2.66
343.653	2.65
344.104	2.62
344.555	2.61
345.006	2.6
345.457	2.59
345.908	2.58
346.359	2.58
346.81	2.57
347.261	2.57
347.712	2.56
348.163	2.56
348.613	2.56
349.064	2.57
349.515	2.57
349.965	2.57
350.416	2.57
350.866	2.56
351.317	2.55
351.767	2.56
352.217	2.56
352.668	2.56
353.118	2.56
353.568	2.55
354.018	2.56
354.468	2.56
354.918	2.57
355.368	2.57
355.818	2.57
356.268	2.58
356.718	2.58
357.168	2.58
357.617	2.58
358.067	2.58
358.517	2.6
358.966	2.61
359.416	2.61
359.865	2.61
360.315	2.63
360.764	2.63
361.213	2.64
361.663	2.64
362.112	2.65
362.561	2.66
363.01	2.66
363.459	2.65
363.908	2.66
364.357	2.66
364.806	2.66
365.255	2.67
365.703	2.68
366.152	2.7
366.601	2.71
367.05	2.72
367.498	2.73
367.947	2.74
368.395	2.75
368.844	2.77
369.292	2.77
369.74	2.8
370.189	2.81
370.637	2.82
371.085	2.82
371.533	2.83
371.981	2.84
372.429	2.86
372.877	2.88
373.325	2.9
373.773	2.91
374.221	2.93
374.669	2.95
375.116	2.96
375.564	2.98
376.012	3
376.459	3.02
376.907	3.04
377.354	3.06
377.801	3.08
378.249	3.1
378.696	3.12
379.143	3.15
379.591	3.17
380.038	3.2
380.485	3.22
380.932	3.25
381.379	3.28
381.826	3.3
382.273	3.33
382.72	3.34
383.166	3.37
383.613	3.4
384.06	3.42
384.506	3.44
384.953	3.47
385.4	3.5
385.846	3.52
386.292	3.54
386.739	3.57
387.185	3.58
387.631	3.61
388.078	3.63
388.524	3.65
388.97	3.68
389.416	3.71
389.862	3.74
390.308	3.76
390.754	3.8
391.2	3.82
391.645	3.85
392.091	3.89
392.537	3.92
392.983	3.93
393.428	3.96
393.874	3.99
394.319	4
394.765	4.01
395.21	4.03
395.655	4.04
396.101	4.07
396.546	4.08
396.991	4.1
397.436	4.12
397.881	4.15
398.326	4.17
398.771	4.2
399.216	4.2
399.661	4.23
400.106	4.24
400.551	4.25
400.995	4.25
401.44	4.26
401.885	4.26
402.329	4.27
402.774	4.26
403.218	4.28
403.663	4.28
404.107	4.28
404.551	4.28
404.995	4.29
405.44	4.28
405.884	4.28
406.328	4.29
406.772	4.28
407.216	4.28
407.66	4.28
408.104	4.25
408.547	4.26
408.991	4.26
409.435	4.26
409.879	4.26
410.322	4.28
410.766	4.29
411.209	4.28
411.653	4.29
412.096	4.3
412.54	4.3
412.983	4.31
413.426	4.33
413.869	4.34
414.312	4.36
414.756	4.36
415.199	4.36
415.642	4.36
416.085	4.37
416.527	4.37
416.97	4.36
417.413	4.35
417.856	4.35
418.298	4.33
418.741	4.33
419.184	4.31
419.626	4.29
420.069	4.29
420.511	4.28
420.953	4.28
421.396	4.29
421.838	4.3
422.28	4.31
422.722	4.32
423.164	4.33
423.606	4.33
424.048	4.34
424.49	4.34
424.932	4.34
425.374	4.32
425.816	4.29
426.258	4.26
426.699	4.25
427.141	4.24
427.582	4.24
428.024	4.24
428.465	4.25
428.907	4.23
429.348	4.23
429.789	4.22
430.231	4.25
430.672	4.28
431.113	4.31
431.554	4.33
431.995	4.34
432.436	4.35
432.877	4.36
433.318	4.37
433.759	4.4
434.2	4.43
434.64	4.46
435.081	4.46
435.522	4.48
435.962	4.5
436.403	4.53
436.843	4.56
437.284	4.56
437.724	4.57
438.164	4.58
438.604	4.59
439.045	4.59
439.485	4.6
439.925	4.61
440.365	4.61
440.805	4.62
441.245	4.63
441.685	4.65
442.125	4.68
442.564	4.7
443.004	4.71
443.444	4.73
443.883	4.77
444.323	4.78
444.762	4.8
445.202	4.83
445.641	4.84
446.081	4.86
446.52	4.86
446.959	4.88
447.398	4.92
447.837	4.95
448.276	4.96
448.716	4.97
449.154	5.01
449.593	5.04
450.032	5.04
450.471	5.04
450.91	5.03
451.349	5.06
451.787	5.04
452.226	5.03
452.664	5.02
453.103	5.02
453.541	5.01
453.98	5.01
454.418	4.99
454.856	4.99
455.295	4.98
455.733	4.98
456.171	4.96
456.609	4.97
457.047	4.96
457.485	4.96
457.923	4.96
458.361	4.96
458.798	4.95
459.236	4.95
459.674	4.95
460.111	4.96
460.549	4.97
460.987	4.98
461.424	4.98
461.862	5
462.299	5
462.736	5.01
463.173	5.01
463.611	5.02
464.048	5.03
464.485	5.04
464.922	5.04
465.359	5.05
465.796	5.07
466.233	5.07
466.67	5.07
467.106	5.09
467.543	5.08
467.98	5.08
468.416	5.06
468.853	5.05
469.29	5.05
469.726	5.04
470.162	5.03
470.599	5.01
471.035	5.01
471.471	5
471.907	4.99
472.344	4.99
472.78	4.99
473.216	4.99
473.652	4.99
474.088	4.98
474.523	4.98
474.959	4.97
475.395	4.95
475.831	4.94
476.266	4.94
476.702	4.92
477.138	4.93
477.573	4.92
478.008	4.92
478.444	4.9
478.879	4.91
479.314	4.9
479.75	4.9
480.185	4.91
480.62	4.9
481.055	4.89
481.49	4.89
481.925	4.89
482.36	4.89
482.795	4.89
483.229	4.9
483.664	4.9
484.099	4.9
484.534	4.9
484.968	4.91
485.403	4.93
485.837	4.95
486.271	4.97
486.706	4.97
487.14	4.99
487.574	5.01
488.009	5.03
488.443	5.06
488.877	5.08
489.311	5.12
489.745	5.14
490.179	5.18
490.613	5.21
491.046	5.25
491.48	5.3
491.914	5.35
492.348	5.4
492.781	5.46
493.215	5.52
493.648	5.59
494.082	5.65
494.515	5.71
494.948	5.78
495.382	5.86
495.815	5.93
496.248	6.01
496.681	6.1
497.114	6.18
497.547	6.26
497.98	6.36
498.413	6.44
498.846	6.55
499.279	6.66
499.711	6.76
500.144	6.88
500.577	6.99
501.009	7.11
501.442	7.23
501.874	7.38
502.306	7.52
502.739	7.67
503.171	7.83
503.603	7.98
504.036	8.14
504.468	8.31
504.9	8.47
505.332	8.65
505.764	8.84
506.196	9.04
506.627	9.24
507.059	9.44
507.491	9.64
507.923	9.86
508.354	10.09
508.786	10.33
509.217	10.57
509.649	10.82
510.08	11.06
510.512	11.32
510.943	11.57
511.374	11.82
511.805	12.09
512.237	12.37
512.668	12.63
513.099	12.9
513.53	13.17
513.961	13.45
514.391	13.73
514.822	14.02
515.253	14.29
515.684	14.58
516.114	14.89
516.545	15.17
516.975	15.47
517.406	15.77
517.836	16.06
518.267	16.36
518.697	16.65
519.127	16.94
519.558	17.23
519.988	17.52
520.418	17.79
520.848	18.06
521.278	18.34
521.708	18.68
522.138	18.93
522.567	19.19
522.997	19.44
523.427	19.71
523.857	19.94
524.286	20.17
524.716	20.41
525.145	20.64
525.575	20.87
526.004	21.08
526.433	21.22
526.863	21.42
527.292	21.61
527.721	21.79
528.15	21.95
528.579	22.11
529.008	22.29
529.437	22.43
529.866	22.57
530.295	22.7
530.724	22.82
531.152	22.94
531.581	23.07
532.01	23.18
532.438	23.29
532.867	23.41
533.295	23.5
533.723	23.6
534.152	23.69
534.58	23.77
535.008	23.84
535.436	23.93
535.865	24
536.293	24.05
536.721	24.11
537.149	24.17
537.576	24.22
538.004	24.29
538.432	24.33
538.86	24.38
539.287	24.42
539.715	24.46
540.143	24.49
540.57	24.53
540.998	24.58
541.425	24.61
541.852	24.64
542.28	24.67
542.707	24.68
543.134	24.7
543.561	24.74
543.988	24.77
544.415	24.79
544.842	24.81
545.269	24.84
545.696	24.87
546.123	24.89
546.549	24.92
546.976	24.96
547.403	24.99
547.829	25.01
548.256	25.02
548.682	25.03
549.108	25.06
549.535	25.08
549.961	25.08
550.387	25.09
550.813	25.09
551.24	25.07
551.666	25.05
552.092	25.04
552.518	25.04
552.943	25.02
553.369	25
553.795	24.97
554.221	24.94
554.646	24.92
555.072	24.87
555.498	24.82
555.923	24.8
556.349	24.75
556.774	24.69
557.199	24.62
557.625	24.54
558.05	24.46
558.475	24.38
558.9	24.28
559.325	24.19
559.75	24.1
560.175	24.01
560.6	23.88
561.025	23.77
561.449	23.65
561.874	23.54
562.299	23.42
562.723	23.31
563.148	23.18
563.572	23.04
563.997	22.88
564.421	22.75
564.846	22.6
565.27	22.46
565.694	22.32
566.118	22.18
566.542	22.03
566.966	21.88
567.39	21.72
567.814	21.57
568.238	21.41
568.662	21.26
569.086	21.11
569.509	20.96
569.933	20.81
570.357	20.66
570.78	20.51
571.204	20.36
571.627	20.23
572.05	20.09
572.474	19.96
572.897	19.86
573.32	19.73
573.743	19.61
574.166	19.49
574.589	19.36
575.012	19.25
575.435	19.14
575.858	19.03
576.281	18.91
576.704	18.81
577.126	18.7
577.549	18.59
577.972	18.48
578.394	18.39
578.817	18.29
579.239	18.2
579.661	18.11
580.084	18.01
580.506	17.93
580.928	17.86
581.35	17.79
581.772	17.7
582.194	17.61
582.616	17.54
583.038	17.45
583.46	17.38
583.882	17.3
584.303	17.23
584.725	17.15
585.147	17.09
585.568	17.02
585.99	16.95
586.411	16.89
586.833	16.83
587.254	16.76
587.675	16.7
588.096	16.63
588.518	16.57
588.939	16.51
589.36	16.46
589.781	16.4
590.202	16.36
590.623	16.3
591.043	16.25
591.464	16.2
591.885	16.14
592.305	16.09
592.726	16.06
593.147	16.02
593.567	15.96
593.987	15.91
594.408	15.86
594.828	15.79
595.248	15.74
595.669	15.71
596.089	15.68
596.509	15.64
596.929	15.61
597.349	15.54
597.769	15.5
598.189	15.46
598.608	15.43
599.028	15.4
599.448	15.36
599.867	15.32
600.287	15.27
600.706	15.22
601.126	15.17
601.545	15.13
601.965	15.1
602.384	15.07
602.803	15.02
603.222	14.98
603.641	14.92
604.061	14.88
604.48	14.84
604.898	14.78
605.317	14.73
605.736	14.67
606.155	14.62
606.574	14.56
606.992	14.51
607.411	14.45
607.829	14.36
608.248	14.29
608.666	14.23
609.085	14.16
609.503	14.11
609.921	14.05
610.339	13.99
610.758	13.92
611.176	13.86
611.594	13.78
612.012	13.72
612.43	13.68
612.847	13.62
613.265	13.55
613.683	13.49
614.101	13.43
614.518	13.36
614.936	13.3
615.353	13.23
615.771	13.17
616.188	13.11
616.606	13.06
617.023	13.01
617.44	12.96
617.857	12.9
618.274	12.85
618.691	12.8
619.108	12.76
619.525	12.73
619.942	12.69
620.359	12.65
620.776	12.63
621.192	12.59
621.609	12.56
622.026	12.54
622.442	12.53
622.859	12.51
623.275	12.49
623.691	12.48
624.108	12.47
624.524	12.45
624.94	12.44
625.356	12.44
625.772	12.43
626.188	12.41
626.604	12.4
627.02	12.4
627.436	12.39
627.852	12.4
628.268	12.39
628.683	12.36
629.099	12.36
629.514	12.34
629.93	12.32
630.345	12.3
630.761	12.26
631.176	12.21
631.591	12.16
632.007	12.11
632.422	12.03
632.837	11.96
633.252	11.9
633.667	11.8
634.082	11.72
634.497	11.64
634.911	11.54
635.326	11.45
635.741	11.34
636.155	11.21
636.57	11.11
636.984	10.99
637.399	10.86
637.813	10.72
638.228	10.57
638.642	10.43
639.056	10.26
639.47	10.12
639.884	9.97
640.298	9.81
640.712	9.67
641.126	9.51
641.54	9.36
641.954	9.2
642.368	9.06
642.781	8.93
643.195	8.8
643.609	8.67
644.022	8.55
644.436	8.44
644.849	8.32
645.262	8.21
645.676	8.12
646.089	8.03
646.502	7.95
646.915	7.88
647.328	7.81
647.741	7.75
648.154	7.7
648.567	7.64
648.98	7.6
649.393	7.57
649.805	7.54
650.218	7.51
650.631	7.48
651.043	7.45
651.456	7.42
651.868	7.4
652.28	7.37
652.693	7.35
653.105	7.33
653.517	7.3
653.929	7.27
654.341	7.24
654.753	7.2
655.165	7.16
655.577	7.12
655.989	7.08
656.401	7.03
656.813	6.98
657.224	6.92
657.636	6.86
658.047	6.8
658.459	6.73
658.87	6.66
659.282	6.6
659.693	6.53
660.104	6.46
660.515	6.38
660.926	6.31
661.338	6.24
661.749	6.17
662.159	6.1
662.57	6.05
662.981	5.99
663.392	5.93
663.803	5.87
664.213	5.82
664.624	5.78
665.035	5.74
665.445	5.71
665.855	5.66
666.266	5.64
666.676	5.62
667.086	5.58
667.497	5.56
667.907	5.54
668.317	5.53
668.727	5.52
669.137	5.51
669.547	5.5
669.956	5.48
670.366	5.48
670.776	5.48
671.186	5.49
671.595	5.49
672.005	5.5
672.414	5.52
672.824	5.54
673.233	5.56
673.642	5.58
674.052	5.6
674.461	5.63
674.87	5.67
675.279	5.71
675.688	5.74
676.097	5.79
676.506	5.84
676.915	5.89
677.323	5.94
677.732	5.99
678.141	6.05
678.549	6.11
678.958	6.18
679.366	6.26
679.775	6.33
680.183	6.42
680.592	6.52
681	6.64
681.408	6.76
681.816	6.9
682.224	7.05
682.632	7.21
683.04	7.39
683.448	7.59
683.856	7.79
684.264	8.03
684.671	8.29
685.079	8.56
685.487	8.86
685.894	9.19
686.302	9.54
686.709	9.91
687.116	10.31
687.524	10.74
687.931	11.19
688.338	11.67
688.745	12.18
689.152	12.7
689.559	13.25
689.966	13.83
690.373	14.41
690.78	15.01
691.187	15.64
691.593	16.27
692	16.9
692.407	17.55
692.813	18.23
693.22	18.87
693.626	19.53
694.032	20.2
694.439	20.86
694.845	21.52
695.251	22.18
695.657	22.82
696.063	23.48
696.469	24.12
696.875	24.78
697.281	25.4
697.687	26.04
698.093	26.67
698.498	27.28
698.904	27.91
699.31	28.51
699.715	29.1
700.12	29.69
700.526	30.25
700.931	30.82
701.337	31.36
701.742	31.87
702.147	32.39
702.552	32.9
702.957	33.37
703.362	33.83
703.767	34.27
704.172	34.71
704.577	35.15
704.981	35.6
705.386	36.01
705.791	36.41
706.195	36.83
706.6	37.24
707.004	37.62
707.408	38.01
707.813	38.41
708.217	38.79
708.621	39.15
709.025	39.48
709.43	39.81
709.834	40.16
710.237	40.51
710.641	40.83
711.045	41.13
711.449	41.46
711.853	41.78
712.256	42.06
712.66	42.34
713.064	42.63
713.467	42.92
713.87	43.19
714.274	43.45
714.677	43.72
715.08	43.98
715.484	44.24
715.887	44.49
716.29	44.71
716.693	44.97
717.096	45.22
717.499	45.47
717.901	45.71
718.304	45.96
718.707	46.19
719.109	46.4
719.512	46.61
719.915	46.83
720.317	47.01
720.719	47.2
721.122	47.38
721.524	47.57
721.926	47.73
722.328	47.92
722.731	48.05
723.133	48.23
723.535	48.38
723.937	48.56
724.338	48.7
724.74	48.84
725.142	49.07
725.544	49.21
725.945	49.38
726.347	49.46
726.748	49.57
727.15	49.7
727.551	49.81
727.952	49.9
728.354	49.99
728.755	50.09
729.156	50.18
729.557	50.17
729.958	50.24
730.359	50.3
730.76	50.44
731.161	50.53
731.562	50.64
731.962	50.66
732.363	50.78
732.763	50.82
733.164	50.9
733.564	50.97
733.965	51.02
734.365	51.09
734.766	51.13
735.166	51.17
735.566	51.19
735.966	51.23
736.366	51.3
736.766	51.32
737.166	51.4
737.566	51.45
737.966	51.49
738.365	51.54
738.765	51.6
739.165	51.66
739.564	51.68
739.964	51.73
740.363	51.72
740.763	51.77
741.162	51.8
741.561	51.79
741.96	51.81
742.36	51.85
742.759	51.88
743.158	51.87
743.557	51.87
743.955	51.9
744.354	51.94
744.753	51.99
745.152	52
745.55	52.01
745.949	52.06
746.348	52.06
746.746	52.03
747.144	52.04
747.543	52.04
747.941	52.05
748.339	52.03
748.737	52
749.136	51.98
749.534	51.97
749.932	51.97
750.33	51.96
750.727	51.98
751.125	52.04
751.523	52.02
751.921	52.04
752.318	52.05
752.716	52.08
753.113	52.12
753.511	52.14
753.908	52.17
754.305	52.18
754.703	52.16
755.1	52.17
755.497	52.14
755.894	52.15
756.291	52.15
756.688	52.14
757.085	52.16
757.482	52.15
757.878	52.17
758.275	52.16
758.672	52.16
759.068	52.19
759.465	52.17
759.861	52.19
760.258	52.19
760.654	52.19
761.05	52.19
761.447	52.19
761.843	52.16
762.239	52.12
762.635	52.11
763.031	52.11
763.427	52.08
763.822	52.08
764.218	52.06
764.614	52.07
765.01	52.04
765.405	52.06
765.801	52.02
766.196	52.03
766.592	52.02
766.987	52.01
767.382	51.99
767.778	51.99
768.173	52
768.568	51.97
768.963	51.96
769.358	51.98
769.753	51.94
770.148	51.96
770.542	51.94
770.937	51.93
771.332	51.97
771.726	51.99
772.121	51.96
772.515	51.94
772.91	51.96
773.304	51.97
773.699	51.96
774.093	51.96
774.487	51.94
774.881	51.98
775.275	51.99
775.669	51.95
776.063	51.92
776.457	51.94
776.851	51.92
777.245	51.88
777.638	51.85
778.032	51.85
778.425	51.89
778.819	51.89
779.212	51.87
779.606	51.87
779.999	51.88
780.392	51.89
780.786	51.86
781.179	51.9
781.572	51.97
781.965	51.97
782.358	51.97
782.751	51.94
783.143	51.93
783.536	51.96
783.929	51.94
784.322	51.98
784.714	52
785.107	52.03
785.499	52.02
785.891	52.01
786.284	52.02
786.676	52.04
787.068	52.05
787.46	52.05
787.852	52.04
788.245	52.06
788.636	52.02
789.028	52.02
789.42	51.99
789.812	52
790.204	52
790.595	51.97
790.987	51.98
791.378	52.01
791.77	52.01
792.161	51.99
792.553	51.98
792.944	51.98
793.335	51.99
793.726	52.01
794.117	52
794.508	51.97
794.899	51.98
795.29	51.96
795.681	51.91
796.072	51.91
796.463	51.95
796.853	51.91
797.244	51.92
797.634	51.91
798.025	51.93
798.415	51.96
798.806	51.98
799.196	52
799.586	52.01
799.976	52.06
800.366	52.05
800.756	52.04
801.146	52.09
801.536	52.1
801.926	52.08
802.316	52.09
802.706	52.09
803.095	52.11
803.485	52.11
803.874	52.1
804.264	52.1
804.653	52.13
805.043	52.13
805.432	52.14
805.821	52.14
806.21	52.15
806.599	52.13
806.988	52.12
807.377	52.1
807.766	52.08
808.155	52.09
808.544	52.06
808.933	52.06
809.321	52.02
809.71	51.99
810.098	51.98
810.487	51.96
810.875	51.96
811.264	51.96
811.652	51.96
812.04	51.95
812.428	51.98
812.816	51.96
813.204	51.95
813.592	51.96
813.98	51.97
814.368	51.98
814.756	51.99
815.144	51.98
815.531	51.97
815.919	51.98
816.306	51.98
816.694	51.96
817.081	51.96
817.469	51.98
817.856	52
818.243	51.96
818.63	51.94
819.017	51.93
819.404	51.91
819.791	51.91
820.178	51.89
820.565	51.89
820.952	51.87
821.339	51.88
821.725	51.88
822.112	51.86
822.498	51.9
822.885	51.93
823.271	51.95
823.657	51.95
824.044	51.98
824.43	52
824.816	52.02
825.202	52
825.588	52
825.974	52
826.36	52.01
826.746	52
827.132	52
827.517	52.02
827.903	52.04
828.289	52.03
828.674	52.02
829.06	52
829.445	52.02
829.83	52.01
830.216	52.02
830.601	52.01
830.986	52.02
831.371	52
831.756	51.99
832.141	51.97
832.526	51.97
832.911	51.96
833.295	51.99
833.68	52.01
834.065	52.02
834.449	52.01
834.834	52
835.218	51.99
835.603	51.98
835.987	51.97
836.371	51.98
836.755	51.94
837.139	51.93
837.524	51.93
837.908	51.92
838.291	51.94
838.675	51.94
839.059	51.94
839.443	51.92
839.827	51.91
840.21	51.9
840.594	51.89
840.977	51.9
841.361	51.92
841.744	51.87
842.127	51.86
842.511	51.82
842.894	51.8
843.277	51.78
843.66	51.77
844.043	51.77
844.426	51.76
844.809	51.76
845.191	51.79
845.574	51.77
845.957	51.77
846.339	51.78
846.722	51.78
847.104	51.81
847.487	51.84
847.869	51.85
848.252	51.89
848.634	51.91
849.016	51.93
849.398	51.94
849.78	51.94
850.162	51.94
850.544	51.93
850.926	51.94
851.307	51.92
851.689	51.91
852.071	51.92
852.452	51.91
852.834	51.9
853.215	51.87
853.597	51.86
853.978	51.86
854.359	51.88
854.741	51.89
855.122	51.89
855.503	51.87
855.884	51.84
856.265	51.82
856.646	51.81
857.026	51.82
857.407	51.85
857.788	51.83
858.169	51.84
858.549	51.81
858.93	51.79
859.31	51.79
859.69	51.8
860.071	51.84
860.451	51.85
860.831	51.87
861.211	51.86
861.591	51.83
861.971	51.83
862.351	51.85
862.731	51.87
863.111	51.87
863.491	51.88
863.87	51.88
864.25	51.88
864.629	51.9
865.009	51.89
865.388	51.89
865.768	51.89
866.147	51.91
866.526	51.89
866.905	51.91
867.284	51.92
867.663	51.9
868.042	51.9
868.421	51.9
868.8	51.87
869.179	51.89
869.558	51.9
869.936	51.9
870.315	51.89
870.693	51.92
871.072	51.91
871.45	51.89
871.828	51.91
872.207	51.91
872.585	51.89
872.963	51.94
873.341	51.92
873.719	51.91
874.097	51.94
874.475	51.93
874.853	51.91
875.23	51.93
875.608	51.96
875.986	51.99
876.363	52.01
876.741	52.02
877.118	51.98
877.495	51.98
877.873	52
878.25	52.02
878.627	52.05
879.004	52.07
879.381	52.08
879.758	52.02
880.135	52
880.512	51.99
880.889	52
881.265	52
881.642	52.01
882.019	52
882.395	51.96
882.772	51.93
883.148	51.89
883.524	51.85
883.901	51.88
884.277	51.86
884.653	51.82
885.029	51.8
885.405	51.82
885.781	51.8
886.157	51.79
886.532	51.79
886.908	51.76
887.284	51.77
887.659	51.75
888.035	51.74
888.411	51.71
888.786	51.74
889.161	51.75
889.537	51.75
889.912	51.74
890.287	51.73
890.662	51.73
891.037	51.75
891.412	51.74
891.787	51.73
892.162	51.72
892.536	51.73
892.911	51.71
893.286	51.7
893.66	51.67
894.035	51.67
894.409	51.65
894.784	51.67
895.158	51.65
895.532	51.65
895.906	51.63
896.281	51.64
896.655	51.63
897.029	51.66
897.402	51.65
897.776	51.67
898.15	51.67
898.524	51.7
898.898	51.68
899.271	51.68
899.645	51.68
900.018	51.74
900.392	51.76
900.765	51.79
901.138	51.78
901.511	51.77
901.884	51.78
902.258	51.78
902.631	51.79
903.003	51.81
903.376	51.83
903.749	51.82
904.122	51.81
904.495	51.81
904.867	51.82
905.24	51.84
905.612	51.88
905.985	51.87
906.357	51.87
906.729	51.87
907.102	51.88
907.474	51.89
907.846	51.9
908.218	51.9
908.59	51.91
908.962	51.9
909.334	51.9
909.705	51.91
910.077	51.93
910.449	51.95
910.82	51.92
911.192	51.92
911.563	51.9
911.935	51.92
912.306	51.92
912.677	51.95
913.048	51.97
913.419	51.97
913.79	51.95
914.161	51.94
914.532	51.93
914.903	51.96
915.274	51.94
915.645	51.96
916.015	51.93
916.386	51.94
916.756	51.9
917.127	51.9
917.497	51.91
917.868	51.94
918.238	51.93
918.608	51.94
918.978	51.94
919.348	51.98
919.718	51.98
920.088	52
920.458	52.01
920.828	52.03
921.198	52.01
921.567	52.01
921.937	51.99
922.306	51.99
922.676	52
923.045	51.99
923.415	51.96
923.784	51.97
924.153	51.98
924.522	51.99
924.891	51.97
925.26	51.96
925.629	51.96
925.998	51.95
926.367	51.94
926.736	51.91
927.104	51.9
927.473	51.86
927.842	51.8
928.21	51.77
928.578	51.75
928.947	51.77
929.315	51.77
929.683	51.77
930.051	51.76
930.42	51.76
930.788	51.77
931.156	51.76
931.523	51.79
931.891	51.85
932.259	51.87
932.627	51.87
932.994	51.86
933.362	51.85
933.729	51.84
934.097	51.85
934.464	51.89
934.831	51.9
935.199	51.94
935.566	51.93
935.933	51.87
936.3	51.87
936.667	51.85
937.034	51.89
937.401	51.92
937.767	51.95
938.134	51.96
938.501	51.94
938.867	51.92
939.234	51.92
939.6	51.9
939.967	51.93
940.333	51.9
940.699	51.96
941.065	51.87
941.431	51.84
941.798	51.8
942.163	51.75
942.529	51.71
942.895	51.72
943.261	51.64
943.627	51.68
943.992	51.74
944.358	51.71
944.723	51.63
945.089	51.59
945.454	51.61
945.82	51.61
946.185	51.61
946.55	51.55
946.915	51.48
947.28	51.51
947.645	51.5
948.01	51.43
948.375	51.45
948.74	51.42
949.104	51.41
949.469	51.32
949.834	51.22
950.198	51.22
950.562	51.23
950.927	51.23
951.291	51.14
951.655	51.05
952.02	51.01
952.384	50.95
952.748	50.96
953.112	50.95
953.476	50.93
953.839	50.96
954.203	50.94
954.567	50.91
954.931	50.83
955.294	50.86
955.658	50.93
956.021	50.97
956.385	50.93
956.748	50.88
957.111	50.81
957.474	50.83
957.837	50.76
958.2	50.73
958.563	50.74
958.926	50.76
959.289	50.77
959.652	50.75
960.015	50.67
960.377	50.66
960.74	50.7
961.102	50.77
961.465	50.8
961.827	50.89
962.189	50.93
962.552	50.91
962.914	50.92
963.276	50.95
963.638	50.95
964	50.99
964.362	51.04
964.724	51.04
965.085	51
965.447	50.94
965.809	50.92
966.17	50.87
966.532	50.91
966.893	50.95
967.255	50.89
967.616	50.82
967.977	50.83
968.338	50.84
968.699	50.78
969.061	50.78
969.421	50.84
969.782	50.88
970.143	50.91
970.504	50.88
970.865	50.89
971.225	50.93
971.586	50.98
971.946	50.97
972.307	50.93
972.667	50.93
973.027	51.02
973.388	51.01
973.748	50.99
974.108	51.05
974.468	51.09
974.828	51.09
975.188	51.08
975.548	51.02
975.907	51.05
976.267	51.08
976.627	51.11
976.986	51
977.346	50.92
977.705	50.94
978.064	50.9
978.424	50.88
978.783	50.81
979.142	50.83
979.501	50.89
979.86	50.91
980.219	50.92
980.578	51.01
980.937	51.07
981.296	51.03
981.654	50.98
982.013	51
982.371	50.98
982.73	51.04
983.088	50.96
983.447	50.96
983.805	50.93
984.163	50.9
984.521	50.77
984.879	50.7
985.237	50.76
985.595	50.86
985.953	50.85
986.311	50.86
986.669	50.89
987.026	50.97
987.384	51
987.741	50.96
988.099	51.01
988.456	51.04
988.814	51.15
989.171	51.19
989.528	51.12
989.885	51.05
990.242	50.96
990.599	50.91
990.956	50.91
991.313	50.92
991.67	51.07
992.027	51.09
992.383	51.18
992.74	51.2
993.096	51.23
993.453	51.17
993.809	51.29
994.165	51.39
994.522	51.48
994.878	51.55
995.234	51.49
995.59	51.38
995.946	51.32
996.302	51.28
996.658	51.27
997.013	51.22
997.369	51.25
997.725	51.27
998.08	51.38
998.436	51.35
998.791	51.29
999.147	51.3
999.502	51.35
999.857	51.41
1000.212	51.32
1000.567	51.21
1000.922	51.24
1001.277	51.27
1001.632	51.21
1001.987	51.11
1002.342	51.06
1002.696	51.1
1003.051	51.22
1003.406	51.35
1003.76	51.35
1004.114	51.42
1004.469	51.56
1004.823	51.84
1005.177	51.87
1005.531	51.93
1005.885	51.9
1006.239	51.97
1006.593	52.04
1006.947	52.02
1007.301	51.73
1007.655	51.65
1008.008	51.76
1008.362	51.8
1008.715	51.62
1009.069	51.61
1009.422	51.61
1009.776	51.68
1010.129	51.79
1010.482	51.56
1010.835	51.67
1011.188	51.86
1011.541	51.76
1011.894	51.7
1012.247	51.64
1012.6	51.55
1012.952	51.61
1013.305	51.75
1013.657	51.83
1014.01	51.74
1014.362	51.9
1014.715	51.92
1015.067	51.97
1015.419	52.23
1015.771	52.24
1016.123	52.4
1016.475	52.57
1016.827	52.63
1017.179	52.58
1017.531	52.53
1017.883	52.65
1018.234	52.73
1018.586	52.77
1018.938	52.95
1019.289	52.8
1019.64	52.8
1019.992	52.64
1020.343	52.59
1020.694	52.52
1021.045	52.67
1021.396	52.81
1021.747	52.79
1022.098	52.84
1022.449	52.7
1022.8	52.6
1023.151	52.85
1023.501	52.93
1023.852	52.99
1024.202	52.95
1024.553	52.62
1024.903	52.39
1025.253	52.36
1025.604	52.25
1025.954	52.07
1026.304	52.17
1026.654	52.19
1027.004	52.18
1027.354	52.03
1027.703	51.94
1028.053	51.83
1028.403	52.37
1028.753	52.31
1029.102	52.15
1029.452	52.01
1029.801	52.03
1030.15	51.85
1030.499	51.64
897.758	1333.1
901.051	1338.53
904.343	1336.54
907.636	1361.5
910.928	1321.79
914.22	1327.12
917.511	1305.5
920.803	1249.1
924.094	1247.38
927.384	1220.65
930.675	1172.47
933.965	1165.72
937.255	1096.66
940.544	1053.51
943.834	1000.35
947.123	993.8
950.411	931.74
953.7	914.44
956.988	866.21
960.276	829.66
963.563	816.72
966.851	786.12
970.138	779.6
973.424	756.12
976.711	759.93
979.997	725.04
983.283	720.78
986.568	706.02
989.853	684.35
993.138	673.18
996.423	645.47
999.708	627.35
1002.992	621.43
1006.275	592.83
1009.559	587.84
1012.842	565.76
1016.125	550.32
1019.408	540.99
1022.69	534.53
1025.972	522.47
1029.254	509.85
1032.536	503.08
1035.817	491.2
1039.098	484.67
1042.379	476.49
1045.659	471.23
1048.939	460.12
1052.219	451.1
1055.498	443.9
1058.778	433.62
1062.057	424.12
1065.335	419.96
1068.614	414.17
1071.892	411.5
1075.17	397.73
1078.447	389.68
1081.724	387.1
1085.001	384.45
1088.278	377.17
1091.554	369.39
1094.83	369.47
1098.106	367.96
1101.382	363.94
1104.657	362.81
1107.932	356.4
1111.206	359.43
1114.481	350.12
1117.755	346.67
1121.029	343.6
1124.302	342.16
1127.575	336.51
1130.848	332.17
1134.121	328.22
1137.393	326.48
1140.665	318.72
1143.937	316.77
1147.208	314.24
1150.48	313.53
1153.75	310.36
1157.021	306.21
1160.291	306.48
1163.561	303.21
1166.831	303.56
1170.101	301.32
1173.37	300.78
1176.639	301.64
1179.907	298.98
1183.176	296.03
1186.444	296.25
1189.711	295.06
1192.979	294.76
1196.246	292.59
1199.513	293.45
1202.78	290.63
1206.046	290.88
1209.312	287.58
1212.578	288.08
1215.843	290.35
1219.108	288.06
1222.373	293.96
1225.638	296.25
1228.902	299.45
1232.166	300.14
1235.43	302.71
1238.693	307.15
1241.956	308.01
1245.219	314.11
1248.482	312.93
1251.744	312.81
1255.006	314.7
1258.268	305.76
1261.529	302.53
1264.79	300.85
1268.051	298.87
1271.312	295.66
1274.572	291.61
1277.832	289.41
1281.092	283.91
1284.351	282.41
1287.61	282.27
1290.869	277.86
1294.128	276.73
1297.386	277.45
1300.644	273.65
1303.902	274.35
1307.159	273.6
1310.416	274.05
1313.673	273.96
1316.93	276.85
1320.186	276.87
1323.442	277.42
1326.697	282.3
1329.953	282.84
1333.208	283.12
1336.463	287.39
1339.717	288.21
1342.972	290.06
1346.226	293.15
1349.479	293.38
1352.733	295.16
1355.986	296.31
1359.238	296.34
1362.491	297.74
1365.743	300.98
1368.995	300.65
1372.247	299.32
1375.498	299.26
1378.749	302.09
1382	298.12
1385.251	298.29
1388.501	296.75
1391.751	297.92
1395	296.48
1398.25	293.62
1401.499	291.77
1404.748	291.56
1407.996	289.79
1411.244	287.83
1414.492	285.69
1417.74	282.9
1420.987	278.96
1424.234	278
1427.481	273.71
1430.728	272.76
1433.974	270.31
1437.22	267.55
1440.465	266.92
1443.711	263.83
1446.956	262.56
1450.201	259.36
1453.445	256.9
1456.689	256.29
1459.933	251.17
1463.177	249.54
1466.42	245.39
1469.663	242.8
1472.906	241.57
1476.148	235.17
1479.391	232.6
1482.633	230.36
1485.874	226.45
1489.115	224.84
1492.356	222.8
1495.597	222.71
1498.838	219.4
1502.078	218.61
1505.318	217.59
1508.557	217.26
1511.797	217.72
1515.036	216.24
1518.274	215.76
1521.513	214.88
1524.751	214.66
1527.989	213.89
1531.227	212.97
1534.464	213.71
1537.701	212.17
1540.938	211.52
1544.174	209.18
1547.41	208.34
1550.646	207.45
1553.882	207.34
1557.117	204.68
1560.352	203.38
1563.587	202.49
1566.821	201.39
1570.055	199.71
1573.289	197.98
1576.523	197.73
1579.756	196.32
1582.989	195.53
1586.222	195.65
1589.454	194.44
1592.686	196.15
1595.918	195.1
1599.15	194.7
1602.381	195.14
1605.612	194.85
1608.843	195.9
1612.073	195.72
1615.303	197.16
1618.533	196.74
1621.762	196.35
1624.992	196.38
1628.221	195.91
1631.449	195.93
1634.678	195.61
1637.906	196.18
1641.134	196.06
1644.361	195.64
1647.588	196.5
1650.815	195.15
1654.042	194.83
1657.269	196.33
1660.495	196.62
1663.72	196
1666.946	197.01
1670.171	197.49
1673.396	196.95
1676.621	197.31
1679.845	197.82
1683.069	196.98
1686.293	198.93
1689.517	200.24
1692.74	199.44
1695.963	200.06
1699.185	202.11
1702.408	201.6
1705.63	202.22
1708.852	202.68
1712.073	203.33
1715.294	203.64
1718.515	205.43
1721.736	204.39
1724.956	204.77
1728.176	205.03
1731.396	206.85
1734.616	205.31
1737.835	206.69
1741.054	205.33
1744.272	206.13
1747.491	207.64
1750.709	207.49
1753.927	207.06
1757.144	206.9
1760.361	207.5
1763.578	207.87
1766.795	206.85
1770.011	209.09
1773.227	208.85
1776.443	211.42
1779.658	212.32
1782.874	211.75
1786.089	212.82
1789.303	213.42
1792.518	215.37
1795.732	215.46
1798.945	217.53
1802.159	217.98
1805.372	218.38
1808.585	222.34
1811.797	222.83
1815.01	223.08
1818.222	224.6
1821.434	226.37
1824.645	227.26
1827.856	231.42
1831.067	232.99
1834.278	232.14
1837.488	233.82
1840.698	235.32
1843.908	232.82
1847.117	233.98
1850.326	235.11
1853.535	234.82
1856.744	237.48
1859.952	237.14
1863.16	234.99
1866.368	233.46
1869.575	236.31
1872.782	232.55
1875.989	230.91
1879.196	230.3
1882.402	228.8
1885.608	229.44
1888.814	229.44
1892.019	229.03
1895.224	228.42
1898.429	227.37
1901.634	229.13
1904.838	228.8
1908.042	231.45
1911.246	232.96
1914.449	234.27
1917.652	234.11
1920.855	234.43
1924.058	234.03
1927.26	232.89
1930.462	234.37
1933.664	237.1
1936.865	235.18
1940.066	234.37
1943.267	233.48
1946.467	232.74
1949.668	234.33
1952.868	236.92
1956.067	236.51
1959.267	237.28
1962.466	238.03
1965.665	236.57
1968.863	236.7
1972.061	240.37
1975.259	242.8
1978.457	244.56
1981.654	246.84
1984.852	246.83
1988.048	246.37
1991.245	249.04
1994.441	251.16
1997.637	253.26
2000.833	258.16
2004.028	262.1
2007.223	262.29
2010.418	265.05
2013.613	269.6
2016.807	272.71
2020.001	274.72
2023.194	279.94
2026.388	285.31
2029.581	292.35
2032.774	294.58
2035.966	300.15
2039.158	300.33
2042.35	306.78
2045.542	308.96
2048.733	314.04
2051.924	317.47
2055.115	323.97
2058.306	323.6
2061.496	327.28
2064.686	327.17
2067.875	333.52
2071.065	334.61
2074.254	333.16
2077.442	336.66
2080.631	338.24
2083.819	341
2087.007	341.74
2090.195	345.17
2093.382	348.67
2096.569	346.3
2099.756	351.54
2102.942	352.09
2106.128	355.34
2109.314	364.39
2112.5	363.39
2115.685	370.48
2118.87	371.11
2122.055	378.56
2125.239	381.79
2128.424	385.65
2131.608	389.47
2134.791	394.42
2137.974	396.29
2141.157	397.44
2144.34	397.51
2147.523	403.78
2150.705	401.85
2153.887	405.47
2157.068	407.09
2160.25	403.77
2163.431	405.98
2166.611	410.17
2169.792	418.12
2172.972	423.19
2176.152	425.95
2179.331	431.45
2182.511	438.83
2185.69	443.54
2188.868	452.83
2192.047	452.8
2195.225	465.57
2198.403	478.88
2201.58	487.5
2204.758	495.33
2207.935	506.12
2211.111	514.52
2214.288	519.78
2217.464	520.85
2220.64	529.48
2223.815	536.14
2226.991	560.64
2230.166	561.03
2233.34	568.32
2236.515	576.52
2239.689	579.86
2242.863	581.26
2246.036	598.42
2249.209	595.5
2252.382	606.47
2255.555	624.02
2258.727	626.87
2261.9	628.85
2265.071	635.2
2268.243	645.41
2271.414	654.76
2274.585	668.18
2277.756	675.74
2280.926	682.52
2284.096	697.06
2287.266	712.49
2290.436	716.87
2293.605	733.62
2296.774	754.76
2299.942	778.62
2303.111	783.39
2306.279	799.63
2309.447	811.51
2312.614	832.02
2315.781	851.53
2318.948	894.07
2322.115	878.95
2325.281	927.54
2328.447	908.43
2331.613	943.52
2334.779	932.65
2337.944	976.48
2341.109	985.4
2344.274	1009.59
2347.438	1045.55
2350.602	1048.73
2353.766	1077.12
2356.929	1094.71
2360.092	1087.42
2363.255	1165.93
2366.418	1164.13
2369.58	1190.45
2372.742	1259.3
2375.904	1293.03
2379.066	1287.27
2382.227	1259.73
2385.388	1364.68
2388.548	1368.21
2391.709	1384.67
2394.869	1540.98
2398.029	1474.97
2401.188	1516.56
2404.347	1503.7
2407.506	1477.31
2410.665	1522.49
2413.823	1612.77
2416.981	1713.07
2420.139	1656.64
2423.296	1637.78
2426.453	1704.35
2429.61	1640.23
2432.767	1714.97
2435.923	1700.53
2439.079	1861.25
2442.235	1885.54
2445.391	1866.18
2448.546	1851.82
2451.701	1796.74
2454.855	1792.26
2458.009	1900.32
2461.163	1987.25
2464.317	2058.6
2467.471	2109.63
2470.624	2108.18
2473.777	2058.04
2476.929	2005.1
2480.082	1946.47
2483.234	1924.8
2486.385	2026.49
2489.537	2037.39
2492.688	2119.11
2495.839	2051.27
2498.989	2006.34
2502.14	2019.37
2505.29	2040.66
2508.439	2070.25
2511.589	2068.28
2514.738	2254.05
2517.887	2206.38
2521.035	2327.28
2524.183	2358.16
2527.331	2367.6
2530.479	2366.21
2533.627	2387.87
