Data from C_2_DEC_ON_6N_Splice17_13-17-06-163.txt Node
Date: Sat Mar 07 13:17:06 EST 2020
User: sa697716
Spectrometer: NQ5500242
Trigger mode: 0
Integration Time (sec): 1.450000E-1
Scans to average: 20
Nonlinearity correction enabled: false
Boxcar width: 5
Storing dark spectrum: false
XAxis mode: Wavelengths
Number of Pixels in Spectrum: 512
>>>>>Begin Spectral Data<<<<<
187.83	196.24
188.298	218.01
188.766	176.62
189.233	146.68
189.701	154.09
190.169	186.14
190.636	192.53
191.104	240.51
191.571	-220.41
192.039	-130.75
192.506	-192.2
192.974	128.66
193.441	178.83
193.908	30.36
194.375	27.17
194.842	7.68
195.31	94.01
195.777	178.17
196.244	54.83
196.711	42.44
197.177	45.43
197.644	44.81
198.111	43.87
198.578	44.6
199.045	44.39
199.511	44.69
199.978	44.67
200.445	44.75
200.911	44.88
201.378	44.7
201.844	44.65
202.31	44.28
202.777	44.18
203.243	44.34
203.709	43.98
204.176	43.81
204.642	43.32
205.108	43.12
205.574	42.7
206.04	41.82
206.506	41.68
206.972	41.59
207.438	41.32
207.903	40.83
208.369	40.16
208.835	39.38
209.301	38.37
209.766	37.23
210.232	36.16
210.697	34.96
211.163	34.27
211.628	33.29
212.094	32.24
212.559	31.39
213.024	30.56
213.49	29.88
213.955	29.02
214.42	28.45
214.885	27.61
215.35	26.43
215.815	25.18
216.28	23.35
216.745	21.4
217.21	19.4
217.675	17.58
218.14	16.14
218.604	14.72
219.069	13.63
219.534	12.67
219.998	11.88
220.463	11.28
220.927	10.68
221.392	10.24
221.856	9.86
222.32	9.54
222.785	9.28
223.249	9
223.713	8.78
224.177	8.59
224.642	8.39
225.106	8.2
225.57	8
226.034	7.84
226.497	7.69
226.961	7.54
227.425	7.41
227.889	7.28
228.353	7.15
228.816	7.02
229.28	6.89
229.744	6.77
230.207	6.67
230.671	6.57
231.134	6.47
231.597	6.39
232.061	6.3
232.524	6.21
232.987	6.13
233.45	6.07
233.914	5.98
234.377	5.89
234.84	5.81
235.303	5.74
235.766	5.68
236.229	5.62
236.691	5.54
237.154	5.49
237.617	5.43
238.08	5.37
238.542	5.3
239.005	5.26
239.468	5.22
239.93	5.16
240.393	5.13
240.855	5.07
241.317	5.02
241.78	4.96
242.242	4.9
242.704	4.86
243.166	4.81
243.629	4.77
244.091	4.71
244.553	4.66
245.015	4.62
245.477	4.56
245.939	4.52
246.4	4.47
246.862	4.43
247.324	4.39
247.786	4.34
248.247	4.29
248.709	4.24
249.17	4.18
249.632	4.15
250.093	4.13
250.555	4.09
251.016	4.06
251.477	4.03
251.939	4
252.4	3.98
252.861	3.95
253.322	3.93
253.783	3.91
254.244	3.89
254.705	3.85
255.166	3.82
255.627	3.79
256.088	3.76
256.549	3.74
257.009	3.71
257.47	3.67
257.931	3.64
258.391	3.61
258.852	3.58
259.312	3.55
259.773	3.52
260.233	3.51
260.694	3.48
261.154	3.45
261.614	3.42
262.074	3.39
262.534	3.38
262.994	3.35
263.455	3.33
263.915	3.31
264.374	3.28
264.834	3.27
265.294	3.24
265.754	3.22
266.214	3.21
266.673	3.19
267.133	3.18
267.593	3.16
268.052	3.15
268.512	3.14
268.971	3.13
269.431	3.13
269.89	3.11
270.349	3.11
270.809	3.1
271.268	3.09
271.727	3.08
272.186	3.07
272.645	3.06
273.104	3.05
273.563	3.04
274.022	3.03
274.481	3.02
274.94	3.01
275.399	2.99
275.857	2.99
276.316	2.98
276.775	2.97
277.233	2.97
277.692	2.96
278.15	2.95
278.609	2.95
279.067	2.95
279.525	2.95
279.984	2.95
280.442	2.94
280.9	2.94
281.358	2.94
281.816	2.94
282.274	2.93
282.732	2.93
283.19	2.92
283.648	2.91
284.106	2.9
284.564	2.89
285.021	2.89
285.479	2.89
285.937	2.88
286.394	2.89
286.852	2.88
287.309	2.87
287.767	2.86
288.224	2.84
288.682	2.83
289.139	2.83
289.596	2.82
290.053	2.8
290.511	2.79
290.968	2.78
291.425	2.76
291.882	2.75
292.339	2.75
292.796	2.74
293.252	2.73
293.709	2.72
294.166	2.71
294.623	2.71
295.079	2.7
295.536	2.7
295.992	2.69
296.449	2.69
296.905	2.68
297.362	2.67
297.818	2.66
298.274	2.66
298.731	2.66
299.187	2.65
299.643	2.64
300.099	2.64
300.555	2.63
301.011	2.62
301.467	2.62
301.923	2.61
302.379	2.62
302.835	2.62
303.291	2.61
303.746	2.61
304.202	2.61
304.658	2.61
305.113	2.61
305.569	2.61
306.024	2.61
306.479	2.6
306.935	2.61
307.39	2.6
307.845	2.6
308.301	2.6
308.756	2.61
309.211	2.6
309.666	2.61
310.121	2.61
310.576	2.62
311.031	2.62
311.486	2.62
311.94	2.62
312.395	2.62
312.85	2.62
313.305	2.63
313.759	2.63
314.214	2.63
314.668	2.62
315.123	2.62
315.577	2.61
316.032	2.61
316.486	2.6
316.94	2.59
317.394	2.58
317.849	2.57
318.303	2.57
318.757	2.56
319.211	2.56
319.665	2.55
320.119	2.53
320.572	2.53
321.026	2.52
321.48	2.51
321.934	2.51
322.387	2.5
322.841	2.51
323.295	2.5
323.748	2.49
324.202	2.48
324.655	2.48
325.108	2.48
325.562	2.48
326.015	2.48
326.468	2.48
326.921	2.48
327.374	2.47
327.827	2.47
328.28	2.46
328.733	2.46
329.186	2.46
329.639	2.46
330.092	2.46
330.545	2.46
330.997	2.45
331.45	2.46
331.903	2.46
332.355	2.47
332.808	2.47
333.26	2.47
333.713	2.46
334.165	2.45
334.617	2.46
335.069	2.45
335.522	2.45
335.974	2.46
336.426	2.46
336.878	2.45
337.33	2.46
337.782	2.45
338.234	2.46
338.686	2.46
339.137	2.47
339.589	2.46
340.041	2.47
340.493	2.46
340.944	2.44
341.396	2.43
341.847	2.43
342.299	2.41
342.75	2.4
343.201	2.4
343.653	2.39
344.104	2.37
344.555	2.36
345.006	2.35
345.457	2.34
345.908	2.34
346.359	2.34
346.81	2.34
347.261	2.34
347.712	2.34
348.163	2.33
348.613	2.33
349.064	2.34
349.515	2.33
349.965	2.34
350.416	2.33
350.866	2.34
351.317	2.33
351.767	2.33
352.217	2.33
352.668	2.33
353.118	2.34
353.568	2.33
354.018	2.34
354.468	2.35
354.918	2.36
355.368	2.37
355.818	2.37
356.268	2.37
356.718	2.37
357.168	2.37
357.617	2.37
358.067	2.37
358.517	2.39
358.966	2.39
359.416	2.39
359.865	2.39
360.315	2.39
360.764	2.4
361.213	2.4
361.663	2.41
362.112	2.42
362.561	2.43
363.01	2.44
363.459	2.43
363.908	2.43
364.357	2.43
364.806	2.44
365.255	2.45
365.703	2.46
366.152	2.48
366.601	2.49
367.05	2.5
367.498	2.51
367.947	2.52
368.395	2.54
368.844	2.55
369.292	2.56
369.74	2.58
370.189	2.6
370.637	2.61
371.085	2.61
371.533	2.62
371.981	2.64
372.429	2.66
372.877	2.68
373.325	2.69
373.773	2.69
374.221	2.7
374.669	2.72
375.116	2.73
375.564	2.75
376.012	2.77
376.459	2.8
376.907	2.82
377.354	2.84
377.801	2.86
378.249	2.88
378.696	2.91
379.143	2.94
379.591	2.96
380.038	2.98
380.485	3.01
380.932	3.03
381.379	3.05
381.826	3.07
382.273	3.09
382.72	3.11
383.166	3.13
383.613	3.16
384.06	3.17
384.506	3.19
384.953	3.21
385.4	3.23
385.846	3.26
386.292	3.29
386.739	3.31
387.185	3.34
387.631	3.37
388.078	3.39
388.524	3.42
388.97	3.45
389.416	3.49
389.862	3.51
390.308	3.55
390.754	3.58
391.2	3.6
391.645	3.62
392.091	3.65
392.537	3.68
392.983	3.7
393.428	3.73
393.874	3.75
394.319	3.78
394.765	3.79
395.21	3.8
395.655	3.81
396.101	3.83
396.546	3.84
396.991	3.86
397.436	3.87
397.881	3.89
398.326	3.9
398.771	3.91
399.216	3.92
399.661	3.93
400.106	3.95
400.551	3.96
400.995	3.95
401.44	3.97
401.885	3.97
402.329	3.98
402.774	3.99
403.218	4.01
403.663	4.02
404.107	4.02
404.551	4.03
404.995	4.03
405.44	4.02
405.884	4.04
406.328	4.04
406.772	4.04
407.216	4.04
407.66	4.02
408.104	4
408.547	4.01
408.991	4.02
409.435	4.01
409.879	4.02
410.322	4.03
410.766	4.04
411.209	4.05
411.653	4.06
412.096	4.07
412.54	4.08
412.983	4.1
413.426	4.12
413.869	4.12
414.312	4.13
414.756	4.15
415.199	4.14
415.642	4.13
416.085	4.13
416.527	4.13
416.97	4.12
417.413	4.11
417.856	4.11
418.298	4.09
418.741	4.08
419.184	4.08
419.626	4.06
420.069	4.08
420.511	4.08
420.953	4.07
421.396	4.08
421.838	4.07
422.28	4.07
422.722	4.08
423.164	4.09
423.606	4.1
424.048	4.09
424.49	4.09
424.932	4.08
425.374	4.06
425.816	4.04
426.258	4.02
426.699	4.02
427.141	4.01
427.582	4.01
428.024	4.02
428.465	4.01
428.907	4
429.348	4
429.789	4
430.231	4.02
430.672	4.04
431.113	4.05
431.554	4.06
431.995	4.08
432.436	4.09
432.877	4.09
433.318	4.12
433.759	4.14
434.2	4.16
434.64	4.19
435.081	4.19
435.522	4.23
435.962	4.26
436.403	4.29
436.843	4.3
437.284	4.29
437.724	4.3
438.164	4.3
438.604	4.31
439.045	4.32
439.485	4.31
439.925	4.32
440.365	4.3
440.805	4.3
441.245	4.32
441.685	4.35
442.125	4.37
442.564	4.38
443.004	4.39
443.444	4.4
443.883	4.42
444.323	4.44
444.762	4.46
445.202	4.48
445.641	4.5
446.081	4.51
446.52	4.51
446.959	4.55
447.398	4.58
447.837	4.61
448.276	4.63
448.716	4.65
449.154	4.67
449.593	4.71
450.032	4.72
450.471	4.73
450.91	4.73
451.349	4.75
451.787	4.74
452.226	4.73
452.664	4.72
453.103	4.72
453.541	4.73
453.98	4.73
454.418	4.7
454.856	4.7
455.295	4.68
455.733	4.66
456.171	4.65
456.609	4.66
457.047	4.65
457.485	4.65
457.923	4.65
458.361	4.65
458.798	4.64
459.236	4.65
459.674	4.64
460.111	4.65
460.549	4.67
460.987	4.67
461.424	4.66
461.862	4.67
462.299	4.68
462.736	4.68
463.173	4.67
463.611	4.67
464.048	4.67
464.485	4.67
464.922	4.67
465.359	4.67
465.796	4.68
466.233	4.68
466.67	4.68
467.106	4.68
467.543	4.68
467.98	4.68
468.416	4.68
468.853	4.68
469.29	4.68
469.726	4.69
470.162	4.68
470.599	4.67
471.035	4.66
471.471	4.66
471.907	4.64
472.344	4.64
472.78	4.65
473.216	4.65
473.652	4.64
474.088	4.63
474.523	4.63
474.959	4.62
475.395	4.6
475.831	4.6
476.266	4.59
476.702	4.58
477.138	4.57
477.573	4.57
478.008	4.56
478.444	4.55
478.879	4.57
479.314	4.55
479.75	4.55
480.185	4.54
480.62	4.54
481.055	4.53
481.49	4.53
481.925	4.54
482.36	4.53
482.795	4.53
483.229	4.53
483.664	4.54
484.099	4.54
484.534	4.54
484.968	4.56
485.403	4.58
485.837	4.59
486.271	4.62
486.706	4.63
487.14	4.65
487.574	4.67
488.009	4.69
488.443	4.71
488.877	4.73
489.311	4.77
489.745	4.8
490.179	4.84
490.613	4.88
491.046	4.91
491.48	4.95
491.914	5
492.348	5.04
492.781	5.1
493.215	5.15
493.648	5.21
494.082	5.26
494.515	5.31
494.948	5.37
495.382	5.43
495.815	5.5
496.248	5.58
496.681	5.66
497.114	5.74
497.547	5.82
497.98	5.91
498.413	6
498.846	6.09
499.279	6.19
499.711	6.29
500.144	6.39
500.577	6.51
501.009	6.62
501.442	6.73
501.874	6.86
502.306	6.99
502.739	7.13
503.171	7.27
503.603	7.42
504.036	7.58
504.468	7.73
504.9	7.89
505.332	8.05
505.764	8.24
506.196	8.41
506.627	8.6
507.059	8.8
507.491	8.99
507.923	9.19
508.354	9.39
508.786	9.62
509.217	9.84
509.649	10.07
510.08	10.31
510.512	10.54
510.943	10.77
511.374	11
511.805	11.23
512.237	11.48
512.668	11.74
513.099	12
513.53	12.25
513.961	12.51
514.391	12.79
514.822	13.07
515.253	13.35
515.684	13.63
516.114	13.92
516.545	14.21
516.975	14.5
517.406	14.79
517.836	15.07
518.267	15.37
518.697	15.64
519.127	15.9
519.558	16.17
519.988	16.44
520.418	16.7
520.848	16.96
521.278	17.22
521.708	17.52
522.138	17.76
522.567	18
522.997	18.25
523.427	18.49
523.857	18.73
524.286	18.95
524.716	19.16
525.145	19.38
525.575	19.6
526.004	19.8
526.433	19.94
526.863	20.14
527.292	20.34
527.721	20.51
528.15	20.67
528.579	20.84
529.008	21.01
529.437	21.15
529.866	21.3
530.295	21.44
530.724	21.57
531.152	21.7
531.581	21.81
532.01	21.9
532.438	22.02
532.867	22.13
533.295	22.21
533.723	22.3
534.152	22.38
534.58	22.47
535.008	22.53
535.436	22.61
535.865	22.68
536.293	22.73
536.721	22.79
537.149	22.85
537.576	22.9
538.004	22.96
538.432	23.01
538.86	23.06
539.287	23.1
539.715	23.14
540.143	23.17
540.57	23.21
540.998	23.24
541.425	23.29
541.852	23.33
542.28	23.36
542.707	23.38
543.134	23.4
543.561	23.43
543.988	23.46
544.415	23.47
544.842	23.49
545.269	23.52
545.696	23.54
546.123	23.56
546.549	23.58
546.976	23.61
547.403	23.63
547.829	23.64
548.256	23.66
548.682	23.67
549.108	23.71
549.535	23.71
549.961	23.72
550.387	23.71
550.813	23.71
551.24	23.69
551.666	23.67
552.092	23.66
552.518	23.66
552.943	23.64
553.369	23.63
553.795	23.6
554.221	23.57
554.646	23.53
555.072	23.51
555.498	23.47
555.923	23.42
556.349	23.36
556.774	23.3
557.199	23.24
557.625	23.17
558.05	23.1
558.475	23.03
558.9	22.97
559.325	22.88
559.75	22.79
560.175	22.7
560.6	22.6
561.025	22.5
561.449	22.39
561.874	22.25
562.299	22.14
562.723	22
563.148	21.88
563.572	21.72
563.997	21.6
564.421	21.45
564.846	21.32
565.27	21.17
565.694	21.03
566.118	20.89
566.542	20.75
566.966	20.6
567.39	20.47
567.814	20.32
568.238	20.18
568.662	20.03
569.086	19.89
569.509	19.75
569.933	19.61
570.357	19.48
570.78	19.34
571.204	19.22
571.627	19.09
572.05	18.95
572.474	18.85
572.897	18.73
573.32	18.61
573.743	18.48
574.166	18.36
574.589	18.24
575.012	18.11
575.435	18
575.858	17.89
576.281	17.78
576.704	17.68
577.126	17.56
577.549	17.47
577.972	17.37
578.394	17.28
578.817	17.2
579.239	17.12
579.661	17.04
580.084	16.96
580.506	16.88
580.928	16.8
581.35	16.73
581.772	16.65
582.194	16.57
582.616	16.5
583.038	16.42
583.46	16.34
583.882	16.27
584.303	16.2
584.725	16.13
585.147	16.05
585.568	15.98
585.99	15.92
586.411	15.85
586.833	15.79
587.254	15.73
587.675	15.66
588.096	15.61
588.518	15.56
588.939	15.5
589.36	15.45
589.781	15.39
590.202	15.35
590.623	15.31
591.043	15.26
591.464	15.21
591.885	15.16
592.305	15.13
592.726	15.08
593.147	15.03
593.567	14.98
593.987	14.93
594.408	14.89
594.828	14.84
595.248	14.8
595.669	14.76
596.089	14.71
596.509	14.67
596.929	14.62
597.349	14.58
597.769	14.54
598.189	14.5
598.608	14.47
599.028	14.43
599.448	14.39
599.867	14.35
600.287	14.3
600.706	14.26
601.126	14.23
601.545	14.19
601.965	14.16
602.384	14.12
602.803	14.09
603.222	14.03
603.641	13.99
604.061	13.96
604.48	13.9
604.898	13.86
605.317	13.8
605.736	13.74
606.155	13.7
606.574	13.63
606.992	13.56
607.411	13.51
607.829	13.43
608.248	13.36
608.666	13.3
609.085	13.25
609.503	13.19
609.921	13.13
610.339	13.07
610.758	13
611.176	12.94
611.594	12.88
612.012	12.81
612.43	12.77
612.847	12.7
613.265	12.64
613.683	12.57
614.101	12.5
614.518	12.44
614.936	12.37
615.353	12.31
615.771	12.26
616.188	12.2
616.606	12.15
617.023	12.1
617.44	12.06
617.857	12.02
618.274	11.98
618.691	11.93
619.108	11.89
619.525	11.86
619.942	11.82
620.359	11.79
620.776	11.77
621.192	11.74
621.609	11.71
622.026	11.69
622.442	11.67
622.859	11.65
623.275	11.63
623.691	11.62
624.108	11.6
624.524	11.59
624.94	11.59
625.356	11.57
625.772	11.56
626.188	11.55
626.604	11.54
627.02	11.53
627.436	11.53
627.852	11.52
628.268	11.52
628.683	11.51
629.099	11.5
629.514	11.48
629.93	11.46
630.345	11.45
630.761	11.41
631.176	11.38
631.591	11.32
632.007	11.27
632.422	11.21
632.837	11.15
633.252	11.07
633.667	10.99
634.082	10.91
634.497	10.82
634.911	10.71
635.326	10.62
635.741	10.51
636.155	10.4
636.57	10.29
636.984	10.18
637.399	10.05
637.813	9.94
638.228	9.8
638.642	9.66
639.056	9.51
639.47	9.38
639.884	9.25
640.298	9.11
640.712	8.98
641.126	8.84
641.54	8.69
641.954	8.55
642.368	8.42
642.781	8.3
643.195	8.18
643.609	8.07
644.022	7.96
644.436	7.86
644.849	7.75
645.262	7.65
645.676	7.56
646.089	7.49
646.502	7.42
646.915	7.35
647.328	7.28
647.741	7.22
648.154	7.16
648.567	7.1
648.98	7.05
649.393	7.02
649.805	7
650.218	6.97
650.631	6.94
651.043	6.91
651.456	6.88
651.868	6.86
652.28	6.85
652.693	6.82
653.105	6.81
653.517	6.77
653.929	6.75
654.341	6.71
654.753	6.67
655.165	6.63
655.577	6.6
655.989	6.56
656.401	6.5
656.813	6.46
657.224	6.41
657.636	6.34
658.047	6.3
658.459	6.23
658.87	6.17
659.282	6.11
659.693	6.04
660.104	5.97
660.515	5.9
660.926	5.84
661.338	5.77
661.749	5.71
662.159	5.66
662.57	5.6
662.981	5.55
663.392	5.5
663.803	5.45
664.213	5.39
664.624	5.35
665.035	5.3
665.445	5.27
665.855	5.23
666.266	5.2
666.676	5.17
667.086	5.13
667.497	5.1
667.907	5.07
668.317	5.06
668.727	5.04
669.137	5.03
669.547	5.02
669.956	5.01
670.366	5.02
670.776	5.01
671.186	5.02
671.595	5.03
672.005	5.03
672.414	5.06
672.824	5.06
673.233	5.09
673.642	5.11
674.052	5.13
674.461	5.16
674.87	5.18
675.279	5.22
675.688	5.25
676.097	5.3
676.506	5.35
676.915	5.39
677.323	5.44
677.732	5.48
678.141	5.53
678.549	5.59
678.958	5.66
679.366	5.73
679.775	5.8
680.183	5.88
680.592	5.97
681	6.06
681.408	6.18
681.816	6.31
682.224	6.45
682.632	6.61
683.04	6.78
683.448	6.95
683.856	7.15
684.264	7.36
684.671	7.6
685.079	7.84
685.487	8.12
685.894	8.43
686.302	8.76
686.709	9.11
687.116	9.48
687.524	9.89
687.931	10.33
688.338	10.79
688.745	11.25
689.152	11.75
689.559	12.3
689.966	12.84
690.373	13.38
690.78	13.96
691.187	14.55
691.593	15.16
692	15.76
692.407	16.36
692.813	16.99
693.22	17.61
693.626	18.24
694.032	18.87
694.439	19.51
694.845	20.15
695.251	20.79
695.657	21.41
696.063	22.03
696.469	22.67
696.875	23.29
697.281	23.91
697.687	24.54
698.093	25.15
698.498	25.75
698.904	26.32
699.31	26.9
699.715	27.44
700.12	28.01
700.526	28.57
700.931	29.13
701.337	29.65
701.742	30.14
702.147	30.63
702.552	31.13
702.957	31.58
703.362	32.05
703.767	32.48
704.172	32.92
704.577	33.35
704.981	33.76
705.386	34.14
705.791	34.56
706.195	34.96
706.6	35.37
707.004	35.73
707.408	36.12
707.813	36.51
708.217	36.88
708.621	37.25
709.025	37.57
709.43	37.91
709.834	38.26
710.237	38.57
710.641	38.9
711.045	39.2
711.449	39.52
711.853	39.84
712.256	40.13
712.66	40.43
713.064	40.71
713.467	41.02
713.87	41.31
714.274	41.57
714.677	41.85
715.08	42.09
715.484	42.35
715.887	42.62
716.29	42.84
716.693	43.09
717.096	43.32
717.499	43.56
717.901	43.78
718.304	43.98
718.707	44.21
719.109	44.43
719.512	44.66
719.915	44.86
720.317	45.02
720.719	45.19
721.122	45.35
721.524	45.53
721.926	45.68
722.328	45.85
722.731	46
723.133	46.15
723.535	46.32
723.937	46.47
724.338	46.6
724.74	46.74
725.142	46.99
725.544	47.14
725.945	47.27
726.347	47.39
726.748	47.5
727.15	47.62
727.551	47.74
727.952	47.81
728.354	47.91
728.755	47.99
729.156	48.11
729.557	48.1
729.958	48.17
730.359	48.26
730.76	48.35
731.161	48.45
731.562	48.54
731.962	48.58
732.363	48.67
732.763	48.76
733.164	48.83
733.564	48.88
733.965	48.94
734.365	49.02
734.766	49.07
735.166	49.12
735.566	49.16
735.966	49.2
736.366	49.26
736.766	49.29
737.166	49.32
737.566	49.35
737.966	49.38
738.365	49.43
738.765	49.48
739.165	49.52
739.564	49.56
739.964	49.6
740.363	49.62
740.763	49.66
741.162	49.71
741.561	49.74
741.96	49.78
742.36	49.82
742.759	49.84
743.158	49.84
743.557	49.85
743.955	49.87
744.354	49.9
744.753	49.93
745.152	49.97
745.55	50.01
745.949	50.03
746.348	50.04
746.746	50.06
747.144	50.08
747.543	50.09
747.941	50.1
748.339	50.08
748.737	50.09
749.136	50.08
749.534	50.03
749.932	50.01
750.33	50
750.727	50.01
751.125	50
751.523	49.97
751.921	49.97
752.318	50
752.716	50.04
753.113	50.06
753.511	50.1
753.908	50.14
754.305	50.15
754.703	50.17
755.1	50.17
755.497	50.17
755.894	50.2
756.291	50.22
756.688	50.17
757.085	50.17
757.482	50.16
757.878	50.13
758.275	50.11
758.672	50.1
759.068	50.13
759.465	50.14
759.861	50.16
760.258	50.16
760.654	50.14
761.05	50.18
761.447	50.2
761.843	50.19
762.239	50.16
762.635	50.17
763.031	50.16
763.427	50.12
763.822	50.11
764.218	50.1
764.614	50.1
765.01	50.09
765.405	50.07
765.801	50.04
766.196	50.04
766.592	50.04
766.987	50.04
767.382	50.02
767.778	50.01
768.173	50.01
768.568	49.98
768.963	49.96
769.358	49.97
769.753	49.97
770.148	49.97
770.542	49.97
770.937	49.98
771.332	49.95
771.726	49.98
772.121	49.99
772.515	49.99
772.91	49.99
773.304	50.02
773.699	50.02
774.093	49.99
774.487	49.98
774.881	50.01
775.275	49.99
775.669	49.98
776.063	49.96
776.457	49.94
776.851	49.9
777.245	49.88
777.638	49.87
778.032	49.89
778.425	49.92
778.819	49.93
779.212	49.93
779.606	49.96
779.999	49.97
780.392	50
780.786	50.01
781.179	50.05
781.572	50.12
781.965	50.12
782.358	50.11
782.751	50.09
783.143	50.08
783.536	50.05
783.929	50.04
784.322	50.06
784.714	50.04
785.107	50.05
785.499	50.05
785.891	50.01
786.284	50.03
786.676	50.02
787.068	50.02
787.46	50.04
787.852	50.04
788.245	50.03
788.636	50.02
789.028	50.01
789.42	50
789.812	49.99
790.204	49.99
790.595	49.99
790.987	50.01
791.378	50.01
791.77	50.01
792.161	50.02
792.553	50.01
792.944	49.98
793.335	49.99
793.726	49.99
794.117	49.97
794.508	49.95
794.899	49.94
795.29	49.93
795.681	49.93
796.072	49.91
796.463	49.94
796.853	49.95
797.244	49.98
797.634	49.98
798.025	50.02
798.415	50.02
798.806	50.02
799.196	50.01
799.586	50.03
799.976	50.05
800.366	50.06
800.756	50.01
801.146	50.02
801.536	50.02
801.926	50.03
802.316	50.01
802.706	50.05
803.095	50.06
803.485	50.05
803.874	50.03
804.264	50.01
804.653	50.02
805.043	50.03
805.432	50.03
805.821	50.02
806.21	50.02
806.599	50.02
806.988	50.01
807.377	50
807.766	50
808.155	49.99
808.544	49.99
808.933	49.97
809.321	49.99
809.71	49.99
810.098	49.99
810.487	49.95
810.875	49.96
811.264	49.96
811.652	49.99
812.04	49.99
812.428	50.02
812.816	50.01
813.204	50.01
813.592	49.98
813.98	49.98
814.368	50
814.756	50
815.144	49.99
815.531	50
815.919	49.96
816.306	49.97
816.694	49.96
817.081	49.98
817.469	50.01
817.856	50.01
818.243	50.01
818.63	50
819.017	50.01
819.404	49.98
819.791	49.96
820.178	49.95
820.565	49.93
820.952	49.91
821.339	49.89
821.725	49.89
822.112	49.89
822.498	49.91
822.885	49.92
823.271	49.91
823.657	49.91
824.044	49.93
824.43	49.96
824.816	49.97
825.202	49.95
825.588	49.96
825.974	49.95
826.36	49.94
826.746	49.92
827.132	49.93
827.517	49.96
827.903	50.01
828.289	50.02
828.674	50.01
829.06	50.01
829.445	50.04
829.83	50.03
830.216	50.02
830.601	50.02
830.986	50.03
831.371	50.05
831.756	50.02
832.141	49.99
832.526	49.99
832.911	50
833.295	50.03
833.68	50.01
834.065	50.01
834.449	50.03
834.834	50.01
835.218	49.99
835.603	49.96
835.987	49.97
836.371	49.97
836.755	49.94
837.139	49.92
837.524	49.89
837.908	49.9
838.291	49.9
838.675	49.9
839.059	49.93
839.443	49.92
839.827	49.92
840.21	49.9
840.594	49.91
840.977	49.9
841.361	49.91
841.744	49.88
842.127	49.87
842.511	49.85
842.894	49.85
843.277	49.83
843.66	49.81
844.043	49.82
844.426	49.83
844.809	49.82
845.191	49.83
845.574	49.83
845.957	49.86
846.339	49.86
846.722	49.88
847.104	49.89
847.487	49.88
847.869	49.9
848.252	49.89
848.634	49.91
849.016	49.89
849.398	49.9
849.78	49.9
850.162	49.88
850.544	49.88
850.926	49.88
851.307	49.88
851.689	49.89
852.071	49.9
852.452	49.9
852.834	49.89
853.215	49.89
853.597	49.91
853.978	49.89
854.359	49.92
854.741	49.91
855.122	49.9
855.503	49.89
855.884	49.88
856.265	49.86
856.646	49.87
857.026	49.87
857.407	49.89
857.788	49.87
858.169	49.89
858.549	49.88
858.93	49.9
859.31	49.91
859.69	49.93
860.071	49.94
860.451	49.92
860.831	49.92
861.211	49.89
861.591	49.87
861.971	49.87
862.351	49.88
862.731	49.89
863.111	49.88
863.491	49.88
863.87	49.86
864.25	49.86
864.629	49.88
865.009	49.87
865.388	49.9
865.768	49.9
866.147	49.9
866.526	49.89
866.905	49.88
867.284	49.9
867.663	49.9
868.042	49.91
868.421	49.92
868.8	49.92
869.179	49.93
869.558	49.94
869.936	49.93
870.315	49.94
870.693	49.94
871.072	49.94
871.45	49.92
871.828	49.93
872.207	49.96
872.585	49.93
872.963	49.94
873.341	49.94
873.719	49.93
874.097	49.91
874.475	49.9
874.853	49.91
875.23	49.93
875.608	49.93
875.986	49.94
876.363	49.9
876.741	49.92
877.118	49.93
877.495	49.95
877.873	49.96
878.25	49.99
878.627	50.02
879.004	49.99
879.381	49.99
879.758	49.99
880.135	49.98
880.512	49.99
880.889	50.01
881.265	49.99
881.642	49.98
882.019	49.98
882.395	49.95
882.772	49.95
883.148	49.96
883.524	49.94
883.901	49.93
884.277	49.9
884.653	49.86
885.029	49.84
885.405	49.82
885.781	49.82
886.157	49.81
886.532	49.82
886.908	49.79
887.284	49.79
887.659	49.78
888.035	49.77
888.411	49.8
888.786	49.81
889.161	49.8
889.537	49.81
889.912	49.81
890.287	49.82
890.662	49.8
891.037	49.8
891.412	49.79
891.787	49.77
892.162	49.76
892.536	49.73
892.911	49.74
893.286	49.73
893.66	49.7
894.035	49.7
894.409	49.67
894.784	49.67
895.158	49.67
895.532	49.67
895.906	49.69
896.281	49.7
896.655	49.7
897.029	49.69
897.402	49.7
897.776	49.73
898.15	49.73
898.524	49.77
898.898	49.77
899.271	49.78
899.645	49.81
900.018	49.81
900.392	49.81
900.765	49.84
901.138	49.85
901.511	49.85
901.884	49.83
902.258	49.83
902.631	49.82
903.003	49.84
903.376	49.84
903.749	49.82
904.122	49.83
904.495	49.85
904.867	49.85
905.24	49.85
905.612	49.86
905.985	49.87
906.357	49.87
906.729	49.9
907.102	49.9
907.474	49.92
907.846	49.93
908.218	49.89
908.59	49.9
908.962	49.88
909.334	49.89
909.705	49.88
910.077	49.88
910.449	49.88
910.82	49.84
911.192	49.83
911.563	49.81
911.935	49.81
912.306	49.84
912.677	49.83
913.048	49.86
913.419	49.83
913.79	49.83
914.161	49.84
914.532	49.87
914.903	49.88
915.274	49.91
915.645	49.92
916.015	49.9
916.386	49.94
916.756	49.94
917.127	49.93
917.497	49.96
917.868	49.98
918.238	49.99
918.608	49.98
918.978	49.99
919.348	49.97
919.718	49.99
920.088	50.01
920.458	49.97
920.828	49.96
921.198	49.97
921.567	49.96
921.937	49.97
922.306	49.98
922.676	49.97
923.045	49.97
923.415	49.98
923.784	49.96
924.153	49.99
924.522	49.99
924.891	49.99
925.26	49.98
925.629	49.96
925.998	49.91
926.367	49.89
926.736	49.89
927.104	49.89
927.473	49.86
927.842	49.84
928.21	49.81
928.578	49.83
928.947	49.85
929.315	49.84
929.683	49.83
930.051	49.82
930.42	49.83
930.788	49.81
931.156	49.79
931.523	49.78
931.891	49.81
932.259	49.82
932.627	49.82
932.994	49.81
933.362	49.79
933.729	49.78
934.097	49.85
934.464	49.85
934.831	49.88
935.199	49.92
935.566	49.95
935.933	49.88
936.3	49.84
936.667	49.81
937.034	49.84
937.401	49.85
937.767	49.86
938.134	49.81
938.501	49.76
938.867	49.76
939.234	49.69
939.6	49.66
939.967	49.72
940.333	49.71
940.699	49.69
941.065	49.59
941.431	49.59
941.798	49.59
942.163	49.58
942.529	49.54
942.895	49.47
943.261	49.48
943.627	49.44
943.992	49.42
944.358	49.43
944.723	49.48
945.089	49.49
945.454	49.52
945.82	49.49
946.185	49.51
946.55	49.48
946.915	49.5
947.28	49.43
947.645	49.42
948.01	49.41
948.375	49.38
948.74	49.36
949.104	49.41
949.469	49.35
949.834	49.32
950.198	49.22
950.562	49.19
950.927	49.17
951.291	49.15
951.655	49.12
952.02	49.11
952.384	49.06
952.748	48.98
953.112	48.97
953.476	48.92
953.839	48.9
954.203	48.91
954.567	48.92
954.931	48.91
955.294	48.91
955.658	48.93
956.021	48.89
956.385	48.87
956.748	48.9
957.111	48.84
957.474	48.91
957.837	48.89
958.2	48.91
958.563	48.89
958.926	48.86
959.289	48.88
959.652	48.85
960.015	48.83
960.377	48.85
960.74	48.82
961.102	48.83
961.465	48.8
961.827	48.88
962.189	48.85
962.552	48.85
962.914	48.84
963.276	48.84
963.638	48.88
964	48.88
964.362	48.9
964.724	48.87
965.085	48.83
965.447	48.81
965.809	48.77
966.17	48.78
966.532	48.82
966.893	48.9
967.255	48.9
967.616	48.88
967.977	48.91
968.338	48.9
968.699	48.92
969.061	48.96
969.421	48.97
969.782	48.99
970.143	48.97
970.504	48.99
970.865	49
971.225	48.98
971.586	48.9
971.946	48.91
972.307	48.89
972.667	48.89
973.027	48.88
973.388	48.92
973.748	48.9
974.108	48.99
974.468	48.91
974.828	48.88
975.188	48.91
975.548	48.98
975.907	49.02
976.267	49.06
976.627	49.06
976.986	49
977.346	48.91
977.705	48.9
978.064	48.81
978.424	48.86
978.783	48.77
979.142	48.73
979.501	48.74
979.86	48.72
980.219	48.7
980.578	48.73
980.937	48.82
981.296	48.86
981.654	48.85
982.013	48.92
982.371	48.96
982.73	49
983.088	48.98
983.447	48.91
983.805	48.88
984.163	48.85
984.521	48.85
984.879	48.76
985.237	48.75
985.595	48.82
985.953	48.79
986.311	48.73
986.669	48.8
987.026	48.87
987.384	48.92
987.741	48.92
988.099	48.97
988.456	48.92
988.814	49.03
989.171	48.99
989.528	48.9
989.885	48.92
990.242	48.96
990.599	48.92
990.956	48.89
991.313	48.96
991.67	48.95
992.027	48.99
992.383	49.05
992.74	49.1
993.096	49.18
993.453	49.24
993.809	49.24
994.165	49.26
994.522	49.3
994.878	49.39
995.234	49.29
995.59	49.27
995.946	49.2
996.302	49.2
996.658	49.15
997.013	49.07
997.369	49.01
997.725	49.09
998.08	49.1
998.436	49.12
998.791	49.09
999.147	49.03
999.502	49.1
999.857	49.19
1000.212	49.11
1000.567	49.06
1000.922	49.08
1001.277	49.17
1001.632	49.08
1001.987	49.06
1002.342	49
1002.696	48.95
1003.051	49.19
1003.406	49.21
1003.76	49.14
1004.114	49.14
1004.469	49.35
1004.823	49.63
1005.177	49.71
1005.531	49.81
1005.885	49.85
1006.239	49.96
1006.593	50.1
1006.947	50.02
1007.301	50.05
1007.655	50.09
1008.008	50.28
1008.362	50.18
1008.715	50.02
1009.069	49.9
1009.422	49.8
1009.776	49.78
1010.129	49.69
1010.482	49.75
1010.835	49.87
1011.188	49.81
1011.541	49.82
1011.894	49.84
1012.247	49.88
1012.6	49.85
1012.952	49.91
1013.305	50.02
1013.657	50.19
1014.01	50.29
1014.362	50.17
1014.715	50.15
1015.067	50.31
1015.419	50.55
1015.771	50.46
1016.123	50.38
1016.475	50.56
1016.827	50.54
1017.179	50.65
1017.531	50.44
1017.883	50.31
1018.234	50.56
1018.586	50.51
1018.938	50.59
1019.289	50.3
1019.64	50.34
1019.992	50.32
1020.343	50.13
1020.694	50.23
1021.045	50.02
1021.396	50.08
1021.747	50.38
1022.098	50.43
1022.449	50.27
1022.8	50.27
1023.151	50.45
1023.501	50.55
1023.852	50.69
1024.202	50.62
1024.553	50.39
1024.903	50.43
1025.253	50.85
1025.604	50.66
1025.954	50.23
1026.304	50.52
1026.654	50.65
1027.004	50.54
1027.354	50.5
1027.703	50.25
1028.053	50.28
1028.403	50.35
1028.753	50.18
1029.102	50.24
1029.452	50.62
1029.801	51.12
1030.15	51.01
1030.499	50.67
897.758	1334.12
901.051	1341.63
904.343	1337.81
907.636	1360.31
910.928	1321.43
914.22	1323.69
917.511	1302.41
920.803	1246
924.094	1242.3
927.384	1214.94
930.675	1167.99
933.965	1161.44
937.255	1091.08
940.544	1048.16
943.834	994.45
947.123	988.07
950.411	927.28
953.7	909.79
956.988	860.22
960.276	824.51
963.563	811.61
966.851	779.93
970.138	773.98
973.424	750.7
976.711	753.82
979.997	720.44
983.283	715.59
986.568	701.21
989.853	680.14
993.138	669.34
996.423	641.33
999.708	624.29
1002.992	617.58
1006.275	589.68
1009.559	585.39
1012.842	564.22
1016.125	548.92
1019.408	539.65
1022.69	533.06
1025.972	521.63
1029.254	509.44
1032.536	503.02
1035.817	490.56
1039.098	484.34
1042.379	475.33
1045.659	469.32
1048.939	458.83
1052.219	449.5
1055.498	441.74
1058.778	431.12
1062.057	421.15
1065.335	416.48
1068.614	411.62
1071.892	408.54
1075.17	394.44
1078.447	387.11
1081.724	384.06
1085.001	381.16
1088.278	373.65
1091.554	366.29
1094.83	367.2
1098.106	365.47
1101.382	361.66
1104.657	359.49
1107.932	353.74
1111.206	356.89
1114.481	347.42
1117.755	344.09
1121.029	341.11
1124.302	340.47
1127.575	334.86
1130.848	330.05
1134.121	326.15
1137.393	324.37
1140.665	317.61
1143.937	315.17
1147.208	312.99
1150.48	312.09
1153.75	308.94
1157.021	304.5
1160.291	304.24
1163.561	301.44
1166.831	300.66
1170.101	298.94
1173.37	298.4
1176.639	298.81
1179.907	296.53
1183.176	293.12
1186.444	293.13
1189.711	292.59
1192.979	291.75
1196.246	290.09
1199.513	290.38
1202.78	289.14
1206.046	288.78
1209.312	285.39
1212.578	285.68
1215.843	287.95
1219.108	286.97
1222.373	292.92
1225.638	294.59
1228.902	298.23
1232.166	298.67
1235.43	300.93
1238.693	305.21
1241.956	306.36
1245.219	312.11
1248.482	311.56
1251.744	311.15
1255.006	311.83
1258.268	303.2
1261.529	300.22
1264.79	299.25
1268.051	296.84
1271.312	294.17
1274.572	290.12
1277.832	287.98
1281.092	282.79
1284.351	280.8
1287.61	280.8
1290.869	276.33
1294.128	275.4
1297.386	276.5
1300.644	271.94
1303.902	273.04
1307.159	272.51
1310.416	272.57
1313.673	272.23
1316.93	275.63
1320.186	275.53
1323.442	275.94
1326.697	280.93
1329.953	280.88
1333.208	281.01
1336.463	285.37
1339.717	286.07
1342.972	287.68
1346.226	291.15
1349.479	291.31
1352.733	292.23
1355.986	294
1359.238	293.97
1362.491	294.96
1365.743	298.86
1368.995	298.27
1372.247	297.98
1375.498	298.16
1378.749	300.66
1382	296.28
1385.251	296.74
1388.501	295.68
1391.751	296.56
1395	295.09
1398.25	292.99
1401.499	291.13
1404.748	290.83
1407.996	288.76
1411.244	286.95
1414.492	285.43
1417.74	282.3
1420.987	278.37
1424.234	276.89
1427.481	273.13
1430.728	272.81
1433.974	269.99
1437.22	266.95
1440.465	266.44
1443.711	262.86
1446.956	261.09
1450.201	257.77
1453.445	255.18
1456.689	254.64
1459.933	250.02
1463.177	248.09
1466.42	244.05
1469.663	241.16
1472.906	239.86
1476.148	233.24
1479.391	231.06
1482.633	229.12
1485.874	225.28
1489.115	224.22
1492.356	221.62
1495.597	221.66
1498.838	218.09
1502.078	216.7
1505.318	215.87
1508.557	216.16
1511.797	216.16
1515.036	214.27
1518.274	213.71
1521.513	212.06
1524.751	212.12
1527.989	211.39
1531.227	210.19
1534.464	210.94
1537.701	209.75
1540.938	209.19
1544.174	206.61
1547.41	206.46
1550.646	205.46
1553.882	205.5
1557.117	203.34
1560.352	202.1
1563.587	201.3
1566.821	200.13
1570.055	198.27
1573.289	196.35
1576.523	196.42
1579.756	194.73
1582.989	193.76
1586.222	193.61
1589.454	192.23
1592.686	194.08
1595.918	192.87
1599.15	192.45
1602.381	192.73
1605.612	192.65
1608.843	193.81
1612.073	193.4
1615.303	194.96
1618.533	194.74
1621.762	194.54
1624.992	194.96
1628.221	194.24
1631.449	194.54
1634.678	193.84
1637.906	194.91
1641.134	194.54
1644.361	194.31
1647.588	195.19
1650.815	193.92
1654.042	193.38
1657.269	194.73
1660.495	194.62
1663.72	194.18
1666.946	194.67
1670.171	195.59
1673.396	194.93
1676.621	195.28
1679.845	196.02
1683.069	194.63
1686.293	196.71
1689.517	197.71
1692.74	197.3
1695.963	197.93
1699.185	199.75
1702.408	199.78
1705.63	200.39
1708.852	200.72
1712.073	201.41
1715.294	201.49
1718.515	203.41
1721.736	202.05
1724.956	203.01
1728.176	203.28
1731.396	205.16
1734.616	203.81
1737.835	204.84
1741.054	203.41
1744.272	204.22
1747.491	205.73
1750.709	205.69
1753.927	205.63
1757.144	205.3
1760.361	205.99
1763.578	206.02
1766.795	205.26
1770.011	207.58
1773.227	206.97
1776.443	209.72
1779.658	210.65
1782.874	210.22
1786.089	211.02
1789.303	211.7
1792.518	214.45
1795.732	214.44
1798.945	216.31
1802.159	216.66
1805.372	216.82
1808.585	221.41
1811.797	221.49
1815.01	222
1818.222	223.53
1821.434	225.8
1824.645	226.47
1827.856	230.15
1831.067	231.43
1834.278	231.1
1837.488	232.64
1840.698	234.4
1843.908	231.69
1847.117	233.51
1850.326	234.58
1853.535	234.17
1856.744	237.27
1859.952	237
1863.16	234.67
1866.368	233.23
1869.575	236.36
1872.782	232.5
1875.989	231.08
1879.196	230.13
1882.402	228.71
1885.608	229.17
1888.814	229.21
1892.019	227.99
1895.224	227.54
1898.429	226.69
1901.634	228.31
1904.838	228.11
1908.042	230.85
1911.246	232.12
1914.449	233.89
1917.652	233.17
1920.855	233.5
1924.058	233.41
1927.26	232.4
1930.462	233.54
1933.664	236.37
1936.865	234.49
1940.066	233.61
1943.267	232.15
1946.467	231.94
1949.668	233.25
1952.868	236.38
1956.067	236.04
1959.267	236.35
1962.466	237.04
1965.665	235.71
1968.863	235.97
1972.061	239.5
1975.259	242.07
1978.457	244.18
1981.654	245.81
1984.852	246.3
1988.048	245.4
1991.245	248.22
1994.441	250.99
1997.637	252.32
2000.833	257.79
2004.028	261.17
2007.223	262.26
2010.418	264.79
2013.613	269.26
2016.807	272.37
2020.001	274.19
2023.194	279.42
2026.388	284.87
2029.581	291.41
2032.774	294.63
2035.966	299.5
2039.158	300.15
2042.35	306.52
2045.542	307.27
2048.733	312.49
2051.924	317.06
2055.115	322.23
2058.306	321.95
2061.496	325.05
2064.686	325.28
2067.875	331.34
2071.065	332.81
2074.254	331.29
2077.442	334.72
2080.631	337.76
2083.819	340.57
2087.007	340.07
2090.195	345.17
2093.382	348.62
2096.569	346.59
2099.756	351.06
2102.942	351.79
2106.128	355.14
2109.314	363.84
2112.5	362.29
2115.685	369.3
2118.87	369.69
2122.055	377.28
2125.239	379.37
2128.424	383.75
2131.608	386.47
2134.791	392
2137.974	393.73
2141.157	394.62
2144.34	395.34
2147.523	402.08
2150.705	399.39
2153.887	403.98
2157.068	405.22
2160.25	402.61
2163.431	403.14
2166.611	409.15
2169.792	417.05
2172.972	422.2
2176.152	424.42
2179.331	430.21
2182.511	436.9
2185.69	442.08
2188.868	450.63
2192.047	450.66
2195.225	463.6
2198.403	476.67
2201.58	484.79
2204.758	492.98
2207.935	504.09
2211.111	512.98
2214.288	517.89
2217.464	519.21
2220.64	526.9
2223.815	533.83
2226.991	557.68
2230.166	558.15
2233.34	567.33
2236.515	574.8
2239.689	577.09
2242.863	578.7
2246.036	595.88
2249.209	592.3
2252.382	602.47
2255.555	621.36
2258.727	624.04
2261.9	626.74
2265.071	633.12
2268.243	642.99
2271.414	651.32
2274.585	665.3
2277.756	671.53
2280.926	678.52
2284.096	693.32
2287.266	710.02
2290.436	713.53
2293.605	729.82
2296.774	753.1
2299.942	776.4
2303.111	780.4
2306.279	798.88
2309.447	809.34
2312.614	829.79
2315.781	850.31
2318.948	891.35
2322.115	875.29
2325.281	927.23
2328.447	907.71
2331.613	940.24
2334.779	929.92
2337.944	972.78
2341.109	982.77
2344.274	1009.49
2347.438	1044.08
2350.602	1046.04
2353.766	1077.73
2356.929	1095.16
2360.092	1083.74
2363.255	1162.55
2366.418	1161.81
2369.58	1185.2
2372.742	1258.37
2375.904	1289.69
2379.066	1281.61
2382.227	1260.52
2385.388	1362.03
2388.548	1363.72
2391.709	1379.58
2394.869	1538.92
2398.029	1472.66
2401.188	1512.94
2404.347	1504.78
2407.506	1476.91
2410.665	1522.02
2413.823	1613.23
2416.981	1708.62
2420.139	1654.56
2423.296	1640
2426.453	1706.79
2429.61	1642.18
2432.767	1719.07
2435.923	1706.12
2439.079	1863.88
2442.235	1885.29
2445.391	1864.27
2448.546	1849.91
2451.701	1796.23
2454.855	1792.65
2458.009	1900.29
2461.163	1984.9
2464.317	2055.72
2467.471	2109.43
2470.624	2106.37
2473.777	2054.16
2476.929	2005.77
2480.082	1948.63
2483.234	1928.28
2486.385	2032.67
2489.537	2043.9
2492.688	2121.94
2495.839	2054.08
2498.989	2011.29
2502.14	2020.53
2505.29	2044.7
2508.439	2074.66
2511.589	2070.17
2514.738	2257.66
2517.887	2209.59
2521.035	2323.25
2524.183	2354.36
2527.331	2363.5
2530.479	2366.88
2533.627	2384.18
