Data from C_2_HIR_WI_4N_Splice17_13-35-36-959.txt Node
Date: Sat Mar 07 13:35:36 EST 2020
User: sa697716
Spectrometer: NQ5500242
Trigger mode: 0
Integration Time (sec): 1.450000E-1
Scans to average: 20
Nonlinearity correction enabled: false
Boxcar width: 5
Storing dark spectrum: false
XAxis mode: Wavelengths
Number of Pixels in Spectrum: 512
>>>>>Begin Spectral Data<<<<<
187.83	93.79
188.298	115.56
188.766	90.71
189.233	97.87
189.701	116
190.169	134.93
190.636	151
191.104	241.18
191.571	189.96
192.039	149.71
192.506	284.27
192.974	-91.81
193.441	-69.04
193.908	-88.68
194.375	4.95
194.842	70.23
195.31	64.04
195.777	-99.2
196.244	86.19
196.711	96.31
197.177	101.17
197.644	102.26
198.111	102.99
198.578	103.43
199.045	103.67
199.511	103.19
199.978	102.71
200.445	103.36
200.911	103.78
201.378	104.02
201.844	103.81
202.31	103.34
202.777	103.1
203.243	103.03
203.709	102.39
204.176	101.61
204.642	100.87
205.108	100.52
205.574	99.57
206.04	98.33
206.506	97.13
206.972	96.47
207.438	95.22
207.903	93.7
208.369	91.5
208.835	89.69
209.301	87.26
209.766	84.82
210.232	82.07
210.697	79.3
211.163	77.15
211.628	75.14
212.094	73
212.559	71.22
213.024	69.38
213.49	67.59
213.955	65.66
214.42	64.08
214.885	62
215.35	59.43
215.815	56.32
216.28	51.91
216.745	47.04
217.21	42.27
217.675	37.74
218.14	33.84
218.604	30.44
219.069	27.54
219.534	25.18
219.998	23.24
220.463	21.64
220.927	20.18
221.392	19.14
221.856	18.25
222.32	17.45
222.785	16.79
223.249	16.21
223.713	15.65
224.177	15.21
224.642	14.75
225.106	14.3
225.57	13.87
226.034	13.54
226.497	13.19
226.961	12.86
227.425	12.55
227.889	12.28
228.353	12
228.816	11.75
229.28	11.5
229.744	11.28
230.207	11.07
230.671	10.86
231.134	10.64
231.597	10.46
232.061	10.27
232.524	10.11
232.987	9.93
233.45	9.79
233.914	9.64
234.377	9.5
234.84	9.35
235.303	9.23
235.766	9.12
236.229	9.01
236.691	8.9
237.154	8.8
237.617	8.71
238.08	8.61
238.542	8.5
239.005	8.41
239.468	8.32
239.93	8.24
240.393	8.17
240.855	8.06
241.317	7.97
241.78	7.87
242.242	7.76
242.704	7.68
243.166	7.59
243.629	7.51
244.091	7.43
244.553	7.34
245.015	7.25
245.477	7.17
245.939	7.1
246.4	7.03
246.862	6.96
247.324	6.89
247.786	6.81
248.247	6.74
248.709	6.66
249.17	6.57
249.632	6.51
250.093	6.45
250.555	6.38
251.016	6.32
251.477	6.25
251.939	6.19
252.4	6.14
252.861	6.09
253.322	6.04
253.783	6
254.244	5.96
254.705	5.91
255.166	5.87
255.627	5.82
256.088	5.78
256.549	5.74
257.009	5.7
257.47	5.65
257.931	5.6
258.391	5.54
258.852	5.49
259.312	5.44
259.773	5.39
260.233	5.34
260.694	5.29
261.154	5.23
261.614	5.18
262.074	5.12
262.534	5.07
262.994	5.02
263.455	4.98
263.915	4.94
264.374	4.9
264.834	4.87
265.294	4.83
265.754	4.81
266.214	4.78
266.673	4.75
267.133	4.73
267.593	4.71
268.052	4.7
268.512	4.69
268.971	4.67
269.431	4.66
269.89	4.64
270.349	4.63
270.809	4.6
271.268	4.59
271.727	4.58
272.186	4.57
272.645	4.55
273.104	4.53
273.563	4.52
274.022	4.51
274.481	4.5
274.94	4.49
275.399	4.48
275.857	4.47
276.316	4.46
276.775	4.45
277.233	4.45
277.692	4.44
278.15	4.44
278.609	4.44
279.067	4.43
279.525	4.42
279.984	4.41
280.442	4.42
280.9	4.41
281.358	4.42
281.816	4.42
282.274	4.42
282.732	4.42
283.19	4.41
283.648	4.41
284.106	4.41
284.564	4.41
285.021	4.42
285.479	4.41
285.937	4.4
286.394	4.4
286.852	4.38
287.309	4.37
287.767	4.36
288.224	4.34
288.682	4.32
289.139	4.3
289.596	4.27
290.053	4.24
290.511	4.21
290.968	4.19
291.425	4.16
291.882	4.14
292.339	4.12
292.796	4.1
293.252	4.08
293.709	4.06
294.166	4.05
294.623	4.03
295.079	4.02
295.536	4
295.992	3.99
296.449	3.98
296.905	3.97
297.362	3.96
297.818	3.95
298.274	3.95
298.731	3.94
299.187	3.93
299.643	3.93
300.099	3.92
300.555	3.92
301.011	3.92
301.467	3.91
301.923	3.9
302.379	3.9
302.835	3.9
303.291	3.89
303.746	3.89
304.202	3.89
304.658	3.89
305.113	3.9
305.569	3.91
306.024	3.91
306.479	3.9
306.935	3.91
307.39	3.92
307.845	3.92
308.301	3.92
308.756	3.93
309.211	3.93
309.666	3.94
310.121	3.95
310.576	3.95
311.031	3.95
311.486	3.96
311.94	3.97
312.395	3.97
312.85	3.97
313.305	3.97
313.759	3.97
314.214	3.97
314.668	3.96
315.123	3.96
315.577	3.95
316.032	3.94
316.486	3.93
316.94	3.92
317.394	3.9
317.849	3.88
318.303	3.87
318.757	3.85
319.211	3.83
319.665	3.81
320.119	3.79
320.572	3.77
321.026	3.75
321.48	3.74
321.934	3.73
322.387	3.72
322.841	3.71
323.295	3.71
323.748	3.7
324.202	3.7
324.655	3.7
325.108	3.71
325.562	3.71
326.015	3.72
326.468	3.73
326.921	3.73
327.374	3.73
327.827	3.74
328.28	3.73
328.733	3.75
329.186	3.75
329.639	3.76
330.092	3.77
330.545	3.77
330.997	3.77
331.45	3.78
331.903	3.79
332.355	3.8
332.808	3.8
333.26	3.81
333.713	3.81
334.165	3.82
334.617	3.83
335.069	3.83
335.522	3.83
335.974	3.85
336.426	3.86
336.878	3.86
337.33	3.86
337.782	3.87
338.234	3.87
338.686	3.87
339.137	3.87
339.589	3.85
340.041	3.86
340.493	3.84
340.944	3.81
341.396	3.8
341.847	3.78
342.299	3.76
342.75	3.74
343.201	3.71
343.653	3.69
344.104	3.66
344.555	3.65
345.006	3.62
345.457	3.6
345.908	3.59
346.359	3.59
346.81	3.57
347.261	3.56
347.712	3.56
348.163	3.56
348.613	3.56
349.064	3.58
349.515	3.57
349.965	3.58
350.416	3.57
350.866	3.57
351.317	3.57
351.767	3.57
352.217	3.57
352.668	3.58
353.118	3.58
353.568	3.58
354.018	3.58
354.468	3.59
354.918	3.59
355.368	3.6
355.818	3.61
356.268	3.62
356.718	3.62
357.168	3.61
357.617	3.61
358.067	3.61
358.517	3.63
358.966	3.63
359.416	3.63
359.865	3.62
360.315	3.62
360.764	3.62
361.213	3.62
361.663	3.62
362.112	3.62
362.561	3.63
363.01	3.62
363.459	3.61
363.908	3.6
364.357	3.61
364.806	3.61
365.255	3.61
365.703	3.62
366.152	3.63
366.601	3.63
367.05	3.64
367.498	3.64
367.947	3.66
368.395	3.67
368.844	3.68
369.292	3.68
369.74	3.69
370.189	3.69
370.637	3.68
371.085	3.67
371.533	3.67
371.981	3.66
372.429	3.66
372.877	3.66
373.325	3.66
373.773	3.66
374.221	3.66
374.669	3.66
375.116	3.65
375.564	3.66
376.012	3.68
376.459	3.69
376.907	3.71
377.354	3.72
377.801	3.73
378.249	3.75
378.696	3.77
379.143	3.78
379.591	3.82
380.038	3.85
380.485	3.87
380.932	3.89
381.379	3.93
381.826	3.95
382.273	3.99
382.72	4.01
383.166	4.03
383.613	4.06
384.06	4.09
384.506	4.12
384.953	4.16
385.4	4.2
385.846	4.24
386.292	4.27
386.739	4.31
387.185	4.36
387.631	4.41
388.078	4.47
388.524	4.53
388.97	4.59
389.416	4.66
389.862	4.73
390.308	4.81
390.754	4.89
391.2	4.98
391.645	5.07
392.091	5.16
392.537	5.25
392.983	5.34
393.428	5.45
393.874	5.55
394.319	5.64
394.765	5.73
395.21	5.81
395.655	5.9
396.101	6
396.546	6.08
396.991	6.19
397.436	6.28
397.881	6.41
398.326	6.51
398.771	6.63
399.216	6.74
399.661	6.86
400.106	6.98
400.551	7.07
400.995	7.14
401.44	7.24
401.885	7.33
402.329	7.43
402.774	7.51
403.218	7.61
403.663	7.71
404.107	7.8
404.551	7.88
404.995	7.96
405.44	8.07
405.884	8.19
406.328	8.29
406.772	8.38
407.216	8.48
407.66	8.56
408.104	8.63
408.547	8.72
408.991	8.81
409.435	8.89
409.879	8.99
410.322	9.08
410.766	9.18
411.209	9.27
411.653	9.37
412.096	9.46
412.54	9.54
412.983	9.64
413.426	9.75
413.869	9.84
414.312	9.96
414.756	10.05
415.199	10.13
415.642	10.19
416.085	10.25
416.527	10.28
416.97	10.33
417.413	10.37
417.856	10.41
418.298	10.44
418.741	10.49
419.184	10.52
419.626	10.55
420.069	10.58
420.511	10.63
420.953	10.68
421.396	10.75
421.838	10.79
422.28	10.84
422.722	10.91
423.164	10.93
423.606	10.97
424.048	10.98
424.49	10.99
424.932	10.99
425.374	10.96
425.816	10.93
426.258	10.91
426.699	10.9
427.141	10.91
427.582	10.91
428.024	10.95
428.465	10.96
428.907	10.97
429.348	10.98
429.789	11
430.231	11.07
430.672	11.13
431.113	11.18
431.554	11.23
431.995	11.27
432.436	11.3
432.877	11.33
433.318	11.38
433.759	11.43
434.2	11.49
434.64	11.56
435.081	11.61
435.522	11.66
435.962	11.7
436.403	11.77
436.843	11.83
437.284	11.86
437.724	11.9
438.164	11.94
438.604	12
439.045	12.06
439.485	12.12
439.925	12.16
440.365	12.23
440.805	12.3
441.245	12.36
441.685	12.44
442.125	12.55
442.564	12.63
443.004	12.7
443.444	12.8
443.883	12.91
444.323	12.99
444.762	13.09
445.202	13.19
445.641	13.32
446.081	13.45
446.52	13.56
446.959	13.67
447.398	13.78
447.837	13.91
448.276	13.99
448.716	14.09
449.154	14.2
449.593	14.29
450.032	14.35
450.471	14.39
450.91	14.41
451.349	14.45
451.787	14.48
452.226	14.51
452.664	14.52
453.103	14.54
453.541	14.54
453.98	14.56
454.418	14.54
454.856	14.56
455.295	14.56
455.733	14.56
456.171	14.57
456.609	14.59
457.047	14.57
457.485	14.58
457.923	14.6
458.361	14.61
458.798	14.61
459.236	14.62
459.674	14.62
460.111	14.65
460.549	14.67
460.987	14.68
461.424	14.67
461.862	14.7
462.299	14.72
462.736	14.72
463.173	14.72
463.611	14.73
464.048	14.75
464.485	14.77
464.922	14.76
465.359	14.78
465.796	14.8
466.233	14.83
466.67	14.84
467.106	14.85
467.543	14.86
467.98	14.86
468.416	14.87
468.853	14.87
469.29	14.86
469.726	14.89
470.162	14.88
470.599	14.87
471.035	14.87
471.471	14.88
471.907	14.88
472.344	14.9
472.78	14.91
473.216	14.91
473.652	14.92
474.088	14.93
474.523	14.94
474.959	14.96
475.395	14.96
475.831	14.97
476.266	14.99
476.702	15
477.138	15
477.573	15.01
478.008	15.01
478.444	15.02
478.879	15.04
479.314	15.02
479.75	15.03
480.185	15.03
480.62	15.03
481.055	15.03
481.49	15.02
481.925	15.04
482.36	15.06
482.795	15.07
483.229	15.07
483.664	15.11
484.099	15.14
484.534	15.16
484.968	15.19
485.403	15.22
485.837	15.26
486.271	15.32
486.706	15.36
487.14	15.41
487.574	15.47
488.009	15.55
488.443	15.61
488.877	15.68
489.311	15.76
489.745	15.85
490.179	15.95
490.613	16.05
491.046	16.16
491.48	16.27
491.914	16.39
492.348	16.52
492.781	16.65
493.215	16.78
493.648	16.92
494.082	17.06
494.515	17.21
494.948	17.35
495.382	17.51
495.815	17.69
496.248	17.87
496.681	18.05
497.114	18.22
497.547	18.41
497.98	18.61
498.413	18.8
498.846	19.03
499.279	19.24
499.711	19.46
500.144	19.68
500.577	19.91
501.009	20.12
501.442	20.36
501.874	20.62
502.306	20.86
502.739	21.14
503.171	21.41
503.603	21.66
504.036	21.95
504.468	22.23
504.9	22.51
505.332	22.81
505.764	23.11
506.196	23.41
506.627	23.72
507.059	24.02
507.491	24.32
507.923	24.64
508.354	24.99
508.786	25.31
509.217	25.65
509.649	25.99
510.08	26.33
510.512	26.68
510.943	27.03
511.374	27.37
511.805	27.73
512.237	28.06
512.668	28.43
513.099	28.77
513.53	29.12
513.961	29.48
514.391	29.85
514.822	30.2
515.253	30.53
515.684	30.86
516.114	31.21
516.545	31.55
516.975	31.89
517.406	32.2
517.836	32.51
518.267	32.85
518.697	33.13
519.127	33.39
519.558	33.7
519.988	34
520.418	34.28
520.848	34.55
521.278	34.81
521.708	35.26
522.138	35.52
522.567	35.8
522.997	36.04
523.427	36.28
523.857	36.53
524.286	36.73
524.716	36.95
525.145	37.19
525.575	37.42
526.004	37.62
526.433	37.65
526.863	37.83
527.292	37.99
527.721	38.14
528.15	38.3
528.579	38.45
529.008	38.61
529.437	38.76
529.866	38.87
530.295	39.01
530.724	39.13
531.152	39.24
531.581	39.38
532.01	39.5
532.438	39.62
532.867	39.76
533.295	39.86
533.723	39.96
534.152	40.05
534.58	40.15
535.008	40.22
535.436	40.31
535.865	40.37
536.293	40.44
536.721	40.52
537.149	40.59
537.576	40.65
538.004	40.72
538.432	40.76
538.86	40.82
539.287	40.87
539.715	40.93
540.143	40.98
540.57	41.02
540.998	41.04
541.425	41.07
541.852	41.11
542.28	41.15
542.707	41.16
543.134	41.2
543.561	41.24
543.988	41.27
544.415	41.29
544.842	41.31
545.269	41.35
545.696	41.39
546.123	41.41
546.549	41.45
546.976	41.48
547.403	41.55
547.829	41.56
548.256	41.58
548.682	41.6
549.108	41.65
549.535	41.7
549.961	41.72
550.387	41.74
550.813	41.77
551.24	41.78
551.666	41.76
552.092	41.76
552.518	41.79
552.943	41.79
553.369	41.81
553.795	41.81
554.221	41.78
554.646	41.77
555.072	41.77
555.498	41.76
555.923	41.73
556.349	41.72
556.774	41.67
557.199	41.63
557.625	41.6
558.05	41.54
558.475	41.48
558.9	41.44
559.325	41.4
559.75	41.33
560.175	41.27
560.6	41.19
561.025	41.14
561.449	41.07
561.874	40.99
562.299	40.9
562.723	40.84
563.148	40.74
563.572	40.61
563.997	40.49
564.421	40.38
564.846	40.29
565.27	40.18
565.694	40.07
566.118	39.96
566.542	39.85
566.966	39.73
567.39	39.61
567.814	39.5
568.238	39.4
568.662	39.3
569.086	39.19
569.509	39.07
569.933	38.99
570.357	38.89
570.78	38.78
571.204	38.67
571.627	38.57
572.05	38.45
572.474	38.37
572.897	38.27
573.32	38.16
573.743	38.06
574.166	37.97
574.589	37.84
575.012	37.72
575.435	37.63
575.858	37.53
576.281	37.45
576.704	37.38
577.126	37.28
577.549	37.18
577.972	37.08
578.394	37
578.817	36.9
579.239	36.84
579.661	36.77
580.084	36.68
580.506	36.61
580.928	36.54
581.35	36.46
581.772	36.38
582.194	36.31
582.616	36.25
583.038	36.18
583.46	36.13
583.882	36.07
584.303	35.99
584.725	35.93
585.147	35.86
585.568	35.8
585.99	35.74
586.411	35.68
586.833	35.62
587.254	35.56
587.675	35.5
588.096	35.44
588.518	35.4
588.939	35.37
589.36	35.32
589.781	35.27
590.202	35.23
590.623	35.18
591.043	35.14
591.464	35.12
591.885	35.08
592.305	35.04
592.726	35.01
593.147	34.95
593.567	34.92
593.987	34.88
594.408	34.83
594.828	34.78
595.248	34.76
595.669	34.71
596.089	34.66
596.509	34.63
596.929	34.61
597.349	34.56
597.769	34.52
598.189	34.46
598.608	34.44
599.028	34.4
599.448	34.36
599.867	34.31
600.287	34.28
600.706	34.23
601.126	34.19
601.545	34.13
601.965	34.09
602.384	34.04
602.803	34
603.222	33.93
603.641	33.88
604.061	33.84
604.48	33.77
604.898	33.7
605.317	33.64
605.736	33.58
606.155	33.5
606.574	33.43
606.992	33.34
607.411	33.27
607.829	33.16
608.248	33.07
608.666	32.98
609.085	32.9
609.503	32.81
609.921	32.72
610.339	32.61
610.758	32.52
611.176	32.42
611.594	32.34
612.012	32.25
612.43	32.17
612.847	32.07
613.265	31.98
613.683	31.88
614.101	31.79
614.518	31.7
614.936	31.63
615.353	31.53
615.771	31.44
616.188	31.33
616.606	31.27
617.023	31.21
617.44	31.16
617.857	31.06
618.274	31.01
618.691	30.94
619.108	30.89
619.525	30.83
619.942	30.78
620.359	30.75
620.776	30.71
621.192	30.65
621.609	30.62
622.026	30.57
622.442	30.56
622.859	30.52
623.275	30.49
623.691	30.47
624.108	30.44
624.524	30.42
624.94	30.41
625.356	30.41
625.772	30.4
626.188	30.38
626.604	30.37
627.02	30.35
627.436	30.36
627.852	30.34
628.268	30.32
628.683	30.3
629.099	30.3
629.514	30.28
629.93	30.25
630.345	30.22
630.761	30.18
631.176	30.16
631.591	30.12
632.007	30.07
632.422	30.03
632.837	29.98
633.252	29.93
633.667	29.84
634.082	29.75
634.497	29.66
634.911	29.56
635.326	29.45
635.741	29.34
636.155	29.23
636.57	29.09
636.984	28.95
637.399	28.79
637.813	28.63
638.228	28.48
638.642	28.31
639.056	28.16
639.47	28.01
639.884	27.83
640.298	27.63
640.712	27.45
641.126	27.27
641.54	27.08
641.954	26.9
642.368	26.71
642.781	26.52
643.195	26.32
643.609	26.13
644.022	25.93
644.436	25.75
644.849	25.58
645.262	25.4
645.676	25.21
646.089	25.07
646.502	24.92
646.915	24.79
647.328	24.65
647.741	24.52
648.154	24.39
648.567	24.28
648.98	24.16
649.393	24.07
649.805	23.98
650.218	23.9
650.631	23.82
651.043	23.72
651.456	23.63
651.868	23.53
652.28	23.45
652.693	23.38
653.105	23.28
653.517	23.18
653.929	23.04
654.341	22.91
654.753	22.76
655.165	22.6
655.577	22.45
655.989	22.27
656.401	22.1
656.813	21.91
657.224	21.72
657.636	21.51
658.047	21.31
658.459	21.1
658.87	20.88
659.282	20.66
659.693	20.44
660.104	20.21
660.515	19.97
660.926	19.74
661.338	19.51
661.749	19.28
662.159	19.05
662.57	18.83
662.981	18.62
663.392	18.4
663.803	18.19
664.213	17.98
664.624	17.77
665.035	17.57
665.445	17.39
665.855	17.2
666.266	17.02
666.676	16.86
667.086	16.68
667.497	16.53
667.907	16.39
668.317	16.26
668.727	16.15
669.137	16.04
669.547	15.94
669.956	15.85
670.366	15.76
670.776	15.7
671.186	15.63
671.595	15.57
672.005	15.49
672.414	15.45
672.824	15.39
673.233	15.35
673.642	15.32
674.052	15.3
674.461	15.28
674.87	15.27
675.279	15.26
675.688	15.27
676.097	15.28
676.506	15.33
676.915	15.38
677.323	15.44
677.732	15.51
678.141	15.6
678.549	15.7
678.958	15.83
679.366	15.99
679.775	16.15
680.183	16.36
680.592	16.6
681	16.87
681.408	17.16
681.816	17.48
682.224	17.85
682.632	18.24
683.04	18.66
683.448	19.12
683.856	19.6
684.264	20.14
684.671	20.71
685.079	21.29
685.487	21.9
685.894	22.54
686.302	23.21
686.709	23.9
687.116	24.62
687.524	25.36
687.931	26.09
688.338	26.83
688.745	27.58
689.152	28.33
689.559	29.1
689.966	29.87
690.373	30.63
690.78	31.38
691.187	32.1
691.593	32.82
692	33.53
692.407	34.23
692.813	34.91
693.22	35.56
693.626	36.19
694.032	36.83
694.439	37.43
694.845	38.02
695.251	38.6
695.657	39.16
696.063	39.69
696.469	40.2
696.875	40.7
697.281	41.19
697.687	41.69
698.093	42.17
698.498	42.6
698.904	43.03
699.31	43.43
699.715	43.84
700.12	44.22
700.526	44.61
700.931	44.97
701.337	45.31
701.742	45.64
702.147	45.97
702.552	46.28
702.957	46.54
703.362	46.82
703.767	47.07
704.172	47.33
704.577	47.58
704.981	47.83
705.386	48.06
705.791	48.29
706.195	48.53
706.6	48.73
707.004	48.92
707.408	49.15
707.813	49.38
708.217	49.6
708.621	49.81
709.025	49.99
709.43	50.15
709.834	50.34
710.237	50.51
710.641	50.67
711.045	50.85
711.449	51.02
711.853	51.22
712.256	51.33
712.66	51.44
713.064	51.56
713.467	51.72
713.87	51.87
714.274	51.99
714.677	52.14
715.08	52.26
715.484	52.38
715.887	52.52
716.29	52.61
716.693	52.75
717.096	52.89
717.499	53.01
717.901	53.12
718.304	53.21
718.707	53.34
719.109	53.44
719.512	53.52
719.915	53.61
720.317	53.67
720.719	53.7
721.122	53.77
721.524	53.85
721.926	53.93
722.328	54
722.731	54.06
723.133	54.14
723.535	54.19
723.937	54.27
724.338	54.31
724.74	54.4
725.142	54.61
725.544	54.66
725.945	54.74
726.347	54.8
726.748	54.83
727.15	54.87
727.551	54.92
727.952	54.96
728.354	54.99
728.755	55.03
729.156	55.04
729.557	54.96
729.958	55.01
730.359	55.01
730.76	55.03
731.161	55.07
731.562	55.12
731.962	55.1
732.363	55.14
732.763	55.16
733.164	55.2
733.564	55.23
733.965	55.24
734.365	55.28
734.766	55.31
735.166	55.34
735.566	55.38
735.966	55.44
736.366	55.47
736.766	55.47
737.166	55.5
737.566	55.53
737.966	55.55
738.365	55.58
738.765	55.58
739.165	55.61
739.564	55.63
739.964	55.62
740.363	55.61
740.763	55.62
741.162	55.65
741.561	55.66
741.96	55.64
742.36	55.66
742.759	55.68
743.158	55.69
743.557	55.68
743.955	55.7
744.354	55.72
744.753	55.74
745.152	55.79
745.55	55.8
745.949	55.84
746.348	55.87
746.746	55.87
747.144	55.88
747.543	55.89
747.941	55.89
748.339	55.84
748.737	55.82
749.136	55.79
749.534	55.75
749.932	55.75
750.33	55.71
750.727	55.72
751.125	55.7
751.523	55.7
751.921	55.68
752.318	55.69
752.716	55.71
753.113	55.71
753.511	55.72
753.908	55.75
754.305	55.77
754.703	55.76
755.1	55.74
755.497	55.75
755.894	55.76
756.291	55.78
756.688	55.76
757.085	55.77
757.482	55.77
757.878	55.76
758.275	55.74
758.672	55.73
759.068	55.75
759.465	55.77
759.861	55.79
760.258	55.79
760.654	55.8
761.05	55.83
761.447	55.85
761.843	55.85
762.239	55.86
762.635	55.88
763.031	55.86
763.427	55.84
763.822	55.85
764.218	55.84
764.614	55.84
765.01	55.85
765.405	55.83
765.801	55.79
766.196	55.81
766.592	55.82
766.987	55.79
767.382	55.79
767.778	55.79
768.173	55.78
768.568	55.76
768.963	55.75
769.358	55.72
769.753	55.73
770.148	55.75
770.542	55.76
770.937	55.76
771.332	55.78
771.726	55.8
772.121	55.81
772.515	55.83
772.91	55.85
773.304	55.86
773.699	55.87
774.093	55.88
774.487	55.88
774.881	55.89
775.275	55.87
775.669	55.85
776.063	55.84
776.457	55.81
776.851	55.77
777.245	55.74
777.638	55.7
778.032	55.72
778.425	55.75
778.819	55.75
779.212	55.73
779.606	55.77
779.999	55.8
780.392	55.81
780.786	55.86
781.179	55.88
781.572	55.94
781.965	55.99
782.358	56
782.751	55.99
783.143	56.01
783.536	56
783.929	56.02
784.322	56.04
784.714	56.05
785.107	56.04
785.499	56.04
785.891	56.03
786.284	56.03
786.676	56.04
787.068	56.04
787.46	56.02
787.852	56.04
788.245	56.03
788.636	55.99
789.028	56.01
789.42	56
789.812	56.01
790.204	56.01
790.595	56.02
790.987	56
791.378	56.02
791.77	56.04
792.161	56.05
792.553	56.03
792.944	56.03
793.335	56.03
793.726	56.04
794.117	56.01
794.508	55.98
794.899	55.96
795.29	55.97
795.681	55.91
796.072	55.9
796.463	55.94
796.853	55.94
797.244	55.98
797.634	55.97
798.025	56
798.415	56.03
798.806	56.04
799.196	56.04
799.586	56.04
799.976	56.06
800.366	56.08
800.756	56.06
801.146	56.07
801.536	56.07
801.926	56.1
802.316	56.07
802.706	56.11
803.095	56.12
803.485	56.13
803.874	56.14
804.264	56.17
804.653	56.17
805.043	56.15
805.432	56.13
805.821	56.13
806.21	56.13
806.599	56.12
806.988	56.09
807.377	56.09
807.766	56.11
808.155	56.08
808.544	56.05
808.933	56.01
809.321	56.01
809.71	56.01
810.098	55.99
810.487	55.95
810.875	55.97
811.264	55.96
811.652	55.95
812.04	55.93
812.428	55.98
812.816	55.98
813.204	55.99
813.592	55.96
813.98	56
814.368	56.01
814.756	56.02
815.144	56.01
815.531	55.98
815.919	55.99
816.306	56
816.694	55.98
817.081	55.98
817.469	56
817.856	56.01
818.243	55.95
818.63	55.93
819.017	55.92
819.404	55.91
819.791	55.92
820.178	55.9
820.565	55.88
820.952	55.83
821.339	55.81
821.725	55.78
822.112	55.78
822.498	55.83
822.885	55.83
823.271	55.81
823.657	55.77
824.044	55.75
824.43	55.76
824.816	55.79
825.202	55.79
825.588	55.8
825.974	55.81
826.36	55.8
826.746	55.76
827.132	55.75
827.517	55.76
827.903	55.78
828.289	55.8
828.674	55.76
829.06	55.7
829.445	55.71
829.83	55.69
830.216	55.66
830.601	55.62
830.986	55.62
831.371	55.58
831.756	55.6
832.141	55.58
832.526	55.56
832.911	55.57
833.295	55.6
833.68	55.56
834.065	55.54
834.449	55.53
834.834	55.54
835.218	55.54
835.603	55.55
835.987	55.51
836.371	55.51
836.755	55.47
837.139	55.44
837.524	55.42
837.908	55.45
838.291	55.46
838.675	55.46
839.059	55.45
839.443	55.4
839.827	55.38
840.21	55.35
840.594	55.36
840.977	55.36
841.361	55.36
841.744	55.33
842.127	55.29
842.511	55.26
842.894	55.25
843.277	55.23
843.66	55.22
844.043	55.25
844.426	55.26
844.809	55.24
845.191	55.25
845.574	55.24
845.957	55.23
846.339	55.22
846.722	55.21
847.104	55.21
847.487	55.2
847.869	55.21
848.252	55.19
848.634	55.17
849.016	55.17
849.398	55.16
849.78	55.17
850.162	55.19
850.544	55.21
850.926	55.22
851.307	55.23
851.689	55.23
852.071	55.24
852.452	55.22
852.834	55.23
853.215	55.22
853.597	55.22
853.978	55.21
854.359	55.2
854.741	55.18
855.122	55.17
855.503	55.18
855.884	55.17
856.265	55.17
856.646	55.15
857.026	55.16
857.407	55.17
857.788	55.14
858.169	55.15
858.549	55.15
858.93	55.17
859.31	55.18
859.69	55.19
860.071	55.22
860.451	55.21
860.831	55.2
861.211	55.18
861.591	55.18
861.971	55.19
862.351	55.18
862.731	55.19
863.111	55.16
863.491	55.13
863.87	55.09
864.25	55.05
864.629	55.05
865.009	55.08
865.388	55.08
865.768	55.07
866.147	55.06
866.526	55.06
866.905	55.05
867.284	55.07
867.663	55.07
868.042	55.09
868.421	55.13
868.8	55.13
869.179	55.14
869.558	55.15
869.936	55.14
870.315	55.12
870.693	55.12
871.072	55.14
871.45	55.14
871.828	55.15
872.207	55.16
872.585	55.14
872.963	55.17
873.341	55.15
873.719	55.16
874.097	55.17
874.475	55.23
874.853	55.22
875.23	55.25
875.608	55.24
875.986	55.29
876.363	55.3
876.741	55.31
877.118	55.29
877.495	55.31
877.873	55.31
878.25	55.32
878.627	55.31
879.004	55.31
879.381	55.28
879.758	55.26
880.135	55.24
880.512	55.22
880.889	55.2
881.265	55.17
881.642	55.16
882.019	55.16
882.395	55.13
882.772	55.11
883.148	55.08
883.524	55.05
883.901	55.03
884.277	54.99
884.653	54.96
885.029	54.93
885.405	54.94
885.781	54.9
886.157	54.87
886.532	54.86
886.908	54.81
887.284	54.8
887.659	54.77
888.035	54.76
888.411	54.76
888.786	54.75
889.161	54.78
889.537	54.78
889.912	54.8
890.287	54.79
890.662	54.77
891.037	54.79
891.412	54.78
891.787	54.79
892.162	54.79
892.536	54.76
892.911	54.75
893.286	54.72
893.66	54.69
894.035	54.66
894.409	54.65
894.784	54.65
895.158	54.64
895.532	54.64
895.906	54.63
896.281	54.61
896.655	54.61
897.029	54.63
897.402	54.63
897.776	54.65
898.15	54.68
898.524	54.72
898.898	54.74
899.271	54.75
899.645	54.78
900.018	54.84
900.392	54.87
900.765	54.93
901.138	54.95
901.511	54.97
901.884	54.99
902.258	55
902.631	55.01
903.003	55.02
903.376	55.04
903.749	55.04
904.122	55.03
904.495	55.04
904.867	55.01
905.24	55.05
905.612	55.07
905.985	55.06
906.357	55.05
906.729	55.07
907.102	55.07
907.474	55.08
907.846	55.1
908.218	55.1
908.59	55.11
908.962	55.11
909.334	55.09
909.705	55.07
910.077	55.09
910.449	55.1
910.82	55.08
911.192	55.09
911.563	55.09
911.935	55.05
912.306	55.08
912.677	55.09
913.048	55.11
913.419	55.11
913.79	55.13
914.161	55.15
914.532	55.16
914.903	55.18
915.274	55.18
915.645	55.2
916.015	55.24
916.386	55.25
916.756	55.25
917.127	55.29
917.497	55.32
917.868	55.36
918.238	55.35
918.608	55.41
918.978	55.43
919.348	55.49
919.718	55.46
920.088	55.48
920.458	55.5
920.828	55.49
921.198	55.45
921.567	55.48
921.937	55.48
922.306	55.48
922.676	55.45
923.045	55.44
923.415	55.41
923.784	55.45
924.153	55.47
924.522	55.5
924.891	55.54
925.26	55.57
925.629	55.56
925.998	55.58
926.367	55.59
926.736	55.6
927.104	55.59
927.473	55.59
927.842	55.57
928.21	55.55
928.578	55.53
928.947	55.52
929.315	55.51
929.683	55.49
930.051	55.45
930.42	55.45
930.788	55.4
931.156	55.39
931.523	55.39
931.891	55.43
932.259	55.44
932.627	55.43
932.994	55.42
933.362	55.45
933.729	55.5
934.097	55.52
934.464	55.56
934.831	55.6
935.199	55.67
935.566	55.71
935.933	55.67
936.3	55.72
936.667	55.73
937.034	55.84
937.401	55.89
937.767	55.89
938.134	55.94
938.501	55.99
938.867	56.11
939.234	56.11
939.6	56.14
939.967	56.22
940.333	56.19
940.699	56.26
941.065	56.24
941.431	56.22
941.798	56.23
942.163	56.21
942.529	56.16
942.895	56.06
943.261	56.05
943.627	56.02
943.992	56.01
944.358	56.01
944.723	55.95
945.089	55.85
945.454	55.84
945.82	55.85
946.185	55.83
946.55	55.76
946.915	55.73
947.28	55.69
947.645	55.66
948.01	55.62
948.375	55.57
948.74	55.59
949.104	55.6
949.469	55.58
949.834	55.49
950.198	55.48
950.562	55.43
950.927	55.42
951.291	55.38
951.655	55.3
952.02	55.25
952.384	55.22
952.748	55.16
953.112	55.11
953.476	55.07
953.839	55
954.203	54.96
954.567	54.98
954.931	54.9
955.294	54.84
955.658	54.9
956.021	54.93
956.385	54.9
956.748	54.86
957.111	54.82
957.474	54.8
957.837	54.77
958.2	54.71
958.563	54.71
958.926	54.78
959.289	54.83
959.652	54.78
960.015	54.8
960.377	54.82
960.74	54.85
961.102	54.87
961.465	54.93
961.827	55.03
962.189	55.11
962.552	55.12
962.914	55.09
963.276	55.12
963.638	55.19
964	55.11
964.362	55.14
964.724	55.15
965.085	55.18
965.447	55.14
965.809	55.16
966.17	55.14
966.532	55.13
966.893	55.14
967.255	55.15
967.616	55.12
967.977	55.23
968.338	55.2
968.699	55.25
969.061	55.25
969.421	55.3
969.782	55.28
970.143	55.34
970.504	55.44
970.865	55.54
971.225	55.56
971.586	55.57
971.946	55.54
972.307	55.53
972.667	55.49
973.027	55.54
973.388	55.59
973.748	55.62
974.108	55.7
974.468	55.63
974.828	55.67
975.188	55.65
975.548	55.67
975.907	55.75
976.267	55.87
976.627	55.99
976.986	55.99
977.346	55.96
977.705	55.98
978.064	55.95
978.424	55.99
978.783	55.89
979.142	55.89
979.501	55.93
979.86	55.94
980.219	55.94
980.578	55.86
980.937	55.85
981.296	55.85
981.654	55.85
982.013	55.87
982.371	55.96
982.73	56.05
983.088	55.99
983.447	56
983.805	56.02
984.163	55.99
984.521	56.02
984.879	56.06
985.237	56.17
985.595	56.28
985.953	56.32
986.311	56.28
986.669	56.35
987.026	56.47
987.384	56.53
987.741	56.47
988.099	56.61
988.456	56.65
988.814	56.77
989.171	56.74
989.528	56.72
989.885	56.76
990.242	56.82
990.599	56.87
990.956	56.98
991.313	57.04
991.67	57.11
992.027	57.23
992.383	57.39
992.74	57.48
993.096	57.5
993.453	57.53
993.809	57.54
994.165	57.62
994.522	57.71
994.878	57.78
995.234	57.84
995.59	57.9
995.946	57.91
996.302	57.94
996.658	58
997.013	58.06
997.369	58.13
997.725	58.28
998.08	58.38
998.436	58.32
998.791	58.33
999.147	58.35
999.502	58.39
999.857	58.42
1000.212	58.45
1000.567	58.41
1000.922	58.52
1001.277	58.68
1001.632	58.63
1001.987	58.67
1002.342	58.74
1002.696	58.82
1003.051	58.96
1003.406	59.19
1003.76	59.21
1004.114	59.19
1004.469	59.29
1004.823	59.73
1005.177	59.63
1005.531	59.84
1005.885	59.96
1006.239	60.07
1006.593	60.2
1006.947	60.23
1007.301	60.31
1007.655	60.44
1008.008	60.68
1008.362	60.83
1008.715	60.52
1009.069	60.68
1009.422	60.77
1009.776	60.84
1010.129	61.08
1010.482	61.18
1010.835	61.46
1011.188	61.54
1011.541	61.66
1011.894	61.83
1012.247	61.81
1012.6	61.95
1012.952	62.21
1013.305	62.36
1013.657	62.4
1014.01	62.37
1014.362	62.43
1014.715	62.57
1015.067	62.66
1015.419	62.93
1015.771	62.81
1016.123	63.23
1016.475	63.39
1016.827	63.42
1017.179	63.39
1017.531	63.58
1017.883	63.66
1018.234	63.97
1018.586	63.85
1018.938	64.32
1019.289	64.18
1019.64	64.37
1019.992	64.19
1020.343	64.31
1020.694	64.63
1021.045	64.93
1021.396	65.12
1021.747	65.44
1022.098	65.47
1022.449	65.66
1022.8	65.7
1023.151	65.9
1023.501	66.27
1023.852	66.51
1024.202	66.83
1024.553	66.81
1024.903	66.95
1025.253	67.04
1025.604	67.3
1025.954	67.39
1026.304	67.66
1026.654	67.52
1027.004	67.69
1027.354	67.78
1027.703	67.77
1028.053	67.72
1028.403	67.91
1028.753	67.77
1029.102	68.21
1029.452	68.38
1029.801	68.73
1030.15	68.87
1030.499	68.91
897.758	1593.53
901.051	1600.4
904.343	1593.85
907.636	1621.96
910.928	1577.9
914.22	1578.63
917.511	1557.15
920.803	1489.86
924.094	1485.09
927.384	1449.99
930.675	1386.42
933.965	1378.65
937.255	1297.94
940.544	1246.91
943.834	1186.65
947.123	1176.85
950.411	1108.47
953.7	1084.64
956.988	1023.63
960.276	983.25
963.563	968.95
966.851	934.57
970.138	927.29
973.424	897.79
976.711	904.78
979.997	860.3
983.283	854.78
986.568	835.78
989.853	809.98
993.138	798.12
996.423	766.9
999.708	744.9
1002.992	737.54
1006.275	702.88
1009.559	697.08
1012.842	671.68
1016.125	653.2
1019.408	642.21
1022.69	632.63
1025.972	621.35
1029.254	605.8
1032.536	595.56
1035.817	582.2
1039.098	574.91
1042.379	562.58
1045.659	557.18
1048.939	541.52
1052.219	531.66
1055.498	522.91
1058.778	511.44
1062.057	498.58
1065.335	493.45
1068.614	487.74
1071.892	483.08
1075.17	467.02
1078.447	458.41
1081.724	455.05
1085.001	451.87
1088.278	441.89
1091.554	433.33
1094.83	433.67
1098.106	430.91
1101.382	427.18
1104.657	424.25
1107.932	416.7
1111.206	420.74
1114.481	409.74
1117.755	404.78
1121.029	401.88
1124.302	401.9
1127.575	393.76
1130.848	388.8
1134.121	384.19
1137.393	382.96
1140.665	373.44
1143.937	372.92
1147.208	368.22
1150.48	368.87
1153.75	364.57
1157.021	358.49
1160.291	358.89
1163.561	355.87
1166.831	355.4
1170.101	353.47
1173.37	351.85
1176.639	353.74
1179.907	349.21
1183.176	346.06
1186.444	345.55
1189.711	344.91
1192.979	345.03
1196.246	341.77
1199.513	342.89
1202.78	341.34
1206.046	340.79
1209.312	337.12
1212.578	338.08
1215.843	341.12
1219.108	338.96
1222.373	345.91
1225.638	348.29
1228.902	353.26
1232.166	353.47
1235.43	356.36
1238.693	360.2
1241.956	362.53
1245.219	368.87
1248.482	368.01
1251.744	367.54
1255.006	369.64
1258.268	359.81
1261.529	356.42
1264.79	353.4
1268.051	351.66
1271.312	347.33
1274.572	343.7
1277.832	340.35
1281.092	334.23
1284.351	331.55
1287.61	331.61
1290.869	326.36
1294.128	325.03
1297.386	324.56
1300.644	321.13
1303.902	322.52
1307.159	320.67
1310.416	320.82
1313.673	320.52
1316.93	323.97
1320.186	324.12
1323.442	325.1
1326.697	330.6
1329.953	331.56
1333.208	333.24
1336.463	336.84
1339.717	337.35
1342.972	342.2
1346.226	344.28
1349.479	344.63
1352.733	346.83
1355.986	348.06
1359.238	347.65
1362.491	349.83
1365.743	353.12
1368.995	353.26
1372.247	352.12
1375.498	352.06
1378.749	354.37
1382	350.24
1385.251	351.84
1388.501	349.12
1391.751	351.61
1395	349.48
1398.25	346.24
1401.499	344.07
1404.748	343.33
1407.996	340.25
1411.244	338.44
1414.492	336.85
1417.74	335.11
1420.987	329.66
1424.234	329.57
1427.481	324.32
1430.728	324.4
1433.974	320.47
1437.22	318.15
1440.465	317.1
1443.711	315.38
1446.956	314.09
1450.201	309.11
1453.445	305.96
1456.689	305
1459.933	299.23
1463.177	297.22
1466.42	292.99
1469.663	290.07
1472.906	287.84
1476.148	281.07
1479.391	277.15
1482.633	274.01
1485.874	270.59
1489.115	268.73
1492.356	265.14
1495.597	265.35
1498.838	261.24
1502.078	259.26
1505.318	258.35
1508.557	257.98
1511.797	257.34
1515.036	255.96
1518.274	255.44
1521.513	252.76
1524.751	252.47
1527.989	252.01
1531.227	250.65
1534.464	251.6
1537.701	249.8
1540.938	248.87
1544.174	246.21
1547.41	245.92
1550.646	244.87
1553.882	245.13
1557.117	241.74
1560.352	240.31
1563.587	239.82
1566.821	238.11
1570.055	235.61
1573.289	234.2
1576.523	234.05
1579.756	232.07
1582.989	230.37
1586.222	230.45
1589.454	227.91
1592.686	230.33
1595.918	228.9
1599.15	227.95
1602.381	228.47
1605.612	227.89
1608.843	229.24
1612.073	228.55
1615.303	230.06
1618.533	230.62
1621.762	229.79
1624.992	230.5
1628.221	230.29
1631.449	230.48
1634.678	230.15
1637.906	230.45
1641.134	230.81
1644.361	229.8
1647.588	230.99
1650.815	229.66
1654.042	228.89
1657.269	229.98
1660.495	230.2
1663.72	228.88
1666.946	229.68
1670.171	230.2
1673.396	229.99
1676.621	229.98
1679.845	230.63
1683.069	229.74
1686.293	231.81
1689.517	233.12
1692.74	233.01
1695.963	233.85
1699.185	236.55
1702.408	236.91
1705.63	237.66
1708.852	238.73
1712.073	238.77
1715.294	238.84
1718.515	241.22
1721.736	240.5
1724.956	240.48
1728.176	240.58
1731.396	243.04
1734.616	241.58
1737.835	242.35
1741.054	240.73
1744.272	241.43
1747.491	243.98
1750.709	244.71
1753.927	244.03
1757.144	242.95
1760.361	244.89
1763.578	245.48
1766.795	244.2
1770.011	246.26
1773.227	246.19
1776.443	249.57
1779.658	250.64
1782.874	250.3
1786.089	251.06
1789.303	251.86
1792.518	255.12
1795.732	254.59
1798.945	257.27
1802.159	257.58
1805.372	258.5
1808.585	263.16
1811.797	263.79
1815.01	263.76
1818.222	265.54
1821.434	267.04
1824.645	268.58
1827.856	272.82
1831.067	275.56
1834.278	273.7
1837.488	275.86
1840.698	277.93
1843.908	274.8
1847.117	276.26
1850.326	278.19
1853.535	277.42
1856.744	281.89
1859.952	281.33
1863.16	279.96
1866.368	277.61
1869.575	282.13
1872.782	277.2
1875.989	275.91
1879.196	275.11
1882.402	273.46
1885.608	274.1
1888.814	275.04
1892.019	274.55
1895.224	273.63
1898.429	272.42
1901.634	273.9
1904.838	274
1908.042	277.79
1911.246	279.05
1914.449	280.84
1917.652	280.55
1920.855	280.41
1924.058	279.55
1927.26	277.68
1930.462	279.11
1933.664	282.65
1936.865	279.85
1940.066	279.48
1943.267	277.47
1946.467	277.23
1949.668	279.35
1952.868	282.73
1956.067	282.63
1959.267	283.34
1962.466	284.37
1965.665	282.78
1968.863	283.16
1972.061	287.45
1975.259	289.6
1978.457	292.82
1981.654	294.84
1984.852	295.35
1988.048	294.37
1991.245	296.67
1994.441	300.21
1997.637	302.84
2000.833	308.91
2004.028	312.78
2007.223	314.1
2010.418	317.56
2013.613	322.25
2016.807	325.84
2020.001	327.91
2023.194	333.25
2026.388	341.2
2029.581	348.79
2032.774	351.06
2035.966	357.61
2039.158	358.17
2042.35	366.14
2045.542	368.2
2048.733	374.24
2051.924	379.2
2055.115	386.71
2058.306	387.17
2061.496	391.47
2064.686	390.13
2067.875	398.97
2071.065	399.89
2074.254	398.21
2077.442	402.54
2080.631	404.55
2083.819	407.95
2087.007	408.7
2090.195	412.33
2093.382	415.68
2096.569	412.54
2099.756	420.77
2102.942	419.74
2106.128	424.96
2109.314	434
2112.5	432.13
2115.685	441.01
2118.87	442.12
2122.055	450.41
2125.239	454.96
2128.424	460.63
2131.608	464.25
2134.791	469.8
2137.974	471.72
2141.157	472.22
2144.34	473.45
2147.523	481.84
2150.705	477.92
2153.887	482.35
2157.068	483.4
2160.25	477.77
2163.431	480.68
2166.611	485.98
2169.792	495.1
2172.972	501.45
2176.152	504.71
2179.331	512.31
2182.511	519.86
2185.69	527
2188.868	537.37
2192.047	539.57
2195.225	556.19
2198.403	568.81
2201.58	578.96
2204.758	590.29
2207.935	602.75
2211.111	613.09
2214.288	619.64
2217.464	621.94
2220.64	631.1
2223.815	640.57
2226.991	665.51
2230.166	666.53
2233.34	680.34
2236.515	691.49
2239.689	690.82
2242.863	693.84
2246.036	717.35
2249.209	710.1
2252.382	721.37
2255.555	742.97
2258.727	744.83
2261.9	748.84
2265.071	756.26
2268.243	768.22
2271.414	777.42
2274.585	796.61
2277.756	802.67
2280.926	807.29
2284.096	826.06
2287.266	846.18
2290.436	850.78
2293.605	871.93
2296.774	898.03
2299.942	928.66
2303.111	931.02
2306.279	952.8
2309.447	966.06
2312.614	994.14
2315.781	1019.83
2318.948	1068.01
2322.115	1051.04
2325.281	1111.66
2328.447	1084
2331.613	1132.5
2334.779	1116.55
2337.944	1166.66
2341.109	1177.42
2344.274	1206.18
2347.438	1249.54
2350.602	1249.41
2353.766	1288.06
2356.929	1307.74
2360.092	1294.82
2363.255	1394.75
2366.418	1384.85
2369.58	1415.06
2372.742	1503.79
2375.904	1543.09
2379.066	1533.37
2382.227	1501.06
2385.388	1629.43
2388.548	1635.73
2391.709	1654.22
2394.869	1843.84
2398.029	1760.44
2401.188	1816.61
2404.347	1801.49
2407.506	1770.25
2410.665	1824.65
2413.823	1936.88
2416.981	2053.66
2420.139	1983.03
2423.296	1959.16
2426.453	2046.26
2429.61	1968.3
2432.767	2062.92
2435.923	2038.71
2439.079	2226.74
2442.235	2254.47
2445.391	2231.98
2448.546	2213.45
2451.701	2150.32
2454.855	2150.38
2458.009	2279.39
2461.163	2372.64
2464.317	2459.42
2467.471	2522.72
2470.624	2516.5
2473.777	2460.92
2476.929	2404.52
2480.082	2333.31
2483.234	2306.18
2486.385	2423.61
2489.537	2434.02
2492.688	2525.39
2495.839	2453.44
2498.989	2401.68
2502.14	2413.79
2505.29	2445.35
2508.439	2479.9
2511.589	2470.39
2514.738	2692.91
2517.887	2636.03
2521.035	2786.33
2524.183	2806.32
2527.331	2826.26
2530.479	2816.76
2533.627	2837.56
