Data from C_2_DIV_IL_4N_Splice17_13-40-35-904.txt Node
Date: Sat Mar 07 13:40:35 EST 2020
User: sa697716
Spectrometer: NQ5500242
Trigger mode: 0
Integration Time (sec): 1.450000E-1
Scans to average: 20
Nonlinearity correction enabled: false
Boxcar width: 5
Storing dark spectrum: false
XAxis mode: Wavelengths
Number of Pixels in Spectrum: 512
>>>>>Begin Spectral Data<<<<<
187.83	225.42
188.298	270.42
188.766	253.22
189.233	201.9
189.701	208.53
190.169	246.05
190.636	285.72
191.104	428.47
191.571	333.12
192.039	67.45
192.506	-75.78
192.974	-81.59
193.441	181.58
193.908	40.84
194.375	28.34
194.842	23.09
195.31	78.15
195.777	263.93
196.244	97.72
196.711	93.24
197.177	94.49
197.644	94.18
198.111	95.31
198.578	95.54
199.045	96.21
199.511	95.46
199.978	95.1
200.445	95.59
200.911	95.46
201.378	95.52
201.844	95.59
202.31	95.52
202.777	95.64
203.243	95.16
203.709	94.46
204.176	93.89
204.642	93.64
205.108	93.2
205.574	92.23
206.04	91.21
206.506	90.44
206.972	89.9
207.438	88.8
207.903	87.27
208.369	85.57
208.835	83.74
209.301	81.65
209.766	79.48
210.232	77.53
210.697	75.06
211.163	73.07
211.628	71.28
212.094	69.24
212.559	67.87
213.024	66.4
213.49	64.95
213.955	63.48
214.42	62.01
214.885	59.97
215.35	57.44
215.815	54.81
216.28	50.96
216.745	46.71
217.21	42.54
217.675	38.5
218.14	35.06
218.604	32.13
219.069	29.68
219.534	27.69
219.998	26.06
220.463	24.72
220.927	23.45
221.392	22.54
221.856	21.77
222.32	21.09
222.785	20.49
223.249	19.95
223.713	19.43
224.177	19.03
224.642	18.61
225.106	18.18
225.57	17.75
226.034	17.45
226.497	17.12
226.961	16.79
227.425	16.5
227.889	16.24
228.353	15.96
228.816	15.7
229.28	15.44
229.744	15.19
230.207	14.99
230.671	14.76
231.134	14.53
231.597	14.34
232.061	14.13
232.524	13.93
232.987	13.71
233.45	13.55
233.914	13.38
234.377	13.2
234.84	13.02
235.303	12.86
235.766	12.73
236.229	12.58
236.691	12.43
237.154	12.3
237.617	12.18
238.08	12.07
238.542	11.94
239.005	11.82
239.468	11.69
239.93	11.58
240.393	11.48
240.855	11.34
241.317	11.23
241.78	11.11
242.242	10.99
242.704	10.89
243.166	10.78
243.629	10.68
244.091	10.57
244.553	10.48
245.015	10.38
245.477	10.26
245.939	10.17
246.4	10.08
246.862	9.99
247.324	9.9
247.786	9.8
248.247	9.71
248.709	9.61
249.17	9.52
249.632	9.46
250.093	9.38
250.555	9.31
251.016	9.24
251.477	9.16
251.939	9.1
252.4	9.04
252.861	8.97
253.322	8.92
253.783	8.86
254.244	8.82
254.705	8.74
255.166	8.67
255.627	8.61
256.088	8.56
256.549	8.5
257.009	8.42
257.47	8.35
257.931	8.29
258.391	8.2
258.852	8.13
259.312	8.05
259.773	8
260.233	7.94
260.694	7.88
261.154	7.81
261.614	7.76
262.074	7.7
262.534	7.65
262.994	7.6
263.455	7.57
263.915	7.52
264.374	7.48
264.834	7.45
265.294	7.41
265.754	7.37
266.214	7.34
266.673	7.32
267.133	7.29
267.593	7.26
268.052	7.24
268.512	7.22
268.971	7.21
269.431	7.18
269.89	7.16
270.349	7.14
270.809	7.12
271.268	7.1
271.727	7.08
272.186	7.07
272.645	7.05
273.104	7.03
273.563	7.01
274.022	6.99
274.481	6.97
274.94	6.96
275.399	6.94
275.857	6.92
276.316	6.9
276.775	6.88
277.233	6.86
277.692	6.85
278.15	6.84
278.609	6.83
279.067	6.82
279.525	6.81
279.984	6.79
280.442	6.78
280.9	6.78
281.358	6.78
281.816	6.77
282.274	6.76
282.732	6.74
283.19	6.73
283.648	6.71
284.106	6.7
284.564	6.68
285.021	6.68
285.479	6.66
285.937	6.63
286.394	6.61
286.852	6.58
287.309	6.56
287.767	6.53
288.224	6.49
288.682	6.46
289.139	6.43
289.596	6.39
290.053	6.35
290.511	6.31
290.968	6.29
291.425	6.25
291.882	6.23
292.339	6.2
292.796	6.19
293.252	6.17
293.709	6.15
294.166	6.14
294.623	6.12
295.079	6.11
295.536	6.09
295.992	6.08
296.449	6.07
296.905	6.06
297.362	6.05
297.818	6.03
298.274	6.02
298.731	6
299.187	5.98
299.643	5.97
300.099	5.97
300.555	5.96
301.011	5.94
301.467	5.94
301.923	5.92
302.379	5.91
302.835	5.91
303.291	5.9
303.746	5.89
304.202	5.89
304.658	5.89
305.113	5.88
305.569	5.89
306.024	5.88
306.479	5.88
306.935	5.87
307.39	5.88
307.845	5.87
308.301	5.89
308.756	5.89
309.211	5.89
309.666	5.89
310.121	5.89
310.576	5.88
311.031	5.88
311.486	5.87
311.94	5.88
312.395	5.87
312.85	5.86
313.305	5.86
313.759	5.86
314.214	5.85
314.668	5.84
315.123	5.83
315.577	5.82
316.032	5.82
316.486	5.8
316.94	5.79
317.394	5.78
317.849	5.76
318.303	5.73
318.757	5.71
319.211	5.69
319.665	5.68
320.119	5.66
320.572	5.64
321.026	5.63
321.48	5.61
321.934	5.6
322.387	5.59
322.841	5.58
323.295	5.59
323.748	5.58
324.202	5.58
324.655	5.58
325.108	5.58
325.562	5.58
326.015	5.57
326.468	5.56
326.921	5.57
327.374	5.56
327.827	5.58
328.28	5.57
328.733	5.57
329.186	5.56
329.639	5.57
330.092	5.56
330.545	5.57
330.997	5.57
331.45	5.59
331.903	5.59
332.355	5.6
332.808	5.6
333.26	5.6
333.713	5.6
334.165	5.6
334.617	5.6
335.069	5.59
335.522	5.59
335.974	5.59
336.426	5.57
336.878	5.56
337.33	5.56
337.782	5.56
338.234	5.56
338.686	5.56
339.137	5.56
339.589	5.54
340.041	5.55
340.493	5.52
340.944	5.5
341.396	5.49
341.847	5.47
342.299	5.44
342.75	5.42
343.201	5.38
343.653	5.36
344.104	5.32
344.555	5.31
345.006	5.29
345.457	5.28
345.908	5.27
346.359	5.26
346.81	5.25
347.261	5.23
347.712	5.23
348.163	5.23
348.613	5.24
349.064	5.24
349.515	5.23
349.965	5.24
350.416	5.23
350.866	5.23
351.317	5.22
351.767	5.23
352.217	5.24
352.668	5.23
353.118	5.23
353.568	5.22
354.018	5.23
354.468	5.23
354.918	5.23
355.368	5.24
355.818	5.25
356.268	5.26
356.718	5.26
357.168	5.25
357.617	5.25
358.067	5.25
358.517	5.26
358.966	5.26
359.416	5.27
359.865	5.25
360.315	5.25
360.764	5.24
361.213	5.24
361.663	5.23
362.112	5.24
362.561	5.24
363.01	5.24
363.459	5.21
363.908	5.21
364.357	5.2
364.806	5.2
365.255	5.2
365.703	5.21
366.152	5.21
366.601	5.22
367.05	5.22
367.498	5.22
367.947	5.22
368.395	5.23
368.844	5.23
369.292	5.23
369.74	5.23
370.189	5.21
370.637	5.2
371.085	5.19
371.533	5.18
371.981	5.18
372.429	5.18
372.877	5.18
373.325	5.18
373.773	5.17
374.221	5.17
374.669	5.16
375.116	5.16
375.564	5.15
376.012	5.16
376.459	5.15
376.907	5.15
377.354	5.14
377.801	5.15
378.249	5.15
378.696	5.15
379.143	5.15
379.591	5.15
380.038	5.15
380.485	5.15
380.932	5.15
381.379	5.16
381.826	5.15
382.273	5.17
382.72	5.14
383.166	5.14
383.613	5.14
384.06	5.14
384.506	5.15
384.953	5.15
385.4	5.16
385.846	5.17
386.292	5.17
386.739	5.18
387.185	5.18
387.631	5.19
388.078	5.22
388.524	5.23
388.97	5.24
389.416	5.27
389.862	5.3
390.308	5.32
390.754	5.35
391.2	5.38
391.645	5.41
392.091	5.46
392.537	5.5
392.983	5.52
393.428	5.55
393.874	5.58
394.319	5.61
394.765	5.63
395.21	5.65
395.655	5.69
396.101	5.72
396.546	5.74
396.991	5.77
397.436	5.81
397.881	5.85
398.326	5.89
398.771	5.93
399.216	5.96
399.661	6
400.106	6.03
400.551	6.06
400.995	6.07
401.44	6.1
401.885	6.13
402.329	6.16
402.774	6.19
403.218	6.24
403.663	6.27
404.107	6.3
404.551	6.32
404.995	6.35
405.44	6.38
405.884	6.43
406.328	6.46
406.772	6.48
407.216	6.51
407.66	6.53
408.104	6.54
408.547	6.55
408.991	6.59
409.435	6.63
409.879	6.67
410.322	6.72
410.766	6.76
411.209	6.81
411.653	6.86
412.096	6.91
412.54	6.95
412.983	7.01
413.426	7.09
413.869	7.14
414.312	7.19
414.756	7.23
415.199	7.25
415.642	7.27
416.085	7.28
416.527	7.3
416.97	7.3
417.413	7.32
417.856	7.31
418.298	7.3
418.741	7.3
419.184	7.3
419.626	7.3
420.069	7.32
420.511	7.34
420.953	7.36
421.396	7.39
421.838	7.41
422.28	7.44
422.722	7.48
423.164	7.5
423.606	7.51
424.048	7.54
424.49	7.55
424.932	7.54
425.374	7.52
425.816	7.49
426.258	7.49
426.699	7.48
427.141	7.48
427.582	7.49
428.024	7.51
428.465	7.53
428.907	7.53
429.348	7.51
429.789	7.53
430.231	7.59
430.672	7.63
431.113	7.68
431.554	7.7
431.995	7.72
432.436	7.72
432.877	7.74
433.318	7.77
433.759	7.82
434.2	7.87
434.64	7.9
435.081	7.9
435.522	7.92
435.962	7.93
436.403	7.98
436.843	7.99
437.284	8
437.724	8.01
438.164	7.98
438.604	8
439.045	8.01
439.485	8.03
439.925	8.06
440.365	8.05
440.805	8.06
441.245	8.07
441.685	8.11
442.125	8.15
442.564	8.17
443.004	8.2
443.444	8.21
443.883	8.23
444.323	8.23
444.762	8.24
445.202	8.26
445.641	8.3
446.081	8.32
446.52	8.3
446.959	8.33
447.398	8.35
447.837	8.37
448.276	8.39
448.716	8.41
449.154	8.43
449.593	8.47
450.032	8.47
450.471	8.45
450.91	8.45
451.349	8.47
451.787	8.43
452.226	8.42
452.664	8.4
453.103	8.37
453.541	8.35
453.98	8.34
454.418	8.3
454.856	8.28
455.295	8.28
455.733	8.24
456.171	8.22
456.609	8.21
457.047	8.19
457.485	8.18
457.923	8.17
458.361	8.15
458.798	8.13
459.236	8.13
459.674	8.12
460.111	8.11
460.549	8.14
460.987	8.14
461.424	8.15
461.862	8.16
462.299	8.16
462.736	8.16
463.173	8.19
463.611	8.2
464.048	8.22
464.485	8.23
464.922	8.24
465.359	8.24
465.796	8.27
466.233	8.28
466.67	8.28
467.106	8.29
467.543	8.29
467.98	8.28
468.416	8.25
468.853	8.25
469.29	8.25
469.726	8.25
470.162	8.24
470.599	8.2
471.035	8.2
471.471	8.18
471.907	8.16
472.344	8.17
472.78	8.17
473.216	8.16
473.652	8.15
474.088	8.12
474.523	8.12
474.959	8.1
475.395	8.09
475.831	8.07
476.266	8.06
476.702	8.04
477.138	8.04
477.573	8.01
478.008	8
478.444	7.98
478.879	7.99
479.314	7.97
479.75	7.95
480.185	7.94
480.62	7.92
481.055	7.9
481.49	7.9
481.925	7.88
482.36	7.87
482.795	7.87
483.229	7.87
483.664	7.86
484.099	7.86
484.534	7.86
484.968	7.88
485.403	7.88
485.837	7.88
486.271	7.89
486.706	7.9
487.14	7.9
487.574	7.91
488.009	7.92
488.443	7.94
488.877	7.97
489.311	7.99
489.745	8.01
490.179	8.05
490.613	8.09
491.046	8.12
491.48	8.15
491.914	8.2
492.348	8.24
492.781	8.28
493.215	8.33
493.648	8.37
494.082	8.42
494.515	8.46
494.948	8.51
495.382	8.56
495.815	8.62
496.248	8.68
496.681	8.74
497.114	8.81
497.547	8.89
497.98	8.97
498.413	9.05
498.846	9.13
499.279	9.21
499.711	9.3
500.144	9.39
500.577	9.49
501.009	9.59
501.442	9.71
501.874	9.82
502.306	9.92
502.739	10.06
503.171	10.18
503.603	10.31
504.036	10.46
504.468	10.6
504.9	10.74
505.332	10.91
505.764	11.08
506.196	11.24
506.627	11.43
507.059	11.61
507.491	11.78
507.923	11.97
508.354	12.18
508.786	12.38
509.217	12.61
509.649	12.84
510.08	13.06
510.512	13.29
510.943	13.52
511.374	13.77
511.805	14.02
512.237	14.28
512.668	14.55
513.099	14.82
513.53	15.09
513.961	15.37
514.391	15.65
514.822	15.96
515.253	16.24
515.684	16.53
516.114	16.83
516.545	17.13
516.975	17.44
517.406	17.74
517.836	18.05
518.267	18.34
518.697	18.63
519.127	18.91
519.558	19.2
519.988	19.49
520.418	19.77
520.848	20.05
521.278	20.34
521.708	20.87
522.138	21.15
522.567	21.42
522.997	21.69
523.427	21.97
523.857	22.23
524.286	22.48
524.716	22.75
525.145	23.01
525.575	23.25
526.004	23.48
526.433	23.46
526.863	23.68
527.292	23.91
527.721	24.11
528.15	24.3
528.579	24.49
529.008	24.68
529.437	24.84
529.866	24.99
530.295	25.14
530.724	25.3
531.152	25.44
531.581	25.59
532.01	25.71
532.438	25.86
532.867	25.99
533.295	26.12
533.723	26.23
534.152	26.34
534.58	26.46
535.008	26.54
535.436	26.63
535.865	26.73
536.293	26.81
536.721	26.88
537.149	26.95
537.576	27.02
538.004	27.1
538.432	27.17
538.86	27.25
539.287	27.31
539.715	27.38
540.143	27.43
540.57	27.48
540.998	27.53
541.425	27.59
541.852	27.64
542.28	27.69
542.707	27.74
543.134	27.79
543.561	27.83
543.988	27.88
544.415	27.92
544.842	27.95
545.269	28
545.696	28.04
546.123	28.08
546.549	28.12
546.976	28.15
547.403	28.19
547.829	28.22
548.256	28.24
548.682	28.26
549.108	28.31
549.535	28.36
549.961	28.38
550.387	28.4
550.813	28.42
551.24	28.43
551.666	28.44
552.092	28.44
552.518	28.44
552.943	28.45
553.369	28.46
553.795	28.43
554.221	28.41
554.646	28.4
555.072	28.36
555.498	28.32
555.923	28.3
556.349	28.23
556.774	28.18
557.199	28.12
557.625	28.07
558.05	27.99
558.475	27.93
558.9	27.88
559.325	27.81
559.75	27.74
560.175	27.66
560.6	27.57
561.025	27.49
561.449	27.38
561.874	27.28
562.299	27.18
562.723	27.07
563.148	26.93
563.572	26.79
563.997	26.65
564.421	26.5
564.846	26.35
565.27	26.21
565.694	26.08
566.118	25.95
566.542	25.81
566.966	25.65
567.39	25.5
567.814	25.36
568.238	25.21
568.662	25.07
569.086	24.92
569.509	24.79
569.933	24.67
570.357	24.52
570.78	24.37
571.204	24.23
571.627	24.1
572.05	23.95
572.474	23.83
572.897	23.7
573.32	23.58
573.743	23.46
574.166	23.34
574.589	23.21
575.012	23.08
575.435	22.96
575.858	22.85
576.281	22.74
576.704	22.65
577.126	22.55
577.549	22.45
577.972	22.34
578.394	22.23
578.817	22.13
579.239	22.03
579.661	21.94
580.084	21.86
580.506	21.77
580.928	21.68
581.35	21.6
581.772	21.51
582.194	21.44
582.616	21.37
583.038	21.29
583.46	21.21
583.882	21.14
584.303	21.04
584.725	20.96
585.147	20.91
585.568	20.84
585.99	20.77
586.411	20.71
586.833	20.63
587.254	20.56
587.675	20.5
588.096	20.44
588.518	20.39
588.939	20.36
589.36	20.3
589.781	20.22
590.202	20.19
590.623	20.14
591.043	20.07
591.464	20.03
591.885	19.99
592.305	19.96
592.726	19.93
593.147	19.89
593.567	19.83
593.987	19.8
594.408	19.77
594.828	19.71
595.248	19.69
595.669	19.66
596.089	19.63
596.509	19.59
596.929	19.56
597.349	19.51
597.769	19.48
598.189	19.44
598.608	19.4
599.028	19.37
599.448	19.33
599.867	19.29
600.287	19.25
600.706	19.2
601.126	19.15
601.545	19.1
601.965	19.06
602.384	19.02
602.803	18.97
603.222	18.92
603.641	18.85
604.061	18.79
604.48	18.72
604.898	18.64
605.317	18.58
605.736	18.52
606.155	18.44
606.574	18.36
606.992	18.27
607.411	18.19
607.829	18.08
608.248	18
608.666	17.91
609.085	17.83
609.503	17.76
609.921	17.66
610.339	17.58
610.758	17.5
611.176	17.4
611.594	17.34
612.012	17.25
612.43	17.19
612.847	17.1
613.265	17.01
613.683	16.93
614.101	16.85
614.518	16.77
614.936	16.7
615.353	16.6
615.771	16.54
616.188	16.45
616.606	16.38
617.023	16.33
617.44	16.28
617.857	16.22
618.274	16.17
618.691	16.11
619.108	16.06
619.525	16.01
619.942	15.97
620.359	15.94
620.776	15.91
621.192	15.87
621.609	15.83
622.026	15.79
622.442	15.76
622.859	15.73
623.275	15.7
623.691	15.67
624.108	15.65
624.524	15.63
624.94	15.61
625.356	15.59
625.772	15.57
626.188	15.57
626.604	15.57
627.02	15.56
627.436	15.56
627.852	15.55
628.268	15.54
628.683	15.54
629.099	15.52
629.514	15.51
629.93	15.51
630.345	15.49
630.761	15.45
631.176	15.42
631.591	15.39
632.007	15.37
632.422	15.31
632.837	15.26
633.252	15.21
633.667	15.15
634.082	15.08
634.497	15.01
634.911	14.94
635.326	14.88
635.741	14.79
636.155	14.7
636.57	14.6
636.984	14.52
637.399	14.43
637.813	14.33
638.228	14.23
638.642	14.11
639.056	13.99
639.47	13.88
639.884	13.75
640.298	13.62
640.712	13.5
641.126	13.38
641.54	13.26
641.954	13.13
642.368	13
642.781	12.88
643.195	12.77
643.609	12.65
644.022	12.53
644.436	12.42
644.849	12.32
645.262	12.21
645.676	12.11
646.089	12.02
646.502	11.93
646.915	11.85
647.328	11.77
647.741	11.7
648.154	11.63
648.567	11.58
648.98	11.52
649.393	11.45
649.805	11.41
650.218	11.34
650.631	11.3
651.043	11.25
651.456	11.19
651.868	11.13
652.28	11.09
652.693	11.04
653.105	10.97
653.517	10.91
653.929	10.85
654.341	10.79
654.753	10.72
655.165	10.64
655.577	10.58
655.989	10.5
656.401	10.42
656.813	10.33
657.224	10.23
657.636	10.13
658.047	10.05
658.459	9.94
658.87	9.83
659.282	9.73
659.693	9.63
660.104	9.51
660.515	9.41
660.926	9.31
661.338	9.21
661.749	9.12
662.159	9.03
662.57	8.95
662.981	8.87
663.392	8.8
663.803	8.72
664.213	8.64
664.624	8.58
665.035	8.5
665.445	8.44
665.855	8.37
666.266	8.32
666.676	8.27
667.086	8.2
667.497	8.14
667.907	8.11
668.317	8.08
668.727	8.06
669.137	8.02
669.547	8
669.956	7.98
670.366	7.97
670.776	7.95
671.186	7.94
671.595	7.94
672.005	7.93
672.414	7.92
672.824	7.91
673.233	7.91
673.642	7.91
674.052	7.92
674.461	7.91
674.87	7.92
675.279	7.95
675.688	7.96
676.097	7.97
676.506	8
676.915	8.03
677.323	8.06
677.732	8.09
678.141	8.12
678.549	8.16
678.958	8.21
679.366	8.27
679.775	8.32
680.183	8.39
680.592	8.49
681	8.58
681.408	8.68
681.816	8.8
682.224	8.93
682.632	9.07
683.04	9.24
683.448	9.41
683.856	9.59
684.264	9.8
684.671	10.03
685.079	10.26
685.487	10.53
685.894	10.83
686.302	11.15
686.709	11.49
687.116	11.87
687.524	12.26
687.931	12.68
688.338	13.13
688.745	13.6
689.152	14.08
689.559	14.61
689.966	15.14
690.373	15.69
690.78	16.27
691.187	16.84
691.593	17.44
692	18.03
692.407	18.64
692.813	19.26
693.22	19.89
693.626	20.53
694.032	21.17
694.439	21.8
694.845	22.42
695.251	23.04
695.657	23.67
696.063	24.29
696.469	24.92
696.875	25.55
697.281	26.16
697.687	26.77
698.093	27.36
698.498	27.94
698.904	28.5
699.31	29.06
699.715	29.62
700.12	30.18
700.526	30.71
700.931	31.24
701.337	31.75
701.742	32.26
702.147	32.75
702.552	33.24
702.957	33.68
703.362	34.15
703.767	34.59
704.172	35.02
704.577	35.45
704.981	35.89
705.386	36.3
705.791	36.69
706.195	37.09
706.6	37.5
707.004	37.87
707.408	38.26
707.813	38.67
708.217	39.03
708.621	39.39
709.025	39.72
709.43	40.06
709.834	40.41
710.237	40.76
710.641	41.06
711.045	41.37
711.449	41.7
711.853	42.04
712.256	42.3
712.66	42.62
713.064	42.92
713.467	43.24
713.87	43.55
714.274	43.81
714.677	44.1
715.08	44.39
715.484	44.65
715.887	44.95
716.29	45.19
716.693	45.48
717.096	45.71
717.499	45.95
717.901	46.2
718.304	46.4
718.707	46.64
719.109	46.85
719.512	47.07
719.915	47.3
720.317	47.46
720.719	47.63
721.122	47.83
721.524	48.02
721.926	48.22
722.328	48.4
722.731	48.56
723.133	48.73
723.535	48.9
723.937	49.06
724.338	49.19
724.74	49.35
725.142	49.67
725.544	49.79
725.945	49.96
726.347	50.06
726.748	50.16
727.15	50.27
727.551	50.4
727.952	50.5
728.354	50.58
728.755	50.7
729.156	50.79
729.557	50.71
729.958	50.79
730.359	50.86
730.76	50.97
731.161	51.08
731.562	51.19
731.962	51.24
732.363	51.35
732.763	51.43
733.164	51.49
733.564	51.57
733.965	51.65
734.365	51.74
734.766	51.81
735.166	51.86
735.566	51.9
735.966	51.95
736.366	52.02
736.766	52.04
737.166	52.1
737.566	52.15
737.966	52.19
738.365	52.23
738.765	52.28
739.165	52.31
739.564	52.36
739.964	52.42
740.363	52.46
740.763	52.48
741.162	52.53
741.561	52.54
741.96	52.56
742.36	52.59
742.759	52.63
743.158	52.66
743.557	52.67
743.955	52.7
744.354	52.68
744.753	52.7
745.152	52.74
745.55	52.77
745.949	52.8
746.348	52.82
746.746	52.84
747.144	52.85
747.543	52.84
747.941	52.86
748.339	52.84
748.737	52.86
749.136	52.85
749.534	52.8
749.932	52.79
750.33	52.79
750.727	52.8
751.125	52.82
751.523	52.82
751.921	52.82
752.318	52.85
752.716	52.88
753.113	52.9
753.511	52.92
753.908	52.97
754.305	53
754.703	53.03
755.1	53.05
755.497	53.05
755.894	53.05
756.291	53.07
756.688	53.05
757.085	53.07
757.482	53.09
757.878	53.11
758.275	53.12
758.672	53.12
759.068	53.14
759.465	53.14
759.861	53.15
760.258	53.19
760.654	53.2
761.05	53.24
761.447	53.25
761.843	53.23
762.239	53.23
762.635	53.24
763.031	53.24
763.427	53.22
763.822	53.24
764.218	53.27
764.614	53.27
765.01	53.24
765.405	53.22
765.801	53.23
766.196	53.21
766.592	53.23
766.987	53.24
767.382	53.23
767.778	53.22
768.173	53.23
768.568	53.21
768.963	53.2
769.358	53.25
769.753	53.26
770.148	53.25
770.542	53.29
770.937	53.29
771.332	53.29
771.726	53.31
772.121	53.3
772.515	53.29
772.91	53.29
773.304	53.3
773.699	53.3
774.093	53.29
774.487	53.29
774.881	53.3
775.275	53.28
775.669	53.27
776.063	53.25
776.457	53.27
776.851	53.28
777.245	53.26
777.638	53.25
778.032	53.24
778.425	53.28
778.819	53.3
779.212	53.29
779.606	53.31
779.999	53.31
780.392	53.36
780.786	53.33
781.179	53.33
781.572	53.38
781.965	53.4
782.358	53.4
782.751	53.39
783.143	53.37
783.536	53.36
783.929	53.33
784.322	53.35
784.714	53.35
785.107	53.41
785.499	53.43
785.891	53.42
786.284	53.44
786.676	53.45
787.068	53.44
787.46	53.47
787.852	53.5
788.245	53.51
788.636	53.49
789.028	53.47
789.42	53.45
789.812	53.45
790.204	53.46
790.595	53.45
790.987	53.47
791.378	53.49
791.77	53.5
792.161	53.49
792.553	53.52
792.944	53.54
793.335	53.55
793.726	53.58
794.117	53.57
794.508	53.54
794.899	53.54
795.29	53.51
795.681	53.5
796.072	53.48
796.463	53.53
796.853	53.51
797.244	53.54
797.634	53.52
798.025	53.57
798.415	53.56
798.806	53.56
799.196	53.59
799.586	53.62
799.976	53.61
800.366	53.62
800.756	53.59
801.146	53.65
801.536	53.67
801.926	53.69
802.316	53.64
802.706	53.67
803.095	53.68
803.485	53.66
803.874	53.64
804.264	53.65
804.653	53.64
805.043	53.66
805.432	53.62
805.821	53.59
806.21	53.59
806.599	53.6
806.988	53.59
807.377	53.58
807.766	53.58
808.155	53.56
808.544	53.55
808.933	53.55
809.321	53.52
809.71	53.51
810.098	53.49
810.487	53.46
810.875	53.45
811.264	53.44
811.652	53.48
812.04	53.45
812.428	53.5
812.816	53.5
813.204	53.5
813.592	53.48
813.98	53.51
814.368	53.49
814.756	53.51
815.144	53.5
815.531	53.51
815.919	53.49
816.306	53.51
816.694	53.46
817.081	53.46
817.469	53.47
817.856	53.49
818.243	53.47
818.63	53.47
819.017	53.46
819.404	53.46
819.791	53.43
820.178	53.41
820.565	53.4
820.952	53.42
821.339	53.41
821.725	53.41
822.112	53.4
822.498	53.4
822.885	53.41
823.271	53.42
823.657	53.39
824.044	53.41
824.43	53.41
824.816	53.43
825.202	53.4
825.588	53.39
825.974	53.4
826.36	53.39
826.746	53.36
827.132	53.34
827.517	53.34
827.903	53.37
828.289	53.37
828.674	53.39
829.06	53.35
829.445	53.33
829.83	53.34
830.216	53.33
830.601	53.34
830.986	53.37
831.371	53.37
831.756	53.37
832.141	53.37
832.526	53.36
832.911	53.34
833.295	53.34
833.68	53.35
834.065	53.34
834.449	53.31
834.834	53.31
835.218	53.28
835.603	53.26
835.987	53.23
836.371	53.21
836.755	53.19
837.139	53.16
837.524	53.17
837.908	53.2
838.291	53.22
838.675	53.22
839.059	53.21
839.443	53.19
839.827	53.21
840.21	53.2
840.594	53.2
840.977	53.19
841.361	53.22
841.744	53.18
842.127	53.13
842.511	53.1
842.894	53.07
843.277	53.04
843.66	53.03
844.043	53.03
844.426	53.02
844.809	53.01
845.191	53
845.574	52.97
845.957	53
846.339	53.03
846.722	53.02
847.104	53.05
847.487	53.07
847.869	53.08
848.252	53.06
848.634	53.08
849.016	53.08
849.398	53.1
849.78	53.1
850.162	53.07
850.544	53.06
850.926	53.06
851.307	53.05
851.689	53.05
852.071	53.04
852.452	53.06
852.834	53.04
853.215	53.02
853.597	53.03
853.978	53.03
854.359	53.06
854.741	53.08
855.122	53.07
855.503	53.07
855.884	53.03
856.265	53.06
856.646	53.03
857.026	53.05
857.407	53.08
857.788	53.04
858.169	53.05
858.549	53.03
858.93	53
859.31	53.02
859.69	53.03
860.071	53.08
860.451	53.05
860.831	53.07
861.211	53.04
861.591	53.01
861.971	53.03
862.351	53.04
862.731	53.05
863.111	53.07
863.491	53.07
863.87	53.05
864.25	53.02
864.629	53.04
865.009	53.06
865.388	53.08
865.768	53.1
866.147	53.12
866.526	53.14
866.905	53.12
867.284	53.14
867.663	53.11
868.042	53.13
868.421	53.16
868.8	53.15
869.179	53.15
869.558	53.14
869.936	53.14
870.315	53.13
870.693	53.14
871.072	53.16
871.45	53.17
871.828	53.21
872.207	53.23
872.585	53.18
872.963	53.18
873.341	53.17
873.719	53.19
874.097	53.18
874.475	53.18
874.853	53.18
875.23	53.19
875.608	53.18
875.986	53.18
876.363	53.18
876.741	53.23
877.118	53.25
877.495	53.26
877.873	53.25
878.25	53.27
878.627	53.28
879.004	53.25
879.381	53.22
879.758	53.18
880.135	53.18
880.512	53.14
880.889	53.11
881.265	53.07
881.642	53.04
882.019	53.02
882.395	52.99
882.772	52.97
883.148	52.97
883.524	52.97
883.901	52.98
884.277	52.92
884.653	52.91
885.029	52.88
885.405	52.89
885.781	52.88
886.157	52.86
886.532	52.85
886.908	52.81
887.284	52.79
887.659	52.72
888.035	52.69
888.411	52.69
888.786	52.69
889.161	52.71
889.537	52.7
889.912	52.69
890.287	52.68
890.662	52.68
891.037	52.72
891.412	52.72
891.787	52.73
892.162	52.74
892.536	52.74
892.911	52.74
893.286	52.72
893.66	52.71
894.035	52.72
894.409	52.71
894.784	52.72
895.158	52.7
895.532	52.7
895.906	52.72
896.281	52.72
896.655	52.73
897.029	52.74
897.402	52.75
897.776	52.77
898.15	52.8
898.524	52.84
898.898	52.84
899.271	52.86
899.645	52.9
900.018	52.93
900.392	52.95
900.765	52.97
901.138	52.96
901.511	53
901.884	53.02
902.258	53.02
902.631	53.03
903.003	53.06
903.376	53.05
903.749	53.03
904.122	53.04
904.495	53.05
904.867	53.05
905.24	53.1
905.612	53.1
905.985	53.07
906.357	53.06
906.729	53.09
907.102	53.07
907.474	53.09
907.846	53.11
908.218	53.09
908.59	53.14
908.962	53.14
909.334	53.16
909.705	53.17
910.077	53.21
910.449	53.23
910.82	53.23
911.192	53.26
911.563	53.25
911.935	53.26
912.306	53.3
912.677	53.29
913.048	53.34
913.419	53.32
913.79	53.31
914.161	53.3
914.532	53.27
914.903	53.28
915.274	53.3
915.645	53.34
916.015	53.33
916.386	53.35
916.756	53.33
917.127	53.33
917.497	53.34
917.868	53.34
918.238	53.36
918.608	53.43
918.978	53.42
919.348	53.44
919.718	53.44
920.088	53.47
920.458	53.45
920.828	53.43
921.198	53.42
921.567	53.43
921.937	53.45
922.306	53.47
922.676	53.43
923.045	53.44
923.415	53.4
923.784	53.39
924.153	53.42
924.522	53.44
924.891	53.45
925.26	53.47
925.629	53.52
925.998	53.54
926.367	53.54
926.736	53.56
927.104	53.57
927.473	53.57
927.842	53.53
928.21	53.5
928.578	53.46
928.947	53.5
929.315	53.46
929.683	53.42
930.051	53.39
930.42	53.41
930.788	53.37
931.156	53.36
931.523	53.38
931.891	53.45
932.259	53.49
932.627	53.55
932.994	53.59
933.362	53.63
933.729	53.66
934.097	53.72
934.464	53.77
934.831	53.83
935.199	53.9
935.566	53.98
935.933	53.98
936.3	53.99
936.667	54.04
937.034	54.11
937.401	54.19
937.767	54.23
938.134	54.27
938.501	54.3
938.867	54.38
939.234	54.41
939.6	54.42
939.967	54.48
940.333	54.5
940.699	54.48
941.065	54.41
941.431	54.34
941.798	54.37
942.163	54.31
942.529	54.25
942.895	54.2
943.261	54.09
943.627	54.02
943.992	53.99
944.358	53.94
944.723	53.86
945.089	53.79
945.454	53.83
945.82	53.75
946.185	53.72
946.55	53.67
946.915	53.64
947.28	53.61
947.645	53.63
948.01	53.65
948.375	53.69
948.74	53.67
949.104	53.69
949.469	53.56
949.834	53.52
950.198	53.52
950.562	53.46
950.927	53.44
951.291	53.37
951.655	53.26
952.02	53.2
952.384	53.11
952.748	53.11
953.112	53.05
953.476	53.01
953.839	53.01
954.203	52.98
954.567	53
954.931	52.91
955.294	52.9
955.658	53.01
956.021	52.96
956.385	52.93
956.748	52.88
957.111	52.88
957.474	52.85
957.837	52.78
958.2	52.75
958.563	52.75
958.926	52.84
959.289	52.9
959.652	52.79
960.015	52.78
960.377	52.81
960.74	52.86
961.102	52.86
961.465	53.01
961.827	53.11
962.189	53.17
962.552	53.15
962.914	53.13
963.276	53.16
963.638	53.2
964	53.21
964.362	53.23
964.724	53.18
965.085	53.19
965.447	53.12
965.809	53.06
966.17	53.03
966.532	53.07
966.893	53.05
967.255	53.03
967.616	53.01
967.977	53.06
968.338	53.04
968.699	53.09
969.061	53.09
969.421	53.11
969.782	53.18
970.143	53.22
970.504	53.25
970.865	53.34
971.225	53.3
971.586	53.33
971.946	53.3
972.307	53.29
972.667	53.23
973.027	53.29
973.388	53.32
973.748	53.32
974.108	53.35
974.468	53.31
974.828	53.34
975.188	53.4
975.548	53.4
975.907	53.45
976.267	53.45
976.627	53.53
976.986	53.48
977.346	53.47
977.705	53.45
978.064	53.43
978.424	53.48
978.783	53.41
979.142	53.42
979.501	53.52
979.86	53.57
980.219	53.59
980.578	53.62
980.937	53.7
981.296	53.64
981.654	53.68
982.013	53.71
982.371	53.74
982.73	53.79
983.088	53.73
983.447	53.69
983.805	53.7
984.163	53.77
984.521	53.79
984.879	53.71
985.237	53.81
985.595	53.9
985.953	53.94
986.311	53.96
986.669	53.95
987.026	54.02
987.384	54.08
987.741	54.02
988.099	54.09
988.456	54.15
988.814	54.25
989.171	54.28
989.528	54.26
989.885	54.24
990.242	54.26
990.599	54.37
990.956	54.45
991.313	54.46
991.67	54.66
992.027	54.84
992.383	54.9
992.74	55.01
993.096	55.12
993.453	55.08
993.809	55.11
994.165	55.23
994.522	55.33
994.878	55.41
995.234	55.44
995.59	55.32
995.946	55.22
996.302	55.21
996.658	55.17
997.013	55.19
997.369	55.34
997.725	55.59
998.08	55.64
998.436	55.61
998.791	55.66
999.147	55.78
999.502	55.89
999.857	55.88
1000.212	55.92
1000.567	56.03
1000.922	55.99
1001.277	56.04
1001.632	55.94
1001.987	55.87
1002.342	55.89
1002.696	55.9
1003.051	56.1
1003.406	56.28
1003.76	56.42
1004.114	56.48
1004.469	56.65
1004.823	56.96
1005.177	56.99
1005.531	57.2
1005.885	57.33
1006.239	57.46
1006.593	57.61
1006.947	57.63
1007.301	57.57
1007.655	57.43
1008.008	57.5
1008.362	57.57
1008.715	57.42
1009.069	57.49
1009.422	57.52
1009.776	57.68
1010.129	57.77
1010.482	57.77
1010.835	57.87
1011.188	57.89
1011.541	58.24
1011.894	58.35
1012.247	58.42
1012.6	58.68
1012.952	58.84
1013.305	58.93
1013.657	59.05
1014.01	59.19
1014.362	59.26
1014.715	59.51
1015.067	59.75
1015.419	59.83
1015.771	59.98
1016.123	60.11
1016.475	59.99
1016.827	60.2
1017.179	60.2
1017.531	60.31
1017.883	60.37
1018.234	60.88
1018.586	60.82
1018.938	61.19
1019.289	61.29
1019.64	61.19
1019.992	61.23
1020.343	61.41
1020.694	61.45
1021.045	61.81
1021.396	61.92
1021.747	62.17
1022.098	61.99
1022.449	62.12
1022.8	62.16
1023.151	62.23
1023.501	62.86
1023.852	63.08
1024.202	63.25
1024.553	63.43
1024.903	63.57
1025.253	63.95
1025.604	64.03
1025.954	64.07
1026.304	64.18
1026.654	64.4
1027.004	64.64
1027.354	64.36
1027.703	64.46
1028.053	64.64
1028.403	65.09
1028.753	64.98
1029.102	65
1029.452	65.16
1029.801	65.57
1030.15	65.67
1030.499	65.47
897.758	1909.49
901.051	1921.38
904.343	1908.36
907.636	1942.61
910.928	1894.93
914.22	1889.82
917.511	1862.87
920.803	1779.92
924.094	1773.07
927.384	1733.3
930.675	1656.57
933.965	1644.52
937.255	1549.39
940.544	1489.15
943.834	1413.36
947.123	1398.04
950.411	1318.34
953.7	1291.18
956.988	1219.1
960.276	1168.24
963.563	1150.89
966.851	1109.97
970.138	1101.65
973.424	1063.33
976.711	1072.28
979.997	1019.65
983.283	1015.65
986.568	993.55
989.853	960.63
993.138	945.56
996.423	908.65
999.708	882.6
1002.992	875.57
1006.275	831.16
1009.559	824.24
1012.842	793.33
1016.125	771.55
1019.408	756.03
1022.69	746.01
1025.972	733.42
1029.254	713.77
1032.536	701.93
1035.817	687.4
1039.098	677.94
1042.379	665.26
1045.659	657.3
1048.939	640.8
1052.219	629.02
1055.498	618.32
1058.778	605.02
1062.057	588.66
1065.335	582.61
1068.614	575.99
1071.892	569.98
1075.17	549.78
1078.447	539.84
1081.724	536.94
1085.001	532.14
1088.278	519.74
1091.554	510.52
1094.83	509.49
1098.106	507.93
1101.382	503.43
1104.657	499.23
1107.932	490.56
1111.206	494.98
1114.481	483.08
1117.755	476.84
1121.029	473.38
1124.302	475.05
1127.575	464.48
1130.848	458.67
1134.121	453.06
1137.393	451.35
1140.665	440.97
1143.937	439.85
1147.208	433.87
1150.48	433.54
1153.75	428.21
1157.021	421
1160.291	420.61
1163.561	416.91
1166.831	416.45
1170.101	413.63
1173.37	412.05
1176.639	413.54
1179.907	408.13
1183.176	405.5
1186.444	404.41
1189.711	404.05
1192.979	403.67
1196.246	399.45
1199.513	401.21
1202.78	398.65
1206.046	398.27
1209.312	394
1212.578	394.76
1215.843	398.59
1219.108	395.26
1222.373	403.95
1225.638	406.9
1228.902	414.21
1232.166	413.86
1235.43	418.43
1238.693	424.44
1241.956	426.24
1245.219	434.23
1248.482	433.55
1251.744	433.35
1255.006	435.33
1258.268	424.21
1261.529	420.05
1264.79	414.16
1268.051	413.61
1271.312	406.74
1274.572	402.02
1277.832	398.5
1281.092	391.03
1284.351	388.29
1287.61	388.2
1290.869	382.08
1294.128	379.39
1297.386	379.08
1300.644	376.07
1303.902	376.4
1307.159	374.98
1310.416	375.72
1313.673	375.7
1316.93	379.37
1320.186	379.89
1323.442	381.17
1326.697	388.76
1329.953	388.78
1333.208	391.2
1336.463	395.58
1339.717	397.22
1342.972	401.31
1346.226	404.26
1349.479	404.01
1352.733	407.36
1355.986	408.54
1359.238	407.94
1362.491	411.54
1365.743	416.3
1368.995	415.84
1372.247	415.45
1375.498	415.62
1378.749	421.15
1382	414.94
1385.251	417.63
1388.501	414.6
1391.751	418.46
1395	414.98
1398.25	410.97
1401.499	409.7
1404.748	409.34
1407.996	404.94
1411.244	402.67
1414.492	400.5
1417.74	397.75
1420.987	391.22
1424.234	391.51
1427.481	384.24
1430.728	386.21
1433.974	381.66
1437.22	377.72
1440.465	376.86
1443.711	374.85
1446.956	373.19
1450.201	367.02
1453.445	363.74
1456.689	362.82
1459.933	355.97
1463.177	353.94
1466.42	347.45
1469.663	343.5
1472.906	342.23
1476.148	332.96
1479.391	327.61
1482.633	323.92
1485.874	319.52
1489.115	317.63
1492.356	312.33
1495.597	311.79
1498.838	307
1502.078	304.85
1505.318	303.13
1508.557	302.79
1511.797	302.93
1515.036	301.93
1518.274	300.68
1521.513	296.95
1524.751	297.21
1527.989	297.09
1531.227	295.4
1534.464	296.97
1537.701	294.7
1540.938	293.83
1544.174	289.96
1547.41	289.04
1550.646	288.09
1553.882	288.8
1557.117	285.46
1560.352	282.68
1563.587	282.22
1566.821	279.96
1570.055	276.27
1573.289	274
1576.523	274
1579.756	271.7
1582.989	270.12
1586.222	269.82
1589.454	267.75
1592.686	269.36
1595.918	268.85
1599.15	267.68
1602.381	267.82
1605.612	267.83
1608.843	269.57
1612.073	268.54
1615.303	270.7
1618.533	271.07
1621.762	269.82
1624.992	269.49
1628.221	270.45
1631.449	269.43
1634.678	268.95
1637.906	270.3
1641.134	270.17
1644.361	269.38
1647.588	270.77
1650.815	268.98
1654.042	267.36
1657.269	269.64
1660.495	270.19
1663.72	267.35
1666.946	268.94
1670.171	269.5
1673.396	269.17
1676.621	269.36
1679.845	268.93
1683.069	268.39
1686.293	270.68
1689.517	272.58
1692.74	271.43
1695.963	273.05
1699.185	277.16
1702.408	277.32
1705.63	277.81
1708.852	279.01
1712.073	279.12
1715.294	280.3
1718.515	281.53
1721.736	280.81
1724.956	281.77
1728.176	281.72
1731.396	284.4
1734.616	283.08
1737.835	283.82
1741.054	282.87
1744.272	283.42
1747.491	286.99
1750.709	287.29
1753.927	287.85
1757.144	286.41
1760.361	288.38
1763.578	288.71
1766.795	287.44
1770.011	289.96
1773.227	290.12
1776.443	293.06
1779.658	295.27
1782.874	293.11
1786.089	294.98
1789.303	295.89
1792.518	300.03
1795.732	298.97
1798.945	303.11
1802.159	302.86
1805.372	303.86
1808.585	309.31
1811.797	310.8
1815.01	310.08
1818.222	313.67
1821.434	314.94
1824.645	316.41
1827.856	321.49
1831.067	325.41
1834.278	321.95
1837.488	324.78
1840.698	327.59
1843.908	323.91
1847.117	326.29
1850.326	328.61
1853.535	327.19
1856.744	333.24
1859.952	332.73
1863.16	331.65
1866.368	328.32
1869.575	334.99
1872.782	329.57
1875.989	328.11
1879.196	327.52
1882.402	325.31
1885.608	327.09
1888.814	329.11
1892.019	327.82
1895.224	327.38
1898.429	325.08
1901.634	328.53
1904.838	327.75
1908.042	332.78
1911.246	333.5
1914.449	335.56
1917.652	336.04
1920.855	335.94
1924.058	334.51
1927.26	332.8
1930.462	334.8
1933.664	339.28
1936.865	335.76
1940.066	335.94
1943.267	333.81
1946.467	333.97
1949.668	336.47
1952.868	339.81
1956.067	338.63
1959.267	339.82
1962.466	340.86
1965.665	338.64
1968.863	338.54
1972.061	342.96
1975.259	345.99
1978.457	348.57
1981.654	350.34
1984.852	351.35
1988.048	350.11
1991.245	353.26
1994.441	357.7
1997.637	360.5
2000.833	367.07
2004.028	372.5
2007.223	374.47
2010.418	378.72
2013.613	383.73
2016.807	388.81
2020.001	391.12
2023.194	397.34
2026.388	407.48
2029.581	415.69
2032.774	419.75
2035.966	428.59
2039.158	429.5
2042.35	438.39
2045.542	440.51
2048.733	447.66
2051.924	454.35
2055.115	462.55
2058.306	463.49
2061.496	469
2064.686	468.19
2067.875	476.18
2071.065	477.55
2074.254	474.93
2077.442	479.82
2080.631	482.42
2083.819	487.08
2087.007	487.01
2090.195	492.63
2093.382	496.17
2096.569	490.9
2099.756	500.05
2102.942	500.58
2106.128	506.88
2109.314	518.2
2112.5	516.35
2115.685	527.29
2118.87	528.88
2122.055	538.02
2125.239	542.42
2128.424	550.03
2131.608	555.19
2134.791	561.45
2137.974	564.7
2141.157	564.92
2144.34	565.7
2147.523	575.64
2150.705	570.94
2153.887	574.79
2157.068	577.11
2160.25	571.01
2163.431	573.15
2166.611	579.18
2169.792	590
2172.972	597.51
2176.152	599.62
2179.331	609.44
2182.511	619.08
2185.69	627.56
2188.868	641.01
2192.047	643.41
2195.225	662.1
2198.403	679.63
2201.58	691.85
2204.758	705.17
2207.935	720
2211.111	733.99
2214.288	741.82
2217.464	744.41
2220.64	753.05
2223.815	765.5
2226.991	795.66
2230.166	798.13
2233.34	813.76
2236.515	824.97
2239.689	827.67
2242.863	829.95
2246.036	858.71
2249.209	848.44
2252.382	861.45
2255.555	891.39
2258.727	892.98
2261.9	895.01
2265.071	903
2268.243	916.28
2271.414	926.85
2274.585	949.34
2277.756	960.06
2280.926	961.81
2284.096	986.99
2287.266	1009.86
2290.436	1015.72
2293.605	1040.84
2296.774	1075.72
2299.942	1110.86
2303.111	1118.91
2306.279	1148.49
2309.447	1159.46
2312.614	1187.69
2315.781	1223.12
2318.948	1280.24
2322.115	1259.36
2325.281	1326.93
2328.447	1299.09
2331.613	1351.88
2334.779	1334.39
2337.944	1391.7
2341.109	1405.16
2344.274	1445.07
2347.438	1498.52
2350.602	1497.99
2353.766	1540.56
2356.929	1564.35
2360.092	1554.42
2363.255	1669.66
2366.418	1662.5
2369.58	1701.44
2372.742	1801.72
2375.904	1847.74
2379.066	1833.95
2382.227	1797.65
2385.388	1950.18
2388.548	1955.65
2391.709	1983.85
2394.869	2207.86
2398.029	2105.63
2401.188	2168.4
2404.347	2152.49
2407.506	2121.83
2410.665	2182.32
2413.823	2315.95
2416.981	2453.42
2420.139	2367.29
2423.296	2338.13
2426.453	2436.04
2429.61	2344.81
2432.767	2462.1
2435.923	2443.48
2439.079	2652.01
2442.235	2687.31
2445.391	2655.89
2448.546	2642.68
2451.701	2569
2454.855	2573.13
2458.009	2734.33
2461.163	2842.57
2464.317	2942.76
2467.471	3018.89
2470.624	3014.6
2473.777	2952.17
2476.929	2876.74
2480.082	2800.28
2483.234	2761.27
2486.385	2890.34
2489.537	2903.2
2492.688	3020.23
2495.839	2930.18
2498.989	2876.11
2502.14	2891.18
2505.29	2927.02
2508.439	2971.79
2511.589	2962.47
2514.738	3227.42
2517.887	3157.75
2521.035	3352.65
2524.183	3376.55
2527.331	3396.4
2530.479	3398.59
2533.627	3415.4
