Data from C_2_DIV_OH_2N_Splice17_13-25-12-926.txt Node
Date: Sat Mar 07 13:25:12 EST 2020
User: sa697716
Spectrometer: NQ5500242
Trigger mode: 0
Integration Time (sec): 1.450000E-1
Scans to average: 20
Nonlinearity correction enabled: false
Boxcar width: 5
Storing dark spectrum: false
XAxis mode: Wavelengths
Number of Pixels in Spectrum: 512
>>>>>Begin Spectral Data<<<<<
187.83	153.5
188.298	166.42
188.766	149.9
189.233	123.75
189.701	131.6
190.169	144.45
190.636	136.41
191.104	147.64
191.571	190.14
192.039	172.51
192.506	783.93
192.974	5.08
193.441	136.91
193.908	88.34
194.375	77.97
194.842	81.84
195.31	66.21
195.777	301.19
196.244	56.41
196.711	50.52
197.177	50.06
197.644	48.7
198.111	47.83
198.578	47.45
199.045	47.79
199.511	47.12
199.978	47.25
200.445	47.52
200.911	46.94
201.378	47.13
201.844	47.02
202.31	46.7
202.777	47.03
203.243	47.25
203.709	47.02
204.176	46.61
204.642	46.76
205.108	46.53
205.574	46.34
206.04	45.99
206.506	45.46
206.972	45.6
207.438	45.47
207.903	44.96
208.369	44.08
208.835	43.45
209.301	42.61
209.766	41.56
210.232	40.66
210.697	39.58
211.163	38.75
211.628	37.96
212.094	36.98
212.559	36.32
213.024	35.47
213.49	34.93
213.955	34.27
214.42	33.72
214.885	33.12
215.35	32.31
215.815	31.26
216.28	29.78
216.745	28.15
217.21	26.52
217.675	24.85
218.14	23.55
218.604	22.31
219.069	21.3
219.534	20.5
219.998	19.7
220.463	19.14
220.927	18.57
221.392	18.16
221.856	17.83
222.32	17.52
222.785	17.26
223.249	16.99
223.713	16.76
224.177	16.53
224.642	16.29
225.106	16.09
225.57	15.84
226.034	15.63
226.497	15.42
226.961	15.22
227.425	15.01
227.889	14.83
228.353	14.61
228.816	14.4
229.28	14.22
229.744	14.03
230.207	13.85
230.671	13.67
231.134	13.5
231.597	13.36
232.061	13.18
232.524	13.02
232.987	12.85
233.45	12.72
233.914	12.57
234.377	12.42
234.84	12.28
235.303	12.16
235.766	12.04
236.229	11.92
236.691	11.79
237.154	11.67
237.617	11.56
238.08	11.44
238.542	11.32
239.005	11.22
239.468	11.11
239.93	11
240.393	10.9
240.855	10.78
241.317	10.66
241.78	10.55
242.242	10.44
242.704	10.34
243.166	10.25
243.629	10.17
244.091	10.06
244.553	9.96
245.015	9.87
245.477	9.77
245.939	9.69
246.4	9.6
246.862	9.51
247.324	9.43
247.786	9.34
248.247	9.24
248.709	9.14
249.17	9.07
249.632	9
250.093	8.92
250.555	8.84
251.016	8.76
251.477	8.69
251.939	8.64
252.4	8.57
252.861	8.51
253.322	8.46
253.783	8.39
254.244	8.34
254.705	8.27
255.166	8.21
255.627	8.15
256.088	8.1
256.549	8.04
257.009	7.98
257.47	7.92
257.931	7.86
258.391	7.79
258.852	7.73
259.312	7.67
259.773	7.61
260.233	7.56
260.694	7.51
261.154	7.46
261.614	7.41
262.074	7.36
262.534	7.31
262.994	7.27
263.455	7.23
263.915	7.2
264.374	7.17
264.834	7.14
265.294	7.1
265.754	7.07
266.214	7.05
266.673	7.01
267.133	6.99
267.593	6.96
268.052	6.94
268.512	6.92
268.971	6.89
269.431	6.87
269.89	6.84
270.349	6.82
270.809	6.79
271.268	6.78
271.727	6.76
272.186	6.73
272.645	6.72
273.104	6.7
273.563	6.67
274.022	6.65
274.481	6.64
274.94	6.61
275.399	6.59
275.857	6.57
276.316	6.54
276.775	6.51
277.233	6.49
277.692	6.47
278.15	6.45
278.609	6.44
279.067	6.42
279.525	6.39
279.984	6.37
280.442	6.35
280.9	6.34
281.358	6.32
281.816	6.3
282.274	6.28
282.732	6.26
283.19	6.23
283.648	6.2
284.106	6.18
284.564	6.16
285.021	6.14
285.479	6.12
285.937	6.09
286.394	6.08
286.852	6.05
287.309	6.02
287.767	6
288.224	5.97
288.682	5.94
289.139	5.91
289.596	5.87
290.053	5.84
290.511	5.82
290.968	5.79
291.425	5.76
291.882	5.74
292.339	5.72
292.796	5.69
293.252	5.67
293.709	5.65
294.166	5.64
294.623	5.62
295.079	5.6
295.536	5.59
295.992	5.56
296.449	5.54
296.905	5.52
297.362	5.5
297.818	5.47
298.274	5.46
298.731	5.44
299.187	5.41
299.643	5.39
300.099	5.37
300.555	5.36
301.011	5.34
301.467	5.33
301.923	5.31
302.379	5.29
302.835	5.29
303.291	5.26
303.746	5.25
304.202	5.25
304.658	5.23
305.113	5.22
305.569	5.2
306.024	5.19
306.479	5.16
306.935	5.15
307.39	5.14
307.845	5.13
308.301	5.11
308.756	5.1
309.211	5.09
309.666	5.08
310.121	5.08
310.576	5.08
311.031	5.07
311.486	5.06
311.94	5.06
312.395	5.04
312.85	5.04
313.305	5.03
313.759	5.03
314.214	5.03
314.668	5.02
315.123	5
315.577	4.98
316.032	4.97
316.486	4.95
316.94	4.94
317.394	4.92
317.849	4.9
318.303	4.88
318.757	4.85
319.211	4.83
319.665	4.8
320.119	4.79
320.572	4.77
321.026	4.76
321.48	4.75
321.934	4.73
322.387	4.72
322.841	4.71
323.295	4.7
323.748	4.7
324.202	4.69
324.655	4.69
325.108	4.68
325.562	4.67
326.015	4.66
326.468	4.66
326.921	4.65
327.374	4.64
327.827	4.63
328.28	4.62
328.733	4.61
329.186	4.6
329.639	4.6
330.092	4.59
330.545	4.58
330.997	4.58
331.45	4.58
331.903	4.57
332.355	4.58
332.808	4.57
333.26	4.57
333.713	4.56
334.165	4.55
334.617	4.55
335.069	4.54
335.522	4.53
335.974	4.53
336.426	4.52
336.878	4.51
337.33	4.5
337.782	4.49
338.234	4.49
338.686	4.48
339.137	4.48
339.589	4.47
340.041	4.45
340.493	4.44
340.944	4.41
341.396	4.4
341.847	4.4
342.299	4.38
342.75	4.36
343.201	4.33
343.653	4.31
344.104	4.29
344.555	4.27
345.006	4.26
345.457	4.25
345.908	4.24
346.359	4.23
346.81	4.21
347.261	4.21
347.712	4.2
348.163	4.19
348.613	4.19
349.064	4.19
349.515	4.18
349.965	4.17
350.416	4.16
350.866	4.16
351.317	4.15
351.767	4.16
352.217	4.15
352.668	4.15
353.118	4.15
353.568	4.14
354.018	4.15
354.468	4.15
354.918	4.15
355.368	4.15
355.818	4.14
356.268	4.14
356.718	4.14
357.168	4.13
357.617	4.11
358.067	4.11
358.517	4.12
358.966	4.11
359.416	4.11
359.865	4.1
360.315	4.1
360.764	4.1
361.213	4.09
361.663	4.07
362.112	4.08
362.561	4.09
363.01	4.08
363.459	4.05
363.908	4.05
364.357	4.04
364.806	4.03
365.255	4.02
365.703	4.02
366.152	4.03
366.601	4.03
367.05	4.03
367.498	4.02
367.947	4.02
368.395	4.01
368.844	4
369.292	3.99
369.74	4
370.189	3.99
370.637	3.97
371.085	3.96
371.533	3.95
371.981	3.94
372.429	3.94
372.877	3.94
373.325	3.93
373.773	3.92
374.221	3.91
374.669	3.9
375.116	3.89
375.564	3.89
376.012	3.88
376.459	3.88
376.907	3.88
377.354	3.87
377.801	3.87
378.249	3.86
378.696	3.86
379.143	3.85
379.591	3.86
380.038	3.86
380.485	3.85
380.932	3.84
381.379	3.84
381.826	3.84
382.273	3.83
382.72	3.81
383.166	3.81
383.613	3.8
384.06	3.79
384.506	3.79
384.953	3.77
385.4	3.76
385.846	3.77
386.292	3.76
386.739	3.74
387.185	3.74
387.631	3.74
388.078	3.74
388.524	3.73
388.97	3.74
389.416	3.74
389.862	3.75
390.308	3.76
390.754	3.76
391.2	3.77
391.645	3.78
392.091	3.79
392.537	3.8
392.983	3.8
393.428	3.82
393.874	3.82
394.319	3.82
394.765	3.81
395.21	3.81
395.655	3.82
396.101	3.82
396.546	3.83
396.991	3.83
397.436	3.84
397.881	3.85
398.326	3.86
398.771	3.87
399.216	3.88
399.661	3.89
400.106	3.9
400.551	3.91
400.995	3.91
401.44	3.93
401.885	3.93
402.329	3.94
402.774	3.95
403.218	3.97
403.663	3.98
404.107	3.98
404.551	3.99
404.995	4
405.44	4
405.884	4.01
406.328	4.02
406.772	4.03
407.216	4.04
407.66	4.03
408.104	4
408.547	4.02
408.991	4.03
409.435	4.03
409.879	4.04
410.322	4.05
410.766	4.06
411.209	4.08
411.653	4.1
412.096	4.12
412.54	4.14
412.983	4.17
413.426	4.2
413.869	4.21
414.312	4.24
414.756	4.26
415.199	4.25
415.642	4.27
416.085	4.28
416.527	4.27
416.97	4.26
417.413	4.25
417.856	4.25
418.298	4.24
418.741	4.24
419.184	4.23
419.626	4.23
420.069	4.25
420.511	4.24
420.953	4.24
421.396	4.26
421.838	4.27
422.28	4.28
422.722	4.3
423.164	4.31
423.606	4.3
424.048	4.3
424.49	4.31
424.932	4.3
425.374	4.29
425.816	4.28
426.258	4.26
426.699	4.24
427.141	4.24
427.582	4.24
428.024	4.24
428.465	4.25
428.907	4.25
429.348	4.23
429.789	4.23
430.231	4.26
430.672	4.28
431.113	4.3
431.554	4.31
431.995	4.33
432.436	4.34
432.877	4.34
433.318	4.38
433.759	4.41
434.2	4.44
434.64	4.46
435.081	4.47
435.522	4.48
435.962	4.5
436.403	4.54
436.843	4.55
437.284	4.55
437.724	4.56
438.164	4.53
438.604	4.53
439.045	4.54
439.485	4.55
439.925	4.55
440.365	4.55
440.805	4.54
441.245	4.53
441.685	4.54
442.125	4.55
442.564	4.55
443.004	4.56
443.444	4.56
443.883	4.57
444.323	4.56
444.762	4.57
445.202	4.58
445.641	4.6
446.081	4.6
446.52	4.6
446.959	4.63
447.398	4.65
447.837	4.67
448.276	4.68
448.716	4.68
449.154	4.71
449.593	4.71
450.032	4.72
450.471	4.72
450.91	4.73
451.349	4.74
451.787	4.72
452.226	4.7
452.664	4.7
453.103	4.69
453.541	4.67
453.98	4.67
454.418	4.64
454.856	4.63
455.295	4.61
455.733	4.58
456.171	4.57
456.609	4.56
457.047	4.55
457.485	4.53
457.923	4.53
458.361	4.55
458.798	4.53
459.236	4.53
459.674	4.54
460.111	4.54
460.549	4.55
460.987	4.55
461.424	4.55
461.862	4.56
462.299	4.57
462.736	4.57
463.173	4.56
463.611	4.56
464.048	4.57
464.485	4.57
464.922	4.57
465.359	4.57
465.796	4.58
466.233	4.59
466.67	4.59
467.106	4.59
467.543	4.59
467.98	4.58
468.416	4.57
468.853	4.56
469.29	4.56
469.726	4.56
470.162	4.56
470.599	4.54
471.035	4.52
471.471	4.51
471.907	4.5
472.344	4.5
472.78	4.5
473.216	4.51
473.652	4.5
474.088	4.48
474.523	4.47
474.959	4.47
475.395	4.47
475.831	4.46
476.266	4.47
476.702	4.45
477.138	4.46
477.573	4.45
478.008	4.43
478.444	4.43
478.879	4.43
479.314	4.43
479.75	4.41
480.185	4.4
480.62	4.39
481.055	4.38
481.49	4.38
481.925	4.37
482.36	4.37
482.795	4.36
483.229	4.35
483.664	4.34
484.099	4.33
484.534	4.33
484.968	4.34
485.403	4.35
485.837	4.35
486.271	4.35
486.706	4.35
487.14	4.35
487.574	4.37
488.009	4.38
488.443	4.39
488.877	4.41
489.311	4.44
489.745	4.45
490.179	4.48
490.613	4.51
491.046	4.53
491.48	4.56
491.914	4.59
492.348	4.63
492.781	4.66
493.215	4.71
493.648	4.75
494.082	4.78
494.515	4.82
494.948	4.87
495.382	4.91
495.815	4.97
496.248	5.03
496.681	5.09
497.114	5.15
497.547	5.22
497.98	5.29
498.413	5.35
498.846	5.43
499.279	5.51
499.711	5.58
500.144	5.68
500.577	5.78
501.009	5.87
501.442	5.97
501.874	6.09
502.306	6.2
502.739	6.32
503.171	6.45
503.603	6.58
504.036	6.72
504.468	6.86
504.9	6.99
505.332	7.14
505.764	7.31
506.196	7.48
506.627	7.65
507.059	7.83
507.491	8.01
507.923	8.2
508.354	8.4
508.786	8.61
509.217	8.82
509.649	9.04
510.08	9.26
510.512	9.5
510.943	9.72
511.374	9.96
511.805	10.21
512.237	10.45
512.668	10.72
513.099	10.99
513.53	11.25
513.961	11.52
514.391	11.8
514.822	12.08
515.253	12.37
515.684	12.67
516.114	12.95
516.545	13.24
516.975	13.55
517.406	13.84
517.836	14.15
518.267	14.46
518.697	14.75
519.127	15.04
519.558	15.33
519.988	15.62
520.418	15.9
520.848	16.18
521.278	16.46
521.708	16.91
522.138	17.19
522.567	17.45
522.997	17.7
523.427	17.96
523.857	18.21
524.286	18.45
524.716	18.7
525.145	18.94
525.575	19.15
526.004	19.38
526.433	19.41
526.863	19.6
527.292	19.79
527.721	19.98
528.15	20.16
528.579	20.32
529.008	20.5
529.437	20.66
529.866	20.8
530.295	20.96
530.724	21.11
531.152	21.24
531.581	21.38
532.01	21.52
532.438	21.63
532.867	21.76
533.295	21.87
533.723	21.96
534.152	22.05
534.58	22.15
535.008	22.22
535.436	22.31
535.865	22.38
536.293	22.44
536.721	22.49
537.149	22.56
537.576	22.61
538.004	22.67
538.432	22.72
538.86	22.77
539.287	22.79
539.715	22.84
540.143	22.88
540.57	22.92
540.998	22.95
541.425	22.99
541.852	23.02
542.28	23.05
542.707	23.07
543.134	23.08
543.561	23.11
543.988	23.13
544.415	23.15
544.842	23.17
545.269	23.18
545.696	23.2
546.123	23.22
546.549	23.24
546.976	23.27
547.403	23.28
547.829	23.31
548.256	23.33
548.682	23.35
549.108	23.38
549.535	23.4
549.961	23.39
550.387	23.4
550.813	23.42
551.24	23.39
551.666	23.38
552.092	23.38
552.518	23.37
552.943	23.33
553.369	23.32
553.795	23.29
554.221	23.27
554.646	23.25
555.072	23.19
555.498	23.14
555.923	23.1
556.349	23.04
556.774	22.97
557.199	22.91
557.625	22.85
558.05	22.76
558.475	22.67
558.9	22.58
559.325	22.51
559.75	22.43
560.175	22.33
560.6	22.24
561.025	22.14
561.449	22.03
561.874	21.9
562.299	21.78
562.723	21.67
563.148	21.54
563.572	21.4
563.997	21.25
564.421	21.1
564.846	20.96
565.27	20.81
565.694	20.66
566.118	20.51
566.542	20.37
566.966	20.21
567.39	20.04
567.814	19.89
568.238	19.74
568.662	19.59
569.086	19.45
569.509	19.31
569.933	19.16
570.357	19
570.78	18.86
571.204	18.72
571.627	18.58
572.05	18.44
572.474	18.32
572.897	18.2
573.32	18.06
573.743	17.93
574.166	17.79
574.589	17.67
575.012	17.53
575.435	17.41
575.858	17.29
576.281	17.18
576.704	17.07
577.126	16.96
577.549	16.85
577.972	16.74
578.394	16.64
578.817	16.54
579.239	16.44
579.661	16.36
580.084	16.28
580.506	16.19
580.928	16.1
581.35	16.02
581.772	15.92
582.194	15.83
582.616	15.76
583.038	15.67
583.46	15.59
583.882	15.52
584.303	15.45
584.725	15.38
585.147	15.31
585.568	15.25
585.99	15.19
586.411	15.13
586.833	15.07
587.254	14.99
587.675	14.94
588.096	14.89
588.518	14.82
588.939	14.78
589.36	14.72
589.781	14.66
590.202	14.61
590.623	14.56
591.043	14.5
591.464	14.46
591.885	14.43
592.305	14.39
592.726	14.36
593.147	14.33
593.567	14.28
593.987	14.23
594.408	14.2
594.828	14.16
595.248	14.13
595.669	14.1
596.089	14.06
596.509	14.02
596.929	13.98
597.349	13.94
597.769	13.91
598.189	13.87
598.608	13.85
599.028	13.81
599.448	13.77
599.867	13.73
600.287	13.69
600.706	13.64
601.126	13.61
601.545	13.56
601.965	13.53
602.384	13.48
602.803	13.42
603.222	13.35
603.641	13.29
604.061	13.24
604.48	13.17
604.898	13.1
605.317	13.03
605.736	12.96
606.155	12.89
606.574	12.81
606.992	12.73
607.411	12.66
607.829	12.57
608.248	12.48
608.666	12.4
609.085	12.33
609.503	12.25
609.921	12.17
610.339	12.09
610.758	12.01
611.176	11.92
611.594	11.84
612.012	11.77
612.43	11.71
612.847	11.64
613.265	11.56
613.683	11.48
614.101	11.42
614.518	11.35
614.936	11.28
615.353	11.21
615.771	11.15
616.188	11.09
616.606	11.03
617.023	10.98
617.44	10.93
617.857	10.86
618.274	10.81
618.691	10.76
619.108	10.72
619.525	10.68
619.942	10.64
620.359	10.6
620.776	10.56
621.192	10.52
621.609	10.49
622.026	10.46
622.442	10.45
622.859	10.42
623.275	10.39
623.691	10.37
624.108	10.34
624.524	10.32
624.94	10.3
625.356	10.29
625.772	10.27
626.188	10.26
626.604	10.25
627.02	10.23
627.436	10.22
627.852	10.21
628.268	10.2
628.683	10.2
629.099	10.19
629.514	10.17
629.93	10.15
630.345	10.12
630.761	10.09
631.176	10.06
631.591	10.02
632.007	9.99
632.422	9.95
632.837	9.89
633.252	9.83
633.667	9.76
634.082	9.69
634.497	9.63
634.911	9.55
635.326	9.46
635.741	9.39
636.155	9.31
636.57	9.21
636.984	9.12
637.399	9.02
637.813	8.93
638.228	8.83
638.642	8.72
639.056	8.59
639.47	8.48
639.884	8.37
640.298	8.25
640.712	8.13
641.126	8.02
641.54	7.89
641.954	7.77
642.368	7.66
642.781	7.55
643.195	7.44
643.609	7.34
644.022	7.24
644.436	7.15
644.849	7.05
645.262	6.95
645.676	6.86
646.089	6.79
646.502	6.72
646.915	6.65
647.328	6.59
647.741	6.53
648.154	6.47
648.567	6.42
648.98	6.37
649.393	6.32
649.805	6.28
650.218	6.23
650.631	6.2
651.043	6.16
651.456	6.13
651.868	6.08
652.28	6.04
652.693	6.01
653.105	5.96
653.517	5.92
653.929	5.88
654.341	5.84
654.753	5.78
655.165	5.73
655.577	5.67
655.989	5.6
656.401	5.55
656.813	5.5
657.224	5.42
657.636	5.35
658.047	5.28
658.459	5.21
658.87	5.13
659.282	5.07
659.693	4.99
660.104	4.91
660.515	4.83
660.926	4.76
661.338	4.68
661.749	4.62
662.159	4.55
662.57	4.5
662.981	4.45
663.392	4.38
663.803	4.32
664.213	4.28
664.624	4.23
665.035	4.19
665.445	4.16
665.855	4.13
666.266	4.1
666.676	4.08
667.086	4.03
667.497	4.01
667.907	4
668.317	3.99
668.727	3.97
669.137	3.96
669.547	3.95
669.956	3.94
670.366	3.94
670.776	3.93
671.186	3.93
671.595	3.93
672.005	3.94
672.414	3.95
672.824	3.95
673.233	3.95
673.642	3.97
674.052	3.98
674.461	3.98
674.87	4.01
675.279	4.03
675.688	4.06
676.097	4.08
676.506	4.1
676.915	4.12
677.323	4.16
677.732	4.18
678.141	4.21
678.549	4.25
678.958	4.3
679.366	4.33
679.775	4.37
680.183	4.43
680.592	4.5
681	4.57
681.408	4.65
681.816	4.73
682.224	4.83
682.632	4.93
683.04	5.03
683.448	5.15
683.856	5.29
684.264	5.45
684.671	5.62
685.079	5.79
685.487	5.99
685.894	6.22
686.302	6.48
686.709	6.76
687.116	7.07
687.524	7.4
687.931	7.76
688.338	8.15
688.745	8.55
689.152	8.97
689.559	9.44
689.966	9.92
690.373	10.42
690.78	10.95
691.187	11.47
691.593	12.01
692	12.56
692.407	13.11
692.813	13.69
693.22	14.26
693.626	14.85
694.032	15.41
694.439	15.99
694.845	16.57
695.251	17.15
695.657	17.72
696.063	18.33
696.469	18.93
696.875	19.51
697.281	20.09
697.687	20.66
698.093	21.25
698.498	21.81
698.904	22.38
699.31	22.94
699.715	23.49
700.12	24.03
700.526	24.55
700.931	25.07
701.337	25.59
701.742	26.09
702.147	26.59
702.552	27.07
702.957	27.54
703.362	28
703.767	28.44
704.172	28.88
704.577	29.31
704.981	29.75
705.386	30.15
705.791	30.56
706.195	30.97
706.6	31.39
707.004	31.79
707.408	32.2
707.813	32.58
708.217	32.97
708.621	33.36
709.025	33.7
709.43	34.04
709.834	34.43
710.237	34.77
710.641	35.1
711.045	35.41
711.449	35.73
711.853	36.05
712.256	36.37
712.66	36.68
713.064	36.98
713.467	37.31
713.87	37.61
714.274	37.88
714.677	38.19
715.08	38.47
715.484	38.74
715.887	39.06
716.29	39.31
716.693	39.57
717.096	39.83
717.499	40.1
717.901	40.35
718.304	40.61
718.707	40.87
719.109	41.11
719.512	41.34
719.915	41.57
720.317	41.75
720.719	41.95
721.122	42.16
721.524	42.36
721.926	42.55
722.328	42.74
722.731	42.92
723.133	43.09
723.535	43.24
723.937	43.41
724.338	43.6
724.74	43.76
725.142	44.02
725.544	44.17
725.945	44.35
726.347	44.49
726.748	44.64
727.15	44.76
727.551	44.89
727.952	45.02
728.354	45.14
728.755	45.22
729.156	45.35
729.557	45.36
729.958	45.47
730.359	45.56
730.76	45.67
731.161	45.74
731.562	45.85
731.962	45.92
732.363	46
732.763	46.09
733.164	46.19
733.564	46.25
733.965	46.33
734.365	46.41
734.766	46.45
735.166	46.52
735.566	46.59
735.966	46.65
736.366	46.72
736.766	46.78
737.166	46.82
737.566	46.88
737.966	46.92
738.365	46.99
738.765	47.04
739.165	47.1
739.564	47.14
739.964	47.18
740.363	47.23
740.763	47.26
741.162	47.29
741.561	47.31
741.96	47.34
742.36	47.38
742.759	47.39
743.158	47.39
743.557	47.38
743.955	47.4
744.354	47.44
744.753	47.47
745.152	47.54
745.55	47.57
745.949	47.62
746.348	47.65
746.746	47.65
747.144	47.68
747.543	47.71
747.941	47.73
748.339	47.74
748.737	47.75
749.136	47.74
749.534	47.71
749.932	47.71
750.33	47.72
750.727	47.73
751.125	47.76
751.523	47.74
751.921	47.76
752.318	47.78
752.716	47.77
753.113	47.75
753.511	47.76
753.908	47.77
754.305	47.78
754.703	47.77
755.1	47.76
755.497	47.76
755.894	47.78
756.291	47.77
756.688	47.77
757.085	47.79
757.482	47.81
757.878	47.81
758.275	47.8
758.672	47.8
759.068	47.82
759.465	47.8
759.861	47.79
760.258	47.81
760.654	47.82
761.05	47.83
761.447	47.83
761.843	47.84
762.239	47.82
762.635	47.82
763.031	47.82
763.427	47.79
763.822	47.81
764.218	47.82
764.614	47.81
765.01	47.79
765.405	47.77
765.801	47.76
766.196	47.75
766.592	47.75
766.987	47.76
767.382	47.75
767.778	47.75
768.173	47.76
768.568	47.74
768.963	47.73
769.358	47.74
769.753	47.74
770.148	47.74
770.542	47.77
770.937	47.77
771.332	47.78
771.726	47.8
772.121	47.8
772.515	47.81
772.91	47.79
773.304	47.82
773.699	47.84
774.093	47.86
774.487	47.86
774.881	47.87
775.275	47.87
775.669	47.85
776.063	47.84
776.457	47.85
776.851	47.81
777.245	47.82
777.638	47.81
778.032	47.79
778.425	47.81
778.819	47.8
779.212	47.82
779.606	47.84
779.999	47.84
780.392	47.85
780.786	47.85
781.179	47.86
781.572	47.88
781.965	47.89
782.358	47.88
782.751	47.84
783.143	47.87
783.536	47.83
783.929	47.79
784.322	47.82
784.714	47.83
785.107	47.84
785.499	47.85
785.891	47.86
786.284	47.86
786.676	47.87
787.068	47.89
787.46	47.86
787.852	47.86
788.245	47.88
788.636	47.85
789.028	47.83
789.42	47.8
789.812	47.8
790.204	47.81
790.595	47.81
790.987	47.8
791.378	47.82
791.77	47.84
792.161	47.85
792.553	47.88
792.944	47.88
793.335	47.89
793.726	47.9
794.117	47.89
794.508	47.84
794.899	47.83
795.29	47.83
795.681	47.79
796.072	47.78
796.463	47.8
796.853	47.79
797.244	47.75
797.634	47.77
798.025	47.8
798.415	47.81
798.806	47.83
799.196	47.83
799.586	47.86
799.976	47.89
800.366	47.89
800.756	47.89
801.146	47.88
801.536	47.93
801.926	47.9
802.316	47.87
802.706	47.89
803.095	47.91
803.485	47.91
803.874	47.89
804.264	47.88
804.653	47.89
805.043	47.91
805.432	47.92
805.821	47.92
806.21	47.93
806.599	47.94
806.988	47.92
807.377	47.92
807.766	47.93
808.155	47.91
808.544	47.92
808.933	47.92
809.321	47.91
809.71	47.91
810.098	47.9
810.487	47.88
810.875	47.89
811.264	47.89
811.652	47.92
812.04	47.9
812.428	47.96
812.816	47.95
813.204	47.93
813.592	47.9
813.98	47.9
814.368	47.89
814.756	47.9
815.144	47.89
815.531	47.89
815.919	47.86
816.306	47.86
816.694	47.8
817.081	47.79
817.469	47.8
817.856	47.8
818.243	47.8
818.63	47.79
819.017	47.79
819.404	47.78
819.791	47.79
820.178	47.79
820.565	47.78
820.952	47.79
821.339	47.8
821.725	47.8
822.112	47.81
822.498	47.82
822.885	47.84
823.271	47.84
823.657	47.81
824.044	47.78
824.43	47.76
824.816	47.77
825.202	47.75
825.588	47.76
825.974	47.75
826.36	47.73
826.746	47.68
827.132	47.67
827.517	47.66
827.903	47.7
828.289	47.72
828.674	47.71
829.06	47.7
829.445	47.71
829.83	47.69
830.216	47.66
830.601	47.66
830.986	47.67
831.371	47.65
831.756	47.66
832.141	47.63
832.526	47.61
832.911	47.62
833.295	47.63
833.68	47.62
834.065	47.61
834.449	47.6
834.834	47.59
835.218	47.57
835.603	47.58
835.987	47.57
836.371	47.56
836.755	47.54
837.139	47.5
837.524	47.49
837.908	47.52
838.291	47.52
838.675	47.54
839.059	47.55
839.443	47.55
839.827	47.54
840.21	47.52
840.594	47.54
840.977	47.53
841.361	47.56
841.744	47.54
842.127	47.49
842.511	47.49
842.894	47.47
843.277	47.46
843.66	47.45
844.043	47.45
844.426	47.46
844.809	47.47
845.191	47.51
845.574	47.5
845.957	47.53
846.339	47.55
846.722	47.56
847.104	47.59
847.487	47.61
847.869	47.62
848.252	47.62
848.634	47.63
849.016	47.63
849.398	47.62
849.78	47.62
850.162	47.6
850.544	47.61
850.926	47.6
851.307	47.6
851.689	47.59
852.071	47.61
852.452	47.62
852.834	47.61
853.215	47.58
853.597	47.58
853.978	47.56
854.359	47.56
854.741	47.54
855.122	47.56
855.503	47.56
855.884	47.54
856.265	47.53
856.646	47.51
857.026	47.53
857.407	47.56
857.788	47.56
858.169	47.59
858.549	47.6
858.93	47.6
859.31	47.59
859.69	47.58
860.071	47.63
860.451	47.64
860.831	47.65
861.211	47.64
861.591	47.62
861.971	47.61
862.351	47.6
862.731	47.61
863.111	47.62
863.491	47.59
863.87	47.6
864.25	47.57
864.629	47.56
865.009	47.52
865.388	47.49
865.768	47.49
866.147	47.48
866.526	47.48
866.905	47.48
867.284	47.48
867.663	47.49
868.042	47.49
868.421	47.47
868.8	47.46
869.179	47.47
869.558	47.47
869.936	47.46
870.315	47.44
870.693	47.43
871.072	47.42
871.45	47.38
871.828	47.38
872.207	47.37
872.585	47.37
872.963	47.36
873.341	47.35
873.719	47.36
874.097	47.35
874.475	47.37
874.853	47.36
875.23	47.36
875.608	47.4
875.986	47.4
876.363	47.4
876.741	47.4
877.118	47.42
877.495	47.42
877.873	47.42
878.25	47.45
878.627	47.45
879.004	47.46
879.381	47.46
879.758	47.42
880.135	47.42
880.512	47.4
880.889	47.43
881.265	47.41
881.642	47.42
882.019	47.44
882.395	47.41
882.772	47.41
883.148	47.4
883.524	47.41
883.901	47.41
884.277	47.37
884.653	47.36
885.029	47.34
885.405	47.35
885.781	47.34
886.157	47.3
886.532	47.33
886.908	47.33
887.284	47.32
887.659	47.3
888.035	47.3
888.411	47.32
888.786	47.33
889.161	47.34
889.537	47.34
889.912	47.33
890.287	47.34
890.662	47.31
891.037	47.31
891.412	47.3
891.787	47.29
892.162	47.3
892.536	47.29
892.911	47.27
893.286	47.25
893.66	47.24
894.035	47.25
894.409	47.25
894.784	47.26
895.158	47.24
895.532	47.27
895.906	47.28
896.281	47.26
896.655	47.26
897.029	47.28
897.402	47.29
897.776	47.3
898.15	47.3
898.524	47.3
898.898	47.3
899.271	47.31
899.645	47.32
900.018	47.32
900.392	47.34
900.765	47.36
901.138	47.36
901.511	47.34
901.884	47.33
902.258	47.34
902.631	47.34
903.003	47.34
903.376	47.35
903.749	47.34
904.122	47.35
904.495	47.36
904.867	47.38
905.24	47.38
905.612	47.4
905.985	47.38
906.357	47.37
906.729	47.4
907.102	47.4
907.474	47.43
907.846	47.41
908.218	47.4
908.59	47.41
908.962	47.37
909.334	47.38
909.705	47.38
910.077	47.4
910.449	47.43
910.82	47.4
911.192	47.41
911.563	47.37
911.935	47.36
912.306	47.37
912.677	47.37
913.048	47.4
913.419	47.38
913.79	47.39
914.161	47.38
914.532	47.37
914.903	47.35
915.274	47.34
915.645	47.34
916.015	47.35
916.386	47.34
916.756	47.33
917.127	47.33
917.497	47.34
917.868	47.34
918.238	47.34
918.608	47.35
918.978	47.35
919.348	47.37
919.718	47.38
920.088	47.4
920.458	47.43
920.828	47.41
921.198	47.35
921.567	47.34
921.937	47.36
922.306	47.33
922.676	47.31
923.045	47.31
923.415	47.28
923.784	47.28
924.153	47.28
924.522	47.27
924.891	47.27
925.26	47.28
925.629	47.29
925.998	47.28
926.367	47.3
926.736	47.33
927.104	47.35
927.473	47.33
927.842	47.29
928.21	47.26
928.578	47.23
928.947	47.24
929.315	47.23
929.683	47.23
930.051	47.18
930.42	47.18
930.788	47.15
931.156	47.09
931.523	47.1
931.891	47.15
932.259	47.18
932.627	47.18
932.994	47.15
933.362	47.13
933.729	47.1
934.097	47.09
934.464	47.08
934.831	47.1
935.199	47.15
935.566	47.17
935.933	47.09
936.3	47.05
936.667	47.02
937.034	47.08
937.401	47.13
937.767	47.17
938.134	47.16
938.501	47.18
938.867	47.2
939.234	47.17
939.6	47.15
939.967	47.21
940.333	47.19
940.699	47.28
941.065	47.22
941.431	47.19
941.798	47.14
942.163	47.13
942.529	47.06
942.895	47.07
943.261	47
943.627	46.98
943.992	46.96
944.358	46.97
944.723	46.9
945.089	46.86
945.454	46.89
945.82	46.9
946.185	46.93
946.55	46.92
946.915	46.87
947.28	46.83
947.645	46.83
948.01	46.84
948.375	46.81
948.74	46.81
949.104	46.86
949.469	46.82
949.834	46.76
950.198	46.75
950.562	46.72
950.927	46.67
951.291	46.67
951.655	46.62
952.02	46.6
952.384	46.59
952.748	46.52
953.112	46.48
953.476	46.43
953.839	46.4
954.203	46.37
954.567	46.3
954.931	46.29
955.294	46.3
955.658	46.32
956.021	46.31
956.385	46.25
956.748	46.27
957.111	46.23
957.474	46.28
957.837	46.25
958.2	46.27
958.563	46.29
958.926	46.32
959.289	46.33
959.652	46.33
960.015	46.31
960.377	46.36
960.74	46.36
961.102	46.4
961.465	46.38
961.827	46.52
962.189	46.54
962.552	46.52
962.914	46.5
963.276	46.51
963.638	46.53
964	46.58
964.362	46.62
964.724	46.59
965.085	46.53
965.447	46.51
965.809	46.39
966.17	46.35
966.532	46.39
966.893	46.44
967.255	46.44
967.616	46.42
967.977	46.4
968.338	46.35
968.699	46.39
969.061	46.41
969.421	46.42
969.782	46.48
970.143	46.5
970.504	46.54
970.865	46.53
971.225	46.49
971.586	46.43
971.946	46.39
972.307	46.43
972.667	46.36
973.027	46.42
973.388	46.42
973.748	46.43
974.108	46.49
974.468	46.43
974.828	46.49
975.188	46.5
975.548	46.55
975.907	46.56
976.267	46.56
976.627	46.6
976.986	46.53
977.346	46.51
977.705	46.45
978.064	46.42
978.424	46.43
978.783	46.31
979.142	46.33
979.501	46.35
979.86	46.36
980.219	46.36
980.578	46.41
980.937	46.45
981.296	46.47
981.654	46.5
982.013	46.52
982.371	46.56
982.73	46.6
983.088	46.6
983.447	46.59
983.805	46.61
984.163	46.56
984.521	46.56
984.879	46.53
985.237	46.56
985.595	46.62
985.953	46.62
986.311	46.55
986.669	46.6
987.026	46.61
987.384	46.63
987.741	46.61
988.099	46.66
988.456	46.65
988.814	46.66
989.171	46.68
989.528	46.66
989.885	46.64
990.242	46.62
990.599	46.6
990.956	46.61
991.313	46.66
991.67	46.71
992.027	46.86
992.383	46.82
992.74	46.83
993.096	46.85
993.453	46.88
993.809	46.92
994.165	46.99
994.522	47.1
994.878	47.14
995.234	47.12
995.59	47.06
995.946	46.93
996.302	47.01
996.658	47.09
997.013	47.07
997.369	47.02
997.725	47.05
998.08	47.1
998.436	47.02
998.791	47.04
999.147	47.06
999.502	47.1
999.857	47.12
1000.212	47.05
1000.567	46.96
1000.922	46.97
1001.277	46.95
1001.632	46.89
1001.987	46.93
1002.342	46.97
1002.696	46.9
1003.051	47.04
1003.406	47.22
1003.76	47.21
1004.114	47.3
1004.469	47.38
1004.823	47.71
1005.177	47.68
1005.531	47.75
1005.885	47.76
1006.239	47.7
1006.593	47.86
1006.947	47.77
1007.301	47.64
1007.655	47.58
1008.008	47.65
1008.362	47.73
1008.715	47.48
1009.069	47.55
1009.422	47.63
1009.776	47.62
1010.129	47.75
1010.482	47.66
1010.835	47.63
1011.188	47.79
1011.541	47.97
1011.894	47.98
1012.247	47.93
1012.6	47.99
1012.952	47.97
1013.305	47.89
1013.657	47.83
1014.01	47.74
1014.362	47.76
1014.715	47.77
1015.067	47.7
1015.419	47.75
1015.771	47.71
1016.123	47.79
1016.475	47.71
1016.827	47.96
1017.179	48.12
1017.531	48.18
1017.883	48.18
1018.234	48.4
1018.586	48.57
1018.938	48.61
1019.289	48.51
1019.64	48.61
1019.992	48.47
1020.343	48.54
1020.694	48.66
1021.045	48.61
1021.396	48.61
1021.747	48.76
1022.098	48.67
1022.449	48.62
1022.8	48.53
1023.151	48.56
1023.501	48.7
1023.852	48.7
1024.202	48.59
1024.553	48.33
1024.903	48.63
1025.253	48.94
1025.604	48.89
1025.954	48.86
1026.304	48.77
1026.654	48.84
1027.004	48.98
1027.354	48.65
1027.703	48.96
1028.053	49.11
1028.403	49.24
1028.753	48.84
1029.102	48.55
1029.452	48.49
1029.801	48.35
1030.15	48.34
1030.499	48.26
897.758	1399.5
901.051	1410.07
904.343	1405.58
907.636	1429.39
910.928	1389.56
914.22	1389.91
917.511	1374.79
920.803	1316.2
924.094	1310.03
927.384	1279.01
930.675	1229.59
933.965	1222.57
937.255	1148.91
940.544	1102.86
943.834	1049.31
947.123	1040.91
950.411	980.68
953.7	958.47
956.988	903.42
960.276	866.16
963.563	853.87
966.851	821.94
970.138	813.25
973.424	788.08
976.711	793.66
979.997	753.83
983.283	749.58
986.568	732.48
989.853	710.76
993.138	700.6
996.423	673.56
999.708	653.99
1002.992	645.66
1006.275	617.96
1009.559	612.49
1012.842	589.14
1016.125	573.55
1019.408	562.98
1022.69	555.66
1025.972	544.8
1029.254	531.23
1032.536	522.8
1035.817	511.05
1039.098	504.66
1042.379	494.33
1045.659	488.43
1048.939	476.68
1052.219	467.48
1055.498	460.8
1058.778	450.16
1062.057	438.85
1065.335	433.66
1068.614	428.62
1071.892	423.65
1075.17	410.19
1078.447	402.99
1081.724	400.25
1085.001	397.11
1088.278	388.47
1091.554	380.96
1094.83	381.93
1098.106	379.69
1101.382	376.03
1104.657	373.69
1107.932	368.18
1111.206	370.62
1114.481	360.93
1117.755	357
1121.029	354.48
1124.302	354.37
1127.575	346.83
1130.848	341.41
1134.121	337.92
1137.393	337.02
1140.665	328.45
1143.937	326.96
1147.208	323.74
1150.48	323.29
1153.75	318.82
1157.021	314.43
1160.291	314.84
1163.561	311.2
1166.831	312
1170.101	309.6
1173.37	308.87
1176.639	310.13
1179.907	306.76
1183.176	303.88
1186.444	303.31
1189.711	303.22
1192.979	301.98
1196.246	299.86
1199.513	301.43
1202.78	299.35
1206.046	299.13
1209.312	296.4
1212.578	296.72
1215.843	299.3
1219.108	296.68
1222.373	303.2
1225.638	305.41
1228.902	309.63
1232.166	309.87
1235.43	312
1238.693	316.24
1241.956	317.89
1245.219	322.27
1248.482	322.54
1251.744	322.14
1255.006	324.67
1258.268	315.81
1261.529	312.8
1264.79	310.32
1268.051	308.64
1271.312	305.2
1274.572	300.27
1277.832	297.88
1281.092	293.1
1284.351	290.55
1287.61	290.49
1290.869	285.36
1294.128	283.68
1297.386	283.94
1300.644	280.8
1303.902	281.18
1307.159	280.25
1310.416	280.69
1313.673	280.08
1316.93	282.28
1320.186	283.02
1323.442	283.95
1326.697	289.05
1329.953	290.12
1333.208	291.15
1336.463	294.82
1339.717	295.47
1342.972	298.56
1346.226	302.1
1349.479	302.34
1352.733	304.2
1355.986	305.87
1359.238	305.98
1362.491	307.38
1365.743	310.77
1368.995	309.99
1372.247	309.53
1375.498	309.2
1378.749	312.19
1382	307.29
1385.251	309.18
1388.501	307.21
1391.751	308.01
1395	306.37
1398.25	303.9
1401.499	301.71
1404.748	301.82
1407.996	299.85
1411.244	298.67
1414.492	296.59
1417.74	294.52
1420.987	289.19
1424.234	289.52
1427.481	285.19
1430.728	285.27
1433.974	282.6
1437.22	280.18
1440.465	279.29
1443.711	276.26
1446.956	275.03
1450.201	271.36
1453.445	269.13
1456.689	268.4
1459.933	263.31
1463.177	261.57
1466.42	257.02
1469.663	253.96
1472.906	252.25
1476.148	245.53
1479.391	242.61
1482.633	240.21
1485.874	236.58
1489.115	234.65
1492.356	232.89
1495.597	232.13
1498.838	228.58
1502.078	227.48
1505.318	226.38
1508.557	225.94
1511.797	225.76
1515.036	224.9
1518.274	224.08
1521.513	222.37
1524.751	221.77
1527.989	220.28
1531.227	219.56
1534.464	220.05
1537.701	217.99
1540.938	217.57
1544.174	215.68
1547.41	215.15
1550.646	213.76
1553.882	213.41
1557.117	210.85
1560.352	209.98
1563.587	209.31
1566.821	207.68
1570.055	205.34
1573.289	204.18
1576.523	203.48
1579.756	201.58
1582.989	200.75
1586.222	200.79
1589.454	199.33
1592.686	200.88
1595.918	199.52
1599.15	198.87
1602.381	199.51
1605.612	199.44
1608.843	200.27
1612.073	200.38
1615.303	201.14
1618.533	200.93
1621.762	200.12
1624.992	200.64
1628.221	200.15
1631.449	200.32
1634.678	199.8
1637.906	200.31
1641.134	200.36
1644.361	199.65
1647.588	200.21
1650.815	199.54
1654.042	199.18
1657.269	199.98
1660.495	199.76
1663.72	199.41
1666.946	200.25
1670.171	200.74
1673.396	200.57
1676.621	200.46
1679.845	201.03
1683.069	201.13
1686.293	202.49
1689.517	203.57
1692.74	203.74
1695.963	204.6
1699.185	206.29
1702.408	206.24
1705.63	206.95
1708.852	207.28
1712.073	208.32
1715.294	208.56
1718.515	209.45
1721.736	209.09
1724.956	209.48
1728.176	209.59
1731.396	211.25
1734.616	210.44
1737.835	211.48
1741.054	209.94
1744.272	210.77
1747.491	212.24
1750.709	213.12
1753.927	213.16
1757.144	212.01
1760.361	213.27
1763.578	213.44
1766.795	212.83
1770.011	214.59
1773.227	214.44
1776.443	217.51
1779.658	218.33
1782.874	217.87
1786.089	218.16
1789.303	218.73
1792.518	222.39
1795.732	221.97
1798.945	224.32
1802.159	224.61
1805.372	224.92
1808.585	228.61
1811.797	229.53
1815.01	229.7
1818.222	231.53
1821.434	233.12
1824.645	234.04
1827.856	237.45
1831.067	239.39
1834.278	238.49
1837.488	240.52
1840.698	242.39
1843.908	240.04
1847.117	241.03
1850.326	243.04
1853.535	242.21
1856.744	246.25
1859.952	245.99
1863.16	244.38
1866.368	242.49
1869.575	245.63
1872.782	242.01
1875.989	241.2
1879.196	240.62
1882.402	239.52
1885.608	240.07
1888.814	240.76
1892.019	240.09
1895.224	239.58
1898.429	238.53
1901.634	240.78
1904.838	240.63
1908.042	243.07
1911.246	244.25
1914.449	245.75
1917.652	246.06
1920.855	245.75
1924.058	245.82
1927.26	244.14
1930.462	245.15
1933.664	247.57
1936.865	245.7
1940.066	245.44
1943.267	244.84
1946.467	244.14
1949.668	245.82
1952.868	247.92
1956.067	247.67
1959.267	248.69
1962.466	249.73
1965.665	248.49
1968.863	249.53
1972.061	253.4
1975.259	255.45
1978.457	256.65
1981.654	259.38
1984.852	259.84
1988.048	259.6
1991.245	261.9
1994.441	264.14
1997.637	266.14
2000.833	271.91
2004.028	275.13
2007.223	274.83
2010.418	278.16
2013.613	282.86
2016.807	285.46
2020.001	287.56
2023.194	292.45
2026.388	299.24
2029.581	305.96
2032.774	308.61
2035.966	313.13
2039.158	313.75
2042.35	320.57
2045.542	323.21
2048.733	328.91
2051.924	333.96
2055.115	339.23
2058.306	339.36
2061.496	342.38
2064.686	341.4
2067.875	347.42
2071.065	349.96
2074.254	348.21
2077.442	352.55
2080.631	353.46
2083.819	356.46
2087.007	355.8
2090.195	360.82
2093.382	364.36
2096.569	361.88
2099.756	368.93
2102.942	369.52
2106.128	372.52
2109.314	382.07
2112.5	380.61
2115.685	389.15
2118.87	389.98
2122.055	398.4
2125.239	400.86
2128.424	405.6
2131.608	409.86
2134.791	414.48
2137.974	417
2141.157	417.94
2144.34	417.9
2147.523	424.57
2150.705	421.25
2153.887	424.1
2157.068	424.67
2160.25	420.63
2163.431	421.99
2166.611	426.24
2169.792	434.14
2172.972	438.9
2176.152	441.83
2179.331	448.02
2182.511	455.84
2185.69	460.66
2188.868	470.59
2192.047	471.51
2195.225	485.81
2198.403	499.41
2201.58	508.9
2204.758	518.59
2207.935	529.09
2211.111	538.92
2214.288	544.93
2217.464	546
2220.64	555.46
2223.815	563.5
2226.991	586.02
2230.166	587.5
2233.34	596.37
2236.515	605.19
2239.689	604.86
2242.863	609.52
2246.036	627.96
2249.209	622.23
2252.382	632.8
2255.555	652.3
2258.727	654.7
2261.9	658.4
2265.071	664.72
2268.243	676.9
2271.414	683.39
2274.585	700.16
2277.756	705.24
2280.926	708.07
2284.096	727.72
2287.266	742.63
2290.436	746.4
2293.605	764.83
2296.774	788.26
2299.942	813.88
2303.111	815.11
2306.279	836.69
2309.447	848.4
2312.614	869.95
2315.781	894.3
2318.948	936.26
2322.115	923.88
2325.281	975.21
2328.447	953.78
2331.613	995.05
2334.779	982.19
2337.944	1028.68
2341.109	1036.48
2344.274	1062.18
2347.438	1100.81
2350.602	1101.15
2353.766	1134.3
2356.929	1150.5
2360.092	1139.77
2363.255	1223.96
2366.418	1216.73
2369.58	1241.52
2372.742	1320.18
2375.904	1353.77
2379.066	1346.47
2382.227	1317.5
2385.388	1433.86
2388.548	1429.96
2391.709	1446.36
2394.869	1616.83
2398.029	1545.48
2401.188	1591.76
2404.347	1579.84
2407.506	1546.34
2410.665	1592.1
2413.823	1691.37
2416.981	1794.32
2420.139	1732.15
2423.296	1716.79
2426.453	1795.67
2429.61	1726.83
2432.767	1807.11
2435.923	1785.39
2439.079	1959.49
2442.235	1988.69
2445.391	1970.25
2448.546	1953.42
2451.701	1903.77
2454.855	1903.23
2458.009	2014.74
2461.163	2098.07
2464.317	2173.87
2467.471	2232.85
2470.624	2232.37
2473.777	2168.26
2476.929	2114.32
2480.082	2051.37
2483.234	2029.34
2486.385	2128.51
2489.537	2136.41
2492.688	2222.89
2495.839	2151.21
2498.989	2105.96
2502.14	2112.5
2505.29	2137.34
2508.439	2178.59
2511.589	2169.36
2514.738	2365.61
2517.887	2315.74
2521.035	2447.99
2524.183	2472.95
2527.331	2481.8
2530.479	2480.83
2533.627	2495.84
