Data from C_2_DIV_IL_4N_Splice17_13-41-14-067.txt Node
Date: Sat Mar 07 13:41:14 EST 2020
User: sa697716
Spectrometer: NQ5500242
Trigger mode: 0
Integration Time (sec): 1.450000E-1
Scans to average: 20
Nonlinearity correction enabled: false
Boxcar width: 5
Storing dark spectrum: false
XAxis mode: Wavelengths
Number of Pixels in Spectrum: 512
>>>>>Begin Spectral Data<<<<<
187.83	233.39
188.298	267.68
188.766	247.02
189.233	176.82
189.701	190.22
190.169	218.1
190.636	223.78
191.104	278.36
191.571	-114.5
192.039	-380.09
192.506	-667.14
192.974	75.07
193.441	206.28
193.908	119.44
194.375	31.3
194.842	-43.74
195.31	-16.03
195.777	20.91
196.244	92.12
196.711	92.7
197.177	94.74
197.644	94.93
198.111	95.24
198.578	96.32
199.045	96.84
199.511	96.95
199.978	97.48
200.445	97.59
200.911	97.49
201.378	97.64
201.844	97.51
202.31	96.98
202.777	96.8
203.243	96.6
203.709	95.45
204.176	94.22
204.642	93.31
205.108	92.85
205.574	91.96
206.04	90.84
206.506	89.61
206.972	89.13
207.438	88.3
207.903	86.99
208.369	84.98
208.835	83.51
209.301	82.03
209.766	79.81
210.232	77.4
210.697	75.07
211.163	73.25
211.628	71.8
212.094	69.77
212.559	68.29
213.024	66.58
213.49	65.2
213.955	63.63
214.42	61.96
214.885	60.07
215.35	57.81
215.815	54.98
216.28	51.05
216.745	46.58
217.21	42.35
217.675	38.29
218.14	34.95
218.604	31.89
219.069	29.46
219.534	27.5
219.998	25.79
220.463	24.42
220.927	23.14
221.392	22.24
221.856	21.47
222.32	20.72
222.785	20.16
223.249	19.63
223.713	19.17
224.177	18.75
224.642	18.31
225.106	17.91
225.57	17.5
226.034	17.18
226.497	16.84
226.961	16.53
227.425	16.27
227.889	15.96
228.353	15.65
228.816	15.38
229.28	15.09
229.744	14.85
230.207	14.61
230.671	14.37
231.134	14.15
231.597	13.94
232.061	13.73
232.524	13.54
232.987	13.36
233.45	13.2
233.914	13.02
234.377	12.85
234.84	12.68
235.303	12.54
235.766	12.41
236.229	12.26
236.691	12.12
237.154	11.99
237.617	11.87
238.08	11.76
238.542	11.63
239.005	11.54
239.468	11.42
239.93	11.3
240.393	11.2
240.855	11.07
241.317	10.94
241.78	10.81
242.242	10.68
242.704	10.57
243.166	10.45
243.629	10.35
244.091	10.22
244.553	10.13
245.015	10.03
245.477	9.92
245.939	9.82
246.4	9.73
246.862	9.64
247.324	9.56
247.786	9.47
248.247	9.38
248.709	9.27
249.17	9.19
249.632	9.12
250.093	9.04
250.555	8.96
251.016	8.9
251.477	8.83
251.939	8.76
252.4	8.71
252.861	8.64
253.322	8.57
253.783	8.52
254.244	8.46
254.705	8.39
255.166	8.33
255.627	8.27
256.088	8.22
256.549	8.16
257.009	8.09
257.47	8.02
257.931	7.95
258.391	7.88
258.852	7.81
259.312	7.75
259.773	7.68
260.233	7.63
260.694	7.56
261.154	7.49
261.614	7.44
262.074	7.38
262.534	7.33
262.994	7.29
263.455	7.24
263.915	7.2
264.374	7.15
264.834	7.11
265.294	7.08
265.754	7.05
266.214	7.02
266.673	7
267.133	6.97
267.593	6.95
268.052	6.92
268.512	6.9
268.971	6.88
269.431	6.86
269.89	6.84
270.349	6.82
270.809	6.8
271.268	6.79
271.727	6.76
272.186	6.74
272.645	6.73
273.104	6.71
273.563	6.69
274.022	6.67
274.481	6.66
274.94	6.65
275.399	6.63
275.857	6.61
276.316	6.59
276.775	6.58
277.233	6.57
277.692	6.56
278.15	6.54
278.609	6.53
279.067	6.52
279.525	6.51
279.984	6.49
280.442	6.49
280.9	6.49
281.358	6.48
281.816	6.47
282.274	6.45
282.732	6.43
283.19	6.42
283.648	6.4
284.106	6.38
284.564	6.36
285.021	6.35
285.479	6.33
285.937	6.29
286.394	6.27
286.852	6.25
287.309	6.23
287.767	6.2
288.224	6.18
288.682	6.14
289.139	6.1
289.596	6.07
290.053	6.04
290.511	6
290.968	5.98
291.425	5.94
291.882	5.92
292.339	5.89
292.796	5.87
293.252	5.85
293.709	5.84
294.166	5.83
294.623	5.81
295.079	5.8
295.536	5.8
295.992	5.78
296.449	5.77
296.905	5.75
297.362	5.74
297.818	5.73
298.274	5.72
298.731	5.7
299.187	5.68
299.643	5.66
300.099	5.66
300.555	5.64
301.011	5.63
301.467	5.62
301.923	5.61
302.379	5.61
302.835	5.6
303.291	5.59
303.746	5.59
304.202	5.6
304.658	5.6
305.113	5.59
305.569	5.59
306.024	5.58
306.479	5.57
306.935	5.57
307.39	5.57
307.845	5.57
308.301	5.58
308.756	5.59
309.211	5.57
309.666	5.57
310.121	5.58
310.576	5.58
311.031	5.58
311.486	5.58
311.94	5.57
312.395	5.57
312.85	5.56
313.305	5.54
313.759	5.55
314.214	5.54
314.668	5.53
315.123	5.53
315.577	5.51
316.032	5.5
316.486	5.49
316.94	5.49
317.394	5.48
317.849	5.46
318.303	5.45
318.757	5.42
319.211	5.41
319.665	5.39
320.119	5.36
320.572	5.34
321.026	5.33
321.48	5.32
321.934	5.3
322.387	5.28
322.841	5.28
323.295	5.28
323.748	5.28
324.202	5.27
324.655	5.26
325.108	5.28
325.562	5.28
326.015	5.28
326.468	5.28
326.921	5.28
327.374	5.28
327.827	5.29
328.28	5.28
328.733	5.28
329.186	5.29
329.639	5.29
330.092	5.28
330.545	5.28
330.997	5.28
331.45	5.28
331.903	5.29
332.355	5.3
332.808	5.29
333.26	5.29
333.713	5.29
334.165	5.28
334.617	5.29
335.069	5.29
335.522	5.29
335.974	5.3
336.426	5.29
336.878	5.27
337.33	5.27
337.782	5.28
338.234	5.29
338.686	5.28
339.137	5.28
339.589	5.26
340.041	5.25
340.493	5.24
340.944	5.22
341.396	5.21
341.847	5.2
342.299	5.18
342.75	5.15
343.201	5.12
343.653	5.11
344.104	5.08
344.555	5.06
345.006	5.04
345.457	5.04
345.908	5.02
346.359	5.01
346.81	5.01
347.261	5
347.712	5
348.163	4.99
348.613	4.99
349.064	5
349.515	4.99
349.965	5
350.416	4.99
350.866	4.99
351.317	4.98
351.767	4.98
352.217	4.98
352.668	4.98
353.118	5
353.568	4.99
354.018	5
354.468	5.01
354.918	5.01
355.368	5.02
355.818	5.02
356.268	5.03
356.718	5.04
357.168	5.03
357.617	5.03
358.067	5.02
358.517	5.04
358.966	5.03
359.416	5.04
359.865	5.03
360.315	5.04
360.764	5.04
361.213	5.04
361.663	5.02
362.112	5.03
362.561	5.03
363.01	5.03
363.459	5.01
363.908	5
364.357	5
364.806	5
365.255	5
365.703	5.01
366.152	5.01
366.601	5.01
367.05	5.01
367.498	5
367.947	5
368.395	5.01
368.844	5.01
369.292	5
369.74	5
370.189	5
370.637	4.98
371.085	4.96
371.533	4.97
371.981	4.96
372.429	4.96
372.877	4.96
373.325	4.95
373.773	4.94
374.221	4.93
374.669	4.92
375.116	4.91
375.564	4.91
376.012	4.92
376.459	4.92
376.907	4.92
377.354	4.93
377.801	4.94
378.249	4.94
378.696	4.93
379.143	4.94
379.591	4.94
380.038	4.95
380.485	4.95
380.932	4.96
381.379	4.97
381.826	4.97
382.273	4.97
382.72	4.96
383.166	4.97
383.613	4.97
384.06	4.98
384.506	4.98
384.953	4.98
385.4	4.99
385.846	5
386.292	5
386.739	5
387.185	5.01
387.631	5.03
388.078	5.03
388.524	5.04
388.97	5.06
389.416	5.08
389.862	5.12
390.308	5.13
390.754	5.16
391.2	5.2
391.645	5.23
392.091	5.27
392.537	5.3
392.983	5.33
393.428	5.36
393.874	5.38
394.319	5.4
394.765	5.42
395.21	5.44
395.655	5.47
396.101	5.5
396.546	5.52
396.991	5.55
397.436	5.6
397.881	5.64
398.326	5.68
398.771	5.74
399.216	5.77
399.661	5.8
400.106	5.83
400.551	5.86
400.995	5.88
401.44	5.92
401.885	5.95
402.329	5.98
402.774	6.03
403.218	6.07
403.663	6.1
404.107	6.14
404.551	6.17
404.995	6.2
405.44	6.22
405.884	6.27
406.328	6.29
406.772	6.32
407.216	6.33
407.66	6.35
408.104	6.35
408.547	6.37
408.991	6.41
409.435	6.44
409.879	6.48
410.322	6.53
410.766	6.57
411.209	6.62
411.653	6.67
412.096	6.72
412.54	6.75
412.983	6.8
413.426	6.87
413.869	6.92
414.312	6.97
414.756	7.01
415.199	7.03
415.642	7.05
416.085	7.07
416.527	7.08
416.97	7.08
417.413	7.08
417.856	7.08
418.298	7.08
418.741	7.08
419.184	7.09
419.626	7.1
420.069	7.13
420.511	7.14
420.953	7.17
421.396	7.21
421.838	7.23
422.28	7.27
422.722	7.3
423.164	7.31
423.606	7.34
424.048	7.35
424.49	7.35
424.932	7.36
425.374	7.33
425.816	7.31
426.258	7.28
426.699	7.29
427.141	7.29
427.582	7.31
428.024	7.33
428.465	7.33
428.907	7.33
429.348	7.33
429.789	7.35
430.231	7.4
430.672	7.45
431.113	7.49
431.554	7.52
431.995	7.54
432.436	7.56
432.877	7.59
433.318	7.62
433.759	7.67
434.2	7.72
434.64	7.76
435.081	7.79
435.522	7.81
435.962	7.83
436.403	7.85
436.843	7.86
437.284	7.85
437.724	7.87
438.164	7.86
438.604	7.88
439.045	7.87
439.485	7.86
439.925	7.86
440.365	7.87
440.805	7.88
441.245	7.91
441.685	7.94
442.125	7.97
442.564	7.98
443.004	8
443.444	8.01
443.883	8.05
444.323	8.07
444.762	8.09
445.202	8.12
445.641	8.16
446.081	8.17
446.52	8.18
446.959	8.22
447.398	8.24
447.837	8.26
448.276	8.29
448.716	8.29
449.154	8.31
449.593	8.33
450.032	8.33
450.471	8.31
450.91	8.33
451.349	8.34
451.787	8.32
452.226	8.3
452.664	8.31
453.103	8.28
453.541	8.26
453.98	8.26
454.418	8.23
454.856	8.22
455.295	8.21
455.733	8.16
456.171	8.13
456.609	8.13
457.047	8.11
457.485	8.1
457.923	8.11
458.361	8.11
458.798	8.1
459.236	8.1
459.674	8.1
460.111	8.1
460.549	8.12
460.987	8.13
461.424	8.13
461.862	8.15
462.299	8.16
462.736	8.16
463.173	8.16
463.611	8.18
464.048	8.19
464.485	8.2
464.922	8.2
465.359	8.21
465.796	8.23
466.233	8.24
466.67	8.25
467.106	8.25
467.543	8.25
467.98	8.24
468.416	8.23
468.853	8.21
469.29	8.19
469.726	8.19
470.162	8.2
470.599	8.17
471.035	8.15
471.471	8.14
471.907	8.11
472.344	8.1
472.78	8.11
473.216	8.09
473.652	8.09
474.088	8.08
474.523	8.08
474.959	8.07
475.395	8.05
475.831	8.05
476.266	8.04
476.702	8.03
477.138	8.02
477.573	8.02
478.008	8.02
478.444	8
478.879	8
479.314	7.98
479.75	7.96
480.185	7.94
480.62	7.91
481.055	7.9
481.49	7.89
481.925	7.88
482.36	7.87
482.795	7.85
483.229	7.84
483.664	7.84
484.099	7.83
484.534	7.83
484.968	7.84
485.403	7.85
485.837	7.85
486.271	7.87
486.706	7.87
487.14	7.88
487.574	7.9
488.009	7.92
488.443	7.93
488.877	7.96
489.311	7.99
489.745	8.02
490.179	8.07
490.613	8.11
491.046	8.14
491.48	8.17
491.914	8.21
492.348	8.25
492.781	8.3
493.215	8.35
493.648	8.4
494.082	8.44
494.515	8.48
494.948	8.54
495.382	8.58
495.815	8.65
496.248	8.72
496.681	8.8
497.114	8.86
497.547	8.94
497.98	9.02
498.413	9.1
498.846	9.19
499.279	9.28
499.711	9.36
500.144	9.46
500.577	9.57
501.009	9.65
501.442	9.76
501.874	9.88
502.306	9.99
502.739	10.12
503.171	10.26
503.603	10.39
504.036	10.54
504.468	10.69
504.9	10.84
505.332	10.99
505.764	11.17
506.196	11.34
506.627	11.53
507.059	11.73
507.491	11.91
507.923	12.11
508.354	12.33
508.786	12.54
509.217	12.77
509.649	13.01
510.08	13.24
510.512	13.49
510.943	13.73
511.374	13.97
511.805	14.23
512.237	14.48
512.668	14.75
513.099	15.01
513.53	15.28
513.961	15.57
514.391	15.85
514.822	16.15
515.253	16.42
515.684	16.71
516.114	17.01
516.545	17.32
516.975	17.62
517.406	17.94
517.836	18.23
518.267	18.55
518.697	18.84
519.127	19.13
519.558	19.42
519.988	19.73
520.418	20.03
520.848	20.32
521.278	20.59
521.708	21.12
522.138	21.4
522.567	21.68
522.997	21.95
523.427	22.22
523.857	22.49
524.286	22.75
524.716	23
525.145	23.24
525.575	23.48
526.004	23.73
526.433	23.71
526.863	23.92
527.292	24.14
527.721	24.33
528.15	24.51
528.579	24.7
529.008	24.89
529.437	25.06
529.866	25.22
530.295	25.37
530.724	25.53
531.152	25.68
531.581	25.83
532.01	25.96
532.438	26.1
532.867	26.24
533.295	26.34
533.723	26.44
534.152	26.55
534.58	26.65
535.008	26.74
535.436	26.83
535.865	26.91
536.293	26.98
536.721	27.06
537.149	27.14
537.576	27.2
538.004	27.29
538.432	27.35
538.86	27.41
539.287	27.46
539.715	27.52
540.143	27.56
540.57	27.62
540.998	27.68
541.425	27.73
541.852	27.77
542.28	27.81
542.707	27.84
543.134	27.89
543.561	27.94
543.988	27.99
544.415	28.03
544.842	28.06
545.269	28.11
545.696	28.13
546.123	28.16
546.549	28.19
546.976	28.24
547.403	28.27
547.829	28.3
548.256	28.31
548.682	28.34
549.108	28.38
549.535	28.41
549.961	28.42
550.387	28.44
550.813	28.48
551.24	28.49
551.666	28.49
552.092	28.5
552.518	28.49
552.943	28.49
553.369	28.47
553.795	28.45
554.221	28.43
554.646	28.41
555.072	28.4
555.498	28.34
555.923	28.29
556.349	28.22
556.774	28.17
557.199	28.11
557.625	28.05
558.05	27.98
558.475	27.91
558.9	27.84
559.325	27.76
559.75	27.68
560.175	27.6
560.6	27.5
561.025	27.42
561.449	27.32
561.874	27.22
562.299	27.11
562.723	26.99
563.148	26.85
563.572	26.71
563.997	26.57
564.421	26.42
564.846	26.29
565.27	26.16
565.694	26.04
566.118	25.88
566.542	25.74
566.966	25.59
567.39	25.45
567.814	25.31
568.238	25.18
568.662	25.04
569.086	24.9
569.509	24.75
569.933	24.63
570.357	24.46
570.78	24.33
571.204	24.2
571.627	24.07
572.05	23.93
572.474	23.82
572.897	23.69
573.32	23.57
573.743	23.44
574.166	23.33
574.589	23.2
575.012	23.1
575.435	22.97
575.858	22.86
576.281	22.74
576.704	22.63
577.126	22.5
577.549	22.39
577.972	22.28
578.394	22.19
578.817	22.09
579.239	21.99
579.661	21.91
580.084	21.83
580.506	21.75
580.928	21.67
581.35	21.58
581.772	21.5
582.194	21.43
582.616	21.36
583.038	21.27
583.46	21.19
583.882	21.12
584.303	21.03
584.725	20.95
585.147	20.89
585.568	20.81
585.99	20.76
586.411	20.71
586.833	20.63
587.254	20.56
587.675	20.49
588.096	20.43
588.518	20.37
588.939	20.34
589.36	20.28
589.781	20.21
590.202	20.19
590.623	20.13
591.043	20.08
591.464	20.05
591.885	20.01
592.305	19.98
592.726	19.95
593.147	19.91
593.567	19.85
593.987	19.82
594.408	19.78
594.828	19.73
595.248	19.69
595.669	19.65
596.089	19.61
596.509	19.57
596.929	19.53
597.349	19.48
597.769	19.45
598.189	19.42
598.608	19.38
599.028	19.35
599.448	19.3
599.867	19.26
600.287	19.22
600.706	19.17
601.126	19.13
601.545	19.09
601.965	19.05
602.384	19
602.803	18.94
603.222	18.88
603.641	18.81
604.061	18.76
604.48	18.7
604.898	18.63
605.317	18.57
605.736	18.49
606.155	18.42
606.574	18.33
606.992	18.25
607.411	18.18
607.829	18.07
608.248	17.99
608.666	17.9
609.085	17.82
609.503	17.75
609.921	17.67
610.339	17.59
610.758	17.51
611.176	17.42
611.594	17.35
612.012	17.25
612.43	17.19
612.847	17.12
613.265	17.05
613.683	16.97
614.101	16.89
614.518	16.8
614.936	16.72
615.353	16.62
615.771	16.55
616.188	16.48
616.606	16.41
617.023	16.36
617.44	16.31
617.857	16.24
618.274	16.18
618.691	16.13
619.108	16.08
619.525	16.02
619.942	16
620.359	15.96
620.776	15.93
621.192	15.89
621.609	15.86
622.026	15.81
622.442	15.79
622.859	15.76
623.275	15.73
623.691	15.7
624.108	15.69
624.524	15.68
624.94	15.67
625.356	15.66
625.772	15.64
626.188	15.64
626.604	15.63
627.02	15.61
627.436	15.61
627.852	15.61
628.268	15.62
628.683	15.6
629.099	15.59
629.514	15.57
629.93	15.54
630.345	15.53
630.761	15.49
631.176	15.47
631.591	15.44
632.007	15.41
632.422	15.35
632.837	15.31
633.252	15.26
633.667	15.19
634.082	15.12
634.497	15.08
634.911	15.02
635.326	14.94
635.741	14.86
636.155	14.78
636.57	14.67
636.984	14.59
637.399	14.48
637.813	14.38
638.228	14.28
638.642	14.17
639.056	14.04
639.47	13.91
639.884	13.8
640.298	13.67
640.712	13.55
641.126	13.44
641.54	13.3
641.954	13.18
642.368	13.06
642.781	12.94
643.195	12.81
643.609	12.72
644.022	12.6
644.436	12.48
644.849	12.38
645.262	12.27
645.676	12.17
646.089	12.08
646.502	12
646.915	11.92
647.328	11.84
647.741	11.77
648.154	11.69
648.567	11.64
648.98	11.58
649.393	11.52
649.805	11.48
650.218	11.43
650.631	11.38
651.043	11.34
651.456	11.29
651.868	11.23
652.28	11.19
652.693	11.15
653.105	11.09
653.517	11.03
653.929	10.97
654.341	10.89
654.753	10.83
655.165	10.75
655.577	10.68
655.989	10.59
656.401	10.52
656.813	10.43
657.224	10.32
657.636	10.22
658.047	10.12
658.459	10.03
658.87	9.94
659.282	9.83
659.693	9.74
660.104	9.63
660.515	9.54
660.926	9.43
661.338	9.32
661.749	9.22
662.159	9.13
662.57	9.04
662.981	8.94
663.392	8.86
663.803	8.77
664.213	8.69
664.624	8.62
665.035	8.54
665.445	8.48
665.855	8.44
666.266	8.4
666.676	8.36
667.086	8.31
667.497	8.28
667.907	8.25
668.317	8.22
668.727	8.2
669.137	8.17
669.547	8.15
669.956	8.13
670.366	8.11
670.776	8.09
671.186	8.06
671.595	8.04
672.005	8.03
672.414	8.02
672.824	8.02
673.233	8.02
673.642	8.03
674.052	8.04
674.461	8.05
674.87	8.06
675.279	8.08
675.688	8.11
676.097	8.14
676.506	8.17
676.915	8.2
677.323	8.24
677.732	8.27
678.141	8.29
678.549	8.33
678.958	8.38
679.366	8.46
679.775	8.51
680.183	8.59
680.592	8.68
681	8.76
681.408	8.86
681.816	8.97
682.224	9.1
682.632	9.25
683.04	9.4
683.448	9.56
683.856	9.73
684.264	9.94
684.671	10.16
685.079	10.4
685.487	10.67
685.894	10.97
686.302	11.28
686.709	11.62
687.116	11.98
687.524	12.38
687.931	12.79
688.338	13.23
688.745	13.67
689.152	14.15
689.559	14.66
689.966	15.17
690.373	15.7
690.78	16.25
691.187	16.82
691.593	17.4
692	17.99
692.407	18.58
692.813	19.2
693.22	19.81
693.626	20.44
694.032	21.06
694.439	21.7
694.845	22.33
695.251	22.95
695.657	23.58
696.063	24.2
696.469	24.81
696.875	25.44
697.281	26.04
697.687	26.65
698.093	27.25
698.498	27.83
698.904	28.39
699.31	28.96
699.715	29.52
700.12	30.06
700.526	30.6
700.931	31.13
701.337	31.63
701.742	32.12
702.147	32.6
702.552	33.06
702.957	33.53
703.362	34
703.767	34.44
704.172	34.86
704.577	35.29
704.981	35.71
705.386	36.12
705.791	36.54
706.195	36.95
706.6	37.37
707.004	37.77
707.408	38.14
707.813	38.52
708.217	38.9
708.621	39.3
709.025	39.64
709.43	39.98
709.834	40.32
710.237	40.64
710.641	40.96
711.045	41.26
711.449	41.59
711.853	41.94
712.256	42.24
712.66	42.54
713.064	42.81
713.467	43.11
713.87	43.4
714.274	43.68
714.677	43.95
715.08	44.2
715.484	44.47
715.887	44.74
716.29	44.96
716.693	45.21
717.096	45.42
717.499	45.67
717.901	45.92
718.304	46.16
718.707	46.39
719.109	46.64
719.512	46.88
719.915	47.09
720.317	47.25
720.719	47.42
721.122	47.6
721.524	47.83
721.926	48
722.328	48.18
722.731	48.32
723.133	48.49
723.535	48.62
723.937	48.75
724.338	48.91
724.74	49.07
725.142	49.4
725.544	49.54
725.945	49.68
726.347	49.79
726.748	49.91
727.15	50
727.551	50.14
727.952	50.22
728.354	50.34
728.755	50.42
729.156	50.5
729.557	50.43
729.958	50.49
730.359	50.56
730.76	50.66
731.161	50.74
731.562	50.84
731.962	50.89
732.363	50.98
732.763	51.03
733.164	51.12
733.564	51.19
733.965	51.27
734.365	51.36
734.766	51.42
735.166	51.48
735.566	51.55
735.966	51.62
736.366	51.67
736.766	51.72
737.166	51.78
737.566	51.8
737.966	51.83
738.365	51.87
738.765	51.92
739.165	51.94
739.564	51.99
739.964	52
740.363	52.02
740.763	52.09
741.162	52.14
741.561	52.18
741.96	52.26
742.36	52.3
742.759	52.34
743.158	52.35
743.557	52.38
743.955	52.41
744.354	52.45
744.753	52.48
745.152	52.5
745.55	52.51
745.949	52.52
746.348	52.5
746.746	52.51
747.144	52.52
747.543	52.53
747.941	52.55
748.339	52.54
748.737	52.55
749.136	52.55
749.534	52.52
749.932	52.51
750.33	52.51
750.727	52.54
751.125	52.54
751.523	52.53
751.921	52.56
752.318	52.57
752.716	52.6
753.113	52.6
753.511	52.61
753.908	52.67
754.305	52.7
754.703	52.73
755.1	52.76
755.497	52.78
755.894	52.79
756.291	52.79
756.688	52.8
757.085	52.82
757.482	52.86
757.878	52.9
758.275	52.88
758.672	52.9
759.068	52.9
759.465	52.93
759.861	52.92
760.258	52.94
760.654	52.95
761.05	52.98
761.447	52.98
761.843	52.98
762.239	52.98
762.635	52.98
763.031	52.98
763.427	52.96
763.822	52.95
764.218	52.95
764.614	52.97
765.01	52.98
765.405	52.97
765.801	52.97
766.196	52.95
766.592	52.92
766.987	52.93
767.382	52.93
767.778	52.96
768.173	52.96
768.568	52.96
768.963	52.95
769.358	52.95
769.753	52.95
770.148	52.94
770.542	52.95
770.937	52.98
771.332	52.97
771.726	52.99
772.121	52.98
772.515	53
772.91	53.01
773.304	53.03
773.699	53.03
774.093	53.03
774.487	53.06
774.881	53.09
775.275	53.06
775.669	53.03
776.063	53
776.457	53
776.851	52.98
777.245	52.96
777.638	52.96
778.032	52.98
778.425	53
778.819	52.98
779.212	53.01
779.606	53.06
779.999	53.09
780.392	53.11
780.786	53.13
781.179	53.16
781.572	53.2
781.965	53.2
782.358	53.2
782.751	53.2
783.143	53.2
783.536	53.14
783.929	53.14
784.322	53.16
784.714	53.17
785.107	53.2
785.499	53.16
785.891	53.15
786.284	53.14
786.676	53.12
787.068	53.13
787.46	53.15
787.852	53.17
788.245	53.18
788.636	53.15
789.028	53.16
789.42	53.14
789.812	53.17
790.204	53.2
790.595	53.22
790.987	53.22
791.378	53.22
791.77	53.22
792.161	53.22
792.553	53.22
792.944	53.24
793.335	53.28
793.726	53.27
794.117	53.24
794.508	53.2
794.899	53.21
795.29	53.22
795.681	53.2
796.072	53.19
796.463	53.28
796.853	53.25
797.244	53.24
797.634	53.22
798.025	53.26
798.415	53.27
798.806	53.28
799.196	53.3
799.586	53.32
799.976	53.35
800.366	53.37
800.756	53.29
801.146	53.35
801.536	53.38
801.926	53.38
802.316	53.37
802.706	53.41
803.095	53.44
803.485	53.43
803.874	53.4
804.264	53.41
804.653	53.41
805.043	53.42
805.432	53.39
805.821	53.4
806.21	53.41
806.599	53.41
806.988	53.4
807.377	53.39
807.766	53.38
808.155	53.36
808.544	53.36
808.933	53.37
809.321	53.36
809.71	53.36
810.098	53.35
810.487	53.34
810.875	53.34
811.264	53.32
811.652	53.32
812.04	53.32
812.428	53.37
812.816	53.36
813.204	53.35
813.592	53.34
813.98	53.35
814.368	53.33
814.756	53.33
815.144	53.32
815.531	53.34
815.919	53.32
816.306	53.33
816.694	53.31
817.081	53.29
817.469	53.29
817.856	53.29
818.243	53.27
818.63	53.27
819.017	53.24
819.404	53.22
819.791	53.2
820.178	53.19
820.565	53.17
820.952	53.15
821.339	53.14
821.725	53.15
822.112	53.16
822.498	53.19
822.885	53.19
823.271	53.19
823.657	53.19
824.044	53.2
824.43	53.21
824.816	53.21
825.202	53.21
825.588	53.21
825.974	53.19
826.36	53.19
826.746	53.18
827.132	53.19
827.517	53.21
827.903	53.23
828.289	53.26
828.674	53.25
829.06	53.24
829.445	53.25
829.83	53.24
830.216	53.24
830.601	53.22
830.986	53.22
831.371	53.2
831.756	53.16
832.141	53.15
832.526	53.11
832.911	53.09
833.295	53.1
833.68	53.1
834.065	53.1
834.449	53.08
834.834	53.05
835.218	53.04
835.603	53.04
835.987	53.04
836.371	53.02
836.755	52.98
837.139	52.97
837.524	52.97
837.908	52.97
838.291	53
838.675	52.99
839.059	53.01
839.443	52.96
839.827	52.93
840.21	52.91
840.594	52.91
840.977	52.95
841.361	52.98
841.744	52.92
842.127	52.86
842.511	52.83
842.894	52.82
843.277	52.82
843.66	52.81
844.043	52.84
844.426	52.87
844.809	52.87
845.191	52.86
845.574	52.86
845.957	52.9
846.339	52.94
846.722	52.94
847.104	52.96
847.487	52.94
847.869	52.97
848.252	52.96
848.634	52.92
849.016	52.93
849.398	52.95
849.78	52.92
850.162	52.94
850.544	52.92
850.926	52.93
851.307	52.92
851.689	52.95
852.071	52.95
852.452	52.96
852.834	52.99
853.215	52.98
853.597	52.96
853.978	52.98
854.359	52.96
854.741	52.98
855.122	52.96
855.503	52.94
855.884	52.93
856.265	52.93
856.646	52.91
857.026	52.9
857.407	52.9
857.788	52.89
858.169	52.91
858.549	52.89
858.93	52.88
859.31	52.88
859.69	52.9
860.071	52.9
860.451	52.91
860.831	52.93
861.211	52.91
861.591	52.9
861.971	52.9
862.351	52.9
862.731	52.93
863.111	52.93
863.491	52.94
863.87	52.93
864.25	52.91
864.629	52.9
865.009	52.89
865.388	52.91
865.768	52.93
866.147	52.96
866.526	52.94
866.905	52.93
867.284	52.92
867.663	52.93
868.042	52.93
868.421	52.96
868.8	52.98
869.179	53.01
869.558	53.02
869.936	53.02
870.315	53
870.693	53.02
871.072	53.04
871.45	53.06
871.828	53.07
872.207	53.1
872.585	53.11
872.963	53.1
873.341	53.06
873.719	53.06
874.097	53.08
874.475	53.11
874.853	53.12
875.23	53.14
875.608	53.12
875.986	53.14
876.363	53.13
876.741	53.13
877.118	53.14
877.495	53.18
877.873	53.2
878.25	53.2
878.627	53.19
879.004	53.15
879.381	53.14
879.758	53.13
880.135	53.1
880.512	53.07
880.889	53.04
881.265	53
881.642	52.95
882.019	52.93
882.395	52.9
882.772	52.87
883.148	52.85
883.524	52.81
883.901	52.81
884.277	52.78
884.653	52.77
885.029	52.76
885.405	52.76
885.781	52.75
886.157	52.73
886.532	52.72
886.908	52.7
887.284	52.69
887.659	52.67
888.035	52.64
888.411	52.62
888.786	52.61
889.161	52.61
889.537	52.6
889.912	52.6
890.287	52.61
890.662	52.6
891.037	52.62
891.412	52.61
891.787	52.6
892.162	52.63
892.536	52.63
892.911	52.63
893.286	52.64
893.66	52.67
894.035	52.67
894.409	52.65
894.784	52.66
895.158	52.64
895.532	52.67
895.906	52.68
896.281	52.68
896.655	52.72
897.029	52.74
897.402	52.74
897.776	52.72
898.15	52.74
898.524	52.78
898.898	52.81
899.271	52.85
899.645	52.89
900.018	52.92
900.392	52.93
900.765	52.95
901.138	52.96
901.511	52.95
901.884	53
902.258	53.03
902.631	53.04
903.003	53.02
903.376	53.01
903.749	52.99
904.122	53.01
904.495	53.04
904.867	53.05
905.24	53.07
905.612	53.13
905.985	53.1
906.357	53.1
906.729	53.12
907.102	53.13
907.474	53.15
907.846	53.16
908.218	53.15
908.59	53.18
908.962	53.18
909.334	53.19
909.705	53.14
910.077	53.17
910.449	53.19
910.82	53.18
911.192	53.18
911.563	53.19
911.935	53.2
912.306	53.21
912.677	53.2
913.048	53.22
913.419	53.2
913.79	53.24
914.161	53.22
914.532	53.2
914.903	53.21
915.274	53.24
915.645	53.21
916.015	53.25
916.386	53.24
916.756	53.24
917.127	53.24
917.497	53.26
917.868	53.27
918.238	53.29
918.608	53.33
918.978	53.36
919.348	53.36
919.718	53.39
920.088	53.38
920.458	53.39
920.828	53.38
921.198	53.36
921.567	53.39
921.937	53.39
922.306	53.37
922.676	53.38
923.045	53.37
923.415	53.35
923.784	53.36
924.153	53.37
924.522	53.39
924.891	53.4
925.26	53.41
925.629	53.38
925.998	53.36
926.367	53.39
926.736	53.38
927.104	53.37
927.473	53.35
927.842	53.32
928.21	53.32
928.578	53.3
928.947	53.29
929.315	53.33
929.683	53.37
930.051	53.35
930.42	53.37
930.788	53.37
931.156	53.35
931.523	53.42
931.891	53.5
932.259	53.53
932.627	53.56
932.994	53.61
933.362	53.61
933.729	53.65
934.097	53.72
934.464	53.78
934.831	53.78
935.199	53.85
935.566	53.86
935.933	53.82
936.3	53.87
936.667	53.91
937.034	53.98
937.401	54.03
937.767	54.04
938.134	54.03
938.501	54.04
938.867	54.14
939.234	54.15
939.6	54.16
939.967	54.26
940.333	54.19
940.699	54.19
941.065	54.11
941.431	54.13
941.798	54.1
942.163	54.09
942.529	54.04
942.895	53.99
943.261	53.98
943.627	53.95
943.992	53.9
944.358	53.93
944.723	53.91
945.089	53.88
945.454	53.83
945.82	53.76
946.185	53.78
946.55	53.68
946.915	53.64
947.28	53.58
947.645	53.57
948.01	53.54
948.375	53.46
948.74	53.38
949.104	53.38
949.469	53.34
949.834	53.32
950.198	53.3
950.562	53.29
950.927	53.21
951.291	53.13
951.655	53.03
952.02	52.98
952.384	52.97
952.748	52.96
953.112	52.94
953.476	52.85
953.839	52.8
954.203	52.78
954.567	52.78
954.931	52.74
955.294	52.79
955.658	52.88
956.021	52.91
956.385	52.81
956.748	52.75
957.111	52.69
957.474	52.71
957.837	52.69
958.2	52.67
958.563	52.64
958.926	52.69
959.289	52.67
959.652	52.61
960.015	52.6
960.377	52.65
960.74	52.72
961.102	52.74
961.465	52.82
961.827	52.91
962.189	52.91
962.552	52.92
962.914	52.91
963.276	52.9
963.638	52.91
964	52.89
964.362	52.92
964.724	52.89
965.085	52.87
965.447	52.79
965.809	52.74
966.17	52.72
966.532	52.72
966.893	52.77
967.255	52.8
967.616	52.76
967.977	52.8
968.338	52.77
968.699	52.81
969.061	52.85
969.421	52.94
969.782	53.04
970.143	53.09
970.504	53.16
970.865	53.19
971.225	53.18
971.586	53.27
971.946	53.25
972.307	53.3
972.667	53.26
973.027	53.27
973.388	53.23
973.748	53.18
974.108	53.29
974.468	53.23
974.828	53.26
975.188	53.25
975.548	53.23
975.907	53.26
976.267	53.25
976.627	53.32
976.986	53.32
977.346	53.33
977.705	53.3
978.064	53.29
978.424	53.32
978.783	53.28
979.142	53.35
979.501	53.38
979.86	53.48
980.219	53.5
980.578	53.56
980.937	53.59
981.296	53.6
981.654	53.64
982.013	53.61
982.371	53.7
982.73	53.72
983.088	53.73
983.447	53.73
983.805	53.76
984.163	53.75
984.521	53.74
984.879	53.71
985.237	53.83
985.595	53.88
985.953	53.87
986.311	53.81
986.669	53.84
987.026	53.86
987.384	53.94
987.741	53.84
988.099	54.01
988.456	54.03
988.814	54.18
989.171	54.18
989.528	54.27
989.885	54.31
990.242	54.37
990.599	54.37
990.956	54.5
991.313	54.51
991.67	54.62
992.027	54.82
992.383	54.86
992.74	54.96
993.096	55.02
993.453	55.05
993.809	55.13
994.165	55.27
994.522	55.52
994.878	55.52
995.234	55.57
995.59	55.57
995.946	55.4
996.302	55.47
996.658	55.43
997.013	55.51
997.369	55.57
997.725	55.6
998.08	55.63
998.436	55.55
998.791	55.68
999.147	55.74
999.502	55.8
999.857	55.84
1000.212	55.85
1000.567	55.89
1000.922	55.9
1001.277	55.94
1001.632	55.91
1001.987	55.88
1002.342	55.77
1002.696	55.69
1003.051	55.85
1003.406	56
1003.76	56.02
1004.114	56.13
1004.469	56.29
1004.823	56.66
1005.177	56.68
1005.531	56.88
1005.885	57.06
1006.239	57.36
1006.593	57.57
1006.947	57.58
1007.301	57.51
1007.655	57.58
1008.008	57.68
1008.362	57.71
1008.715	57.62
1009.069	57.77
1009.422	58.04
1009.776	58.06
1010.129	58.15
1010.482	58.17
1010.835	58.36
1011.188	58.65
1011.541	58.68
1011.894	58.85
1012.247	58.93
1012.6	58.86
1012.952	58.93
1013.305	58.95
1013.657	59.12
1014.01	59.12
1014.362	59.19
1014.715	59.42
1015.067	59.63
1015.419	59.91
1015.771	59.81
1016.123	60.07
1016.475	60.23
1016.827	60.39
1017.179	60.44
1017.531	60.43
1017.883	60.64
1018.234	61.12
1018.586	61.18
1018.938	61.3
1019.289	61.27
1019.64	61.49
1019.992	61.5
1020.343	61.54
1020.694	61.66
1021.045	61.82
1021.396	61.85
1021.747	62.06
1022.098	62
1022.449	61.84
1022.8	61.99
1023.151	62.28
1023.501	62.51
1023.852	62.54
1024.202	62.64
1024.553	62.61
1024.903	62.83
1025.253	63.43
1025.604	63.41
1025.954	63.2
1026.304	63.53
1026.654	63.56
1027.004	63.78
1027.354	63.84
1027.703	64.13
1028.053	64.36
1028.403	64.8
1028.753	64.45
1029.102	64.37
1029.452	64.52
1029.801	64.86
1030.15	64.8
1030.499	64.66
897.758	1951.24
901.051	1953.86
904.343	1941.75
907.636	1982.16
910.928	1931.84
914.22	1924.45
917.511	1896.13
920.803	1815.13
924.094	1807.24
927.384	1765.8
930.675	1686.84
933.965	1673.05
937.255	1578.66
940.544	1517.4
943.834	1439.68
947.123	1423.58
950.411	1344.31
953.7	1315.77
956.988	1241.76
960.276	1189.47
963.563	1173.34
966.851	1133.41
970.138	1123.59
973.424	1086.72
976.711	1094.89
979.997	1038.58
983.283	1036.38
986.568	1013.4
989.853	980.14
993.138	965.57
996.423	929
999.708	901.22
1002.992	893.33
1006.275	850.45
1009.559	841.97
1012.842	811.08
1016.125	789.77
1019.408	773.88
1022.69	762.21
1025.972	749.1
1029.254	729.53
1032.536	717.15
1035.817	702.23
1039.098	691.9
1042.379	676.68
1045.659	669.6
1048.939	652.64
1052.219	639.38
1055.498	628.78
1058.778	615.9
1062.057	599.32
1065.335	592.96
1068.614	586.25
1071.892	579.7
1075.17	558.89
1078.447	550.23
1081.724	546.73
1085.001	541.95
1088.278	529.69
1091.554	520.11
1094.83	519.8
1098.106	517.17
1101.382	512.87
1104.657	508.59
1107.932	499.71
1111.206	504.96
1114.481	491.5
1117.755	485.22
1121.029	482.19
1124.302	483.52
1127.575	472.35
1130.848	465.72
1134.121	460.66
1137.393	458.84
1140.665	448.3
1143.937	447.14
1147.208	440.91
1150.48	441.41
1153.75	435.47
1157.021	426.91
1160.291	427.32
1163.561	424.22
1166.831	424.14
1170.101	421.64
1173.37	418.71
1176.639	420.66
1179.907	415.38
1183.176	412.46
1186.444	410.93
1189.711	411.62
1192.979	411.87
1196.246	407.48
1199.513	408.9
1202.78	406.22
1206.046	405.72
1209.312	402.4
1212.578	402.7
1215.843	406.05
1219.108	403.33
1222.373	412.68
1225.638	414.98
1228.902	421.93
1232.166	421.99
1235.43	426.22
1238.693	432.4
1241.956	433.74
1245.219	442.09
1248.482	440.77
1251.744	441.55
1255.006	442.25
1258.268	431.75
1261.529	427.65
1264.79	422.25
1268.051	420.71
1271.312	414.57
1274.572	408.83
1277.832	405.4
1281.092	397.64
1284.351	395.36
1287.61	394.81
1290.869	389.32
1294.128	385.94
1297.386	385.45
1300.644	382.9
1303.902	383.57
1307.159	380.89
1310.416	382.53
1313.673	382.46
1316.93	386.79
1320.186	386.93
1323.442	388.24
1326.697	395.84
1329.953	396.45
1333.208	398.88
1336.463	402.29
1339.717	403.97
1342.972	409.24
1346.226	411.75
1349.479	411.7
1352.733	414.38
1355.986	415.39
1359.238	415.42
1362.491	418.38
1365.743	422.56
1368.995	422.71
1372.247	421.17
1375.498	421.33
1378.749	426.62
1382	420.54
1385.251	423.49
1388.501	419.8
1391.751	424.09
1395	420.78
1398.25	417.2
1401.499	415.57
1404.748	414.87
1407.996	411.14
1411.244	409.26
1414.492	406.8
1417.74	403.93
1420.987	397.56
1424.234	398.44
1427.481	391.19
1430.728	392.5
1433.974	388.2
1437.22	384.83
1440.465	384.05
1443.711	383.05
1446.956	381.16
1450.201	374.29
1453.445	370.97
1456.689	369.73
1459.933	363.01
1463.177	361.13
1466.42	354.42
1469.663	350.29
1472.906	348.63
1476.148	339
1479.391	333.8
1482.633	329.69
1485.874	325.86
1489.115	324.25
1492.356	319.24
1495.597	318.58
1498.838	313.67
1502.078	311.64
1505.318	309.83
1508.557	309.17
1511.797	309.5
1515.036	308.19
1518.274	307.68
1521.513	303.7
1524.751	303.55
1527.989	302.69
1531.227	301.18
1534.464	302.56
1537.701	299.69
1540.938	299.09
1544.174	295.3
1547.41	294.5
1550.646	293.17
1553.882	292.9
1557.117	290.17
1560.352	287.18
1563.587	287.24
1566.821	284.94
1570.055	280.89
1573.289	279.63
1576.523	279.3
1579.756	276.89
1582.989	274.95
1586.222	275.09
1589.454	272.86
1592.686	274.63
1595.918	274.05
1599.15	272.79
1602.381	272.57
1605.612	272.8
1608.843	274.41
1612.073	273.15
1615.303	275.03
1618.533	275.89
1621.762	274.23
1624.992	274.56
1628.221	274.5
1631.449	274.41
1634.678	273.5
1637.906	275.04
1641.134	274.91
1644.361	273.79
1647.588	275.23
1650.815	273.7
1654.042	271.85
1657.269	274.23
1660.495	274.6
1663.72	271.65
1666.946	272.88
1670.171	273.56
1673.396	273.34
1676.621	273.47
1679.845	273.37
1683.069	273.29
1686.293	275.01
1689.517	277.03
1692.74	275.97
1695.963	277.53
1699.185	281.85
1702.408	281.42
1705.63	282.51
1708.852	283.78
1712.073	283.82
1715.294	284.54
1718.515	285.65
1721.736	285.5
1724.956	286.04
1728.176	286.09
1731.396	288.85
1734.616	287.77
1737.835	288.94
1741.054	287.29
1744.272	287.86
1747.491	291.37
1750.709	291.98
1753.927	292.28
1757.144	290.88
1760.361	293.17
1763.578	293.55
1766.795	292.31
1770.011	294.05
1773.227	294.7
1776.443	297.97
1779.658	299.84
1782.874	298.31
1786.089	299.67
1789.303	300.87
1792.518	304.58
1795.732	303.63
1798.945	307.73
1802.159	307.4
1805.372	309.41
1808.585	314.66
1811.797	316.14
1815.01	315.35
1818.222	318.58
1821.434	320.07
1824.645	321.62
1827.856	327.43
1831.067	331.01
1834.278	327.91
1837.488	330.6
1840.698	333.01
1843.908	329.14
1847.117	331.41
1850.326	334.08
1853.535	332.72
1856.744	339.17
1859.952	338.42
1863.16	337.3
1866.368	334.39
1869.575	340.88
1872.782	334.97
1875.989	333.9
1879.196	333.46
1882.402	331.21
1885.608	332.72
1888.814	334.85
1892.019	333.21
1895.224	332.83
1898.429	330.82
1901.634	333.93
1904.838	332.85
1908.042	338.81
1911.246	339.87
1914.449	342.03
1917.652	342.06
1920.855	342.2
1924.058	340.69
1927.26	339.34
1930.462	341.43
1933.664	345.63
1936.865	341.92
1940.066	342.74
1943.267	340.04
1946.467	339.68
1949.668	342.28
1952.868	346.46
1956.067	345.63
1959.267	346.61
1962.466	347.78
1965.665	345.7
1968.863	345.92
1972.061	351.31
1975.259	353.65
1978.457	356.58
1981.654	358.78
1984.852	359.37
1988.048	358.25
1991.245	361.47
1994.441	366.67
1997.637	368.33
2000.833	374.9
2004.028	380.19
2007.223	382.32
2010.418	387.01
2013.613	392.65
2016.807	397.56
2020.001	399.76
2023.194	406.21
2026.388	415.28
2029.581	423.43
2032.774	428.6
2035.966	437.41
2039.158	438.49
2042.35	447.26
2045.542	448.43
2048.733	455
2051.924	462.29
2055.115	470.31
2058.306	470.47
2061.496	477
2064.686	476.64
2067.875	484.27
2071.065	485.01
2074.254	483.61
2077.442	487.37
2080.631	491.01
2083.819	495.97
2087.007	495.64
2090.195	502.4
2093.382	506.27
2096.569	500.62
2099.756	509.57
2102.942	510.3
2106.128	518.04
2109.314	528.02
2112.5	526.48
2115.685	537.74
2118.87	539.26
2122.055	548.91
2125.239	553.34
2128.424	561.54
2131.608	566.53
2134.791	572.28
2137.974	575.73
2141.157	576.58
2144.34	577.52
2147.523	587.38
2150.705	582.68
2153.887	587.54
2157.068	589.31
2160.25	582.8
2163.431	583.93
2166.611	590.27
2169.792	603.33
2172.972	611.08
2176.152	611.78
2179.331	621.44
2182.511	632.35
2185.69	641.05
2188.868	654.09
2192.047	655.6
2195.225	675.05
2198.403	694.07
2201.58	706.36
2204.758	718.51
2207.935	733.88
2211.111	748.14
2214.288	757.29
2217.464	760.03
2220.64	767.16
2223.815	780.04
2226.991	812.26
2230.166	814.16
2233.34	829.37
2236.515	841.34
2239.689	842.98
2242.863	845.51
2246.036	875.58
2249.209	864.11
2252.382	876.09
2255.555	907.96
2258.727	908.78
2261.9	910.74
2265.071	920.85
2268.243	934.81
2271.414	945.99
2274.585	969.89
2277.756	981.76
2280.926	982.49
2284.096	1007.83
2287.266	1032.91
2290.436	1038.92
2293.605	1064.9
2296.774	1102.73
2299.942	1134.63
2303.111	1138.85
2306.279	1171.17
2309.447	1180.85
2312.614	1207.18
2315.781	1245.09
2318.948	1304.01
2322.115	1282.67
2325.281	1350.27
2328.447	1320.34
2331.613	1373.46
2334.779	1357.69
2337.944	1420.75
2341.109	1432.05
2344.274	1474.2
2347.438	1529.47
2350.602	1530.75
2353.766	1573.64
2356.929	1596.19
2360.092	1586.05
2363.255	1705.17
2366.418	1697.73
2369.58	1734
2372.742	1836.43
2375.904	1882.58
2379.066	1869.07
2382.227	1833.26
2385.388	1985.77
2388.548	1990.47
2391.709	2020.97
2394.869	2251.97
2398.029	2146.75
2401.188	2208.71
2404.347	2198.54
2407.506	2167.4
2410.665	2232.79
2413.823	2367.3
2416.981	2507.56
2420.139	2419.61
2423.296	2395.67
2426.453	2494.07
2429.61	2392.55
2432.767	2513.98
2435.923	2496.17
2439.079	2709.92
2442.235	2744.16
2445.391	2711.35
2448.546	2699.34
2451.701	2617.95
2454.855	2622.14
2458.009	2780.67
2461.163	2891.05
2464.317	3005.92
2467.471	3081.13
2470.624	3077.97
2473.777	3006.77
2476.929	2936.5
2480.082	2856.73
2483.234	2814.63
2486.385	2955.05
2489.537	2966.58
2492.688	3083.32
2495.839	2994.86
2498.989	2931.59
2502.14	2949.16
2505.29	2989.09
2508.439	3034.33
2511.589	3019.86
2514.738	3289.6
2517.887	3223.91
2521.035	3421.71
2524.183	3444.98
2527.331	3470.16
2530.479	3469.3
2533.627	3495.66
