Data from C_2_DIV_OH_2N_Splice17_13-25-21-831.txt Node
Date: Sat Mar 07 13:25:21 EST 2020
User: sa697716
Spectrometer: NQ5500242
Trigger mode: 0
Integration Time (sec): 1.450000E-1
Scans to average: 20
Nonlinearity correction enabled: false
Boxcar width: 5
Storing dark spectrum: false
XAxis mode: Wavelengths
Number of Pixels in Spectrum: 512
>>>>>Begin Spectral Data<<<<<
187.83	180.27
188.298	202.05
188.766	156.79
189.233	126.33
189.701	135.63
190.169	168.68
190.636	187.96
191.104	266.44
191.571	364.38
192.039	157.18
192.506	-173.88
192.974	76.89
193.441	239.85
193.908	11.66
194.375	-11.71
194.842	-22.17
195.31	56.99
195.777	-51.96
196.244	35.82
196.711	43.88
197.177	46.95
197.644	46.66
198.111	46.57
198.578	47
199.045	47.37
199.511	47.23
199.978	47.05
200.445	47.18
200.911	47.52
201.378	47.55
201.844	47.74
202.31	47.37
202.777	47.29
203.243	47.35
203.709	46.81
204.176	46.38
204.642	46.14
205.108	45.99
205.574	45.66
206.04	45.1
206.506	44.59
206.972	44.58
207.438	44.32
207.903	43.78
208.369	42.85
208.835	42.24
209.301	41.7
209.766	40.88
210.232	40.02
210.697	39.03
211.163	38.18
211.628	37.49
212.094	36.42
212.559	35.82
213.024	35.01
213.49	34.48
213.955	33.94
214.42	33.39
214.885	32.61
215.35	31.84
215.815	30.72
216.28	29.32
216.745	27.68
217.21	26.06
217.675	24.58
218.14	23.4
218.604	22.25
219.069	21.25
219.534	20.48
219.998	19.88
220.463	19.29
220.927	18.7
221.392	18.27
221.856	17.96
222.32	17.68
222.785	17.46
223.249	17.18
223.713	16.93
224.177	16.72
224.642	16.46
225.106	16.19
225.57	15.96
226.034	15.79
226.497	15.59
226.961	15.35
227.425	15.14
227.889	14.91
228.353	14.72
228.816	14.52
229.28	14.32
229.744	14.14
230.207	13.96
230.671	13.77
231.134	13.59
231.597	13.43
232.061	13.28
232.524	13.11
232.987	12.96
233.45	12.81
233.914	12.66
234.377	12.51
234.84	12.37
235.303	12.25
235.766	12.12
236.229	12
236.691	11.87
237.154	11.75
237.617	11.65
238.08	11.52
238.542	11.39
239.005	11.31
239.468	11.2
239.93	11.09
240.393	10.99
240.855	10.87
241.317	10.76
241.78	10.66
242.242	10.54
242.704	10.44
243.166	10.35
243.629	10.26
244.091	10.15
244.553	10.05
245.015	9.95
245.477	9.85
245.939	9.77
246.4	9.69
246.862	9.6
247.324	9.52
247.786	9.43
248.247	9.34
248.709	9.24
249.17	9.16
249.632	9.08
250.093	9.02
250.555	8.94
251.016	8.87
251.477	8.8
251.939	8.72
252.4	8.66
252.861	8.59
253.322	8.52
253.783	8.46
254.244	8.4
254.705	8.34
255.166	8.27
255.627	8.21
256.088	8.15
256.549	8.1
257.009	8.04
257.47	7.98
257.931	7.91
258.391	7.85
258.852	7.79
259.312	7.74
259.773	7.69
260.233	7.64
260.694	7.58
261.154	7.51
261.614	7.47
262.074	7.41
262.534	7.36
262.994	7.33
263.455	7.29
263.915	7.25
264.374	7.22
264.834	7.18
265.294	7.14
265.754	7.11
266.214	7.09
266.673	7.06
267.133	7.04
267.593	7.01
268.052	6.98
268.512	6.96
268.971	6.93
269.431	6.9
269.89	6.87
270.349	6.86
270.809	6.84
271.268	6.81
271.727	6.79
272.186	6.76
272.645	6.74
273.104	6.72
273.563	6.7
274.022	6.68
274.481	6.66
274.94	6.64
275.399	6.61
275.857	6.59
276.316	6.56
276.775	6.55
277.233	6.52
277.692	6.5
278.15	6.48
278.609	6.45
279.067	6.43
279.525	6.41
279.984	6.38
280.442	6.36
280.9	6.35
281.358	6.32
281.816	6.3
282.274	6.28
282.732	6.27
283.19	6.25
283.648	6.23
284.106	6.21
284.564	6.18
285.021	6.17
285.479	6.15
285.937	6.13
286.394	6.12
286.852	6.1
287.309	6.07
287.767	6.04
288.224	6.02
288.682	6
289.139	5.97
289.596	5.95
290.053	5.91
290.511	5.88
290.968	5.85
291.425	5.82
291.882	5.8
292.339	5.77
292.796	5.75
293.252	5.73
293.709	5.72
294.166	5.7
294.623	5.68
295.079	5.66
295.536	5.64
295.992	5.63
296.449	5.61
296.905	5.6
297.362	5.58
297.818	5.57
298.274	5.56
298.731	5.53
299.187	5.5
299.643	5.48
300.099	5.48
300.555	5.46
301.011	5.44
301.467	5.42
301.923	5.4
302.379	5.38
302.835	5.36
303.291	5.34
303.746	5.32
304.202	5.31
304.658	5.3
305.113	5.28
305.569	5.27
306.024	5.25
306.479	5.24
306.935	5.22
307.39	5.22
307.845	5.21
308.301	5.21
308.756	5.21
309.211	5.2
309.666	5.2
310.121	5.2
310.576	5.19
311.031	5.18
311.486	5.18
311.94	5.18
312.395	5.17
312.85	5.16
313.305	5.13
313.759	5.13
314.214	5.11
314.668	5.09
315.123	5.08
315.577	5.06
316.032	5.06
316.486	5.04
316.94	5.02
317.394	4.99
317.849	4.97
318.303	4.96
318.757	4.93
319.211	4.92
319.665	4.9
320.119	4.88
320.572	4.86
321.026	4.84
321.48	4.81
321.934	4.79
322.387	4.78
322.841	4.76
323.295	4.75
323.748	4.74
324.202	4.72
324.655	4.72
325.108	4.71
325.562	4.71
326.015	4.7
326.468	4.71
326.921	4.7
327.374	4.7
327.827	4.7
328.28	4.68
328.733	4.67
329.186	4.66
329.639	4.66
330.092	4.65
330.545	4.63
330.997	4.62
331.45	4.62
331.903	4.62
332.355	4.62
332.808	4.61
333.26	4.61
333.713	4.6
334.165	4.6
334.617	4.59
335.069	4.58
335.522	4.59
335.974	4.59
336.426	4.57
336.878	4.57
337.33	4.56
337.782	4.56
338.234	4.57
338.686	4.57
339.137	4.57
339.589	4.56
340.041	4.55
340.493	4.53
340.944	4.51
341.396	4.5
341.847	4.49
342.299	4.46
342.75	4.45
343.201	4.42
343.653	4.4
344.104	4.38
344.555	4.37
345.006	4.35
345.457	4.34
345.908	4.33
346.359	4.32
346.81	4.31
347.261	4.31
347.712	4.3
348.163	4.29
348.613	4.29
349.064	4.28
349.515	4.28
349.965	4.28
350.416	4.27
350.866	4.26
351.317	4.26
351.767	4.26
352.217	4.25
352.668	4.25
353.118	4.25
353.568	4.23
354.018	4.23
354.468	4.23
354.918	4.22
355.368	4.23
355.818	4.23
356.268	4.22
356.718	4.22
357.168	4.21
357.617	4.21
358.067	4.21
358.517	4.22
358.966	4.22
359.416	4.22
359.865	4.2
360.315	4.2
360.764	4.19
361.213	4.2
361.663	4.19
362.112	4.19
362.561	4.19
363.01	4.18
363.459	4.17
363.908	4.16
364.357	4.14
364.806	4.14
365.255	4.13
365.703	4.14
366.152	4.13
366.601	4.13
367.05	4.13
367.498	4.13
367.947	4.13
368.395	4.13
368.844	4.12
369.292	4.12
369.74	4.13
370.189	4.13
370.637	4.12
371.085	4.11
371.533	4.1
371.981	4.09
372.429	4.09
372.877	4.08
373.325	4.07
373.773	4.06
374.221	4.06
374.669	4.05
375.116	4.03
375.564	4.03
376.012	4.02
376.459	4.02
376.907	4.01
377.354	4.01
377.801	4.01
378.249	4.01
378.696	4.01
379.143	4.01
379.591	4.01
380.038	4.01
380.485	4
380.932	4
381.379	4
381.826	4
382.273	3.99
382.72	3.98
383.166	3.98
383.613	3.98
384.06	3.96
384.506	3.95
384.953	3.95
385.4	3.95
385.846	3.95
386.292	3.94
386.739	3.94
387.185	3.94
387.631	3.94
388.078	3.94
388.524	3.93
388.97	3.94
389.416	3.94
389.862	3.95
390.308	3.96
390.754	3.97
391.2	3.99
391.645	4
392.091	4.01
392.537	4.02
392.983	4.03
393.428	4.03
393.874	4.03
394.319	4.04
394.765	4.04
395.21	4.02
395.655	4.02
396.101	4.02
396.546	4.02
396.991	4.03
397.436	4.03
397.881	4.04
398.326	4.05
398.771	4.07
399.216	4.07
399.661	4.09
400.106	4.11
400.551	4.11
400.995	4.11
401.44	4.12
401.885	4.12
402.329	4.13
402.774	4.13
403.218	4.16
403.663	4.16
404.107	4.17
404.551	4.18
404.995	4.18
405.44	4.19
405.884	4.19
406.328	4.2
406.772	4.21
407.216	4.22
407.66	4.22
408.104	4.2
408.547	4.2
408.991	4.21
409.435	4.21
409.879	4.23
410.322	4.24
410.766	4.26
411.209	4.29
411.653	4.31
412.096	4.33
412.54	4.35
412.983	4.37
413.426	4.4
413.869	4.42
414.312	4.44
414.756	4.45
415.199	4.46
415.642	4.47
416.085	4.47
416.527	4.47
416.97	4.46
417.413	4.46
417.856	4.45
418.298	4.44
418.741	4.44
419.184	4.45
419.626	4.44
420.069	4.45
420.511	4.44
420.953	4.46
421.396	4.47
421.838	4.48
422.28	4.49
422.722	4.52
423.164	4.53
423.606	4.53
424.048	4.54
424.49	4.54
424.932	4.54
425.374	4.52
425.816	4.5
426.258	4.49
426.699	4.48
427.141	4.48
427.582	4.48
428.024	4.49
428.465	4.5
428.907	4.48
429.348	4.48
429.789	4.49
430.231	4.52
430.672	4.54
431.113	4.55
431.554	4.56
431.995	4.56
432.436	4.56
432.877	4.56
433.318	4.57
433.759	4.6
434.2	4.63
434.64	4.65
435.081	4.66
435.522	4.69
435.962	4.71
436.403	4.75
436.843	4.76
437.284	4.76
437.724	4.77
438.164	4.76
438.604	4.76
439.045	4.75
439.485	4.75
439.925	4.74
440.365	4.73
440.805	4.73
441.245	4.73
441.685	4.74
442.125	4.75
442.564	4.76
443.004	4.76
443.444	4.76
443.883	4.78
444.323	4.78
444.762	4.79
445.202	4.8
445.641	4.82
446.081	4.83
446.52	4.83
446.959	4.87
447.398	4.88
447.837	4.9
448.276	4.91
448.716	4.91
449.154	4.94
449.593	4.95
450.032	4.96
450.471	4.94
450.91	4.93
451.349	4.95
451.787	4.92
452.226	4.91
452.664	4.91
453.103	4.89
453.541	4.89
453.98	4.89
454.418	4.87
454.856	4.86
455.295	4.86
455.733	4.84
456.171	4.82
456.609	4.81
457.047	4.79
457.485	4.79
457.923	4.79
458.361	4.78
458.798	4.78
459.236	4.78
459.674	4.77
460.111	4.76
460.549	4.76
460.987	4.77
461.424	4.78
461.862	4.79
462.299	4.79
462.736	4.79
463.173	4.78
463.611	4.77
464.048	4.77
464.485	4.78
464.922	4.78
465.359	4.79
465.796	4.81
466.233	4.81
466.67	4.81
467.106	4.81
467.543	4.81
467.98	4.82
468.416	4.81
468.853	4.8
469.29	4.78
469.726	4.79
470.162	4.78
470.599	4.76
471.035	4.74
471.471	4.74
471.907	4.72
472.344	4.72
472.78	4.73
473.216	4.74
473.652	4.74
474.088	4.73
474.523	4.72
474.959	4.72
475.395	4.7
475.831	4.7
476.266	4.7
476.702	4.69
477.138	4.68
477.573	4.66
478.008	4.66
478.444	4.64
478.879	4.65
479.314	4.64
479.75	4.63
480.185	4.62
480.62	4.6
481.055	4.59
481.49	4.58
481.925	4.58
482.36	4.57
482.795	4.56
483.229	4.56
483.664	4.55
484.099	4.54
484.534	4.53
484.968	4.54
485.403	4.55
485.837	4.55
486.271	4.57
486.706	4.58
487.14	4.59
487.574	4.6
488.009	4.62
488.443	4.62
488.877	4.65
489.311	4.67
489.745	4.69
490.179	4.72
490.613	4.74
491.046	4.76
491.48	4.79
491.914	4.82
492.348	4.86
492.781	4.89
493.215	4.93
493.648	4.98
494.082	5.02
494.515	5.06
494.948	5.11
495.382	5.15
495.815	5.21
496.248	5.26
496.681	5.33
497.114	5.39
497.547	5.45
497.98	5.53
498.413	5.59
498.846	5.66
499.279	5.74
499.711	5.83
500.144	5.93
500.577	6.02
501.009	6.11
501.442	6.21
501.874	6.33
502.306	6.44
502.739	6.56
503.171	6.68
503.603	6.82
504.036	6.97
504.468	7.11
504.9	7.25
505.332	7.4
505.764	7.57
506.196	7.73
506.627	7.91
507.059	8.09
507.491	8.27
507.923	8.47
508.354	8.67
508.786	8.88
509.217	9.1
509.649	9.33
510.08	9.56
510.512	9.8
510.943	10.04
511.374	10.28
511.805	10.53
512.237	10.78
512.668	11.04
513.099	11.29
513.53	11.56
513.961	11.83
514.391	12.11
514.822	12.4
515.253	12.68
515.684	12.97
516.114	13.27
516.545	13.55
516.975	13.85
517.406	14.15
517.836	14.45
518.267	14.75
518.697	15.03
519.127	15.31
519.558	15.59
519.988	15.88
520.418	16.16
520.848	16.43
521.278	16.7
521.708	17.13
522.138	17.4
522.567	17.68
522.997	17.94
523.427	18.21
523.857	18.47
524.286	18.71
524.716	18.94
525.145	19.18
525.575	19.41
526.004	19.64
526.433	19.7
526.863	19.9
527.292	20.09
527.721	20.27
528.15	20.45
528.579	20.62
529.008	20.8
529.437	20.95
529.866	21.1
530.295	21.24
530.724	21.38
531.152	21.52
531.581	21.64
532.01	21.76
532.438	21.88
532.867	21.98
533.295	22.08
533.723	22.17
534.152	22.28
534.58	22.38
535.008	22.44
535.436	22.54
535.865	22.59
536.293	22.65
536.721	22.72
537.149	22.79
537.576	22.85
538.004	22.91
538.432	22.96
538.86	22.99
539.287	23
539.715	23.07
540.143	23.08
540.57	23.12
540.998	23.14
541.425	23.16
541.852	23.18
542.28	23.19
542.707	23.21
543.134	23.22
543.561	23.24
543.988	23.28
544.415	23.28
544.842	23.29
545.269	23.32
545.696	23.36
546.123	23.39
546.549	23.41
546.976	23.43
547.403	23.47
547.829	23.49
548.256	23.51
548.682	23.51
549.108	23.53
549.535	23.54
549.961	23.54
550.387	23.53
550.813	23.52
551.24	23.5
551.666	23.51
552.092	23.49
552.518	23.48
552.943	23.47
553.369	23.47
553.795	23.43
554.221	23.41
554.646	23.37
555.072	23.34
555.498	23.3
555.923	23.26
556.349	23.18
556.774	23.11
557.199	23.04
557.625	22.96
558.05	22.88
558.475	22.81
558.9	22.71
559.325	22.64
559.75	22.56
560.175	22.47
560.6	22.36
561.025	22.27
561.449	22.16
561.874	22.04
562.299	21.92
562.723	21.79
563.148	21.66
563.572	21.54
563.997	21.4
564.421	21.24
564.846	21.1
565.27	20.96
565.694	20.82
566.118	20.67
566.542	20.52
566.966	20.38
567.39	20.21
567.814	20.06
568.238	19.9
568.662	19.76
569.086	19.61
569.509	19.47
569.933	19.33
570.357	19.17
570.78	19.02
571.204	18.87
571.627	18.72
572.05	18.59
572.474	18.46
572.897	18.32
573.32	18.18
573.743	18.04
574.166	17.91
574.589	17.77
575.012	17.65
575.435	17.52
575.858	17.4
576.281	17.28
576.704	17.17
577.126	17.06
577.549	16.96
577.972	16.86
578.394	16.75
578.817	16.66
579.239	16.57
579.661	16.5
580.084	16.41
580.506	16.33
580.928	16.25
581.35	16.17
581.772	16.08
582.194	16
582.616	15.94
583.038	15.86
583.46	15.77
583.882	15.69
584.303	15.61
584.725	15.54
585.147	15.47
585.568	15.41
585.99	15.34
586.411	15.28
586.833	15.22
587.254	15.13
587.675	15.06
588.096	15
588.518	14.94
588.939	14.89
589.36	14.83
589.781	14.79
590.202	14.75
590.623	14.71
591.043	14.65
591.464	14.6
591.885	14.56
592.305	14.53
592.726	14.5
593.147	14.46
593.567	14.44
593.987	14.41
594.408	14.37
594.828	14.32
595.248	14.27
595.669	14.24
596.089	14.21
596.509	14.19
596.929	14.16
597.349	14.12
597.769	14.08
598.189	14.04
598.608	14
599.028	13.96
599.448	13.93
599.867	13.89
600.287	13.85
600.706	13.8
601.126	13.75
601.545	13.7
601.965	13.67
602.384	13.61
602.803	13.55
603.222	13.5
603.641	13.44
604.061	13.38
604.48	13.32
604.898	13.25
605.317	13.2
605.736	13.13
606.155	13.06
606.574	12.98
606.992	12.91
607.411	12.84
607.829	12.74
608.248	12.65
608.666	12.58
609.085	12.49
609.503	12.43
609.921	12.34
610.339	12.27
610.758	12.18
611.176	12.1
611.594	12.02
612.012	11.95
612.43	11.9
612.847	11.83
613.265	11.74
613.683	11.68
614.101	11.59
614.518	11.53
614.936	11.45
615.353	11.37
615.771	11.3
616.188	11.24
616.606	11.18
617.023	11.11
617.44	11.05
617.857	11
618.274	10.94
618.691	10.88
619.108	10.82
619.525	10.77
619.942	10.74
620.359	10.71
620.776	10.66
621.192	10.63
621.609	10.6
622.026	10.57
622.442	10.54
622.859	10.51
623.275	10.49
623.691	10.47
624.108	10.46
624.524	10.43
624.94	10.42
625.356	10.4
625.772	10.39
626.188	10.37
626.604	10.35
627.02	10.34
627.436	10.34
627.852	10.34
628.268	10.33
628.683	10.33
629.099	10.31
629.514	10.3
629.93	10.28
630.345	10.26
630.761	10.23
631.176	10.21
631.591	10.17
632.007	10.14
632.422	10.08
632.837	10.03
633.252	9.96
633.667	9.91
634.082	9.83
634.497	9.76
634.911	9.69
635.326	9.62
635.741	9.54
636.155	9.45
636.57	9.36
636.984	9.27
637.399	9.18
637.813	9.08
638.228	8.98
638.642	8.87
639.056	8.76
639.47	8.65
639.884	8.54
640.298	8.42
640.712	8.31
641.126	8.2
641.54	8.08
641.954	7.96
642.368	7.84
642.781	7.74
643.195	7.63
643.609	7.53
644.022	7.43
644.436	7.32
644.849	7.22
645.262	7.12
645.676	7.02
646.089	6.94
646.502	6.87
646.915	6.8
647.328	6.73
647.741	6.68
648.154	6.62
648.567	6.57
648.98	6.51
649.393	6.47
649.805	6.44
650.218	6.4
650.631	6.37
651.043	6.34
651.456	6.31
651.868	6.27
652.28	6.23
652.693	6.2
653.105	6.16
653.517	6.12
653.929	6.08
654.341	6.03
654.753	5.98
655.165	5.93
655.577	5.88
655.989	5.81
656.401	5.76
656.813	5.71
657.224	5.63
657.636	5.57
658.047	5.5
658.459	5.43
658.87	5.36
659.282	5.27
659.693	5.2
660.104	5.12
660.515	5.04
660.926	4.97
661.338	4.89
661.749	4.83
662.159	4.76
662.57	4.71
662.981	4.66
663.392	4.61
663.803	4.56
664.213	4.51
664.624	4.46
665.035	4.42
665.445	4.38
665.855	4.34
666.266	4.32
666.676	4.29
667.086	4.26
667.497	4.24
667.907	4.22
668.317	4.21
668.727	4.2
669.137	4.2
669.547	4.2
669.956	4.2
670.366	4.21
670.776	4.2
671.186	4.2
671.595	4.2
672.005	4.2
672.414	4.21
672.824	4.22
673.233	4.23
673.642	4.24
674.052	4.25
674.461	4.26
674.87	4.27
675.279	4.3
675.688	4.33
676.097	4.35
676.506	4.38
676.915	4.41
677.323	4.44
677.732	4.47
678.141	4.5
678.549	4.54
678.958	4.57
679.366	4.61
679.775	4.65
680.183	4.7
680.592	4.76
681	4.83
681.408	4.9
681.816	4.98
682.224	5.06
682.632	5.17
683.04	5.28
683.448	5.4
683.856	5.54
684.264	5.69
684.671	5.86
685.079	6.03
685.487	6.23
685.894	6.45
686.302	6.7
686.709	6.97
687.116	7.26
687.524	7.58
687.931	7.93
688.338	8.3
688.745	8.7
689.152	9.12
689.559	9.57
689.966	10.03
690.373	10.52
690.78	11.04
691.187	11.55
691.593	12.1
692	12.65
692.407	13.2
692.813	13.75
693.22	14.32
693.626	14.9
694.032	15.48
694.439	16.08
694.845	16.68
695.251	17.25
695.657	17.82
696.063	18.41
696.469	18.98
696.875	19.56
697.281	20.14
697.687	20.73
698.093	21.29
698.498	21.85
698.904	22.4
699.31	22.93
699.715	23.49
700.12	24.04
700.526	24.57
700.931	25.1
701.337	25.64
701.742	26.16
702.147	26.66
702.552	27.15
702.957	27.61
703.362	28.07
703.767	28.54
704.172	28.98
704.577	29.43
704.981	29.88
705.386	30.33
705.791	30.73
706.195	31.13
706.6	31.54
707.004	31.92
707.408	32.34
707.813	32.73
708.217	33.1
708.621	33.49
709.025	33.85
709.43	34.2
709.834	34.55
710.237	34.9
710.641	35.24
711.045	35.57
711.449	35.91
711.853	36.24
712.256	36.56
712.66	36.88
713.064	37.18
713.467	37.48
713.87	37.79
714.274	38.05
714.677	38.33
715.08	38.6
715.484	38.89
715.887	39.17
716.29	39.42
716.693	39.69
717.096	39.95
717.499	40.21
717.901	40.46
718.304	40.7
718.707	40.97
719.109	41.22
719.512	41.45
719.915	41.66
720.317	41.86
720.719	42.05
721.122	42.25
721.524	42.45
721.926	42.64
722.328	42.84
722.731	42.99
723.133	43.17
723.535	43.32
723.937	43.5
724.338	43.66
724.74	43.79
725.142	44.05
725.544	44.2
725.945	44.34
726.347	44.46
726.748	44.59
727.15	44.7
727.551	44.84
727.952	44.94
728.354	45.04
728.755	45.16
729.156	45.28
729.557	45.29
729.958	45.37
730.359	45.47
730.76	45.59
731.161	45.68
731.562	45.79
731.962	45.84
732.363	45.95
732.763	46.05
733.164	46.15
733.564	46.23
733.965	46.3
734.365	46.39
734.766	46.45
735.166	46.5
735.566	46.55
735.966	46.63
736.366	46.69
736.766	46.73
737.166	46.75
737.566	46.78
737.966	46.84
738.365	46.9
738.765	46.95
739.165	47
739.564	47.06
739.964	47.11
740.363	47.13
740.763	47.18
741.162	47.24
741.561	47.28
741.96	47.3
742.36	47.34
742.759	47.38
743.158	47.4
743.557	47.42
743.955	47.44
744.354	47.45
744.753	47.51
745.152	47.57
745.55	47.61
745.949	47.65
746.348	47.71
746.746	47.7
747.144	47.76
747.543	47.76
747.941	47.79
748.339	47.79
748.737	47.8
749.136	47.79
749.534	47.75
749.932	47.74
750.33	47.72
750.727	47.72
751.125	47.73
751.523	47.69
751.921	47.72
752.318	47.72
752.716	47.73
753.113	47.73
753.511	47.73
753.908	47.76
754.305	47.78
754.703	47.77
755.1	47.77
755.497	47.77
755.894	47.75
756.291	47.73
756.688	47.7
757.085	47.71
757.482	47.72
757.878	47.72
758.275	47.7
758.672	47.68
759.068	47.75
759.465	47.74
759.861	47.74
760.258	47.76
760.654	47.76
761.05	47.79
761.447	47.8
761.843	47.79
762.239	47.79
762.635	47.8
763.031	47.79
763.427	47.73
763.822	47.73
764.218	47.74
764.614	47.74
765.01	47.74
765.405	47.72
765.801	47.7
766.196	47.69
766.592	47.7
766.987	47.72
767.382	47.71
767.778	47.74
768.173	47.77
768.568	47.74
768.963	47.76
769.358	47.78
769.753	47.79
770.148	47.8
770.542	47.83
770.937	47.81
771.332	47.79
771.726	47.79
772.121	47.78
772.515	47.75
772.91	47.77
773.304	47.76
773.699	47.74
774.093	47.75
774.487	47.74
774.881	47.74
775.275	47.77
775.669	47.76
776.063	47.76
776.457	47.79
776.851	47.77
777.245	47.78
777.638	47.76
778.032	47.78
778.425	47.81
778.819	47.82
779.212	47.82
779.606	47.83
779.999	47.86
780.392	47.89
780.786	47.88
781.179	47.88
781.572	47.89
781.965	47.92
782.358	47.93
782.751	47.89
783.143	47.88
783.536	47.85
783.929	47.83
784.322	47.83
784.714	47.82
785.107	47.82
785.499	47.81
785.891	47.81
786.284	47.8
786.676	47.78
787.068	47.77
787.46	47.77
787.852	47.79
788.245	47.75
788.636	47.73
789.028	47.71
789.42	47.7
789.812	47.73
790.204	47.73
790.595	47.72
790.987	47.72
791.378	47.75
791.77	47.75
792.161	47.74
792.553	47.75
792.944	47.76
793.335	47.79
793.726	47.81
794.117	47.78
794.508	47.76
794.899	47.76
795.29	47.77
795.681	47.72
796.072	47.71
796.463	47.74
796.853	47.77
797.244	47.74
797.634	47.72
798.025	47.72
798.415	47.72
798.806	47.73
799.196	47.74
799.586	47.76
799.976	47.78
800.366	47.78
800.756	47.78
801.146	47.78
801.536	47.8
801.926	47.79
802.316	47.79
802.706	47.8
803.095	47.8
803.485	47.82
803.874	47.8
804.264	47.8
804.653	47.81
805.043	47.84
805.432	47.84
805.821	47.85
806.21	47.86
806.599	47.88
806.988	47.89
807.377	47.9
807.766	47.9
808.155	47.88
808.544	47.89
808.933	47.89
809.321	47.86
809.71	47.85
810.098	47.85
810.487	47.86
810.875	47.84
811.264	47.84
811.652	47.86
812.04	47.83
812.428	47.88
812.816	47.87
813.204	47.85
813.592	47.84
813.98	47.86
814.368	47.85
814.756	47.85
815.144	47.83
815.531	47.84
815.919	47.82
816.306	47.84
816.694	47.82
817.081	47.82
817.469	47.82
817.856	47.82
818.243	47.78
818.63	47.77
819.017	47.75
819.404	47.75
819.791	47.72
820.178	47.72
820.565	47.71
820.952	47.69
821.339	47.68
821.725	47.7
822.112	47.72
822.498	47.78
822.885	47.82
823.271	47.82
823.657	47.81
824.044	47.83
824.43	47.84
824.816	47.84
825.202	47.83
825.588	47.84
825.974	47.8
826.36	47.76
826.746	47.71
827.132	47.69
827.517	47.69
827.903	47.69
828.289	47.71
828.674	47.68
829.06	47.66
829.445	47.65
829.83	47.63
830.216	47.63
830.601	47.65
830.986	47.66
831.371	47.63
831.756	47.65
832.141	47.63
832.526	47.61
832.911	47.58
833.295	47.59
833.68	47.6
834.065	47.59
834.449	47.58
834.834	47.56
835.218	47.55
835.603	47.56
835.987	47.54
836.371	47.53
836.755	47.52
837.139	47.52
837.524	47.51
837.908	47.53
838.291	47.55
838.675	47.54
839.059	47.56
839.443	47.55
839.827	47.53
840.21	47.55
840.594	47.58
840.977	47.58
841.361	47.62
841.744	47.59
842.127	47.55
842.511	47.53
842.894	47.52
843.277	47.49
843.66	47.47
844.043	47.49
844.426	47.49
844.809	47.48
845.191	47.49
845.574	47.47
845.957	47.5
846.339	47.53
846.722	47.53
847.104	47.56
847.487	47.59
847.869	47.6
848.252	47.58
848.634	47.57
849.016	47.58
849.398	47.58
849.78	47.59
850.162	47.58
850.544	47.59
850.926	47.61
851.307	47.61
851.689	47.61
852.071	47.63
852.452	47.64
852.834	47.66
853.215	47.63
853.597	47.63
853.978	47.62
854.359	47.63
854.741	47.64
855.122	47.64
855.503	47.62
855.884	47.6
856.265	47.58
856.646	47.59
857.026	47.56
857.407	47.58
857.788	47.55
858.169	47.55
858.549	47.55
858.93	47.52
859.31	47.54
859.69	47.53
860.071	47.56
860.451	47.56
860.831	47.54
861.211	47.53
861.591	47.5
861.971	47.51
862.351	47.51
862.731	47.52
863.111	47.51
863.491	47.48
863.87	47.47
864.25	47.47
864.629	47.47
865.009	47.48
865.388	47.46
865.768	47.5
866.147	47.49
866.526	47.5
866.905	47.46
867.284	47.46
867.663	47.47
868.042	47.48
868.421	47.47
868.8	47.47
869.179	47.45
869.558	47.44
869.936	47.42
870.315	47.42
870.693	47.41
871.072	47.41
871.45	47.41
871.828	47.4
872.207	47.38
872.585	47.36
872.963	47.34
873.341	47.35
873.719	47.35
874.097	47.35
874.475	47.33
874.853	47.32
875.23	47.34
875.608	47.35
875.986	47.37
876.363	47.37
876.741	47.39
877.118	47.4
877.495	47.39
877.873	47.42
878.25	47.45
878.627	47.49
879.004	47.5
879.381	47.5
879.758	47.46
880.135	47.43
880.512	47.44
880.889	47.42
881.265	47.41
881.642	47.41
882.019	47.42
882.395	47.39
882.772	47.37
883.148	47.35
883.524	47.36
883.901	47.39
884.277	47.39
884.653	47.37
885.029	47.37
885.405	47.38
885.781	47.39
886.157	47.37
886.532	47.35
886.908	47.35
887.284	47.35
887.659	47.32
888.035	47.29
888.411	47.27
888.786	47.29
889.161	47.3
889.537	47.29
889.912	47.29
890.287	47.27
890.662	47.28
891.037	47.3
891.412	47.27
891.787	47.26
892.162	47.27
892.536	47.29
892.911	47.26
893.286	47.24
893.66	47.23
894.035	47.23
894.409	47.24
894.784	47.24
895.158	47.2
895.532	47.23
895.906	47.24
896.281	47.23
896.655	47.22
897.029	47.24
897.402	47.26
897.776	47.27
898.15	47.28
898.524	47.29
898.898	47.26
899.271	47.29
899.645	47.31
900.018	47.32
900.392	47.32
900.765	47.33
901.138	47.32
901.511	47.3
901.884	47.29
902.258	47.28
902.631	47.29
903.003	47.32
903.376	47.31
903.749	47.31
904.122	47.32
904.495	47.34
904.867	47.36
905.24	47.37
905.612	47.38
905.985	47.38
906.357	47.36
906.729	47.37
907.102	47.38
907.474	47.38
907.846	47.36
908.218	47.37
908.59	47.36
908.962	47.34
909.334	47.34
909.705	47.33
910.077	47.34
910.449	47.34
910.82	47.35
911.192	47.32
911.563	47.31
911.935	47.3
912.306	47.28
912.677	47.28
913.048	47.32
913.419	47.32
913.79	47.34
914.161	47.34
914.532	47.37
914.903	47.36
915.274	47.38
915.645	47.39
916.015	47.38
916.386	47.4
916.756	47.39
917.127	47.36
917.497	47.36
917.868	47.34
918.238	47.33
918.608	47.33
918.978	47.33
919.348	47.31
919.718	47.3
920.088	47.31
920.458	47.3
920.828	47.28
921.198	47.28
921.567	47.28
921.937	47.28
922.306	47.25
922.676	47.23
923.045	47.2
923.415	47.2
923.784	47.2
924.153	47.19
924.522	47.19
924.891	47.19
925.26	47.17
925.629	47.17
925.998	47.16
926.367	47.18
926.736	47.18
927.104	47.2
927.473	47.2
927.842	47.18
928.21	47.18
928.578	47.16
928.947	47.19
929.315	47.2
929.683	47.18
930.051	47.19
930.42	47.19
930.788	47.16
931.156	47.16
931.523	47.15
931.891	47.17
932.259	47.2
932.627	47.2
932.994	47.19
933.362	47.15
933.729	47.17
934.097	47.16
934.464	47.21
934.831	47.22
935.199	47.26
935.566	47.27
935.933	47.22
936.3	47.2
936.667	47.19
937.034	47.18
937.401	47.23
937.767	47.24
938.134	47.25
938.501	47.23
938.867	47.27
939.234	47.24
939.6	47.2
939.967	47.23
940.333	47.21
940.699	47.25
941.065	47.18
941.431	47.17
941.798	47.13
942.163	47.09
942.529	47.01
942.895	46.94
943.261	46.89
943.627	46.88
943.992	46.91
944.358	46.92
944.723	46.87
945.089	46.85
945.454	46.85
945.82	46.87
946.185	46.87
946.55	46.85
946.915	46.87
947.28	46.85
947.645	46.86
948.01	46.86
948.375	46.84
948.74	46.8
949.104	46.85
949.469	46.82
949.834	46.77
950.198	46.79
950.562	46.81
950.927	46.82
951.291	46.78
951.655	46.72
952.02	46.69
952.384	46.64
952.748	46.62
953.112	46.6
953.476	46.56
953.839	46.57
954.203	46.52
954.567	46.49
954.931	46.43
955.294	46.43
955.658	46.48
956.021	46.46
956.385	46.45
956.748	46.43
957.111	46.46
957.474	46.47
957.837	46.44
958.2	46.42
958.563	46.37
958.926	46.4
959.289	46.4
959.652	46.34
960.015	46.31
960.377	46.31
960.74	46.34
961.102	46.29
961.465	46.3
961.827	46.38
962.189	46.43
962.552	46.44
962.914	46.39
963.276	46.44
963.638	46.47
964	46.49
964.362	46.51
964.724	46.49
965.085	46.43
965.447	46.39
965.809	46.33
966.17	46.31
966.532	46.34
966.893	46.35
967.255	46.31
967.616	46.3
967.977	46.31
968.338	46.29
968.699	46.34
969.061	46.41
969.421	46.45
969.782	46.43
970.143	46.39
970.504	46.43
970.865	46.47
971.225	46.51
971.586	46.5
971.946	46.5
972.307	46.52
972.667	46.47
973.027	46.5
973.388	46.45
973.748	46.51
974.108	46.59
974.468	46.51
974.828	46.5
975.188	46.5
975.548	46.5
975.907	46.48
976.267	46.44
976.627	46.49
976.986	46.43
977.346	46.41
977.705	46.38
978.064	46.37
978.424	46.41
978.783	46.38
979.142	46.34
979.501	46.38
979.86	46.43
980.219	46.47
980.578	46.51
980.937	46.55
981.296	46.57
981.654	46.54
982.013	46.54
982.371	46.52
982.73	46.55
983.088	46.55
983.447	46.52
983.805	46.48
984.163	46.47
984.521	46.38
984.879	46.4
985.237	46.44
985.595	46.53
985.953	46.54
986.311	46.54
986.669	46.55
987.026	46.52
987.384	46.58
987.741	46.57
988.099	46.62
988.456	46.62
988.814	46.59
989.171	46.58
989.528	46.56
989.885	46.58
990.242	46.63
990.599	46.65
990.956	46.69
991.313	46.72
991.67	46.75
992.027	46.79
992.383	46.83
992.74	46.87
993.096	46.87
993.453	46.79
993.809	46.83
994.165	46.8
994.522	46.86
994.878	46.85
995.234	46.84
995.59	46.8
995.946	46.78
996.302	46.85
996.658	46.95
997.013	46.91
997.369	46.92
997.725	46.96
998.08	47.14
998.436	47.07
998.791	47.14
999.147	47.11
999.502	47.2
999.857	47.15
1000.212	47.09
1000.567	46.99
1000.922	47.08
1001.277	47.22
1001.632	47.19
1001.987	47.08
1002.342	46.99
1002.696	47
1003.051	47.1
1003.406	47.22
1003.76	47.26
1004.114	47.23
1004.469	47.24
1004.823	47.47
1005.177	47.36
1005.531	47.44
1005.885	47.41
1006.239	47.59
1006.593	47.71
1006.947	47.62
1007.301	47.39
1007.655	47.34
1008.008	47.53
1008.362	47.69
1008.715	47.61
1009.069	47.71
1009.422	47.53
1009.776	47.62
1010.129	47.65
1010.482	47.55
1010.835	47.62
1011.188	47.74
1011.541	47.89
1011.894	47.81
1012.247	47.7
1012.6	47.73
1012.952	47.66
1013.305	47.84
1013.657	47.82
1014.01	47.86
1014.362	47.73
1014.715	47.9
1015.067	47.97
1015.419	48.05
1015.771	47.96
1016.123	47.95
1016.475	47.86
1016.827	48.11
1017.179	48.24
1017.531	48.38
1017.883	48.19
1018.234	48.53
1018.586	48.46
1018.938	48.68
1019.289	48.67
1019.64	48.87
1019.992	48.8
1020.343	48.92
1020.694	48.76
1021.045	48.65
1021.396	48.59
1021.747	48.87
1022.098	48.75
1022.449	48.67
1022.8	48.66
1023.151	48.56
1023.501	48.56
1023.852	48.81
1024.202	48.56
1024.553	48.59
1024.903	48.63
1025.253	48.77
1025.604	48.76
1025.954	48.44
1026.304	48.68
1026.654	48.51
1027.004	48.4
1027.354	48.45
1027.703	48.23
1028.053	48.49
1028.403	48.49
1028.753	48.3
1029.102	48.44
1029.452	48.61
1029.801	49.29
1030.15	49.12
1030.499	49.19
897.758	1397.77
901.051	1407.84
904.343	1405.63
907.636	1427.42
910.928	1386.32
914.22	1388.02
917.511	1372.83
920.803	1312.42
924.094	1307.74
927.384	1275.4
930.675	1223.64
933.965	1217.55
937.255	1141.81
940.544	1094.72
943.834	1044.07
947.123	1036.37
950.411	974.28
953.7	954.27
956.988	900.7
960.276	864.02
963.563	848.89
966.851	821.16
970.138	811.15
973.424	787.49
976.711	792.13
979.997	753.09
983.283	748.42
986.568	732.56
989.853	709.57
993.138	698.71
996.423	670.43
999.708	652.98
1002.992	643.99
1006.275	616.92
1009.559	611.22
1012.842	588
1016.125	571.55
1019.408	561.13
1022.69	553.86
1025.972	543.91
1029.254	530
1032.536	522.34
1035.817	510.32
1039.098	503.23
1042.379	493.03
1045.659	487.69
1048.939	475.47
1052.219	466.09
1055.498	459.65
1058.778	449.09
1062.057	437.37
1065.335	433.08
1068.614	428.03
1071.892	423.96
1075.17	409.47
1078.447	402.27
1081.724	399.2
1085.001	396.82
1088.278	388.25
1091.554	380.45
1094.83	381
1098.106	378.85
1101.382	375.07
1104.657	372.17
1107.932	366.34
1111.206	369.78
1114.481	360.07
1117.755	356.64
1121.029	353.47
1124.302	353.22
1127.575	346.14
1130.848	341.14
1134.121	337.99
1137.393	336.87
1140.665	328.72
1143.937	326.92
1147.208	324.03
1150.48	323.37
1153.75	318.3
1157.021	314.52
1160.291	314.97
1163.561	311.28
1166.831	312.05
1170.101	309.16
1173.37	308.52
1176.639	309.59
1179.907	306.29
1183.176	303.51
1186.444	302.83
1189.711	303.01
1192.979	301.82
1196.246	299.79
1199.513	301.16
1202.78	298.79
1206.046	298.71
1209.312	295.67
1212.578	296.57
1215.843	299.26
1219.108	296
1222.373	302.68
1225.638	304.87
1228.902	309.07
1232.166	309.01
1235.43	311.25
1238.693	315.43
1241.956	317.58
1245.219	321.98
1248.482	321.35
1251.744	320.89
1255.006	323.19
1258.268	315.04
1261.529	312.15
1264.79	309.64
1268.051	308.09
1271.312	305.14
1274.572	300.68
1277.832	297.83
1281.092	293.06
1284.351	291.01
1287.61	290.89
1290.869	286.53
1294.128	284.55
1297.386	284.59
1300.644	280.96
1303.902	281.97
1307.159	280.28
1310.416	280.54
1313.673	280.2
1316.93	282.74
1320.186	283.03
1323.442	283.64
1326.697	288.38
1329.953	289.36
1333.208	290.56
1336.463	294.79
1339.717	295.25
1342.972	298.52
1346.226	301.7
1349.479	301.66
1352.733	303.46
1355.986	305.26
1359.238	305.81
1362.491	306.88
1365.743	310.03
1368.995	309.42
1372.247	308.72
1375.498	308.19
1378.749	311.56
1382	306.92
1385.251	308.53
1388.501	306.65
1391.751	307.56
1395	305.96
1398.25	303.83
1401.499	301.83
1404.748	301.57
1407.996	299.59
1411.244	298.35
1414.492	296.02
1417.74	293.78
1420.987	288.78
1424.234	289.26
1427.481	284.81
1430.728	284.84
1433.974	282.26
1437.22	279.58
1440.465	279.03
1443.711	276.05
1446.956	274.72
1450.201	271.17
1453.445	268.81
1456.689	267.91
1459.933	262.63
1463.177	261
1466.42	256.52
1469.663	253.26
1472.906	252.02
1476.148	245.27
1479.391	242.47
1482.633	240.01
1485.874	236.52
1489.115	235.01
1492.356	232.64
1495.597	232.3
1498.838	228.75
1502.078	227.59
1505.318	226.67
1508.557	226.31
1511.797	226.08
1515.036	225.22
1518.274	224.41
1521.513	222.1
1524.751	221.51
1527.989	220.82
1531.227	219.79
1534.464	220.14
1537.701	218.15
1540.938	217.83
1544.174	215.15
1547.41	214.83
1550.646	213.25
1553.882	213.07
1557.117	210.53
1560.352	209.97
1563.587	208.82
1566.821	207.16
1570.055	204.95
1573.289	203.63
1576.523	202.93
1579.756	201.9
1582.989	200.63
1586.222	200.75
1589.454	199.48
1592.686	201.53
1595.918	199.54
1599.15	199.27
1602.381	199.67
1605.612	199.74
1608.843	200.68
1612.073	200.44
1615.303	200.87
1618.533	200.91
1621.762	200.57
1624.992	200.71
1628.221	199.93
1631.449	200.47
1634.678	199.76
1637.906	200.21
1641.134	200.46
1644.361	199.55
1647.588	200.48
1650.815	199.83
1654.042	199.18
1657.269	199.77
1660.495	199.85
1663.72	199.4
1666.946	200.17
1670.171	200.71
1673.396	200.6
1676.621	200.63
1679.845	201.21
1683.069	200.9
1686.293	202.25
1689.517	203.81
1692.74	203.92
1695.963	204.39
1699.185	206.38
1702.408	206.13
1705.63	207.25
1708.852	207.67
1712.073	208.42
1715.294	208.75
1718.515	210.09
1721.736	209.71
1724.956	209.94
1728.176	210
1731.396	211.92
1734.616	210.98
1737.835	212.17
1741.054	210.47
1744.272	211.01
1747.491	212.41
1750.709	213.2
1753.927	213.02
1757.144	212.4
1760.361	213.03
1763.578	213.31
1766.795	212.62
1770.011	214.09
1773.227	214.08
1776.443	216.68
1779.658	217.95
1782.874	217.59
1786.089	218.1
1789.303	218.7
1792.518	221.58
1795.732	221.4
1798.945	223.71
1802.159	224.11
1805.372	224.72
1808.585	228.18
1811.797	229.37
1815.01	229.26
1818.222	230.96
1821.434	232.71
1824.645	233.56
1827.856	237.05
1831.067	239.27
1834.278	238.21
1837.488	240.22
1840.698	242.17
1843.908	240.18
1847.117	241.32
1850.326	243.7
1853.535	242.55
1856.744	246.03
1859.952	245.94
1863.16	244.37
1866.368	242.39
1869.575	245.82
1872.782	241.95
1875.989	241.47
1879.196	240.53
1882.402	238.87
1885.608	239.33
1888.814	240.27
1892.019	239.94
1895.224	239.38
1898.429	238.59
1901.634	240.7
1904.838	240.43
1908.042	243.22
1911.246	243.75
1914.449	245.69
1917.652	245.55
1920.855	245.55
1924.058	244.82
1927.26	243.2
1930.462	243.91
1933.664	246.37
1936.865	244.44
1940.066	244.16
1943.267	243.14
1946.467	242.82
1949.668	243.81
1952.868	246.84
1956.067	246.37
1959.267	248.09
1962.466	248.96
1965.665	247.88
1968.863	249.08
1972.061	253.03
1975.259	254.84
1978.457	256.39
1981.654	258.98
1984.852	259.84
1988.048	259.36
1991.245	261.4
1994.441	263.55
1997.637	265.75
2000.833	271.5
2004.028	274.39
2007.223	273.86
2010.418	277.44
2013.613	282.52
2016.807	285.22
2020.001	286.93
2023.194	291.55
2026.388	298.89
2029.581	305.14
2032.774	308.02
2035.966	313.2
2039.158	313.7
2042.35	321.41
2045.542	323.86
2048.733	328.59
2051.924	333.11
2055.115	339.33
2058.306	339.86
2061.496	342.13
2064.686	343.1
2067.875	348.35
2071.065	350.07
2074.254	348.48
2077.442	352.42
2080.631	353.44
2083.819	356.59
2087.007	356.22
2090.195	361.51
2093.382	364.74
2096.569	362.49
2099.756	367.94
2102.942	368.74
2106.128	372.59
2109.314	381.84
2112.5	380.31
2115.685	388.64
2118.87	389.54
2122.055	398.59
2125.239	400.34
2128.424	404.94
2131.608	409.08
2134.791	414.73
2137.974	415.98
2141.157	417
2144.34	417.42
2147.523	423.78
2150.705	420.36
2153.887	423.58
2157.068	423.67
2160.25	420.14
2163.431	421.87
2166.611	425.88
2169.792	433.79
2172.972	439.44
2176.152	441.68
2179.331	448.03
2182.511	455.52
2185.69	461.13
2188.868	471.39
2192.047	471.61
2195.225	485.38
2198.403	498.84
2201.58	508.05
2204.758	517.14
2207.935	527.72
2211.111	537.04
2214.288	542.68
2217.464	544.34
2220.64	552.44
2223.815	560.24
2226.991	583.9
2230.166	585.12
2233.34	593.66
2236.515	602.65
2239.689	602.06
2242.863	606.39
2246.036	625.23
2249.209	619.56
2252.382	630.68
2255.555	650.91
2258.727	652.38
2261.9	655.06
2265.071	661.8
2268.243	674.14
2271.414	682.69
2274.585	699.83
2277.756	706.26
2280.926	708.74
2284.096	727.74
2287.266	743.21
2290.436	746.9
2293.605	765.02
2296.774	790.07
2299.942	813.35
2303.111	815.38
2306.279	835.08
2309.447	846.13
2312.614	869.57
2315.781	894.09
2318.948	936.23
2322.115	922.6
2325.281	973.04
2328.447	952.73
2331.613	992.12
2334.779	981.69
2337.944	1025.84
2341.109	1035.13
2344.274	1060.99
2347.438	1097.78
2350.602	1099.63
2353.766	1131.9
2356.929	1148.34
2360.092	1140.05
2363.255	1223.57
2366.418	1217.44
2369.58	1243.07
2372.742	1321.71
2375.904	1353.9
2379.066	1347.43
2382.227	1316.41
2385.388	1430.64
2388.548	1426.9
2391.709	1444.28
2394.869	1613.87
2398.029	1542.22
2401.188	1588.39
2404.347	1574.83
2407.506	1544.81
2410.665	1590.28
2413.823	1686.31
2416.981	1788.8
2420.139	1727.81
2423.296	1713.96
2426.453	1790.84
2429.61	1715.31
2432.767	1797.78
2435.923	1776.9
2439.079	1946.94
2442.235	1974.14
2445.391	1958.37
2448.546	1945.64
2451.701	1892.65
2454.855	1891.22
2458.009	2005.57
2461.163	2085.46
2464.317	2167.03
2467.471	2220.37
2470.624	2218.79
2473.777	2161.2
2476.929	2106.57
2480.082	2043.39
2483.234	2020.76
2486.385	2120.79
2489.537	2130.29
2492.688	2209.6
2495.839	2144.19
2498.989	2098.91
2502.14	2107.19
2505.29	2135.94
2508.439	2173.34
2511.589	2166.87
2514.738	2362.13
2517.887	2309.79
2521.035	2441.74
2524.183	2463.52
2527.331	2476.48
2530.479	2473.9
2533.627	2489.57
