Data from C_2_DEC_NC_4N_Splice17_13-28-22-885.txt Node
Date: Sat Mar 07 13:28:22 EST 2020
User: sa697716
Spectrometer: NQ5500242
Trigger mode: 0
Integration Time (sec): 1.450000E-1
Scans to average: 20
Nonlinearity correction enabled: false
Boxcar width: 5
Storing dark spectrum: false
XAxis mode: Wavelengths
Number of Pixels in Spectrum: 512
>>>>>Begin Spectral Data<<<<<
187.83	229.13
188.298	235.09
188.766	202.8
189.233	174.71
189.701	186.23
190.169	227.1
190.636	270.78
191.104	449.32
191.571	408.81
192.039	245.22
192.506	80.45
192.974	65.66
193.441	132.33
193.908	44.69
194.375	19.84
194.842	14.47
195.31	36.72
195.777	131.61
196.244	64.81
196.711	63.77
197.177	64.9
197.644	64.15
198.111	63.08
198.578	62.4
199.045	62.58
199.511	62.82
199.978	62.71
200.445	62.83
200.911	62.65
201.378	62.42
201.844	62.01
202.31	61.33
202.777	60.93
203.243	60.81
203.709	60.4
204.176	59.44
204.642	58.71
205.108	57.99
205.574	57.39
206.04	56.33
206.506	55.72
206.972	55.16
207.438	54.2
207.903	53.18
208.369	51.69
208.835	50.42
209.301	49.18
209.766	47.58
210.232	46.13
210.697	44.6
211.163	43.42
211.628	42.17
212.094	40.89
212.559	39.82
213.024	38.71
213.49	37.8
213.955	36.74
214.42	35.66
214.885	34.42
215.35	32.93
215.815	30.94
216.28	28.34
216.745	25.55
217.21	22.72
217.675	20.2
218.14	17.92
218.604	15.94
219.069	14.3
219.534	12.95
219.998	11.81
220.463	10.88
220.927	10.07
221.392	9.45
221.856	8.94
222.32	8.49
222.785	8.12
223.249	7.8
223.713	7.55
224.177	7.3
224.642	7.07
225.106	6.84
225.57	6.62
226.034	6.44
226.497	6.29
226.961	6.13
227.425	5.98
227.889	5.82
228.353	5.68
228.816	5.54
229.28	5.41
229.744	5.29
230.207	5.2
230.671	5.1
231.134	5
231.597	4.92
232.061	4.83
232.524	4.77
232.987	4.71
233.45	4.67
233.914	4.6
234.377	4.53
234.84	4.47
235.303	4.42
235.766	4.37
236.229	4.33
236.691	4.28
237.154	4.24
237.617	4.19
238.08	4.15
238.542	4.09
239.005	4.05
239.468	4.02
239.93	3.99
240.393	3.96
240.855	3.92
241.317	3.87
241.78	3.83
242.242	3.79
242.704	3.76
243.166	3.73
243.629	3.69
244.091	3.66
244.553	3.62
245.015	3.58
245.477	3.54
245.939	3.52
246.4	3.49
246.862	3.46
247.324	3.43
247.786	3.4
248.247	3.36
248.709	3.33
249.17	3.29
249.632	3.28
250.093	3.26
250.555	3.24
251.016	3.21
251.477	3.19
251.939	3.18
252.4	3.17
252.861	3.14
253.322	3.13
253.783	3.12
254.244	3.11
254.705	3.09
255.166	3.08
255.627	3.06
256.088	3.05
256.549	3.03
257.009	3.01
257.47	2.98
257.931	2.96
258.391	2.93
258.852	2.9
259.312	2.87
259.773	2.85
260.233	2.83
260.694	2.8
261.154	2.78
261.614	2.76
262.074	2.74
262.534	2.71
262.994	2.7
263.455	2.69
263.915	2.67
264.374	2.66
264.834	2.65
265.294	2.62
265.754	2.62
266.214	2.6
266.673	2.59
267.133	2.59
267.593	2.58
268.052	2.57
268.512	2.56
268.971	2.55
269.431	2.55
269.89	2.54
270.349	2.54
270.809	2.53
271.268	2.53
271.727	2.52
272.186	2.52
272.645	2.51
273.104	2.51
273.563	2.51
274.022	2.5
274.481	2.51
274.94	2.5
275.399	2.5
275.857	2.49
276.316	2.49
276.775	2.49
277.233	2.49
277.692	2.5
278.15	2.5
278.609	2.5
279.067	2.5
279.525	2.5
279.984	2.5
280.442	2.5
280.9	2.51
281.358	2.51
281.816	2.52
282.274	2.52
282.732	2.52
283.19	2.52
283.648	2.51
284.106	2.51
284.564	2.51
285.021	2.52
285.479	2.52
285.937	2.52
286.394	2.51
286.852	2.51
287.309	2.5
287.767	2.49
288.224	2.49
288.682	2.48
289.139	2.48
289.596	2.47
290.053	2.45
290.511	2.44
290.968	2.43
291.425	2.41
291.882	2.4
292.339	2.39
292.796	2.38
293.252	2.37
293.709	2.36
294.166	2.35
294.623	2.34
295.079	2.34
295.536	2.34
295.992	2.34
296.449	2.34
296.905	2.33
297.362	2.33
297.818	2.33
298.274	2.33
298.731	2.33
299.187	2.32
299.643	2.32
300.099	2.31
300.555	2.31
301.011	2.3
301.467	2.3
301.923	2.29
302.379	2.29
302.835	2.3
303.291	2.3
303.746	2.29
304.202	2.3
304.658	2.31
305.113	2.31
305.569	2.31
306.024	2.31
306.479	2.31
306.935	2.31
307.39	2.31
307.845	2.32
308.301	2.32
308.756	2.32
309.211	2.32
309.666	2.33
310.121	2.33
310.576	2.33
311.031	2.34
311.486	2.34
311.94	2.35
312.395	2.35
312.85	2.35
313.305	2.35
313.759	2.36
314.214	2.36
314.668	2.36
315.123	2.36
315.577	2.36
316.032	2.35
316.486	2.35
316.94	2.35
317.394	2.35
317.849	2.33
318.303	2.33
318.757	2.31
319.211	2.31
319.665	2.29
320.119	2.28
320.572	2.27
321.026	2.26
321.48	2.25
321.934	2.25
322.387	2.24
322.841	2.24
323.295	2.24
323.748	2.24
324.202	2.24
324.655	2.24
325.108	2.25
325.562	2.25
326.015	2.26
326.468	2.26
326.921	2.26
327.374	2.26
327.827	2.27
328.28	2.27
328.733	2.27
329.186	2.28
329.639	2.28
330.092	2.29
330.545	2.29
330.997	2.29
331.45	2.3
331.903	2.31
332.355	2.31
332.808	2.31
333.26	2.31
333.713	2.31
334.165	2.31
334.617	2.32
335.069	2.31
335.522	2.32
335.974	2.33
336.426	2.33
336.878	2.31
337.33	2.32
337.782	2.32
338.234	2.33
338.686	2.34
339.137	2.34
339.589	2.33
340.041	2.32
340.493	2.31
340.944	2.29
341.396	2.29
341.847	2.3
342.299	2.29
342.75	2.27
343.201	2.25
343.653	2.24
344.104	2.22
344.555	2.22
345.006	2.21
345.457	2.2
345.908	2.2
346.359	2.2
346.81	2.19
347.261	2.19
347.712	2.19
348.163	2.19
348.613	2.2
349.064	2.21
349.515	2.21
349.965	2.22
350.416	2.21
350.866	2.21
351.317	2.21
351.767	2.22
352.217	2.22
352.668	2.23
353.118	2.23
353.568	2.22
354.018	2.23
354.468	2.23
354.918	2.23
355.368	2.23
355.818	2.24
356.268	2.24
356.718	2.24
357.168	2.24
357.617	2.23
358.067	2.22
358.517	2.24
358.966	2.26
359.416	2.26
359.865	2.26
360.315	2.26
360.764	2.27
361.213	2.28
361.663	2.28
362.112	2.29
362.561	2.3
363.01	2.3
363.459	2.28
363.908	2.27
364.357	2.28
364.806	2.28
365.255	2.29
365.703	2.29
366.152	2.29
366.601	2.3
367.05	2.31
367.498	2.3
367.947	2.31
368.395	2.32
368.844	2.33
369.292	2.33
369.74	2.34
370.189	2.33
370.637	2.32
371.085	2.32
371.533	2.32
371.981	2.32
372.429	2.34
372.877	2.34
373.325	2.34
373.773	2.34
374.221	2.34
374.669	2.34
375.116	2.34
375.564	2.35
376.012	2.35
376.459	2.34
376.907	2.35
377.354	2.35
377.801	2.35
378.249	2.36
378.696	2.37
379.143	2.39
379.591	2.4
380.038	2.41
380.485	2.43
380.932	2.45
381.379	2.47
381.826	2.5
382.273	2.52
382.72	2.54
383.166	2.58
383.613	2.62
384.06	2.66
384.506	2.72
384.953	2.81
385.4	2.91
385.846	3.05
386.292	3.2
386.739	3.38
387.185	3.58
387.631	3.79
388.078	3.98
388.524	4.15
388.97	4.34
389.416	4.59
389.862	4.93
390.308	5.36
390.754	5.86
391.2	6.37
391.645	6.83
392.091	7.27
392.537	7.74
392.983	8.43
393.428	9.38
393.874	10.53
394.319	11.82
394.765	13.16
395.21	14.54
395.655	16
396.101	17.58
396.546	19.34
396.991	21.29
397.436	23.37
397.881	25.45
398.326	27.41
398.771	29.28
399.216	31.02
399.661	32.63
400.106	34.03
400.551	35.28
400.995	36.38
401.44	37.39
401.885	38.36
402.329	39.34
402.774	40.39
403.218	41.56
403.663	42.77
404.107	44.07
404.551	45.36
404.995	46.61
405.44	47.83
405.884	49.1
406.328	50.53
406.772	52.06
407.216	53.61
407.66	54.98
408.104	56.15
408.547	57.18
408.991	58.12
409.435	59.18
409.879	60.4
410.322	61.82
410.766	63.24
411.209	64.57
411.653	65.74
412.096	66.77
412.54	67.75
412.983	68.87
413.426	70.04
413.869	71.21
414.312	72.32
414.756	73.28
415.199	74.07
415.642	74.73
416.085	75.21
416.527	75.48
416.97	75.5
417.413	75.39
417.856	75.11
418.298	74.89
418.741	74.76
419.184	74.78
419.626	74.94
420.069	75.18
420.511	75.49
420.953	75.88
421.396	76.55
421.838	77.47
422.28	78.4
422.722	79.44
423.164	80.32
423.606	81.08
424.048	81.53
424.49	81.55
424.932	81
425.374	79.74
425.816	78.1
426.258	76.42
426.699	75.27
427.141	75.11
427.582	75.67
428.024	76.61
428.465	77.54
428.907	78.31
429.348	79.1
429.789	80.42
430.231	82.74
430.672	85.8
431.113	89.17
431.554	92.09
431.995	94.24
432.436	95.63
432.877	96.74
433.318	97.78
433.759	99.06
434.2	100.72
434.64	102.49
435.081	104.05
435.522	105.43
435.962	106.38
436.403	107.31
436.843	107.95
437.284	108.58
437.724	109.32
438.164	110.28
438.604	111.47
439.045	112.51
439.485	113.39
439.925	114.07
440.365	114.56
440.805	114.98
441.245	115.17
441.685	115.66
442.125	116.1
442.564	116.6
443.004	116.99
443.444	117.55
443.883	118.13
444.323	118.75
444.762	119.4
445.202	120.11
445.641	120.98
446.081	122.19
446.52	123
446.959	123.96
447.398	124.64
447.837	124.82
448.276	124.61
448.716	124.33
449.154	124.1
449.593	123.82
450.032	123.17
450.471	122.27
450.91	121.14
451.349	120.11
451.787	119
452.226	117.94
452.664	117.07
453.103	116.27
453.541	115.18
453.98	114.01
454.418	112.67
454.856	111.48
455.295	110.59
455.733	109.51
456.171	108.62
456.609	107.93
457.047	106.83
457.485	106.26
457.923	105.9
458.361	105.75
458.798	105.76
459.236	105.77
459.674	106.03
460.111	106.08
460.549	106.52
460.987	106.9
461.424	107.08
461.862	107.76
462.299	108.11
462.736	108.37
463.173	108.9
463.611	109.44
464.048	110.2
464.485	110.87
464.922	111.6
465.359	112.28
465.796	112.8
466.233	113.67
466.67	114.36
467.106	115.06
467.543	115.71
467.98	116.22
468.416	116.64
468.853	116.9
469.29	117.04
469.726	117.23
470.162	117.24
470.599	117.03
471.035	116.68
471.471	116.23
471.907	115.69
472.344	115.16
472.78	114.33
473.216	113.34
473.652	112.36
474.088	111.24
474.523	109.92
474.959	108.65
475.395	107.38
475.831	106.03
476.266	104.69
476.702	103.34
477.138	101.79
477.573	100.33
478.008	98.86
478.444	97.24
478.879	95.73
479.314	94.29
479.75	92.8
480.185	91.35
480.62	89.83
481.055	88.35
481.49	86.76
481.925	85.28
482.36	83.9
482.795	82.66
483.229	81.6
483.664	80.5
484.099	79.37
484.534	78.32
484.968	77.45
485.403	76.55
485.837	75.84
486.271	75.2
486.706	74.52
487.14	74.01
487.574	73.44
488.009	72.88
488.443	72.36
488.877	71.96
489.311	71.6
489.745	71.26
490.179	71.06
490.613	70.79
491.046	70.64
491.48	70.57
491.914	70.43
492.348	70.36
492.781	70.33
493.215	70.38
493.648	70.43
494.082	70.49
494.515	70.57
494.948	70.65
495.382	70.75
495.815	70.81
496.248	70.95
496.681	71.07
497.114	71.19
497.547	71.28
497.98	71.39
498.413	71.47
498.846	71.62
499.279	71.72
499.711	71.84
500.144	72
500.577	72.19
501.009	72.34
501.442	72.57
501.874	72.72
502.306	72.99
502.739	73.22
503.171	73.58
503.603	73.81
504.036	74.07
504.468	74.35
504.9	74.64
505.332	74.91
505.764	75.22
506.196	75.5
506.627	75.85
507.059	76.16
507.491	76.47
507.923	76.65
508.354	77
508.786	77.37
509.217	77.71
509.649	78.11
510.08	78.49
510.512	78.9
510.943	79.36
511.374	79.83
511.805	80.24
512.237	80.7
512.668	81.24
513.099	81.72
513.53	82.2
513.961	82.71
514.391	83.15
514.822	83.58
515.253	83.98
515.684	84.33
516.114	84.69
516.545	84.99
516.975	85.27
517.406	85.47
517.836	85.67
518.267	85.85
518.697	85.96
519.127	86.03
519.558	86.14
519.988	86.26
520.418	86.38
520.848	86.43
521.278	86.54
521.708	86.62
522.138	86.84
522.567	86.99
522.997	87.14
523.427	87.33
523.857	87.5
524.286	87.72
524.716	87.91
525.145	88.07
525.575	88.33
526.004	88.55
526.433	88.82
526.863	89.05
527.292	89.24
527.721	89.4
528.15	89.57
528.579	89.73
529.008	89.93
529.437	90.06
529.866	90.23
530.295	90.38
530.724	90.54
531.152	90.66
531.581	90.76
532.01	90.89
532.438	90.99
532.867	91.14
533.295	91.28
533.723	91.38
534.152	91.53
534.58	91.62
535.008	91.68
535.436	91.8
535.865	91.87
536.293	91.95
536.721	92.07
537.149	92.24
537.576	92.45
538.004	92.71
538.432	92.87
538.86	93.06
539.287	93.25
539.715	93.49
540.143	93.74
540.57	94.06
540.998	94.38
541.425	94.61
541.852	94.96
542.28	95.23
542.707	95.53
543.134	95.85
543.561	96.11
543.988	96.43
544.415	96.74
544.842	97.04
545.269	97.3
545.696	97.58
546.123	97.96
546.549	98.21
546.976	98.43
547.403	98.62
547.829	98.85
548.256	99.12
548.682	99.33
549.108	99.62
549.535	99.88
549.961	100.04
550.387	100.2
550.813	100.34
551.24	100.51
551.666	100.61
552.092	100.73
552.518	100.87
552.943	100.94
553.369	101.08
553.795	101.14
554.221	101.13
554.646	101.18
555.072	101.11
555.498	101.03
555.923	100.95
556.349	100.86
556.774	100.72
557.199	100.51
557.625	100.39
558.05	100.18
558.475	99.91
558.9	99.65
559.325	99.37
559.75	99.1
560.175	98.79
560.6	98.45
561.025	98.05
561.449	97.66
561.874	97.21
562.299	96.67
562.723	96.17
563.148	95.57
563.572	94.93
563.997	94.32
564.421	93.61
564.846	92.97
565.27	92.26
565.694	91.64
566.118	90.87
566.542	90.23
566.966	89.56
567.39	88.89
567.814	88.31
568.238	87.84
568.662	87.34
569.086	86.95
569.509	86.62
569.933	86.37
570.357	86.15
570.78	86.04
571.204	85.95
571.627	85.96
572.05	86.04
572.474	86.19
572.897	86.38
573.32	86.57
573.743	86.85
574.166	87.08
574.589	87.32
575.012	87.59
575.435	87.95
575.858	88.24
576.281	88.57
576.704	88.87
577.126	89.13
577.549	89.34
577.972	89.65
578.394	89.91
578.817	90.15
579.239	90.46
579.661	90.74
580.084	90.92
580.506	91.21
580.928	91.44
581.35	91.72
581.772	91.94
582.194	92.19
582.616	92.39
583.038	92.66
583.46	92.86
583.882	93
584.303	93.09
584.725	93.28
585.147	93.31
585.568	93.4
585.99	93.38
586.411	93.5
586.833	93.52
587.254	93.53
587.675	93.49
588.096	93.51
588.518	93.53
588.939	93.56
589.36	93.52
589.781	93.49
590.202	93.36
590.623	93.29
591.043	93.03
591.464	92.82
591.885	92.58
592.305	92.37
592.726	92.06
593.147	91.64
593.567	91.23
593.987	90.74
594.408	90.26
594.828	89.79
595.248	89.24
595.669	88.66
596.089	88.04
596.509	87.44
596.929	86.74
597.349	86.1
597.769	85.47
598.189	84.81
598.608	84.29
599.028	83.7
599.448	83.16
599.867	82.64
600.287	82.23
600.706	81.79
601.126	81.34
601.545	80.99
601.965	80.68
602.384	80.43
602.803	80.2
603.222	79.94
603.641	79.77
604.061	79.64
604.48	79.52
604.898	79.42
605.317	79.4
605.736	79.4
606.155	79.38
606.574	79.34
606.992	79.36
607.411	79.37
607.829	79.42
608.248	79.48
608.666	79.49
609.085	79.52
609.503	79.5
609.921	79.52
610.339	79.53
610.758	79.56
611.176	79.59
611.594	79.62
612.012	79.62
612.43	79.57
612.847	79.56
613.265	79.54
613.683	79.56
614.101	79.61
614.518	79.62
614.936	79.63
615.353	79.59
615.771	79.59
616.188	79.59
616.606	79.61
617.023	79.67
617.44	79.7
617.857	79.68
618.274	79.67
618.691	79.63
619.108	79.61
619.525	79.58
619.942	79.53
620.359	79.46
620.776	79.36
621.192	79.27
621.609	79.19
622.026	79.09
622.442	79.08
622.859	79
623.275	78.92
623.691	78.85
624.108	78.8
624.524	78.76
624.94	78.75
625.356	78.73
625.772	78.72
626.188	78.74
626.604	78.74
627.02	78.73
627.436	78.74
627.852	78.81
628.268	78.82
628.683	78.91
629.099	79.01
629.514	79.1
629.93	79.2
630.345	79.3
630.761	79.34
631.176	79.43
631.591	79.47
632.007	79.58
632.422	79.66
632.837	79.76
633.252	79.82
633.667	79.88
634.082	79.91
634.497	80.02
634.911	80.06
635.326	80.11
635.741	80.15
636.155	80.17
636.57	80.15
636.984	80.14
637.399	80.11
637.813	80.08
638.228	80
638.642	79.97
639.056	79.88
639.47	79.85
639.884	79.77
640.298	79.68
640.712	79.63
641.126	79.54
641.54	79.45
641.954	79.33
642.368	79.18
642.781	79.07
643.195	78.95
643.609	78.8
644.022	78.65
644.436	78.5
644.849	78.38
645.262	78.17
645.676	78.02
646.089	77.91
646.502	77.86
646.915	77.81
647.328	77.77
647.741	77.7
648.154	77.64
648.567	77.56
648.98	77.52
649.393	77.49
649.805	77.51
650.218	77.52
650.631	77.36
651.043	77.12
651.456	76.67
651.868	76.04
652.28	75.35
652.693	74.81
653.105	74.36
653.517	74.05
653.929	73.78
654.341	73.57
654.753	73.34
655.165	73.26
655.577	73.29
655.989	73.53
656.401	73.95
656.813	74.45
657.224	74.8
657.636	75.05
658.047	75.21
658.459	75.22
658.87	75.18
659.282	75.15
659.693	75.06
660.104	74.91
660.515	74.75
660.926	74.6
661.338	74.45
661.749	74.26
662.159	74.07
662.57	73.87
662.981	73.71
663.392	73.51
663.803	73.33
664.213	73.15
664.624	73
665.035	72.85
665.445	72.64
665.855	72.43
666.266	72.25
666.676	72.03
667.086	71.76
667.497	71.5
667.907	71.3
668.317	71.07
668.727	70.87
669.137	70.63
669.547	70.43
669.956	70.24
670.366	70.04
670.776	69.85
671.186	69.68
671.595	69.54
672.005	69.42
672.414	69.31
672.824	69.19
673.233	69.1
673.642	69.01
674.052	68.91
674.461	68.82
674.87	68.74
675.279	68.7
675.688	68.65
676.097	68.6
676.506	68.56
676.915	68.52
677.323	68.5
677.732	68.48
678.141	68.51
678.549	68.49
678.958	68.53
679.366	68.55
679.775	68.52
680.183	68.51
680.592	68.53
681	68.57
681.408	68.58
681.816	68.49
682.224	68.13
682.632	67.4
683.04	66.44
683.448	65.47
683.856	64.6
684.264	63.87
684.671	63.19
685.079	62.55
685.487	61.97
685.894	61.5
686.302	61.24
686.709	61.35
687.116	61.91
687.524	62.81
687.931	63.82
688.338	64.8
688.745	65.72
689.152	66.66
689.559	67.6
689.966	68.47
690.373	69.29
690.78	70.06
691.187	70.77
691.593	71.46
692	72.11
692.407	72.73
692.813	73.39
693.22	73.98
693.626	74.55
694.032	75.11
694.439	75.65
694.845	76.21
695.251	76.72
695.657	77.2
696.063	77.62
696.469	77.96
696.875	78.29
697.281	78.56
697.687	78.85
698.093	79.13
698.498	79.45
698.904	79.77
699.31	80.11
699.715	80.5
700.12	80.92
700.526	81.38
700.931	81.91
701.337	82.38
701.742	82.84
702.147	83.34
702.552	83.83
702.957	84.24
703.362	84.67
703.767	85.06
704.172	85.44
704.577	85.79
704.981	86.12
705.386	86.39
705.791	86.72
706.195	87.07
706.6	87.39
707.004	87.67
707.408	87.97
707.813	88.27
708.217	88.49
708.621	88.74
709.025	88.96
709.43	89.17
709.834	89.42
710.237	89.62
710.641	89.76
711.045	89.9
711.449	90.09
711.853	90.21
712.256	90.19
712.66	90.06
713.064	89.77
713.467	89.37
713.87	88.82
714.274	88.15
714.677	87.42
715.08	86.67
715.484	85.89
715.887	85.17
716.29	84.57
716.693	84.29
717.096	84.29
717.499	84.57
717.901	85.06
718.304	85.71
718.707	86.39
719.109	87.07
719.512	87.66
719.915	88.25
720.317	88.69
720.719	89.06
721.122	89.29
721.524	89.38
721.926	89.37
722.328	89.28
722.731	89.12
723.133	89.05
723.535	89.04
723.937	89.14
724.338	89.23
724.74	89.38
725.142	89.6
725.544	89.72
725.945	89.89
726.347	89.98
726.748	90.04
727.15	90.19
727.551	90.41
727.952	90.67
728.354	91.01
728.755	91.41
729.156	91.84
729.557	92.29
729.958	92.77
730.359	93.22
730.76	93.69
731.161	94.09
731.562	94.46
731.962	94.69
732.363	94.91
732.763	95.07
733.164	95.22
733.564	95.32
733.965	95.29
734.365	95.25
734.766	95.14
735.166	95.04
735.566	95.01
735.966	95
736.366	94.98
736.766	94.95
737.166	94.86
737.566	94.75
737.966	94.68
738.365	94.64
738.765	94.66
739.165	94.72
739.564	94.81
739.964	94.85
740.363	94.84
740.763	94.85
741.162	94.88
741.561	94.97
741.96	95.01
742.36	95.04
742.759	95.07
743.158	95.04
743.557	95.01
743.955	94.96
744.354	94.91
744.753	94.88
745.152	94.85
745.55	94.75
745.949	94.64
746.348	94.52
746.746	94.38
747.144	94.21
747.543	94
747.941	93.83
748.339	93.59
748.737	93.36
749.136	93.17
749.534	92.95
749.932	92.81
750.33	92.65
750.727	92.51
751.125	92.37
751.523	92.2
751.921	92.04
752.318	91.85
752.716	91.71
753.113	91.6
753.511	91.43
753.908	91.27
754.305	90.98
754.703	90.31
755.1	88.97
755.497	86.71
755.894	83.44
756.291	79.56
756.688	75.42
757.085	71.49
757.482	67.84
757.878	64.44
758.275	61.11
758.672	57.7
759.068	54.67
759.465	52.39
759.861	51.26
760.258	51.38
760.654	52.38
761.05	53.94
761.447	55.56
761.843	57.09
762.239	58.65
762.635	60.46
763.031	62.7
763.427	65.12
763.822	67.64
764.218	70.12
764.614	72.48
765.01	74.68
765.405	76.62
765.801	78.35
766.196	79.94
766.592	81.25
766.987	82.32
767.382	83.09
767.778	83.67
768.173	84.11
768.568	84.4
768.963	84.59
769.358	84.74
769.753	84.85
770.148	84.87
770.542	84.83
770.937	84.73
771.332	84.62
771.726	84.54
772.121	84.48
772.515	84.38
772.91	84.25
773.304	84.14
773.699	83.98
774.093	83.81
774.487	83.65
774.881	83.52
775.275	83.37
775.669	83.19
776.063	82.98
776.457	82.75
776.851	82.51
777.245	82.29
777.638	82.11
778.032	81.95
778.425	81.81
778.819	81.64
779.212	81.42
779.606	81.23
779.999	81.02
780.392	80.85
780.786	80.68
781.179	80.53
781.572	80.37
781.965	80.14
782.358	79.9
782.751	79.61
783.143	79.38
783.536	79.12
783.929	78.9
784.322	78.69
784.714	78.41
785.107	78.12
785.499	77.77
785.891	77.43
786.284	77.14
786.676	76.81
787.068	76.48
787.46	76.15
787.852	75.84
788.245	75.46
788.636	75.08
789.028	74.73
789.42	74.36
789.812	74.03
790.204	73.71
790.595	73.39
790.987	73.1
791.378	72.85
791.77	72.6
792.161	72.33
792.553	72.1
792.944	71.88
793.335	71.67
793.726	71.51
794.117	71.34
794.508	71.13
794.899	70.92
795.29	70.68
795.681	70.37
796.072	70.07
796.463	69.82
796.853	69.5
797.244	69.2
797.634	68.9
798.025	68.58
798.415	68.25
798.806	67.9
799.196	67.55
799.586	67.26
799.976	66.97
800.366	66.7
800.756	66.38
801.146	66.09
801.536	65.82
801.926	65.53
802.316	65.27
802.706	65.01
803.095	64.74
803.485	64.45
803.874	64.15
804.264	63.83
804.653	63.48
805.043	63.16
805.432	62.82
805.821	62.44
806.21	62.09
806.599	61.69
806.988	61.31
807.377	60.89
807.766	60.5
808.155	60.05
808.544	59.63
808.933	59.19
809.321	58.7
809.71	58.2
810.098	57.66
810.487	57.04
810.875	56.42
811.264	55.76
811.652	55.13
812.04	54.46
812.428	53.82
812.816	53.16
813.204	52.55
813.592	51.96
813.98	51.43
814.368	50.95
814.756	50.53
815.144	50.12
815.531	49.79
815.919	49.5
816.306	49.32
816.694	49.19
817.081	49.08
817.469	48.95
817.856	48.79
818.243	48.52
818.63	48.19
819.017	47.86
819.404	47.58
819.791	47.32
820.178	47.13
820.565	46.88
820.952	46.62
821.339	46.35
821.725	46.13
822.112	45.99
822.498	45.93
822.885	45.91
823.271	45.86
823.657	45.74
824.044	45.59
824.43	45.36
824.816	45.11
825.202	44.86
825.588	44.62
825.974	44.37
826.36	44.08
826.746	43.8
827.132	43.54
827.517	43.34
827.903	43.15
828.289	42.98
828.674	42.81
829.06	42.63
829.445	42.45
829.83	42.28
830.216	42.12
830.601	41.98
830.986	41.86
831.371	41.75
831.756	41.65
832.141	41.55
832.526	41.42
832.911	41.32
833.295	41.27
833.68	41.2
834.065	41.11
834.449	41.02
834.834	40.92
835.218	40.82
835.603	40.7
835.987	40.58
836.371	40.47
836.755	40.35
837.139	40.23
837.524	40.08
837.908	39.99
838.291	39.89
838.675	39.77
839.059	39.66
839.443	39.54
839.827	39.41
840.21	39.28
840.594	39.15
840.977	39.06
841.361	38.98
841.744	38.86
842.127	38.73
842.511	38.62
842.894	38.5
843.277	38.39
843.66	38.28
844.043	38.2
844.426	38.11
844.809	38.01
845.191	37.88
845.574	37.7
845.957	37.54
846.339	37.39
846.722	37.24
847.104	37.14
847.487	37.01
847.869	36.89
848.252	36.76
848.634	36.65
849.016	36.53
849.398	36.4
849.78	36.22
850.162	36.04
850.544	35.85
850.926	35.69
851.307	35.55
851.689	35.44
852.071	35.33
852.452	35.23
852.834	35.15
853.215	35.07
853.597	35.06
853.978	35.1
854.359	35.15
854.741	35.2
855.122	35.22
855.503	35.21
855.884	35.19
856.265	35.18
856.646	35.12
857.026	35.05
857.407	35.01
857.788	34.93
858.169	34.87
858.549	34.8
858.93	34.74
859.31	34.69
859.69	34.63
860.071	34.56
860.451	34.45
860.831	34.38
861.211	34.28
861.591	34.14
861.971	33.99
862.351	33.83
862.731	33.68
863.111	33.55
863.491	33.41
863.87	33.3
864.25	33.18
864.629	33.07
865.009	32.98
865.388	32.92
865.768	32.88
866.147	32.88
866.526	32.87
866.905	32.87
867.284	32.87
867.663	32.85
868.042	32.84
868.421	32.82
868.8	32.82
869.179	32.79
869.558	32.73
869.936	32.7
870.315	32.65
870.693	32.6
871.072	32.58
871.45	32.52
871.828	32.46
872.207	32.41
872.585	32.35
872.963	32.3
873.341	32.25
873.719	32.23
874.097	32.18
874.475	32.13
874.853	32.1
875.23	32.05
875.608	32.02
875.986	31.99
876.363	31.93
876.741	31.89
877.118	31.84
877.495	31.8
877.873	31.76
878.25	31.73
878.627	31.7
879.004	31.67
879.381	31.62
879.758	31.57
880.135	31.52
880.512	31.48
880.889	31.43
881.265	31.39
881.642	31.34
882.019	31.3
882.395	31.24
882.772	31.18
883.148	31.13
883.524	31.08
883.901	31.03
884.277	30.98
884.653	30.92
885.029	30.91
885.405	30.86
885.781	30.82
886.157	30.79
886.532	30.75
886.908	30.71
887.284	30.67
887.659	30.62
888.035	30.57
888.411	30.52
888.786	30.48
889.161	30.42
889.537	30.39
889.912	30.33
890.287	30.24
890.662	30.18
891.037	30.12
891.412	30.04
891.787	29.93
892.162	29.85
892.536	29.76
892.911	29.66
893.286	29.56
893.66	29.46
894.035	29.37
894.409	29.25
894.784	29.14
895.158	29.03
895.532	28.94
895.906	28.88
896.281	28.79
896.655	28.7
897.029	28.63
897.402	28.55
897.776	28.47
898.15	28.42
898.524	28.39
898.898	28.38
899.271	28.36
899.645	28.37
900.018	28.39
900.392	28.45
900.765	28.51
901.138	28.56
901.511	28.61
901.884	28.68
902.258	28.72
902.631	28.76
903.003	28.77
903.376	28.79
903.749	28.76
904.122	28.7
904.495	28.65
904.867	28.59
905.24	28.54
905.612	28.46
905.985	28.39
906.357	28.32
906.729	28.26
907.102	28.22
907.474	28.19
907.846	28.16
908.218	28.14
908.59	28.14
908.962	28.13
909.334	28.1
909.705	28.09
910.077	28.09
910.449	28.08
910.82	28.08
911.192	28.05
911.563	28.01
911.935	28
912.306	27.97
912.677	27.95
913.048	27.94
913.419	27.92
913.79	27.92
914.161	27.89
914.532	27.86
914.903	27.87
915.274	27.89
915.645	27.91
916.015	27.91
916.386	27.96
916.756	27.94
917.127	27.94
917.497	27.96
917.868	28
918.238	28.01
918.608	28.06
918.978	28.06
919.348	28.06
919.718	28.05
920.088	28.06
920.458	28.02
920.828	28
921.198	27.98
921.567	27.94
921.937	27.9
922.306	27.86
922.676	27.81
923.045	27.78
923.415	27.74
923.784	27.71
924.153	27.69
924.522	27.64
924.891	27.63
925.26	27.59
925.629	27.55
925.998	27.48
926.367	27.43
926.736	27.38
927.104	27.3
927.473	27.18
927.842	27.06
928.21	26.94
928.578	26.83
928.947	26.7
929.315	26.53
929.683	26.4
930.051	26.24
930.42	26.08
930.788	25.92
931.156	25.78
931.523	25.68
931.891	25.59
932.259	25.49
932.627	25.41
932.994	25.33
933.362	25.33
933.729	25.29
934.097	25.29
934.464	25.31
934.831	25.33
935.199	25.34
935.566	25.4
935.933	25.37
936.3	25.46
936.667	25.49
937.034	25.58
937.401	25.65
937.767	25.75
938.134	25.88
938.501	25.98
938.867	26.1
939.234	26.23
939.6	26.28
939.967	26.42
940.333	26.42
940.699	26.48
941.065	26.44
941.431	26.4
941.798	26.41
942.163	26.36
942.529	26.32
942.895	26.27
943.261	26.18
943.627	26.15
943.992	26.11
944.358	26.13
944.723	26.11
945.089	26.1
945.454	26.11
945.82	26.08
946.185	26.06
946.55	26.05
946.915	26.03
947.28	26.04
947.645	26.02
948.01	26.04
948.375	26
948.74	25.97
949.104	26.01
949.469	26.04
949.834	25.99
950.198	25.97
950.562	25.97
950.927	25.97
951.291	25.92
951.655	25.88
952.02	25.82
952.384	25.79
952.748	25.77
953.112	25.71
953.476	25.63
953.839	25.62
954.203	25.56
954.567	25.48
954.931	25.42
955.294	25.41
955.658	25.47
956.021	25.47
956.385	25.47
956.748	25.46
957.111	25.48
957.474	25.5
957.837	25.49
958.2	25.52
958.563	25.55
958.926	25.62
959.289	25.68
959.652	25.6
960.015	25.61
960.377	25.61
960.74	25.67
961.102	25.68
961.465	25.73
961.827	25.83
962.189	25.86
962.552	25.88
962.914	25.88
963.276	25.86
963.638	25.96
964	25.97
964.362	26
964.724	25.97
965.085	25.98
965.447	26.01
965.809	25.99
966.17	26.03
966.532	26.06
966.893	26.09
967.255	26.12
967.616	26.14
967.977	26.19
968.338	26.22
968.699	26.26
969.061	26.31
969.421	26.33
969.782	26.36
970.143	26.33
970.504	26.38
970.865	26.38
971.225	26.45
971.586	26.45
971.946	26.43
972.307	26.42
972.667	26.41
973.027	26.42
973.388	26.41
973.748	26.43
974.108	26.5
974.468	26.51
974.828	26.53
975.188	26.48
975.548	26.42
975.907	26.46
976.267	26.48
976.627	26.55
976.986	26.52
977.346	26.53
977.705	26.52
978.064	26.49
978.424	26.51
978.783	26.47
979.142	26.54
979.501	26.62
979.86	26.63
980.219	26.66
980.578	26.65
980.937	26.74
981.296	26.76
981.654	26.8
982.013	26.85
982.371	26.91
982.73	27
983.088	26.96
983.447	26.99
983.805	27.01
984.163	27.01
984.521	27.03
984.879	26.98
985.237	26.98
985.595	27
985.953	27
986.311	26.94
986.669	26.96
987.026	27.05
987.384	27.09
987.741	27.14
988.099	27.17
988.456	27.11
988.814	27.19
989.171	27.22
989.528	27.24
989.885	27.24
990.242	27.3
990.599	27.34
990.956	27.36
991.313	27.39
991.67	27.43
992.027	27.62
992.383	27.67
992.74	27.73
993.096	27.77
993.453	27.8
993.809	27.89
994.165	27.92
994.522	28.01
994.878	28.03
995.234	28.11
995.59	28.15
995.946	28.07
996.302	28.2
996.658	28.22
997.013	28.22
997.369	28.35
997.725	28.47
998.08	28.55
998.436	28.56
998.791	28.61
999.147	28.63
999.502	28.7
999.857	28.71
1000.212	28.68
1000.567	28.7
1000.922	28.81
1001.277	28.78
1001.632	28.69
1001.987	28.72
1002.342	28.62
1002.696	28.69
1003.051	28.8
1003.406	28.92
1003.76	28.95
1004.114	29.05
1004.469	29.13
1004.823	29.3
1005.177	29.33
1005.531	29.4
1005.885	29.51
1006.239	29.75
1006.593	29.79
1006.947	29.8
1007.301	29.66
1007.655	29.71
1008.008	29.72
1008.362	29.88
1008.715	29.89
1009.069	30.08
1009.422	30.27
1009.776	30.25
1010.129	30.24
1010.482	30.29
1010.835	30.38
1011.188	30.57
1011.541	30.77
1011.894	30.95
1012.247	30.93
1012.6	31.02
1012.952	31
1013.305	31
1013.657	31.19
1014.01	31.34
1014.362	31.44
1014.715	31.6
1015.067	31.75
1015.419	31.9
1015.771	31.95
1016.123	31.94
1016.475	31.95
1016.827	32.18
1017.179	32.41
1017.531	32.53
1017.883	32.47
1018.234	32.73
1018.586	32.81
1018.938	32.86
1019.289	32.78
1019.64	32.9
1019.992	33.16
1020.343	33.28
1020.694	33.18
1021.045	33.22
1021.396	33.26
1021.747	33.57
1022.098	33.64
1022.449	33.8
1022.8	33.94
1023.151	34
1023.501	34.2
1023.852	34.25
1024.202	34.59
1024.553	34.75
1024.903	34.85
1025.253	35.11
1025.604	35.23
1025.954	35.01
1026.304	35.12
1026.654	35.23
1027.004	35.66
1027.354	35.61
1027.703	35.69
1028.053	35.51
1028.403	35.62
1028.753	35.55
1029.102	35.52
1029.452	35.52
1029.801	35.9
1030.15	35.73
1030.499	35.65
897.758	1400.85
901.051	1405.2
904.343	1404.44
907.636	1426.03
910.928	1386.37
914.22	1389.98
917.511	1371.91
920.803	1315.31
924.094	1308.12
927.384	1275.58
930.675	1224.1
933.965	1218.28
937.255	1148.09
940.544	1100.79
943.834	1048.85
947.123	1041.17
950.411	976.01
953.7	955.78
956.988	902.38
960.276	867.23
963.563	852.8
966.851	821.61
970.138	812.76
973.424	787.04
976.711	791.16
979.997	751.19
983.283	747.8
986.568	733.28
989.853	711
993.138	698.65
996.423	671.06
999.708	653.42
1002.992	645.6
1006.275	618.57
1009.559	611.91
1012.842	590.17
1016.125	573.58
1019.408	562.71
1022.69	554.34
1025.972	542.75
1029.254	529.54
1032.536	520.44
1035.817	509.18
1039.098	502.76
1042.379	492.23
1045.659	486.85
1048.939	475.04
1052.219	466.17
1055.498	458.77
1058.778	448.32
1062.057	438.49
1065.335	433.56
1068.614	428.09
1071.892	422.78
1075.17	410.05
1078.447	401.54
1081.724	398.82
1085.001	395.43
1088.278	387.31
1091.554	379.88
1094.83	380.57
1098.106	377.87
1101.382	374.64
1104.657	372.51
1107.932	366.39
1111.206	367
1114.481	359.08
1117.755	355.7
1121.029	352.64
1124.302	352.83
1127.575	345.46
1130.848	340.84
1134.121	337.23
1137.393	334.85
1140.665	327.34
1143.937	325.93
1147.208	324.63
1150.48	323.12
1153.75	319.11
1157.021	314.69
1160.291	314.53
1163.561	311.6
1166.831	311.08
1170.101	308.27
1173.37	308.06
1176.639	308.82
1179.907	305.67
1183.176	302
1186.444	301.67
1189.711	300.94
1192.979	300.14
1196.246	297.74
1199.513	298.54
1202.78	296.75
1206.046	296.84
1209.312	293.87
1212.578	294.55
1215.843	296.83
1219.108	294.84
1222.373	300.59
1225.638	302.95
1228.902	306.87
1232.166	307.84
1235.43	310.42
1238.693	314.15
1241.956	316.58
1245.219	321.58
1248.482	320.33
1251.744	320.43
1255.006	322.23
1258.268	314.55
1261.529	311.45
1264.79	309.08
1268.051	306.74
1271.312	303.44
1274.572	299.31
1277.832	295.95
1281.092	291.61
1284.351	290.07
1287.61	289.7
1290.869	285.04
1294.128	283.3
1297.386	282.82
1300.644	279.75
1303.902	281.37
1307.159	279.94
1310.416	280.4
1313.673	279.89
1316.93	282.24
1320.186	282.08
1323.442	283.19
1326.697	287.93
1329.953	289.28
1333.208	290.69
1336.463	294.48
1339.717	294.33
1342.972	297.16
1346.226	300.52
1349.479	301.15
1352.733	302.44
1355.986	303.91
1359.238	303.61
1362.491	305.74
1365.743	307.65
1368.995	308.21
1372.247	308.13
1375.498	308.12
1378.749	311.44
1382	307.3
1385.251	308.97
1388.501	306.63
1391.751	308.4
1395	306.86
1398.25	303.77
1401.499	303.2
1404.748	302.41
1407.996	298.45
1411.244	297.14
1414.492	295.2
1417.74	292.93
1420.987	288.25
1424.234	288.19
1427.481	284.04
1430.728	284.02
1433.974	282.1
1437.22	278.91
1440.465	278.4
1443.711	276.73
1446.956	275.23
1450.201	271.09
1453.445	268.75
1456.689	267.92
1459.933	263.19
1463.177	261.17
1466.42	256.86
1469.663	253.05
1472.906	251.64
1476.148	244.66
1479.391	241.73
1482.633	239.14
1485.874	235.73
1489.115	234.01
1492.356	230.88
1495.597	231.02
1498.838	227.18
1502.078	226.07
1505.318	225.37
1508.557	224.84
1511.797	224.47
1515.036	223.22
1518.274	222.65
1521.513	220.56
1524.751	220.1
1527.989	219.38
1531.227	217.73
1534.464	218.58
1537.701	216.48
1540.938	215.96
1544.174	213.26
1547.41	213.79
1550.646	212.37
1553.882	212.08
1557.117	209.7
1560.352	208.5
1563.587	207.97
1566.821	206.64
1570.055	204.18
1573.289	202.93
1576.523	202.25
1579.756	201.27
1582.989	199.48
1586.222	199.36
1589.454	197.6
1592.686	199.51
1595.918	198.11
1599.15	197.29
1602.381	198.04
1605.612	197.96
1608.843	198.73
1612.073	198.69
1615.303	199.41
1618.533	199.42
1621.762	199.19
1624.992	200.15
1628.221	199.61
1631.449	199.78
1634.678	199.21
1637.906	199.64
1641.134	199.9
1644.361	199.29
1647.588	199.56
1650.815	198.67
1654.042	197.8
1657.269	199.12
1660.495	198.88
1663.72	198.04
1666.946	198.88
1670.171	199.54
1673.396	199.36
1676.621	199.61
1679.845	200.04
1683.069	200.14
1686.293	201.66
1689.517	202.83
1692.74	202.32
1695.963	203.41
1699.185	205.25
1702.408	205.78
1705.63	206.58
1708.852	207.01
1712.073	207.34
1715.294	207.84
1718.515	209.12
1721.736	208.41
1724.956	209.63
1728.176	209.6
1731.396	211.07
1734.616	210.37
1737.835	210.83
1741.054	209.26
1744.272	209.92
1747.491	211.84
1750.709	212.05
1753.927	211.96
1757.144	211.88
1760.361	212.36
1763.578	212.39
1766.795	211.87
1770.011	213.76
1773.227	213.82
1776.443	216.56
1779.658	217.47
1782.874	217.16
1786.089	218.1
1789.303	218.95
1792.518	221.23
1795.732	220.96
1798.945	224.02
1802.159	224.08
1805.372	224.46
1808.585	228.34
1811.797	229.07
1815.01	229.35
1818.222	231.11
1821.434	232.49
1824.645	232.95
1827.856	237.14
1831.067	239.44
1834.278	238.04
1837.488	239.76
1840.698	241.63
1843.908	239.26
1847.117	240.75
1850.326	242.29
1853.535	241.42
1856.744	245.52
1859.952	245.85
1863.16	244.03
1866.368	241.85
1869.575	245.56
1872.782	241.45
1875.989	241.68
1879.196	240.95
1882.402	239.43
1885.608	240.13
1888.814	241.34
1892.019	240.92
1895.224	240.15
1898.429	239.1
1901.634	241.36
1904.838	241.02
1908.042	244.87
1911.246	244.78
1914.449	246.57
1917.652	246.82
1920.855	247.24
1924.058	246.04
1927.26	244.73
1930.462	246.05
1933.664	249.03
1936.865	247.36
1940.066	247.12
1943.267	245.26
1946.467	244.96
1949.668	246.39
1952.868	250.08
1956.067	249.39
1959.267	250.39
1962.466	251.21
1965.665	249.56
1968.863	250.09
1972.061	253.62
1975.259	255.39
1978.457	257.3
1981.654	260.27
1984.852	260.42
1988.048	259.07
1991.245	261.19
1994.441	264.39
1997.637	265.75
2000.833	271.89
2004.028	275.53
2007.223	275.34
2010.418	278.3
2013.613	283.34
2016.807	285.4
2020.001	288.59
2023.194	293.03
2026.388	300.45
2029.581	305.84
2032.774	309.42
2035.966	314.87
2039.158	314.86
2042.35	322.37
2045.542	325.04
2048.733	329.49
2051.924	334.52
2055.115	339.33
2058.306	339.84
2061.496	342.76
2064.686	343.48
2067.875	348.84
2071.065	350.42
2074.254	349.37
2077.442	352.7
2080.631	354.38
2083.819	358.24
2087.007	356.89
2090.195	362.73
2093.382	365.37
2096.569	362.96
2099.756	368.8
2102.942	369.69
2106.128	372.07
2109.314	380.4
2112.5	379.75
2115.685	387.84
2118.87	388.34
2122.055	398.15
2125.239	400.03
2128.424	405.28
2131.608	408.42
2134.791	414.66
2137.974	416.3
2141.157	417.58
2144.34	418.7
2147.523	425.46
2150.705	422.02
2153.887	426.65
2157.068	426.38
2160.25	421.6
2163.431	425.05
2166.611	429.01
2169.792	437.39
2172.972	441.45
2176.152	444.47
2179.331	450.23
2182.511	457.27
2185.69	463.38
2188.868	471.95
2192.047	472.88
2195.225	487.49
2198.403	498.92
2201.58	509.27
2204.758	516.69
2207.935	529.04
2211.111	539.86
2214.288	545.73
2217.464	547.74
2220.64	555.49
2223.815	563.86
2226.991	588.03
2230.166	588.67
2233.34	597.88
2236.515	607.79
2239.689	609.53
2242.863	612.74
2246.036	630.34
2249.209	624.86
2252.382	636.37
2255.555	654.73
2258.727	657.14
2261.9	658.82
2265.071	666.16
2268.243	677.68
2271.414	685.72
2274.585	701
2277.756	708.79
2280.926	713.17
2284.096	730.71
2287.266	747.26
2290.436	752.02
2293.605	769.83
2296.774	793.47
2299.942	816.75
2303.111	820.18
2306.279	839.32
2309.447	852.18
2312.614	874.68
2315.781	897.15
2318.948	942.28
2322.115	926.34
2325.281	977.91
2328.447	956.27
2331.613	999.44
2334.779	989.58
2337.944	1034.62
2341.109	1043.87
2344.274	1067.98
2347.438	1107.05
2350.602	1107.18
2353.766	1138.78
2356.929	1155.13
2360.092	1147.8
2363.255	1231.78
2366.418	1225.28
2369.58	1251.55
2372.742	1327.38
2375.904	1361.45
2379.066	1355.7
2382.227	1324.41
2385.388	1439.05
2388.548	1441.32
2391.709	1458.99
2394.869	1624.05
2398.029	1558.34
2401.188	1600.4
2404.347	1587.81
2407.506	1561.14
2410.665	1606.59
2413.823	1703.9
2416.981	1805.96
2420.139	1743.87
2423.296	1726.08
2426.453	1801.62
2429.61	1733.47
2432.767	1807.54
2435.923	1792.36
2439.079	1961.1
2442.235	1988.61
2445.391	1967.16
2448.546	1957.41
2451.701	1902.07
2454.855	1901.18
2458.009	2013.73
2461.163	2094.67
2464.317	2176.24
2467.471	2235.37
2470.624	2239.25
2473.777	2176.32
2476.929	2120.03
2480.082	2064.01
2483.234	2036.12
2486.385	2138.98
2489.537	2151.34
2492.688	2230.46
2495.839	2169.21
2498.989	2122.01
2502.14	2130
2505.29	2152.96
2508.439	2193.68
2511.589	2188.03
2514.738	2385.02
2517.887	2332.42
2521.035	2469.12
2524.183	2492.31
2527.331	2509.93
2530.479	2504.46
2533.627	2521.29
