Data from C_2_DEC_OH_4N_Splice17_13-05-43-289.txt Node
Date: Sat Mar 07 13:05:43 EST 2020
User: sa697716
Spectrometer: NQ5500242
Trigger mode: 0
Integration Time (sec): 1.450000E-1
Scans to average: 20
Nonlinearity correction enabled: false
Boxcar width: 5
Storing dark spectrum: false
XAxis mode: Wavelengths
Number of Pixels in Spectrum: 512
>>>>>Begin Spectral Data<<<<<
187.83	195.47
188.298	214.87
188.766	196.05
189.233	161
189.701	171.33
190.169	204.06
190.636	233.53
191.104	367.26
191.571	426.45
192.039	230.87
192.506	497.47
192.974	-8.68
193.441	119.59
193.908	11.86
194.375	44.89
194.842	27.93
195.31	70.31
195.777	198.11
196.244	59.28
196.711	42.77
197.177	43.09
197.644	41.14
198.111	40.15
198.578	40.02
199.045	40.58
199.511	39.95
199.978	39.51
200.445	39.79
200.911	39.61
201.378	39.31
201.844	39.5
202.31	38.86
202.777	38.64
203.243	38.53
203.709	37.93
204.176	37.4
204.642	37.15
205.108	37.03
205.574	36.69
206.04	36.12
206.506	35.99
206.972	35.79
207.438	35.45
207.903	35.04
208.369	34.38
208.835	33.98
209.301	33.23
209.766	32.19
210.232	31.18
210.697	29.98
211.163	29.07
211.628	28.01
212.094	27.03
212.559	26.46
213.024	25.79
213.49	25.1
213.955	24.21
214.42	23.58
214.885	22.92
215.35	22.09
215.815	21.13
216.28	19.47
216.745	17.66
217.21	15.81
217.675	14.09
218.14	12.56
218.604	11.28
219.069	10.19
219.534	9.24
219.998	8.5
220.463	7.88
220.927	7.25
221.392	6.82
221.856	6.48
222.32	6.16
222.785	5.92
223.249	5.7
223.713	5.5
224.177	5.34
224.642	5.17
225.106	4.97
225.57	4.81
226.034	4.69
226.497	4.59
226.961	4.47
227.425	4.37
227.889	4.25
228.353	4.14
228.816	4.04
229.28	3.95
229.744	3.88
230.207	3.82
230.671	3.74
231.134	3.66
231.597	3.61
232.061	3.56
232.524	3.5
232.987	3.43
233.45	3.41
233.914	3.35
234.377	3.29
234.84	3.24
235.303	3.19
235.766	3.16
236.229	3.12
236.691	3.06
237.154	3.02
237.617	2.99
238.08	2.96
238.542	2.9
239.005	2.9
239.468	2.87
239.93	2.84
240.393	2.82
240.855	2.78
241.317	2.75
241.78	2.73
242.242	2.69
242.704	2.67
243.166	2.63
243.629	2.62
244.091	2.57
244.553	2.54
245.015	2.51
245.477	2.48
245.939	2.46
246.4	2.43
246.862	2.4
247.324	2.38
247.786	2.35
248.247	2.32
248.709	2.29
249.17	2.25
249.632	2.24
250.093	2.23
250.555	2.19
251.016	2.17
251.477	2.14
251.939	2.12
252.4	2.1
252.861	2.08
253.322	2.06
253.783	2.04
254.244	2.03
254.705	2.01
255.166	1.98
255.627	1.98
256.088	1.96
256.549	1.96
257.009	1.94
257.47	1.92
257.931	1.89
258.391	1.87
258.852	1.85
259.312	1.82
259.773	1.8
260.233	1.79
260.694	1.76
261.154	1.74
261.614	1.71
262.074	1.69
262.534	1.67
262.994	1.67
263.455	1.65
263.915	1.63
264.374	1.61
264.834	1.6
265.294	1.58
265.754	1.57
266.214	1.55
266.673	1.54
267.133	1.53
267.593	1.52
268.052	1.51
268.512	1.51
268.971	1.5
269.431	1.49
269.89	1.49
270.349	1.49
270.809	1.48
271.268	1.47
271.727	1.47
272.186	1.47
272.645	1.46
273.104	1.45
273.563	1.44
274.022	1.44
274.481	1.43
274.94	1.43
275.399	1.42
275.857	1.42
276.316	1.42
276.775	1.41
277.233	1.41
277.692	1.41
278.15	1.42
278.609	1.42
279.067	1.41
279.525	1.41
279.984	1.41
280.442	1.41
280.9	1.41
281.358	1.41
281.816	1.42
282.274	1.42
282.732	1.42
283.19	1.41
283.648	1.41
284.106	1.42
284.564	1.42
285.021	1.43
285.479	1.43
285.937	1.42
286.394	1.42
286.852	1.42
287.309	1.42
287.767	1.42
288.224	1.41
288.682	1.41
289.139	1.39
289.596	1.39
290.053	1.37
290.511	1.35
290.968	1.35
291.425	1.34
291.882	1.33
292.339	1.32
292.796	1.31
293.252	1.3
293.709	1.3
294.166	1.3
294.623	1.29
295.079	1.29
295.536	1.3
295.992	1.29
296.449	1.29
296.905	1.29
297.362	1.28
297.818	1.28
298.274	1.28
298.731	1.27
299.187	1.27
299.643	1.26
300.099	1.26
300.555	1.25
301.011	1.24
301.467	1.24
301.923	1.23
302.379	1.24
302.835	1.24
303.291	1.24
303.746	1.24
304.202	1.24
304.658	1.25
305.113	1.25
305.569	1.25
306.024	1.27
306.479	1.27
306.935	1.27
307.39	1.27
307.845	1.27
308.301	1.28
308.756	1.27
309.211	1.28
309.666	1.29
310.121	1.29
310.576	1.29
311.031	1.3
311.486	1.3
311.94	1.31
312.395	1.3
312.85	1.31
313.305	1.31
313.759	1.32
314.214	1.32
314.668	1.31
315.123	1.32
315.577	1.32
316.032	1.31
316.486	1.31
316.94	1.31
317.394	1.31
317.849	1.3
318.303	1.3
318.757	1.29
319.211	1.29
319.665	1.27
320.119	1.27
320.572	1.26
321.026	1.26
321.48	1.26
321.934	1.24
322.387	1.24
322.841	1.24
323.295	1.25
323.748	1.25
324.202	1.25
324.655	1.25
325.108	1.26
325.562	1.26
326.015	1.26
326.468	1.26
326.921	1.26
327.374	1.27
327.827	1.27
328.28	1.27
328.733	1.27
329.186	1.27
329.639	1.27
330.092	1.28
330.545	1.28
330.997	1.28
331.45	1.29
331.903	1.29
332.355	1.3
332.808	1.3
333.26	1.29
333.713	1.29
334.165	1.29
334.617	1.3
335.069	1.29
335.522	1.29
335.974	1.3
336.426	1.3
336.878	1.3
337.33	1.29
337.782	1.3
338.234	1.31
338.686	1.32
339.137	1.32
339.589	1.31
340.041	1.32
340.493	1.32
340.944	1.3
341.396	1.3
341.847	1.29
342.299	1.28
342.75	1.28
343.201	1.26
343.653	1.25
344.104	1.24
344.555	1.24
345.006	1.23
345.457	1.23
345.908	1.23
346.359	1.23
346.81	1.24
347.261	1.23
347.712	1.23
348.163	1.23
348.613	1.24
349.064	1.25
349.515	1.25
349.965	1.25
350.416	1.24
350.866	1.25
351.317	1.23
351.767	1.24
352.217	1.24
352.668	1.25
353.118	1.25
353.568	1.23
354.018	1.24
354.468	1.25
354.918	1.25
355.368	1.26
355.818	1.26
356.268	1.27
356.718	1.26
357.168	1.26
357.617	1.25
358.067	1.25
358.517	1.27
358.966	1.27
359.416	1.27
359.865	1.27
360.315	1.28
360.764	1.29
361.213	1.28
361.663	1.28
362.112	1.3
362.561	1.31
363.01	1.31
363.459	1.29
363.908	1.28
364.357	1.28
364.806	1.28
365.255	1.28
365.703	1.29
366.152	1.29
366.601	1.29
367.05	1.29
367.498	1.29
367.947	1.29
368.395	1.31
368.844	1.32
369.292	1.31
369.74	1.32
370.189	1.32
370.637	1.32
371.085	1.31
371.533	1.31
371.981	1.31
372.429	1.31
372.877	1.31
373.325	1.31
373.773	1.29
374.221	1.29
374.669	1.28
375.116	1.28
375.564	1.27
376.012	1.27
376.459	1.28
376.907	1.28
377.354	1.28
377.801	1.28
378.249	1.28
378.696	1.28
379.143	1.28
379.591	1.29
380.038	1.29
380.485	1.29
380.932	1.29
381.379	1.3
381.826	1.3
382.273	1.3
382.72	1.28
383.166	1.29
383.613	1.29
384.06	1.29
384.506	1.28
384.953	1.28
385.4	1.27
385.846	1.28
386.292	1.27
386.739	1.26
387.185	1.27
387.631	1.27
388.078	1.27
388.524	1.27
388.97	1.28
389.416	1.29
389.862	1.3
390.308	1.31
390.754	1.32
391.2	1.33
391.645	1.33
392.091	1.34
392.537	1.35
392.983	1.35
393.428	1.36
393.874	1.36
394.319	1.38
394.765	1.39
395.21	1.39
395.655	1.39
396.101	1.4
396.546	1.41
396.991	1.42
397.436	1.43
397.881	1.45
398.326	1.46
398.771	1.47
399.216	1.48
399.661	1.49
400.106	1.51
400.551	1.53
400.995	1.54
401.44	1.55
401.885	1.56
402.329	1.59
402.774	1.59
403.218	1.6
403.663	1.62
404.107	1.63
404.551	1.64
404.995	1.65
405.44	1.65
405.884	1.65
406.328	1.67
406.772	1.67
407.216	1.68
407.66	1.69
408.104	1.69
408.547	1.7
408.991	1.71
409.435	1.71
409.879	1.72
410.322	1.74
410.766	1.76
411.209	1.77
411.653	1.79
412.096	1.82
412.54	1.84
412.983	1.86
413.426	1.9
413.869	1.93
414.312	1.97
414.756	1.99
415.199	2
415.642	2.01
416.085	2.02
416.527	2.02
416.97	2.02
417.413	2.01
417.856	2.01
418.298	2.01
418.741	2
419.184	2
419.626	2.01
420.069	2.01
420.511	2.02
420.953	2.03
421.396	2.05
421.838	2.06
422.28	2.08
422.722	2.11
423.164	2.11
423.606	2.12
424.048	2.13
424.49	2.13
424.932	2.13
425.374	2.13
425.816	2.12
426.258	2.11
426.699	2.11
427.141	2.1
427.582	2.1
428.024	2.12
428.465	2.13
428.907	2.14
429.348	2.13
429.789	2.14
430.231	2.16
430.672	2.18
431.113	2.21
431.554	2.23
431.995	2.25
432.436	2.26
432.877	2.28
433.318	2.3
433.759	2.32
434.2	2.36
434.64	2.37
435.081	2.39
435.522	2.41
435.962	2.43
436.403	2.45
436.843	2.46
437.284	2.46
437.724	2.47
438.164	2.46
438.604	2.47
439.045	2.48
439.485	2.48
439.925	2.48
440.365	2.48
440.805	2.49
441.245	2.5
441.685	2.52
442.125	2.54
442.564	2.56
443.004	2.56
443.444	2.58
443.883	2.59
444.323	2.59
444.762	2.6
445.202	2.61
445.641	2.63
446.081	2.64
446.52	2.64
446.959	2.66
447.398	2.68
447.837	2.7
448.276	2.7
448.716	2.72
449.154	2.74
449.593	2.75
450.032	2.77
450.471	2.76
450.91	2.76
451.349	2.77
451.787	2.75
452.226	2.74
452.664	2.74
453.103	2.73
453.541	2.73
453.98	2.73
454.418	2.72
454.856	2.71
455.295	2.7
455.733	2.68
456.171	2.68
456.609	2.69
457.047	2.69
457.485	2.68
457.923	2.68
458.361	2.68
458.798	2.68
459.236	2.68
459.674	2.69
460.111	2.69
460.549	2.71
460.987	2.71
461.424	2.72
461.862	2.73
462.299	2.74
462.736	2.76
463.173	2.77
463.611	2.78
464.048	2.8
464.485	2.8
464.922	2.82
465.359	2.82
465.796	2.84
466.233	2.86
466.67	2.87
467.106	2.88
467.543	2.88
467.98	2.87
468.416	2.88
468.853	2.88
469.29	2.88
469.726	2.87
470.162	2.87
470.599	2.86
471.035	2.84
471.471	2.84
471.907	2.84
472.344	2.86
472.78	2.86
473.216	2.86
473.652	2.86
474.088	2.85
474.523	2.86
474.959	2.86
475.395	2.85
475.831	2.86
476.266	2.87
476.702	2.87
477.138	2.85
477.573	2.85
478.008	2.85
478.444	2.84
478.879	2.86
479.314	2.85
479.75	2.86
480.185	2.86
480.62	2.85
481.055	2.85
481.49	2.84
481.925	2.85
482.36	2.85
482.795	2.85
483.229	2.86
483.664	2.86
484.099	2.86
484.534	2.85
484.968	2.87
485.403	2.87
485.837	2.89
486.271	2.9
486.706	2.91
487.14	2.92
487.574	2.93
488.009	2.94
488.443	2.95
488.877	2.97
489.311	3
489.745	3.02
490.179	3.05
490.613	3.08
491.046	3.1
491.48	3.13
491.914	3.15
492.348	3.18
492.781	3.22
493.215	3.25
493.648	3.29
494.082	3.33
494.515	3.35
494.948	3.39
495.382	3.42
495.815	3.47
496.248	3.51
496.681	3.57
497.114	3.61
497.547	3.66
497.98	3.72
498.413	3.77
498.846	3.82
499.279	3.88
499.711	3.94
500.144	3.99
500.577	4.05
501.009	4.11
501.442	4.17
501.874	4.24
502.306	4.3
502.739	4.37
503.171	4.43
503.603	4.5
504.036	4.58
504.468	4.64
504.9	4.71
505.332	4.78
505.764	4.86
506.196	4.95
506.627	5.03
507.059	5.12
507.491	5.18
507.923	5.28
508.354	5.37
508.786	5.46
509.217	5.56
509.649	5.65
510.08	5.74
510.512	5.84
510.943	5.91
511.374	6
511.805	6.09
512.237	6.17
512.668	6.26
513.099	6.34
513.53	6.42
513.961	6.51
514.391	6.6
514.822	6.69
515.253	6.76
515.684	6.85
516.114	6.93
516.545	7.01
516.975	7.09
517.406	7.18
517.836	7.25
518.267	7.33
518.697	7.4
519.127	7.46
519.558	7.52
519.988	7.59
520.418	7.65
520.848	7.71
521.278	7.78
521.708	8.01
522.138	8.07
522.567	8.13
522.997	8.18
523.427	8.22
523.857	8.26
524.286	8.3
524.716	8.34
525.145	8.38
525.575	8.41
526.004	8.45
526.433	8.29
526.863	8.32
527.292	8.35
527.721	8.38
528.15	8.41
528.579	8.44
529.008	8.46
529.437	8.49
529.866	8.5
530.295	8.52
530.724	8.54
531.152	8.57
531.581	8.6
532.01	8.61
532.438	8.62
532.867	8.64
533.295	8.65
533.723	8.67
534.152	8.68
534.58	8.71
535.008	8.72
535.436	8.74
535.865	8.74
536.293	8.74
536.721	8.74
537.149	8.75
537.576	8.76
538.004	8.77
538.432	8.78
538.86	8.78
539.287	8.76
539.715	8.78
540.143	8.78
540.57	8.78
540.998	8.79
541.425	8.8
541.852	8.8
542.28	8.82
542.707	8.82
543.134	8.82
543.561	8.85
543.988	8.87
544.415	8.88
544.842	8.89
545.269	8.92
545.696	8.92
546.123	8.94
546.549	8.94
546.976	8.95
547.403	8.98
547.829	9
548.256	9.01
548.682	9.02
549.108	9.04
549.535	9.05
549.961	9.06
550.387	9.08
550.813	9.09
551.24	9.11
551.666	9.13
552.092	9.13
552.518	9.14
552.943	9.15
553.369	9.17
553.795	9.17
554.221	9.2
554.646	9.19
555.072	9.21
555.498	9.21
555.923	9.22
556.349	9.22
556.774	9.24
557.199	9.25
557.625	9.26
558.05	9.26
558.475	9.27
558.9	9.28
559.325	9.31
559.75	9.32
560.175	9.33
560.6	9.34
561.025	9.35
561.449	9.36
561.874	9.35
562.299	9.36
562.723	9.37
563.148	9.36
563.572	9.35
563.997	9.34
564.421	9.32
564.846	9.31
565.27	9.31
565.694	9.3
566.118	9.29
566.542	9.3
566.966	9.28
567.39	9.28
567.814	9.28
568.238	9.28
568.662	9.28
569.086	9.29
569.509	9.3
569.933	9.31
570.357	9.31
570.78	9.31
571.204	9.31
571.627	9.32
572.05	9.31
572.474	9.32
572.897	9.34
573.32	9.35
573.743	9.34
574.166	9.34
574.589	9.34
575.012	9.35
575.435	9.36
575.858	9.36
576.281	9.37
576.704	9.38
577.126	9.4
577.549	9.41
577.972	9.42
578.394	9.43
578.817	9.44
579.239	9.46
579.661	9.47
580.084	9.49
580.506	9.51
580.928	9.52
581.35	9.55
581.772	9.56
582.194	9.56
582.616	9.57
583.038	9.6
583.46	9.61
583.882	9.62
584.303	9.63
584.725	9.63
585.147	9.66
585.568	9.68
585.99	9.7
586.411	9.71
586.833	9.73
587.254	9.75
587.675	9.77
588.096	9.79
588.518	9.81
588.939	9.85
589.36	9.87
589.781	9.88
590.202	9.93
590.623	9.95
591.043	9.97
591.464	10.01
591.885	10.03
592.305	10.05
592.726	10.09
593.147	10.12
593.567	10.16
593.987	10.18
594.408	10.22
594.828	10.23
595.248	10.26
595.669	10.3
596.089	10.33
596.509	10.38
596.929	10.41
597.349	10.44
597.769	10.48
598.189	10.51
598.608	10.55
599.028	10.59
599.448	10.63
599.867	10.66
600.287	10.7
600.706	10.75
601.126	10.79
601.545	10.84
601.965	10.89
602.384	10.93
602.803	10.96
603.222	11.01
603.641	11.05
604.061	11.09
604.48	11.14
604.898	11.16
605.317	11.2
605.736	11.24
606.155	11.28
606.574	11.31
606.992	11.33
607.411	11.38
607.829	11.39
608.248	11.41
608.666	11.44
609.085	11.48
609.503	11.52
609.921	11.55
610.339	11.58
610.758	11.61
611.176	11.64
611.594	11.68
612.012	11.69
612.43	11.73
612.847	11.77
613.265	11.8
613.683	11.83
614.101	11.85
614.518	11.87
614.936	11.89
615.353	11.9
615.771	11.92
616.188	11.93
616.606	11.96
617.023	11.99
617.44	12.02
617.857	12.04
618.274	12.05
618.691	12.08
619.108	12.11
619.525	12.14
619.942	12.18
620.359	12.23
620.776	12.28
621.192	12.32
621.609	12.35
622.026	12.39
622.442	12.43
622.859	12.47
623.275	12.52
623.691	12.56
624.108	12.61
624.524	12.66
624.94	12.7
625.356	12.75
625.772	12.8
626.188	12.86
626.604	12.92
627.02	12.97
627.436	13.02
627.852	13.06
628.268	13.11
628.683	13.15
629.099	13.19
629.514	13.22
629.93	13.25
630.345	13.26
630.761	13.28
631.176	13.29
631.591	13.29
632.007	13.29
632.422	13.28
632.837	13.27
633.252	13.24
633.667	13.2
634.082	13.16
634.497	13.11
634.911	13.05
635.326	12.97
635.741	12.89
636.155	12.8
636.57	12.71
636.984	12.61
637.399	12.5
637.813	12.4
638.228	12.27
638.642	12.13
639.056	11.98
639.47	11.85
639.884	11.72
640.298	11.57
640.712	11.42
641.126	11.26
641.54	11.09
641.954	10.92
642.368	10.78
642.781	10.63
643.195	10.49
643.609	10.35
644.022	10.21
644.436	10.07
644.849	9.94
645.262	9.8
645.676	9.68
646.089	9.58
646.502	9.48
646.915	9.4
647.328	9.32
647.741	9.23
648.154	9.16
648.567	9.11
648.98	9.05
649.393	9
649.805	8.95
650.218	8.92
650.631	8.89
651.043	8.85
651.456	8.81
651.868	8.78
652.28	8.75
652.693	8.72
653.105	8.68
653.517	8.65
653.929	8.62
654.341	8.59
654.753	8.53
655.165	8.48
655.577	8.42
655.989	8.35
656.401	8.27
656.813	8.2
657.224	8.11
657.636	8
658.047	7.91
658.459	7.81
658.87	7.7
659.282	7.59
659.693	7.48
660.104	7.36
660.515	7.25
660.926	7.13
661.338	7.02
661.749	6.91
662.159	6.79
662.57	6.69
662.981	6.58
663.392	6.46
663.803	6.36
664.213	6.25
664.624	6.15
665.035	6.05
665.445	5.96
665.855	5.87
666.266	5.79
666.676	5.72
667.086	5.63
667.497	5.56
667.907	5.5
668.317	5.44
668.727	5.39
669.137	5.34
669.547	5.3
669.956	5.26
670.366	5.21
670.776	5.18
671.186	5.15
671.595	5.13
672.005	5.11
672.414	5.09
672.824	5.08
673.233	5.06
673.642	5.06
674.052	5.05
674.461	5.05
674.87	5.07
675.279	5.08
675.688	5.1
676.097	5.13
676.506	5.16
676.915	5.19
677.323	5.25
677.732	5.29
678.141	5.36
678.549	5.43
678.958	5.52
679.366	5.62
679.775	5.74
680.183	5.88
680.592	6.03
681	6.22
681.408	6.41
681.816	6.64
682.224	6.9
682.632	7.19
683.04	7.49
683.448	7.83
683.856	8.21
684.264	8.61
684.671	9.05
685.079	9.52
685.487	10.02
685.894	10.57
686.302	11.13
686.709	11.71
687.116	12.33
687.524	12.99
687.931	13.66
688.338	14.35
688.745	15.06
689.152	15.77
689.559	16.51
689.966	17.25
690.373	18
690.78	18.75
691.187	19.5
691.593	20.25
692	20.98
692.407	21.68
692.813	22.4
693.22	23.11
693.626	23.8
694.032	24.47
694.439	25.11
694.845	25.77
695.251	26.4
695.657	27
696.063	27.59
696.469	28.18
696.875	28.76
697.281	29.3
697.687	29.84
698.093	30.38
698.498	30.87
698.904	31.35
699.31	31.8
699.715	32.25
700.12	32.68
700.526	33.1
700.931	33.5
701.337	33.89
701.742	34.26
702.147	34.61
702.552	34.95
702.957	35.26
703.362	35.59
703.767	35.89
704.172	36.17
704.577	36.44
704.981	36.72
705.386	36.99
705.791	37.25
706.195	37.52
706.6	37.77
707.004	38
707.408	38.25
707.813	38.48
708.217	38.71
708.621	38.94
709.025	39.14
709.43	39.33
709.834	39.54
710.237	39.73
710.641	39.92
711.045	40.06
711.449	40.27
711.853	40.46
712.256	40.64
712.66	40.78
713.064	40.94
713.467	41.11
713.87	41.29
714.274	41.43
714.677	41.56
715.08	41.7
715.484	41.87
715.887	42
716.29	42.1
716.693	42.23
717.096	42.37
717.499	42.49
717.901	42.63
718.304	42.72
718.707	42.86
719.109	42.99
719.512	43.09
719.915	43.19
720.317	43.26
720.719	43.36
721.122	43.46
721.524	43.55
721.926	43.66
722.328	43.73
722.731	43.81
723.133	43.88
723.535	43.96
723.937	44.03
724.338	44.1
724.74	44.18
725.142	44.35
725.544	44.42
725.945	44.52
726.347	44.56
726.748	44.62
727.15	44.68
727.551	44.76
727.952	44.81
728.354	44.87
728.755	44.91
729.156	44.99
729.557	44.92
729.958	44.95
730.359	44.97
730.76	45.03
731.161	45.07
731.562	45.12
731.962	45.13
732.363	45.16
732.763	45.19
733.164	45.25
733.564	45.28
733.965	45.29
734.365	45.35
734.766	45.37
735.166	45.4
735.566	45.44
735.966	45.48
736.366	45.51
736.766	45.52
737.166	45.58
737.566	45.58
737.966	45.59
738.365	45.63
738.765	45.65
739.165	45.68
739.564	45.7
739.964	45.71
740.363	45.71
740.763	45.7
741.162	45.74
741.561	45.75
741.96	45.74
742.36	45.76
742.759	45.77
743.158	45.78
743.557	45.8
743.955	45.82
744.354	45.85
744.753	45.88
745.152	45.95
745.55	45.96
745.949	45.99
746.348	46.03
746.746	46.03
747.144	46.07
747.543	46.09
747.941	46.08
748.339	46.07
748.737	46.08
749.136	46.08
749.534	46.05
749.932	46.04
750.33	46.02
750.727	46.03
751.125	46.04
751.523	46.04
751.921	46.04
752.318	46.05
752.716	46.06
753.113	46.06
753.511	46.08
753.908	46.12
754.305	46.15
754.703	46.17
755.1	46.18
755.497	46.2
755.894	46.19
756.291	46.2
756.688	46.19
757.085	46.2
757.482	46.19
757.878	46.19
758.275	46.18
758.672	46.16
759.068	46.17
759.465	46.17
759.861	46.2
760.258	46.21
760.654	46.2
761.05	46.21
761.447	46.21
761.843	46.23
762.239	46.22
762.635	46.19
763.031	46.22
763.427	46.19
763.822	46.2
764.218	46.18
764.614	46.2
765.01	46.2
765.405	46.19
765.801	46.18
766.196	46.18
766.592	46.19
766.987	46.21
767.382	46.19
767.778	46.21
768.173	46.21
768.568	46.2
768.963	46.17
769.358	46.19
769.753	46.19
770.148	46.21
770.542	46.21
770.937	46.19
771.332	46.18
771.726	46.16
772.121	46.14
772.515	46.15
772.91	46.15
773.304	46.16
773.699	46.16
774.093	46.15
774.487	46.15
774.881	46.17
775.275	46.17
775.669	46.17
776.063	46.19
776.457	46.2
776.851	46.17
777.245	46.16
777.638	46.14
778.032	46.13
778.425	46.17
778.819	46.15
779.212	46.15
779.606	46.16
779.999	46.15
780.392	46.16
780.786	46.14
781.179	46.16
781.572	46.19
781.965	46.2
782.358	46.22
782.751	46.21
783.143	46.22
783.536	46.19
783.929	46.2
784.322	46.23
784.714	46.23
785.107	46.25
785.499	46.24
785.891	46.24
786.284	46.26
786.676	46.27
787.068	46.28
787.46	46.29
787.852	46.3
788.245	46.27
788.636	46.26
789.028	46.25
789.42	46.26
789.812	46.28
790.204	46.29
790.595	46.28
790.987	46.23
791.378	46.24
791.77	46.23
792.161	46.23
792.553	46.23
792.944	46.21
793.335	46.22
793.726	46.21
794.117	46.18
794.508	46.12
794.899	46.12
795.29	46.14
795.681	46.09
796.072	46.1
796.463	46.11
796.853	46.12
797.244	46.14
797.634	46.11
798.025	46.12
798.415	46.1
798.806	46.13
799.196	46.12
799.586	46.11
799.976	46.1
800.366	46.1
800.756	46.08
801.146	46.07
801.536	46.05
801.926	46.05
802.316	46.02
802.706	46.05
803.095	46.06
803.485	46.05
803.874	46.06
804.264	46.06
804.653	46.07
805.043	46.06
805.432	46.05
805.821	46.06
806.21	46.06
806.599	46.06
806.988	46.03
807.377	46
807.766	46
808.155	45.96
808.544	45.95
808.933	45.91
809.321	45.89
809.71	45.89
810.098	45.88
810.487	45.86
810.875	45.84
811.264	45.83
811.652	45.83
812.04	45.82
812.428	45.85
812.816	45.84
813.204	45.84
813.592	45.84
813.98	45.84
814.368	45.83
814.756	45.83
815.144	45.82
815.531	45.81
815.919	45.78
816.306	45.76
816.694	45.71
817.081	45.72
817.469	45.72
817.856	45.71
818.243	45.68
818.63	45.65
819.017	45.62
819.404	45.61
819.791	45.58
820.178	45.59
820.565	45.56
820.952	45.56
821.339	45.53
821.725	45.54
822.112	45.54
822.498	45.55
822.885	45.54
823.271	45.53
823.657	45.5
824.044	45.52
824.43	45.52
824.816	45.53
825.202	45.5
825.588	45.47
825.974	45.44
826.36	45.44
826.746	45.41
827.132	45.44
827.517	45.45
827.903	45.47
828.289	45.48
828.674	45.46
829.06	45.46
829.445	45.47
829.83	45.48
830.216	45.44
830.601	45.44
830.986	45.42
831.371	45.41
831.756	45.4
832.141	45.38
832.526	45.36
832.911	45.37
833.295	45.36
833.68	45.37
834.065	45.37
834.449	45.36
834.834	45.35
835.218	45.36
835.603	45.32
835.987	45.31
836.371	45.3
836.755	45.27
837.139	45.25
837.524	45.24
837.908	45.24
838.291	45.24
838.675	45.27
839.059	45.26
839.443	45.25
839.827	45.25
840.21	45.24
840.594	45.24
840.977	45.25
841.361	45.25
841.744	45.24
842.127	45.21
842.511	45.19
842.894	45.17
843.277	45.16
843.66	45.14
844.043	45.14
844.426	45.13
844.809	45.12
845.191	45.12
845.574	45.1
845.957	45.1
846.339	45.11
846.722	45.1
847.104	45.11
847.487	45.09
847.869	45.11
848.252	45.09
848.634	45.11
849.016	45.14
849.398	45.14
849.78	45.16
850.162	45.15
850.544	45.15
850.926	45.15
851.307	45.16
851.689	45.15
852.071	45.15
852.452	45.15
852.834	45.15
853.215	45.12
853.597	45.1
853.978	45.08
854.359	45.09
854.741	45.08
855.122	45.05
855.503	45.04
855.884	45.04
856.265	45.04
856.646	45.01
857.026	45.02
857.407	45
857.788	44.99
858.169	44.99
858.549	44.97
858.93	44.95
859.31	44.96
859.69	44.95
860.071	44.95
860.451	44.91
860.831	44.92
861.211	44.89
861.591	44.9
861.971	44.9
862.351	44.92
862.731	44.92
863.111	44.91
863.491	44.91
863.87	44.9
864.25	44.89
864.629	44.91
865.009	44.91
865.388	44.89
865.768	44.88
866.147	44.88
866.526	44.87
866.905	44.87
867.284	44.88
867.663	44.87
868.042	44.88
868.421	44.9
868.8	44.9
869.179	44.91
869.558	44.91
869.936	44.92
870.315	44.91
870.693	44.91
871.072	44.9
871.45	44.89
871.828	44.9
872.207	44.89
872.585	44.85
872.963	44.86
873.341	44.84
873.719	44.85
874.097	44.83
874.475	44.83
874.853	44.82
875.23	44.82
875.608	44.82
875.986	44.83
876.363	44.84
876.741	44.86
877.118	44.83
877.495	44.85
877.873	44.84
878.25	44.86
878.627	44.88
879.004	44.88
879.381	44.88
879.758	44.88
880.135	44.85
880.512	44.84
880.889	44.85
881.265	44.84
881.642	44.84
882.019	44.85
882.395	44.82
882.772	44.81
883.148	44.79
883.524	44.79
883.901	44.79
884.277	44.77
884.653	44.73
885.029	44.73
885.405	44.73
885.781	44.72
886.157	44.72
886.532	44.72
886.908	44.69
887.284	44.69
887.659	44.66
888.035	44.66
888.411	44.67
888.786	44.69
889.161	44.67
889.537	44.68
889.912	44.66
890.287	44.64
890.662	44.63
891.037	44.62
891.412	44.6
891.787	44.58
892.162	44.57
892.536	44.57
892.911	44.55
893.286	44.56
893.66	44.53
894.035	44.53
894.409	44.5
894.784	44.49
895.158	44.5
895.532	44.51
895.906	44.52
896.281	44.51
896.655	44.48
897.029	44.48
897.402	44.44
897.776	44.46
898.15	44.47
898.524	44.49
898.898	44.5
899.271	44.49
899.645	44.49
900.018	44.5
900.392	44.52
900.765	44.55
901.138	44.55
901.511	44.58
901.884	44.57
902.258	44.57
902.631	44.56
903.003	44.57
903.376	44.6
903.749	44.6
904.122	44.6
904.495	44.6
904.867	44.62
905.24	44.65
905.612	44.68
905.985	44.65
906.357	44.65
906.729	44.67
907.102	44.67
907.474	44.7
907.846	44.72
908.218	44.73
908.59	44.76
908.962	44.74
909.334	44.73
909.705	44.72
910.077	44.75
910.449	44.75
910.82	44.75
911.192	44.76
911.563	44.72
911.935	44.71
912.306	44.72
912.677	44.7
913.048	44.73
913.419	44.72
913.79	44.7
914.161	44.74
914.532	44.76
914.903	44.78
915.274	44.78
915.645	44.8
916.015	44.79
916.386	44.79
916.756	44.77
917.127	44.78
917.497	44.79
917.868	44.83
918.238	44.8
918.608	44.82
918.978	44.78
919.348	44.77
919.718	44.76
920.088	44.76
920.458	44.73
920.828	44.7
921.198	44.67
921.567	44.66
921.937	44.63
922.306	44.61
922.676	44.59
923.045	44.56
923.415	44.54
923.784	44.52
924.153	44.55
924.522	44.56
924.891	44.59
925.26	44.59
925.629	44.6
925.998	44.59
926.367	44.6
926.736	44.58
927.104	44.62
927.473	44.61
927.842	44.62
928.21	44.59
928.578	44.57
928.947	44.55
929.315	44.51
929.683	44.5
930.051	44.47
930.42	44.46
930.788	44.45
931.156	44.42
931.523	44.44
931.891	44.45
932.259	44.47
932.627	44.48
932.994	44.49
933.362	44.5
933.729	44.5
934.097	44.52
934.464	44.54
934.831	44.51
935.199	44.49
935.566	44.49
935.933	44.44
936.3	44.43
936.667	44.42
937.034	44.44
937.401	44.43
937.767	44.41
938.134	44.38
938.501	44.33
938.867	44.38
939.234	44.41
939.6	44.32
939.967	44.29
940.333	44.22
940.699	44.13
941.065	43.99
941.431	43.98
941.798	43.9
942.163	43.85
942.529	43.82
942.895	43.74
943.261	43.65
943.627	43.64
943.992	43.65
944.358	43.58
944.723	43.65
945.089	43.57
945.454	43.56
945.82	43.52
946.185	43.52
946.55	43.45
946.915	43.44
947.28	43.45
947.645	43.49
948.01	43.47
948.375	43.45
948.74	43.39
949.104	43.48
949.469	43.44
949.834	43.42
950.198	43.41
950.562	43.43
950.927	43.42
951.291	43.33
951.655	43.25
952.02	43.24
952.384	43.29
952.748	43.31
953.112	43.27
953.476	43.24
953.839	43.28
954.203	43.29
954.567	43.3
954.931	43.26
955.294	43.31
955.658	43.41
956.021	43.42
956.385	43.43
956.748	43.39
957.111	43.39
957.474	43.4
957.837	43.4
958.2	43.39
958.563	43.4
958.926	43.43
959.289	43.48
959.652	43.46
960.015	43.44
960.377	43.42
960.74	43.48
961.102	43.5
961.465	43.59
961.827	43.69
962.189	43.75
962.552	43.73
962.914	43.75
963.276	43.75
963.638	43.77
964	43.81
964.362	43.85
964.724	43.82
965.085	43.81
965.447	43.8
965.809	43.71
966.17	43.66
966.532	43.66
966.893	43.69
967.255	43.69
967.616	43.67
967.977	43.71
968.338	43.73
968.699	43.75
969.061	43.8
969.421	43.82
969.782	43.88
970.143	43.91
970.504	43.96
970.865	43.98
971.225	44.01
971.586	44
971.946	43.97
972.307	43.98
972.667	44
973.027	44.03
973.388	44.02
973.748	44.01
974.108	44.08
974.468	44.09
974.828	44.12
975.188	44.12
975.548	44.13
975.907	44.16
976.267	44.14
976.627	44.1
976.986	44.08
977.346	44.04
977.705	44
978.064	43.99
978.424	44.03
978.783	44
979.142	44.03
979.501	44.08
979.86	44.13
980.219	44.2
980.578	44.27
980.937	44.32
981.296	44.3
981.654	44.34
982.013	44.39
982.371	44.4
982.73	44.4
983.088	44.38
983.447	44.41
983.805	44.37
984.163	44.31
984.521	44.33
984.879	44.25
985.237	44.3
985.595	44.38
985.953	44.3
986.311	44.19
986.669	44.23
987.026	44.27
987.384	44.28
987.741	44.25
988.099	44.35
988.456	44.34
988.814	44.37
989.171	44.38
989.528	44.31
989.885	44.35
990.242	44.39
990.599	44.37
990.956	44.33
991.313	44.37
991.67	44.42
992.027	44.55
992.383	44.53
992.74	44.62
993.096	44.68
993.453	44.68
993.809	44.64
994.165	44.77
994.522	44.89
994.878	44.9
995.234	44.88
995.59	44.88
995.946	44.77
996.302	44.83
996.658	44.78
997.013	44.78
997.369	44.84
997.725	45.02
998.08	44.97
998.436	44.94
998.791	44.99
999.147	44.91
999.502	44.94
999.857	44.88
1000.212	44.82
1000.567	44.89
1000.922	44.8
1001.277	44.81
1001.632	44.62
1001.987	44.66
1002.342	44.57
1002.696	44.58
1003.051	44.71
1003.406	44.78
1003.76	44.74
1004.114	44.79
1004.469	44.81
1004.823	45.17
1005.177	45.1
1005.531	45.17
1005.885	45.2
1006.239	45.31
1006.593	45.38
1006.947	45.42
1007.301	45.29
1007.655	45.41
1008.008	45.45
1008.362	45.54
1008.715	45.38
1009.069	45.53
1009.422	45.6
1009.776	45.64
1010.129	45.64
1010.482	45.71
1010.835	45.76
1011.188	45.95
1011.541	45.88
1011.894	46.01
1012.247	45.86
1012.6	45.84
1012.952	45.83
1013.305	45.89
1013.657	45.82
1014.01	45.88
1014.362	45.7
1014.715	45.79
1015.067	45.76
1015.419	45.98
1015.771	45.97
1016.123	46.08
1016.475	46.17
1016.827	46.3
1017.179	46.4
1017.531	46.35
1017.883	46.22
1018.234	46.61
1018.586	46.63
1018.938	46.67
1019.289	46.51
1019.64	46.39
1019.992	46.24
1020.343	46.12
1020.694	45.97
1021.045	45.79
1021.396	45.87
1021.747	46.21
1022.098	45.96
1022.449	45.81
1022.8	45.88
1023.151	45.8
1023.501	45.84
1023.852	45.98
1024.202	45.86
1024.553	45.78
1024.903	45.74
1025.253	45.87
1025.604	45.75
1025.954	45.63
1026.304	45.86
1026.654	45.69
1027.004	45.86
1027.354	45.8
1027.703	45.57
1028.053	45.77
1028.403	45.95
1028.753	45.75
1029.102	45.8
1029.452	45.67
1029.801	45.8
1030.15	45.47
1030.499	45.44
897.758	1242.09
901.051	1253.54
904.343	1248.19
907.636	1274
910.928	1240.9
914.22	1242.72
917.511	1225.39
920.803	1173.01
924.094	1166.06
927.384	1137.73
930.675	1096.54
933.965	1090.71
937.255	1025.94
940.544	986.52
943.834	941.42
947.123	933.33
950.411	876.24
953.7	859.03
956.988	812.53
960.276	780.35
963.563	767.46
966.851	739.61
970.138	732.88
973.424	709.36
976.711	713.14
979.997	674.19
983.283	669.51
986.568	656.2
989.853	637.68
993.138	626.3
996.423	601.66
999.708	584.54
1002.992	577.13
1006.275	550.81
1009.559	546.39
1012.842	526.02
1016.125	512.86
1019.408	504.57
1022.69	496.71
1025.972	485.9
1029.254	473.59
1032.536	466.58
1035.817	457.12
1039.098	452.43
1042.379	443.31
1045.659	438.4
1048.939	427.76
1052.219	419.48
1055.498	412.92
1058.778	403.27
1062.057	394.32
1065.335	390.63
1068.614	386.03
1071.892	382.19
1075.17	368.96
1078.447	362.18
1081.724	358.96
1085.001	357.73
1088.278	348.72
1091.554	342.56
1094.83	342.85
1098.106	340.11
1101.382	337.28
1104.657	335.02
1107.932	329.11
1111.206	330.92
1114.481	324.2
1117.755	320.7
1121.029	316.46
1124.302	317.82
1127.575	310.07
1130.848	306.47
1134.121	303.19
1137.393	301.4
1140.665	294.1
1143.937	292.6
1147.208	291.07
1150.48	289.14
1153.75	285.63
1157.021	281.51
1160.291	280.94
1163.561	278.51
1166.831	279.14
1170.101	276.73
1173.37	275.79
1176.639	277.04
1179.907	274.26
1183.176	270.35
1186.444	270.38
1189.711	270.19
1192.979	269.73
1196.246	267.89
1199.513	268.91
1202.78	266.05
1206.046	266.24
1209.312	264.25
1212.578	264.01
1215.843	266.97
1219.108	265.47
1222.373	270.57
1225.638	272.53
1228.902	276.38
1232.166	276.82
1235.43	278.98
1238.693	283.05
1241.956	284.24
1245.219	288.39
1248.482	289.36
1251.744	287.8
1255.006	289.93
1258.268	282.07
1261.529	279.58
1264.79	278
1268.051	277.05
1271.312	272.78
1274.572	270.2
1277.832	267.72
1281.092	263.47
1284.351	260.87
1287.61	260.92
1290.869	257.14
1294.128	256.35
1297.386	255.89
1300.644	252.56
1303.902	252.27
1307.159	252.2
1310.416	252
1313.673	251.67
1316.93	253.35
1320.186	253.43
1323.442	253.85
1326.697	257.88
1329.953	258.75
1333.208	259.28
1336.463	262.65
1339.717	263.31
1342.972	266.18
1346.226	268.78
1349.479	269.31
1352.733	270.63
1355.986	273.63
1359.238	273.77
1362.491	274.68
1365.743	277.11
1368.995	277.53
1372.247	276.46
1375.498	276.5
1378.749	278.49
1382	274.75
1385.251	275.44
1388.501	273.95
1391.751	272.71
1395	272.06
1398.25	269.74
1401.499	267.8
1404.748	267.33
1407.996	265.68
1411.244	264.06
1414.492	262.68
1417.74	260.26
1420.987	256.14
1424.234	255.81
1427.481	252.77
1430.728	252.14
1433.974	250.46
1437.22	248.41
1440.465	247.68
1443.711	245.39
1446.956	243.26
1450.201	240.1
1453.445	237.79
1456.689	237.35
1459.933	233.37
1463.177	231.18
1466.42	227.07
1469.663	223.78
1472.906	222.5
1476.148	216.51
1479.391	214.13
1482.633	212.75
1485.874	209.07
1489.115	207.32
1492.356	205.26
1495.597	204.66
1498.838	201.54
1502.078	200.76
1505.318	200
1508.557	199.44
1511.797	199.48
1515.036	197.85
1518.274	197.58
1521.513	195.9
1524.751	195.59
1527.989	194.34
1531.227	193.23
1534.464	193.75
1537.701	191.98
1540.938	191.33
1544.174	189.9
1547.41	189.55
1550.646	188.33
1553.882	187.63
1557.117	185.71
1560.352	184.93
1563.587	184.21
1566.821	183.02
1570.055	181.47
1573.289	180.1
1576.523	179.95
1579.756	177.86
1582.989	176.11
1586.222	176.44
1589.454	175.48
1592.686	176.55
1595.918	175.58
1599.15	175.52
1602.381	175.88
1605.612	175.51
1608.843	176.31
1612.073	175.62
1615.303	176.85
1618.533	177.19
1621.762	177.33
1624.992	177.29
1628.221	176.96
1631.449	176.82
1634.678	175.85
1637.906	176.99
1641.134	176.61
1644.361	176.39
1647.588	177.08
1650.815	176.17
1654.042	175.77
1657.269	176.12
1660.495	176.38
1663.72	176.44
1666.946	176.85
1670.171	177.81
1673.396	176.62
1676.621	177.62
1679.845	177.42
1683.069	177.69
1686.293	178.97
1689.517	179.88
1692.74	179.66
1695.963	179.84
1699.185	181.08
1702.408	181.07
1705.63	182.07
1708.852	182.77
1712.073	182.38
1715.294	183.28
1718.515	184.22
1721.736	183.68
1724.956	183.96
1728.176	184.14
1731.396	185.71
1734.616	184.79
1737.835	186
1741.054	184.03
1744.272	185.09
1747.491	186.9
1750.709	187.2
1753.927	186.72
1757.144	186.58
1760.361	187.55
1763.578	188.35
1766.795	187.65
1770.011	189.51
1773.227	189.02
1776.443	191.72
1779.658	192.2
1782.874	191.39
1786.089	192.33
1789.303	193.25
1792.518	195.2
1795.732	195.38
1798.945	196.38
1802.159	197.13
1805.372	197.28
1808.585	200.63
1811.797	201.52
1815.01	201.94
1818.222	204.14
1821.434	205.33
1824.645	206
1827.856	209.79
1831.067	211.17
1834.278	210.86
1837.488	213.03
1840.698	214.5
1843.908	212.78
1847.117	213.56
1850.326	214.97
1853.535	214.45
1856.744	217.89
1859.952	217.58
1863.16	215.93
1866.368	215.05
1869.575	217.78
1872.782	214.32
1875.989	213.9
1879.196	213.37
1882.402	212.27
1885.608	213.28
1888.814	213.66
1892.019	213.15
1895.224	212.79
1898.429	211.81
1901.634	213.24
1904.838	213.74
1908.042	215.75
1911.246	216.59
1914.449	218.38
1917.652	218.74
1920.855	218.36
1924.058	218.04
1927.26	216.98
1930.462	218.29
1933.664	220.8
1936.865	218.7
1940.066	218.9
1943.267	217.83
1946.467	217.66
1949.668	218.88
1952.868	220.92
1956.067	220.67
1959.267	222.22
1962.466	222.97
1965.665	221.74
1968.863	222.13
1972.061	225.5
1975.259	226.92
1978.457	229.02
1981.654	229.97
1984.852	230.36
1988.048	230.35
1991.245	232.41
1994.441	234.59
1997.637	235.87
2000.833	240.3
2004.028	243.9
2007.223	245.56
2010.418	247.56
2013.613	251.47
2016.807	254.95
2020.001	257.23
2023.194	260.98
2026.388	266.98
2029.581	272.69
2032.774	275.02
2035.966	280.02
2039.158	280.65
2042.35	285.69
2045.542	287.07
2048.733	292.03
2051.924	296.19
2055.115	301.25
2058.306	302.16
2061.496	304.09
2064.686	304.16
2067.875	309.81
2071.065	311.29
2074.254	309.3
2077.442	312.31
2080.631	315.02
2083.819	317.68
2087.007	317.57
2090.195	321.03
2093.382	323.95
2096.569	322.61
2099.756	326.71
2102.942	327.89
2106.128	330.6
2109.314	338.2
2112.5	337.18
2115.685	343.77
2118.87	344.1
2122.055	350.55
2125.239	352.65
2128.424	356.27
2131.608	359.38
2134.791	363.87
2137.974	365.52
2141.157	366.28
2144.34	367.59
2147.523	373.93
2150.705	371.03
2153.887	375.25
2157.068	376.21
2160.25	373.93
2163.431	374.83
2166.611	379.27
2169.792	386.44
2172.972	390.5
2176.152	392.68
2179.331	397.44
2182.511	403.88
2185.69	407.37
2188.868	416.13
2192.047	418.18
2195.225	429.72
2198.403	441.28
2201.58	449.67
2204.758	457.14
2207.935	467.17
2211.111	477.73
2214.288	482.75
2217.464	483.02
2220.64	494.3
2223.815	500.39
2226.991	518.64
2230.166	518.71
2233.34	527.81
2236.515	535.89
2239.689	538.6
2242.863	542.27
2246.036	557.31
2249.209	553.66
2252.382	564.09
2255.555	579.83
2258.727	580.79
2261.9	586.72
2265.071	593.81
2268.243	603.57
2271.414	611.23
2274.585	624.78
2277.756	628.8
2280.926	634.97
2284.096	649.84
2287.266	664.77
2290.436	668.37
2293.605	683.61
2296.774	702.6
2299.942	723.31
2303.111	728.07
2306.279	743.29
2309.447	753.62
2312.614	773.94
2315.781	791.5
2318.948	828.9
2322.115	816.31
2325.281	859.91
2328.447	844.06
2331.613	880.12
2334.779	870.36
2337.944	905.94
2341.109	916.52
2344.274	942.44
2347.438	977.99
2350.602	977.42
2353.766	1009.3
2356.929	1024.26
2360.092	1017.03
2363.255	1089.33
2366.418	1086.27
2369.58	1109.04
2372.742	1179.15
2375.904	1208.27
2379.066	1199.56
2382.227	1174.69
2385.388	1277.5
2388.548	1274.93
2391.709	1290.96
2394.869	1441.69
2398.029	1377.11
2401.188	1414.86
2404.347	1408.55
2407.506	1388.53
2410.665	1425.65
2413.823	1511.03
2416.981	1602.32
2420.139	1549.04
2423.296	1535.31
2426.453	1601.58
2429.61	1538.46
2432.767	1614
2435.923	1597.2
2439.079	1743.94
2442.235	1764.31
2445.391	1750.59
2448.546	1737.22
2451.701	1683.14
2454.855	1681.96
2458.009	1781.84
2461.163	1861.58
2464.317	1929.12
2467.471	1976.49
2470.624	1984.42
2473.777	1929.73
2476.929	1880.33
2480.082	1826.04
2483.234	1807.72
2486.385	1899.79
2489.537	1907.51
2492.688	1976.86
2495.839	1919.59
2498.989	1877.87
2502.14	1890.58
2505.29	1901.62
2508.439	1934.11
2511.589	1930.48
2514.738	2105.26
2517.887	2058.59
2521.035	2173.05
2524.183	2196.37
2527.331	2212.28
2530.479	2197.78
2533.627	2215.12
