Data from C_2_DIV_OH_2N_Splice17_13-25-15-894.txt Node
Date: Sat Mar 07 13:25:15 EST 2020
User: sa697716
Spectrometer: NQ5500242
Trigger mode: 0
Integration Time (sec): 1.450000E-1
Scans to average: 20
Nonlinearity correction enabled: false
Boxcar width: 5
Storing dark spectrum: false
XAxis mode: Wavelengths
Number of Pixels in Spectrum: 512
>>>>>Begin Spectral Data<<<<<
187.83	71.91
188.298	71.7
188.766	67.9
189.233	53.99
189.701	53.84
190.169	67.55
190.636	12.86
191.104	-103.49
191.571	-412.61
192.039	-268.41
192.506	-823.56
192.974	144.89
193.441	112.27
193.908	35.57
194.375	18.41
194.842	-51.94
195.31	-19.16
195.777	-170.11
196.244	43.31
196.711	44.48
197.177	47.55
197.644	47.81
198.111	46.9
198.578	47.01
199.045	47.46
199.511	47.1
199.978	47.26
200.445	47.57
200.911	47.42
201.378	47.4
201.844	47.83
202.31	47.48
202.777	47.19
203.243	47.38
203.709	47.16
204.176	46.78
204.642	46.92
205.108	47.12
205.574	46.88
206.04	46.5
206.506	46.02
206.972	45.56
207.438	45.19
207.903	44.62
208.369	43.86
208.835	43.2
209.301	42.48
209.766	41.45
210.232	40.51
210.697	39.49
211.163	38.86
211.628	38.12
212.094	37.32
212.559	36.85
213.024	36.22
213.49	35.62
213.955	35.11
214.42	34.69
214.885	33.88
215.35	32.97
215.815	31.75
216.28	30.1
216.745	28.23
217.21	26.55
217.675	24.87
218.14	23.63
218.604	22.39
219.069	21.44
219.534	20.62
219.998	19.93
220.463	19.28
220.927	18.73
221.392	18.3
221.856	17.99
222.32	17.68
222.785	17.41
223.249	17.12
223.713	16.9
224.177	16.64
224.642	16.36
225.106	16.12
225.57	15.89
226.034	15.68
226.497	15.47
226.961	15.25
227.425	15.03
227.889	14.82
228.353	14.62
228.816	14.42
229.28	14.22
229.744	14.04
230.207	13.88
230.671	13.71
231.134	13.53
231.597	13.38
232.061	13.22
232.524	13.07
232.987	12.91
233.45	12.77
233.914	12.62
234.377	12.47
234.84	12.34
235.303	12.21
235.766	12.08
236.229	11.97
236.691	11.84
237.154	11.72
237.617	11.6
238.08	11.48
238.542	11.35
239.005	11.25
239.468	11.15
239.93	11.03
240.393	10.93
240.855	10.82
241.317	10.7
241.78	10.59
242.242	10.48
242.704	10.39
243.166	10.3
243.629	10.21
244.091	10.11
244.553	10.01
245.015	9.91
245.477	9.81
245.939	9.71
246.4	9.62
246.862	9.54
247.324	9.46
247.786	9.37
248.247	9.28
248.709	9.19
249.17	9.09
249.632	9.03
250.093	8.96
250.555	8.88
251.016	8.82
251.477	8.75
251.939	8.69
252.4	8.62
252.861	8.56
253.322	8.49
253.783	8.43
254.244	8.37
254.705	8.31
255.166	8.24
255.627	8.17
256.088	8.11
256.549	8.06
257.009	7.99
257.47	7.92
257.931	7.85
258.391	7.79
258.852	7.73
259.312	7.67
259.773	7.62
260.233	7.57
260.694	7.53
261.154	7.47
261.614	7.42
262.074	7.37
262.534	7.32
262.994	7.28
263.455	7.24
263.915	7.2
264.374	7.17
264.834	7.13
265.294	7.09
265.754	7.06
266.214	7.02
266.673	6.99
267.133	6.97
267.593	6.94
268.052	6.92
268.512	6.9
268.971	6.88
269.431	6.85
269.89	6.82
270.349	6.8
270.809	6.77
271.268	6.76
271.727	6.73
272.186	6.71
272.645	6.69
273.104	6.67
273.563	6.64
274.022	6.62
274.481	6.61
274.94	6.59
275.399	6.56
275.857	6.54
276.316	6.53
276.775	6.5
277.233	6.48
277.692	6.47
278.15	6.44
278.609	6.43
279.067	6.41
279.525	6.39
279.984	6.36
280.442	6.35
280.9	6.33
281.358	6.32
281.816	6.3
282.274	6.28
282.732	6.26
283.19	6.23
283.648	6.2
284.106	6.18
284.564	6.15
285.021	6.13
285.479	6.11
285.937	6.07
286.394	6.05
286.852	6.03
287.309	6.01
287.767	5.97
288.224	5.95
288.682	5.93
289.139	5.91
289.596	5.87
290.053	5.84
290.511	5.82
290.968	5.79
291.425	5.76
291.882	5.74
292.339	5.71
292.796	5.69
293.252	5.66
293.709	5.64
294.166	5.61
294.623	5.6
295.079	5.58
295.536	5.56
295.992	5.54
296.449	5.52
296.905	5.51
297.362	5.49
297.818	5.47
298.274	5.46
298.731	5.44
299.187	5.41
299.643	5.39
300.099	5.38
300.555	5.36
301.011	5.34
301.467	5.33
301.923	5.31
302.379	5.28
302.835	5.27
303.291	5.25
303.746	5.24
304.202	5.23
304.658	5.22
305.113	5.2
305.569	5.19
306.024	5.18
306.479	5.17
306.935	5.17
307.39	5.15
307.845	5.14
308.301	5.13
308.756	5.13
309.211	5.12
309.666	5.11
310.121	5.11
310.576	5.1
311.031	5.09
311.486	5.08
311.94	5.07
312.395	5.07
312.85	5.06
313.305	5.04
313.759	5.03
314.214	5.01
314.668	4.99
315.123	4.98
315.577	4.96
316.032	4.95
316.486	4.93
316.94	4.92
317.394	4.9
317.849	4.88
318.303	4.86
318.757	4.84
319.211	4.83
319.665	4.81
320.119	4.79
320.572	4.77
321.026	4.75
321.48	4.73
321.934	4.71
322.387	4.7
322.841	4.68
323.295	4.68
323.748	4.66
324.202	4.65
324.655	4.65
325.108	4.64
325.562	4.63
326.015	4.63
326.468	4.63
326.921	4.62
327.374	4.61
327.827	4.61
328.28	4.6
328.733	4.59
329.186	4.58
329.639	4.58
330.092	4.57
330.545	4.56
330.997	4.55
331.45	4.55
331.903	4.55
332.355	4.55
332.808	4.54
333.26	4.54
333.713	4.53
334.165	4.53
334.617	4.52
335.069	4.51
335.522	4.51
335.974	4.52
336.426	4.5
336.878	4.49
337.33	4.48
337.782	4.48
338.234	4.48
338.686	4.48
339.137	4.48
339.589	4.46
340.041	4.45
340.493	4.44
340.944	4.42
341.396	4.41
341.847	4.4
342.299	4.38
342.75	4.37
343.201	4.34
343.653	4.32
344.104	4.3
344.555	4.29
345.006	4.27
345.457	4.26
345.908	4.25
346.359	4.25
346.81	4.23
347.261	4.22
347.712	4.22
348.163	4.2
348.613	4.21
349.064	4.2
349.515	4.2
349.965	4.21
350.416	4.2
350.866	4.19
351.317	4.18
351.767	4.18
352.217	4.17
352.668	4.16
353.118	4.17
353.568	4.15
354.018	4.15
354.468	4.14
354.918	4.14
355.368	4.13
355.818	4.14
356.268	4.13
356.718	4.13
357.168	4.12
357.617	4.11
358.067	4.11
358.517	4.11
358.966	4.11
359.416	4.1
359.865	4.09
360.315	4.09
360.764	4.09
361.213	4.09
361.663	4.08
362.112	4.08
362.561	4.08
363.01	4.07
363.459	4.06
363.908	4.06
364.357	4.05
364.806	4.04
365.255	4.04
365.703	4.04
366.152	4.04
366.601	4.04
367.05	4.04
367.498	4.03
367.947	4.03
368.395	4.02
368.844	4.02
369.292	4.02
369.74	4.02
370.189	4
370.637	3.98
371.085	3.97
371.533	3.95
371.981	3.93
372.429	3.93
372.877	3.93
373.325	3.92
373.773	3.91
374.221	3.9
374.669	3.88
375.116	3.87
375.564	3.87
376.012	3.87
376.459	3.87
376.907	3.87
377.354	3.87
377.801	3.87
378.249	3.86
378.696	3.85
379.143	3.84
379.591	3.85
380.038	3.85
380.485	3.84
380.932	3.84
381.379	3.83
381.826	3.82
382.273	3.8
382.72	3.79
383.166	3.78
383.613	3.78
384.06	3.78
384.506	3.77
384.953	3.77
385.4	3.77
385.846	3.77
386.292	3.77
386.739	3.77
387.185	3.76
387.631	3.77
388.078	3.76
388.524	3.75
388.97	3.75
389.416	3.75
389.862	3.74
390.308	3.75
390.754	3.75
391.2	3.75
391.645	3.75
392.091	3.77
392.537	3.77
392.983	3.77
393.428	3.79
393.874	3.79
394.319	3.79
394.765	3.8
395.21	3.8
395.655	3.8
396.101	3.81
396.546	3.82
396.991	3.82
397.436	3.82
397.881	3.85
398.326	3.86
398.771	3.88
399.216	3.89
399.661	3.9
400.106	3.92
400.551	3.93
400.995	3.92
401.44	3.93
401.885	3.93
402.329	3.95
402.774	3.95
403.218	3.96
403.663	3.97
404.107	3.98
404.551	3.98
404.995	3.97
405.44	3.97
405.884	3.99
406.328	4.01
406.772	4.02
407.216	4.02
407.66	4.01
408.104	4.01
408.547	4.01
408.991	4.02
409.435	4.03
409.879	4.04
410.322	4.06
410.766	4.08
411.209	4.09
411.653	4.1
412.096	4.13
412.54	4.15
412.983	4.16
413.426	4.2
413.869	4.21
414.312	4.24
414.756	4.27
415.199	4.28
415.642	4.27
416.085	4.27
416.527	4.27
416.97	4.26
417.413	4.26
417.856	4.26
418.298	4.23
418.741	4.23
419.184	4.23
419.626	4.21
420.069	4.22
420.511	4.24
420.953	4.25
421.396	4.26
421.838	4.28
422.28	4.28
422.722	4.3
423.164	4.32
423.606	4.32
424.048	4.32
424.49	4.34
424.932	4.33
425.374	4.31
425.816	4.29
426.258	4.27
426.699	4.25
427.141	4.25
427.582	4.26
428.024	4.26
428.465	4.28
428.907	4.27
429.348	4.26
429.789	4.27
430.231	4.28
430.672	4.31
431.113	4.34
431.554	4.36
431.995	4.37
432.436	4.38
432.877	4.39
433.318	4.4
433.759	4.43
434.2	4.45
434.64	4.48
435.081	4.49
435.522	4.5
435.962	4.51
436.403	4.53
436.843	4.54
437.284	4.54
437.724	4.54
438.164	4.54
438.604	4.52
439.045	4.53
439.485	4.53
439.925	4.53
440.365	4.51
440.805	4.5
441.245	4.51
441.685	4.52
442.125	4.54
442.564	4.54
443.004	4.54
443.444	4.56
443.883	4.56
444.323	4.56
444.762	4.57
445.202	4.59
445.641	4.61
446.081	4.62
446.52	4.62
446.959	4.64
447.398	4.66
447.837	4.68
448.276	4.7
448.716	4.71
449.154	4.73
449.593	4.75
450.032	4.75
450.471	4.74
450.91	4.74
451.349	4.76
451.787	4.75
452.226	4.73
452.664	4.72
453.103	4.7
453.541	4.7
453.98	4.7
454.418	4.67
454.856	4.67
455.295	4.65
455.733	4.62
456.171	4.6
456.609	4.59
457.047	4.59
457.485	4.58
457.923	4.57
458.361	4.56
458.798	4.56
459.236	4.55
459.674	4.54
460.111	4.54
460.549	4.56
460.987	4.57
461.424	4.57
461.862	4.58
462.299	4.58
462.736	4.58
463.173	4.58
463.611	4.58
464.048	4.6
464.485	4.61
464.922	4.61
465.359	4.62
465.796	4.63
466.233	4.63
466.67	4.63
467.106	4.64
467.543	4.65
467.98	4.64
468.416	4.62
468.853	4.61
469.29	4.59
469.726	4.59
470.162	4.57
470.599	4.55
471.035	4.54
471.471	4.53
471.907	4.52
472.344	4.52
472.78	4.52
473.216	4.52
473.652	4.53
474.088	4.51
474.523	4.52
474.959	4.52
475.395	4.51
475.831	4.51
476.266	4.52
476.702	4.5
477.138	4.49
477.573	4.49
478.008	4.48
478.444	4.47
478.879	4.47
479.314	4.46
479.75	4.45
480.185	4.44
480.62	4.42
481.055	4.4
481.49	4.39
481.925	4.38
482.36	4.39
482.795	4.38
483.229	4.37
483.664	4.38
484.099	4.37
484.534	4.36
484.968	4.37
485.403	4.37
485.837	4.38
486.271	4.39
486.706	4.39
487.14	4.39
487.574	4.4
488.009	4.41
488.443	4.42
488.877	4.44
489.311	4.46
489.745	4.49
490.179	4.52
490.613	4.55
491.046	4.58
491.48	4.61
491.914	4.64
492.348	4.68
492.781	4.72
493.215	4.76
493.648	4.79
494.082	4.83
494.515	4.86
494.948	4.92
495.382	4.95
495.815	5.01
496.248	5.07
496.681	5.14
497.114	5.21
497.547	5.27
497.98	5.35
498.413	5.42
498.846	5.5
499.279	5.58
499.711	5.66
500.144	5.76
500.577	5.86
501.009	5.95
501.442	6.05
501.874	6.16
502.306	6.27
502.739	6.4
503.171	6.52
503.603	6.65
504.036	6.79
504.468	6.93
504.9	7.08
505.332	7.23
505.764	7.39
506.196	7.56
506.627	7.74
507.059	7.93
507.491	8.1
507.923	8.3
508.354	8.51
508.786	8.73
509.217	8.95
509.649	9.18
510.08	9.41
510.512	9.65
510.943	9.89
511.374	10.13
511.805	10.38
512.237	10.64
512.668	10.91
513.099	11.17
513.53	11.43
513.961	11.7
514.391	11.98
514.822	12.27
515.253	12.55
515.684	12.84
516.114	13.14
516.545	13.43
516.975	13.73
517.406	14.01
517.836	14.31
518.267	14.63
518.697	14.92
519.127	15.21
519.558	15.5
519.988	15.79
520.418	16.08
520.848	16.36
521.278	16.64
521.708	17.08
522.138	17.37
522.567	17.63
522.997	17.88
523.427	18.13
523.857	18.39
524.286	18.63
524.716	18.87
525.145	19.1
525.575	19.32
526.004	19.55
526.433	19.59
526.863	19.79
527.292	20
527.721	20.19
528.15	20.36
528.579	20.53
529.008	20.7
529.437	20.85
529.866	21
530.295	21.16
530.724	21.31
531.152	21.44
531.581	21.58
532.01	21.7
532.438	21.81
532.867	21.93
533.295	22.04
533.723	22.14
534.152	22.24
534.58	22.32
535.008	22.38
535.436	22.46
535.865	22.53
536.293	22.58
536.721	22.65
537.149	22.71
537.576	22.76
538.004	22.82
538.432	22.86
538.86	22.9
539.287	22.94
539.715	23
540.143	23.03
540.57	23.07
540.998	23.1
541.425	23.13
541.852	23.18
542.28	23.21
542.707	23.23
543.134	23.27
543.561	23.3
543.988	23.33
544.415	23.35
544.842	23.36
545.269	23.39
545.696	23.41
546.123	23.44
546.549	23.45
546.976	23.47
547.403	23.49
547.829	23.5
548.256	23.52
548.682	23.53
549.108	23.55
549.535	23.55
549.961	23.55
550.387	23.55
550.813	23.55
551.24	23.53
551.666	23.51
552.092	23.51
552.518	23.5
552.943	23.47
553.369	23.45
553.795	23.43
554.221	23.41
554.646	23.37
555.072	23.33
555.498	23.27
555.923	23.23
556.349	23.18
556.774	23.11
557.199	23.04
557.625	22.97
558.05	22.9
558.475	22.82
558.9	22.76
559.325	22.68
559.75	22.61
560.175	22.52
560.6	22.42
561.025	22.33
561.449	22.22
561.874	22.11
562.299	22
562.723	21.87
563.148	21.73
563.572	21.57
563.997	21.44
564.421	21.28
564.846	21.14
565.27	21
565.694	20.86
566.118	20.7
566.542	20.54
566.966	20.38
567.39	20.22
567.814	20.08
568.238	19.93
568.662	19.77
569.086	19.62
569.509	19.47
569.933	19.32
570.357	19.16
570.78	19.01
571.204	18.86
571.627	18.71
572.05	18.57
572.474	18.43
572.897	18.29
573.32	18.15
573.743	18.01
574.166	17.89
574.589	17.76
575.012	17.63
575.435	17.51
575.858	17.39
576.281	17.29
576.704	17.18
577.126	17.07
577.549	16.97
577.972	16.86
578.394	16.76
578.817	16.67
579.239	16.58
579.661	16.49
580.084	16.41
580.506	16.32
580.928	16.22
581.35	16.12
581.772	16.05
582.194	15.98
582.616	15.91
583.038	15.82
583.46	15.73
583.882	15.64
584.303	15.56
584.725	15.49
585.147	15.41
585.568	15.35
585.99	15.29
586.411	15.23
586.833	15.17
587.254	15.09
587.675	15.03
588.096	14.97
588.518	14.91
588.939	14.88
589.36	14.81
589.781	14.76
590.202	14.71
590.623	14.67
591.043	14.61
591.464	14.56
591.885	14.52
592.305	14.48
592.726	14.45
593.147	14.42
593.567	14.37
593.987	14.34
594.408	14.31
594.828	14.27
595.248	14.23
595.669	14.2
596.089	14.16
596.509	14.12
596.929	14.09
597.349	14.05
597.769	14.01
598.189	13.98
598.608	13.94
599.028	13.91
599.448	13.87
599.867	13.83
600.287	13.78
600.706	13.75
601.126	13.7
601.545	13.66
601.965	13.61
602.384	13.56
602.803	13.5
603.222	13.45
603.641	13.39
604.061	13.33
604.48	13.27
604.898	13.2
605.317	13.14
605.736	13.07
606.155	13
606.574	12.93
606.992	12.85
607.411	12.78
607.829	12.67
608.248	12.6
608.666	12.51
609.085	12.44
609.503	12.37
609.921	12.3
610.339	12.22
610.758	12.14
611.176	12.05
611.594	11.98
612.012	11.89
612.43	11.83
612.847	11.76
613.265	11.68
613.683	11.61
614.101	11.53
614.518	11.45
614.936	11.38
615.353	11.31
615.771	11.25
616.188	11.18
616.606	11.13
617.023	11.08
617.44	11.02
617.857	10.96
618.274	10.9
618.691	10.84
619.108	10.8
619.525	10.75
619.942	10.71
620.359	10.66
620.776	10.62
621.192	10.58
621.609	10.54
622.026	10.51
622.442	10.48
622.859	10.46
623.275	10.45
623.691	10.42
624.108	10.39
624.524	10.37
624.94	10.36
625.356	10.35
625.772	10.33
626.188	10.33
626.604	10.32
627.02	10.31
627.436	10.3
627.852	10.29
628.268	10.27
628.683	10.27
629.099	10.26
629.514	10.24
629.93	10.22
630.345	10.19
630.761	10.16
631.176	10.13
631.591	10.1
632.007	10.06
632.422	10.01
632.837	9.95
633.252	9.89
633.667	9.83
634.082	9.77
634.497	9.7
634.911	9.63
635.326	9.54
635.741	9.45
636.155	9.36
636.57	9.26
636.984	9.17
637.399	9.08
637.813	8.98
638.228	8.87
638.642	8.76
639.056	8.65
639.47	8.54
639.884	8.43
640.298	8.31
640.712	8.19
641.126	8.08
641.54	7.96
641.954	7.84
642.368	7.72
642.781	7.62
643.195	7.51
643.609	7.4
644.022	7.29
644.436	7.19
644.849	7.1
645.262	7.01
645.676	6.92
646.089	6.84
646.502	6.76
646.915	6.68
647.328	6.62
647.741	6.56
648.154	6.5
648.567	6.46
648.98	6.41
649.393	6.37
649.805	6.32
650.218	6.28
650.631	6.25
651.043	6.22
651.456	6.2
651.868	6.15
652.28	6.12
652.693	6.08
653.105	6.04
653.517	6.01
653.929	5.96
654.341	5.9
654.753	5.85
655.165	5.79
655.577	5.74
655.989	5.67
656.401	5.61
656.813	5.56
657.224	5.48
657.636	5.39
658.047	5.33
658.459	5.26
658.87	5.19
659.282	5.12
659.693	5.05
660.104	4.97
660.515	4.89
660.926	4.82
661.338	4.74
661.749	4.68
662.159	4.62
662.57	4.57
662.981	4.51
663.392	4.45
663.803	4.4
664.213	4.34
664.624	4.29
665.035	4.26
665.445	4.22
665.855	4.19
666.266	4.15
666.676	4.13
667.086	4.1
667.497	4.07
667.907	4.06
668.317	4.04
668.727	4.03
669.137	4.03
669.547	4.02
669.956	4.01
670.366	4
670.776	4
671.186	3.99
671.595	3.99
672.005	4
672.414	4.01
672.824	4.01
673.233	4.02
673.642	4.03
674.052	4.05
674.461	4.07
674.87	4.08
675.279	4.11
675.688	4.14
676.097	4.16
676.506	4.18
676.915	4.21
677.323	4.25
677.732	4.28
678.141	4.31
678.549	4.34
678.958	4.37
679.366	4.42
679.775	4.46
680.183	4.51
680.592	4.58
681	4.65
681.408	4.71
681.816	4.8
682.224	4.9
682.632	5
683.04	5.11
683.448	5.23
683.856	5.37
684.264	5.53
684.671	5.69
685.079	5.88
685.487	6.09
685.894	6.31
686.302	6.55
686.709	6.82
687.116	7.12
687.524	7.45
687.931	7.81
688.338	8.19
688.745	8.59
689.152	9.02
689.559	9.47
689.966	9.94
690.373	10.44
690.78	10.95
691.187	11.47
691.593	12.03
692	12.58
692.407	13.14
692.813	13.71
693.22	14.27
693.626	14.86
694.032	15.45
694.439	16.05
694.845	16.65
695.251	17.24
695.657	17.83
696.063	18.41
696.469	19
696.875	19.59
697.281	20.17
697.687	20.76
698.093	21.32
698.498	21.87
698.904	22.42
699.31	22.96
699.715	23.52
700.12	24.07
700.526	24.61
700.931	25.13
701.337	25.66
701.742	26.17
702.147	26.66
702.552	27.17
702.957	27.64
703.362	28.12
703.767	28.57
704.172	29
704.577	29.44
704.981	29.86
705.386	30.3
705.791	30.72
706.195	31.12
706.6	31.53
707.004	31.94
707.408	32.34
707.813	32.74
708.217	33.12
708.621	33.53
709.025	33.87
709.43	34.23
709.834	34.59
710.237	34.94
710.641	35.3
711.045	35.65
711.449	35.97
711.853	36.31
712.256	36.61
712.66	36.95
713.064	37.24
713.467	37.58
713.87	37.88
714.274	38.15
714.677	38.44
715.08	38.71
715.484	38.99
715.887	39.26
716.29	39.52
716.693	39.78
717.096	40.02
717.499	40.29
717.901	40.53
718.304	40.78
718.707	41.03
719.109	41.27
719.512	41.51
719.915	41.74
720.317	41.96
720.719	42.15
721.122	42.36
721.524	42.59
721.926	42.81
722.328	43.01
722.731	43.2
723.133	43.41
723.535	43.56
723.937	43.74
724.338	43.88
724.74	44.04
725.142	44.29
725.544	44.44
725.945	44.59
726.347	44.7
726.748	44.82
727.15	44.93
727.551	45.06
727.952	45.19
728.354	45.3
728.755	45.41
729.156	45.51
729.557	45.52
729.958	45.61
730.359	45.7
730.76	45.8
731.161	45.89
731.562	46.01
731.962	46.06
732.363	46.15
732.763	46.23
733.164	46.36
733.564	46.45
733.965	46.54
734.365	46.65
734.766	46.73
735.166	46.8
735.566	46.88
735.966	46.93
736.366	47.01
736.766	47.06
737.166	47.12
737.566	47.15
737.966	47.2
738.365	47.22
738.765	47.28
739.165	47.32
739.564	47.37
739.964	47.42
740.363	47.45
740.763	47.48
741.162	47.53
741.561	47.55
741.96	47.56
742.36	47.58
742.759	47.6
743.158	47.61
743.557	47.62
743.955	47.64
744.354	47.65
744.753	47.69
745.152	47.72
745.55	47.74
745.949	47.79
746.348	47.83
746.746	47.86
747.144	47.89
747.543	47.89
747.941	47.92
748.339	47.9
748.737	47.91
749.136	47.92
749.534	47.9
749.932	47.88
750.33	47.87
750.727	47.88
751.125	47.89
751.523	47.9
751.921	47.92
752.318	47.91
752.716	47.95
753.113	47.97
753.511	47.98
753.908	48.01
754.305	48.04
754.703	48.03
755.1	48.03
755.497	48.04
755.894	48.03
756.291	48.01
756.688	48.02
757.085	48.02
757.482	48
757.878	48.01
758.275	48
758.672	47.99
759.068	48.02
759.465	47.99
759.861	47.99
760.258	48.02
760.654	48.04
761.05	48.04
761.447	48.04
761.843	48.02
762.239	48.01
762.635	48
763.031	48
763.427	47.99
763.822	48.01
764.218	48.02
764.614	48.02
765.01	48.02
765.405	48.03
765.801	47.99
766.196	48
766.592	47.99
766.987	48.01
767.382	48.02
767.778	48.01
768.173	48.03
768.568	48.01
768.963	47.99
769.358	47.98
769.753	47.96
770.148	48.01
770.542	48
770.937	48.02
771.332	48
771.726	47.99
772.121	48
772.515	48.01
772.91	48
773.304	48.04
773.699	48.05
774.093	48.05
774.487	48.04
774.881	48.09
775.275	48.09
775.669	48.08
776.063	48.09
776.457	48.09
776.851	48.04
777.245	48.04
777.638	48
778.032	48.01
778.425	48.06
778.819	48.06
779.212	48.06
779.606	48.06
779.999	48.07
780.392	48.11
780.786	48.1
781.179	48.12
781.572	48.17
781.965	48.21
782.358	48.23
782.751	48.19
783.143	48.16
783.536	48.14
783.929	48.14
784.322	48.17
784.714	48.15
785.107	48.17
785.499	48.14
785.891	48.13
786.284	48.11
786.676	48.08
787.068	48.05
787.46	48.06
787.852	48.06
788.245	48.04
788.636	48
789.028	48
789.42	47.96
789.812	48
790.204	47.98
790.595	47.97
790.987	47.96
791.378	48.01
791.77	48.01
792.161	47.99
792.553	48.03
792.944	48.03
793.335	48.02
793.726	48.06
794.117	48.04
794.508	48.01
794.899	48.01
795.29	47.99
795.681	47.96
796.072	47.95
796.463	47.98
796.853	47.95
797.244	47.93
797.634	47.91
798.025	47.92
798.415	47.94
798.806	47.94
799.196	47.96
799.586	47.99
799.976	48.01
800.366	48.03
800.756	48.01
801.146	48.03
801.536	48.05
801.926	48.06
802.316	48.05
802.706	48.06
803.095	48.07
803.485	48.07
803.874	48.09
804.264	48.06
804.653	48.08
805.043	48.09
805.432	48.09
805.821	48.11
806.21	48.12
806.599	48.13
806.988	48.12
807.377	48.11
807.766	48.09
808.155	48.07
808.544	48.08
808.933	48.05
809.321	48.04
809.71	48.04
810.098	48.05
810.487	48.02
810.875	47.99
811.264	47.97
811.652	48.03
812.04	48.05
812.428	48.08
812.816	48.09
813.204	48.08
813.592	48.08
813.98	48.09
814.368	48.1
814.756	48.11
815.144	48.13
815.531	48.12
815.919	48.09
816.306	48.08
816.694	48.04
817.081	48.02
817.469	48.05
817.856	48.04
818.243	48
818.63	47.96
819.017	47.94
819.404	47.92
819.791	47.93
820.178	47.94
820.565	47.94
820.952	47.94
821.339	47.95
821.725	47.94
822.112	47.96
822.498	48.01
822.885	48.02
823.271	48.01
823.657	48.01
824.044	48
824.43	48
824.816	47.98
825.202	47.99
825.588	47.97
825.974	47.94
826.36	47.91
826.746	47.87
827.132	47.84
827.517	47.86
827.903	47.85
828.289	47.85
828.674	47.82
829.06	47.81
829.445	47.8
829.83	47.81
830.216	47.81
830.601	47.81
830.986	47.82
831.371	47.82
831.756	47.82
832.141	47.83
832.526	47.81
832.911	47.82
833.295	47.81
833.68	47.8
834.065	47.8
834.449	47.8
834.834	47.8
835.218	47.8
835.603	47.79
835.987	47.78
836.371	47.76
836.755	47.76
837.139	47.73
837.524	47.74
837.908	47.75
838.291	47.74
838.675	47.74
839.059	47.77
839.443	47.74
839.827	47.72
840.21	47.72
840.594	47.71
840.977	47.72
841.361	47.75
841.744	47.72
842.127	47.7
842.511	47.7
842.894	47.68
843.277	47.66
843.66	47.66
844.043	47.66
844.426	47.66
844.809	47.67
845.191	47.67
845.574	47.68
845.957	47.69
846.339	47.69
846.722	47.7
847.104	47.74
847.487	47.72
847.869	47.73
848.252	47.74
848.634	47.73
849.016	47.74
849.398	47.74
849.78	47.75
850.162	47.76
850.544	47.76
850.926	47.74
851.307	47.73
851.689	47.75
852.071	47.76
852.452	47.77
852.834	47.77
853.215	47.76
853.597	47.76
853.978	47.75
854.359	47.77
854.741	47.76
855.122	47.77
855.503	47.77
855.884	47.75
856.265	47.75
856.646	47.74
857.026	47.75
857.407	47.74
857.788	47.74
858.169	47.75
858.549	47.74
858.93	47.75
859.31	47.76
859.69	47.76
860.071	47.78
860.451	47.77
860.831	47.76
861.211	47.74
861.591	47.72
861.971	47.7
862.351	47.7
862.731	47.69
863.111	47.67
863.491	47.65
863.87	47.63
864.25	47.62
864.629	47.61
865.009	47.6
865.388	47.6
865.768	47.61
866.147	47.62
866.526	47.61
866.905	47.6
867.284	47.62
867.663	47.6
868.042	47.61
868.421	47.61
868.8	47.63
869.179	47.66
869.558	47.65
869.936	47.64
870.315	47.63
870.693	47.65
871.072	47.65
871.45	47.65
871.828	47.65
872.207	47.65
872.585	47.62
872.963	47.61
873.341	47.59
873.719	47.6
874.097	47.58
874.475	47.6
874.853	47.58
875.23	47.59
875.608	47.57
875.986	47.59
876.363	47.58
876.741	47.59
877.118	47.59
877.495	47.57
877.873	47.56
878.25	47.61
878.627	47.59
879.004	47.6
879.381	47.6
879.758	47.6
880.135	47.57
880.512	47.59
880.889	47.58
881.265	47.57
881.642	47.59
882.019	47.61
882.395	47.58
882.772	47.55
883.148	47.52
883.524	47.52
883.901	47.53
884.277	47.53
884.653	47.48
885.029	47.48
885.405	47.48
885.781	47.47
886.157	47.45
886.532	47.47
886.908	47.47
887.284	47.49
887.659	47.47
888.035	47.46
888.411	47.45
888.786	47.47
889.161	47.48
889.537	47.48
889.912	47.5
890.287	47.48
890.662	47.45
891.037	47.45
891.412	47.44
891.787	47.43
892.162	47.42
892.536	47.42
892.911	47.43
893.286	47.4
893.66	47.39
894.035	47.38
894.409	47.39
894.784	47.4
895.158	47.4
895.532	47.41
895.906	47.44
896.281	47.45
896.655	47.46
897.029	47.46
897.402	47.47
897.776	47.5
898.15	47.49
898.524	47.52
898.898	47.5
899.271	47.51
899.645	47.52
900.018	47.53
900.392	47.55
900.765	47.55
901.138	47.53
901.511	47.53
901.884	47.52
902.258	47.52
902.631	47.51
903.003	47.55
903.376	47.54
903.749	47.52
904.122	47.5
904.495	47.47
904.867	47.49
905.24	47.52
905.612	47.55
905.985	47.55
906.357	47.53
906.729	47.54
907.102	47.51
907.474	47.56
907.846	47.56
908.218	47.56
908.59	47.58
908.962	47.55
909.334	47.56
909.705	47.55
910.077	47.55
910.449	47.58
910.82	47.59
911.192	47.6
911.563	47.56
911.935	47.54
912.306	47.56
912.677	47.55
913.048	47.58
913.419	47.56
913.79	47.57
914.161	47.55
914.532	47.52
914.903	47.5
915.274	47.48
915.645	47.48
916.015	47.51
916.386	47.48
916.756	47.46
917.127	47.45
917.497	47.48
917.868	47.48
918.238	47.46
918.608	47.49
918.978	47.5
919.348	47.51
919.718	47.5
920.088	47.51
920.458	47.53
920.828	47.52
921.198	47.48
921.567	47.47
921.937	47.48
922.306	47.46
922.676	47.44
923.045	47.42
923.415	47.41
923.784	47.4
924.153	47.38
924.522	47.4
924.891	47.42
925.26	47.43
925.629	47.41
925.998	47.39
926.367	47.41
926.736	47.41
927.104	47.42
927.473	47.41
927.842	47.4
928.21	47.42
928.578	47.37
928.947	47.36
929.315	47.34
929.683	47.36
930.051	47.33
930.42	47.31
930.788	47.29
931.156	47.27
931.523	47.29
931.891	47.33
932.259	47.31
932.627	47.33
932.994	47.3
933.362	47.3
933.729	47.27
934.097	47.29
934.464	47.3
934.831	47.33
935.199	47.33
935.566	47.31
935.933	47.21
936.3	47.17
936.667	47.17
937.034	47.24
937.401	47.23
937.767	47.23
938.134	47.23
938.501	47.26
938.867	47.26
939.234	47.31
939.6	47.3
939.967	47.39
940.333	47.43
940.699	47.44
941.065	47.34
941.431	47.39
941.798	47.34
942.163	47.31
942.529	47.24
942.895	47.2
943.261	47.13
943.627	47.13
943.992	47.09
944.358	47.08
944.723	47.06
945.089	47.04
945.454	47.01
945.82	47.03
946.185	47.08
946.55	47.03
946.915	47.03
947.28	47.03
947.645	47
948.01	46.98
948.375	46.93
948.74	46.87
949.104	46.93
949.469	46.91
949.834	46.88
950.198	46.8
950.562	46.79
950.927	46.76
951.291	46.68
951.655	46.6
952.02	46.6
952.384	46.56
952.748	46.57
953.112	46.56
953.476	46.51
953.839	46.48
954.203	46.49
954.567	46.5
954.931	46.45
955.294	46.46
955.658	46.56
956.021	46.55
956.385	46.53
956.748	46.51
957.111	46.45
957.474	46.44
957.837	46.42
958.2	46.42
958.563	46.42
958.926	46.46
959.289	46.5
959.652	46.45
960.015	46.47
960.377	46.5
960.74	46.55
961.102	46.57
961.465	46.62
961.827	46.68
962.189	46.71
962.552	46.65
962.914	46.62
963.276	46.62
963.638	46.67
964	46.67
964.362	46.69
964.724	46.65
965.085	46.67
965.447	46.64
965.809	46.62
966.17	46.54
966.532	46.59
966.893	46.59
967.255	46.6
967.616	46.58
967.977	46.56
968.338	46.54
968.699	46.59
969.061	46.49
969.421	46.48
969.782	46.54
970.143	46.56
970.504	46.59
970.865	46.67
971.225	46.62
971.586	46.62
971.946	46.65
972.307	46.65
972.667	46.63
973.027	46.7
973.388	46.72
973.748	46.65
974.108	46.68
974.468	46.67
974.828	46.67
975.188	46.74
975.548	46.7
975.907	46.74
976.267	46.74
976.627	46.69
976.986	46.69
977.346	46.68
977.705	46.74
978.064	46.79
978.424	46.83
978.783	46.77
979.142	46.69
979.501	46.75
979.86	46.7
980.219	46.72
980.578	46.78
980.937	46.79
981.296	46.77
981.654	46.71
982.013	46.66
982.371	46.59
982.73	46.62
983.088	46.71
983.447	46.67
983.805	46.68
984.163	46.67
984.521	46.65
984.879	46.63
985.237	46.69
985.595	46.81
985.953	46.78
986.311	46.79
986.669	46.8
987.026	46.75
987.384	46.85
987.741	46.82
988.099	46.87
988.456	46.8
988.814	46.83
989.171	46.8
989.528	46.71
989.885	46.71
990.242	46.78
990.599	46.83
990.956	46.85
991.313	46.84
991.67	46.9
992.027	47.01
992.383	47.1
992.74	47.19
993.096	47.25
993.453	47.3
993.809	47.3
994.165	47.34
994.522	47.34
994.878	47.4
995.234	47.37
995.59	47.31
995.946	47.21
996.302	47.22
996.658	47.27
997.013	47.22
997.369	47.14
997.725	47.23
998.08	47.25
998.436	47.3
998.791	47.24
999.147	47.28
999.502	47.42
999.857	47.33
1000.212	47.28
1000.567	47.31
1000.922	47.34
1001.277	47.47
1001.632	47.46
1001.987	47.49
1002.342	47.34
1002.696	47.32
1003.051	47.38
1003.406	47.44
1003.76	47.58
1004.114	47.67
1004.469	47.64
1004.823	47.84
1005.177	47.84
1005.531	47.85
1005.885	47.78
1006.239	47.89
1006.593	48.06
1006.947	48.05
1007.301	47.97
1007.655	47.94
1008.008	47.97
1008.362	47.98
1008.715	47.85
1009.069	47.85
1009.422	48.01
1009.776	48
1010.129	47.98
1010.482	47.95
1010.835	47.98
1011.188	48.07
1011.541	47.97
1011.894	48
1012.247	48.1
1012.6	47.93
1012.952	47.89
1013.305	47.73
1013.657	47.9
1014.01	48.07
1014.362	48.06
1014.715	48.16
1015.067	48.11
1015.419	48.3
1015.771	48.13
1016.123	48.02
1016.475	48.28
1016.827	48.46
1017.179	48.53
1017.531	48.61
1017.883	48.54
1018.234	48.63
1018.586	48.64
1018.938	48.87
1019.289	48.84
1019.64	49.03
1019.992	48.88
1020.343	48.82
1020.694	48.76
1021.045	48.87
1021.396	48.7
1021.747	48.89
1022.098	48.9
1022.449	48.86
1022.8	48.74
1023.151	48.65
1023.501	48.76
1023.852	49.14
1024.202	49.08
1024.553	49.01
1024.903	49.16
1025.253	49.41
1025.604	49.3
1025.954	49.1
1026.304	49.13
1026.654	49.21
1027.004	49.28
1027.354	49.26
1027.703	48.97
1028.053	49.15
1028.403	49.22
1028.753	48.9
1029.102	48.82
1029.452	48.83
1029.801	49.1
1030.15	48.99
1030.499	48.74
897.758	1398.06
901.051	1409.27
904.343	1405.12
907.636	1428.29
910.928	1387.55
914.22	1389.45
917.511	1376.06
920.803	1315.16
924.094	1310.45
927.384	1277.52
930.675	1229.07
933.965	1223.7
937.255	1149.1
940.544	1103.24
943.834	1051.67
947.123	1043.27
950.411	982.24
953.7	960.34
956.988	906.01
960.276	869.94
963.563	855.61
966.851	825.31
970.138	815.64
973.424	790.86
976.711	796.37
979.997	754.99
983.283	751.17
986.568	734.29
989.853	712.15
993.138	701.53
996.423	672.72
999.708	654.81
1002.992	645.28
1006.275	618.7
1009.559	613.35
1012.842	589.21
1016.125	573.92
1019.408	562.81
1022.69	556.13
1025.972	545.1
1029.254	531.64
1032.536	523.92
1035.817	511.85
1039.098	505.21
1042.379	494.7
1045.659	488.55
1048.939	477.43
1052.219	469.07
1055.498	462.36
1058.778	451.1
1062.057	440.06
1065.335	434.75
1068.614	429.73
1071.892	425.48
1075.17	411.66
1078.447	404.08
1081.724	401.65
1085.001	398.33
1088.278	389.07
1091.554	381.87
1094.83	382.9
1098.106	380.83
1101.382	377.35
1104.657	374.62
1107.932	368.73
1111.206	371.48
1114.481	362.12
1117.755	358.35
1121.029	355.26
1124.302	355.26
1127.575	348.11
1130.848	342.49
1134.121	338.87
1137.393	337.91
1140.665	329.64
1143.937	328.08
1147.208	325.13
1150.48	324.36
1153.75	319.48
1157.021	315.47
1160.291	315.94
1163.561	311.95
1166.831	313.2
1170.101	310.45
1173.37	309.8
1176.639	311.02
1179.907	307.39
1183.176	304.44
1186.444	303.89
1189.711	303.97
1192.979	303.05
1196.246	300.57
1199.513	302.35
1202.78	299.63
1206.046	299.59
1209.312	296.31
1212.578	296.76
1215.843	299.65
1219.108	296.89
1222.373	303.49
1225.638	305.59
1228.902	309.6
1232.166	309.95
1235.43	312.02
1238.693	316.82
1241.956	318.48
1245.219	323.4
1248.482	323.6
1251.744	322.81
1255.006	325.27
1258.268	316.61
1261.529	313.76
1264.79	311.22
1268.051	309.69
1271.312	306.13
1274.572	301.18
1277.832	298.67
1281.092	294.02
1284.351	291.39
1287.61	291.53
1290.869	286.54
1294.128	284.82
1297.386	284.61
1300.644	281.4
1303.902	282.08
1307.159	281.12
1310.416	281.35
1313.673	280.81
1316.93	283.15
1320.186	283.59
1323.442	284.51
1326.697	289.51
1329.953	290.47
1333.208	292.25
1336.463	296.09
1339.717	296.45
1342.972	299.83
1346.226	302.99
1349.479	303.35
1352.733	305.06
1355.986	306.75
1359.238	306.82
1362.491	308.19
1365.743	311.72
1368.995	311
1372.247	310.38
1375.498	309.89
1378.749	312.63
1382	308.03
1385.251	309.62
1388.501	307.82
1391.751	308.59
1395	307.5
1398.25	305.07
1401.499	303.05
1404.748	302.6
1407.996	300.61
1411.244	299.64
1414.492	297.3
1417.74	295.35
1420.987	290.25
1424.234	290.3
1427.481	286.27
1430.728	286.09
1433.974	283.62
1437.22	280.74
1440.465	280.33
1443.711	277.46
1446.956	275.83
1450.201	272.5
1453.445	270.16
1456.689	269.44
1459.933	264.38
1463.177	262.36
1466.42	257.61
1469.663	254.67
1472.906	253.3
1476.148	246.18
1479.391	243.3
1482.633	240.9
1485.874	237.66
1489.115	235.86
1492.356	233.69
1495.597	232.76
1498.838	229.53
1502.078	228.24
1505.318	226.83
1508.557	226.56
1511.797	226.31
1515.036	225.47
1518.274	224.73
1521.513	222.49
1524.751	221.99
1527.989	220.88
1531.227	220.13
1534.464	220.27
1537.701	218.95
1540.938	218.56
1544.174	215.99
1547.41	215.39
1550.646	214.1
1553.882	213.61
1557.117	211.02
1560.352	210.35
1563.587	209.34
1566.821	207.87
1570.055	205.63
1573.289	204.04
1576.523	203.41
1579.756	201.91
1582.989	201.26
1586.222	201.08
1589.454	199.99
1592.686	201.76
1595.918	199.95
1599.15	199.55
1602.381	200.07
1605.612	200.12
1608.843	200.77
1612.073	200.81
1615.303	201.52
1618.533	201.21
1621.762	200.48
1624.992	201
1628.221	200.22
1631.449	200.48
1634.678	200.24
1637.906	200.69
1641.134	200.92
1644.361	200.23
1647.588	200.92
1650.815	200.34
1654.042	199.67
1657.269	200.53
1660.495	200.26
1663.72	200.04
1666.946	201.03
1670.171	201.2
1673.396	201.06
1676.621	200.82
1679.845	201.42
1683.069	201.35
1686.293	202.77
1689.517	204.05
1692.74	204.07
1695.963	204.9
1699.185	206.65
1702.408	206.46
1705.63	207.31
1708.852	207.52
1712.073	208.76
1715.294	209.02
1718.515	210.22
1721.736	209.73
1724.956	210.54
1728.176	210.67
1731.396	212.55
1734.616	211.47
1737.835	212.59
1741.054	211.13
1744.272	211.98
1747.491	213.24
1750.709	213.89
1753.927	213.77
1757.144	212.95
1760.361	213.67
1763.578	213.94
1766.795	213.08
1770.011	214.81
1773.227	214.74
1776.443	217.51
1779.658	218.5
1782.874	217.99
1786.089	218.64
1789.303	219.13
1792.518	222.48
1795.732	222.22
1798.945	224.64
1802.159	224.88
1805.372	225.4
1808.585	228.98
1811.797	229.84
1815.01	230.01
1818.222	231.82
1821.434	233.87
1824.645	234.69
1827.856	237.88
1831.067	239.97
1834.278	238.91
1837.488	241.1
1840.698	242.82
1843.908	240.69
1847.117	241.81
1850.326	243.81
1853.535	243.11
1856.744	246.24
1859.952	246.18
1863.16	244.79
1866.368	242.47
1869.575	245.88
1872.782	242.38
1875.989	241.51
1879.196	240.71
1882.402	239.51
1885.608	240.08
1888.814	240.5
1892.019	240.09
1895.224	239.59
1898.429	238.64
1901.634	241.16
1904.838	240.88
1908.042	243.19
1911.246	244.57
1914.449	246.32
1917.652	246.5
1920.855	246.27
1924.058	246.23
1927.26	244.69
1930.462	245.31
1933.664	247.73
1936.865	246.12
1940.066	245.53
1943.267	245.02
1946.467	244.04
1949.668	245.81
1952.868	248.08
1956.067	247.79
1959.267	249.03
1962.466	249.98
1965.665	248.98
1968.863	249.92
1972.061	253.81
1975.259	256.3
1978.457	257.11
1981.654	260.08
1984.852	260.35
1988.048	259.91
1991.245	262.23
1994.441	264.7
1997.637	266.75
2000.833	272.85
2004.028	275.61
2007.223	275.16
2010.418	278.05
2013.613	283.43
2016.807	285.85
2020.001	288.04
2023.194	292.9
2026.388	299.95
2029.581	306.62
2032.774	309.2
2035.966	313.53
2039.158	314.83
2042.35	321.06
2045.542	324.01
2048.733	329.39
2051.924	334.51
2055.115	340.04
2058.306	340.43
2061.496	342.9
2064.686	342.05
2067.875	348.26
2071.065	350.57
2074.254	348.82
2077.442	354.2
2080.631	354.76
2083.819	357.63
2087.007	357.16
2090.195	362.36
2093.382	365.59
2096.569	363.37
2099.756	370.04
2102.942	370.75
2106.128	374.4
2109.314	383.88
2112.5	381.78
2115.685	390.47
2118.87	391.18
2122.055	399.17
2125.239	401.14
2128.424	406.17
2131.608	410.63
2134.791	415.64
2137.974	417.28
2141.157	418.05
2144.34	417.94
2147.523	424.74
2150.705	421.27
2153.887	424.61
2157.068	425.53
2160.25	421.4
2163.431	422.63
2166.611	426.44
2169.792	435.16
2172.972	440.23
2176.152	442.67
2179.331	449.31
2182.511	456.95
2185.69	462.26
2188.868	471.73
2192.047	472.21
2195.225	486.62
2198.403	500.23
2201.58	509.87
2204.758	517.77
2207.935	528.48
2211.111	538.34
2214.288	543.59
2217.464	545
2220.64	554.17
2223.815	562.29
2226.991	585.99
2230.166	586.99
2233.34	596.08
2236.515	604.77
2239.689	605.37
2242.863	609.26
2246.036	628.14
2249.209	623.15
2252.382	633.72
2255.555	652.79
2258.727	654.84
2261.9	658.05
2265.071	664.96
2268.243	676.1
2271.414	684.01
2274.585	700.81
2277.756	707.24
2280.926	709.81
2284.096	727.81
2287.266	743.19
2290.436	747.68
2293.605	766.37
2296.774	789.38
2299.942	813.96
2303.111	817.8
2306.279	836.88
2309.447	848.93
2312.614	870.04
2315.781	894.81
2318.948	938.15
2322.115	925.26
2325.281	975.86
2328.447	954.45
2331.613	996.13
2334.779	984.69
2337.944	1028.95
2341.109	1038.58
2344.274	1062.32
2347.438	1101.81
2350.602	1101.13
2353.766	1133.73
2356.929	1150.04
2360.092	1139.88
2363.255	1224.19
2366.418	1216.65
2369.58	1240.82
2372.742	1321.97
2375.904	1354.67
2379.066	1348.75
2382.227	1318.79
2385.388	1435.31
2388.548	1431.58
2391.709	1448.35
2394.869	1619.09
2398.029	1548.52
2401.188	1595.94
2404.347	1583.85
2407.506	1548.15
2410.665	1595.42
2413.823	1694.09
2416.981	1796.73
2420.139	1733.82
2423.296	1722.4
2426.453	1799.08
2429.61	1727.72
2432.767	1808.44
2435.923	1785.08
2439.079	1961.24
2442.235	1989.79
2445.391	1970.82
2448.546	1955.17
2451.701	1902.96
2454.855	1903.95
2458.009	2017.46
2461.163	2099.51
2464.317	2180.41
2467.471	2234.57
2470.624	2234.37
2473.777	2168.77
2476.929	2115.04
2480.082	2050.81
2483.234	2027.6
2486.385	2132.24
2489.537	2139.38
2492.688	2219.63
2495.839	2152.77
2498.989	2105.21
2502.14	2113.98
2505.29	2140.8
2508.439	2181.97
2511.589	2173.74
2514.738	2374.91
2517.887	2321.33
2521.035	2449.39
2524.183	2477.71
2527.331	2487.66
2530.479	2485.67
2533.627	2502.17
