Data from C_2_DEC_ON_6N_Splice17_13-16-54-290.txt Node
Date: Sat Mar 07 13:16:54 EST 2020
User: sa697716
Spectrometer: NQ5500242
Trigger mode: 0
Integration Time (sec): 1.450000E-1
Scans to average: 20
Nonlinearity correction enabled: false
Boxcar width: 5
Storing dark spectrum: false
XAxis mode: Wavelengths
Number of Pixels in Spectrum: 512
>>>>>Begin Spectral Data<<<<<
187.83	116.78
188.298	139.79
188.766	115.57
189.233	108.93
189.701	118.03
190.169	152.77
190.636	190.13
191.104	298.68
191.571	394.06
192.039	245.22
192.506	307.72
192.974	-60.35
193.441	36.51
193.908	18.42
194.375	74.36
194.842	71.09
195.31	150.39
195.777	319.92
196.244	54.77
196.711	40.72
197.177	40.96
197.644	39.56
198.111	39.45
198.578	39.88
199.045	39.42
199.511	38.95
199.978	38.76
200.445	38.76
200.911	38.72
201.378	38.57
201.844	38.21
202.31	38.11
202.777	38.28
203.243	38.2
203.709	37.75
204.176	37.38
204.642	37.31
205.108	37.27
205.574	36.98
206.04	36.4
206.506	35.7
206.972	35.91
207.438	35.37
207.903	34.5
208.369	33.61
208.835	32.74
209.301	32.23
209.766	31.07
210.232	29.95
210.697	29.01
211.163	28.42
211.628	27.99
212.094	26.97
212.559	26.27
213.024	25.57
213.49	24.87
213.955	24.17
214.42	23.52
214.885	23
215.35	22.14
215.815	20.98
216.28	19.31
216.745	17.48
217.21	15.82
217.675	14.16
218.14	12.87
218.604	11.74
219.069	10.65
219.534	9.77
219.998	9.01
220.463	8.42
220.927	7.85
221.392	7.49
221.856	7.16
222.32	6.88
222.785	6.67
223.249	6.44
223.713	6.24
224.177	6.11
224.642	5.93
225.106	5.77
225.57	5.6
226.034	5.5
226.497	5.38
226.961	5.26
227.425	5.14
227.889	5.04
228.353	4.92
228.816	4.83
229.28	4.75
229.744	4.67
230.207	4.6
230.671	4.51
231.134	4.43
231.597	4.37
232.061	4.3
232.524	4.23
232.987	4.16
233.45	4.13
233.914	4.06
234.377	4
234.84	3.95
235.303	3.9
235.766	3.87
236.229	3.83
236.691	3.79
237.154	3.75
237.617	3.71
238.08	3.67
238.542	3.62
239.005	3.59
239.468	3.55
239.93	3.53
240.393	3.5
240.855	3.45
241.317	3.42
241.78	3.38
242.242	3.34
242.704	3.32
243.166	3.3
243.629	3.27
244.091	3.24
244.553	3.21
245.015	3.18
245.477	3.14
245.939	3.12
246.4	3.09
246.862	3.06
247.324	3.04
247.786	3.01
248.247	2.97
248.709	2.93
249.17	2.89
249.632	2.88
250.093	2.85
250.555	2.82
251.016	2.8
251.477	2.77
251.939	2.75
252.4	2.73
252.861	2.72
253.322	2.71
253.783	2.69
254.244	2.68
254.705	2.66
255.166	2.65
255.627	2.63
256.088	2.62
256.549	2.61
257.009	2.59
257.47	2.58
257.931	2.55
258.391	2.52
258.852	2.5
259.312	2.48
259.773	2.45
260.233	2.44
260.694	2.42
261.154	2.4
261.614	2.38
262.074	2.35
262.534	2.33
262.994	2.32
263.455	2.31
263.915	2.29
264.374	2.28
264.834	2.27
265.294	2.25
265.754	2.24
266.214	2.23
266.673	2.21
267.133	2.2
267.593	2.2
268.052	2.19
268.512	2.18
268.971	2.17
269.431	2.16
269.89	2.15
270.349	2.14
270.809	2.13
271.268	2.13
271.727	2.12
272.186	2.12
272.645	2.11
273.104	2.1
273.563	2.1
274.022	2.09
274.481	2.09
274.94	2.09
275.399	2.08
275.857	2.07
276.316	2.06
276.775	2.06
277.233	2.06
277.692	2.06
278.15	2.06
278.609	2.06
279.067	2.06
279.525	2.06
279.984	2.06
280.442	2.06
280.9	2.06
281.358	2.06
281.816	2.06
282.274	2.06
282.732	2.06
283.19	2.06
283.648	2.05
284.106	2.05
284.564	2.04
285.021	2.05
285.479	2.05
285.937	2.04
286.394	2.04
286.852	2.04
287.309	2.02
287.767	2.02
288.224	2.01
288.682	2
289.139	1.99
289.596	1.98
290.053	1.97
290.511	1.95
290.968	1.94
291.425	1.93
291.882	1.93
292.339	1.92
292.796	1.91
293.252	1.91
293.709	1.91
294.166	1.91
294.623	1.9
295.079	1.9
295.536	1.9
295.992	1.89
296.449	1.89
296.905	1.89
297.362	1.89
297.818	1.88
298.274	1.88
298.731	1.88
299.187	1.87
299.643	1.86
300.099	1.86
300.555	1.86
301.011	1.85
301.467	1.85
301.923	1.84
302.379	1.84
302.835	1.84
303.291	1.84
303.746	1.84
304.202	1.85
304.658	1.85
305.113	1.85
305.569	1.85
306.024	1.85
306.479	1.85
306.935	1.85
307.39	1.86
307.845	1.86
308.301	1.86
308.756	1.86
309.211	1.85
309.666	1.86
310.121	1.86
310.576	1.87
311.031	1.86
311.486	1.87
311.94	1.87
312.395	1.87
312.85	1.87
313.305	1.87
313.759	1.87
314.214	1.88
314.668	1.87
315.123	1.87
315.577	1.87
316.032	1.87
316.486	1.86
316.94	1.86
317.394	1.86
317.849	1.85
318.303	1.85
318.757	1.83
319.211	1.83
319.665	1.82
320.119	1.81
320.572	1.81
321.026	1.81
321.48	1.81
321.934	1.8
322.387	1.8
322.841	1.79
323.295	1.8
323.748	1.79
324.202	1.79
324.655	1.79
325.108	1.8
325.562	1.8
326.015	1.8
326.468	1.79
326.921	1.79
327.374	1.79
327.827	1.79
328.28	1.78
328.733	1.79
329.186	1.79
329.639	1.79
330.092	1.78
330.545	1.79
330.997	1.78
331.45	1.79
331.903	1.8
332.355	1.81
332.808	1.81
333.26	1.81
333.713	1.81
334.165	1.81
334.617	1.82
335.069	1.81
335.522	1.82
335.974	1.82
336.426	1.82
336.878	1.81
337.33	1.8
337.782	1.8
338.234	1.8
338.686	1.8
339.137	1.81
339.589	1.8
340.041	1.8
340.493	1.79
340.944	1.78
341.396	1.78
341.847	1.78
342.299	1.77
342.75	1.76
343.201	1.74
343.653	1.74
344.104	1.72
344.555	1.72
345.006	1.71
345.457	1.71
345.908	1.71
346.359	1.71
346.81	1.7
347.261	1.7
347.712	1.7
348.163	1.7
348.613	1.7
349.064	1.71
349.515	1.71
349.965	1.71
350.416	1.7
350.866	1.7
351.317	1.7
351.767	1.7
352.217	1.7
352.668	1.7
353.118	1.71
353.568	1.71
354.018	1.72
354.468	1.72
354.918	1.72
355.368	1.73
355.818	1.74
356.268	1.74
356.718	1.75
357.168	1.74
357.617	1.74
358.067	1.74
358.517	1.75
358.966	1.75
359.416	1.75
359.865	1.75
360.315	1.76
360.764	1.76
361.213	1.76
361.663	1.75
362.112	1.77
362.561	1.78
363.01	1.78
363.459	1.77
363.908	1.77
364.357	1.78
364.806	1.78
365.255	1.78
365.703	1.8
366.152	1.81
366.601	1.82
367.05	1.82
367.498	1.83
367.947	1.83
368.395	1.86
368.844	1.87
369.292	1.87
369.74	1.88
370.189	1.89
370.637	1.89
371.085	1.9
371.533	1.91
371.981	1.92
372.429	1.93
372.877	1.95
373.325	1.95
373.773	1.96
374.221	1.96
374.669	1.96
375.116	1.97
375.564	1.98
376.012	2
376.459	2.01
376.907	2.03
377.354	2.05
377.801	2.06
378.249	2.07
378.696	2.08
379.143	2.11
379.591	2.13
380.038	2.15
380.485	2.17
380.932	2.18
381.379	2.2
381.826	2.21
382.273	2.23
382.72	2.24
383.166	2.26
383.613	2.29
384.06	2.31
384.506	2.33
384.953	2.35
385.4	2.38
385.846	2.42
386.292	2.45
386.739	2.5
387.185	2.53
387.631	2.58
388.078	2.62
388.524	2.65
388.97	2.69
389.416	2.72
389.862	2.78
390.308	2.84
390.754	2.91
391.2	2.96
391.645	3.01
392.091	3.07
392.537	3.12
392.983	3.19
393.428	3.28
393.874	3.38
394.319	3.5
394.765	3.62
395.21	3.72
395.655	3.84
396.101	3.98
396.546	4.12
396.991	4.28
397.436	4.45
397.881	4.64
398.326	4.8
398.771	4.96
399.216	5.11
399.661	5.25
400.106	5.37
400.551	5.47
400.995	5.56
401.44	5.64
401.885	5.72
402.329	5.8
402.774	5.88
403.218	6
403.663	6.1
404.107	6.21
404.551	6.33
404.995	6.43
405.44	6.54
405.884	6.65
406.328	6.78
406.772	6.92
407.216	7.08
407.66	7.21
408.104	7.32
408.547	7.42
408.991	7.53
409.435	7.64
409.879	7.79
410.322	7.94
410.766	8.1
411.209	8.26
411.653	8.4
412.096	8.52
412.54	8.63
412.983	8.76
413.426	8.92
413.869	9.05
414.312	9.19
414.756	9.29
415.199	9.38
415.642	9.46
416.085	9.52
416.527	9.56
416.97	9.58
417.413	9.58
417.856	9.57
418.298	9.55
418.741	9.55
419.184	9.57
419.626	9.6
420.069	9.66
420.511	9.71
420.953	9.77
421.396	9.86
421.838	9.96
422.28	10.1
422.722	10.23
423.164	10.34
423.606	10.45
424.048	10.53
424.49	10.58
424.932	10.54
425.374	10.42
425.816	10.25
426.258	10.06
426.699	9.95
427.141	9.95
427.582	10.05
428.024	10.19
428.465	10.33
428.907	10.44
429.348	10.55
429.789	10.72
430.231	11.03
430.672	11.44
431.113	11.89
431.554	12.32
431.995	12.62
432.436	12.85
432.877	13.02
433.318	13.19
433.759	13.38
434.2	13.62
434.64	13.9
435.081	14.14
435.522	14.37
435.962	14.55
436.403	14.71
436.843	14.84
437.284	14.97
437.724	15.16
438.164	15.36
438.604	15.6
439.045	15.83
439.485	16.05
439.925	16.23
440.365	16.37
440.805	16.49
441.245	16.62
441.685	16.75
442.125	16.87
442.564	17.03
443.004	17.19
443.444	17.35
443.883	17.54
444.323	17.72
444.762	17.89
445.202	18.09
445.641	18.35
446.081	18.64
446.52	18.94
446.959	19.24
447.398	19.43
447.837	19.56
448.276	19.61
448.716	19.66
449.154	19.7
449.593	19.75
450.032	19.77
450.471	19.72
450.91	19.65
451.349	19.58
451.787	19.54
452.226	19.53
452.664	19.54
453.103	19.57
453.541	19.58
453.98	19.57
454.418	19.54
454.856	19.49
455.295	19.46
455.733	19.43
456.171	19.42
456.609	19.41
457.047	19.39
457.485	19.41
457.923	19.46
458.361	19.53
458.798	19.61
459.236	19.71
459.674	19.81
460.111	19.9
460.549	20
460.987	20.1
461.424	20.2
461.862	20.3
462.299	20.39
462.736	20.49
463.173	20.6
463.611	20.73
464.048	20.9
464.485	21.11
464.922	21.33
465.359	21.55
465.796	21.74
466.233	21.92
466.67	22.14
467.106	22.41
467.543	22.69
467.98	22.96
468.416	23.18
468.853	23.39
469.29	23.59
469.726	23.77
470.162	23.99
470.599	24.22
471.035	24.41
471.471	24.56
471.907	24.63
472.344	24.68
472.78	24.73
473.216	24.82
473.652	24.91
474.088	24.95
474.523	25.01
474.959	25.02
475.395	25.02
475.831	25.03
476.266	25.04
476.702	25.05
477.138	25.07
477.573	25.06
478.008	25.03
478.444	24.94
478.879	24.84
479.314	24.72
479.75	24.57
480.185	24.4
480.62	24.2
481.055	23.87
481.49	23.45
481.925	22.99
482.36	22.57
482.795	22.23
483.229	21.95
483.664	21.77
484.099	21.59
484.534	21.44
484.968	21.35
485.403	21.33
485.837	21.43
486.271	21.62
486.706	21.82
487.14	21.96
487.574	22.02
488.009	22.06
488.443	22.08
488.877	22.13
489.311	22.18
489.745	22.23
490.179	22.29
490.613	22.34
491.046	22.39
491.48	22.46
491.914	22.6
492.348	22.76
492.781	22.94
493.215	23.07
493.648	23.17
494.082	23.25
494.515	23.33
494.948	23.4
495.382	23.48
495.815	23.54
496.248	23.6
496.681	23.63
497.114	23.64
497.547	23.67
497.98	23.73
498.413	23.85
498.846	24
499.279	24.13
499.711	24.25
500.144	24.38
500.577	24.58
501.009	24.81
501.442	25.1
501.874	25.41
502.306	25.69
502.739	25.95
503.171	26.18
503.603	26.39
504.036	26.64
504.468	26.91
504.9	27.18
505.332	27.45
505.764	27.68
506.196	27.89
506.627	28.13
507.059	28.41
507.491	28.7
507.923	28.99
508.354	29.31
508.786	29.59
509.217	29.84
509.649	30.08
510.08	30.31
510.512	30.58
510.943	30.85
511.374	31.11
511.805	31.28
512.237	31.36
512.668	31.43
513.099	31.49
513.53	31.59
513.961	31.74
514.391	31.93
514.822	32.2
515.253	32.45
515.684	32.77
516.114	33.1
516.545	33.5
516.975	34.05
517.406	34.63
517.836	35.19
518.267	35.71
518.697	36.19
519.127	36.68
519.558	37.15
519.988	37.6
520.418	38
520.848	38.38
521.278	38.72
521.708	39.01
522.138	39.18
522.567	39.32
522.997	39.5
523.427	39.73
523.857	39.96
524.286	40.17
524.716	40.43
525.145	40.64
525.575	40.85
526.004	41.11
526.433	41.4
526.863	41.79
527.292	42.19
527.721	42.5
528.15	42.7
528.579	42.83
529.008	42.93
529.437	42.98
529.866	43.04
530.295	43.13
530.724	43.21
531.152	43.28
531.581	43.34
532.01	43.39
532.438	43.45
532.867	43.54
533.295	43.67
533.723	43.77
534.152	43.85
534.58	43.91
535.008	43.89
535.436	43.83
535.865	43.71
536.293	43.61
536.721	43.55
537.149	43.55
537.576	43.58
538.004	43.59
538.432	43.59
538.86	43.61
539.287	43.66
539.715	43.79
540.143	43.93
540.57	44.11
540.998	44.3
541.425	44.48
541.852	44.64
542.28	44.77
542.707	44.88
543.134	45
543.561	45.11
543.988	45.22
544.415	45.3
544.842	45.41
545.269	45.53
545.696	45.64
546.123	45.74
546.549	45.84
546.976	45.95
547.403	46.09
547.829	46.21
548.256	46.33
548.682	46.41
549.108	46.53
549.535	46.63
549.961	46.7
550.387	46.77
550.813	46.86
551.24	46.93
551.666	46.96
552.092	46.97
552.518	46.94
552.943	46.91
553.369	46.88
553.795	46.79
554.221	46.63
554.646	46.47
555.072	46.27
555.498	46.06
555.923	45.89
556.349	45.73
556.774	45.59
557.199	45.45
557.625	45.29
558.05	45.16
558.475	45.04
558.9	44.96
559.325	44.88
559.75	44.77
560.175	44.64
560.6	44.47
561.025	44.26
561.449	44.02
561.874	43.76
562.299	43.53
562.723	43.27
563.148	43.01
563.572	42.71
563.997	42.41
564.421	42.12
564.846	41.83
565.27	41.53
565.694	41.26
566.118	40.96
566.542	40.67
566.966	40.36
567.39	40.08
567.814	39.84
568.238	39.61
568.662	39.42
569.086	39.25
569.509	39.08
569.933	38.91
570.357	38.75
570.78	38.61
571.204	38.48
571.627	38.38
572.05	38.24
572.474	38.1
572.897	37.97
573.32	37.8
573.743	37.62
574.166	37.44
574.589	37.28
575.012	37.15
575.435	37.06
575.858	36.98
576.281	36.91
576.704	36.85
577.126	36.79
577.549	36.75
577.972	36.76
578.394	36.76
578.817	36.8
579.239	36.83
579.661	36.86
580.084	36.87
580.506	36.88
580.928	36.86
581.35	36.84
581.772	36.79
582.194	36.74
582.616	36.71
583.038	36.68
583.46	36.61
583.882	36.53
584.303	36.39
584.725	36.17
585.147	35.94
585.568	35.79
585.99	35.67
586.411	35.61
586.833	35.56
587.254	35.48
587.675	35.43
588.096	35.41
588.518	35.42
588.939	35.49
589.36	35.62
589.781	35.78
590.202	35.9
590.623	35.97
591.043	35.99
591.464	35.99
591.885	36.01
592.305	36.01
592.726	36.01
593.147	35.99
593.567	35.96
593.987	35.92
594.408	35.87
594.828	35.82
595.248	35.78
595.669	35.73
596.089	35.67
596.509	35.6
596.929	35.52
597.349	35.41
597.769	35.29
598.189	35.19
598.608	35.13
599.028	35.07
599.448	35.01
599.867	34.95
600.287	34.91
600.706	34.87
601.126	34.83
601.545	34.78
601.965	34.77
602.384	34.76
602.803	34.73
603.222	34.68
603.641	34.62
604.061	34.56
604.48	34.47
604.898	34.38
605.317	34.29
605.736	34.2
606.155	34.11
606.574	34
606.992	33.91
607.411	33.82
607.829	33.7
608.248	33.61
608.666	33.51
609.085	33.42
609.503	33.32
609.921	33.23
610.339	33.14
610.758	33.06
611.176	32.95
611.594	32.84
612.012	32.7
612.43	32.58
612.847	32.46
613.265	32.35
613.683	32.27
614.101	32.21
614.518	32.14
614.936	32.06
615.353	31.99
615.771	31.97
616.188	31.95
616.606	31.94
617.023	31.94
617.44	31.92
617.857	31.88
618.274	31.81
618.691	31.74
619.108	31.66
619.525	31.58
619.942	31.47
620.359	31.34
620.776	31.19
621.192	31.07
621.609	30.97
622.026	30.86
622.442	30.78
622.859	30.71
623.275	30.61
623.691	30.51
624.108	30.42
624.524	30.37
624.94	30.32
625.356	30.27
625.772	30.21
626.188	30.16
626.604	30.1
627.02	30.02
627.436	29.96
627.852	29.93
628.268	29.9
628.683	29.89
629.099	29.86
629.514	29.85
629.93	29.85
630.345	29.86
630.761	29.84
631.176	29.84
631.591	29.82
632.007	29.79
632.422	29.76
632.837	29.74
633.252	29.7
633.667	29.65
634.082	29.59
634.497	29.54
634.911	29.46
635.326	29.36
635.741	29.25
636.155	29.15
636.57	29.04
636.984	28.91
637.399	28.76
637.813	28.61
638.228	28.46
638.642	28.3
639.056	28.13
639.47	27.99
639.884	27.86
640.298	27.72
640.712	27.58
641.126	27.44
641.54	27.28
641.954	27.15
642.368	26.99
642.781	26.85
643.195	26.72
643.609	26.56
644.022	26.41
644.436	26.26
644.849	26.09
645.262	25.91
645.676	25.76
646.089	25.65
646.502	25.56
646.915	25.47
647.328	25.37
647.741	25.29
648.154	25.22
648.567	25.17
648.98	25.11
649.393	25.08
649.805	25.09
650.218	25.05
650.631	24.97
651.043	24.84
651.456	24.63
651.868	24.35
652.28	24.03
652.693	23.77
653.105	23.55
653.517	23.39
653.929	23.27
654.341	23.15
654.753	23.07
655.165	23.02
655.577	23.01
655.989	23.1
656.401	23.26
656.813	23.47
657.224	23.59
657.636	23.68
658.047	23.74
658.459	23.73
658.87	23.69
659.282	23.64
659.693	23.58
660.104	23.5
660.515	23.42
660.926	23.33
661.338	23.23
661.749	23.15
662.159	23.03
662.57	22.92
662.981	22.81
663.392	22.71
663.803	22.61
664.213	22.52
664.624	22.44
665.035	22.35
665.445	22.27
665.855	22.19
666.266	22.09
666.676	22.01
667.086	21.91
667.497	21.83
667.907	21.76
668.317	21.65
668.727	21.57
669.137	21.48
669.547	21.43
669.956	21.36
670.366	21.29
670.776	21.24
671.186	21.2
671.595	21.15
672.005	21.11
672.414	21.06
672.824	21.04
673.233	21.02
673.642	20.99
674.052	20.96
674.461	20.94
674.87	20.92
675.279	20.92
675.688	20.91
676.097	20.91
676.506	20.93
676.915	20.95
677.323	20.98
677.732	21.01
678.141	21.04
678.549	21.06
678.958	21.1
679.366	21.13
679.775	21.16
680.183	21.2
680.592	21.25
681	21.32
681.408	21.37
681.816	21.4
682.224	21.34
682.632	21.19
683.04	20.99
683.448	20.81
683.856	20.66
684.264	20.57
684.671	20.5
685.079	20.43
685.487	20.4
685.894	20.43
686.302	20.55
686.709	20.77
687.116	21.16
687.524	21.65
687.931	22.17
688.338	22.71
688.745	23.24
689.152	23.78
689.559	24.38
689.966	24.95
690.373	25.48
690.78	26.01
691.187	26.56
691.593	27.08
692	27.61
692.407	28.15
692.813	28.69
693.22	29.2
693.626	29.72
694.032	30.23
694.439	30.73
694.845	31.24
695.251	31.74
695.657	32.23
696.063	32.72
696.469	33.17
696.875	33.61
697.281	34.02
697.687	34.42
698.093	34.83
698.498	35.22
698.904	35.64
699.31	36.05
699.715	36.47
700.12	36.89
700.526	37.32
700.931	37.75
701.337	38.18
701.742	38.59
702.147	39.01
702.552	39.42
702.957	39.81
703.362	40.19
703.767	40.54
704.172	40.89
704.577	41.22
704.981	41.53
705.386	41.83
705.791	42.12
706.195	42.42
706.6	42.73
707.004	43
707.408	43.28
707.813	43.57
708.217	43.85
708.621	44.12
709.025	44.35
709.43	44.61
709.834	44.88
710.237	45.09
710.641	45.3
711.045	45.51
711.449	45.74
711.853	45.94
712.256	46.05
712.66	46.15
713.064	46.18
713.467	46.19
713.87	46.16
714.274	46.06
714.677	45.97
715.08	45.89
715.484	45.79
715.887	45.68
716.29	45.58
716.693	45.6
717.096	45.7
717.499	45.88
717.901	46.14
718.304	46.41
718.707	46.71
719.109	47
719.512	47.23
719.915	47.46
720.317	47.66
720.719	47.86
721.122	48.01
721.524	48.1
721.926	48.19
722.328	48.23
722.731	48.22
723.133	48.28
723.535	48.33
723.937	48.42
724.338	48.5
724.74	48.6
725.142	48.77
725.544	48.85
725.945	48.94
726.347	48.99
726.748	49.04
727.15	49.14
727.551	49.23
727.952	49.33
728.354	49.47
728.755	49.58
729.156	49.72
729.557	49.81
729.958	49.97
730.359	50.09
730.76	50.23
731.161	50.35
731.562	50.46
731.962	50.5
732.363	50.59
732.763	50.65
733.164	50.71
733.564	50.76
733.965	50.76
734.365	50.74
734.766	50.73
735.166	50.74
735.566	50.73
735.966	50.74
736.366	50.74
736.766	50.71
737.166	50.67
737.566	50.64
737.966	50.59
738.365	50.56
738.765	50.55
739.165	50.56
739.564	50.54
739.964	50.55
740.363	50.53
740.763	50.55
741.162	50.56
741.561	50.56
741.96	50.55
742.36	50.55
742.759	50.58
743.158	50.56
743.557	50.53
743.955	50.55
744.354	50.52
744.753	50.49
745.152	50.46
745.55	50.43
745.949	50.42
746.348	50.4
746.746	50.37
747.144	50.31
747.543	50.27
747.941	50.23
748.339	50.12
748.737	50.06
749.136	50.01
749.534	49.95
749.932	49.9
750.33	49.82
750.727	49.8
751.125	49.74
751.523	49.68
751.921	49.63
752.318	49.58
752.716	49.56
753.113	49.52
753.511	49.48
753.908	49.44
754.305	49.37
754.703	49.19
755.1	48.82
755.497	48.22
755.894	47.34
756.291	46.3
756.688	45.18
757.085	44.09
757.482	43.12
757.878	42.19
758.275	41.3
758.672	40.4
759.068	39.6
759.465	38.98
759.861	38.68
760.258	38.73
760.654	39.01
761.05	39.43
761.447	39.89
761.843	40.29
762.239	40.72
762.635	41.19
763.031	41.76
763.427	42.42
763.822	43.09
764.218	43.75
764.614	44.37
765.01	44.92
765.405	45.44
765.801	45.88
766.196	46.3
766.592	46.65
766.987	46.92
767.382	47.14
767.778	47.27
768.173	47.4
768.568	47.46
768.963	47.5
769.358	47.56
769.753	47.58
770.148	47.61
770.542	47.6
770.937	47.54
771.332	47.48
771.726	47.46
772.121	47.43
772.515	47.39
772.91	47.36
773.304	47.34
773.699	47.27
774.093	47.21
774.487	47.16
774.881	47.13
775.275	47.1
775.669	47.06
776.063	46.99
776.457	46.93
776.851	46.86
777.245	46.77
777.638	46.72
778.032	46.71
778.425	46.68
778.819	46.62
779.212	46.56
779.606	46.52
779.999	46.48
780.392	46.44
780.786	46.35
781.179	46.32
781.572	46.29
781.965	46.23
782.358	46.17
782.751	46.09
783.143	46
783.536	45.96
783.929	45.89
784.322	45.84
784.714	45.78
785.107	45.75
785.499	45.66
785.891	45.58
786.284	45.51
786.676	45.43
787.068	45.35
787.46	45.27
787.852	45.16
788.245	45.08
788.636	44.95
789.028	44.83
789.42	44.71
789.812	44.63
790.204	44.53
790.595	44.43
790.987	44.34
791.378	44.28
791.77	44.23
792.161	44.14
792.553	44.06
792.944	44.01
793.335	43.98
793.726	43.95
794.117	43.86
794.508	43.81
794.899	43.75
795.29	43.66
795.681	43.56
796.072	43.47
796.463	43.44
796.853	43.36
797.244	43.29
797.634	43.21
798.025	43.13
798.415	43.07
798.806	42.95
799.196	42.87
799.586	42.81
799.976	42.75
800.366	42.66
800.756	42.55
801.146	42.44
801.536	42.37
801.926	42.26
802.316	42.17
802.706	42.09
803.095	42.05
803.485	41.96
803.874	41.87
804.264	41.79
804.653	41.71
805.043	41.63
805.432	41.58
805.821	41.47
806.21	41.39
806.599	41.3
806.988	41.19
807.377	41.07
807.766	40.98
808.155	40.85
808.544	40.74
808.933	40.61
809.321	40.47
809.71	40.33
810.098	40.2
810.487	40.04
810.875	39.88
811.264	39.71
811.652	39.56
812.04	39.38
812.428	39.23
812.816	39.06
813.204	38.89
813.592	38.74
813.98	38.6
814.368	38.47
814.756	38.36
815.144	38.24
815.531	38.14
815.919	38.04
816.306	37.97
816.694	37.92
817.081	37.89
817.469	37.88
817.856	37.83
818.243	37.75
818.63	37.68
819.017	37.57
819.404	37.5
819.791	37.43
820.178	37.39
820.565	37.34
820.952	37.28
821.339	37.22
821.725	37.16
822.112	37.11
822.498	37.11
822.885	37.1
823.271	37.09
823.657	37.03
824.044	37
824.43	36.94
824.816	36.85
825.202	36.77
825.588	36.68
825.974	36.59
826.36	36.52
826.746	36.44
827.132	36.35
827.517	36.31
827.903	36.29
828.289	36.23
828.674	36.18
829.06	36.13
829.445	36.08
829.83	36.04
830.216	36
830.601	35.97
830.986	35.93
831.371	35.91
831.756	35.89
832.141	35.84
832.526	35.82
832.911	35.78
833.295	35.78
833.68	35.75
834.065	35.75
834.449	35.73
834.834	35.7
835.218	35.67
835.603	35.65
835.987	35.6
836.371	35.58
836.755	35.53
837.139	35.5
837.524	35.46
837.908	35.46
838.291	35.43
838.675	35.39
839.059	35.36
839.443	35.33
839.827	35.27
840.21	35.23
840.594	35.2
840.977	35.18
841.361	35.17
841.744	35.13
842.127	35.07
842.511	35.03
842.894	34.99
843.277	34.96
843.66	34.92
844.043	34.92
844.426	34.91
844.809	34.87
845.191	34.86
845.574	34.79
845.957	34.75
846.339	34.71
846.722	34.68
847.104	34.67
847.487	34.63
847.869	34.6
848.252	34.57
848.634	34.54
849.016	34.51
849.398	34.49
849.78	34.47
850.162	34.4
850.544	34.36
850.926	34.32
851.307	34.27
851.689	34.23
852.071	34.21
852.452	34.17
852.834	34.14
853.215	34.12
853.597	34.11
853.978	34.1
854.359	34.12
854.741	34.14
855.122	34.13
855.503	34.13
855.884	34.12
856.265	34.11
856.646	34.1
857.026	34.07
857.407	34.04
857.788	34.01
858.169	33.99
858.549	33.97
858.93	33.96
859.31	33.95
859.69	33.93
860.071	33.93
860.451	33.9
860.831	33.89
861.211	33.87
861.591	33.83
861.971	33.79
862.351	33.76
862.731	33.74
863.111	33.68
863.491	33.64
863.87	33.6
864.25	33.57
864.629	33.55
865.009	33.52
865.388	33.51
865.768	33.5
866.147	33.49
866.526	33.49
866.905	33.49
867.284	33.51
867.663	33.51
868.042	33.51
868.421	33.5
868.8	33.48
869.179	33.48
869.558	33.48
869.936	33.47
870.315	33.46
870.693	33.44
871.072	33.45
871.45	33.42
871.828	33.41
872.207	33.41
872.585	33.39
872.963	33.38
873.341	33.36
873.719	33.34
874.097	33.33
874.475	33.32
874.853	33.31
875.23	33.3
875.608	33.3
875.986	33.3
876.363	33.3
876.741	33.29
877.118	33.29
877.495	33.29
877.873	33.26
878.25	33.28
878.627	33.28
879.004	33.27
879.381	33.25
879.758	33.23
880.135	33.2
880.512	33.17
880.889	33.16
881.265	33.14
881.642	33.14
882.019	33.14
882.395	33.12
882.772	33.09
883.148	33.06
883.524	33.04
883.901	33.01
884.277	32.99
884.653	32.99
885.029	32.97
885.405	32.98
885.781	32.96
886.157	32.94
886.532	32.94
886.908	32.94
887.284	32.93
887.659	32.93
888.035	32.91
888.411	32.91
888.786	32.89
889.161	32.88
889.537	32.84
889.912	32.81
890.287	32.78
890.662	32.75
891.037	32.73
891.412	32.72
891.787	32.68
892.162	32.67
892.536	32.63
892.911	32.62
893.286	32.61
893.66	32.58
894.035	32.57
894.409	32.55
894.784	32.53
895.158	32.48
895.532	32.47
895.906	32.45
896.281	32.43
896.655	32.42
897.029	32.4
897.402	32.37
897.776	32.36
898.15	32.33
898.524	32.31
898.898	32.3
899.271	32.31
899.645	32.31
900.018	32.32
900.392	32.33
900.765	32.33
901.138	32.34
901.511	32.34
901.884	32.35
902.258	32.38
902.631	32.4
903.003	32.41
903.376	32.4
903.749	32.37
904.122	32.38
904.495	32.37
904.867	32.37
905.24	32.35
905.612	32.34
905.985	32.31
906.357	32.28
906.729	32.25
907.102	32.25
907.474	32.25
907.846	32.24
908.218	32.22
908.59	32.2
908.962	32.18
909.334	32.2
909.705	32.21
910.077	32.24
910.449	32.24
910.82	32.24
911.192	32.22
911.563	32.2
911.935	32.2
912.306	32.19
912.677	32.2
913.048	32.22
913.419	32.19
913.79	32.16
914.161	32.15
914.532	32.14
914.903	32.14
915.274	32.15
915.645	32.17
916.015	32.19
916.386	32.18
916.756	32.18
917.127	32.17
917.497	32.18
917.868	32.21
918.238	32.2
918.608	32.2
918.978	32.21
919.348	32.22
919.718	32.2
920.088	32.2
920.458	32.22
920.828	32.21
921.198	32.19
921.567	32.19
921.937	32.17
922.306	32.17
922.676	32.14
923.045	32.13
923.415	32.1
923.784	32.09
924.153	32.09
924.522	32.05
924.891	32.03
925.26	32.01
925.629	31.97
925.998	31.94
926.367	31.93
926.736	31.93
927.104	31.91
927.473	31.87
927.842	31.83
928.21	31.79
928.578	31.75
928.947	31.74
929.315	31.7
929.683	31.69
930.051	31.64
930.42	31.59
930.788	31.54
931.156	31.51
931.523	31.48
931.891	31.49
932.259	31.44
932.627	31.45
932.994	31.41
933.362	31.41
933.729	31.41
934.097	31.42
934.464	31.41
934.831	31.38
935.199	31.4
935.566	31.42
935.933	31.37
936.3	31.38
936.667	31.35
937.034	31.43
937.401	31.45
937.767	31.44
938.134	31.42
938.501	31.45
938.867	31.55
939.234	31.52
939.6	31.55
939.967	31.62
940.333	31.61
940.699	31.64
941.065	31.54
941.431	31.51
941.798	31.47
942.163	31.47
942.529	31.44
942.895	31.38
943.261	31.4
943.627	31.34
943.992	31.3
944.358	31.33
944.723	31.32
945.089	31.29
945.454	31.29
945.82	31.31
946.185	31.29
946.55	31.23
946.915	31.23
947.28	31.21
947.645	31.19
948.01	31.19
948.375	31.14
948.74	31.13
949.104	31.17
949.469	31.19
949.834	31.14
950.198	31.16
950.562	31.16
950.927	31.12
951.291	31.06
951.655	31.06
952.02	31.01
952.384	30.99
952.748	30.97
953.112	30.95
953.476	30.89
953.839	30.89
954.203	30.83
954.567	30.83
954.931	30.79
955.294	30.83
955.658	30.82
956.021	30.85
956.385	30.84
956.748	30.8
957.111	30.75
957.474	30.74
957.837	30.73
958.2	30.74
958.563	30.76
958.926	30.81
959.289	30.79
959.652	30.77
960.015	30.77
960.377	30.77
960.74	30.8
961.102	30.8
961.465	30.87
961.827	30.91
962.189	30.92
962.552	30.86
962.914	30.83
963.276	30.85
963.638	30.88
964	30.88
964.362	30.9
964.724	30.89
965.085	30.93
965.447	30.93
965.809	30.89
966.17	30.87
966.532	30.92
966.893	30.95
967.255	30.91
967.616	30.92
967.977	30.91
968.338	30.92
968.699	30.9
969.061	30.9
969.421	30.88
969.782	30.96
970.143	31
970.504	31.04
970.865	31.07
971.225	31.07
971.586	31.04
971.946	31.06
972.307	31.03
972.667	31.06
973.027	31.05
973.388	31.06
973.748	31.06
974.108	31.12
974.468	31.06
974.828	31.08
975.188	31.09
975.548	31.11
975.907	31.1
976.267	31.12
976.627	31.12
976.986	31.11
977.346	31.07
977.705	31.01
978.064	30.96
978.424	30.97
978.783	30.97
979.142	30.99
979.501	30.98
979.86	31.04
980.219	31.1
980.578	31.12
980.937	31.11
981.296	31.16
981.654	31.21
982.013	31.25
982.371	31.25
982.73	31.25
983.088	31.26
983.447	31.29
983.805	31.27
984.163	31.19
984.521	31.14
984.879	31.15
985.237	31.19
985.595	31.19
985.953	31.12
986.311	31.09
986.669	31.08
987.026	31.05
987.384	31.09
987.741	31.05
988.099	31.09
988.456	31.13
988.814	31.16
989.171	31.1
989.528	31.08
989.885	31.11
990.242	31.07
990.599	31.12
990.956	31.17
991.313	31.15
991.67	31.19
992.027	31.26
992.383	31.26
992.74	31.35
993.096	31.37
993.453	31.34
993.809	31.4
994.165	31.47
994.522	31.5
994.878	31.53
995.234	31.57
995.59	31.53
995.946	31.47
996.302	31.52
996.658	31.44
997.013	31.52
997.369	31.6
997.725	31.59
998.08	31.72
998.436	31.74
998.791	31.74
999.147	31.71
999.502	31.77
999.857	31.74
1000.212	31.68
1000.567	31.73
1000.922	31.63
1001.277	31.57
1001.632	31.59
1001.987	31.52
1002.342	31.36
1002.696	31.39
1003.051	31.54
1003.406	31.66
1003.76	31.76
1004.114	31.83
1004.469	31.87
1004.823	32.15
1005.177	32.15
1005.531	32.18
1005.885	32.21
1006.239	32.32
1006.593	32.38
1006.947	32.31
1007.301	32.14
1007.655	32.13
1008.008	32.21
1008.362	32.28
1008.715	32.23
1009.069	32.34
1009.422	32.3
1009.776	32.27
1010.129	32.3
1010.482	32.15
1010.835	32.19
1011.188	32.43
1011.541	32.55
1011.894	32.53
1012.247	32.42
1012.6	32.38
1012.952	32.33
1013.305	32.54
1013.657	32.69
1014.01	32.7
1014.362	32.87
1014.715	33.04
1015.067	33.03
1015.419	33.1
1015.771	33.06
1016.123	33.25
1016.475	33.28
1016.827	33.49
1017.179	33.49
1017.531	33.51
1017.883	33.6
1018.234	33.72
1018.586	33.77
1018.938	33.95
1019.289	33.82
1019.64	33.87
1019.992	33.8
1020.343	33.8
1020.694	33.77
1021.045	33.71
1021.396	33.72
1021.747	33.73
1022.098	33.85
1022.449	33.68
1022.8	33.68
1023.151	33.81
1023.501	34.05
1023.852	34.03
1024.202	33.92
1024.553	33.67
1024.903	33.98
1025.253	34.12
1025.604	34.23
1025.954	33.99
1026.304	33.98
1026.654	33.88
1027.004	33.94
1027.354	33.9
1027.703	33.72
1028.053	34.02
1028.403	34.26
1028.753	33.99
1029.102	34.16
1029.452	34.37
1029.801	34.79
1030.15	34.9
1030.499	34.94
897.758	1333.01
901.051	1336.9
904.343	1335.84
907.636	1360.24
910.928	1320.59
914.22	1323.35
917.511	1304.98
920.803	1248.25
924.094	1241.69
927.384	1211.9
930.675	1166.54
933.965	1159.81
937.255	1092.03
940.544	1048.04
943.834	994.83
947.123	989.64
950.411	927.66
953.7	910.33
956.988	858.38
960.276	825.3
963.563	814.06
966.851	782.17
970.138	775.88
973.424	752.88
976.711	755.27
979.997	721.1
983.283	715.8
986.568	702.04
989.853	682.12
993.138	671.08
996.423	642.5
999.708	624.66
1002.992	618.73
1006.275	591.42
1009.559	585.63
1012.842	564.02
1016.125	548.96
1019.408	539.19
1022.69	532.91
1025.972	519.88
1029.254	508.51
1032.536	501.43
1035.817	490.09
1039.098	483.3
1042.379	474.15
1045.659	469.21
1048.939	459.01
1052.219	449.05
1055.498	442.9
1058.778	431.92
1062.057	423.05
1065.335	418.31
1068.614	413.56
1071.892	409.36
1075.17	396.05
1078.447	387.28
1081.724	384.1
1085.001	381.96
1088.278	374.64
1091.554	366.77
1094.83	367.33
1098.106	364.24
1101.382	361.11
1104.657	358.47
1107.932	352.66
1111.206	356.01
1114.481	347.59
1117.755	344.54
1121.029	340.92
1124.302	340.14
1127.575	334.26
1130.848	330.2
1134.121	326.5
1137.393	324.86
1140.665	317.85
1143.937	315.46
1147.208	313.36
1150.48	312.42
1153.75	308.32
1157.021	304.21
1160.291	304.45
1163.561	301.13
1166.831	300.5
1170.101	299.11
1173.37	298.25
1176.639	299.29
1179.907	296.88
1183.176	292.56
1186.444	293.7
1189.711	293.1
1192.979	292.29
1196.246	289.87
1199.513	290.83
1202.78	288.68
1206.046	288.58
1209.312	285.34
1212.578	285.49
1215.843	288.11
1219.108	287.21
1222.373	292.04
1225.638	294.4
1228.902	297.69
1232.166	299.26
1235.43	301.05
1238.693	305.98
1241.956	306.55
1245.219	312.28
1248.482	312.17
1251.744	311.72
1255.006	311.92
1258.268	303.68
1261.529	300.71
1264.79	299.31
1268.051	297.07
1271.312	293.75
1274.572	289.56
1277.832	288.02
1281.092	282.72
1284.351	280.34
1287.61	280.41
1290.869	276.6
1294.128	275.53
1297.386	275.84
1300.644	272.32
1303.902	272.54
1307.159	272.63
1310.416	272.43
1313.673	271.9
1316.93	274.59
1320.186	275.01
1323.442	275.69
1326.697	280.92
1329.953	281.12
1333.208	281.4
1336.463	285.14
1339.717	286.04
1342.972	288.09
1346.226	291.62
1349.479	291.76
1352.733	293.68
1355.986	295.12
1359.238	294.49
1362.491	295.53
1365.743	298.18
1368.995	298.81
1372.247	298.58
1375.498	298.51
1378.749	300.82
1382	296.22
1385.251	296.97
1388.501	295.3
1391.751	295.65
1395	294.43
1398.25	292.11
1401.499	291.13
1404.748	290.31
1407.996	287.49
1411.244	285.59
1414.492	283.59
1417.74	281.43
1420.987	276.87
1424.234	275.94
1427.481	271.81
1430.728	271.39
1433.974	268.84
1437.22	266.18
1440.465	265.61
1443.711	262.8
1446.956	261.25
1450.201	257.98
1453.445	255.17
1456.689	254.57
1459.933	249.8
1463.177	248.19
1466.42	244.26
1469.663	241.05
1472.906	239.46
1476.148	232.99
1479.391	231.04
1482.633	228.84
1485.874	224.9
1489.115	223.73
1492.356	221.63
1495.597	221.7
1498.838	218.24
1502.078	217
1505.318	216.23
1508.557	215.89
1511.797	215.72
1515.036	213.95
1518.274	213.42
1521.513	212.33
1524.751	212.41
1527.989	211.47
1531.227	210.25
1534.464	211.07
1537.701	209.67
1540.938	209.25
1544.174	207.01
1547.41	206.79
1550.646	205.36
1553.882	205.5
1557.117	203.32
1560.352	201.68
1563.587	201.05
1566.821	199.84
1570.055	198.06
1573.289	196.31
1576.523	196
1579.756	194.37
1582.989	193.43
1586.222	193.41
1589.454	192.2
1592.686	193.45
1595.918	192.57
1599.15	192.19
1602.381	192.59
1605.612	192.38
1608.843	193.46
1612.073	193.13
1615.303	194.57
1618.533	194.44
1621.762	194.3
1624.992	194.63
1628.221	194.09
1631.449	194.39
1634.678	193.64
1637.906	194.53
1641.134	194.38
1644.361	194.1
1647.588	195.13
1650.815	194.01
1654.042	193.52
1657.269	194.78
1660.495	194.59
1663.72	194.55
1666.946	195.07
1670.171	195.93
1673.396	195.23
1676.621	195.14
1679.845	195.72
1683.069	194.76
1686.293	196.64
1689.517	198.01
1692.74	197.52
1695.963	198.25
1699.185	199.91
1702.408	199.88
1705.63	200.29
1708.852	200.97
1712.073	201.85
1715.294	201.94
1718.515	203.69
1721.736	202.56
1724.956	202.93
1728.176	203.44
1731.396	205.26
1734.616	203.91
1737.835	204.72
1741.054	203.85
1744.272	204.41
1747.491	206
1750.709	206.19
1753.927	205.77
1757.144	205.35
1760.361	205.83
1763.578	206.29
1766.795	205.58
1770.011	207.54
1773.227	207.32
1776.443	209.76
1779.658	210.59
1782.874	210.07
1786.089	210.87
1789.303	211.87
1792.518	214.82
1795.732	214.6
1798.945	216.3
1802.159	216.42
1805.372	217
1808.585	221.03
1811.797	221.38
1815.01	221.66
1818.222	223.44
1821.434	225.48
1824.645	225.89
1827.856	229.32
1831.067	231.26
1834.278	230.84
1837.488	232.47
1840.698	234.06
1843.908	231.78
1847.117	233.3
1850.326	234.97
1853.535	234.14
1856.744	237.16
1859.952	236.79
1863.16	234.49
1866.368	233.08
1869.575	235.78
1872.782	232.41
1875.989	230.92
1879.196	230
1882.402	228.59
1885.608	228.87
1888.814	229.33
1892.019	228.27
1895.224	227.92
1898.429	227.41
1901.634	229.18
1904.838	228.38
1908.042	231.13
1911.246	232.15
1914.449	233.86
1917.652	233.58
1920.855	233.86
1924.058	233.76
1927.26	232.79
1930.462	233.81
1933.664	235.93
1936.865	234.18
1940.066	233.75
1943.267	231.96
1946.467	231.81
1949.668	233.53
1952.868	236.08
1956.067	235.74
1959.267	235.97
1962.466	236.53
1965.665	235.8
1968.863	236.19
1972.061	239.41
1975.259	242.17
1978.457	244.24
1981.654	246.38
1984.852	246.34
1988.048	245.64
1991.245	248.05
1994.441	250.73
1997.637	252.37
2000.833	257.29
2004.028	260.92
2007.223	262.12
2010.418	264.48
2013.613	269.26
2016.807	272.22
2020.001	274.1
2023.194	279.09
2026.388	285.08
2029.581	291.86
2032.774	295.03
2035.966	299.86
2039.158	300.7
2042.35	306.73
2045.542	308.13
2048.733	313.3
2051.924	317.77
2055.115	323.11
2058.306	323.07
2061.496	326.06
2064.686	326.19
2067.875	331.92
2071.065	333.38
2074.254	331.95
2077.442	335.56
2080.631	338.1
2083.819	340.66
2087.007	340.01
2090.195	344.77
2093.382	348.6
2096.569	346.72
2099.756	351.79
2102.942	352.78
2106.128	356.22
2109.314	364.34
2112.5	362.6
2115.685	369.94
2118.87	370.18
2122.055	378.42
2125.239	380.85
2128.424	384.27
2131.608	387.4
2134.791	392.27
2137.974	394.19
2141.157	394.92
2144.34	395.84
2147.523	403.24
2150.705	400.5
2153.887	405.15
2157.068	406.03
2160.25	402.61
2163.431	404.18
2166.611	409.83
2169.792	417.63
2172.972	422.04
2176.152	425.76
2179.331	431.11
2182.511	437.05
2185.69	442.58
2188.868	451.28
2192.047	451.56
2195.225	465.19
2198.403	477.52
2201.58	485.46
2204.758	493.75
2207.935	505.13
2211.111	512.48
2214.288	518.19
2217.464	520
2220.64	526.18
2223.815	533.19
2226.991	557.26
2230.166	557.29
2233.34	567
2236.515	574.43
2239.689	576.3
2242.863	578.24
2246.036	596.03
2249.209	591.52
2252.382	601.97
2255.555	621.54
2258.727	623.64
2261.9	626.83
2265.071	634.07
2268.243	643.77
2271.414	652.59
2274.585	666.34
2277.756	674.62
2280.926	679.6
2284.096	695.88
2287.266	712.36
2290.436	717.16
2293.605	732.93
2296.774	753.62
2299.942	777.93
2303.111	781.63
2306.279	800.68
2309.447	811.91
2312.614	829.22
2315.781	850.47
2318.948	893.28
2322.115	876.86
2325.281	926.89
2328.447	908.59
2331.613	942.84
2334.779	930.72
2337.944	974.02
2341.109	982.18
2344.274	1008.21
2347.438	1046.15
2350.602	1047.72
2353.766	1077.52
2356.929	1094.45
2360.092	1087.58
2363.255	1166.04
2366.418	1165.02
2369.58	1189.26
2372.742	1261.55
2375.904	1292.65
2379.066	1284.48
2382.227	1260.58
2385.388	1367.68
2388.548	1363.11
2391.709	1380.79
2394.869	1532.59
2398.029	1468.47
2401.188	1511.97
2404.347	1502.61
2407.506	1476.16
2410.665	1522.42
2413.823	1611.62
2416.981	1707.06
2420.139	1651.04
2423.296	1639.38
2426.453	1707.32
2429.61	1644.67
2432.767	1720.82
2435.923	1702.26
2439.079	1861.46
2442.235	1884.82
2445.391	1865.56
2448.546	1856.41
2451.701	1802.73
2454.855	1796.66
2458.009	1908.11
2461.163	1989.56
2464.317	2064.12
2467.471	2115.65
2470.624	2115.52
2473.777	2060.73
2476.929	2007.04
2480.082	1948.55
2483.234	1925.88
2486.385	2023.95
2489.537	2035.75
2492.688	2110.93
2495.839	2048.92
2498.989	2000.79
2502.14	2015.66
2505.29	2035.93
2508.439	2070.5
2511.589	2067.24
2514.738	2258.41
2517.887	2208.23
2521.035	2336.67
2524.183	2362.56
2527.331	2373.17
2530.479	2371.84
2533.627	2392.41
