Data from C_2_HIR_WI_4N_Splice17_13-35-59-966.txt Node
Date: Sat Mar 07 13:35:59 EST 2020
User: sa697716
Spectrometer: NQ5500242
Trigger mode: 0
Integration Time (sec): 1.450000E-1
Scans to average: 20
Nonlinearity correction enabled: false
Boxcar width: 5
Storing dark spectrum: false
XAxis mode: Wavelengths
Number of Pixels in Spectrum: 512
>>>>>Begin Spectral Data<<<<<
187.83	167.16
188.298	170.05
188.766	161.85
189.233	137.64
189.701	151.57
190.169	177.91
190.636	211.23
191.104	290.04
191.571	143.15
192.039	-63.08
192.506	-431.76
192.974	83.48
193.441	141.67
193.908	72.43
194.375	26.62
194.842	41.16
195.31	106.52
195.777	216.51
196.244	98.35
196.711	101.59
197.177	104.27
197.644	105.76
198.111	106.09
198.578	105.9
199.045	106.74
199.511	106.71
199.978	106.43
200.445	106.33
200.911	106.37
201.378	106.68
201.844	106.33
202.31	105.81
202.777	105.41
203.243	105.07
203.709	104.47
204.176	103.33
204.642	102.62
205.108	101.92
205.574	100.87
206.04	99.9
206.506	98.77
206.972	98.16
207.438	96.78
207.903	95.02
208.369	92.99
208.835	90.94
209.301	88.82
209.766	86.11
210.232	83.75
210.697	81.48
211.163	79.09
211.628	76.82
212.094	74.45
212.559	73.02
213.024	71.41
213.49	69.69
213.955	67.9
214.42	66.1
214.885	64.01
215.35	61.19
215.815	57.67
216.28	53.35
216.745	48.54
217.21	43.71
217.675	38.96
218.14	34.85
218.604	31.43
219.069	28.5
219.534	26.2
219.998	24.26
220.463	22.64
220.927	21.24
221.392	20.12
221.856	19.2
222.32	18.44
222.785	17.76
223.249	17.21
223.713	16.66
224.177	16.2
224.642	15.7
225.106	15.26
225.57	14.86
226.034	14.51
226.497	14.16
226.961	13.84
227.425	13.52
227.889	13.21
228.353	12.91
228.816	12.63
229.28	12.37
229.744	12.14
230.207	11.9
230.671	11.67
231.134	11.44
231.597	11.27
232.061	11.06
232.524	10.87
232.987	10.72
233.45	10.57
233.914	10.41
234.377	10.27
234.84	10.13
235.303	10.03
235.766	9.92
236.229	9.8
236.691	9.67
237.154	9.57
237.617	9.47
238.08	9.38
238.542	9.28
239.005	9.2
239.468	9.1
239.93	9
240.393	8.9
240.855	8.79
241.317	8.69
241.78	8.59
242.242	8.48
242.704	8.39
243.166	8.29
243.629	8.2
244.091	8.1
244.553	8
245.015	7.91
245.477	7.81
245.939	7.73
246.4	7.66
246.862	7.59
247.324	7.51
247.786	7.43
248.247	7.36
248.709	7.27
249.17	7.18
249.632	7.13
250.093	7.06
250.555	6.99
251.016	6.92
251.477	6.85
251.939	6.79
252.4	6.74
252.861	6.69
253.322	6.64
253.783	6.6
254.244	6.56
254.705	6.51
255.166	6.46
255.627	6.42
256.088	6.39
256.549	6.34
257.009	6.28
257.47	6.22
257.931	6.15
258.391	6.09
258.852	6.03
259.312	5.97
259.773	5.91
260.233	5.87
260.694	5.81
261.154	5.75
261.614	5.7
262.074	5.65
262.534	5.61
262.994	5.57
263.455	5.53
263.915	5.49
264.374	5.46
264.834	5.43
265.294	5.38
265.754	5.36
266.214	5.32
266.673	5.3
267.133	5.27
267.593	5.25
268.052	5.23
268.512	5.21
268.971	5.19
269.431	5.16
269.89	5.15
270.349	5.13
270.809	5.12
271.268	5.1
271.727	5.09
272.186	5.07
272.645	5.06
273.104	5.04
273.563	5.02
274.022	5.01
274.481	5
274.94	5
275.399	4.98
275.857	4.97
276.316	4.95
276.775	4.94
277.233	4.93
277.692	4.93
278.15	4.93
278.609	4.93
279.067	4.92
279.525	4.91
279.984	4.9
280.442	4.9
280.9	4.9
281.358	4.9
281.816	4.91
282.274	4.91
282.732	4.91
283.19	4.9
283.648	4.9
284.106	4.89
284.564	4.89
285.021	4.89
285.479	4.88
285.937	4.88
286.394	4.87
286.852	4.86
287.309	4.84
287.767	4.82
288.224	4.79
288.682	4.77
289.139	4.75
289.596	4.73
290.053	4.7
290.511	4.67
290.968	4.64
291.425	4.6
291.882	4.58
292.339	4.55
292.796	4.54
293.252	4.52
293.709	4.51
294.166	4.5
294.623	4.48
295.079	4.47
295.536	4.46
295.992	4.45
296.449	4.44
296.905	4.44
297.362	4.44
297.818	4.42
298.274	4.41
298.731	4.39
299.187	4.38
299.643	4.37
300.099	4.36
300.555	4.35
301.011	4.34
301.467	4.34
301.923	4.33
302.379	4.32
302.835	4.32
303.291	4.32
303.746	4.32
304.202	4.32
304.658	4.33
305.113	4.32
305.569	4.33
306.024	4.34
306.479	4.34
306.935	4.34
307.39	4.34
307.845	4.35
308.301	4.36
308.756	4.36
309.211	4.37
309.666	4.38
310.121	4.39
310.576	4.39
311.031	4.4
311.486	4.41
311.94	4.41
312.395	4.42
312.85	4.42
313.305	4.42
313.759	4.43
314.214	4.44
314.668	4.43
315.123	4.43
315.577	4.42
316.032	4.41
316.486	4.39
316.94	4.38
317.394	4.36
317.849	4.34
318.303	4.32
318.757	4.3
319.211	4.28
319.665	4.26
320.119	4.24
320.572	4.22
321.026	4.21
321.48	4.2
321.934	4.19
322.387	4.18
322.841	4.17
323.295	4.18
323.748	4.17
324.202	4.17
324.655	4.17
325.108	4.17
325.562	4.17
326.015	4.17
326.468	4.18
326.921	4.18
327.374	4.18
327.827	4.18
328.28	4.18
328.733	4.19
329.186	4.2
329.639	4.2
330.092	4.2
330.545	4.22
330.997	4.21
331.45	4.22
331.903	4.23
332.355	4.24
332.808	4.25
333.26	4.25
333.713	4.25
334.165	4.26
334.617	4.27
335.069	4.27
335.522	4.28
335.974	4.29
336.426	4.3
336.878	4.29
337.33	4.3
337.782	4.3
338.234	4.3
338.686	4.3
339.137	4.29
339.589	4.27
340.041	4.27
340.493	4.24
340.944	4.23
341.396	4.21
341.847	4.2
342.299	4.17
342.75	4.15
343.201	4.12
343.653	4.09
344.104	4.08
344.555	4.06
345.006	4.04
345.457	4.02
345.908	4.01
346.359	4
346.81	3.99
347.261	3.99
347.712	3.98
348.163	3.97
348.613	3.98
349.064	3.98
349.515	3.99
349.965	3.99
350.416	3.98
350.866	3.98
351.317	3.98
351.767	3.99
352.217	3.99
352.668	3.99
353.118	4.01
353.568	4
354.018	4.01
354.468	4.02
354.918	4.03
355.368	4.04
355.818	4.05
356.268	4.05
356.718	4.06
357.168	4.06
357.617	4.06
358.067	4.05
358.517	4.07
358.966	4.07
359.416	4.07
359.865	4.06
360.315	4.06
360.764	4.07
361.213	4.06
361.663	4.05
362.112	4.05
362.561	4.06
363.01	4.07
363.459	4.04
363.908	4.03
364.357	4.04
364.806	4.04
365.255	4.04
365.703	4.04
366.152	4.05
366.601	4.06
367.05	4.07
367.498	4.06
367.947	4.07
368.395	4.08
368.844	4.09
369.292	4.1
369.74	4.11
370.189	4.11
370.637	4.12
371.085	4.11
371.533	4.12
371.981	4.12
372.429	4.14
372.877	4.15
373.325	4.17
373.773	4.18
374.221	4.18
374.669	4.19
375.116	4.19
375.564	4.22
376.012	4.24
376.459	4.26
376.907	4.3
377.354	4.31
377.801	4.34
378.249	4.37
378.696	4.4
379.143	4.43
379.591	4.48
380.038	4.53
380.485	4.56
380.932	4.61
381.379	4.65
381.826	4.69
382.273	4.74
382.72	4.78
383.166	4.82
383.613	4.87
384.06	4.92
384.506	4.97
384.953	5.02
385.4	5.09
385.846	5.15
386.292	5.21
386.739	5.28
387.185	5.36
387.631	5.44
388.078	5.53
388.524	5.62
388.97	5.72
389.416	5.82
389.862	5.91
390.308	6.01
390.754	6.12
391.2	6.22
391.645	6.34
392.091	6.46
392.537	6.58
392.983	6.7
393.428	6.81
393.874	6.93
394.319	7.03
394.765	7.14
395.21	7.25
395.655	7.37
396.101	7.5
396.546	7.6
396.991	7.71
397.436	7.83
397.881	7.97
398.326	8.1
398.771	8.23
399.216	8.38
399.661	8.51
400.106	8.63
400.551	8.74
400.995	8.84
401.44	8.97
401.885	9.07
402.329	9.19
402.774	9.3
403.218	9.43
403.663	9.54
404.107	9.64
404.551	9.75
404.995	9.85
405.44	9.97
405.884	10.08
406.328	10.19
406.772	10.29
407.216	10.38
407.66	10.45
408.104	10.53
408.547	10.63
408.991	10.73
409.435	10.82
409.879	10.91
410.322	11.02
410.766	11.12
411.209	11.21
411.653	11.31
412.096	11.39
412.54	11.5
412.983	11.6
413.426	11.69
413.869	11.79
414.312	11.9
414.756	11.99
415.199	12.05
415.642	12.13
416.085	12.2
416.527	12.25
416.97	12.29
417.413	12.33
417.856	12.37
418.298	12.4
418.741	12.44
419.184	12.47
419.626	12.51
420.069	12.56
420.511	12.59
420.953	12.64
421.396	12.71
421.838	12.76
422.28	12.82
422.722	12.86
423.164	12.9
423.606	12.93
424.048	12.95
424.49	12.97
424.932	12.96
425.374	12.94
425.816	12.92
426.258	12.9
426.699	12.89
427.141	12.89
427.582	12.92
428.024	12.94
428.465	12.96
428.907	12.96
429.348	12.95
429.789	12.99
430.231	13.06
430.672	13.11
431.113	13.16
431.554	13.22
431.995	13.26
432.436	13.3
432.877	13.35
433.318	13.39
433.759	13.46
434.2	13.54
434.64	13.6
435.081	13.63
435.522	13.68
435.962	13.74
436.403	13.82
436.843	13.88
437.284	13.93
437.724	13.97
438.164	14.03
438.604	14.07
439.045	14.13
439.485	14.19
439.925	14.27
440.365	14.36
440.805	14.43
441.245	14.52
441.685	14.63
442.125	14.75
442.564	14.88
443.004	14.98
443.444	15.12
443.883	15.27
444.323	15.4
444.762	15.56
445.202	15.68
445.641	15.84
446.081	15.98
446.52	16.1
446.959	16.25
447.398	16.39
447.837	16.53
448.276	16.62
448.716	16.74
449.154	16.86
449.593	16.95
450.032	17.05
450.471	17.1
450.91	17.15
451.349	17.23
451.787	17.26
452.226	17.3
452.664	17.33
453.103	17.37
453.541	17.4
453.98	17.44
454.418	17.44
454.856	17.45
455.295	17.47
455.733	17.47
456.171	17.47
456.609	17.48
457.047	17.47
457.485	17.49
457.923	17.51
458.361	17.5
458.798	17.5
459.236	17.52
459.674	17.53
460.111	17.55
460.549	17.58
460.987	17.6
461.424	17.62
461.862	17.66
462.299	17.67
462.736	17.67
463.173	17.68
463.611	17.69
464.048	17.71
464.485	17.72
464.922	17.72
465.359	17.72
465.796	17.76
466.233	17.78
466.67	17.8
467.106	17.81
467.543	17.83
467.98	17.85
468.416	17.86
468.853	17.88
469.29	17.89
469.726	17.9
470.162	17.92
470.599	17.91
471.035	17.9
471.471	17.89
471.907	17.91
472.344	17.93
472.78	17.94
473.216	17.94
473.652	17.96
474.088	17.95
474.523	17.99
474.959	17.99
475.395	17.99
475.831	18.02
476.266	18.04
476.702	18.04
477.138	18.04
477.573	18.06
478.008	18.08
478.444	18.08
478.879	18.11
479.314	18.11
479.75	18.12
480.185	18.13
480.62	18.13
481.055	18.14
481.49	18.14
481.925	18.15
482.36	18.17
482.795	18.18
483.229	18.19
483.664	18.22
484.099	18.24
484.534	18.28
484.968	18.32
485.403	18.37
485.837	18.42
486.271	18.5
486.706	18.56
487.14	18.63
487.574	18.71
488.009	18.8
488.443	18.89
488.877	18.99
489.311	19.09
489.745	19.2
490.179	19.31
490.613	19.44
491.046	19.56
491.48	19.69
491.914	19.81
492.348	19.95
492.781	20.11
493.215	20.26
493.648	20.4
494.082	20.56
494.515	20.72
494.948	20.89
495.382	21.05
495.815	21.23
496.248	21.42
496.681	21.63
497.114	21.82
497.547	22.01
497.98	22.21
498.413	22.42
498.846	22.65
499.279	22.86
499.711	23.09
500.144	23.33
500.577	23.55
501.009	23.77
501.442	24.02
501.874	24.28
502.306	24.55
502.739	24.82
503.171	25.09
503.603	25.36
504.036	25.66
504.468	25.93
504.9	26.22
505.332	26.54
505.764	26.85
506.196	27.15
506.627	27.45
507.059	27.77
507.491	28.09
507.923	28.4
508.354	28.75
508.786	29.09
509.217	29.43
509.649	29.76
510.08	30.07
510.512	30.42
510.943	30.77
511.374	31.11
511.805	31.45
512.237	31.77
512.668	32.13
513.099	32.45
513.53	32.78
513.961	33.14
514.391	33.49
514.822	33.86
515.253	34.19
515.684	34.52
516.114	34.84
516.545	35.16
516.975	35.5
517.406	35.8
517.836	36.1
518.267	36.41
518.697	36.68
519.127	36.93
519.558	37.2
519.988	37.46
520.418	37.74
520.848	37.99
521.278	38.23
521.708	38.66
522.138	38.91
522.567	39.16
522.997	39.37
523.427	39.6
523.857	39.83
524.286	40.04
524.716	40.25
525.145	40.43
525.575	40.62
526.004	40.82
526.433	40.8
526.863	40.97
527.292	41.13
527.721	41.28
528.15	41.42
528.579	41.55
529.008	41.7
529.437	41.82
529.866	41.96
530.295	42.07
530.724	42.2
531.152	42.33
531.581	42.43
532.01	42.55
532.438	42.66
532.867	42.77
533.295	42.87
533.723	42.95
534.152	43.04
534.58	43.11
535.008	43.18
535.436	43.24
535.865	43.29
536.293	43.37
536.721	43.44
537.149	43.5
537.576	43.56
538.004	43.64
538.432	43.68
538.86	43.72
539.287	43.78
539.715	43.84
540.143	43.88
540.57	43.93
540.998	43.96
541.425	43.99
541.852	44.03
542.28	44.06
542.707	44.07
543.134	44.13
543.561	44.17
543.988	44.21
544.415	44.22
544.842	44.25
545.269	44.27
545.696	44.3
546.123	44.35
546.549	44.37
546.976	44.39
547.403	44.42
547.829	44.42
548.256	44.45
548.682	44.45
549.108	44.51
549.535	44.56
549.961	44.58
550.387	44.6
550.813	44.6
551.24	44.61
551.666	44.63
552.092	44.65
552.518	44.67
552.943	44.68
553.369	44.69
553.795	44.68
554.221	44.67
554.646	44.65
555.072	44.63
555.498	44.63
555.923	44.58
556.349	44.56
556.774	44.51
557.199	44.48
557.625	44.44
558.05	44.42
558.475	44.39
558.9	44.35
559.325	44.34
559.75	44.29
560.175	44.24
560.6	44.19
561.025	44.15
561.449	44.1
561.874	44.03
562.299	43.96
562.723	43.89
563.148	43.79
563.572	43.69
563.997	43.59
564.421	43.5
564.846	43.4
565.27	43.31
565.694	43.2
566.118	43.1
566.542	43.02
566.966	42.91
567.39	42.8
567.814	42.7
568.238	42.61
568.662	42.52
569.086	42.42
569.509	42.32
569.933	42.22
570.357	42.13
570.78	42.02
571.204	41.91
571.627	41.84
572.05	41.74
572.474	41.67
572.897	41.58
573.32	41.47
573.743	41.37
574.166	41.29
574.589	41.21
575.012	41.11
575.435	41.02
575.858	40.93
576.281	40.85
576.704	40.79
577.126	40.7
577.549	40.63
577.972	40.56
578.394	40.48
578.817	40.42
579.239	40.35
579.661	40.3
580.084	40.25
580.506	40.19
580.928	40.12
581.35	40.05
581.772	39.97
582.194	39.91
582.616	39.88
583.038	39.82
583.46	39.76
583.882	39.72
584.303	39.65
584.725	39.59
585.147	39.56
585.568	39.51
585.99	39.48
586.411	39.44
586.833	39.38
587.254	39.32
587.675	39.27
588.096	39.22
588.518	39.17
588.939	39.13
589.36	39.07
589.781	39.01
590.202	38.98
590.623	38.93
591.043	38.86
591.464	38.84
591.885	38.79
592.305	38.76
592.726	38.74
593.147	38.7
593.567	38.67
593.987	38.64
594.408	38.62
594.828	38.56
595.248	38.54
595.669	38.52
596.089	38.46
596.509	38.44
596.929	38.41
597.349	38.39
597.769	38.33
598.189	38.28
598.608	38.23
599.028	38.19
599.448	38.17
599.867	38.11
600.287	38.08
600.706	38.05
601.126	38
601.545	37.96
601.965	37.91
602.384	37.89
602.803	37.85
603.222	37.8
603.641	37.75
604.061	37.69
604.48	37.62
604.898	37.56
605.317	37.51
605.736	37.44
606.155	37.38
606.574	37.29
606.992	37.2
607.411	37.13
607.829	37.04
608.248	36.95
608.666	36.86
609.085	36.79
609.503	36.7
609.921	36.61
610.339	36.53
610.758	36.44
611.176	36.36
611.594	36.28
612.012	36.2
612.43	36.13
612.847	36.04
613.265	35.96
613.683	35.88
614.101	35.81
614.518	35.72
614.936	35.62
615.353	35.53
615.771	35.45
616.188	35.38
616.606	35.32
617.023	35.25
617.44	35.2
617.857	35.14
618.274	35.1
618.691	35.04
619.108	34.99
619.525	34.95
619.942	34.9
620.359	34.86
620.776	34.8
621.192	34.77
621.609	34.73
622.026	34.69
622.442	34.66
622.859	34.62
623.275	34.58
623.691	34.56
624.108	34.55
624.524	34.54
624.94	34.53
625.356	34.53
625.772	34.49
626.188	34.49
626.604	34.48
627.02	34.46
627.436	34.43
627.852	34.44
628.268	34.43
628.683	34.41
629.099	34.41
629.514	34.38
629.93	34.36
630.345	34.34
630.761	34.29
631.176	34.26
631.591	34.21
632.007	34.17
632.422	34.11
632.837	34.05
633.252	33.98
633.667	33.9
634.082	33.82
634.497	33.74
634.911	33.65
635.326	33.56
635.741	33.46
636.155	33.36
636.57	33.24
636.984	33.11
637.399	32.98
637.813	32.84
638.228	32.67
638.642	32.53
639.056	32.35
639.47	32.19
639.884	32.02
640.298	31.84
640.712	31.66
641.126	31.5
641.54	31.31
641.954	31.1
642.368	30.9
642.781	30.74
643.195	30.56
643.609	30.38
644.022	30.19
644.436	30.03
644.849	29.85
645.262	29.67
645.676	29.5
646.089	29.35
646.502	29.21
646.915	29.09
647.328	28.95
647.741	28.81
648.154	28.69
648.567	28.56
648.98	28.43
649.393	28.33
649.805	28.25
650.218	28.15
650.631	28.06
651.043	27.96
651.456	27.84
651.868	27.73
652.28	27.63
652.693	27.54
653.105	27.45
653.517	27.33
653.929	27.21
654.341	27.06
654.753	26.9
655.165	26.76
655.577	26.61
655.989	26.45
656.401	26.29
656.813	26.11
657.224	25.9
657.636	25.68
658.047	25.46
658.459	25.25
658.87	25.04
659.282	24.8
659.693	24.57
660.104	24.32
660.515	24.06
660.926	23.8
661.338	23.53
661.749	23.27
662.159	23.02
662.57	22.78
662.981	22.52
663.392	22.26
663.803	22.03
664.213	21.77
664.624	21.55
665.035	21.33
665.445	21.12
665.855	20.92
666.266	20.74
666.676	20.55
667.086	20.35
667.497	20.2
667.907	20.05
668.317	19.91
668.727	19.78
669.137	19.64
669.547	19.52
669.956	19.42
670.366	19.32
670.776	19.23
671.186	19.14
671.595	19.07
672.005	18.98
672.414	18.92
672.824	18.85
673.233	18.8
673.642	18.77
674.052	18.75
674.461	18.74
674.87	18.72
675.279	18.72
675.688	18.74
676.097	18.77
676.506	18.81
676.915	18.86
677.323	18.93
677.732	19.01
678.141	19.11
678.549	19.2
678.958	19.35
679.366	19.52
679.775	19.7
680.183	19.93
680.592	20.2
681	20.49
681.408	20.81
681.816	21.17
682.224	21.57
682.632	22.02
683.04	22.51
683.448	23
683.856	23.54
684.264	24.13
684.671	24.71
685.079	25.32
685.487	25.96
685.894	26.65
686.302	27.34
686.709	28.05
687.116	28.77
687.524	29.49
687.931	30.23
688.338	30.99
688.745	31.73
689.152	32.45
689.559	33.22
689.966	33.97
690.373	34.71
690.78	35.43
691.187	36.12
691.593	36.8
692	37.48
692.407	38.12
692.813	38.75
693.22	39.33
693.626	39.96
694.032	40.52
694.439	41.07
694.845	41.6
695.251	42.11
695.657	42.61
696.063	43.11
696.469	43.57
696.875	44.06
697.281	44.49
697.687	44.94
698.093	45.35
698.498	45.73
698.904	46.11
699.31	46.46
699.715	46.81
700.12	47.17
700.526	47.49
700.931	47.79
701.337	48.05
701.742	48.35
702.147	48.62
702.552	48.88
702.957	49.14
703.362	49.38
703.767	49.61
704.172	49.83
704.577	50.02
704.981	50.24
705.386	50.45
705.791	50.65
706.195	50.86
706.6	51.06
707.004	51.24
707.408	51.42
707.813	51.59
708.217	51.76
708.621	51.95
709.025	52.1
709.43	52.24
709.834	52.41
710.237	52.56
710.641	52.66
711.045	52.79
711.449	52.92
711.853	53.08
712.256	53.22
712.66	53.34
713.064	53.44
713.467	53.56
713.87	53.67
714.274	53.76
714.677	53.89
715.08	54
715.484	54.1
715.887	54.22
716.29	54.3
716.693	54.41
717.096	54.53
717.499	54.64
717.901	54.74
718.304	54.85
718.707	54.96
719.109	55.05
719.512	55.14
719.915	55.22
720.317	55.28
720.719	55.31
721.122	55.37
721.524	55.43
721.926	55.5
722.328	55.54
722.731	55.6
723.133	55.65
723.535	55.72
723.937	55.76
724.338	55.8
724.74	55.86
725.142	56.06
725.544	56.09
725.945	56.17
726.347	56.19
726.748	56.25
727.15	56.29
727.551	56.34
727.952	56.33
728.354	56.39
728.755	56.43
729.156	56.46
729.557	56.37
729.958	56.39
730.359	56.39
730.76	56.42
731.161	56.45
731.562	56.48
731.962	56.46
732.363	56.49
732.763	56.51
733.164	56.51
733.564	56.52
733.965	56.52
734.365	56.59
734.766	56.6
735.166	56.63
735.566	56.64
735.966	56.67
736.366	56.7
736.766	56.71
737.166	56.75
737.566	56.78
737.966	56.79
738.365	56.83
738.765	56.81
739.165	56.82
739.564	56.84
739.964	56.86
740.363	56.85
740.763	56.86
741.162	56.88
741.561	56.85
741.96	56.84
742.36	56.85
742.759	56.84
743.158	56.87
743.557	56.86
743.955	56.86
744.354	56.85
744.753	56.88
745.152	56.91
745.55	56.93
745.949	56.96
746.348	56.99
746.746	56.99
747.144	57.02
747.543	57.02
747.941	57.01
748.339	56.99
748.737	56.99
749.136	56.95
749.534	56.91
749.932	56.89
750.33	56.85
750.727	56.85
751.125	56.85
751.523	56.81
751.921	56.8
752.318	56.82
752.716	56.83
753.113	56.82
753.511	56.84
753.908	56.87
754.305	56.9
754.703	56.91
755.1	56.91
755.497	56.91
755.894	56.92
756.291	56.92
756.688	56.92
757.085	56.93
757.482	56.95
757.878	56.97
758.275	56.95
758.672	56.96
759.068	56.99
759.465	56.99
759.861	57.01
760.258	57.01
760.654	57.02
761.05	57.03
761.447	57.04
761.843	57.04
762.239	57.02
762.635	57.02
763.031	56.99
763.427	56.97
763.822	56.98
764.218	56.98
764.614	57.02
765.01	57.01
765.405	57.01
765.801	57
766.196	57
766.592	57
766.987	57.02
767.382	57.03
767.778	57.03
768.173	57.04
768.568	57.03
768.963	56.99
769.358	57
769.753	57
770.148	57
770.542	57.01
770.937	57.02
771.332	57
771.726	57.02
772.121	57.01
772.515	57.01
772.91	57
773.304	57.01
773.699	57
774.093	56.97
774.487	56.99
774.881	57.02
775.275	57.01
775.669	57.02
776.063	57
776.457	57.03
776.851	57.02
777.245	57
777.638	57.02
778.032	57.04
778.425	57.1
778.819	57.09
779.212	57.09
779.606	57.1
779.999	57.11
780.392	57.14
780.786	57.12
781.179	57.13
781.572	57.17
781.965	57.17
782.358	57.17
782.751	57.15
783.143	57.16
783.536	57.13
783.929	57.12
784.322	57.17
784.714	57.16
785.107	57.2
785.499	57.17
785.891	57.17
786.284	57.19
786.676	57.2
787.068	57.21
787.46	57.22
787.852	57.22
788.245	57.21
788.636	57.19
789.028	57.21
789.42	57.18
789.812	57.21
790.204	57.21
790.595	57.21
790.987	57.2
791.378	57.24
791.77	57.2
792.161	57.22
792.553	57.25
792.944	57.22
793.335	57.22
793.726	57.24
794.117	57.22
794.508	57.22
794.899	57.2
795.29	57.19
795.681	57.15
796.072	57.14
796.463	57.17
796.853	57.15
797.244	57.19
797.634	57.18
798.025	57.2
798.415	57.21
798.806	57.22
799.196	57.25
799.586	57.29
799.976	57.32
800.366	57.34
800.756	57.34
801.146	57.37
801.536	57.36
801.926	57.35
802.316	57.34
802.706	57.35
803.095	57.38
803.485	57.36
803.874	57.33
804.264	57.31
804.653	57.35
805.043	57.32
805.432	57.28
805.821	57.29
806.21	57.31
806.599	57.3
806.988	57.29
807.377	57.28
807.766	57.28
808.155	57.27
808.544	57.29
808.933	57.27
809.321	57.28
809.71	57.3
810.098	57.29
810.487	57.28
810.875	57.29
811.264	57.28
811.652	57.3
812.04	57.32
812.428	57.35
812.816	57.32
813.204	57.29
813.592	57.26
813.98	57.26
814.368	57.28
814.756	57.28
815.144	57.27
815.531	57.24
815.919	57.22
816.306	57.18
816.694	57.15
817.081	57.17
817.469	57.18
817.856	57.19
818.243	57.16
818.63	57.14
819.017	57.14
819.404	57.13
819.791	57.14
820.178	57.13
820.565	57.11
820.952	57.09
821.339	57.05
821.725	57.05
822.112	57.07
822.498	57.08
822.885	57.06
823.271	57.04
823.657	57
824.044	57
824.43	56.99
824.816	57.02
825.202	57.02
825.588	57.03
825.974	57.02
826.36	56.99
826.746	56.98
827.132	57
827.517	57.01
827.903	57.01
828.289	57.02
828.674	57.02
829.06	56.99
829.445	56.98
829.83	56.99
830.216	56.95
830.601	56.94
830.986	56.93
831.371	56.89
831.756	56.88
832.141	56.89
832.526	56.88
832.911	56.86
833.295	56.85
833.68	56.85
834.065	56.83
834.449	56.83
834.834	56.82
835.218	56.81
835.603	56.81
835.987	56.79
836.371	56.77
836.755	56.73
837.139	56.7
837.524	56.69
837.908	56.72
838.291	56.74
838.675	56.74
839.059	56.75
839.443	56.73
839.827	56.73
840.21	56.71
840.594	56.71
840.977	56.71
841.361	56.72
841.744	56.7
842.127	56.63
842.511	56.59
842.894	56.57
843.277	56.53
843.66	56.51
844.043	56.51
844.426	56.52
844.809	56.51
845.191	56.52
845.574	56.52
845.957	56.53
846.339	56.57
846.722	56.57
847.104	56.58
847.487	56.58
847.869	56.58
848.252	56.56
848.634	56.56
849.016	56.58
849.398	56.56
849.78	56.55
850.162	56.56
850.544	56.54
850.926	56.55
851.307	56.55
851.689	56.55
852.071	56.55
852.452	56.56
852.834	56.56
853.215	56.52
853.597	56.53
853.978	56.51
854.359	56.5
854.741	56.49
855.122	56.5
855.503	56.49
855.884	56.44
856.265	56.45
856.646	56.46
857.026	56.47
857.407	56.5
857.788	56.49
858.169	56.52
858.549	56.53
858.93	56.53
859.31	56.53
859.69	56.56
860.071	56.6
860.451	56.6
860.831	56.59
861.211	56.54
861.591	56.52
861.971	56.53
862.351	56.53
862.731	56.53
863.111	56.51
863.491	56.5
863.87	56.49
864.25	56.46
864.629	56.46
865.009	56.44
865.388	56.45
865.768	56.46
866.147	56.47
866.526	56.45
866.905	56.45
867.284	56.46
867.663	56.44
868.042	56.44
868.421	56.47
868.8	56.48
869.179	56.49
869.558	56.51
869.936	56.52
870.315	56.52
870.693	56.52
871.072	56.53
871.45	56.55
871.828	56.58
872.207	56.61
872.585	56.58
872.963	56.58
873.341	56.58
873.719	56.6
874.097	56.61
874.475	56.63
874.853	56.64
875.23	56.66
875.608	56.65
875.986	56.67
876.363	56.64
876.741	56.67
877.118	56.67
877.495	56.7
877.873	56.7
878.25	56.7
878.627	56.65
879.004	56.65
879.381	56.64
879.758	56.62
880.135	56.59
880.512	56.6
880.889	56.59
881.265	56.57
881.642	56.58
882.019	56.55
882.395	56.54
882.772	56.52
883.148	56.49
883.524	56.45
883.901	56.45
884.277	56.44
884.653	56.39
885.029	56.36
885.405	56.34
885.781	56.31
886.157	56.28
886.532	56.28
886.908	56.25
887.284	56.25
887.659	56.24
888.035	56.21
888.411	56.19
888.786	56.2
889.161	56.22
889.537	56.19
889.912	56.18
890.287	56.19
890.662	56.16
891.037	56.18
891.412	56.16
891.787	56.17
892.162	56.16
892.536	56.18
892.911	56.17
893.286	56.15
893.66	56.17
894.035	56.2
894.409	56.18
894.784	56.19
895.158	56.18
895.532	56.19
895.906	56.17
896.281	56.17
896.655	56.14
897.029	56.16
897.402	56.15
897.776	56.14
898.15	56.12
898.524	56.16
898.898	56.19
899.271	56.2
899.645	56.24
900.018	56.27
900.392	56.31
900.765	56.35
901.138	56.36
901.511	56.38
901.884	56.42
902.258	56.44
902.631	56.44
903.003	56.45
903.376	56.46
903.749	56.47
904.122	56.48
904.495	56.48
904.867	56.5
905.24	56.54
905.612	56.6
905.985	56.58
906.357	56.55
906.729	56.58
907.102	56.56
907.474	56.58
907.846	56.57
908.218	56.58
908.59	56.59
908.962	56.59
909.334	56.58
909.705	56.56
910.077	56.59
910.449	56.62
910.82	56.6
911.192	56.61
911.563	56.61
911.935	56.6
912.306	56.58
912.677	56.59
913.048	56.63
913.419	56.64
913.79	56.64
914.161	56.64
914.532	56.65
914.903	56.67
915.274	56.69
915.645	56.71
916.015	56.76
916.386	56.81
916.756	56.81
917.127	56.8
917.497	56.78
917.868	56.8
918.238	56.81
918.608	56.87
918.978	56.86
919.348	56.88
919.718	56.85
920.088	56.85
920.458	56.83
920.828	56.79
921.198	56.79
921.567	56.82
921.937	56.86
922.306	56.85
922.676	56.84
923.045	56.83
923.415	56.81
923.784	56.85
924.153	56.88
924.522	56.92
924.891	56.96
925.26	56.98
925.629	56.96
925.998	56.95
926.367	56.99
926.736	56.97
927.104	56.98
927.473	57
927.842	56.98
928.21	56.98
928.578	56.94
928.947	56.95
929.315	56.93
929.683	56.92
930.051	56.88
930.42	56.86
930.788	56.85
931.156	56.85
931.523	56.84
931.891	56.87
932.259	56.9
932.627	56.91
932.994	56.92
933.362	56.92
933.729	56.96
934.097	57.02
934.464	57.04
934.831	57.06
935.199	57.12
935.566	57.16
935.933	57.12
936.3	57.11
936.667	57.13
937.034	57.2
937.401	57.31
937.767	57.33
938.134	57.33
938.501	57.41
938.867	57.52
939.234	57.51
939.6	57.59
939.967	57.68
940.333	57.7
940.699	57.78
941.065	57.7
941.431	57.69
941.798	57.72
942.163	57.76
942.529	57.74
942.895	57.66
943.261	57.68
943.627	57.57
943.992	57.53
944.358	57.49
944.723	57.4
945.089	57.37
945.454	57.35
945.82	57.28
946.185	57.25
946.55	57.13
946.915	57.09
947.28	57.05
947.645	57.13
948.01	57.12
948.375	57.12
948.74	57.11
949.104	57.1
949.469	57.05
949.834	56.99
950.198	56.95
950.562	56.93
950.927	56.86
951.291	56.79
951.655	56.64
952.02	56.59
952.384	56.52
952.748	56.5
953.112	56.46
953.476	56.4
953.839	56.36
954.203	56.34
954.567	56.35
954.931	56.35
955.294	56.31
955.658	56.38
956.021	56.33
956.385	56.3
956.748	56.22
957.111	56.21
957.474	56.17
957.837	56.18
958.2	56.12
958.563	56.06
958.926	56.08
959.289	56.14
959.652	56.08
960.015	56.12
960.377	56.1
960.74	56.17
961.102	56.19
961.465	56.28
961.827	56.32
962.189	56.37
962.552	56.42
962.914	56.4
963.276	56.39
963.638	56.38
964	56.37
964.362	56.46
964.724	56.41
965.085	56.39
965.447	56.35
965.809	56.35
966.17	56.35
966.532	56.35
966.893	56.39
967.255	56.47
967.616	56.52
967.977	56.56
968.338	56.57
968.699	56.63
969.061	56.63
969.421	56.66
969.782	56.75
970.143	56.75
970.504	56.76
970.865	56.81
971.225	56.72
971.586	56.69
971.946	56.65
972.307	56.59
972.667	56.59
973.027	56.66
973.388	56.71
973.748	56.68
974.108	56.78
974.468	56.79
974.828	56.84
975.188	56.9
975.548	56.94
975.907	57.04
976.267	57.17
976.627	57.23
976.986	57.19
977.346	57.14
977.705	57.11
978.064	57.08
978.424	57.16
978.783	57.06
979.142	57.05
979.501	57.12
979.86	57.15
980.219	57.13
980.578	57.15
980.937	57.22
981.296	57.3
981.654	57.36
982.013	57.37
982.371	57.34
982.73	57.43
983.088	57.49
983.447	57.48
983.805	57.46
984.163	57.48
984.521	57.42
984.879	57.37
985.237	57.39
985.595	57.46
985.953	57.47
986.311	57.51
986.669	57.52
987.026	57.57
987.384	57.62
987.741	57.6
988.099	57.64
988.456	57.74
988.814	57.9
989.171	57.93
989.528	57.93
989.885	58
990.242	58.13
990.599	58.19
990.956	58.18
991.313	58.21
991.67	58.37
992.027	58.54
992.383	58.67
992.74	58.74
993.096	58.71
993.453	58.79
993.809	58.8
994.165	58.85
994.522	58.99
994.878	59.11
995.234	59.23
995.59	59.21
995.946	59.13
996.302	59.16
996.658	59.23
997.013	59.34
997.369	59.33
997.725	59.44
998.08	59.47
998.436	59.4
998.791	59.46
999.147	59.49
999.502	59.64
999.857	59.74
1000.212	59.77
1000.567	59.88
1000.922	59.97
1001.277	60.13
1001.632	60.2
1001.987	60.22
1002.342	60.3
1002.696	60.35
1003.051	60.5
1003.406	60.58
1003.76	60.65
1004.114	60.68
1004.469	60.66
1004.823	60.91
1005.177	60.89
1005.531	61.01
1005.885	61.1
1006.239	61.16
1006.593	61.32
1006.947	61.4
1007.301	61.37
1007.655	61.39
1008.008	61.5
1008.362	61.7
1008.715	61.56
1009.069	61.8
1009.422	61.93
1009.776	62.05
1010.129	62.24
1010.482	62.2
1010.835	62.15
1011.188	62.23
1011.541	62.33
1011.894	62.5
1012.247	62.51
1012.6	62.69
1012.952	62.76
1013.305	62.89
1013.657	62.97
1014.01	63.13
1014.362	63.2
1014.715	63.44
1015.067	63.8
1015.419	64.04
1015.771	64.16
1016.123	64.24
1016.475	64.51
1016.827	64.56
1017.179	64.69
1017.531	64.85
1017.883	64.99
1018.234	65.36
1018.586	65.34
1018.938	65.55
1019.289	65.76
1019.64	65.98
1019.992	66.06
1020.343	66.15
1020.694	66.3
1021.045	66.3
1021.396	66.46
1021.747	66.74
1022.098	66.83
1022.449	67.17
1022.8	67.26
1023.151	67.45
1023.501	67.59
1023.852	67.68
1024.202	67.68
1024.553	67.89
1024.903	68.31
1025.253	68.92
1025.604	68.81
1025.954	68.78
1026.304	69.24
1026.654	69.32
1027.004	69.3
1027.354	69.35
1027.703	69.73
1028.053	70.17
1028.403	70.34
1028.753	70.19
1029.102	70.25
1029.452	70.76
1029.801	71.34
1030.15	71.17
1030.499	71.22
897.758	1604.75
901.051	1609.92
904.343	1603.82
907.636	1632.02
910.928	1588.09
914.22	1587.21
917.511	1566.63
920.803	1501.33
924.094	1493.5
927.384	1464.63
930.675	1397.92
933.965	1390.39
937.255	1311.77
940.544	1260.33
943.834	1199.3
947.123	1189.23
950.411	1121.73
953.7	1096.17
956.988	1034.18
960.276	992.49
963.563	977.07
966.851	943.74
970.138	936.43
973.424	906.8
976.711	912.72
979.997	868.69
983.283	864.32
986.568	845.23
989.853	818.86
993.138	807.38
996.423	776.59
999.708	756.03
1002.992	748.06
1006.275	710.99
1009.559	704.39
1012.842	679.39
1016.125	660.37
1019.408	649.2
1022.69	639.86
1025.972	629.37
1029.254	612.23
1032.536	602.21
1035.817	588.3
1039.098	581.28
1042.379	570.53
1045.659	564.25
1048.939	549.92
1052.219	539.89
1055.498	530
1058.778	518.86
1062.057	504.7
1065.335	499.8
1068.614	493.9
1071.892	489.66
1075.17	473.09
1078.447	464.57
1081.724	461.41
1085.001	457.96
1088.278	447.36
1091.554	439.65
1094.83	440.02
1098.106	438.02
1101.382	433.79
1104.657	431.44
1107.932	423.74
1111.206	427.69
1114.481	416.1
1117.755	411.81
1121.029	408.47
1124.302	409.27
1127.575	400.82
1130.848	395.27
1134.121	391.25
1137.393	390.21
1140.665	381.22
1143.937	379.79
1147.208	375.02
1150.48	376.34
1153.75	371.41
1157.021	365.51
1160.291	365.47
1163.561	362.58
1166.831	361.61
1170.101	359.16
1173.37	357.48
1176.639	358.92
1179.907	354.59
1183.176	351.62
1186.444	350.61
1189.711	350.73
1192.979	349.53
1196.246	347.26
1199.513	347.75
1202.78	346.47
1206.046	346.25
1209.312	342.64
1212.578	342.93
1215.843	346.48
1219.108	344.11
1222.373	351.46
1225.638	353
1228.902	359.32
1232.166	358.53
1235.43	362.33
1238.693	366.24
1241.956	368.45
1245.219	374.68
1248.482	374.08
1251.744	373.36
1255.006	376.09
1258.268	365.72
1261.529	362.53
1264.79	358.78
1268.051	357.72
1271.312	352.65
1274.572	348.84
1277.832	345.61
1281.092	339.78
1284.351	337.57
1287.61	337.81
1290.869	331.5
1294.128	330.23
1297.386	330.08
1300.644	327.12
1303.902	327.6
1307.159	326.53
1310.416	327.18
1313.673	326.73
1316.93	329.95
1320.186	330.11
1323.442	330.78
1326.697	337.18
1329.953	337.89
1333.208	339.57
1336.463	343.58
1339.717	344.37
1342.972	347.79
1346.226	350.57
1349.479	350.57
1352.733	353.01
1355.986	354.36
1359.238	354.03
1362.491	356.09
1365.743	358.81
1368.995	358.93
1372.247	357.43
1375.498	357.88
1378.749	361.2
1382	355.57
1385.251	357.68
1388.501	354.94
1391.751	356.81
1395	355.03
1398.25	351.65
1401.499	350.27
1404.748	349.53
1407.996	345.53
1411.244	343.55
1414.492	341.75
1417.74	339.8
1420.987	334.54
1424.234	334.52
1427.481	329.17
1430.728	328.67
1433.974	325.41
1437.22	322.72
1440.465	321.62
1443.711	320.23
1446.956	318.68
1450.201	313.74
1453.445	310.98
1456.689	309.41
1459.933	303.78
1463.177	301.7
1466.42	297.71
1469.663	293.86
1472.906	291.86
1476.148	284.88
1479.391	280.75
1482.633	277.64
1485.874	274.04
1489.115	272.41
1492.356	269.25
1495.597	268.85
1498.838	264.97
1502.078	263.01
1505.318	262.45
1508.557	262.23
1511.797	261.63
1515.036	260.8
1518.274	260.52
1521.513	257.68
1524.751	257.2
1527.989	256.77
1531.227	256.05
1534.464	257.31
1537.701	254.47
1540.938	253.73
1544.174	251.01
1547.41	250.89
1550.646	249.81
1553.882	249.75
1557.117	246.8
1560.352	245.23
1563.587	244.44
1566.821	242.64
1570.055	239.3
1573.289	238.31
1576.523	238.19
1579.756	236.28
1582.989	234.77
1586.222	234.7
1589.454	232.69
1592.686	234.98
1595.918	233.8
1599.15	233
1602.381	233.44
1605.612	233.56
1608.843	235.12
1612.073	234.46
1615.303	235.95
1618.533	236.28
1621.762	235.44
1624.992	235.39
1628.221	235.48
1631.449	235.21
1634.678	234.65
1637.906	235.06
1641.134	235.56
1644.361	234.41
1647.588	235.49
1650.815	234.25
1654.042	233.27
1657.269	234.54
1660.495	235.17
1663.72	233.41
1666.946	234.53
1670.171	235.07
1673.396	234.95
1676.621	234.74
1679.845	234.95
1683.069	234.17
1686.293	235.81
1689.517	237.49
1692.74	237.07
1695.963	238.02
1699.185	240.77
1702.408	241.66
1705.63	242.29
1708.852	242.83
1712.073	243.5
1715.294	244.26
1718.515	246.27
1721.736	245.92
1724.956	245.68
1728.176	245.84
1731.396	248.51
1734.616	247.2
1737.835	247.39
1741.054	245.97
1744.272	246.61
1747.491	249.09
1750.709	249.31
1753.927	248.79
1757.144	247.77
1760.361	249.48
1763.578	250.06
1766.795	248.74
1770.011	250.38
1773.227	250.16
1776.443	253.69
1779.658	255.16
1782.874	254.18
1786.089	255.1
1789.303	256.01
1792.518	259.35
1795.732	259.05
1798.945	261.37
1802.159	261.32
1805.372	262.48
1808.585	267.66
1811.797	267.95
1815.01	268.28
1818.222	270.38
1821.434	272.34
1824.645	273.55
1827.856	278.11
1831.067	280.67
1834.278	278.76
1837.488	281.03
1840.698	283.33
1843.908	280.12
1847.117	281.33
1850.326	282.8
1853.535	281.88
1856.744	286.19
1859.952	285.71
1863.16	283.59
1866.368	281.16
1869.575	286.12
1872.782	281.27
1875.989	279.53
1879.196	278.25
1882.402	276.63
1885.608	277.73
1888.814	278.49
1892.019	277.34
1895.224	276.38
1898.429	274.8
1901.634	276.77
1904.838	276.22
1908.042	280
1911.246	281.01
1914.449	283.07
1917.652	283.11
1920.855	282.36
1924.058	281.74
1927.26	280.63
1930.462	281.98
1933.664	285.63
1936.865	282.73
1940.066	282.81
1943.267	280.74
1946.467	280.75
1949.668	282.86
1952.868	286.61
1956.067	286.66
1959.267	287.05
1962.466	287.82
1965.665	286.51
1968.863	287.47
1972.061	291.65
1975.259	294.04
1978.457	296.66
1981.654	298.97
1984.852	299.53
1988.048	298.51
1991.245	300.34
1994.441	304.44
1997.637	306.67
2000.833	312.03
2004.028	315.98
2007.223	317.86
2010.418	320.65
2013.613	326.17
2016.807	329.58
2020.001	332.01
2023.194	337.35
2026.388	345.95
2029.581	352.97
2032.774	356.05
2035.966	363.28
2039.158	363.81
2042.35	370.96
2045.542	373.55
2048.733	379.05
2051.924	383.83
2055.115	391.1
2058.306	391.4
2061.496	395.92
2064.686	394.89
2067.875	402.95
2071.065	404.06
2074.254	402.59
2077.442	406.46
2080.631	408.66
2083.819	412.54
2087.007	413.04
2090.195	417.67
2093.382	421.01
2096.569	417.66
2099.756	426.15
2102.942	425.66
2106.128	431.24
2109.314	439.72
2112.5	438.76
2115.685	447.84
2118.87	449.42
2122.055	457.24
2125.239	460.54
2128.424	466.51
2131.608	471.02
2134.791	476.28
2137.974	478.98
2141.157	479.65
2144.34	480.93
2147.523	489.18
2150.705	485.46
2153.887	488.79
2157.068	491.83
2160.25	486.04
2163.431	488.26
2166.611	492.93
2169.792	502.22
2172.972	507.92
2176.152	510.23
2179.331	517.51
2182.511	525.64
2185.69	532.26
2188.868	543.28
2192.047	543.96
2195.225	560.74
2198.403	575.54
2201.58	585.09
2204.758	595.63
2207.935	608.39
2211.111	619.34
2214.288	627.07
2217.464	628.87
2220.64	637.87
2223.815	646.99
2226.991	674.13
2230.166	675.31
2233.34	687.25
2236.515	698.73
2239.689	698.58
2242.863	701.91
2246.036	726.44
2249.209	718.45
2252.382	729.63
2255.555	752.72
2258.727	754.9
2261.9	757.44
2265.071	764.69
2268.243	776.28
2271.414	785.28
2274.585	805.49
2277.756	813.43
2280.926	814.76
2284.096	835.31
2287.266	854.88
2290.436	859.9
2293.605	880.72
2296.774	908.41
2299.942	937.92
2303.111	942.33
2306.279	965.6
2309.447	977.87
2312.614	1001.67
2315.781	1029.96
2318.948	1079.67
2322.115	1063.2
2325.281	1119.81
2328.447	1094.85
2331.613	1143.18
2334.779	1128.25
2337.944	1176.48
2341.109	1187.22
2344.274	1216.47
2347.438	1261.89
2350.602	1262.84
2353.766	1298.91
2356.929	1317.78
2360.092	1308.17
2363.255	1405.68
2366.418	1396.17
2369.58	1426.82
2372.742	1519.26
2375.904	1558.12
2379.066	1551.01
2382.227	1515.59
2385.388	1645.91
2388.548	1650.63
2391.709	1670.88
2394.869	1864.18
2398.029	1779.06
2401.188	1831.15
2404.347	1819.35
2407.506	1787.59
2410.665	1837.47
2413.823	1946.46
2416.981	2066.84
2420.139	1996.4
2423.296	1972.26
2426.453	2060.31
2429.61	1980.35
2432.767	2079.18
2435.923	2059.23
2439.079	2241.28
2442.235	2269.24
2445.391	2251.72
2448.546	2239.79
2451.701	2176.25
2454.855	2178.11
2458.009	2304.15
2461.163	2396.54
2464.317	2482.53
2467.471	2548.11
2470.624	2543.91
2473.777	2490.04
2476.929	2429.76
2480.082	2356.11
2483.234	2326.88
2486.385	2441.01
2489.537	2450.74
2492.688	2550.15
2495.839	2479.73
2498.989	2429.77
2502.14	2437.54
2505.29	2468.33
2508.439	2507.71
2511.589	2498.11
2514.738	2724.73
2517.887	2665.33
2521.035	2825.59
2524.183	2840.87
2527.331	2862.13
2530.479	2852.04
2533.627	2874.14
