Data from C_2_DIV_PA_2N_Splice17_13-43-10-331.txt Node
Date: Sat Mar 07 13:43:10 EST 2020
User: sa697716
Spectrometer: NQ5500242
Trigger mode: 0
Integration Time (sec): 1.450000E-1
Scans to average: 20
Nonlinearity correction enabled: false
Boxcar width: 5
Storing dark spectrum: false
XAxis mode: Wavelengths
Number of Pixels in Spectrum: 512
>>>>>Begin Spectral Data<<<<<
187.83	216.25
188.298	229.22
188.766	212.98
189.233	161.53
189.701	184.15
190.169	226.42
190.636	269.38
191.104	347.67
191.571	40.96
192.039	-208.49
192.506	-654.68
192.974	-7.75
193.441	-34.34
193.908	-31.48
194.375	-49.75
194.842	-28.88
195.31	2.19
195.777	188.95
196.244	82.8
196.711	71.49
197.177	73.73
197.644	71.82
198.111	72
198.578	71.71
199.045	72.28
199.511	72.01
199.978	71.72
200.445	72.23
200.911	72.34
201.378	72.26
201.844	72.26
202.31	71.87
202.777	71.85
203.243	71.73
203.709	71.31
204.176	70.74
204.642	70.49
205.108	70.08
205.574	69.37
206.04	67.96
206.506	67.09
206.972	66.42
207.438	65.63
207.903	64.67
208.369	63.35
208.835	62.25
209.301	60.97
209.766	59.03
210.232	57.49
210.697	55.81
211.163	54.47
211.628	53.03
212.094	51.64
212.559	50.55
213.024	49.27
213.49	48.33
213.955	47.12
214.42	45.64
214.885	44.44
215.35	42.75
215.815	40.75
216.28	37.92
216.745	34.85
217.21	31.78
217.675	28.8
218.14	26.4
218.604	24.2
219.069	22.44
219.534	21.06
219.998	19.83
220.463	18.85
220.927	17.91
221.392	17.26
221.856	16.74
222.32	16.25
222.785	15.87
223.249	15.47
223.713	15.14
224.177	14.87
224.642	14.57
225.106	14.29
225.57	14
226.034	13.79
226.497	13.59
226.961	13.37
227.425	13.21
227.889	13.01
228.353	12.83
228.816	12.63
229.28	12.44
229.744	12.27
230.207	12.11
230.671	11.96
231.134	11.79
231.597	11.65
232.061	11.48
232.524	11.31
232.987	11.18
233.45	11.08
233.914	10.96
234.377	10.85
234.84	10.74
235.303	10.63
235.766	10.54
236.229	10.45
236.691	10.35
237.154	10.28
237.617	10.2
238.08	10.1
238.542	10
239.005	9.92
239.468	9.82
239.93	9.74
240.393	9.65
240.855	9.55
241.317	9.46
241.78	9.36
242.242	9.26
242.704	9.18
243.166	9.1
243.629	9.03
244.091	8.94
244.553	8.86
245.015	8.77
245.477	8.7
245.939	8.63
246.4	8.55
246.862	8.49
247.324	8.42
247.786	8.34
248.247	8.27
248.709	8.18
249.17	8.11
249.632	8.08
250.093	8.03
250.555	7.96
251.016	7.91
251.477	7.85
251.939	7.8
252.4	7.76
252.861	7.71
253.322	7.66
253.783	7.62
254.244	7.58
254.705	7.51
255.166	7.46
255.627	7.41
256.088	7.37
256.549	7.33
257.009	7.27
257.47	7.22
257.931	7.17
258.391	7.12
258.852	7.06
259.312	7.01
259.773	6.96
260.233	6.93
260.694	6.89
261.154	6.84
261.614	6.8
262.074	6.76
262.534	6.72
262.994	6.69
263.455	6.66
263.915	6.63
264.374	6.61
264.834	6.58
265.294	6.55
265.754	6.53
266.214	6.51
266.673	6.5
267.133	6.49
267.593	6.48
268.052	6.47
268.512	6.46
268.971	6.45
269.431	6.44
269.89	6.43
270.349	6.43
270.809	6.41
271.268	6.4
271.727	6.39
272.186	6.38
272.645	6.37
273.104	6.36
273.563	6.35
274.022	6.33
274.481	6.33
274.94	6.33
275.399	6.31
275.857	6.31
276.316	6.3
276.775	6.29
277.233	6.29
277.692	6.28
278.15	6.28
278.609	6.28
279.067	6.27
279.525	6.26
279.984	6.25
280.442	6.25
280.9	6.25
281.358	6.25
281.816	6.25
282.274	6.24
282.732	6.23
283.19	6.21
283.648	6.21
284.106	6.2
284.564	6.19
285.021	6.18
285.479	6.17
285.937	6.14
286.394	6.13
286.852	6.11
287.309	6.1
287.767	6.08
288.224	6.06
288.682	6.04
289.139	6.02
289.596	6
290.053	5.98
290.511	5.95
290.968	5.94
291.425	5.9
291.882	5.89
292.339	5.87
292.796	5.85
293.252	5.84
293.709	5.82
294.166	5.81
294.623	5.8
295.079	5.79
295.536	5.79
295.992	5.78
296.449	5.78
296.905	5.77
297.362	5.77
297.818	5.76
298.274	5.76
298.731	5.75
299.187	5.74
299.643	5.72
300.099	5.72
300.555	5.71
301.011	5.7
301.467	5.7
301.923	5.68
302.379	5.67
302.835	5.66
303.291	5.65
303.746	5.64
304.202	5.64
304.658	5.65
305.113	5.63
305.569	5.63
306.024	5.62
306.479	5.62
306.935	5.61
307.39	5.61
307.845	5.61
308.301	5.62
308.756	5.61
309.211	5.61
309.666	5.61
310.121	5.61
310.576	5.61
311.031	5.61
311.486	5.6
311.94	5.6
312.395	5.59
312.85	5.59
313.305	5.58
313.759	5.58
314.214	5.58
314.668	5.57
315.123	5.56
315.577	5.56
316.032	5.55
316.486	5.54
316.94	5.53
317.394	5.51
317.849	5.49
318.303	5.48
318.757	5.47
319.211	5.45
319.665	5.43
320.119	5.42
320.572	5.4
321.026	5.39
321.48	5.38
321.934	5.36
322.387	5.36
322.841	5.35
323.295	5.36
323.748	5.35
324.202	5.35
324.655	5.36
325.108	5.36
325.562	5.36
326.015	5.35
326.468	5.36
326.921	5.36
327.374	5.35
327.827	5.35
328.28	5.34
328.733	5.34
329.186	5.34
329.639	5.33
330.092	5.33
330.545	5.34
330.997	5.33
331.45	5.34
331.903	5.35
332.355	5.35
332.808	5.36
333.26	5.36
333.713	5.34
334.165	5.34
334.617	5.34
335.069	5.33
335.522	5.33
335.974	5.34
336.426	5.32
336.878	5.31
337.33	5.3
337.782	5.3
338.234	5.31
338.686	5.31
339.137	5.31
339.589	5.3
340.041	5.29
340.493	5.29
340.944	5.28
341.396	5.27
341.847	5.27
342.299	5.26
342.75	5.24
343.201	5.22
343.653	5.21
344.104	5.19
344.555	5.17
345.006	5.16
345.457	5.15
345.908	5.14
346.359	5.14
346.81	5.12
347.261	5.11
347.712	5.11
348.163	5.1
348.613	5.09
349.064	5.1
349.515	5.09
349.965	5.09
350.416	5.08
350.866	5.07
351.317	5.06
351.767	5.07
352.217	5.07
352.668	5.07
353.118	5.08
353.568	5.07
354.018	5.08
354.468	5.1
354.918	5.1
355.368	5.11
355.818	5.12
356.268	5.11
356.718	5.12
357.168	5.12
357.617	5.11
358.067	5.11
358.517	5.13
358.966	5.13
359.416	5.13
359.865	5.13
360.315	5.12
360.764	5.13
361.213	5.13
361.663	5.12
362.112	5.12
362.561	5.13
363.01	5.13
363.459	5.11
363.908	5.1
364.357	5.09
364.806	5.1
365.255	5.1
365.703	5.12
366.152	5.13
366.601	5.14
367.05	5.15
367.498	5.14
367.947	5.15
368.395	5.17
368.844	5.18
369.292	5.18
369.74	5.19
370.189	5.19
370.637	5.19
371.085	5.18
371.533	5.17
371.981	5.18
372.429	5.19
372.877	5.2
373.325	5.2
373.773	5.2
374.221	5.21
374.669	5.21
375.116	5.21
375.564	5.21
376.012	5.22
376.459	5.24
376.907	5.25
377.354	5.26
377.801	5.28
378.249	5.28
378.696	5.29
379.143	5.3
379.591	5.32
380.038	5.33
380.485	5.35
380.932	5.37
381.379	5.39
381.826	5.4
382.273	5.4
382.72	5.39
383.166	5.41
383.613	5.42
384.06	5.42
384.506	5.44
384.953	5.45
385.4	5.46
385.846	5.47
386.292	5.47
386.739	5.48
387.185	5.49
387.631	5.53
388.078	5.54
388.524	5.56
388.97	5.57
389.416	5.6
389.862	5.63
390.308	5.65
390.754	5.67
391.2	5.7
391.645	5.72
392.091	5.76
392.537	5.78
392.983	5.79
393.428	5.83
393.874	5.85
394.319	5.86
394.765	5.88
395.21	5.9
395.655	5.9
396.101	5.92
396.546	5.95
396.991	5.95
397.436	5.98
397.881	6.02
398.326	6.03
398.771	6.07
399.216	6.08
399.661	6.09
400.106	6.1
400.551	6.12
400.995	6.13
401.44	6.14
401.885	6.16
402.329	6.18
402.774	6.19
403.218	6.23
403.663	6.23
404.107	6.25
404.551	6.26
404.995	6.28
405.44	6.28
405.884	6.29
406.328	6.31
406.772	6.32
407.216	6.34
407.66	6.33
408.104	6.32
408.547	6.33
408.991	6.34
409.435	6.35
409.879	6.36
410.322	6.39
410.766	6.41
411.209	6.44
411.653	6.45
412.096	6.46
412.54	6.49
412.983	6.52
413.426	6.55
413.869	6.58
414.312	6.62
414.756	6.64
415.199	6.64
415.642	6.65
416.085	6.65
416.527	6.64
416.97	6.62
417.413	6.62
417.856	6.61
418.298	6.59
418.741	6.58
419.184	6.57
419.626	6.56
420.069	6.57
420.511	6.58
420.953	6.59
421.396	6.62
421.838	6.63
422.28	6.64
422.722	6.66
423.164	6.68
423.606	6.69
424.048	6.68
424.49	6.66
424.932	6.65
425.374	6.62
425.816	6.58
426.258	6.56
426.699	6.56
427.141	6.55
427.582	6.55
428.024	6.55
428.465	6.56
428.907	6.56
429.348	6.56
429.789	6.58
430.231	6.62
430.672	6.67
431.113	6.7
431.554	6.72
431.995	6.73
432.436	6.74
432.877	6.75
433.318	6.78
433.759	6.81
434.2	6.86
434.64	6.89
435.081	6.89
435.522	6.9
435.962	6.9
436.403	6.92
436.843	6.93
437.284	6.92
437.724	6.91
438.164	6.89
438.604	6.89
439.045	6.87
439.485	6.84
439.925	6.82
440.365	6.82
440.805	6.83
441.245	6.82
441.685	6.84
442.125	6.86
442.564	6.86
443.004	6.86
443.444	6.87
443.883	6.88
444.323	6.89
444.762	6.89
445.202	6.88
445.641	6.89
446.081	6.88
446.52	6.86
446.959	6.87
447.398	6.88
447.837	6.89
448.276	6.89
448.716	6.89
449.154	6.88
449.593	6.9
450.032	6.89
450.471	6.86
450.91	6.84
451.349	6.84
451.787	6.81
452.226	6.78
452.664	6.76
453.103	6.73
453.541	6.7
453.98	6.7
454.418	6.66
454.856	6.66
455.295	6.65
455.733	6.62
456.171	6.61
456.609	6.59
457.047	6.58
457.485	6.57
457.923	6.57
458.361	6.57
458.798	6.55
459.236	6.54
459.674	6.52
460.111	6.51
460.549	6.52
460.987	6.52
461.424	6.53
461.862	6.53
462.299	6.54
462.736	6.54
463.173	6.55
463.611	6.57
464.048	6.59
464.485	6.61
464.922	6.61
465.359	6.61
465.796	6.65
466.233	6.65
466.67	6.67
467.106	6.67
467.543	6.66
467.98	6.65
468.416	6.63
468.853	6.61
469.29	6.59
469.726	6.59
470.162	6.58
470.599	6.53
471.035	6.51
471.471	6.47
471.907	6.45
472.344	6.44
472.78	6.44
473.216	6.42
473.652	6.41
474.088	6.38
474.523	6.36
474.959	6.34
475.395	6.32
475.831	6.31
476.266	6.3
476.702	6.28
477.138	6.26
477.573	6.24
478.008	6.23
478.444	6.21
478.879	6.22
479.314	6.21
479.75	6.19
480.185	6.17
480.62	6.16
481.055	6.15
481.49	6.12
481.925	6.11
482.36	6.1
482.795	6.08
483.229	6.06
483.664	6.05
484.099	6.03
484.534	6.02
484.968	6.02
485.403	6.01
485.837	6
486.271	6.01
486.706	6
487.14	5.99
487.574	5.99
488.009	5.99
488.443	5.98
488.877	5.99
489.311	6
489.745	6.01
490.179	6.02
490.613	6.03
491.046	6.03
491.48	6.04
491.914	6.04
492.348	6.05
492.781	6.07
493.215	6.08
493.648	6.08
494.082	6.09
494.515	6.09
494.948	6.09
495.382	6.1
495.815	6.12
496.248	6.12
496.681	6.14
497.114	6.15
497.547	6.17
497.98	6.18
498.413	6.2
498.846	6.22
499.279	6.23
499.711	6.24
500.144	6.25
500.577	6.28
501.009	6.29
501.442	6.31
501.874	6.34
502.306	6.36
502.739	6.4
503.171	6.43
503.603	6.46
504.036	6.5
504.468	6.53
504.9	6.56
505.332	6.59
505.764	6.64
506.196	6.68
506.627	6.72
507.059	6.77
507.491	6.8
507.923	6.86
508.354	6.92
508.786	6.98
509.217	7.06
509.649	7.13
510.08	7.21
510.512	7.29
510.943	7.37
511.374	7.45
511.805	7.54
512.237	7.63
512.668	7.71
513.099	7.79
513.53	7.89
513.961	7.98
514.391	8.08
514.822	8.19
515.253	8.29
515.684	8.41
516.114	8.52
516.545	8.65
516.975	8.79
517.406	8.92
517.836	9.04
518.267	9.18
518.697	9.31
519.127	9.44
519.558	9.57
519.988	9.71
520.418	9.84
520.848	9.97
521.278	10.12
521.708	10.49
522.138	10.64
522.567	10.79
522.997	10.92
523.427	11.06
523.857	11.19
524.286	11.33
524.716	11.47
525.145	11.6
525.575	11.73
526.004	11.85
526.433	11.73
526.863	11.83
527.292	11.96
527.721	12.07
528.15	12.17
528.579	12.28
529.008	12.38
529.437	12.47
529.866	12.56
530.295	12.65
530.724	12.72
531.152	12.8
531.581	12.88
532.01	12.95
532.438	13.02
532.867	13.1
533.295	13.17
533.723	13.22
534.152	13.27
534.58	13.33
535.008	13.36
535.436	13.43
535.865	13.47
536.293	13.5
536.721	13.52
537.149	13.55
537.576	13.58
538.004	13.61
538.432	13.64
538.86	13.67
539.287	13.69
539.715	13.74
540.143	13.74
540.57	13.77
540.998	13.79
541.425	13.82
541.852	13.84
542.28	13.86
542.707	13.88
543.134	13.91
543.561	13.94
543.988	13.95
544.415	13.96
544.842	13.99
545.269	14.02
545.696	14.06
546.123	14.09
546.549	14.11
546.976	14.12
547.403	14.15
547.829	14.16
548.256	14.17
548.682	14.19
549.108	14.22
549.535	14.24
549.961	14.23
550.387	14.23
550.813	14.24
551.24	14.24
551.666	14.23
552.092	14.23
552.518	14.24
552.943	14.23
553.369	14.22
553.795	14.19
554.221	14.16
554.646	14.13
555.072	14.09
555.498	14.04
555.923	14.01
556.349	13.96
556.774	13.9
557.199	13.84
557.625	13.78
558.05	13.72
558.475	13.66
558.9	13.6
559.325	13.55
559.75	13.49
560.175	13.42
560.6	13.35
561.025	13.28
561.449	13.21
561.874	13.12
562.299	13.05
562.723	12.96
563.148	12.86
563.572	12.76
563.997	12.66
564.421	12.55
564.846	12.46
565.27	12.35
565.694	12.26
566.118	12.16
566.542	12.05
566.966	11.95
567.39	11.86
567.814	11.77
568.238	11.67
568.662	11.58
569.086	11.48
569.509	11.39
569.933	11.31
570.357	11.21
570.78	11.12
571.204	11.04
571.627	10.95
572.05	10.87
572.474	10.81
572.897	10.73
573.32	10.66
573.743	10.6
574.166	10.54
574.589	10.45
575.012	10.39
575.435	10.32
575.858	10.26
576.281	10.19
576.704	10.14
577.126	10.07
577.549	10.02
577.972	9.96
578.394	9.9
578.817	9.85
579.239	9.82
579.661	9.78
580.084	9.75
580.506	9.71
580.928	9.67
581.35	9.63
581.772	9.59
582.194	9.55
582.616	9.5
583.038	9.47
583.46	9.41
583.882	9.37
584.303	9.32
584.725	9.27
585.147	9.24
585.568	9.21
585.99	9.18
586.411	9.16
586.833	9.13
587.254	9.09
587.675	9.06
588.096	9.03
588.518	9
588.939	8.98
589.36	8.96
589.781	8.93
590.202	8.92
590.623	8.9
591.043	8.86
591.464	8.84
591.885	8.82
592.305	8.8
592.726	8.79
593.147	8.77
593.567	8.75
593.987	8.72
594.408	8.69
594.828	8.64
595.248	8.62
595.669	8.61
596.089	8.59
596.509	8.57
596.929	8.56
597.349	8.53
597.769	8.52
598.189	8.5
598.608	8.5
599.028	8.48
599.448	8.47
599.867	8.44
600.287	8.4
600.706	8.39
601.126	8.36
601.545	8.34
601.965	8.33
602.384	8.3
602.803	8.27
603.222	8.24
603.641	8.2
604.061	8.19
604.48	8.15
604.898	8.13
605.317	8.1
605.736	8.06
606.155	8.04
606.574	8
606.992	7.95
607.411	7.92
607.829	7.85
608.248	7.81
608.666	7.77
609.085	7.74
609.503	7.72
609.921	7.7
610.339	7.67
610.758	7.64
611.176	7.6
611.594	7.58
612.012	7.55
612.43	7.55
612.847	7.53
613.265	7.49
613.683	7.47
614.101	7.43
614.518	7.4
614.936	7.37
615.353	7.33
615.771	7.31
616.188	7.28
616.606	7.28
617.023	7.25
617.44	7.22
617.857	7.21
618.274	7.18
618.691	7.16
619.108	7.14
619.525	7.13
619.942	7.12
620.359	7.1
620.776	7.09
621.192	7.08
621.609	7.06
622.026	7.06
622.442	7.06
622.859	7.04
623.275	7.03
623.691	7.03
624.108	7.02
624.524	7.02
624.94	7.02
625.356	7.02
625.772	7.01
626.188	7
626.604	7
627.02	6.99
627.436	7
627.852	7
628.268	6.99
628.683	6.99
629.099	6.98
629.514	6.97
629.93	6.97
630.345	6.97
630.761	6.96
631.176	6.94
631.591	6.94
632.007	6.94
632.422	6.92
632.837	6.92
633.252	6.9
633.667	6.88
634.082	6.86
634.497	6.84
634.911	6.83
635.326	6.81
635.741	6.8
636.155	6.78
636.57	6.76
636.984	6.74
637.399	6.71
637.813	6.69
638.228	6.65
638.642	6.63
639.056	6.59
639.47	6.57
639.884	6.55
640.298	6.51
640.712	6.5
641.126	6.46
641.54	6.43
641.954	6.39
642.368	6.36
642.781	6.37
643.195	6.35
643.609	6.33
644.022	6.29
644.436	6.27
644.849	6.25
645.262	6.22
645.676	6.19
646.089	6.18
646.502	6.17
646.915	6.15
647.328	6.13
647.741	6.1
648.154	6.09
648.567	6.09
648.98	6.07
649.393	6.06
649.805	6.05
650.218	6.04
650.631	6.04
651.043	6.02
651.456	6.03
651.868	6.01
652.28	6.01
652.693	5.99
653.105	5.99
653.517	5.97
653.929	5.96
654.341	5.96
654.753	5.95
655.165	5.93
655.577	5.93
655.989	5.91
656.401	5.9
656.813	5.9
657.224	5.88
657.636	5.85
658.047	5.85
658.459	5.83
658.87	5.81
659.282	5.78
659.693	5.76
660.104	5.74
660.515	5.72
660.926	5.7
661.338	5.68
661.749	5.67
662.159	5.66
662.57	5.65
662.981	5.64
663.392	5.63
663.803	5.63
664.213	5.63
664.624	5.61
665.035	5.61
665.445	5.6
665.855	5.6
666.266	5.6
666.676	5.61
667.086	5.6
667.497	5.6
667.907	5.6
668.317	5.6
668.727	5.6
669.137	5.6
669.547	5.6
669.956	5.61
670.366	5.62
670.776	5.62
671.186	5.61
671.595	5.62
672.005	5.63
672.414	5.63
672.824	5.64
673.233	5.64
673.642	5.67
674.052	5.68
674.461	5.69
674.87	5.7
675.279	5.72
675.688	5.73
676.097	5.75
676.506	5.77
676.915	5.78
677.323	5.8
677.732	5.82
678.141	5.84
678.549	5.85
678.958	5.86
679.366	5.88
679.775	5.89
680.183	5.92
680.592	5.95
681	5.98
681.408	6
681.816	6.03
682.224	6.06
682.632	6.08
683.04	6.1
683.448	6.13
683.856	6.15
684.264	6.19
684.671	6.23
685.079	6.26
685.487	6.31
685.894	6.35
686.302	6.41
686.709	6.47
687.116	6.54
687.524	6.63
687.931	6.72
688.338	6.83
688.745	6.92
689.152	7.03
689.559	7.16
689.966	7.31
690.373	7.45
690.78	7.62
691.187	7.81
691.593	8.01
692	8.23
692.407	8.46
692.813	8.7
693.22	8.97
693.626	9.24
694.032	9.53
694.439	9.84
694.845	10.18
695.251	10.51
695.657	10.85
696.063	11.2
696.469	11.59
696.875	11.97
697.281	12.36
697.687	12.77
698.093	13.19
698.498	13.61
698.904	14.03
699.31	14.46
699.715	14.91
700.12	15.36
700.526	15.81
700.931	16.26
701.337	16.73
701.742	17.19
702.147	17.64
702.552	18.1
702.957	18.54
703.362	19.01
703.767	19.45
704.172	19.91
704.577	20.38
704.981	20.84
705.386	21.31
705.791	21.77
706.195	22.24
706.6	22.72
707.004	23.19
707.408	23.66
707.813	24.13
708.217	24.61
708.621	25.08
709.025	25.52
709.43	25.97
709.834	26.43
710.237	26.88
710.641	27.33
711.045	27.77
711.449	28.23
711.853	28.72
712.256	29.15
712.66	29.59
713.064	30.03
713.467	30.5
713.87	30.96
714.274	31.4
714.677	31.87
715.08	32.32
715.484	32.75
715.887	33.22
716.29	33.61
716.693	34.05
717.096	34.49
717.499	34.91
717.901	35.32
718.304	35.7
718.707	36.09
719.109	36.46
719.512	36.82
719.915	37.21
720.317	37.52
720.719	37.87
721.122	38.22
721.524	38.58
721.926	38.93
722.328	39.29
722.731	39.62
723.133	39.97
723.535	40.3
723.937	40.62
724.338	40.92
724.74	41.27
725.142	41.77
725.544	42.06
725.945	42.39
726.347	42.65
726.748	42.89
727.15	43.14
727.551	43.42
727.952	43.67
728.354	43.9
728.755	44.12
729.156	44.32
729.557	44.37
729.958	44.58
730.359	44.72
730.76	44.93
731.161	45.14
731.562	45.35
731.962	45.48
732.363	45.68
732.763	45.86
733.164	46.03
733.564	46.22
733.965	46.36
734.365	46.51
734.766	46.67
735.166	46.82
735.566	46.97
735.966	47.11
736.366	47.27
736.766	47.35
737.166	47.49
737.566	47.62
737.966	47.73
738.365	47.85
738.765	47.98
739.165	48.07
739.564	48.2
739.964	48.27
740.363	48.36
740.763	48.47
741.162	48.6
741.561	48.67
741.96	48.73
742.36	48.8
742.759	48.87
743.158	48.93
743.557	49.01
743.955	49.06
744.354	49.14
744.753	49.23
745.152	49.28
745.55	49.32
745.949	49.38
746.348	49.45
746.746	49.47
747.144	49.52
747.543	49.56
747.941	49.6
748.339	49.61
748.737	49.64
749.136	49.64
749.534	49.66
749.932	49.68
750.33	49.69
750.727	49.7
751.125	49.76
751.523	49.79
751.921	49.83
752.318	49.85
752.716	49.9
753.113	49.93
753.511	49.99
753.908	50.03
754.305	50.09
754.703	50.14
755.1	50.2
755.497	50.23
755.894	50.26
756.291	50.28
756.688	50.31
757.085	50.33
757.482	50.36
757.878	50.37
758.275	50.38
758.672	50.41
759.068	50.46
759.465	50.47
759.861	50.51
760.258	50.54
760.654	50.57
761.05	50.62
761.447	50.64
761.843	50.65
762.239	50.67
762.635	50.67
763.031	50.67
763.427	50.65
763.822	50.64
764.218	50.65
764.614	50.65
765.01	50.64
765.405	50.62
765.801	50.61
766.196	50.62
766.592	50.61
766.987	50.62
767.382	50.62
767.778	50.61
768.173	50.63
768.568	50.63
768.963	50.62
769.358	50.67
769.753	50.68
770.148	50.7
770.542	50.68
770.937	50.69
771.332	50.69
771.726	50.69
772.121	50.7
772.515	50.72
772.91	50.69
773.304	50.71
773.699	50.7
774.093	50.66
774.487	50.65
774.881	50.68
775.275	50.69
775.669	50.69
776.063	50.7
776.457	50.7
776.851	50.68
777.245	50.67
777.638	50.64
778.032	50.66
778.425	50.74
778.819	50.75
779.212	50.76
779.606	50.79
779.999	50.79
780.392	50.8
780.786	50.82
781.179	50.83
781.572	50.87
781.965	50.9
782.358	50.9
782.751	50.88
783.143	50.86
783.536	50.85
783.929	50.85
784.322	50.88
784.714	50.87
785.107	50.88
785.499	50.89
785.891	50.89
786.284	50.91
786.676	50.9
787.068	50.91
787.46	50.94
787.852	50.96
788.245	50.95
788.636	50.92
789.028	50.94
789.42	50.95
789.812	50.97
790.204	50.98
790.595	50.97
790.987	50.99
791.378	51.01
791.77	51.01
792.161	51.02
792.553	51.04
792.944	51.05
793.335	51.07
793.726	51.06
794.117	51.02
794.508	51.02
794.899	51.02
795.29	51.02
795.681	50.99
796.072	51
796.463	51.07
796.853	51.06
797.244	51.06
797.634	51.04
798.025	51.09
798.415	51.12
798.806	51.13
799.196	51.16
799.586	51.2
799.976	51.23
800.366	51.25
800.756	51.2
801.146	51.22
801.536	51.25
801.926	51.25
802.316	51.23
802.706	51.25
803.095	51.25
803.485	51.23
803.874	51.21
804.264	51.2
804.653	51.22
805.043	51.21
805.432	51.2
805.821	51.18
806.21	51.19
806.599	51.2
806.988	51.19
807.377	51.19
807.766	51.2
808.155	51.19
808.544	51.19
808.933	51.17
809.321	51.16
809.71	51.17
810.098	51.17
810.487	51.15
810.875	51.15
811.264	51.14
811.652	51.19
812.04	51.19
812.428	51.22
812.816	51.21
813.204	51.2
813.592	51.19
813.98	51.2
814.368	51.22
814.756	51.24
815.144	51.23
815.531	51.25
815.919	51.2
816.306	51.2
816.694	51.2
817.081	51.22
817.469	51.27
817.856	51.26
818.243	51.23
818.63	51.21
819.017	51.21
819.404	51.2
819.791	51.19
820.178	51.21
820.565	51.2
820.952	51.19
821.339	51.17
821.725	51.15
822.112	51.2
822.498	51.24
822.885	51.24
823.271	51.26
823.657	51.25
824.044	51.24
824.43	51.25
824.816	51.26
825.202	51.23
825.588	51.24
825.974	51.25
826.36	51.22
826.746	51.21
827.132	51.24
827.517	51.26
827.903	51.3
828.289	51.33
828.674	51.34
829.06	51.31
829.445	51.3
829.83	51.28
830.216	51.26
830.601	51.28
830.986	51.29
831.371	51.27
831.756	51.25
832.141	51.23
832.526	51.23
832.911	51.19
833.295	51.21
833.68	51.22
834.065	51.22
834.449	51.2
834.834	51.18
835.218	51.18
835.603	51.16
835.987	51.13
836.371	51.13
836.755	51.09
837.139	51.09
837.524	51.08
837.908	51.1
838.291	51.13
838.675	51.14
839.059	51.11
839.443	51.09
839.827	51.08
840.21	51.08
840.594	51.09
840.977	51.09
841.361	51.1
841.744	51.08
842.127	51.06
842.511	51.02
842.894	51.01
843.277	51.02
843.66	51.02
844.043	51.04
844.426	51.05
844.809	51.05
845.191	51.07
845.574	51.08
845.957	51.1
846.339	51.09
846.722	51.11
847.104	51.14
847.487	51.12
847.869	51.12
848.252	51.11
848.634	51.1
849.016	51.1
849.398	51.09
849.78	51.06
850.162	51.05
850.544	51.09
850.926	51.07
851.307	51.07
851.689	51.09
852.071	51.09
852.452	51.09
852.834	51.1
853.215	51.08
853.597	51.1
853.978	51.1
854.359	51.1
854.741	51.08
855.122	51.09
855.503	51.06
855.884	51.06
856.265	51.07
856.646	51.06
857.026	51.09
857.407	51.11
857.788	51.09
858.169	51.12
858.549	51.13
858.93	51.13
859.31	51.13
859.69	51.16
860.071	51.19
860.451	51.2
860.831	51.22
861.211	51.19
861.591	51.19
861.971	51.18
862.351	51.21
862.731	51.21
863.111	51.21
863.491	51.22
863.87	51.2
864.25	51.18
864.629	51.19
865.009	51.2
865.388	51.21
865.768	51.24
866.147	51.26
866.526	51.25
866.905	51.25
867.284	51.28
867.663	51.27
868.042	51.28
868.421	51.31
868.8	51.31
869.179	51.35
869.558	51.35
869.936	51.35
870.315	51.35
870.693	51.36
871.072	51.37
871.45	51.38
871.828	51.4
872.207	51.45
872.585	51.45
872.963	51.46
873.341	51.42
873.719	51.42
874.097	51.41
874.475	51.41
874.853	51.41
875.23	51.43
875.608	51.41
875.986	51.44
876.363	51.42
876.741	51.4
877.118	51.41
877.495	51.44
877.873	51.45
878.25	51.46
878.627	51.48
879.004	51.46
879.381	51.45
879.758	51.43
880.135	51.4
880.512	51.39
880.889	51.4
881.265	51.35
881.642	51.32
882.019	51.3
882.395	51.25
882.772	51.23
883.148	51.19
883.524	51.18
883.901	51.18
884.277	51.13
884.653	51.09
885.029	51.07
885.405	51.08
885.781	51.07
886.157	51.06
886.532	51.08
886.908	51.08
887.284	51.08
887.659	51.05
888.035	51.02
888.411	51.03
888.786	51.05
889.161	51.06
889.537	51.08
889.912	51.08
890.287	51.09
890.662	51.08
891.037	51.08
891.412	51.07
891.787	51.07
892.162	51.07
892.536	51.07
892.911	51.07
893.286	51.07
893.66	51.06
894.035	51.07
894.409	51.05
894.784	51.05
895.158	51.03
895.532	51.05
895.906	51.09
896.281	51.11
896.655	51.15
897.029	51.17
897.402	51.16
897.776	51.19
898.15	51.21
898.524	51.28
898.898	51.3
899.271	51.35
899.645	51.38
900.018	51.39
900.392	51.4
900.765	51.41
901.138	51.39
901.511	51.42
901.884	51.4
902.258	51.4
902.631	51.38
903.003	51.4
903.376	51.37
903.749	51.36
904.122	51.37
904.495	51.37
904.867	51.35
905.24	51.39
905.612	51.4
905.985	51.4
906.357	51.41
906.729	51.41
907.102	51.41
907.474	51.43
907.846	51.44
908.218	51.45
908.59	51.51
908.962	51.52
909.334	51.54
909.705	51.55
910.077	51.55
910.449	51.53
910.82	51.55
911.192	51.55
911.563	51.54
911.935	51.56
912.306	51.57
912.677	51.51
913.048	51.53
913.419	51.51
913.79	51.54
914.161	51.54
914.532	51.57
914.903	51.58
915.274	51.59
915.645	51.64
916.015	51.63
916.386	51.62
916.756	51.65
917.127	51.68
917.497	51.66
917.868	51.66
918.238	51.68
918.608	51.71
918.978	51.71
919.348	51.74
919.718	51.71
920.088	51.72
920.458	51.75
920.828	51.75
921.198	51.72
921.567	51.75
921.937	51.77
922.306	51.77
922.676	51.75
923.045	51.76
923.415	51.74
923.784	51.77
924.153	51.82
924.522	51.83
924.891	51.85
925.26	51.85
925.629	51.89
925.998	51.86
926.367	51.85
926.736	51.84
927.104	51.82
927.473	51.8
927.842	51.75
928.21	51.74
928.578	51.7
928.947	51.73
929.315	51.76
929.683	51.74
930.051	51.72
930.42	51.73
930.788	51.74
931.156	51.75
931.523	51.78
931.891	51.85
932.259	51.87
932.627	51.94
932.994	51.96
933.362	51.97
933.729	51.98
934.097	52.06
934.464	52.13
934.831	52.17
935.199	52.25
935.566	52.31
935.933	52.28
936.3	52.29
936.667	52.3
937.034	52.34
937.401	52.37
937.767	52.39
938.134	52.34
938.501	52.32
938.867	52.37
939.234	52.33
939.6	52.27
939.967	52.33
940.333	52.27
940.699	52.22
941.065	52.12
941.431	52.13
941.798	52.05
942.163	52.03
942.529	51.97
942.895	51.92
943.261	51.83
943.627	51.79
943.992	51.75
944.358	51.73
944.723	51.64
945.089	51.54
945.454	51.45
945.82	51.44
946.185	51.41
946.55	51.34
946.915	51.28
947.28	51.31
947.645	51.3
948.01	51.32
948.375	51.31
948.74	51.29
949.104	51.34
949.469	51.27
949.834	51.24
950.198	51.26
950.562	51.24
950.927	51.19
951.291	51.13
951.655	51.06
952.02	51.01
952.384	50.92
952.748	50.91
953.112	50.88
953.476	50.89
953.839	50.82
954.203	50.81
954.567	50.81
954.931	50.79
955.294	50.77
955.658	50.84
956.021	50.82
956.385	50.81
956.748	50.81
957.111	50.8
957.474	50.8
957.837	50.8
958.2	50.77
958.563	50.77
958.926	50.81
959.289	50.79
959.652	50.72
960.015	50.69
960.377	50.69
960.74	50.73
961.102	50.75
961.465	50.81
961.827	50.92
962.189	50.97
962.552	50.98
962.914	50.98
963.276	51.06
963.638	51.1
964	51.13
964.362	51.21
964.724	51.19
965.085	51.15
965.447	51.07
965.809	51
966.17	50.92
966.532	50.87
966.893	50.9
967.255	50.89
967.616	50.87
967.977	50.88
968.338	50.85
968.699	50.85
969.061	50.83
969.421	50.91
969.782	50.88
970.143	50.92
970.504	51.06
970.865	51.07
971.225	51.06
971.586	51.03
971.946	51
972.307	50.95
972.667	50.96
973.027	51.03
973.388	51.02
973.748	51.14
974.108	51.28
974.468	51.16
974.828	51.2
975.188	51.16
975.548	51.21
975.907	51.25
976.267	51.28
976.627	51.29
976.986	51.29
977.346	51.23
977.705	51.15
978.064	51.07
978.424	51.1
978.783	51.01
979.142	51.02
979.501	51.06
979.86	51.16
980.219	51.21
980.578	51.18
980.937	51.18
981.296	51.17
981.654	51.23
982.013	51.26
982.371	51.37
982.73	51.43
983.088	51.5
983.447	51.48
983.805	51.39
984.163	51.4
984.521	51.48
984.879	51.48
985.237	51.51
985.595	51.58
985.953	51.56
986.311	51.47
986.669	51.43
987.026	51.38
987.384	51.39
987.741	51.33
988.099	51.41
988.456	51.35
988.814	51.39
989.171	51.38
989.528	51.3
989.885	51.27
990.242	51.32
990.599	51.43
990.956	51.51
991.313	51.55
991.67	51.7
992.027	51.88
992.383	51.91
992.74	52
993.096	52.13
993.453	52.17
993.809	52.24
994.165	52.28
994.522	52.36
994.878	52.32
995.234	52.26
995.59	52.26
995.946	52.19
996.302	52.33
996.658	52.36
997.013	52.35
997.369	52.35
997.725	52.44
998.08	52.51
998.436	52.47
998.791	52.64
999.147	52.76
999.502	52.82
999.857	52.69
1000.212	52.59
1000.567	52.56
1000.922	52.65
1001.277	52.7
1001.632	52.66
1001.987	52.64
1002.342	52.57
1002.696	52.52
1003.051	52.64
1003.406	52.75
1003.76	52.83
1004.114	52.93
1004.469	53.1
1004.823	53.39
1005.177	53.41
1005.531	53.52
1005.885	53.62
1006.239	53.77
1006.593	54.02
1006.947	53.93
1007.301	53.78
1007.655	53.79
1008.008	53.8
1008.362	53.85
1008.715	53.53
1009.069	53.63
1009.422	53.76
1009.776	53.7
1010.129	53.69
1010.482	53.47
1010.835	53.66
1011.188	53.76
1011.541	53.81
1011.894	53.93
1012.247	53.85
1012.6	54.14
1012.952	54.21
1013.305	54.13
1013.657	54.31
1014.01	54.56
1014.362	54.71
1014.715	54.9
1015.067	55.14
1015.419	55.26
1015.771	55.29
1016.123	55.44
1016.475	55.42
1016.827	55.5
1017.179	55.7
1017.531	55.79
1017.883	55.68
1018.234	55.95
1018.586	55.85
1018.938	55.96
1019.289	55.95
1019.64	55.93
1019.992	55.83
1020.343	55.72
1020.694	55.89
1021.045	55.9
1021.396	55.78
1021.747	55.96
1022.098	55.98
1022.449	56.01
1022.8	56.08
1023.151	56.27
1023.501	56.77
1023.852	57.05
1024.202	57.11
1024.553	57.04
1024.903	57.4
1025.253	57.96
1025.604	58.14
1025.954	57.98
1026.304	58.22
1026.654	58.31
1027.004	58.34
1027.354	58.02
1027.703	57.98
1028.053	58.23
1028.403	58.49
1028.753	58.06
1029.102	57.99
1029.452	57.99
1029.801	58.27
1030.15	58.14
1030.499	57.94
897.758	2070.81
901.051	2077.71
904.343	2065.03
907.636	2103.82
910.928	2050.11
914.22	2044.67
917.511	2013.64
920.803	1927.58
924.094	1919.96
927.384	1877.58
930.675	1793.52
933.965	1779.5
937.255	1675.12
940.544	1608.78
943.834	1527.43
947.123	1512.59
950.411	1423.03
953.7	1393.28
956.988	1319.04
960.276	1262.15
963.563	1242.44
966.851	1199.06
970.138	1189.43
973.424	1152.44
976.711	1157.06
979.997	1101.24
983.283	1096.23
986.568	1074.75
989.853	1037.61
993.138	1021.02
996.423	980.86
999.708	954.13
1002.992	946.14
1006.275	898.62
1009.559	888.64
1012.842	859.2
1016.125	833.86
1019.408	818.08
1022.69	804.88
1025.972	792.36
1029.254	770.06
1032.536	758.29
1035.817	740.52
1039.098	729.07
1042.379	714.81
1045.659	707.78
1048.939	690.13
1052.219	676.29
1055.498	664.12
1058.778	651.33
1062.057	632.22
1065.335	625.44
1068.614	617.93
1071.892	612.88
1075.17	590.91
1078.447	580.93
1081.724	576.83
1085.001	570.92
1088.278	558.25
1091.554	547.1
1094.83	546.84
1098.106	544.44
1101.382	539.02
1104.657	535.23
1107.932	525.19
1111.206	530.05
1114.481	515.28
1117.755	509.6
1121.029	506.34
1124.302	507.62
1127.575	496.68
1130.848	489.53
1134.121	484.71
1137.393	483.74
1140.665	471.75
1143.937	469.98
1147.208	463.66
1150.48	464.83
1153.75	457.86
1157.021	449.48
1160.291	449.25
1163.561	446.06
1166.831	444.9
1170.101	442.66
1173.37	439.2
1176.639	441.43
1179.907	436.03
1183.176	433.15
1186.444	431.73
1189.711	431.82
1192.979	431.56
1196.246	427.48
1199.513	429.24
1202.78	426.82
1206.046	426.17
1209.312	422.47
1212.578	423.14
1215.843	426.74
1219.108	423.77
1222.373	433.34
1225.638	436.62
1228.902	444.02
1232.166	444.06
1235.43	447.84
1238.693	454.33
1241.956	455.75
1245.219	464.83
1248.482	462.76
1251.744	463.93
1255.006	464.92
1258.268	452.28
1261.529	447.54
1264.79	442.69
1268.051	440.64
1271.312	433.92
1274.572	428.92
1277.832	424.84
1281.092	416.92
1284.351	414.75
1287.61	413.8
1290.869	406.95
1294.128	404.81
1297.386	404.97
1300.644	400.32
1303.902	402.44
1307.159	399.68
1310.416	400.64
1313.673	400.68
1316.93	404.62
1320.186	404.83
1323.442	405.99
1326.697	415.04
1329.953	415.29
1333.208	417.55
1336.463	422.52
1339.717	422.85
1342.972	428.19
1346.226	431.18
1349.479	431.09
1352.733	434.68
1355.986	435.73
1359.238	436.15
1362.491	439.08
1365.743	444.4
1368.995	442.81
1372.247	441.55
1375.498	442.2
1378.749	447.86
1382	441.26
1385.251	444.38
1388.501	440.37
1391.751	445.11
1395	441.55
1398.25	438.22
1401.499	435.71
1404.748	436.47
1407.996	432.84
1411.244	430.25
1414.492	428.78
1417.74	426.86
1420.987	419.54
1424.234	420.97
1427.481	413.48
1430.728	414.81
1433.974	408.93
1437.22	406.11
1440.465	404.85
1443.711	403.3
1446.956	401.38
1450.201	394.14
1453.445	390.42
1456.689	389.71
1459.933	382.33
1463.177	379.65
1466.42	372.43
1469.663	369.3
1472.906	367.47
1476.148	357.21
1479.391	351.44
1482.633	347.1
1485.874	343.32
1489.115	340.86
1492.356	335.16
1495.597	334.43
1498.838	328.46
1502.078	326.58
1505.318	324.36
1508.557	323.87
1511.797	323.69
1515.036	322.9
1518.274	322.05
1521.513	316.85
1524.751	317.28
1527.989	316.22
1531.227	314.82
1534.464	317.44
1537.701	314.01
1540.938	312.94
1544.174	308.84
1547.41	308.04
1550.646	306.41
1553.882	306.36
1557.117	303.76
1560.352	300.55
1563.587	300.11
1566.821	297.32
1570.055	293.07
1573.289	291.06
1576.523	291.42
1579.756	288.4
1582.989	286.95
1586.222	286.37
1589.454	283.77
1592.686	285.97
1595.918	284.65
1599.15	284.03
1602.381	284.01
1605.612	283.96
1608.843	286
1612.073	284.52
1615.303	286.72
1618.533	287.11
1621.762	285.6
1624.992	286.59
1628.221	286.54
1631.449	286.35
1634.678	285.28
1637.906	286.82
1641.134	286.7
1644.361	285.87
1647.588	287.07
1650.815	285.33
1654.042	283.45
1657.269	286.07
1660.495	286.12
1663.72	282.82
1666.946	284.29
1670.171	284.88
1673.396	284.52
1676.621	284.61
1679.845	284.1
1683.069	283.74
1686.293	286.28
1689.517	288.27
1692.74	287.36
1695.963	288.54
1699.185	293.49
1702.408	293.18
1705.63	294.2
1708.852	295.38
1712.073	295.99
1715.294	297.11
1718.515	297.8
1721.736	297.37
1724.956	297.85
1728.176	297.71
1731.396	300.79
1734.616	299.56
1737.835	301.03
1741.054	299.05
1744.272	300.15
1747.491	303.12
1750.709	303.81
1753.927	304.97
1757.144	303.36
1760.361	305.76
1763.578	306.44
1766.795	305.81
1770.011	306.78
1773.227	307.31
1776.443	311.33
1779.658	313.38
1782.874	311.43
1786.089	313.26
1789.303	314.13
1792.518	318.28
1795.732	317.44
1798.945	321.44
1802.159	320.92
1805.372	323.4
1808.585	329.3
1811.797	330.82
1815.01	329.15
1818.222	332.86
1821.434	334.34
1824.645	336.29
1827.856	342.49
1831.067	346.09
1834.278	343.24
1837.488	346.22
1840.698	349
1843.908	344.75
1847.117	347.15
1850.326	350.89
1853.535	349.23
1856.744	356.01
1859.952	355.44
1863.16	353.76
1866.368	351.09
1869.575	357.78
1872.782	352.2
1875.989	350.65
1879.196	349.69
1882.402	348.03
1885.608	350
1888.814	352.73
1892.019	351.56
1895.224	350.86
1898.429	348.57
1901.634	352.43
1904.838	351.84
1908.042	357.37
1911.246	359.25
1914.449	362.11
1917.652	362.02
1920.855	361.8
1924.058	361.19
1927.26	359.54
1930.462	362.22
1933.664	367.4
1936.865	362.93
1940.066	363.71
1943.267	360.8
1946.467	360.52
1949.668	363.16
1952.868	368.28
1956.067	367.11
1959.267	366.65
1962.466	368
1965.665	366
1968.863	366.03
1972.061	371.93
1975.259	374.84
1978.457	377.47
1981.654	379.36
1984.852	380.63
1988.048	378.21
1991.245	382.44
1994.441	388.77
1997.637	390.46
2000.833	397.07
2004.028	402.64
2007.223	404.5
2010.418	409.28
2013.613	415.63
2016.807	421.56
2020.001	423.66
2023.194	430.48
2026.388	439.38
2029.581	447.7
2032.774	453.21
2035.966	461.66
2039.158	463.11
2042.35	473.12
2045.542	473.55
2048.733	480.93
2051.924	487.59
2055.115	495.75
2058.306	496.18
2061.496	503.15
2064.686	503.01
2067.875	510.97
2071.065	512.24
2074.254	510.02
2077.442	513.7
2080.631	517.3
2083.819	522.91
2087.007	523
2090.195	529.1
2093.382	533.63
2096.569	527.74
2099.756	536.64
2102.942	537.77
2106.128	545.56
2109.314	556.63
2112.5	555.39
2115.685	567.06
2118.87	567.87
2122.055	579.13
2125.239	584.41
2128.424	593.14
2131.608	598.31
2134.791	605.4
2137.974	608.74
2141.157	609.42
2144.34	610.69
2147.523	620.64
2150.705	616.44
2153.887	621.46
2157.068	622.94
2160.25	616.58
2163.431	616.98
2166.611	624.46
2169.792	636.55
2172.972	643.65
2176.152	646.24
2179.331	655.28
2182.511	667.94
2185.69	676.8
2188.868	692.03
2192.047	692.2
2195.225	712.09
2198.403	731.73
2201.58	743.91
2204.758	757.31
2207.935	774.07
2211.111	788.66
2214.288	799.95
2217.464	801.41
2220.64	810.22
2223.815	821.26
2226.991	856.19
2230.166	859.57
2233.34	877.05
2236.515	889.61
2239.689	892.01
2242.863	895.86
2246.036	926.21
2249.209	913.14
2252.382	925.8
2255.555	959.7
2258.727	960.89
2261.9	965.08
2265.071	973.92
2268.243	987.54
2271.414	999.63
2274.585	1026.02
2277.756	1036.43
2280.926	1039.43
2284.096	1068.18
2287.266	1093.71
2290.436	1099.58
2293.605	1127.2
2296.774	1165.06
2299.942	1202.04
2303.111	1208.02
2306.279	1239.9
2309.447	1253.02
2312.614	1284.38
2315.781	1320.23
2318.948	1382.03
2322.115	1361.22
2325.281	1430.9
2328.447	1400.21
2331.613	1461
2334.779	1441.67
2337.944	1504.97
2341.109	1522.06
2344.274	1560.8
2347.438	1618.11
2350.602	1621.75
2353.766	1665.29
2356.929	1688.75
2360.092	1679.82
2363.255	1810.92
2366.418	1796.54
2369.58	1839.69
2372.742	1948.16
2375.904	1994.94
2379.066	1981.99
2382.227	1943.98
2385.388	2108.96
2388.548	2120.91
2391.709	2154.88
2394.869	2404.14
2398.029	2279.73
2401.188	2348.46
2404.347	2332.08
2407.506	2303.32
2410.665	2372.12
2413.823	2519.2
2416.981	2669.21
2420.139	2572.07
2423.296	2541.16
2426.453	2647
2429.61	2542.08
2432.767	2678.26
2435.923	2656.34
2439.079	2887.25
2442.235	2922.5
2445.391	2890.97
2448.546	2873.88
2451.701	2790.25
2454.855	2799.74
2458.009	2962.22
2461.163	3077.48
2464.317	3196.12
2467.471	3276.66
2470.624	3275.89
2473.777	3193.47
2476.929	3124.13
2480.082	3040.57
2483.234	2995.61
2486.385	3135.08
2489.537	3146.63
2492.688	3277.5
2495.839	3178
2498.989	3118.38
2502.14	3139.07
2505.29	3173.78
2508.439	3228.26
2511.589	3209.5
2514.738	3486.25
2517.887	3422.4
2521.035	3627.7
2524.183	3651.35
2527.331	3676.39
2530.479	3680.63
2533.627	3694.61
