Data from C_2_DEC_OH_4N_Splice17_13-05-22-742.txt Node
Date: Sat Mar 07 13:05:22 EST 2020
User: sa697716
Spectrometer: NQ5500242
Trigger mode: 0
Integration Time (sec): 1.450000E-1
Scans to average: 20
Nonlinearity correction enabled: false
Boxcar width: 5
Storing dark spectrum: false
XAxis mode: Wavelengths
Number of Pixels in Spectrum: 512
>>>>>Begin Spectral Data<<<<<
187.83	90.05
188.298	104.89
188.766	88.42
189.233	80.61
189.701	80.92
190.169	92.48
190.636	99.47
191.104	171.24
191.571	343.21
192.039	67.53
192.506	-75.35
192.974	-15.61
193.441	50.25
193.908	12.08
194.375	54.55
194.842	2.09
195.31	35
195.777	-54.42
196.244	9.26
196.711	17.99
197.177	19.57
197.644	18.53
198.111	18.75
198.578	18.87
199.045	18.41
199.511	18.18
199.978	18.37
200.445	18.56
200.911	18.68
201.378	18.67
201.844	18.61
202.31	18.07
202.777	18.02
203.243	18.01
203.709	17.68
204.176	17.73
204.642	17.62
205.108	17.49
205.574	17.29
206.04	16.85
206.506	16.78
206.972	16.64
207.438	16.49
207.903	16.19
208.369	15.68
208.835	15.26
209.301	14.88
209.766	14.18
210.232	13.69
210.697	12.93
211.163	12.63
211.628	12.17
212.094	11.67
212.559	11.68
213.024	11.37
213.49	11.26
213.955	10.76
214.42	10.43
214.885	10.09
215.35	9.65
215.815	9.18
216.28	8.26
216.745	7.46
217.21	6.72
217.675	5.9
218.14	5.24
218.604	4.53
219.069	4.12
219.534	3.67
219.998	3.34
220.463	3.05
220.927	2.75
221.392	2.59
221.856	2.41
222.32	2.24
222.785	2.09
223.249	1.97
223.713	1.89
224.177	1.81
224.642	1.74
225.106	1.64
225.57	1.58
226.034	1.53
226.497	1.48
226.961	1.44
227.425	1.39
227.889	1.37
228.353	1.32
228.816	1.29
229.28	1.26
229.744	1.23
230.207	1.2
230.671	1.17
231.134	1.14
231.597	1.14
232.061	1.11
232.524	1.09
232.987	1.06
233.45	1.07
233.914	1.06
234.377	1.03
234.84	1.02
235.303	1.02
235.766	1.02
236.229	1.01
236.691	0.99
237.154	0.97
237.617	0.97
238.08	0.96
238.542	0.93
239.005	0.94
239.468	0.93
239.93	0.92
240.393	0.92
240.855	0.9
241.317	0.89
241.78	0.87
242.242	0.86
242.704	0.86
243.166	0.85
243.629	0.85
244.091	0.84
244.553	0.83
245.015	0.81
245.477	0.8
245.939	0.8
246.4	0.79
246.862	0.78
247.324	0.77
247.786	0.77
248.247	0.76
248.709	0.74
249.17	0.72
249.632	0.72
250.093	0.73
250.555	0.73
251.016	0.73
251.477	0.71
251.939	0.72
252.4	0.71
252.861	0.71
253.322	0.71
253.783	0.71
254.244	0.71
254.705	0.7
255.166	0.69
255.627	0.68
256.088	0.68
256.549	0.68
257.009	0.67
257.47	0.66
257.931	0.65
258.391	0.63
258.852	0.62
259.312	0.62
259.773	0.61
260.233	0.61
260.694	0.61
261.154	0.6
261.614	0.6
262.074	0.59
262.534	0.58
262.994	0.58
263.455	0.58
263.915	0.57
264.374	0.57
264.834	0.56
265.294	0.56
265.754	0.56
266.214	0.55
266.673	0.55
267.133	0.55
267.593	0.54
268.052	0.54
268.512	0.54
268.971	0.54
269.431	0.54
269.89	0.53
270.349	0.53
270.809	0.53
271.268	0.52
271.727	0.52
272.186	0.52
272.645	0.53
273.104	0.52
273.563	0.52
274.022	0.52
274.481	0.52
274.94	0.52
275.399	0.52
275.857	0.52
276.316	0.52
276.775	0.52
277.233	0.52
277.692	0.52
278.15	0.52
278.609	0.52
279.067	0.52
279.525	0.53
279.984	0.52
280.442	0.52
280.9	0.53
281.358	0.53
281.816	0.53
282.274	0.53
282.732	0.53
283.19	0.53
283.648	0.53
284.106	0.53
284.564	0.52
285.021	0.54
285.479	0.54
285.937	0.54
286.394	0.54
286.852	0.54
287.309	0.54
287.767	0.54
288.224	0.54
288.682	0.54
289.139	0.53
289.596	0.53
290.053	0.52
290.511	0.51
290.968	0.51
291.425	0.5
291.882	0.5
292.339	0.5
292.796	0.5
293.252	0.5
293.709	0.5
294.166	0.5
294.623	0.5
295.079	0.5
295.536	0.5
295.992	0.51
296.449	0.51
296.905	0.51
297.362	0.51
297.818	0.51
298.274	0.52
298.731	0.51
299.187	0.51
299.643	0.5
300.099	0.5
300.555	0.5
301.011	0.5
301.467	0.5
301.923	0.49
302.379	0.49
302.835	0.49
303.291	0.49
303.746	0.49
304.202	0.5
304.658	0.5
305.113	0.5
305.569	0.51
306.024	0.51
306.479	0.51
306.935	0.52
307.39	0.51
307.845	0.51
308.301	0.52
308.756	0.52
309.211	0.52
309.666	0.52
310.121	0.52
310.576	0.52
311.031	0.52
311.486	0.53
311.94	0.53
312.395	0.53
312.85	0.53
313.305	0.53
313.759	0.54
314.214	0.55
314.668	0.54
315.123	0.54
315.577	0.54
316.032	0.54
316.486	0.53
316.94	0.53
317.394	0.54
317.849	0.53
318.303	0.53
318.757	0.53
319.211	0.53
319.665	0.52
320.119	0.52
320.572	0.52
321.026	0.52
321.48	0.52
321.934	0.51
322.387	0.51
322.841	0.51
323.295	0.51
323.748	0.51
324.202	0.51
324.655	0.51
325.108	0.52
325.562	0.52
326.015	0.52
326.468	0.53
326.921	0.54
327.374	0.54
327.827	0.55
328.28	0.54
328.733	0.55
329.186	0.55
329.639	0.56
330.092	0.55
330.545	0.55
330.997	0.55
331.45	0.55
331.903	0.55
332.355	0.56
332.808	0.55
333.26	0.55
333.713	0.54
334.165	0.54
334.617	0.54
335.069	0.53
335.522	0.54
335.974	0.54
336.426	0.54
336.878	0.53
337.33	0.53
337.782	0.52
338.234	0.53
338.686	0.54
339.137	0.55
339.589	0.54
340.041	0.55
340.493	0.55
340.944	0.54
341.396	0.54
341.847	0.55
342.299	0.55
342.75	0.55
343.201	0.55
343.653	0.54
344.104	0.53
344.555	0.54
345.006	0.53
345.457	0.53
345.908	0.53
346.359	0.53
346.81	0.53
347.261	0.53
347.712	0.52
348.163	0.52
348.613	0.52
349.064	0.53
349.515	0.53
349.965	0.54
350.416	0.53
350.866	0.54
351.317	0.54
351.767	0.54
352.217	0.54
352.668	0.55
353.118	0.55
353.568	0.55
354.018	0.54
354.468	0.55
354.918	0.55
355.368	0.55
355.818	0.55
356.268	0.56
356.718	0.56
357.168	0.56
357.617	0.55
358.067	0.55
358.517	0.56
358.966	0.56
359.416	0.56
359.865	0.56
360.315	0.56
360.764	0.56
361.213	0.56
361.663	0.55
362.112	0.56
362.561	0.57
363.01	0.57
363.459	0.56
363.908	0.56
364.357	0.56
364.806	0.56
365.255	0.55
365.703	0.56
366.152	0.56
366.601	0.57
367.05	0.57
367.498	0.56
367.947	0.56
368.395	0.57
368.844	0.57
369.292	0.56
369.74	0.57
370.189	0.57
370.637	0.57
371.085	0.56
371.533	0.55
371.981	0.56
372.429	0.56
372.877	0.56
373.325	0.55
373.773	0.55
374.221	0.55
374.669	0.55
375.116	0.55
375.564	0.55
376.012	0.55
376.459	0.56
376.907	0.56
377.354	0.55
377.801	0.57
378.249	0.57
378.696	0.57
379.143	0.57
379.591	0.58
380.038	0.58
380.485	0.59
380.932	0.59
381.379	0.6
381.826	0.6
382.273	0.61
382.72	0.6
383.166	0.61
383.613	0.62
384.06	0.63
384.506	0.64
384.953	0.66
385.4	0.67
385.846	0.71
386.292	0.74
386.739	0.78
387.185	0.82
387.631	0.87
388.078	0.91
388.524	0.95
388.97	1
389.416	1.05
389.862	1.13
390.308	1.22
390.754	1.33
391.2	1.45
391.645	1.55
392.091	1.65
392.537	1.75
392.983	1.89
393.428	2.09
393.874	2.33
394.319	2.61
394.765	2.89
395.21	3.19
395.655	3.48
396.101	3.81
396.546	4.17
396.991	4.57
397.436	5.01
397.881	5.44
398.326	5.85
398.771	6.24
399.216	6.59
399.661	6.91
400.106	7.2
400.551	7.46
400.995	7.68
401.44	7.89
401.885	8.08
402.329	8.28
402.774	8.48
403.218	8.74
403.663	8.99
404.107	9.28
404.551	9.58
404.995	9.84
405.44	10.1
405.884	10.37
406.328	10.67
406.772	11.01
407.216	11.37
407.66	11.7
408.104	11.94
408.547	12.19
408.991	12.4
409.435	12.64
409.879	12.93
410.322	13.26
410.766	13.6
411.209	13.92
411.653	14.2
412.096	14.43
412.54	14.66
412.983	14.9
413.426	15.16
413.869	15.43
414.312	15.69
414.756	15.89
415.199	16.04
415.642	16.17
416.085	16.27
416.527	16.34
416.97	16.35
417.413	16.32
417.856	16.29
418.298	16.25
418.741	16.22
419.184	16.2
419.626	16.23
420.069	16.31
420.511	16.4
420.953	16.49
421.396	16.63
421.838	16.82
422.28	17.05
422.722	17.28
423.164	17.47
423.606	17.66
424.048	17.8
424.49	17.83
424.932	17.71
425.374	17.41
425.816	17.01
426.258	16.58
426.699	16.29
427.141	16.22
427.582	16.35
428.024	16.57
428.465	16.82
428.907	17
429.348	17.18
429.789	17.5
430.231	18.04
430.672	18.8
431.113	19.66
431.554	20.44
431.995	21.01
432.436	21.44
432.877	21.74
433.318	21.98
433.759	22.29
434.2	22.67
434.64	23.11
435.081	23.5
435.522	23.82
435.962	24.06
436.403	24.25
436.843	24.4
437.284	24.53
437.724	24.75
438.164	25.01
438.604	25.31
439.045	25.65
439.485	25.93
439.925	26.17
440.365	26.35
440.805	26.45
441.245	26.58
441.685	26.68
442.125	26.81
442.564	26.93
443.004	27.1
443.444	27.31
443.883	27.53
444.323	27.72
444.762	27.91
445.202	28.16
445.641	28.49
446.081	28.88
446.52	29.28
446.959	29.66
447.398	29.92
447.837	30.04
448.276	30.02
448.716	29.97
449.154	29.94
449.593	29.92
450.032	29.82
450.471	29.65
450.91	29.43
451.349	29.25
451.787	29.06
452.226	28.92
452.664	28.85
453.103	28.8
453.541	28.75
453.98	28.66
454.418	28.52
454.856	28.4
455.295	28.27
455.733	28.13
456.171	28.03
456.609	27.93
457.047	27.86
457.485	27.81
457.923	27.82
458.361	27.88
458.798	27.97
459.236	28.05
459.674	28.14
460.111	28.24
460.549	28.36
460.987	28.47
461.424	28.6
461.862	28.72
462.299	28.82
462.736	28.91
463.173	29.02
463.611	29.17
464.048	29.38
464.485	29.64
464.922	29.95
465.359	30.24
465.796	30.49
466.233	30.71
466.67	30.97
467.106	31.29
467.543	31.67
467.98	32.05
468.416	32.35
468.853	32.62
469.29	32.85
469.726	33.09
470.162	33.35
470.599	33.63
471.035	33.87
471.471	34.03
471.907	34.12
472.344	34.18
472.78	34.21
473.216	34.26
473.652	34.35
474.088	34.38
474.523	34.4
474.959	34.39
475.395	34.36
475.831	34.34
476.266	34.35
476.702	34.35
477.138	34.32
477.573	34.28
478.008	34.21
478.444	34.07
478.879	33.92
479.314	33.7
479.75	33.44
480.185	33.14
480.62	32.79
481.055	32.28
481.49	31.6
481.925	30.86
482.36	30.17
482.795	29.58
483.229	29.09
483.664	28.72
484.099	28.4
484.534	28.12
484.968	27.92
485.403	27.83
485.837	27.9
486.271	28.12
486.706	28.37
487.14	28.53
487.574	28.6
488.009	28.63
488.443	28.61
488.877	28.61
489.311	28.61
489.745	28.62
490.179	28.63
490.613	28.64
491.046	28.65
491.48	28.69
491.914	28.78
492.348	28.93
492.781	29.08
493.215	29.18
493.648	29.24
494.082	29.28
494.515	29.29
494.948	29.29
495.382	29.28
495.815	29.24
496.248	29.21
496.681	29.14
497.114	29.04
497.547	28.94
497.98	28.9
498.413	28.96
498.846	29.05
499.279	29.09
499.711	29.14
500.144	29.21
500.577	29.35
501.009	29.53
501.442	29.82
501.874	30.12
502.306	30.41
502.739	30.67
503.171	30.83
503.603	30.98
504.036	31.19
504.468	31.41
504.9	31.64
505.332	31.84
505.764	32.01
506.196	32.13
506.627	32.27
507.059	32.45
507.491	32.65
507.923	32.89
508.354	33.14
508.786	33.31
509.217	33.45
509.649	33.55
510.08	33.66
510.512	33.79
510.943	33.95
511.374	34.08
511.805	34.1
512.237	33.98
512.668	33.83
513.099	33.67
513.53	33.57
513.961	33.54
514.391	33.58
514.822	33.67
515.253	33.81
515.684	33.99
516.114	34.21
516.545	34.51
516.975	35
517.406	35.57
517.836	36.14
518.267	36.66
518.697	37.11
519.127	37.57
519.558	38.02
519.988	38.43
520.418	38.8
520.848	39.11
521.278	39.39
521.708	39.7
522.138	39.72
522.567	39.7
522.997	39.71
523.427	39.81
523.857	39.94
524.286	40.09
524.716	40.23
525.145	40.34
525.575	40.47
526.004	40.65
526.433	40.75
526.863	41.13
527.292	41.54
527.721	41.84
528.15	41.99
528.579	42.01
529.008	41.98
529.437	41.91
529.866	41.87
530.295	41.83
530.724	41.81
531.152	41.8
531.581	41.77
532.01	41.71
532.438	41.68
532.867	41.73
533.295	41.8
533.723	41.87
534.152	41.91
534.58	41.91
535.008	41.83
535.436	41.69
535.865	41.48
536.293	41.26
536.721	41.12
537.149	41.05
537.576	41.01
538.004	41
538.432	40.95
538.86	40.93
539.287	40.96
539.715	41.07
540.143	41.24
540.57	41.42
540.998	41.65
541.425	41.84
541.852	42.04
542.28	42.2
542.707	42.33
543.134	42.45
543.561	42.55
543.988	42.67
544.415	42.75
544.842	42.83
545.269	42.94
545.696	43.07
546.123	43.17
546.549	43.26
546.976	43.34
547.403	43.45
547.829	43.58
548.256	43.71
548.682	43.78
549.108	43.89
549.535	43.97
549.961	44.06
550.387	44.13
550.813	44.23
551.24	44.3
551.666	44.33
552.092	44.33
552.518	44.27
552.943	44.23
553.369	44.18
553.795	44.08
554.221	43.92
554.646	43.7
555.072	43.48
555.498	43.22
555.923	43.01
556.349	42.84
556.774	42.7
557.199	42.56
557.625	42.42
558.05	42.3
558.475	42.19
558.9	42.11
559.325	42.05
559.75	41.98
560.175	41.88
560.6	41.73
561.025	41.52
561.449	41.27
561.874	41
562.299	40.77
562.723	40.55
563.148	40.28
563.572	40.02
563.997	39.75
564.421	39.45
564.846	39.17
565.27	38.92
565.694	38.66
566.118	38.39
566.542	38.13
566.966	37.84
567.39	37.59
567.814	37.39
568.238	37.22
568.662	37.1
569.086	37
569.509	36.91
569.933	36.82
570.357	36.72
570.78	36.65
571.204	36.6
571.627	36.57
572.05	36.48
572.474	36.4
572.897	36.31
573.32	36.15
573.743	36
574.166	35.84
574.589	35.68
575.012	35.59
575.435	35.53
575.858	35.49
576.281	35.45
576.704	35.44
577.126	35.42
577.549	35.4
577.972	35.44
578.394	35.5
578.817	35.58
579.239	35.66
579.661	35.74
580.084	35.79
580.506	35.83
580.928	35.81
581.35	35.76
581.772	35.69
582.194	35.64
582.616	35.59
583.038	35.53
583.46	35.44
583.882	35.31
584.303	35.07
584.725	34.76
585.147	34.46
585.568	34.19
585.99	33.99
586.411	33.84
586.833	33.7
587.254	33.56
587.675	33.45
588.096	33.34
588.518	33.3
588.939	33.35
589.36	33.48
589.781	33.63
590.202	33.77
590.623	33.85
591.043	33.87
591.464	33.88
591.885	33.89
592.305	33.86
592.726	33.83
593.147	33.79
593.567	33.71
593.987	33.63
594.408	33.56
594.828	33.5
595.248	33.44
595.669	33.38
596.089	33.3
596.509	33.2
596.929	33.1
597.349	32.98
597.769	32.86
598.189	32.75
598.608	32.7
599.028	32.67
599.448	32.63
599.867	32.59
600.287	32.56
600.706	32.55
601.126	32.53
601.545	32.52
601.965	32.51
602.384	32.5
602.803	32.5
603.222	32.46
603.641	32.36
604.061	32.26
604.48	32.14
604.898	32.02
605.317	31.88
605.736	31.74
606.155	31.59
606.574	31.47
606.992	31.33
607.411	31.2
607.829	31.05
608.248	30.91
608.666	30.77
609.085	30.63
609.503	30.48
609.921	30.34
610.339	30.23
610.758	30.11
611.176	29.95
611.594	29.8
612.012	29.59
612.43	29.41
612.847	29.26
613.265	29.11
613.683	29.02
614.101	28.94
614.518	28.85
614.936	28.75
615.353	28.67
615.771	28.63
616.188	28.6
616.606	28.61
617.023	28.61
617.44	28.61
617.857	28.55
618.274	28.47
618.691	28.36
619.108	28.25
619.525	28.14
619.942	28
620.359	27.85
620.776	27.66
621.192	27.5
621.609	27.34
622.026	27.19
622.442	27.06
622.859	26.95
623.275	26.83
623.691	26.69
624.108	26.57
624.524	26.46
624.94	26.37
625.356	26.3
625.772	26.2
626.188	26.12
626.604	26.04
627.02	25.95
627.436	25.86
627.852	25.8
628.268	25.78
628.683	25.76
629.099	25.74
629.514	25.72
629.93	25.7
630.345	25.72
630.761	25.71
631.176	25.71
631.591	25.69
632.007	25.68
632.422	25.67
632.837	25.66
633.252	25.64
633.667	25.63
634.082	25.61
634.497	25.61
634.911	25.56
635.326	25.5
635.741	25.44
636.155	25.37
636.57	25.3
636.984	25.21
637.399	25.1
637.813	24.99
638.228	24.86
638.642	24.73
639.056	24.59
639.47	24.48
639.884	24.38
640.298	24.29
640.712	24.21
641.126	24.12
641.54	24
641.954	23.9
642.368	23.79
642.781	23.68
643.195	23.57
643.609	23.44
644.022	23.32
644.436	23.21
644.849	23.05
645.262	22.89
645.676	22.75
646.089	22.65
646.502	22.57
646.915	22.51
647.328	22.44
647.741	22.37
648.154	22.32
648.567	22.28
648.98	22.22
649.393	22.22
649.805	22.2
650.218	22.19
650.631	22.13
651.043	22
651.456	21.79
651.868	21.5
652.28	21.18
652.693	20.89
653.105	20.65
653.517	20.46
653.929	20.3
654.341	20.19
654.753	20.09
655.165	20.03
655.577	20.02
655.989	20.09
656.401	20.25
656.813	20.45
657.224	20.61
657.636	20.71
658.047	20.78
658.459	20.79
658.87	20.76
659.282	20.72
659.693	20.68
660.104	20.59
660.515	20.54
660.926	20.46
661.338	20.37
661.749	20.28
662.159	20.19
662.57	20.09
662.981	20.01
663.392	19.92
663.803	19.85
664.213	19.75
664.624	19.68
665.035	19.58
665.445	19.5
665.855	19.41
666.266	19.33
666.676	19.25
667.086	19.15
667.497	19.06
667.907	18.96
668.317	18.87
668.727	18.8
669.137	18.72
669.547	18.64
669.956	18.56
670.366	18.49
670.776	18.41
671.186	18.34
671.595	18.28
672.005	18.2
672.414	18.17
672.824	18.12
673.233	18.07
673.642	18.04
674.052	18.01
674.461	17.96
674.87	17.92
675.279	17.91
675.688	17.89
676.097	17.87
676.506	17.86
676.915	17.82
677.323	17.82
677.732	17.8
678.141	17.8
678.549	17.79
678.958	17.79
679.366	17.78
679.775	17.76
680.183	17.75
680.592	17.75
681	17.75
681.408	17.78
681.816	17.74
682.224	17.64
682.632	17.44
683.04	17.19
683.448	16.93
683.856	16.69
684.264	16.49
684.671	16.29
685.079	16.13
685.487	15.98
685.894	15.88
686.302	15.82
686.709	15.87
687.116	16.06
687.524	16.33
687.931	16.66
688.338	17
688.745	17.31
689.152	17.64
689.559	17.96
689.966	18.3
690.373	18.59
690.78	18.89
691.187	19.18
691.593	19.47
692	19.75
692.407	20.02
692.813	20.28
693.22	20.54
693.626	20.79
694.032	21.04
694.439	21.27
694.845	21.51
695.251	21.75
695.657	21.95
696.063	22.14
696.469	22.31
696.875	22.48
697.281	22.64
697.687	22.79
698.093	22.93
698.498	23.09
698.904	23.26
699.31	23.44
699.715	23.63
700.12	23.82
700.526	24.04
700.931	24.25
701.337	24.46
701.742	24.68
702.147	24.88
702.552	25.11
702.957	25.3
703.362	25.49
703.767	25.67
704.172	25.84
704.577	26
704.981	26.14
705.386	26.3
705.791	26.45
706.195	26.61
706.6	26.78
707.004	26.92
707.408	27.06
707.813	27.21
708.217	27.34
708.621	27.46
709.025	27.58
709.43	27.7
709.834	27.81
710.237	27.91
710.641	27.99
711.045	28.06
711.449	28.15
711.853	28.23
712.256	28.25
712.66	28.21
713.064	28.15
713.467	28.05
713.87	27.91
714.274	27.72
714.677	27.48
715.08	27.23
715.484	27
715.887	26.79
716.29	26.59
716.693	26.49
717.096	26.53
717.499	26.64
717.901	26.82
718.304	27.05
718.707	27.31
719.109	27.59
719.512	27.83
719.915	28.06
720.317	28.23
720.719	28.39
721.122	28.5
721.524	28.56
721.926	28.57
722.328	28.57
722.731	28.53
723.133	28.52
723.535	28.51
723.937	28.54
724.338	28.58
724.74	28.66
725.142	28.82
725.544	28.88
725.945	28.97
726.347	29
726.748	29.05
727.15	29.09
727.551	29.17
727.952	29.29
728.354	29.44
728.755	29.59
729.156	29.74
729.557	29.82
729.958	30.01
730.359	30.16
730.76	30.33
731.161	30.49
731.562	30.65
731.962	30.73
732.363	30.83
732.763	30.9
733.164	30.94
733.564	30.99
733.965	30.99
734.365	30.97
734.766	30.92
735.166	30.91
735.566	30.88
735.966	30.89
736.366	30.89
736.766	30.85
737.166	30.81
737.566	30.8
737.966	30.75
738.365	30.71
738.765	30.7
739.165	30.73
739.564	30.74
739.964	30.74
740.363	30.73
740.763	30.72
741.162	30.75
741.561	30.76
741.96	30.77
742.36	30.8
742.759	30.82
743.158	30.82
743.557	30.79
743.955	30.77
744.354	30.75
744.753	30.72
745.152	30.69
745.55	30.63
745.949	30.6
746.348	30.53
746.746	30.45
747.144	30.4
747.543	30.32
747.941	30.26
748.339	30.19
748.737	30.11
749.136	30.05
749.534	30
749.932	29.95
750.33	29.9
750.727	29.87
751.125	29.83
751.523	29.78
751.921	29.75
752.318	29.69
752.716	29.63
753.113	29.58
753.511	29.53
753.908	29.45
754.305	29.36
754.703	29.14
755.1	28.67
755.497	27.89
755.894	26.72
756.291	25.3
756.688	23.78
757.085	22.32
757.482	20.97
757.878	19.73
758.275	18.51
758.672	17.29
759.068	16.15
759.465	15.26
759.861	14.78
760.258	14.76
760.654	15.11
761.05	15.64
761.447	16.22
761.843	16.77
762.239	17.3
762.635	17.93
763.031	18.69
763.427	19.53
763.822	20.45
764.218	21.36
764.614	22.21
765.01	23.01
765.405	23.74
765.801	24.39
766.196	24.98
766.592	25.48
766.987	25.87
767.382	26.16
767.778	26.39
768.173	26.53
768.568	26.62
768.963	26.7
769.358	26.76
769.753	26.77
770.148	26.78
770.542	26.73
770.937	26.67
771.332	26.64
771.726	26.61
772.121	26.59
772.515	26.55
772.91	26.54
773.304	26.48
773.699	26.38
774.093	26.31
774.487	26.27
774.881	26.23
775.275	26.2
775.669	26.11
776.063	26
776.457	25.95
776.851	25.85
777.245	25.76
777.638	25.68
778.032	25.65
778.425	25.6
778.819	25.51
779.212	25.43
779.606	25.34
779.999	25.28
780.392	25.23
780.786	25.13
781.179	25.07
781.572	24.99
781.965	24.93
782.358	24.83
782.751	24.73
783.143	24.64
783.536	24.54
783.929	24.45
784.322	24.35
784.714	24.27
785.107	24.18
785.499	24.08
785.891	23.99
786.284	23.87
786.676	23.75
787.068	23.64
787.46	23.52
787.852	23.41
788.245	23.3
788.636	23.17
789.028	23.03
789.42	22.88
789.812	22.75
790.204	22.62
790.595	22.49
790.987	22.39
791.378	22.27
791.77	22.17
792.161	22.08
792.553	21.99
792.944	21.9
793.335	21.83
793.726	21.77
794.117	21.72
794.508	21.63
794.899	21.55
795.29	21.46
795.681	21.37
796.072	21.28
796.463	21.2
796.853	21.11
797.244	21.02
797.634	20.91
798.025	20.8
798.415	20.67
798.806	20.56
799.196	20.46
799.586	20.34
799.976	20.24
800.366	20.12
800.756	19.98
801.146	19.87
801.536	19.77
801.926	19.65
802.316	19.54
802.706	19.45
803.095	19.35
803.485	19.24
803.874	19.14
804.264	19.02
804.653	18.92
805.043	18.8
805.432	18.68
805.821	18.55
806.21	18.42
806.599	18.29
806.988	18.14
807.377	17.98
807.766	17.84
808.155	17.68
808.544	17.53
808.933	17.35
809.321	17.19
809.71	17
810.098	16.8
810.487	16.59
810.875	16.39
811.264	16.17
811.652	15.96
812.04	15.71
812.428	15.5
812.816	15.25
813.204	15.04
813.592	14.83
813.98	14.63
814.368	14.46
814.756	14.31
815.144	14.14
815.531	14.01
815.919	13.91
816.306	13.86
816.694	13.81
817.081	13.78
817.469	13.75
817.856	13.68
818.243	13.58
818.63	13.46
819.017	13.32
819.404	13.23
819.791	13.14
820.178	13.03
820.565	12.94
820.952	12.85
821.339	12.75
821.725	12.67
822.112	12.62
822.498	12.61
822.885	12.61
823.271	12.58
823.657	12.54
824.044	12.49
824.43	12.41
824.816	12.33
825.202	12.23
825.588	12.14
825.974	12.02
826.36	11.93
826.746	11.82
827.132	11.72
827.517	11.65
827.903	11.61
828.289	11.54
828.674	11.46
829.06	11.39
829.445	11.32
829.83	11.26
830.216	11.2
830.601	11.15
830.986	11.1
831.371	11.05
831.756	11.02
832.141	10.98
832.526	10.93
832.911	10.9
833.295	10.87
833.68	10.83
834.065	10.8
834.449	10.77
834.834	10.74
835.218	10.71
835.603	10.67
835.987	10.63
836.371	10.57
836.755	10.54
837.139	10.51
837.524	10.47
837.908	10.44
838.291	10.41
838.675	10.37
839.059	10.31
839.443	10.26
839.827	10.2
840.21	10.15
840.594	10.11
840.977	10.07
841.361	10.02
841.744	9.97
842.127	9.91
842.511	9.86
842.894	9.82
843.277	9.78
843.66	9.75
844.043	9.73
844.426	9.7
844.809	9.66
845.191	9.62
845.574	9.58
845.957	9.53
846.339	9.47
846.722	9.41
847.104	9.36
847.487	9.32
847.869	9.26
848.252	9.21
848.634	9.18
849.016	9.12
849.398	9.07
849.78	9
850.162	8.92
850.544	8.87
850.926	8.82
851.307	8.77
851.689	8.72
852.071	8.69
852.452	8.65
852.834	8.6
853.215	8.58
853.597	8.57
853.978	8.58
854.359	8.6
854.741	8.61
855.122	8.62
855.503	8.62
855.884	8.62
856.265	8.62
856.646	8.59
857.026	8.56
857.407	8.53
857.788	8.49
858.169	8.47
858.549	8.44
858.93	8.42
859.31	8.4
859.69	8.36
860.071	8.34
860.451	8.3
860.831	8.28
861.211	8.25
861.591	8.21
861.971	8.16
862.351	8.11
862.731	8.06
863.111	8
863.491	7.95
863.87	7.91
864.25	7.85
864.629	7.81
865.009	7.77
865.388	7.74
865.768	7.73
866.147	7.73
866.526	7.73
866.905	7.71
867.284	7.72
867.663	7.72
868.042	7.72
868.421	7.72
868.8	7.72
869.179	7.7
869.558	7.69
869.936	7.68
870.315	7.65
870.693	7.63
871.072	7.63
871.45	7.6
871.828	7.57
872.207	7.55
872.585	7.54
872.963	7.52
873.341	7.51
873.719	7.5
874.097	7.49
874.475	7.49
874.853	7.47
875.23	7.47
875.608	7.47
875.986	7.46
876.363	7.44
876.741	7.42
877.118	7.41
877.495	7.38
877.873	7.36
878.25	7.33
878.627	7.32
879.004	7.3
879.381	7.28
879.758	7.26
880.135	7.23
880.512	7.21
880.889	7.2
881.265	7.19
881.642	7.17
882.019	7.15
882.395	7.15
882.772	7.13
883.148	7.11
883.524	7.08
883.901	7.07
884.277	7.06
884.653	7.05
885.029	7.05
885.405	7.03
885.781	7.02
886.157	7.02
886.532	7
886.908	6.99
887.284	6.98
887.659	6.97
888.035	6.95
888.411	6.94
888.786	6.93
889.161	6.91
889.537	6.89
889.912	6.87
890.287	6.84
890.662	6.82
891.037	6.8
891.412	6.77
891.787	6.74
892.162	6.72
892.536	6.69
892.911	6.65
893.286	6.61
893.66	6.58
894.035	6.55
894.409	6.51
894.784	6.47
895.158	6.4
895.532	6.37
895.906	6.34
896.281	6.3
896.655	6.26
897.029	6.23
897.402	6.21
897.776	6.18
898.15	6.15
898.524	6.13
898.898	6.12
899.271	6.13
899.645	6.12
900.018	6.13
900.392	6.13
900.765	6.14
901.138	6.15
901.511	6.16
901.884	6.18
902.258	6.19
902.631	6.23
903.003	6.23
903.376	6.22
903.749	6.22
904.122	6.21
904.495	6.19
904.867	6.17
905.24	6.14
905.612	6.12
905.985	6.09
906.357	6.07
906.729	6.04
907.102	6.02
907.474	6.02
907.846	6.03
908.218	6.01
908.59	6
908.962	5.99
909.334	5.99
909.705	5.97
910.077	5.97
910.449	5.95
910.82	5.94
911.192	5.94
911.563	5.92
911.935	5.89
912.306	5.89
912.677	5.87
913.048	5.87
913.419	5.89
913.79	5.89
914.161	5.89
914.532	5.9
914.903	5.89
915.274	5.89
915.645	5.88
916.015	5.89
916.386	5.88
916.756	5.9
917.127	5.9
917.497	5.89
917.868	5.89
918.238	5.89
918.608	5.91
918.978	5.91
919.348	5.91
919.718	5.91
920.088	5.9
920.458	5.89
920.828	5.87
921.198	5.87
921.567	5.86
921.937	5.85
922.306	5.82
922.676	5.8
923.045	5.79
923.415	5.78
923.784	5.78
924.153	5.78
924.522	5.79
924.891	5.8
925.26	5.78
925.629	5.76
925.998	5.75
926.367	5.74
926.736	5.72
927.104	5.69
927.473	5.65
927.842	5.62
928.21	5.59
928.578	5.54
928.947	5.49
929.315	5.44
929.683	5.4
930.051	5.33
930.42	5.28
930.788	5.22
931.156	5.18
931.523	5.14
931.891	5.12
932.259	5.07
932.627	5.05
932.994	5
933.362	4.97
933.729	4.95
934.097	4.96
934.464	4.96
934.831	4.96
935.199	4.96
935.566	4.95
935.933	4.9
936.3	4.91
936.667	4.87
937.034	4.95
937.401	4.98
937.767	5.01
938.134	5.03
938.501	5.04
938.867	5.11
939.234	5.15
939.6	5.18
939.967	5.23
940.333	5.25
940.699	5.3
941.065	5.24
941.431	5.24
941.798	5.24
942.163	5.25
942.529	5.29
942.895	5.24
943.261	5.21
943.627	5.2
943.992	5.21
944.358	5.23
944.723	5.24
945.089	5.24
945.454	5.23
945.82	5.21
946.185	5.22
946.55	5.18
946.915	5.19
947.28	5.21
947.645	5.22
948.01	5.26
948.375	5.27
948.74	5.26
949.104	5.29
949.469	5.3
949.834	5.32
950.198	5.3
950.562	5.31
950.927	5.28
951.291	5.25
951.655	5.25
952.02	5.19
952.384	5.14
952.748	5.14
953.112	5.13
953.476	5.1
953.839	5.06
954.203	5.06
954.567	5.07
954.931	5.07
955.294	5.08
955.658	5.08
956.021	5.09
956.385	5.11
956.748	5.1
957.111	5.07
957.474	5.08
957.837	5.09
958.2	5.06
958.563	5.03
958.926	5.03
959.289	5.04
959.652	5.02
960.015	5.04
960.377	5.03
960.74	5.07
961.102	5.09
961.465	5.11
961.827	5.17
962.189	5.21
962.552	5.22
962.914	5.25
963.276	5.28
963.638	5.27
964	5.22
964.362	5.27
964.724	5.24
965.085	5.27
965.447	5.26
965.809	5.22
966.17	5.19
966.532	5.21
966.893	5.21
967.255	5.17
967.616	5.24
967.977	5.31
968.338	5.31
968.699	5.3
969.061	5.3
969.421	5.29
969.782	5.35
970.143	5.37
970.504	5.39
970.865	5.41
971.225	5.46
971.586	5.42
971.946	5.38
972.307	5.39
972.667	5.4
973.027	5.41
973.388	5.4
973.748	5.36
974.108	5.37
974.468	5.3
974.828	5.35
975.188	5.33
975.548	5.35
975.907	5.36
976.267	5.32
976.627	5.36
976.986	5.31
977.346	5.3
977.705	5.36
978.064	5.38
978.424	5.44
978.783	5.37
979.142	5.37
979.501	5.39
979.86	5.41
980.219	5.47
980.578	5.46
980.937	5.5
981.296	5.56
981.654	5.55
982.013	5.57
982.371	5.58
982.73	5.6
983.088	5.62
983.447	5.57
983.805	5.59
984.163	5.6
984.521	5.6
984.879	5.56
985.237	5.64
985.595	5.7
985.953	5.65
986.311	5.61
986.669	5.65
987.026	5.69
987.384	5.8
987.741	5.79
988.099	5.85
988.456	5.84
988.814	5.9
989.171	5.85
989.528	5.78
989.885	5.8
990.242	5.87
990.599	5.88
990.956	5.86
991.313	5.8
991.67	5.82
992.027	5.93
992.383	5.97
992.74	6.03
993.096	6.02
993.453	5.96
993.809	6.06
994.165	6.05
994.522	6.13
994.878	6.13
995.234	6.23
995.59	6.22
995.946	6.06
996.302	6.08
996.658	6.12
997.013	6.24
997.369	6.41
997.725	6.41
998.08	6.52
998.436	6.42
998.791	6.48
999.147	6.45
999.502	6.56
999.857	6.59
1000.212	6.48
1000.567	6.45
1000.922	6.35
1001.277	6.23
1001.632	6.15
1001.987	6.08
1002.342	5.98
1002.696	5.97
1003.051	6.06
1003.406	6.06
1003.76	6.07
1004.114	6.21
1004.469	6.32
1004.823	6.53
1005.177	6.66
1005.531	6.75
1005.885	6.7
1006.239	6.96
1006.593	7.04
1006.947	7
1007.301	6.92
1007.655	6.87
1008.008	6.96
1008.362	6.95
1008.715	6.82
1009.069	6.82
1009.422	6.84
1009.776	6.8
1010.129	6.7
1010.482	6.63
1010.835	6.67
1011.188	6.85
1011.541	6.9
1011.894	6.9
1012.247	6.9
1012.6	6.87
1012.952	6.81
1013.305	6.98
1013.657	7.29
1014.01	7.43
1014.362	7.44
1014.715	7.67
1015.067	7.62
1015.419	7.73
1015.771	7.88
1016.123	7.82
1016.475	8.02
1016.827	8.12
1017.179	8.12
1017.531	8.09
1017.883	8.03
1018.234	8.24
1018.586	8.25
1018.938	8.38
1019.289	8.21
1019.64	8.13
1019.992	8.09
1020.343	7.84
1020.694	7.91
1021.045	7.75
1021.396	7.71
1021.747	7.87
1022.098	7.78
1022.449	7.63
1022.8	7.57
1023.151	8.02
1023.501	8.19
1023.852	8.33
1024.202	8.6
1024.553	8.66
1024.903	9.05
1025.253	9.26
1025.604	9.39
1025.954	9.38
1026.304	9.34
1026.654	9.56
1027.004	9.35
1027.354	9.29
1027.703	9.2
1028.053	9.29
1028.403	9.41
1028.753	8.89
1029.102	8.78
1029.452	8.57
1029.801	8.62
1030.15	8.61
1030.499	8.28
897.758	1241.01
901.051	1256.63
904.343	1254.43
907.636	1274.21
910.928	1242.2
914.22	1243.53
917.511	1226.26
920.803	1174.51
924.094	1167.47
927.384	1143.08
930.675	1097.62
933.965	1091.85
937.255	1026.32
940.544	983.82
943.834	939.56
947.123	931.69
950.411	875.32
953.7	857.55
956.988	810.88
960.276	780.91
963.563	767.54
966.851	740.62
970.138	734.49
973.424	710.2
976.711	715.57
979.997	678.35
983.283	673.87
986.568	659.8
989.853	640.54
993.138	629.31
996.423	603.13
999.708	586.61
1002.992	579.48
1006.275	553.89
1009.559	550.16
1012.842	528.62
1016.125	515.37
1019.408	506.21
1022.69	498.72
1025.972	488.72
1029.254	476.37
1032.536	469.58
1035.817	458.48
1039.098	453.89
1042.379	444.48
1045.659	439.23
1048.939	430.08
1052.219	420.85
1055.498	415.05
1058.778	405.88
1062.057	396.73
1065.335	393.54
1068.614	387.85
1071.892	384.6
1075.17	371.02
1078.447	364.33
1081.724	360.21
1085.001	358.01
1088.278	350.79
1091.554	343.44
1094.83	343.85
1098.106	340.67
1101.382	337.76
1104.657	336.32
1107.932	330.64
1111.206	333.36
1114.481	324.63
1117.755	322.4
1121.029	318.44
1124.302	319.2
1127.575	311.88
1130.848	308.37
1134.121	304.55
1137.393	302.45
1140.665	295.39
1143.937	293.62
1147.208	291.24
1150.48	290.65
1153.75	286.93
1157.021	282.66
1160.291	281.57
1163.561	279.7
1166.831	279.95
1170.101	278.24
1173.37	277.6
1176.639	278.37
1179.907	276
1183.176	272.89
1186.444	272.59
1189.711	271.79
1192.979	271.56
1196.246	269.88
1199.513	270.82
1202.78	268.22
1206.046	267.98
1209.312	266.26
1212.578	265.9
1215.843	268.65
1219.108	266.89
1222.373	272.02
1225.638	274.1
1228.902	277.86
1232.166	278.19
1235.43	280.24
1238.693	283.88
1241.956	286.2
1245.219	289.72
1248.482	290.94
1251.744	289.62
1255.006	291.09
1258.268	283.99
1261.529	281.25
1264.79	279.32
1268.051	278.65
1271.312	274.24
1274.572	272.43
1277.832	268.69
1281.092	265.1
1284.351	262.8
1287.61	262.6
1290.869	259.13
1294.128	257.88
1297.386	257.74
1300.644	254.77
1303.902	254.92
1307.159	254.52
1310.416	253.61
1313.673	254.17
1316.93	255.65
1320.186	255.23
1323.442	256.19
1326.697	260.23
1329.953	260.94
1333.208	261.77
1336.463	265.17
1339.717	265.45
1342.972	268.63
1346.226	271.17
1349.479	271.29
1352.733	272.76
1355.986	274.87
1359.238	274.47
1362.491	275.33
1365.743	277.87
1368.995	277.89
1372.247	277
1375.498	276.72
1378.749	278.67
1382	275.14
1385.251	275.75
1388.501	274.46
1391.751	274.52
1395	273.48
1398.25	271.42
1401.499	269.19
1404.748	268.91
1407.996	266.28
1411.244	265.08
1414.492	263.35
1417.74	260.89
1420.987	257.44
1424.234	255.8
1427.481	252.99
1430.728	252.39
1433.974	250.38
1437.22	248.17
1440.465	247.62
1443.711	245.65
1446.956	243.69
1450.201	240.84
1453.445	238.05
1456.689	237.02
1459.933	233.62
1463.177	231.16
1466.42	227.55
1469.663	224.41
1472.906	223.39
1476.148	217.38
1479.391	214.84
1482.633	213.18
1485.874	208.96
1489.115	207.78
1492.356	205.53
1495.597	205.08
1498.838	202.19
1502.078	201.08
1505.318	200.1
1508.557	199.89
1511.797	199.62
1515.036	197.97
1518.274	197.44
1521.513	196.18
1524.751	195.65
1527.989	194.88
1531.227	193.91
1534.464	193.93
1537.701	192.49
1540.938	192.12
1544.174	190.15
1547.41	190.12
1550.646	189.02
1553.882	188.79
1557.117	187.18
1560.352	186.4
1563.587	185.25
1566.821	183.94
1570.055	182.77
1573.289	181.31
1576.523	181.39
1579.756	179.4
1582.989	177.6
1586.222	178.08
1589.454	176.24
1592.686	177
1595.918	176
1599.15	176.21
1602.381	176.64
1605.612	176.04
1608.843	176.68
1612.073	175.84
1615.303	177.12
1618.533	177.53
1621.762	177.05
1624.992	178.32
1628.221	178.05
1631.449	178.05
1634.678	177.35
1637.906	178.4
1641.134	178.21
1644.361	178.05
1647.588	178.73
1650.815	178
1654.042	177.49
1657.269	178.4
1660.495	178.39
1663.72	178.09
1666.946	178.5
1670.171	179.22
1673.396	178.19
1676.621	178.62
1679.845	178.82
1683.069	178.53
1686.293	180.15
1689.517	180.73
1692.74	180.52
1695.963	180.57
1699.185	182.02
1702.408	182.42
1705.63	183.2
1708.852	183.89
1712.073	183.99
1715.294	184.59
1718.515	186
1721.736	184.83
1724.956	185.31
1728.176	185.49
1731.396	186.86
1734.616	186.34
1737.835	187.07
1741.054	185.12
1744.272	186.1
1747.491	187.7
1750.709	187.82
1753.927	187.22
1757.144	187.58
1760.361	188.58
1763.578	189.53
1766.795	189.46
1770.011	190.38
1773.227	190.12
1776.443	193.27
1779.658	193.31
1782.874	192.89
1786.089	194.04
1789.303	194.96
1792.518	196.75
1795.732	196.68
1798.945	197.36
1802.159	197.99
1805.372	198.86
1808.585	202.3
1811.797	203.13
1815.01	203.51
1818.222	205.29
1821.434	206.34
1824.645	206.98
1827.856	210.88
1831.067	212.43
1834.278	212.76
1837.488	214.02
1840.698	215.49
1843.908	213.56
1847.117	213.85
1850.326	215.77
1853.535	215
1856.744	218.52
1859.952	218.57
1863.16	216.56
1866.368	215.73
1869.575	217.63
1872.782	214.63
1875.989	213.65
1879.196	213.25
1882.402	212.31
1885.608	213.11
1888.814	213.91
1892.019	213.41
1895.224	212.7
1898.429	212.09
1901.634	213.84
1904.838	214.03
1908.042	216.44
1911.246	217.49
1914.449	219.25
1917.652	219.18
1920.855	218.59
1924.058	218.49
1927.26	217.31
1930.462	218.6
1933.664	221.38
1936.865	218.64
1940.066	219.22
1943.267	217.81
1946.467	217.65
1949.668	218.69
1952.868	221.37
1956.067	221.43
1959.267	222.34
1962.466	223.22
1965.665	221.86
1968.863	222.4
1972.061	225.53
1975.259	227.37
1978.457	229.89
1981.654	231.04
1984.852	231.6
1988.048	231.19
1991.245	232.73
1994.441	235.15
1997.637	236.22
2000.833	241.22
2004.028	243.75
2007.223	245
2010.418	246.37
2013.613	250.55
2016.807	253.72
2020.001	255.73
2023.194	259.89
2026.388	265.96
2029.581	272.05
2032.774	274.74
2035.966	279.13
2039.158	279.91
2042.35	286.37
2045.542	287.26
2048.733	291.78
2051.924	296.1
2055.115	302.05
2058.306	302.41
2061.496	305.36
2064.686	303.79
2067.875	310.31
2071.065	311.76
2074.254	309.73
2077.442	313.48
2080.631	316.83
2083.819	319.1
2087.007	319.74
2090.195	322.95
2093.382	325.32
2096.569	323.67
2099.756	329.11
2102.942	329.17
2106.128	331.48
2109.314	340.05
2112.5	337.96
2115.685	344.57
2118.87	345.08
2122.055	351.15
2125.239	352.9
2128.424	357.07
2131.608	360.14
2134.791	365.52
2137.974	366.32
2141.157	368.18
2144.34	369.01
2147.523	375.22
2150.705	372.77
2153.887	376.91
2157.068	377.3
2160.25	374.57
2163.431	376.24
2166.611	380.96
2169.792	387.59
2172.972	392.22
2176.152	394.04
2179.331	398.55
2182.511	405.16
2185.69	408.62
2188.868	416.31
2192.047	419.12
2195.225	431.12
2198.403	443.36
2201.58	449.65
2204.758	458.65
2207.935	468.6
2211.111	478.26
2214.288	483.67
2217.464	484.16
2220.64	494.75
2223.815	502.4
2226.991	520.65
2230.166	520.73
2233.34	527.68
2236.515	539.5
2239.689	539.38
2242.863	543.19
2246.036	559.39
2249.209	555.39
2252.382	565.65
2255.555	580.11
2258.727	581.36
2261.9	588.81
2265.071	595.23
2268.243	606.44
2271.414	611.31
2274.585	625.52
2277.756	630.41
2280.926	634.6
2284.096	650.69
2287.266	665.34
2290.436	669.98
2293.605	684.9
2296.774	700.01
2299.942	722.6
2303.111	727.25
2306.279	745.05
2309.447	754.03
2312.614	774.78
2315.781	794.69
2318.948	830.97
2322.115	818.69
2325.281	864.39
2328.447	850.33
2331.613	887.12
2334.779	877.03
2337.944	914.08
2341.109	922.02
2344.274	949.15
2347.438	983.24
2350.602	983.15
2353.766	1014.24
2356.929	1030.41
2360.092	1022.64
2363.255	1092.5
2366.418	1089.14
2369.58	1111.35
2372.742	1179.93
2375.904	1210.51
2379.066	1203.04
2382.227	1180.84
2385.388	1281.97
2388.548	1278.89
2391.709	1294.35
2394.869	1443.76
2398.029	1384.91
2401.188	1423.45
2404.347	1414.25
2407.506	1393.92
2410.665	1429.92
2413.823	1513.21
2416.981	1603.2
2420.139	1551.79
2423.296	1541.16
2426.453	1607.38
2429.61	1544.37
2432.767	1612.36
2435.923	1598.75
2439.079	1748.45
2442.235	1763.46
2445.391	1753.39
2448.546	1740.87
2451.701	1685.54
2454.855	1684.07
2458.009	1780.98
2461.163	1864.43
2464.317	1931
2467.471	1979.53
2470.624	1986.4
2473.777	1930.52
2476.929	1888.33
2480.082	1834.6
2483.234	1818.03
2486.385	1910.29
2489.537	1919.47
2492.688	1993.58
2495.839	1930.55
2498.989	1885.73
2502.14	1899.36
2505.29	1910.45
2508.439	1945.35
2511.589	1938.07
2514.738	2113.23
2517.887	2062.45
2521.035	2180.3
2524.183	2202.99
2527.331	2216.6
2530.479	2202.21
2533.627	2227.29
