Data from C_2_HIR_WI_4N_Splice17_13-35-54-028.txt Node
Date: Sat Mar 07 13:35:54 EST 2020
User: sa697716
Spectrometer: NQ5500242
Trigger mode: 0
Integration Time (sec): 1.450000E-1
Scans to average: 20
Nonlinearity correction enabled: false
Boxcar width: 5
Storing dark spectrum: false
XAxis mode: Wavelengths
Number of Pixels in Spectrum: 512
>>>>>Begin Spectral Data<<<<<
187.83	184.51
188.298	186.94
188.766	148.24
189.233	121.68
189.701	148.05
190.169	178.7
190.636	188.7
191.104	164.56
191.571	-175.78
192.039	-309.04
192.506	-668.17
192.974	55.8
193.441	7.12
193.908	-42.77
194.375	-3.77
194.842	-29.86
195.31	40.01
195.777	8.51
196.244	96.75
196.711	102.63
197.177	104.83
197.644	104.01
198.111	105.2
198.578	105.04
199.045	105.24
199.511	104.91
199.978	105.48
200.445	105.38
200.911	105.45
201.378	105.23
201.844	104.9
202.31	104.38
202.777	104.34
203.243	103.8
203.709	103.19
204.176	101.96
204.642	101.11
205.108	100.24
205.574	99.26
206.04	98.29
206.506	97.45
206.972	96.65
207.438	95.53
207.903	94.07
208.369	92.11
208.835	90.16
209.301	88.35
209.766	85.7
210.232	83.4
210.697	81.02
211.163	78.49
211.628	76.14
212.094	73.91
212.559	72.07
213.024	70.26
213.49	68.53
213.955	66.92
214.42	65.04
214.885	63.02
215.35	60.15
215.815	56.84
216.28	52.63
216.745	47.88
217.21	43.07
217.675	38.45
218.14	34.32
218.604	30.76
219.069	27.82
219.534	25.44
219.998	23.54
220.463	21.94
220.927	20.49
221.392	19.35
221.856	18.41
222.32	17.61
222.785	16.92
223.249	16.34
223.713	15.84
224.177	15.38
224.642	14.94
225.106	14.47
225.57	14.04
226.034	13.69
226.497	13.36
226.961	13.05
227.425	12.75
227.889	12.47
228.353	12.2
228.816	11.93
229.28	11.67
229.744	11.43
230.207	11.22
230.671	11.02
231.134	10.81
231.597	10.65
232.061	10.46
232.524	10.29
232.987	10.13
233.45	9.99
233.914	9.83
234.377	9.69
234.84	9.56
235.303	9.43
235.766	9.33
236.229	9.22
236.691	9.09
237.154	9
237.617	8.9
238.08	8.8
238.542	8.69
239.005	8.61
239.468	8.52
239.93	8.44
240.393	8.35
240.855	8.24
241.317	8.15
241.78	8.05
242.242	7.94
242.704	7.84
243.166	7.76
243.629	7.69
244.091	7.59
244.553	7.5
245.015	7.4
245.477	7.32
245.939	7.25
246.4	7.17
246.862	7.09
247.324	7.03
247.786	6.96
248.247	6.88
248.709	6.8
249.17	6.72
249.632	6.67
250.093	6.61
250.555	6.55
251.016	6.49
251.477	6.42
251.939	6.37
252.4	6.32
252.861	6.27
253.322	6.22
253.783	6.18
254.244	6.14
254.705	6.09
255.166	6.04
255.627	5.99
256.088	5.96
256.549	5.91
257.009	5.86
257.47	5.81
257.931	5.76
258.391	5.7
258.852	5.64
259.312	5.59
259.773	5.53
260.233	5.48
260.694	5.44
261.154	5.39
261.614	5.34
262.074	5.29
262.534	5.24
262.994	5.2
263.455	5.17
263.915	5.13
264.374	5.09
264.834	5.07
265.294	5.03
265.754	5
266.214	4.97
266.673	4.93
267.133	4.92
267.593	4.9
268.052	4.87
268.512	4.85
268.971	4.84
269.431	4.82
269.89	4.8
270.349	4.78
270.809	4.76
271.268	4.75
271.727	4.74
272.186	4.72
272.645	4.7
273.104	4.69
273.563	4.67
274.022	4.66
274.481	4.65
274.94	4.64
275.399	4.63
275.857	4.62
276.316	4.61
276.775	4.6
277.233	4.6
277.692	4.59
278.15	4.58
278.609	4.58
279.067	4.57
279.525	4.57
279.984	4.56
280.442	4.56
280.9	4.56
281.358	4.56
281.816	4.56
282.274	4.57
282.732	4.56
283.19	4.56
283.648	4.56
284.106	4.56
284.564	4.57
285.021	4.56
285.479	4.56
285.937	4.55
286.394	4.55
286.852	4.53
287.309	4.52
287.767	4.5
288.224	4.49
288.682	4.47
289.139	4.44
289.596	4.41
290.053	4.38
290.511	4.35
290.968	4.33
291.425	4.3
291.882	4.28
292.339	4.25
292.796	4.24
293.252	4.21
293.709	4.2
294.166	4.19
294.623	4.17
295.079	4.16
295.536	4.15
295.992	4.14
296.449	4.14
296.905	4.13
297.362	4.13
297.818	4.12
298.274	4.11
298.731	4.1
299.187	4.09
299.643	4.08
300.099	4.08
300.555	4.07
301.011	4.06
301.467	4.05
301.923	4.04
302.379	4.03
302.835	4.03
303.291	4.03
303.746	4.03
304.202	4.03
304.658	4.04
305.113	4.05
305.569	4.05
306.024	4.05
306.479	4.06
306.935	4.06
307.39	4.07
307.845	4.07
308.301	4.08
308.756	4.08
309.211	4.08
309.666	4.09
310.121	4.09
310.576	4.1
311.031	4.11
311.486	4.12
311.94	4.12
312.395	4.12
312.85	4.12
313.305	4.13
313.759	4.13
314.214	4.14
314.668	4.12
315.123	4.12
315.577	4.11
316.032	4.1
316.486	4.09
316.94	4.08
317.394	4.07
317.849	4.05
318.303	4.02
318.757	4
319.211	3.98
319.665	3.96
320.119	3.95
320.572	3.94
321.026	3.93
321.48	3.92
321.934	3.9
322.387	3.89
322.841	3.88
323.295	3.89
323.748	3.88
324.202	3.88
324.655	3.88
325.108	3.88
325.562	3.88
326.015	3.89
326.468	3.9
326.921	3.9
327.374	3.91
327.827	3.91
328.28	3.91
328.733	3.92
329.186	3.93
329.639	3.94
330.092	3.93
330.545	3.93
330.997	3.93
331.45	3.94
331.903	3.96
332.355	3.97
332.808	3.98
333.26	3.99
333.713	3.99
334.165	3.99
334.617	4
335.069	4.01
335.522	4.02
335.974	4.02
336.426	4.02
336.878	4.02
337.33	4.01
337.782	4.02
338.234	4.02
338.686	4.01
339.137	4.01
339.589	4
340.041	3.99
340.493	3.98
340.944	3.96
341.396	3.94
341.847	3.93
342.299	3.91
342.75	3.89
343.201	3.87
343.653	3.85
344.104	3.82
344.555	3.8
345.006	3.78
345.457	3.77
345.908	3.76
346.359	3.76
346.81	3.74
347.261	3.74
347.712	3.73
348.163	3.72
348.613	3.72
349.064	3.72
349.515	3.72
349.965	3.73
350.416	3.72
350.866	3.73
351.317	3.72
351.767	3.73
352.217	3.73
352.668	3.73
353.118	3.74
353.568	3.74
354.018	3.75
354.468	3.75
354.918	3.75
355.368	3.76
355.818	3.76
356.268	3.77
356.718	3.77
357.168	3.76
357.617	3.76
358.067	3.76
358.517	3.78
358.966	3.78
359.416	3.78
359.865	3.78
360.315	3.79
360.764	3.79
361.213	3.79
361.663	3.79
362.112	3.8
362.561	3.81
363.01	3.8
363.459	3.78
363.908	3.78
364.357	3.78
364.806	3.77
365.255	3.77
365.703	3.78
366.152	3.79
366.601	3.8
367.05	3.8
367.498	3.79
367.947	3.8
368.395	3.82
368.844	3.83
369.292	3.83
369.74	3.84
370.189	3.84
370.637	3.83
371.085	3.82
371.533	3.82
371.981	3.83
372.429	3.83
372.877	3.84
373.325	3.84
373.773	3.85
374.221	3.85
374.669	3.86
375.116	3.88
375.564	3.89
376.012	3.91
376.459	3.92
376.907	3.94
377.354	3.96
377.801	3.98
378.249	4.01
378.696	4.03
379.143	4.07
379.591	4.11
380.038	4.14
380.485	4.18
380.932	4.22
381.379	4.26
381.826	4.3
382.273	4.34
382.72	4.37
383.166	4.41
383.613	4.46
384.06	4.49
384.506	4.53
384.953	4.59
385.4	4.64
385.846	4.7
386.292	4.75
386.739	4.8
387.185	4.86
387.631	4.93
388.078	4.99
388.524	5.06
388.97	5.14
389.416	5.22
389.862	5.29
390.308	5.39
390.754	5.48
391.2	5.57
391.645	5.67
392.091	5.78
392.537	5.89
392.983	6
393.428	6.11
393.874	6.22
394.319	6.34
394.765	6.45
395.21	6.54
395.655	6.64
396.101	6.75
396.546	6.85
396.991	6.97
397.436	7.08
397.881	7.21
398.326	7.34
398.771	7.47
399.216	7.58
399.661	7.69
400.106	7.81
400.551	7.91
400.995	8.01
401.44	8.12
401.885	8.22
402.329	8.32
402.774	8.41
403.218	8.52
403.663	8.62
404.107	8.71
404.551	8.81
404.995	8.9
405.44	9.01
405.884	9.12
406.328	9.22
406.772	9.31
407.216	9.41
407.66	9.49
408.104	9.55
408.547	9.64
408.991	9.74
409.435	9.83
409.879	9.94
410.322	10.04
410.766	10.13
411.209	10.23
411.653	10.32
412.096	10.4
412.54	10.51
412.983	10.61
413.426	10.73
413.869	10.82
414.312	10.93
414.756	11.01
415.199	11.07
415.642	11.15
416.085	11.22
416.527	11.27
416.97	11.3
417.413	11.34
417.856	11.39
418.298	11.43
418.741	11.47
419.184	11.49
419.626	11.54
420.069	11.58
420.511	11.62
420.953	11.67
421.396	11.73
421.838	11.79
422.28	11.83
422.722	11.88
423.164	11.9
423.606	11.92
424.048	11.95
424.49	11.97
424.932	11.97
425.374	11.94
425.816	11.91
426.258	11.9
426.699	11.88
427.141	11.88
427.582	11.9
428.024	11.93
428.465	11.94
428.907	11.95
429.348	11.95
429.789	11.99
430.231	12.06
430.672	12.13
431.113	12.18
431.554	12.24
431.995	12.28
432.436	12.31
432.877	12.35
433.318	12.41
433.759	12.49
434.2	12.56
434.64	12.62
435.081	12.66
435.522	12.7
435.962	12.76
436.403	12.82
436.843	12.88
437.284	12.92
437.724	12.96
438.164	13
438.604	13.03
439.045	13.1
439.485	13.16
439.925	13.22
440.365	13.28
440.805	13.35
441.245	13.43
441.685	13.54
442.125	13.65
442.564	13.75
443.004	13.85
443.444	13.98
443.883	14.08
444.323	14.18
444.762	14.31
445.202	14.46
445.641	14.58
446.081	14.72
446.52	14.82
446.959	14.96
447.398	15.09
447.837	15.21
448.276	15.3
448.716	15.41
449.154	15.54
449.593	15.62
450.032	15.69
450.471	15.74
450.91	15.79
451.349	15.85
451.787	15.88
452.226	15.89
452.664	15.93
453.103	15.97
453.541	15.99
453.98	16.01
454.418	16.02
454.856	16.02
455.295	16.03
455.733	16.04
456.171	16.04
456.609	16.05
457.047	16.05
457.485	16.06
457.923	16.06
458.361	16.05
458.798	16.05
459.236	16.06
459.674	16.08
460.111	16.09
460.549	16.1
460.987	16.11
461.424	16.14
461.862	16.17
462.299	16.19
462.736	16.2
463.173	16.22
463.611	16.24
464.048	16.25
464.485	16.26
464.922	16.28
465.359	16.29
465.796	16.33
466.233	16.32
466.67	16.32
467.106	16.33
467.543	16.33
467.98	16.35
468.416	16.34
468.853	16.35
469.29	16.36
469.726	16.37
470.162	16.38
470.599	16.37
471.035	16.37
471.471	16.37
471.907	16.39
472.344	16.42
472.78	16.43
473.216	16.45
473.652	16.47
474.088	16.46
474.523	16.49
474.959	16.5
475.395	16.51
475.831	16.52
476.266	16.55
476.702	16.54
477.138	16.54
477.573	16.54
478.008	16.56
478.444	16.56
478.879	16.58
479.314	16.57
479.75	16.58
480.185	16.58
480.62	16.57
481.055	16.57
481.49	16.58
481.925	16.59
482.36	16.61
482.795	16.63
483.229	16.65
483.664	16.66
484.099	16.7
484.534	16.73
484.968	16.76
485.403	16.81
485.837	16.86
486.271	16.92
486.706	16.98
487.14	17.04
487.574	17.1
488.009	17.17
488.443	17.26
488.877	17.34
489.311	17.43
489.745	17.54
490.179	17.65
490.613	17.77
491.046	17.86
491.48	17.98
491.914	18.1
492.348	18.23
492.781	18.37
493.215	18.52
493.648	18.66
494.082	18.82
494.515	18.96
494.948	19.11
495.382	19.27
495.815	19.45
496.248	19.63
496.681	19.82
497.114	20.01
497.547	20.2
497.98	20.4
498.413	20.6
498.846	20.82
499.279	21.04
499.711	21.26
500.144	21.49
500.577	21.74
501.009	21.97
501.442	22.21
501.874	22.46
502.306	22.71
502.739	22.99
503.171	23.26
503.603	23.52
504.036	23.8
504.468	24.08
504.9	24.36
505.332	24.66
505.764	24.97
506.196	25.28
506.627	25.58
507.059	25.89
507.491	26.18
507.923	26.51
508.354	26.85
508.786	27.17
509.217	27.52
509.649	27.85
510.08	28.19
510.512	28.53
510.943	28.86
511.374	29.21
511.805	29.56
512.237	29.92
512.668	30.27
513.099	30.61
513.53	30.96
513.961	31.31
514.391	31.68
514.822	32.02
515.253	32.35
515.684	32.69
516.114	33.04
516.545	33.37
516.975	33.71
517.406	34.01
517.836	34.32
518.267	34.65
518.697	34.93
519.127	35.2
519.558	35.47
519.988	35.77
520.418	36.04
520.848	36.29
521.278	36.54
521.708	36.96
522.138	37.21
522.567	37.46
522.997	37.68
523.427	37.94
523.857	38.16
524.286	38.37
524.716	38.59
525.145	38.78
525.575	39
526.004	39.2
526.433	39.2
526.863	39.39
527.292	39.56
527.721	39.73
528.15	39.87
528.579	40.02
529.008	40.17
529.437	40.29
529.866	40.44
530.295	40.57
530.724	40.68
531.152	40.8
531.581	40.91
532.01	41.01
532.438	41.11
532.867	41.21
533.295	41.3
533.723	41.39
534.152	41.49
534.58	41.57
535.008	41.62
535.436	41.71
535.865	41.76
536.293	41.83
536.721	41.9
537.149	41.95
537.576	42.02
538.004	42.1
538.432	42.14
538.86	42.2
539.287	42.23
539.715	42.3
540.143	42.33
540.57	42.4
540.998	42.44
541.425	42.48
541.852	42.53
542.28	42.58
542.707	42.61
543.134	42.64
543.561	42.68
543.988	42.71
544.415	42.72
544.842	42.74
545.269	42.77
545.696	42.8
546.123	42.82
546.549	42.85
546.976	42.87
547.403	42.88
547.829	42.9
548.256	42.93
548.682	42.96
549.108	43.01
549.535	43.05
549.961	43.06
550.387	43.07
550.813	43.11
551.24	43.13
551.666	43.13
552.092	43.15
552.518	43.17
552.943	43.17
553.369	43.18
553.795	43.18
554.221	43.19
554.646	43.17
555.072	43.16
555.498	43.13
555.923	43.09
556.349	43.05
556.774	43.01
557.199	42.97
557.625	42.92
558.05	42.88
558.475	42.84
558.9	42.78
559.325	42.75
559.75	42.7
560.175	42.65
560.6	42.59
561.025	42.58
561.449	42.54
561.874	42.46
562.299	42.38
562.723	42.29
563.148	42.17
563.572	42.07
563.997	41.96
564.421	41.84
564.846	41.73
565.27	41.63
565.694	41.51
566.118	41.4
566.542	41.32
566.966	41.21
567.39	41.12
567.814	41.03
568.238	40.93
568.662	40.83
569.086	40.75
569.509	40.65
569.933	40.54
570.357	40.43
570.78	40.31
571.204	40.2
571.627	40.11
572.05	39.99
572.474	39.92
572.897	39.83
573.32	39.74
573.743	39.63
574.166	39.54
574.589	39.46
575.012	39.37
575.435	39.29
575.858	39.2
576.281	39.12
576.704	39.06
577.126	38.95
577.549	38.86
577.972	38.78
578.394	38.7
578.817	38.62
579.239	38.54
579.661	38.47
580.084	38.4
580.506	38.35
580.928	38.29
581.35	38.21
581.772	38.15
582.194	38.08
582.616	38.02
583.038	37.96
583.46	37.88
583.882	37.82
584.303	37.76
584.725	37.7
585.147	37.63
585.568	37.57
585.99	37.5
586.411	37.45
586.833	37.39
587.254	37.34
587.675	37.3
588.096	37.25
588.518	37.21
588.939	37.17
589.36	37.12
589.781	37.08
590.202	37.03
590.623	37
591.043	36.95
591.464	36.93
591.885	36.89
592.305	36.87
592.726	36.84
593.147	36.8
593.567	36.76
593.987	36.72
594.408	36.67
594.828	36.63
595.248	36.6
595.669	36.56
596.089	36.52
596.509	36.48
596.929	36.43
597.349	36.4
597.769	36.36
598.189	36.33
598.608	36.29
599.028	36.27
599.448	36.23
599.867	36.19
600.287	36.15
600.706	36.11
601.126	36.06
601.545	36.03
601.965	35.99
602.384	35.95
602.803	35.89
603.222	35.84
603.641	35.79
604.061	35.73
604.48	35.64
604.898	35.58
605.317	35.52
605.736	35.47
606.155	35.4
606.574	35.31
606.992	35.23
607.411	35.16
607.829	35.05
608.248	34.96
608.666	34.87
609.085	34.79
609.503	34.72
609.921	34.64
610.339	34.54
610.758	34.45
611.176	34.37
611.594	34.28
612.012	34.19
612.43	34.12
612.847	34.04
613.265	33.94
613.683	33.88
614.101	33.8
614.518	33.69
614.936	33.61
615.353	33.5
615.771	33.41
616.188	33.33
616.606	33.25
617.023	33.18
617.44	33.13
617.857	33.06
618.274	32.99
618.691	32.91
619.108	32.85
619.525	32.79
619.942	32.76
620.359	32.72
620.776	32.68
621.192	32.63
621.609	32.6
622.026	32.54
622.442	32.52
622.859	32.5
623.275	32.48
623.691	32.47
624.108	32.45
624.524	32.43
624.94	32.42
625.356	32.42
625.772	32.41
626.188	32.4
626.604	32.38
627.02	32.37
627.436	32.35
627.852	32.34
628.268	32.33
628.683	32.33
629.099	32.32
629.514	32.31
629.93	32.27
630.345	32.26
630.761	32.21
631.176	32.19
631.591	32.14
632.007	32.1
632.422	32.04
632.837	31.99
633.252	31.92
633.667	31.84
634.082	31.75
634.497	31.67
634.911	31.57
635.326	31.49
635.741	31.39
636.155	31.28
636.57	31.17
636.984	31.04
637.399	30.89
637.813	30.75
638.228	30.6
638.642	30.43
639.056	30.26
639.47	30.1
639.884	29.91
640.298	29.73
640.712	29.54
641.126	29.35
641.54	29.15
641.954	28.95
642.368	28.74
642.781	28.56
643.195	28.38
643.609	28.18
644.022	28
644.436	27.84
644.849	27.66
645.262	27.48
645.676	27.31
646.089	27.17
646.502	27.04
646.915	26.91
647.328	26.76
647.741	26.63
648.154	26.53
648.567	26.42
648.98	26.29
649.393	26.2
649.805	26.12
650.218	26.03
650.631	25.93
651.043	25.84
651.456	25.74
651.868	25.63
652.28	25.54
652.693	25.45
653.105	25.34
653.517	25.23
653.929	25.09
654.341	24.95
654.753	24.81
655.165	24.66
655.577	24.5
655.989	24.34
656.401	24.17
656.813	24
657.224	23.79
657.636	23.59
658.047	23.4
658.459	23.19
658.87	22.98
659.282	22.75
659.693	22.55
660.104	22.31
660.515	22.06
660.926	21.82
661.338	21.58
661.749	21.33
662.159	21.09
662.57	20.84
662.981	20.61
663.392	20.37
663.803	20.15
664.213	19.9
664.624	19.69
665.035	19.49
665.445	19.28
665.855	19.08
666.266	18.91
666.676	18.74
667.086	18.57
667.497	18.41
667.907	18.27
668.317	18.14
668.727	18.01
669.137	17.88
669.547	17.78
669.956	17.67
670.366	17.58
670.776	17.49
671.186	17.42
671.595	17.36
672.005	17.29
672.414	17.24
672.824	17.17
673.233	17.14
673.642	17.11
674.052	17.09
674.461	17.07
674.87	17.07
675.279	17.07
675.688	17.09
676.097	17.11
676.506	17.14
676.915	17.19
677.323	17.26
677.732	17.34
678.141	17.44
678.549	17.54
678.958	17.69
679.366	17.85
679.775	18.03
680.183	18.24
680.592	18.49
681	18.78
681.408	19.09
681.816	19.44
682.224	19.8
682.632	20.21
683.04	20.65
683.448	21.13
683.856	21.62
684.264	22.16
684.671	22.74
685.079	23.32
685.487	23.94
685.894	24.6
686.302	25.26
686.709	25.94
687.116	26.67
687.524	27.4
687.931	28.14
688.338	28.88
688.745	29.63
689.152	30.39
689.559	31.16
689.966	31.92
690.373	32.66
690.78	33.38
691.187	34.09
691.593	34.78
692	35.47
692.407	36.11
692.813	36.81
693.22	37.41
693.626	38.01
694.032	38.6
694.439	39.16
694.845	39.72
695.251	40.29
695.657	40.81
696.063	41.31
696.469	41.82
696.875	42.32
697.281	42.75
697.687	43.23
698.093	43.65
698.498	44.06
698.904	44.48
699.31	44.86
699.715	45.22
700.12	45.59
700.526	45.94
700.931	46.26
701.337	46.59
701.742	46.88
702.147	47.17
702.552	47.46
702.957	47.72
703.362	47.98
703.767	48.23
704.172	48.46
704.577	48.68
704.981	48.92
705.386	49.13
705.791	49.32
706.195	49.54
706.6	49.77
707.004	49.97
707.408	50.17
707.813	50.36
708.217	50.55
708.621	50.75
709.025	50.94
709.43	51.07
709.834	51.26
710.237	51.43
710.641	51.58
711.045	51.7
711.449	51.83
711.853	52
712.256	52.12
712.66	52.24
713.064	52.37
713.467	52.49
713.87	52.64
714.274	52.75
714.677	52.88
715.08	52.99
715.484	53.13
715.887	53.28
716.29	53.36
716.693	53.49
717.096	53.6
717.499	53.7
717.901	53.81
718.304	53.93
718.707	54.05
719.109	54.14
719.512	54.23
719.915	54.3
720.317	54.36
720.719	54.4
721.122	54.48
721.524	54.56
721.926	54.63
722.328	54.7
722.731	54.75
723.133	54.8
723.535	54.84
723.937	54.92
724.338	54.98
724.74	55.04
725.142	55.25
725.544	55.28
725.945	55.36
726.347	55.41
726.748	55.46
727.15	55.49
727.551	55.53
727.952	55.57
728.354	55.62
728.755	55.66
729.156	55.68
729.557	55.61
729.958	55.64
730.359	55.66
730.76	55.69
731.161	55.69
731.562	55.72
731.962	55.73
732.363	55.78
732.763	55.79
733.164	55.8
733.564	55.83
733.965	55.83
734.365	55.87
734.766	55.87
735.166	55.89
735.566	55.93
735.966	55.97
736.366	55.99
736.766	55.99
737.166	56
737.566	56.04
737.966	56.04
738.365	56.08
738.765	56.08
739.165	56.09
739.564	56.1
739.964	56.13
740.363	56.12
740.763	56.16
741.162	56.17
741.561	56.18
741.96	56.17
742.36	56.16
742.759	56.16
743.158	56.17
743.557	56.17
743.955	56.19
744.354	56.18
744.753	56.21
745.152	56.22
745.55	56.25
745.949	56.25
746.348	56.29
746.746	56.31
747.144	56.31
747.543	56.31
747.941	56.31
748.339	56.28
748.737	56.26
749.136	56.25
749.534	56.21
749.932	56.19
750.33	56.17
750.727	56.14
751.125	56.15
751.523	56.13
751.921	56.13
752.318	56.16
752.716	56.18
753.113	56.17
753.511	56.16
753.908	56.2
754.305	56.23
754.703	56.22
755.1	56.23
755.497	56.23
755.894	56.24
756.291	56.24
756.688	56.2
757.085	56.2
757.482	56.23
757.878	56.24
758.275	56.22
758.672	56.2
759.068	56.23
759.465	56.21
759.861	56.23
760.258	56.25
760.654	56.26
761.05	56.28
761.447	56.3
761.843	56.3
762.239	56.31
762.635	56.33
763.031	56.33
763.427	56.32
763.822	56.33
764.218	56.35
764.614	56.35
765.01	56.36
765.405	56.36
765.801	56.36
766.196	56.36
766.592	56.35
766.987	56.34
767.382	56.32
767.778	56.36
768.173	56.37
768.568	56.33
768.963	56.31
769.358	56.31
769.753	56.3
770.148	56.3
770.542	56.28
770.937	56.33
771.332	56.32
771.726	56.31
772.121	56.29
772.515	56.28
772.91	56.27
773.304	56.3
773.699	56.31
774.093	56.32
774.487	56.31
774.881	56.35
775.275	56.32
775.669	56.31
776.063	56.34
776.457	56.34
776.851	56.31
777.245	56.31
777.638	56.27
778.032	56.28
778.425	56.32
778.819	56.33
779.212	56.33
779.606	56.34
779.999	56.37
780.392	56.38
780.786	56.41
781.179	56.44
781.572	56.5
781.965	56.55
782.358	56.54
782.751	56.5
783.143	56.51
783.536	56.47
783.929	56.47
784.322	56.49
784.714	56.5
785.107	56.51
785.499	56.49
785.891	56.48
786.284	56.49
786.676	56.51
787.068	56.53
787.46	56.55
787.852	56.59
788.245	56.58
788.636	56.54
789.028	56.55
789.42	56.52
789.812	56.55
790.204	56.57
790.595	56.58
790.987	56.56
791.378	56.57
791.77	56.55
792.161	56.54
792.553	56.56
792.944	56.59
793.335	56.6
793.726	56.63
794.117	56.59
794.508	56.55
794.899	56.53
795.29	56.56
795.681	56.53
796.072	56.54
796.463	56.58
796.853	56.56
797.244	56.55
797.634	56.54
798.025	56.54
798.415	56.58
798.806	56.58
799.196	56.6
799.586	56.61
799.976	56.65
800.366	56.65
800.756	56.62
801.146	56.64
801.536	56.66
801.926	56.65
802.316	56.64
802.706	56.63
803.095	56.66
803.485	56.65
803.874	56.62
804.264	56.6
804.653	56.59
805.043	56.61
805.432	56.61
805.821	56.62
806.21	56.63
806.599	56.64
806.988	56.62
807.377	56.6
807.766	56.61
808.155	56.61
808.544	56.63
808.933	56.61
809.321	56.59
809.71	56.58
810.098	56.55
810.487	56.52
810.875	56.52
811.264	56.52
811.652	56.54
812.04	56.52
812.428	56.52
812.816	56.5
813.204	56.49
813.592	56.47
813.98	56.46
814.368	56.48
814.756	56.46
815.144	56.43
815.531	56.42
815.919	56.4
816.306	56.39
816.694	56.36
817.081	56.37
817.469	56.39
817.856	56.39
818.243	56.39
818.63	56.37
819.017	56.41
819.404	56.4
819.791	56.4
820.178	56.41
820.565	56.37
820.952	56.38
821.339	56.36
821.725	56.35
822.112	56.36
822.498	56.36
822.885	56.38
823.271	56.34
823.657	56.32
824.044	56.34
824.43	56.33
824.816	56.35
825.202	56.33
825.588	56.32
825.974	56.27
826.36	56.26
826.746	56.25
827.132	56.22
827.517	56.26
827.903	56.31
828.289	56.29
828.674	56.26
829.06	56.24
829.445	56.22
829.83	56.24
830.216	56.25
830.601	56.25
830.986	56.24
831.371	56.21
831.756	56.2
832.141	56.17
832.526	56.15
832.911	56.17
833.295	56.18
833.68	56.19
834.065	56.15
834.449	56.15
834.834	56.13
835.218	56.13
835.603	56.13
835.987	56.09
836.371	56.06
836.755	56.03
837.139	55.98
837.524	55.97
837.908	55.99
838.291	56
838.675	55.99
839.059	55.98
839.443	55.93
839.827	55.91
840.21	55.92
840.594	55.93
840.977	55.94
841.361	55.96
841.744	55.94
842.127	55.9
842.511	55.89
842.894	55.88
843.277	55.88
843.66	55.86
844.043	55.87
844.426	55.85
844.809	55.84
845.191	55.87
845.574	55.84
845.957	55.85
846.339	55.87
846.722	55.85
847.104	55.88
847.487	55.86
847.869	55.88
848.252	55.89
848.634	55.88
849.016	55.87
849.398	55.85
849.78	55.88
850.162	55.86
850.544	55.85
850.926	55.85
851.307	55.84
851.689	55.83
852.071	55.85
852.452	55.83
852.834	55.82
853.215	55.81
853.597	55.8
853.978	55.77
854.359	55.76
854.741	55.75
855.122	55.74
855.503	55.72
855.884	55.7
856.265	55.68
856.646	55.67
857.026	55.69
857.407	55.7
857.788	55.67
858.169	55.69
858.549	55.68
858.93	55.7
859.31	55.71
859.69	55.75
860.071	55.79
860.451	55.78
860.831	55.79
861.211	55.77
861.591	55.77
861.971	55.79
862.351	55.8
862.731	55.82
863.111	55.78
863.491	55.77
863.87	55.72
864.25	55.69
864.629	55.7
865.009	55.72
865.388	55.72
865.768	55.72
866.147	55.74
866.526	55.74
866.905	55.75
867.284	55.76
867.663	55.75
868.042	55.78
868.421	55.79
868.8	55.78
869.179	55.76
869.558	55.75
869.936	55.74
870.315	55.72
870.693	55.71
871.072	55.72
871.45	55.72
871.828	55.75
872.207	55.76
872.585	55.75
872.963	55.76
873.341	55.73
873.719	55.74
874.097	55.76
874.475	55.77
874.853	55.76
875.23	55.76
875.608	55.75
875.986	55.78
876.363	55.79
876.741	55.8
877.118	55.81
877.495	55.83
877.873	55.84
878.25	55.87
878.627	55.89
879.004	55.91
879.381	55.91
879.758	55.89
880.135	55.86
880.512	55.82
880.889	55.8
881.265	55.79
881.642	55.79
882.019	55.76
882.395	55.72
882.772	55.71
883.148	55.65
883.524	55.62
883.901	55.62
884.277	55.59
884.653	55.55
885.029	55.52
885.405	55.51
885.781	55.49
886.157	55.48
886.532	55.46
886.908	55.42
887.284	55.41
887.659	55.38
888.035	55.38
888.411	55.36
888.786	55.37
889.161	55.39
889.537	55.39
889.912	55.39
890.287	55.38
890.662	55.37
891.037	55.37
891.412	55.38
891.787	55.36
892.162	55.36
892.536	55.36
892.911	55.34
893.286	55.31
893.66	55.29
894.035	55.29
894.409	55.29
894.784	55.31
895.158	55.32
895.532	55.31
895.906	55.31
896.281	55.29
896.655	55.28
897.029	55.3
897.402	55.3
897.776	55.3
898.15	55.31
898.524	55.33
898.898	55.31
899.271	55.33
899.645	55.37
900.018	55.4
900.392	55.43
900.765	55.46
901.138	55.5
901.511	55.54
901.884	55.57
902.258	55.58
902.631	55.58
903.003	55.61
903.376	55.62
903.749	55.63
904.122	55.66
904.495	55.68
904.867	55.69
905.24	55.7
905.612	55.73
905.985	55.72
906.357	55.73
906.729	55.75
907.102	55.74
907.474	55.75
907.846	55.77
908.218	55.75
908.59	55.76
908.962	55.76
909.334	55.78
909.705	55.77
910.077	55.78
910.449	55.79
910.82	55.8
911.192	55.81
911.563	55.81
911.935	55.81
912.306	55.85
912.677	55.84
913.048	55.89
913.419	55.86
913.79	55.86
914.161	55.89
914.532	55.9
914.903	55.89
915.274	55.9
915.645	55.95
916.015	55.98
916.386	55.97
916.756	55.97
917.127	55.97
917.497	55.97
917.868	55.98
918.238	55.97
918.608	56
918.978	56
919.348	56.04
919.718	56.02
920.088	56.01
920.458	56.04
920.828	56.04
921.198	56.02
921.567	56.05
921.937	56.07
922.306	56.1
922.676	56.08
923.045	56.12
923.415	56.1
923.784	56.09
924.153	56.15
924.522	56.13
924.891	56.13
925.26	56.15
925.629	56.16
925.998	56.17
926.367	56.18
926.736	56.2
927.104	56.17
927.473	56.18
927.842	56.18
928.21	56.14
928.578	56.12
928.947	56.17
929.315	56.15
929.683	56.14
930.051	56.12
930.42	56.12
930.788	56.11
931.156	56.09
931.523	56.09
931.891	56.1
932.259	56.11
932.627	56.16
932.994	56.14
933.362	56.16
933.729	56.17
934.097	56.17
934.464	56.18
934.831	56.21
935.199	56.25
935.566	56.31
935.933	56.29
936.3	56.3
936.667	56.35
937.034	56.39
937.401	56.45
937.767	56.51
938.134	56.54
938.501	56.61
938.867	56.66
939.234	56.7
939.6	56.68
939.967	56.74
940.333	56.76
940.699	56.77
941.065	56.69
941.431	56.68
941.798	56.7
942.163	56.73
942.529	56.71
942.895	56.68
943.261	56.63
943.627	56.58
943.992	56.56
944.358	56.51
944.723	56.49
945.089	56.46
945.454	56.49
945.82	56.44
946.185	56.44
946.55	56.38
946.915	56.37
947.28	56.35
947.645	56.38
948.01	56.38
948.375	56.36
948.74	56.31
949.104	56.36
949.469	56.25
949.834	56.21
950.198	56.13
950.562	56.07
950.927	56.02
951.291	55.96
951.655	55.86
952.02	55.81
952.384	55.76
952.748	55.7
953.112	55.63
953.476	55.64
953.839	55.62
954.203	55.58
954.567	55.55
954.931	55.46
955.294	55.42
955.658	55.49
956.021	55.47
956.385	55.44
956.748	55.44
957.111	55.44
957.474	55.43
957.837	55.39
958.2	55.44
958.563	55.43
958.926	55.49
959.289	55.55
959.652	55.47
960.015	55.46
960.377	55.49
960.74	55.51
961.102	55.52
961.465	55.57
961.827	55.67
962.189	55.65
962.552	55.66
962.914	55.67
963.276	55.69
963.638	55.77
964	55.8
964.362	55.81
964.724	55.82
965.085	55.82
965.447	55.74
965.809	55.68
966.17	55.67
966.532	55.72
966.893	55.75
967.255	55.79
967.616	55.76
967.977	55.81
968.338	55.81
968.699	55.83
969.061	55.79
969.421	55.91
969.782	55.95
970.143	56.03
970.504	56.06
970.865	56.12
971.225	56.06
971.586	56.11
971.946	56.04
972.307	56.03
972.667	56.07
973.027	56.12
973.388	56.09
973.748	56.1
974.108	56.11
974.468	56.07
974.828	56.11
975.188	56.14
975.548	56.18
975.907	56.24
976.267	56.35
976.627	56.36
976.986	56.39
977.346	56.36
977.705	56.4
978.064	56.41
978.424	56.48
978.783	56.37
979.142	56.37
979.501	56.34
979.86	56.43
980.219	56.38
980.578	56.44
980.937	56.49
981.296	56.59
981.654	56.6
982.013	56.61
982.371	56.68
982.73	56.8
983.088	56.87
983.447	56.94
983.805	56.9
984.163	56.99
984.521	56.95
984.879	56.91
985.237	56.87
985.595	56.98
985.953	57.02
986.311	56.93
986.669	56.93
987.026	56.91
987.384	56.95
987.741	56.92
988.099	57.03
988.456	57.06
988.814	57.22
989.171	57.33
989.528	57.35
989.885	57.41
990.242	57.55
990.599	57.65
990.956	57.83
991.313	57.87
991.67	57.98
992.027	58.13
992.383	58.3
992.74	58.36
993.096	58.38
993.453	58.43
993.809	58.47
994.165	58.52
994.522	58.55
994.878	58.59
995.234	58.7
995.59	58.74
995.946	58.59
996.302	58.57
996.658	58.61
997.013	58.64
997.369	58.68
997.725	58.81
998.08	58.88
998.436	58.89
998.791	58.95
999.147	58.86
999.502	58.98
999.857	59.07
1000.212	59.16
1000.567	59.2
1000.922	59.25
1001.277	59.3
1001.632	59.14
1001.987	59.14
1002.342	59.24
1002.696	59.25
1003.051	59.58
1003.406	59.74
1003.76	59.79
1004.114	59.71
1004.469	59.86
1004.823	60.18
1005.177	60.18
1005.531	60.5
1005.885	60.66
1006.239	60.71
1006.593	60.85
1006.947	60.75
1007.301	60.64
1007.655	60.84
1008.008	61.08
1008.362	61.2
1008.715	61.13
1009.069	61.35
1009.422	61.41
1009.776	61.58
1010.129	61.65
1010.482	61.64
1010.835	61.98
1011.188	62.21
1011.541	62.31
1011.894	62.53
1012.247	62.58
1012.6	62.72
1012.952	62.78
1013.305	63.02
1013.657	63.11
1014.01	63.29
1014.362	63.62
1014.715	63.62
1015.067	63.78
1015.419	63.9
1015.771	63.77
1016.123	63.82
1016.475	63.97
1016.827	64.08
1017.179	64.33
1017.531	64.25
1017.883	64.44
1018.234	64.62
1018.586	64.84
1018.938	65.15
1019.289	65.21
1019.64	65.53
1019.992	65.44
1020.343	65.57
1020.694	65.89
1021.045	65.68
1021.396	66.18
1021.747	66.48
1022.098	66.54
1022.449	66.44
1022.8	66.41
1023.151	66.55
1023.501	66.66
1023.852	67.16
1024.202	67.46
1024.553	67.49
1024.903	67.89
1025.253	67.99
1025.604	68.06
1025.954	68.05
1026.304	68.38
1026.654	68.59
1027.004	68.67
1027.354	68.98
1027.703	69.15
1028.053	69.08
1028.403	69.3
1028.753	69.09
1029.102	69.22
1029.452	69.34
1029.801	69.64
1030.15	69.66
1030.499	69.57
897.758	1603.69
901.051	1607.23
904.343	1600.79
907.636	1630.73
910.928	1587.1
914.22	1586.44
917.511	1567.49
920.803	1500.43
924.094	1493.07
927.384	1462.3
930.675	1398.66
933.965	1390.59
937.255	1312.75
940.544	1261.73
943.834	1199.33
947.123	1189.73
950.411	1121.97
953.7	1096.67
956.988	1034.63
960.276	993.05
963.563	977.71
966.851	942.73
970.138	935.53
973.424	905.3
976.711	911.4
979.997	867.66
983.283	862.06
986.568	843.15
989.853	817.48
993.138	805.56
996.423	775.01
999.708	754.64
1002.992	746.35
1006.275	711.38
1009.559	704.65
1012.842	679.84
1016.125	660.07
1019.408	649.62
1022.69	639.8
1025.972	628.95
1029.254	612.81
1032.536	602.47
1035.817	587.87
1039.098	581.55
1042.379	569.34
1045.659	563.8
1048.939	548.7
1052.219	538.92
1055.498	529.04
1058.778	517.86
1062.057	504.62
1065.335	499.65
1068.614	493.79
1071.892	489.25
1075.17	471.9
1078.447	463.68
1081.724	460.36
1085.001	457.18
1088.278	446.61
1091.554	439.24
1094.83	439.29
1098.106	436.48
1101.382	432.5
1104.657	430.23
1107.932	422.74
1111.206	426.84
1114.481	415.48
1117.755	411.17
1121.029	407.66
1124.302	408.69
1127.575	400.17
1130.848	394.94
1134.121	390.54
1137.393	389.38
1140.665	379.86
1143.937	378.82
1147.208	374.52
1150.48	375.18
1153.75	369.94
1157.021	364.33
1160.291	364.21
1163.561	361.18
1166.831	360.82
1170.101	358.23
1173.37	357.02
1176.639	358.56
1179.907	354.35
1183.176	351.12
1186.444	350.32
1189.711	350.04
1192.979	349.47
1196.246	346.97
1199.513	347.77
1202.78	345.88
1206.046	346.04
1209.312	342.13
1212.578	342.75
1215.843	346.03
1219.108	344.37
1222.373	351.29
1225.638	354.04
1228.902	359.49
1232.166	359.24
1235.43	362.55
1238.693	366.52
1241.956	368.22
1245.219	374.48
1248.482	374
1251.744	373.38
1255.006	375.53
1258.268	365.67
1261.529	361.87
1264.79	358.5
1268.051	357.03
1271.312	352.07
1274.572	348.9
1277.832	345.84
1281.092	339.78
1284.351	337.19
1287.61	337.42
1290.869	330.92
1294.128	329.85
1297.386	329.57
1300.644	327.12
1303.902	327.39
1307.159	326.24
1310.416	326.21
1313.673	325.9
1316.93	329.55
1320.186	329.7
1323.442	330.18
1326.697	336.75
1329.953	337.34
1333.208	338.45
1336.463	342.3
1339.717	343.62
1342.972	346.92
1346.226	349.76
1349.479	350.11
1352.733	351.99
1355.986	353.61
1359.238	353.14
1362.491	355.44
1365.743	358.45
1368.995	359.3
1372.247	357.71
1375.498	357.81
1378.749	361.4
1382	355.98
1385.251	357.83
1388.501	355.36
1391.751	357.64
1395	355.79
1398.25	352.08
1401.499	350.42
1404.748	349.88
1407.996	345.85
1411.244	343.96
1414.492	342.08
1417.74	340.28
1420.987	335.53
1424.234	334.83
1427.481	329.15
1430.728	328.98
1433.974	325.5
1437.22	323.33
1440.465	321.85
1443.711	320.23
1446.956	318.8
1450.201	314.04
1453.445	311.09
1456.689	308.62
1459.933	303.65
1463.177	301.36
1466.42	297.29
1469.663	294.31
1472.906	291.67
1476.148	284.68
1479.391	280.95
1482.633	277.6
1485.874	274.01
1489.115	272.33
1492.356	269.64
1495.597	269.01
1498.838	265.02
1502.078	263.26
1505.318	261.8
1508.557	262.05
1511.797	261.8
1515.036	260.44
1518.274	260.1
1521.513	257.31
1524.751	256.8
1527.989	256.41
1531.227	255.59
1534.464	256.78
1537.701	254.17
1540.938	253.44
1544.174	250.24
1547.41	249.91
1550.646	248.98
1553.882	249.25
1557.117	246.1
1560.352	244.72
1563.587	243.67
1566.821	241.85
1570.055	239.14
1573.289	238.06
1576.523	238.18
1579.756	236.25
1582.989	234.69
1586.222	234.6
1589.454	232.61
1592.686	234.94
1595.918	233.93
1599.15	233.11
1602.381	233.61
1605.612	233.44
1608.843	234.64
1612.073	233.71
1615.303	235.59
1618.533	235.76
1621.762	235.39
1624.992	235.27
1628.221	235.31
1631.449	234.89
1634.678	234.7
1637.906	235.04
1641.134	235.56
1644.361	234.7
1647.588	235.92
1650.815	234.27
1654.042	233.87
1657.269	234.85
1660.495	235.38
1663.72	233.58
1666.946	234.85
1670.171	235.31
1673.396	235.14
1676.621	234.93
1679.845	235.14
1683.069	234.67
1686.293	236.37
1689.517	237.58
1692.74	237.04
1695.963	238.02
1699.185	240.95
1702.408	241.21
1705.63	241.69
1708.852	242.73
1712.073	243.03
1715.294	243.52
1718.515	245.19
1721.736	244.93
1724.956	245
1728.176	245.08
1731.396	247.7
1734.616	246.11
1737.835	246.64
1741.054	245.55
1744.272	245.95
1747.491	248.58
1750.709	249
1753.927	248.38
1757.144	247.69
1760.361	249.32
1763.578	250.01
1766.795	248.58
1770.011	250.36
1773.227	250.37
1776.443	253.22
1779.658	254.66
1782.874	253.85
1786.089	255.06
1789.303	255.98
1792.518	258.72
1795.732	258.51
1798.945	260.76
1802.159	261.01
1805.372	262.08
1808.585	266.88
1811.797	267.5
1815.01	267.49
1818.222	269.46
1821.434	270.97
1824.645	272.4
1827.856	277.24
1831.067	279.85
1834.278	278.27
1837.488	280.33
1840.698	282.54
1843.908	279.4
1847.117	281.19
1850.326	283.04
1853.535	281.62
1856.744	286.42
1859.952	286.04
1863.16	284.15
1866.368	281.38
1869.575	285.95
1872.782	280.56
1875.989	279.76
1879.196	278.7
1882.402	276.65
1885.608	277.67
1888.814	278.87
1892.019	277.31
1895.224	276.29
1898.429	274.65
1901.634	277.13
1904.838	276.6
1908.042	281.36
1911.246	281.34
1914.449	283.25
1917.652	283.2
1920.855	282.39
1924.058	281.93
1927.26	280.82
1930.462	282.32
1933.664	285.91
1936.865	282.98
1940.066	283.1
1943.267	280.51
1946.467	280.69
1949.668	282.57
1952.868	286.42
1956.067	286.49
1959.267	286.92
1962.466	287.88
1965.665	286.22
1968.863	286.66
1972.061	290.54
1975.259	293.22
1978.457	295.92
1981.654	298.65
1984.852	299.28
1988.048	298.11
1991.245	300.33
1994.441	304.19
1997.637	306.37
2000.833	312.13
2004.028	316.34
2007.223	317.74
2010.418	320.63
2013.613	325.87
2016.807	329.21
2020.001	331.45
2023.194	336.9
2026.388	344.86
2029.581	352.28
2032.774	355.44
2035.966	362.45
2039.158	362.92
2042.35	370.51
2045.542	372.54
2048.733	378.65
2051.924	382.96
2055.115	390.58
2058.306	390.92
2061.496	395.78
2064.686	394
2067.875	401.94
2071.065	403.06
2074.254	401.81
2077.442	405.96
2080.631	408.49
2083.819	412.22
2087.007	413.31
2090.195	417.2
2093.382	420.43
2096.569	416.82
2099.756	425.88
2102.942	425.15
2106.128	430.79
2109.314	439.61
2112.5	438.23
2115.685	446.87
2118.87	448.21
2122.055	456.09
2125.239	460.37
2128.424	466.44
2131.608	471.11
2134.791	475.57
2137.974	478.63
2141.157	479.18
2144.34	480.13
2147.523	488.37
2150.705	484.97
2153.887	488.09
2157.068	490.46
2160.25	485.45
2163.431	487.6
2166.611	491.79
2169.792	501.86
2172.972	506.9
2176.152	509.69
2179.331	517.11
2182.511	525.35
2185.69	531.89
2188.868	543.4
2192.047	544.11
2195.225	559.37
2198.403	573.82
2201.58	585.02
2204.758	595.68
2207.935	608.08
2211.111	618.81
2214.288	626.03
2217.464	627.79
2220.64	636.39
2223.815	645.31
2226.991	671.66
2230.166	673.18
2233.34	686.12
2236.515	695.25
2239.689	695.44
2242.863	698.89
2246.036	722.1
2249.209	715.32
2252.382	727.26
2255.555	749.74
2258.727	751.57
2261.9	756.42
2265.071	763.94
2268.243	774.7
2271.414	784.52
2274.585	804.17
2277.756	812.65
2280.926	815.56
2284.096	834.41
2287.266	853.82
2290.436	860.12
2293.605	881.91
2296.774	906.92
2299.942	936.64
2303.111	941.68
2306.279	965.67
2309.447	977.22
2312.614	1003.49
2315.781	1029.15
2318.948	1078.39
2322.115	1061.12
2325.281	1118.53
2328.447	1093.21
2331.613	1141.85
2334.779	1126.85
2337.944	1174.35
2341.109	1185.65
2344.274	1216.12
2347.438	1257.92
2350.602	1261.47
2353.766	1299.8
2356.929	1319.3
2360.092	1307.81
2363.255	1404.68
2366.418	1397.26
2369.58	1426.94
2372.742	1517.76
2375.904	1555.27
2379.066	1545.83
2382.227	1515.23
2385.388	1642.92
2388.548	1646.1
2391.709	1667.56
2394.869	1860.82
2398.029	1774.17
2401.188	1828.58
2404.347	1815.06
2407.506	1785.31
2410.665	1839.58
2413.823	1946.58
2416.981	2063.77
2420.139	1992.78
2423.296	1972.09
2426.453	2054.54
2429.61	1980.39
2432.767	2080.5
2435.923	2056.17
2439.079	2241.87
2442.235	2270.06
2445.391	2247.51
2448.546	2240.59
2451.701	2174.21
2454.855	2177.23
2458.009	2305.7
2461.163	2397.43
2464.317	2479.12
2467.471	2543.32
2470.624	2539.5
2473.777	2485.72
2476.929	2426.46
2480.082	2350.88
2483.234	2320.82
2486.385	2434.56
2489.537	2446.94
2492.688	2541.81
2495.839	2475.1
2498.989	2423.27
2502.14	2433.2
2505.29	2463.92
2508.439	2498.73
2511.589	2489.27
2514.738	2714.65
2517.887	2655.87
2521.035	2814.8
2524.183	2830.72
2527.331	2848.95
2530.479	2839.61
2533.627	2859.66
