Data from C_2_DEC_OH_4N_Splice17_13-05-49-649.txt Node
Date: Sat Mar 07 13:05:49 EST 2020
User: sa697716
Spectrometer: NQ5500242
Trigger mode: 0
Integration Time (sec): 1.450000E-1
Scans to average: 20
Nonlinearity correction enabled: false
Boxcar width: 5
Storing dark spectrum: false
XAxis mode: Wavelengths
Number of Pixels in Spectrum: 512
>>>>>Begin Spectral Data<<<<<
187.83	146.05
188.298	162.31
188.766	130.11
189.233	108.52
189.701	99.3
190.169	145.87
190.636	135.85
191.104	170.61
191.571	0.95
192.039	-138.3
192.506	-203.84
192.974	69.19
193.441	246.54
193.908	55.98
194.375	62.95
194.842	-26.9
195.31	59
195.777	53.58
196.244	36.82
196.711	35.51
197.177	38.18
197.644	37.39
198.111	37.8
198.578	37.92
199.045	38.46
199.511	37.65
199.978	37.84
200.445	38.41
200.911	38.33
201.378	38.72
201.844	38.97
202.31	38.48
202.777	38.54
203.243	38.54
203.709	38.13
204.176	37.57
204.642	37.56
205.108	37.57
205.574	36.93
206.04	36.39
206.506	35.63
206.972	35.17
207.438	34.94
207.903	34.42
208.369	33.55
208.835	32.78
209.301	32.11
209.766	31.27
210.232	30.16
210.697	29.32
211.163	28.51
211.628	27.87
212.094	27.13
212.559	26.66
213.024	25.99
213.49	25.3
213.955	24.64
214.42	24.05
214.885	23.25
215.35	22.26
215.815	20.99
216.28	19.31
216.745	17.44
217.21	15.67
217.675	13.87
218.14	12.47
218.604	11.17
219.069	10.12
219.534	9.2
219.998	8.46
220.463	7.87
220.927	7.31
221.392	6.88
221.856	6.56
222.32	6.22
222.785	5.99
223.249	5.74
223.713	5.55
224.177	5.38
224.642	5.22
225.106	5.05
225.57	4.88
226.034	4.77
226.497	4.65
226.961	4.52
227.425	4.43
227.889	4.31
228.353	4.2
228.816	4.11
229.28	4.02
229.744	3.94
230.207	3.87
230.671	3.79
231.134	3.73
231.597	3.68
232.061	3.61
232.524	3.54
232.987	3.5
233.45	3.47
233.914	3.42
234.377	3.36
234.84	3.3
235.303	3.26
235.766	3.23
236.229	3.18
236.691	3.13
237.154	3.1
237.617	3.07
238.08	3.03
238.542	2.98
239.005	2.95
239.468	2.93
239.93	2.9
240.393	2.88
240.855	2.84
241.317	2.81
241.78	2.78
242.242	2.74
242.704	2.71
243.166	2.68
243.629	2.66
244.091	2.63
244.553	2.59
245.015	2.56
245.477	2.52
245.939	2.5
246.4	2.47
246.862	2.45
247.324	2.43
247.786	2.41
248.247	2.37
248.709	2.34
249.17	2.31
249.632	2.29
250.093	2.27
250.555	2.25
251.016	2.22
251.477	2.2
251.939	2.18
252.4	2.15
252.861	2.13
253.322	2.11
253.783	2.1
254.244	2.09
254.705	2.06
255.166	2.05
255.627	2.03
256.088	2.02
256.549	2.01
257.009	1.99
257.47	1.97
257.931	1.95
258.391	1.92
258.852	1.89
259.312	1.87
259.773	1.85
260.233	1.83
260.694	1.81
261.154	1.78
261.614	1.76
262.074	1.74
262.534	1.72
262.994	1.7
263.455	1.69
263.915	1.68
264.374	1.66
264.834	1.64
265.294	1.62
265.754	1.61
266.214	1.6
266.673	1.58
267.133	1.58
267.593	1.56
268.052	1.55
268.512	1.55
268.971	1.54
269.431	1.54
269.89	1.53
270.349	1.53
270.809	1.52
271.268	1.52
271.727	1.51
272.186	1.5
272.645	1.5
273.104	1.5
273.563	1.49
274.022	1.49
274.481	1.49
274.94	1.49
275.399	1.48
275.857	1.48
276.316	1.47
276.775	1.47
277.233	1.47
277.692	1.46
278.15	1.46
278.609	1.45
279.067	1.45
279.525	1.45
279.984	1.45
280.442	1.45
280.9	1.45
281.358	1.45
281.816	1.46
282.274	1.46
282.732	1.46
283.19	1.46
283.648	1.46
284.106	1.45
284.564	1.45
285.021	1.46
285.479	1.45
285.937	1.45
286.394	1.45
286.852	1.45
287.309	1.45
287.767	1.45
288.224	1.44
288.682	1.43
289.139	1.43
289.596	1.42
290.053	1.4
290.511	1.39
290.968	1.39
291.425	1.36
291.882	1.36
292.339	1.35
292.796	1.34
293.252	1.33
293.709	1.32
294.166	1.32
294.623	1.33
295.079	1.32
295.536	1.32
295.992	1.32
296.449	1.33
296.905	1.33
297.362	1.32
297.818	1.32
298.274	1.32
298.731	1.32
299.187	1.31
299.643	1.3
300.099	1.29
300.555	1.29
301.011	1.28
301.467	1.28
301.923	1.27
302.379	1.27
302.835	1.27
303.291	1.26
303.746	1.26
304.202	1.27
304.658	1.27
305.113	1.27
305.569	1.28
306.024	1.28
306.479	1.29
306.935	1.29
307.39	1.3
307.845	1.3
308.301	1.31
308.756	1.31
309.211	1.31
309.666	1.32
310.121	1.33
310.576	1.33
311.031	1.33
311.486	1.34
311.94	1.35
312.395	1.35
312.85	1.35
313.305	1.35
313.759	1.36
314.214	1.37
314.668	1.36
315.123	1.36
315.577	1.37
316.032	1.36
316.486	1.36
316.94	1.35
317.394	1.35
317.849	1.35
318.303	1.34
318.757	1.33
319.211	1.33
319.665	1.32
320.119	1.31
320.572	1.3
321.026	1.3
321.48	1.29
321.934	1.28
322.387	1.27
322.841	1.27
323.295	1.27
323.748	1.27
324.202	1.26
324.655	1.27
325.108	1.27
325.562	1.28
326.015	1.28
326.468	1.28
326.921	1.29
327.374	1.29
327.827	1.3
328.28	1.29
328.733	1.3
329.186	1.3
329.639	1.3
330.092	1.3
330.545	1.31
330.997	1.3
331.45	1.32
331.903	1.33
332.355	1.34
332.808	1.33
333.26	1.34
333.713	1.34
334.165	1.34
334.617	1.34
335.069	1.34
335.522	1.34
335.974	1.35
336.426	1.34
336.878	1.34
337.33	1.34
337.782	1.34
338.234	1.35
338.686	1.36
339.137	1.37
339.589	1.36
340.041	1.36
340.493	1.36
340.944	1.35
341.396	1.35
341.847	1.34
342.299	1.33
342.75	1.32
343.201	1.31
343.653	1.3
344.104	1.28
344.555	1.28
345.006	1.27
345.457	1.27
345.908	1.27
346.359	1.27
346.81	1.26
347.261	1.26
347.712	1.26
348.163	1.25
348.613	1.25
349.064	1.26
349.515	1.26
349.965	1.26
350.416	1.25
350.866	1.25
351.317	1.24
351.767	1.25
352.217	1.26
352.668	1.27
353.118	1.27
353.568	1.27
354.018	1.27
354.468	1.28
354.918	1.29
355.368	1.29
355.818	1.3
356.268	1.3
356.718	1.31
357.168	1.3
357.617	1.29
358.067	1.29
358.517	1.3
358.966	1.31
359.416	1.31
359.865	1.3
360.315	1.3
360.764	1.31
361.213	1.31
361.663	1.3
362.112	1.31
362.561	1.31
363.01	1.31
363.459	1.3
363.908	1.3
364.357	1.3
364.806	1.3
365.255	1.3
365.703	1.3
366.152	1.31
366.601	1.31
367.05	1.32
367.498	1.32
367.947	1.33
368.395	1.34
368.844	1.35
369.292	1.34
369.74	1.35
370.189	1.36
370.637	1.36
371.085	1.35
371.533	1.34
371.981	1.34
372.429	1.34
372.877	1.34
373.325	1.33
373.773	1.32
374.221	1.32
374.669	1.32
375.116	1.31
375.564	1.3
376.012	1.31
376.459	1.31
376.907	1.32
377.354	1.31
377.801	1.32
378.249	1.32
378.696	1.31
379.143	1.32
379.591	1.32
380.038	1.32
380.485	1.33
380.932	1.33
381.379	1.33
381.826	1.33
382.273	1.33
382.72	1.31
383.166	1.31
383.613	1.32
384.06	1.31
384.506	1.31
384.953	1.3
385.4	1.3
385.846	1.31
386.292	1.3
386.739	1.29
387.185	1.29
387.631	1.3
388.078	1.31
388.524	1.31
388.97	1.31
389.416	1.31
389.862	1.33
390.308	1.34
390.754	1.34
391.2	1.35
391.645	1.36
392.091	1.39
392.537	1.4
392.983	1.41
393.428	1.42
393.874	1.43
394.319	1.45
394.765	1.45
395.21	1.45
395.655	1.46
396.101	1.48
396.546	1.48
396.991	1.48
397.436	1.49
397.881	1.5
398.326	1.51
398.771	1.53
399.216	1.53
399.661	1.55
400.106	1.57
400.551	1.59
400.995	1.59
401.44	1.6
401.885	1.62
402.329	1.64
402.774	1.65
403.218	1.68
403.663	1.69
404.107	1.71
404.551	1.72
404.995	1.72
405.44	1.72
405.884	1.74
406.328	1.75
406.772	1.77
407.216	1.78
407.66	1.78
408.104	1.77
408.547	1.77
408.991	1.79
409.435	1.81
409.879	1.82
410.322	1.86
410.766	1.88
411.209	1.9
411.653	1.92
412.096	1.94
412.54	1.95
412.983	1.96
413.426	2
413.869	2.01
414.312	2.04
414.756	2.06
415.199	2.06
415.642	2.08
416.085	2.08
416.527	2.08
416.97	2.08
417.413	2.09
417.856	2.09
418.298	2.08
418.741	2.09
419.184	2.09
419.626	2.09
420.069	2.11
420.511	2.11
420.953	2.12
421.396	2.15
421.838	2.16
422.28	2.19
422.722	2.22
423.164	2.24
423.606	2.25
424.048	2.26
424.49	2.27
424.932	2.26
425.374	2.25
425.816	2.22
426.258	2.21
426.699	2.21
427.141	2.2
427.582	2.2
428.024	2.2
428.465	2.2
428.907	2.21
429.348	2.2
429.789	2.21
430.231	2.24
430.672	2.28
431.113	2.3
431.554	2.32
431.995	2.34
432.436	2.35
432.877	2.37
433.318	2.41
433.759	2.44
434.2	2.47
434.64	2.5
435.081	2.51
435.522	2.53
435.962	2.54
436.403	2.57
436.843	2.58
437.284	2.59
437.724	2.59
438.164	2.58
438.604	2.58
439.045	2.59
439.485	2.59
439.925	2.58
440.365	2.58
440.805	2.59
441.245	2.6
441.685	2.62
442.125	2.63
442.564	2.63
443.004	2.64
443.444	2.65
443.883	2.66
444.323	2.67
444.762	2.69
445.202	2.7
445.641	2.71
446.081	2.72
446.52	2.72
446.959	2.74
447.398	2.77
447.837	2.78
448.276	2.8
448.716	2.8
449.154	2.83
449.593	2.85
450.032	2.86
450.471	2.85
450.91	2.84
451.349	2.86
451.787	2.85
452.226	2.84
452.664	2.85
453.103	2.83
453.541	2.83
453.98	2.82
454.418	2.81
454.856	2.81
455.295	2.81
455.733	2.79
456.171	2.78
456.609	2.77
457.047	2.76
457.485	2.74
457.923	2.75
458.361	2.75
458.798	2.75
459.236	2.76
459.674	2.75
460.111	2.76
460.549	2.78
460.987	2.79
461.424	2.81
461.862	2.82
462.299	2.84
462.736	2.84
463.173	2.84
463.611	2.85
464.048	2.87
464.485	2.89
464.922	2.9
465.359	2.91
465.796	2.94
466.233	2.96
466.67	2.97
467.106	2.99
467.543	2.99
467.98	3
468.416	2.99
468.853	2.99
469.29	2.97
469.726	2.98
470.162	2.98
470.599	2.96
471.035	2.96
471.471	2.94
471.907	2.94
472.344	2.96
472.78	2.97
473.216	2.97
473.652	2.97
474.088	2.97
474.523	2.97
474.959	2.97
475.395	2.96
475.831	2.96
476.266	2.97
476.702	2.96
477.138	2.95
477.573	2.95
478.008	2.95
478.444	2.95
478.879	2.96
479.314	2.96
479.75	2.95
480.185	2.94
480.62	2.94
481.055	2.94
481.49	2.94
481.925	2.94
482.36	2.94
482.795	2.94
483.229	2.94
483.664	2.94
484.099	2.93
484.534	2.94
484.968	2.96
485.403	2.97
485.837	2.98
486.271	2.99
486.706	3
487.14	3.01
487.574	3.02
488.009	3.04
488.443	3.05
488.877	3.07
489.311	3.09
489.745	3.11
490.179	3.13
490.613	3.16
491.046	3.19
491.48	3.22
491.914	3.25
492.348	3.29
492.781	3.33
493.215	3.37
493.648	3.41
494.082	3.44
494.515	3.48
494.948	3.53
495.382	3.56
495.815	3.61
496.248	3.66
496.681	3.71
497.114	3.76
497.547	3.8
497.98	3.85
498.413	3.91
498.846	3.97
499.279	4.02
499.711	4.08
500.144	4.14
500.577	4.2
501.009	4.27
501.442	4.34
501.874	4.41
502.306	4.48
502.739	4.57
503.171	4.65
503.603	4.72
504.036	4.8
504.468	4.88
504.9	4.96
505.332	5.05
505.764	5.14
506.196	5.22
506.627	5.31
507.059	5.4
507.491	5.48
507.923	5.57
508.354	5.68
508.786	5.77
509.217	5.88
509.649	5.98
510.08	6.08
510.512	6.18
510.943	6.29
511.374	6.39
511.805	6.49
512.237	6.6
512.668	6.7
513.099	6.79
513.53	6.89
513.961	6.99
514.391	7.09
514.822	7.2
515.253	7.29
515.684	7.39
516.114	7.49
516.545	7.59
516.975	7.69
517.406	7.78
517.836	7.87
518.267	7.97
518.697	8.06
519.127	8.14
519.558	8.22
519.988	8.31
520.418	8.38
520.848	8.45
521.278	8.51
521.708	8.76
522.138	8.84
522.567	8.89
522.997	8.94
523.427	9
523.857	9.06
524.286	9.12
524.716	9.16
525.145	9.21
525.575	9.26
526.004	9.31
526.433	9.18
526.863	9.21
527.292	9.26
527.721	9.3
528.15	9.34
528.579	9.37
529.008	9.4
529.437	9.44
529.866	9.46
530.295	9.49
530.724	9.51
531.152	9.54
531.581	9.56
532.01	9.58
532.438	9.6
532.867	9.62
533.295	9.64
533.723	9.65
534.152	9.68
534.58	9.7
535.008	9.71
535.436	9.73
535.865	9.73
536.293	9.74
536.721	9.75
537.149	9.77
537.576	9.78
538.004	9.8
538.432	9.8
538.86	9.81
539.287	9.82
539.715	9.84
540.143	9.85
540.57	9.87
540.998	9.88
541.425	9.89
541.852	9.89
542.28	9.9
542.707	9.9
543.134	9.91
543.561	9.92
543.988	9.93
544.415	9.93
544.842	9.94
545.269	9.95
545.696	9.96
546.123	9.97
546.549	9.98
546.976	10
547.403	10.01
547.829	10.02
548.256	10.04
548.682	10.05
549.108	10.07
549.535	10.09
549.961	10.1
550.387	10.12
550.813	10.14
551.24	10.15
551.666	10.15
552.092	10.16
552.518	10.19
552.943	10.19
553.369	10.21
553.795	10.21
554.221	10.22
554.646	10.24
555.072	10.25
555.498	10.26
555.923	10.28
556.349	10.29
556.774	10.29
557.199	10.3
557.625	10.32
558.05	10.34
558.475	10.35
558.9	10.36
559.325	10.38
559.75	10.38
560.175	10.38
560.6	10.38
561.025	10.39
561.449	10.38
561.874	10.38
562.299	10.37
562.723	10.36
563.148	10.35
563.572	10.34
563.997	10.32
564.421	10.31
564.846	10.3
565.27	10.29
565.694	10.28
566.118	10.28
566.542	10.27
566.966	10.27
567.39	10.26
567.814	10.25
568.238	10.24
568.662	10.23
569.086	10.22
569.509	10.21
569.933	10.21
570.357	10.2
570.78	10.19
571.204	10.19
571.627	10.18
572.05	10.18
572.474	10.2
572.897	10.19
573.32	10.19
573.743	10.2
574.166	10.2
574.589	10.19
575.012	10.2
575.435	10.2
575.858	10.19
576.281	10.19
576.704	10.19
577.126	10.18
577.549	10.19
577.972	10.19
578.394	10.19
578.817	10.21
579.239	10.23
579.661	10.23
580.084	10.25
580.506	10.27
580.928	10.28
581.35	10.29
581.772	10.3
582.194	10.31
582.616	10.34
583.038	10.35
583.46	10.34
583.882	10.34
584.303	10.34
584.725	10.34
585.147	10.37
585.568	10.39
585.99	10.41
586.411	10.43
586.833	10.44
587.254	10.44
587.675	10.45
588.096	10.48
588.518	10.49
588.939	10.53
589.36	10.53
589.781	10.53
590.202	10.55
590.623	10.57
591.043	10.58
591.464	10.6
591.885	10.62
592.305	10.65
592.726	10.68
593.147	10.7
593.567	10.71
593.987	10.74
594.408	10.77
594.828	10.79
595.248	10.81
595.669	10.84
596.089	10.86
596.509	10.89
596.929	10.92
597.349	10.94
597.769	10.97
598.189	11.01
598.608	11.05
599.028	11.08
599.448	11.11
599.867	11.15
600.287	11.19
600.706	11.24
601.126	11.27
601.545	11.31
601.965	11.34
602.384	11.38
602.803	11.41
603.222	11.43
603.641	11.47
604.061	11.51
604.48	11.53
604.898	11.56
605.317	11.6
605.736	11.63
606.155	11.65
606.574	11.67
606.992	11.69
607.411	11.72
607.829	11.72
608.248	11.74
608.666	11.76
609.085	11.78
609.503	11.8
609.921	11.82
610.339	11.84
610.758	11.85
611.176	11.86
611.594	11.88
612.012	11.9
612.43	11.93
612.847	11.95
613.265	11.96
613.683	11.97
614.101	11.98
614.518	11.98
614.936	12
615.353	12.01
615.771	12.03
616.188	12.06
616.606	12.07
617.023	12.09
617.44	12.12
617.857	12.14
618.274	12.16
618.691	12.17
619.108	12.2
619.525	12.22
619.942	12.25
620.359	12.28
620.776	12.3
621.192	12.33
621.609	12.36
622.026	12.38
622.442	12.42
622.859	12.45
623.275	12.5
623.691	12.53
624.108	12.56
624.524	12.59
624.94	12.63
625.356	12.68
625.772	12.72
626.188	12.76
626.604	12.81
627.02	12.86
627.436	12.9
627.852	12.94
628.268	12.98
628.683	13.01
629.099	13.04
629.514	13.06
629.93	13.08
630.345	13.09
630.761	13.1
631.176	13.11
631.591	13.1
632.007	13.09
632.422	13.07
632.837	13.05
633.252	13.02
633.667	12.98
634.082	12.94
634.497	12.88
634.911	12.81
635.326	12.73
635.741	12.64
636.155	12.56
636.57	12.47
636.984	12.38
637.399	12.26
637.813	12.13
638.228	12
638.642	11.86
639.056	11.71
639.47	11.57
639.884	11.43
640.298	11.27
640.712	11.1
641.126	10.94
641.54	10.77
641.954	10.61
642.368	10.45
642.781	10.31
643.195	10.15
643.609	10.01
644.022	9.87
644.436	9.73
644.849	9.59
645.262	9.47
645.676	9.35
646.089	9.24
646.502	9.14
646.915	9.05
647.328	8.97
647.741	8.9
648.154	8.82
648.567	8.77
648.98	8.71
649.393	8.66
649.805	8.62
650.218	8.58
650.631	8.55
651.043	8.5
651.456	8.47
651.868	8.44
652.28	8.4
652.693	8.36
653.105	8.32
653.517	8.29
653.929	8.24
654.341	8.18
654.753	8.12
655.165	8.06
655.577	8
655.989	7.93
656.401	7.85
656.813	7.77
657.224	7.69
657.636	7.59
658.047	7.5
658.459	7.4
658.87	7.31
659.282	7.2
659.693	7.09
660.104	6.97
660.515	6.86
660.926	6.75
661.338	6.63
661.749	6.52
662.159	6.4
662.57	6.3
662.981	6.19
663.392	6.09
663.803	5.98
664.213	5.88
664.624	5.79
665.035	5.69
665.445	5.61
665.855	5.52
666.266	5.46
666.676	5.39
667.086	5.31
667.497	5.25
667.907	5.19
668.317	5.13
668.727	5.09
669.137	5.04
669.547	5
669.956	4.97
670.366	4.94
670.776	4.9
671.186	4.87
671.595	4.84
672.005	4.82
672.414	4.81
672.824	4.8
673.233	4.79
673.642	4.79
674.052	4.79
674.461	4.79
674.87	4.8
675.279	4.82
675.688	4.85
676.097	4.87
676.506	4.91
676.915	4.95
677.323	4.99
677.732	5.03
678.141	5.09
678.549	5.16
678.958	5.25
679.366	5.34
679.775	5.44
680.183	5.56
680.592	5.71
681	5.87
681.408	6.06
681.816	6.27
682.224	6.51
682.632	6.77
683.04	7.06
683.448	7.37
683.856	7.71
684.264	8.1
684.671	8.51
685.079	8.96
685.487	9.45
685.894	9.97
686.302	10.52
686.709	11.1
687.116	11.71
687.524	12.36
687.931	13.04
688.338	13.72
688.745	14.42
689.152	15.12
689.559	15.86
689.966	16.59
690.373	17.32
690.78	18.07
691.187	18.81
691.593	19.55
692	20.26
692.407	20.96
692.813	21.69
693.22	22.39
693.626	23.1
694.032	23.8
694.439	24.47
694.845	25.13
695.251	25.77
695.657	26.38
696.063	27.01
696.469	27.62
696.875	28.23
697.281	28.78
697.687	29.34
698.093	29.86
698.498	30.36
698.904	30.85
699.31	31.32
699.715	31.8
700.12	32.26
700.526	32.69
700.931	33.11
701.337	33.48
701.742	33.86
702.147	34.23
702.552	34.6
702.957	34.94
703.362	35.28
703.767	35.59
704.172	35.89
704.577	36.21
704.981	36.49
705.386	36.78
705.791	37.08
706.195	37.36
706.6	37.64
707.004	37.87
707.408	38.1
707.813	38.34
708.217	38.55
708.621	38.77
709.025	38.95
709.43	39.15
709.834	39.36
710.237	39.54
710.641	39.75
711.045	39.93
711.449	40.15
711.853	40.36
712.256	40.52
712.66	40.7
713.064	40.87
713.467	41.08
713.87	41.24
714.274	41.37
714.677	41.52
715.08	41.64
715.484	41.77
715.887	41.92
716.29	42.04
716.693	42.2
717.096	42.34
717.499	42.47
717.901	42.57
718.304	42.69
718.707	42.82
719.109	42.95
719.512	43.08
719.915	43.21
720.317	43.28
720.719	43.36
721.122	43.46
721.524	43.56
721.926	43.66
722.328	43.76
722.731	43.86
723.133	43.97
723.535	44.07
723.937	44.14
724.338	44.19
724.74	44.27
725.142	44.46
725.544	44.51
725.945	44.6
726.347	44.64
726.748	44.7
727.15	44.73
727.551	44.78
727.952	44.82
728.354	44.87
728.755	44.93
729.156	44.97
729.557	44.9
729.958	44.97
730.359	45
730.76	45.07
731.161	45.11
731.562	45.2
731.962	45.22
732.363	45.28
732.763	45.32
733.164	45.35
733.564	45.4
733.965	45.48
734.365	45.52
734.766	45.53
735.166	45.57
735.566	45.62
735.966	45.63
736.366	45.66
736.766	45.67
737.166	45.7
737.566	45.74
737.966	45.76
738.365	45.76
738.765	45.79
739.165	45.84
739.564	45.85
739.964	45.86
740.363	45.87
740.763	45.91
741.162	45.96
741.561	45.97
741.96	45.97
742.36	45.98
742.759	46.01
743.158	46.01
743.557	45.99
743.955	46
744.354	46.04
744.753	46.08
745.152	46.1
745.55	46.1
745.949	46.11
746.348	46.14
746.746	46.14
747.144	46.16
747.543	46.15
747.941	46.17
748.339	46.17
748.737	46.17
749.136	46.15
749.534	46.12
749.932	46.12
750.33	46.12
750.727	46.15
751.125	46.15
751.523	46.14
751.921	46.15
752.318	46.18
752.716	46.17
753.113	46.17
753.511	46.18
753.908	46.22
754.305	46.24
754.703	46.23
755.1	46.23
755.497	46.25
755.894	46.26
756.291	46.28
756.688	46.25
757.085	46.29
757.482	46.28
757.878	46.27
758.275	46.27
758.672	46.28
759.068	46.32
759.465	46.31
759.861	46.32
760.258	46.32
760.654	46.31
761.05	46.33
761.447	46.32
761.843	46.32
762.239	46.34
762.635	46.34
763.031	46.31
763.427	46.28
763.822	46.27
764.218	46.29
764.614	46.29
765.01	46.28
765.405	46.28
765.801	46.29
766.196	46.3
766.592	46.3
766.987	46.31
767.382	46.31
767.778	46.31
768.173	46.34
768.568	46.32
768.963	46.31
769.358	46.33
769.753	46.34
770.148	46.33
770.542	46.33
770.937	46.31
771.332	46.28
771.726	46.27
772.121	46.29
772.515	46.26
772.91	46.24
773.304	46.25
773.699	46.22
774.093	46.19
774.487	46.17
774.881	46.19
775.275	46.18
775.669	46.18
776.063	46.19
776.457	46.19
776.851	46.17
777.245	46.15
777.638	46.15
778.032	46.17
778.425	46.21
778.819	46.24
779.212	46.26
779.606	46.27
779.999	46.27
780.392	46.28
780.786	46.29
781.179	46.34
781.572	46.39
781.965	46.41
782.358	46.43
782.751	46.41
783.143	46.39
783.536	46.38
783.929	46.38
784.322	46.38
784.714	46.39
785.107	46.39
785.499	46.37
785.891	46.34
786.284	46.33
786.676	46.31
787.068	46.32
787.46	46.35
787.852	46.36
788.245	46.32
788.636	46.29
789.028	46.29
789.42	46.3
789.812	46.29
790.204	46.3
790.595	46.3
790.987	46.31
791.378	46.33
791.77	46.3
792.161	46.28
792.553	46.32
792.944	46.34
793.335	46.36
793.726	46.35
794.117	46.33
794.508	46.3
794.899	46.26
795.29	46.25
795.681	46.18
796.072	46.18
796.463	46.23
796.853	46.22
797.244	46.21
797.634	46.18
798.025	46.2
798.415	46.2
798.806	46.21
799.196	46.23
799.586	46.24
799.976	46.27
800.366	46.26
800.756	46.19
801.146	46.18
801.536	46.19
801.926	46.16
802.316	46.15
802.706	46.15
803.095	46.17
803.485	46.15
803.874	46.14
804.264	46.12
804.653	46.12
805.043	46.15
805.432	46.13
805.821	46.13
806.21	46.16
806.599	46.15
806.988	46.14
807.377	46.11
807.766	46.11
808.155	46.07
808.544	46.08
808.933	46.07
809.321	46.07
809.71	46.05
810.098	46.02
810.487	45.99
810.875	45.96
811.264	45.96
811.652	45.96
812.04	45.95
812.428	45.99
812.816	45.96
813.204	45.94
813.592	45.9
813.98	45.91
814.368	45.92
814.756	45.89
815.144	45.87
815.531	45.84
815.919	45.81
816.306	45.79
816.694	45.77
817.081	45.77
817.469	45.77
817.856	45.79
818.243	45.76
818.63	45.74
819.017	45.73
819.404	45.74
819.791	45.75
820.178	45.75
820.565	45.73
820.952	45.71
821.339	45.71
821.725	45.7
822.112	45.69
822.498	45.7
822.885	45.7
823.271	45.68
823.657	45.63
824.044	45.62
824.43	45.63
824.816	45.63
825.202	45.62
825.588	45.62
825.974	45.6
826.36	45.57
826.746	45.54
827.132	45.52
827.517	45.55
827.903	45.59
828.289	45.59
828.674	45.56
829.06	45.54
829.445	45.53
829.83	45.51
830.216	45.5
830.601	45.51
830.986	45.52
831.371	45.5
831.756	45.5
832.141	45.5
832.526	45.51
832.911	45.51
833.295	45.51
833.68	45.51
834.065	45.5
834.449	45.5
834.834	45.49
835.218	45.48
835.603	45.48
835.987	45.45
836.371	45.42
836.755	45.38
837.139	45.37
837.524	45.38
837.908	45.39
838.291	45.4
838.675	45.39
839.059	45.39
839.443	45.39
839.827	45.36
840.21	45.36
840.594	45.38
840.977	45.39
841.361	45.39
841.744	45.37
842.127	45.34
842.511	45.32
842.894	45.3
843.277	45.29
843.66	45.26
844.043	45.28
844.426	45.26
844.809	45.23
845.191	45.23
845.574	45.22
845.957	45.23
846.339	45.24
846.722	45.25
847.104	45.27
847.487	45.26
847.869	45.26
848.252	45.26
848.634	45.25
849.016	45.27
849.398	45.23
849.78	45.23
850.162	45.2
850.544	45.17
850.926	45.16
851.307	45.15
851.689	45.17
852.071	45.18
852.452	45.16
852.834	45.16
853.215	45.15
853.597	45.17
853.978	45.18
854.359	45.18
854.741	45.15
855.122	45.13
855.503	45.12
855.884	45.07
856.265	45.06
856.646	45.05
857.026	45.07
857.407	45.06
857.788	45.03
858.169	45.04
858.549	45.04
858.93	45.05
859.31	45.06
859.69	45.07
860.071	45.1
860.451	45.1
860.831	45.1
861.211	45.07
861.591	45.08
861.971	45.08
862.351	45.07
862.731	45.08
863.111	45.07
863.491	45.07
863.87	45.04
864.25	45
864.629	45.01
865.009	45.01
865.388	44.98
865.768	44.96
866.147	44.94
866.526	44.94
866.905	44.93
867.284	44.93
867.663	44.9
868.042	44.91
868.421	44.94
868.8	44.91
869.179	44.92
869.558	44.95
869.936	44.94
870.315	44.95
870.693	44.94
871.072	44.94
871.45	44.95
871.828	44.96
872.207	44.96
872.585	44.93
872.963	44.92
873.341	44.89
873.719	44.89
874.097	44.88
874.475	44.91
874.853	44.9
875.23	44.92
875.608	44.9
875.986	44.91
876.363	44.93
876.741	44.93
877.118	44.97
877.495	44.97
877.873	44.97
878.25	45.02
878.627	44.99
879.004	45
879.381	44.98
879.758	44.97
880.135	44.95
880.512	44.93
880.889	44.92
881.265	44.89
881.642	44.89
882.019	44.89
882.395	44.85
882.772	44.86
883.148	44.84
883.524	44.84
883.901	44.83
884.277	44.83
884.653	44.82
885.029	44.82
885.405	44.83
885.781	44.84
886.157	44.83
886.532	44.85
886.908	44.83
887.284	44.81
887.659	44.79
888.035	44.78
888.411	44.79
888.786	44.79
889.161	44.79
889.537	44.77
889.912	44.75
890.287	44.73
890.662	44.71
891.037	44.7
891.412	44.71
891.787	44.69
892.162	44.7
892.536	44.67
892.911	44.65
893.286	44.64
893.66	44.64
894.035	44.63
894.409	44.6
894.784	44.59
895.158	44.58
895.532	44.59
895.906	44.58
896.281	44.56
896.655	44.56
897.029	44.55
897.402	44.55
897.776	44.55
898.15	44.56
898.524	44.6
898.898	44.61
899.271	44.62
899.645	44.62
900.018	44.65
900.392	44.66
900.765	44.68
901.138	44.68
901.511	44.69
901.884	44.7
902.258	44.69
902.631	44.69
903.003	44.7
903.376	44.68
903.749	44.66
904.122	44.66
904.495	44.69
904.867	44.69
905.24	44.72
905.612	44.73
905.985	44.73
906.357	44.74
906.729	44.75
907.102	44.76
907.474	44.8
907.846	44.8
908.218	44.8
908.59	44.8
908.962	44.81
909.334	44.81
909.705	44.78
910.077	44.79
910.449	44.79
910.82	44.79
911.192	44.78
911.563	44.77
911.935	44.76
912.306	44.76
912.677	44.78
913.048	44.78
913.419	44.76
913.79	44.79
914.161	44.83
914.532	44.82
914.903	44.81
915.274	44.81
915.645	44.82
916.015	44.85
916.386	44.82
916.756	44.79
917.127	44.79
917.497	44.82
917.868	44.81
918.238	44.77
918.608	44.77
918.978	44.77
919.348	44.77
919.718	44.73
920.088	44.74
920.458	44.79
920.828	44.78
921.198	44.75
921.567	44.72
921.937	44.75
922.306	44.74
922.676	44.73
923.045	44.73
923.415	44.72
923.784	44.75
924.153	44.75
924.522	44.72
924.891	44.73
925.26	44.74
925.629	44.73
925.998	44.71
926.367	44.71
926.736	44.73
927.104	44.75
927.473	44.72
927.842	44.7
928.21	44.71
928.578	44.72
928.947	44.74
929.315	44.71
929.683	44.7
930.051	44.64
930.42	44.64
930.788	44.6
931.156	44.57
931.523	44.58
931.891	44.6
932.259	44.56
932.627	44.55
932.994	44.55
933.362	44.55
933.729	44.58
934.097	44.6
934.464	44.62
934.831	44.64
935.199	44.65
935.566	44.65
935.933	44.59
936.3	44.61
936.667	44.6
937.034	44.57
937.401	44.57
937.767	44.51
938.134	44.46
938.501	44.46
938.867	44.44
939.234	44.41
939.6	44.4
939.967	44.37
940.333	44.26
940.699	44.24
941.065	44.14
941.431	44.08
941.798	44.04
942.163	44.04
942.529	43.92
942.895	43.88
943.261	43.83
943.627	43.75
943.992	43.72
944.358	43.73
944.723	43.64
945.089	43.59
945.454	43.63
945.82	43.62
946.185	43.61
946.55	43.55
946.915	43.52
947.28	43.47
947.645	43.48
948.01	43.51
948.375	43.48
948.74	43.48
949.104	43.53
949.469	43.49
949.834	43.49
950.198	43.45
950.562	43.45
950.927	43.46
951.291	43.46
951.655	43.47
952.02	43.47
952.384	43.47
952.748	43.5
953.112	43.46
953.476	43.46
953.839	43.46
954.203	43.48
954.567	43.52
954.931	43.46
955.294	43.44
955.658	43.45
956.021	43.38
956.385	43.38
956.748	43.35
957.111	43.35
957.474	43.37
957.837	43.31
958.2	43.33
958.563	43.28
958.926	43.3
959.289	43.37
959.652	43.38
960.015	43.45
960.377	43.43
960.74	43.44
961.102	43.47
961.465	43.52
961.827	43.62
962.189	43.64
962.552	43.71
962.914	43.74
963.276	43.76
963.638	43.79
964	43.78
964.362	43.81
964.724	43.8
965.085	43.8
965.447	43.77
965.809	43.76
966.17	43.74
966.532	43.7
966.893	43.69
967.255	43.71
967.616	43.65
967.977	43.67
968.338	43.7
968.699	43.81
969.061	43.84
969.421	43.87
969.782	43.86
970.143	43.91
970.504	43.98
970.865	44.05
971.225	43.98
971.586	44.06
971.946	44.03
972.307	44.02
972.667	43.99
973.027	44
973.388	43.99
973.748	44.03
974.108	44.08
974.468	44.06
974.828	44.07
975.188	44.15
975.548	44.15
975.907	44.19
976.267	44.25
976.627	44.33
976.986	44.31
977.346	44.29
977.705	44.21
978.064	44.2
978.424	44.23
978.783	44.18
979.142	44.2
979.501	44.24
979.86	44.28
980.219	44.21
980.578	44.19
980.937	44.23
981.296	44.23
981.654	44.31
982.013	44.25
982.371	44.22
982.73	44.25
983.088	44.21
983.447	44.18
983.805	44.21
984.163	44.26
984.521	44.16
984.879	44.06
985.237	44.13
985.595	44.2
985.953	44.19
986.311	44.17
986.669	44.17
987.026	44.22
987.384	44.21
987.741	44.18
988.099	44.26
988.456	44.26
988.814	44.41
989.171	44.31
989.528	44.23
989.885	44.23
990.242	44.31
990.599	44.33
990.956	44.36
991.313	44.39
991.67	44.42
992.027	44.47
992.383	44.52
992.74	44.59
993.096	44.73
993.453	44.75
993.809	44.82
994.165	44.89
994.522	45.01
994.878	44.95
995.234	44.95
995.59	44.92
995.946	44.84
996.302	44.88
996.658	44.86
997.013	44.9
997.369	44.99
997.725	45.05
998.08	45.13
998.436	45.02
998.791	45.13
999.147	45.16
999.502	45.26
999.857	45.26
1000.212	45.2
1000.567	45.3
1000.922	45.18
1001.277	45.17
1001.632	45.01
1001.987	45.01
1002.342	44.99
1002.696	44.91
1003.051	44.95
1003.406	44.98
1003.76	45.07
1004.114	45.05
1004.469	44.95
1004.823	45.27
1005.177	45.19
1005.531	45.52
1005.885	45.45
1006.239	45.51
1006.593	45.67
1006.947	45.62
1007.301	45.41
1007.655	45.35
1008.008	45.64
1008.362	45.6
1008.715	45.4
1009.069	45.49
1009.422	45.34
1009.776	45.24
1010.129	45.19
1010.482	45.08
1010.835	45.19
1011.188	45.28
1011.541	45.2
1011.894	45.04
1012.247	45.17
1012.6	45.33
1012.952	45.15
1013.305	45.21
1013.657	45.45
1014.01	45.52
1014.362	45.61
1014.715	45.6
1015.067	45.68
1015.419	46.04
1015.771	46.03
1016.123	46.04
1016.475	45.88
1016.827	46.06
1017.179	46.07
1017.531	45.91
1017.883	45.93
1018.234	46.19
1018.586	46.3
1018.938	46.5
1019.289	46.35
1019.64	46.46
1019.992	46.33
1020.343	46.37
1020.694	46.47
1021.045	46.49
1021.396	46.45
1021.747	46.66
1022.098	46.44
1022.449	46.31
1022.8	46.24
1023.151	46.07
1023.501	46.09
1023.852	46.21
1024.202	45.97
1024.553	45.93
1024.903	45.93
1025.253	46.17
1025.604	45.89
1025.954	45.57
1026.304	45.74
1026.654	45.66
1027.004	45.66
1027.354	45.48
1027.703	45.37
1028.053	45.71
1028.403	45.74
1028.753	45.52
1029.102	45.34
1029.452	45.34
1029.801	45.53
1030.15	45.26
1030.499	45.19
897.758	1241.66
901.051	1251.8
904.343	1244.58
907.636	1268.74
910.928	1236.77
914.22	1237
917.511	1219.86
920.803	1169.1
924.094	1160.9
927.384	1134.22
930.675	1088.34
933.965	1082.75
937.255	1018.37
940.544	980.56
943.834	933.93
947.123	925.77
950.411	870.75
953.7	853.03
956.988	806.85
960.276	773.48
963.563	762.3
966.851	736.44
970.138	728.75
973.424	705.99
976.711	709.18
979.997	672.55
983.283	669.17
986.568	655.02
989.853	636.35
993.138	624.04
996.423	601.28
999.708	581.76
1002.992	575.48
1006.275	549.37
1009.559	545.56
1012.842	524.05
1016.125	511.94
1019.408	502.22
1022.69	494.81
1025.972	484.13
1029.254	472.3
1032.536	465.38
1035.817	456.06
1039.098	450.79
1042.379	442.62
1045.659	436.38
1048.939	427.14
1052.219	417.24
1055.498	411.66
1058.778	401.8
1062.057	392.88
1065.335	388.98
1068.614	384.03
1071.892	380.74
1075.17	367.78
1078.447	360.49
1081.724	357.59
1085.001	355.5
1088.278	347.83
1091.554	340.34
1094.83	340.94
1098.106	337.94
1101.382	335.72
1104.657	333.39
1107.932	327.62
1111.206	329.43
1114.481	321.62
1117.755	318.77
1121.029	315.33
1124.302	315.9
1127.575	309.2
1130.848	305.56
1134.121	301.79
1137.393	299.58
1140.665	292.46
1143.937	290.97
1147.208	288.93
1150.48	287.64
1153.75	283.49
1157.021	279.83
1160.291	279.06
1163.561	276.25
1166.831	276.08
1170.101	274.47
1173.37	273.16
1176.639	274.3
1179.907	271.56
1183.176	268.01
1186.444	268.29
1189.711	268.03
1192.979	266.82
1196.246	265.17
1199.513	266.3
1202.78	264.4
1206.046	264.4
1209.312	262.44
1212.578	262.11
1215.843	265.23
1219.108	263.73
1222.373	268.83
1225.638	271.07
1228.902	275.19
1232.166	275.02
1235.43	277.44
1238.693	281.34
1241.956	282.68
1245.219	287.22
1248.482	288.15
1251.744	286.51
1255.006	288.29
1258.268	280.8
1261.529	278.16
1264.79	276.01
1268.051	275.97
1271.312	270.85
1274.572	268.74
1277.832	265.67
1281.092	261.5
1284.351	259.33
1287.61	259.28
1290.869	255.14
1294.128	254.27
1297.386	253.92
1300.644	251.08
1303.902	251.28
1307.159	250.54
1310.416	250.24
1313.673	250.41
1316.93	252.36
1320.186	252.06
1323.442	252.92
1326.697	256.96
1329.953	257.57
1333.208	258.18
1336.463	261.48
1339.717	261.54
1342.972	265.05
1346.226	267.25
1349.479	267.71
1352.733	268.92
1355.986	271.79
1359.238	271.44
1362.491	273.17
1365.743	275.49
1368.995	275.73
1372.247	274.86
1375.498	274.43
1378.749	277.03
1382	273.04
1385.251	273.7
1388.501	272.26
1391.751	271.3
1395	270.43
1398.25	268.26
1401.499	266.56
1404.748	266.27
1407.996	264.39
1411.244	263.21
1414.492	261.83
1417.74	259.34
1420.987	255.56
1424.234	255
1427.481	252.04
1430.728	251.7
1433.974	249.37
1437.22	246.68
1440.465	246.07
1443.711	243.98
1446.956	242.1
1450.201	238.52
1453.445	236.87
1456.689	235.82
1459.933	232.28
1463.177	230.2
1466.42	225.98
1469.663	223.17
1472.906	222.56
1476.148	216.47
1479.391	213.64
1482.633	212.06
1485.874	208.58
1489.115	206.67
1492.356	204.89
1495.597	203.58
1498.838	200.71
1502.078	199.96
1505.318	199.03
1508.557	198.16
1511.797	198.16
1515.036	196.58
1518.274	196.22
1521.513	194.42
1524.751	194.06
1527.989	192.89
1531.227	192.15
1534.464	192.14
1537.701	190.77
1540.938	190.17
1544.174	188.46
1547.41	188.44
1550.646	187.07
1553.882	186.73
1557.117	185.3
1560.352	184.42
1563.587	183.57
1566.821	182.23
1570.055	181.01
1573.289	179.03
1576.523	179.25
1579.756	177.3
1582.989	175.4
1586.222	175.81
1589.454	174.68
1592.686	175.72
1595.918	174.71
1599.15	174.59
1602.381	174.94
1605.612	174.32
1608.843	175.49
1612.073	174.33
1615.303	175.69
1618.533	175.77
1621.762	176.04
1624.992	176.02
1628.221	175.47
1631.449	175.17
1634.678	174.67
1637.906	175.69
1641.134	175.41
1644.361	175.3
1647.588	175.92
1650.815	175.13
1654.042	174.6
1657.269	175.52
1660.495	175.71
1663.72	175.28
1666.946	176.02
1670.171	176.59
1673.396	175.8
1676.621	176.26
1679.845	175.9
1683.069	176.17
1686.293	177.66
1689.517	179.02
1692.74	178.34
1695.963	178.46
1699.185	180.22
1702.408	180.09
1705.63	180.93
1708.852	181.73
1712.073	181.76
1715.294	182.88
1718.515	183.88
1721.736	183.01
1724.956	183.21
1728.176	183.36
1731.396	184.93
1734.616	184.05
1737.835	185.26
1741.054	183.16
1744.272	184.03
1747.491	185.87
1750.709	186.16
1753.927	185.71
1757.144	185.94
1760.361	186.62
1763.578	187.08
1766.795	186.58
1770.011	188.21
1773.227	188.02
1776.443	190.69
1779.658	191.36
1782.874	190.63
1786.089	191.55
1789.303	192.25
1792.518	194.15
1795.732	194.38
1798.945	195.78
1802.159	196.02
1805.372	196.45
1808.585	199.93
1811.797	201.41
1815.01	201.22
1818.222	203.28
1821.434	203.92
1824.645	205.27
1827.856	208.51
1831.067	210.05
1834.278	209.29
1837.488	211.6
1840.698	213.35
1843.908	211.12
1847.117	211.85
1850.326	213.44
1853.535	212.58
1856.744	216.68
1859.952	215.84
1863.16	214.29
1866.368	213.18
1869.575	216.49
1872.782	213.3
1875.989	212.24
1879.196	212
1882.402	211.2
1885.608	211.68
1888.814	212.85
1892.019	211.94
1895.224	211.54
1898.429	210.99
1901.634	212.74
1904.838	212.37
1908.042	214.82
1911.246	215.71
1914.449	217.6
1917.652	216.76
1920.855	217.09
1924.058	216.3
1927.26	215.45
1930.462	216.7
1933.664	219.25
1936.865	217.05
1940.066	217.33
1943.267	215.56
1946.467	215.74
1949.668	216.8
1952.868	219.6
1956.067	219.34
1959.267	220.68
1962.466	221.45
1965.665	220.06
1968.863	220.71
1972.061	223.58
1975.259	225.14
1978.457	227.97
1981.654	229.02
1984.852	229.18
1988.048	229.16
1991.245	230.9
1994.441	233.27
1997.637	234.48
2000.833	239.69
2004.028	242.75
2007.223	244.62
2010.418	247.33
2013.613	250.82
2016.807	254.07
2020.001	256.08
2023.194	259.85
2026.388	265.94
2029.581	271.85
2032.774	274.22
2035.966	278.98
2039.158	279.35
2042.35	284.81
2045.542	285.65
2048.733	290.56
2051.924	294.29
2055.115	300.56
2058.306	301.11
2061.496	303.41
2064.686	302.58
2067.875	308.38
2071.065	309.24
2074.254	307.26
2077.442	310.72
2080.631	313.7
2083.819	315.66
2087.007	316.5
2090.195	318.44
2093.382	321.2
2096.569	319.8
2099.756	324.94
2102.942	326.07
2106.128	329.15
2109.314	337.43
2112.5	335.54
2115.685	341.83
2118.87	342.82
2122.055	349.06
2125.239	351.82
2128.424	356.31
2131.608	358.3
2134.791	363.09
2137.974	364.71
2141.157	365.41
2144.34	366.25
2147.523	371.93
2150.705	369.43
2153.887	373.81
2157.068	374.5
2160.25	371.58
2163.431	372.54
2166.611	377.97
2169.792	383.58
2172.972	387.94
2176.152	390.04
2179.331	394.88
2182.511	402.11
2185.69	406.47
2188.868	414.51
2192.047	416.26
2195.225	428.78
2198.403	439.82
2201.58	448.01
2204.758	457.01
2207.935	465.57
2211.111	476.37
2214.288	481.27
2217.464	481.85
2220.64	490.93
2223.815	497.5
2226.991	516.7
2230.166	516.08
2233.34	525.66
2236.515	534.24
2239.689	535.96
2242.863	539.9
2246.036	554.27
2249.209	552.42
2252.382	561.35
2255.555	577.49
2258.727	578.68
2261.9	583.84
2265.071	591.39
2268.243	600.04
2271.414	606.22
2274.585	620.13
2277.756	625.92
2280.926	631.4
2284.096	645.51
2287.266	661.19
2290.436	665.42
2293.605	681.03
2296.774	699.99
2299.942	721.17
2303.111	726.02
2306.279	742.49
2309.447	752.96
2312.614	770.97
2315.781	791.73
2318.948	827.06
2322.115	816.23
2325.281	859.52
2328.447	843.04
2331.613	877.51
2334.779	866.94
2337.944	905.29
2341.109	915.14
2344.274	939.71
2347.438	976.16
2350.602	975.19
2353.766	1008.19
2356.929	1022.83
2360.092	1016.22
2363.255	1088.19
2366.418	1085.69
2369.58	1109.58
2372.742	1178.77
2375.904	1207.75
2379.066	1200.85
2382.227	1176.76
2385.388	1276.73
2388.548	1271.53
2391.709	1288.87
2394.869	1436.26
2398.029	1373.78
2401.188	1412.03
2404.347	1403.95
2407.506	1383
2410.665	1421.73
2413.823	1503.1
2416.981	1593.75
2420.139	1543.67
2423.296	1530.13
2426.453	1595.75
2429.61	1536.32
2432.767	1607.94
2435.923	1594.13
2439.079	1738.44
2442.235	1757.15
2445.391	1741.71
2448.546	1731.83
2451.701	1675.56
2454.855	1671
2458.009	1775.54
2461.163	1850.72
2464.317	1915.31
2467.471	1967.49
2470.624	1966.59
2473.777	1923.65
2476.929	1872.22
2480.082	1817.71
2483.234	1802.1
2486.385	1896.73
2489.537	1904.75
2492.688	1972.23
2495.839	1918.87
2498.989	1878.46
2502.14	1889.05
2505.29	1907.24
2508.439	1932.51
2511.589	1932.45
2514.738	2109.79
2517.887	2060.06
2521.035	2177.85
2524.183	2199.81
2527.331	2217.27
2530.479	2201.88
2533.627	2220.81
