Data from C_2_DEC_ON_6N_Splice17_13-17-29-308.txt Node
Date: Sat Mar 07 13:17:29 EST 2020
User: sa697716
Spectrometer: NQ5500242
Trigger mode: 0
Integration Time (sec): 1.450000E-1
Scans to average: 20
Nonlinearity correction enabled: false
Boxcar width: 5
Storing dark spectrum: false
XAxis mode: Wavelengths
Number of Pixels in Spectrum: 512
>>>>>Begin Spectral Data<<<<<
187.83	162.46
188.298	166.39
188.766	130.66
189.233	121.21
189.701	123.84
190.169	142.79
190.636	135.62
191.104	181.65
191.571	94.98
192.039	-111.88
192.506	-659.27
192.974	197.35
193.441	196.53
193.908	-5.63
194.375	27.51
194.842	-47.49
195.31	-25.42
195.777	-321.37
196.244	27.03
196.711	42.2
197.177	45.41
197.644	46.34
198.111	44.53
198.578	45.36
199.045	45.59
199.511	45.43
199.978	45.87
200.445	46.02
200.911	46.36
201.378	46.01
201.844	45.89
202.31	45.29
202.777	45.23
203.243	45.49
203.709	44.8
204.176	44.75
204.642	44.48
205.108	44.2
205.574	43.85
206.04	43.24
206.506	43.14
206.972	42.96
207.438	42.83
207.903	42.11
208.369	41.09
208.835	40.52
209.301	39.53
209.766	38.54
210.232	37.25
210.697	36.04
211.163	34.87
211.628	33.9
212.094	32.93
212.559	32.2
213.024	31.37
213.49	30.73
213.955	29.86
214.42	29.19
214.885	28.39
215.35	27.34
215.815	26.03
216.28	24.31
216.745	22.39
217.21	20.36
217.675	18.45
218.14	16.87
218.604	15.51
219.069	14.37
219.534	13.35
219.998	12.53
220.463	11.92
220.927	11.3
221.392	10.85
221.856	10.46
222.32	10.16
222.785	9.87
223.249	9.61
223.713	9.38
224.177	9.2
224.642	9.02
225.106	8.82
225.57	8.59
226.034	8.44
226.497	8.27
226.961	8.1
227.425	7.94
227.889	7.79
228.353	7.66
228.816	7.52
229.28	7.37
229.744	7.24
230.207	7.13
230.671	7.02
231.134	6.91
231.597	6.83
232.061	6.72
232.524	6.62
232.987	6.54
233.45	6.45
233.914	6.36
234.377	6.28
234.84	6.2
235.303	6.13
235.766	6.07
236.229	6.01
236.691	5.94
237.154	5.89
237.617	5.84
238.08	5.78
238.542	5.72
239.005	5.67
239.468	5.61
239.93	5.56
240.393	5.52
240.855	5.45
241.317	5.38
241.78	5.33
242.242	5.26
242.704	5.21
243.166	5.16
243.629	5.11
244.091	5.06
244.553	5.01
245.015	4.96
245.477	4.9
245.939	4.86
246.4	4.81
246.862	4.76
247.324	4.72
247.786	4.67
248.247	4.62
248.709	4.56
249.17	4.5
249.632	4.47
250.093	4.43
250.555	4.39
251.016	4.36
251.477	4.32
251.939	4.29
252.4	4.26
252.861	4.22
253.322	4.19
253.783	4.16
254.244	4.15
254.705	4.11
255.166	4.08
255.627	4.05
256.088	4.02
256.549	4
257.009	3.97
257.47	3.94
257.931	3.9
258.391	3.87
258.852	3.84
259.312	3.81
259.773	3.78
260.233	3.76
260.694	3.73
261.154	3.7
261.614	3.68
262.074	3.65
262.534	3.62
262.994	3.59
263.455	3.57
263.915	3.55
264.374	3.52
264.834	3.5
265.294	3.47
265.754	3.46
266.214	3.43
266.673	3.41
267.133	3.4
267.593	3.39
268.052	3.38
268.512	3.36
268.971	3.35
269.431	3.33
269.89	3.32
270.349	3.31
270.809	3.3
271.268	3.29
271.727	3.28
272.186	3.27
272.645	3.26
273.104	3.25
273.563	3.24
274.022	3.24
274.481	3.23
274.94	3.22
275.399	3.21
275.857	3.2
276.316	3.19
276.775	3.18
277.233	3.17
277.692	3.16
278.15	3.16
278.609	3.15
279.067	3.14
279.525	3.14
279.984	3.14
280.442	3.13
280.9	3.13
281.358	3.13
281.816	3.13
282.274	3.13
282.732	3.12
283.19	3.12
283.648	3.11
284.106	3.11
284.564	3.11
285.021	3.1
285.479	3.1
285.937	3.09
286.394	3.09
286.852	3.07
287.309	3.07
287.767	3.05
288.224	3.04
288.682	3.03
289.139	3.01
289.596	3
290.053	2.97
290.511	2.95
290.968	2.94
291.425	2.92
291.882	2.91
292.339	2.89
292.796	2.88
293.252	2.88
293.709	2.87
294.166	2.86
294.623	2.86
295.079	2.85
295.536	2.84
295.992	2.84
296.449	2.83
296.905	2.82
297.362	2.81
297.818	2.8
298.274	2.79
298.731	2.79
299.187	2.78
299.643	2.77
300.099	2.78
300.555	2.77
301.011	2.77
301.467	2.77
301.923	2.76
302.379	2.76
302.835	2.77
303.291	2.77
303.746	2.76
304.202	2.76
304.658	2.76
305.113	2.76
305.569	2.75
306.024	2.76
306.479	2.75
306.935	2.75
307.39	2.75
307.845	2.75
308.301	2.75
308.756	2.75
309.211	2.75
309.666	2.75
310.121	2.75
310.576	2.76
311.031	2.76
311.486	2.77
311.94	2.77
312.395	2.76
312.85	2.77
313.305	2.77
313.759	2.77
314.214	2.77
314.668	2.77
315.123	2.77
315.577	2.77
316.032	2.76
316.486	2.75
316.94	2.74
317.394	2.74
317.849	2.72
318.303	2.71
318.757	2.7
319.211	2.69
319.665	2.67
320.119	2.67
320.572	2.65
321.026	2.65
321.48	2.64
321.934	2.63
322.387	2.63
322.841	2.62
323.295	2.62
323.748	2.62
324.202	2.61
324.655	2.61
325.108	2.61
325.562	2.61
326.015	2.6
326.468	2.61
326.921	2.61
327.374	2.6
327.827	2.61
328.28	2.61
328.733	2.6
329.186	2.6
329.639	2.61
330.092	2.6
330.545	2.6
330.997	2.6
331.45	2.6
331.903	2.61
332.355	2.62
332.808	2.62
333.26	2.61
333.713	2.62
334.165	2.61
334.617	2.61
335.069	2.6
335.522	2.61
335.974	2.61
336.426	2.6
336.878	2.59
337.33	2.59
337.782	2.59
338.234	2.6
338.686	2.6
339.137	2.61
339.589	2.6
340.041	2.6
340.493	2.59
340.944	2.58
341.396	2.57
341.847	2.57
342.299	2.56
342.75	2.54
343.201	2.52
343.653	2.51
344.104	2.49
344.555	2.48
345.006	2.48
345.457	2.47
345.908	2.47
346.359	2.46
346.81	2.46
347.261	2.45
347.712	2.45
348.163	2.45
348.613	2.45
349.064	2.46
349.515	2.46
349.965	2.46
350.416	2.45
350.866	2.45
351.317	2.44
351.767	2.45
352.217	2.45
352.668	2.45
353.118	2.45
353.568	2.44
354.018	2.45
354.468	2.45
354.918	2.46
355.368	2.47
355.818	2.47
356.268	2.48
356.718	2.47
357.168	2.47
357.617	2.46
358.067	2.47
358.517	2.49
358.966	2.5
359.416	2.5
359.865	2.5
360.315	2.5
360.764	2.51
361.213	2.52
361.663	2.52
362.112	2.54
362.561	2.56
363.01	2.56
363.459	2.55
363.908	2.55
364.357	2.55
364.806	2.55
365.255	2.56
365.703	2.57
366.152	2.58
366.601	2.6
367.05	2.61
367.498	2.62
367.947	2.63
368.395	2.65
368.844	2.67
369.292	2.68
369.74	2.7
370.189	2.72
370.637	2.73
371.085	2.73
371.533	2.75
371.981	2.76
372.429	2.78
372.877	2.8
373.325	2.81
373.773	2.82
374.221	2.84
374.669	2.86
375.116	2.87
375.564	2.9
376.012	2.92
376.459	2.93
376.907	2.95
377.354	2.97
377.801	3
378.249	3.03
378.696	3.06
379.143	3.08
379.591	3.11
380.038	3.14
380.485	3.16
380.932	3.19
381.379	3.22
381.826	3.24
382.273	3.26
382.72	3.27
383.166	3.29
383.613	3.3
384.06	3.32
384.506	3.35
384.953	3.37
385.4	3.39
385.846	3.43
386.292	3.44
386.739	3.47
387.185	3.49
387.631	3.53
388.078	3.54
388.524	3.57
388.97	3.6
389.416	3.63
389.862	3.67
390.308	3.69
390.754	3.72
391.2	3.75
391.645	3.77
392.091	3.81
392.537	3.84
392.983	3.86
393.428	3.89
393.874	3.91
394.319	3.92
394.765	3.92
395.21	3.93
395.655	3.94
396.101	3.97
396.546	3.98
396.991	4.01
397.436	4.01
397.881	4.04
398.326	4.05
398.771	4.07
399.216	4.09
399.661	4.11
400.106	4.12
400.551	4.12
400.995	4.11
401.44	4.13
401.885	4.12
402.329	4.13
402.774	4.13
403.218	4.15
403.663	4.15
404.107	4.15
404.551	4.15
404.995	4.16
405.44	4.16
405.884	4.17
406.328	4.17
406.772	4.16
407.216	4.16
407.66	4.17
408.104	4.15
408.547	4.14
408.991	4.15
409.435	4.14
409.879	4.14
410.322	4.15
410.766	4.16
411.209	4.17
411.653	4.19
412.096	4.2
412.54	4.2
412.983	4.22
413.426	4.26
413.869	4.26
414.312	4.28
414.756	4.29
415.199	4.28
415.642	4.27
416.085	4.27
416.527	4.27
416.97	4.25
417.413	4.25
417.856	4.23
418.298	4.2
418.741	4.2
419.184	4.19
419.626	4.19
420.069	4.19
420.511	4.2
420.953	4.2
421.396	4.21
421.838	4.22
422.28	4.22
422.722	4.23
423.164	4.25
423.606	4.25
424.048	4.26
424.49	4.26
424.932	4.26
425.374	4.24
425.816	4.22
426.258	4.2
426.699	4.19
427.141	4.19
427.582	4.2
428.024	4.2
428.465	4.21
428.907	4.2
429.348	4.19
429.789	4.18
430.231	4.2
430.672	4.23
431.113	4.26
431.554	4.27
431.995	4.28
432.436	4.29
432.877	4.3
433.318	4.31
433.759	4.35
434.2	4.38
434.64	4.41
435.081	4.43
435.522	4.44
435.962	4.45
436.403	4.49
436.843	4.51
437.284	4.51
437.724	4.52
438.164	4.52
438.604	4.53
439.045	4.53
439.485	4.54
439.925	4.54
440.365	4.55
440.805	4.57
441.245	4.58
441.685	4.59
442.125	4.63
442.564	4.64
443.004	4.66
443.444	4.67
443.883	4.69
444.323	4.7
444.762	4.72
445.202	4.75
445.641	4.77
446.081	4.78
446.52	4.78
446.959	4.8
447.398	4.82
447.837	4.84
448.276	4.86
448.716	4.88
449.154	4.91
449.593	4.92
450.032	4.93
450.471	4.94
450.91	4.95
451.349	4.97
451.787	4.97
452.226	4.98
452.664	4.97
453.103	4.97
453.541	4.97
453.98	4.98
454.418	4.96
454.856	4.96
455.295	4.97
455.733	4.95
456.171	4.94
456.609	4.93
457.047	4.92
457.485	4.92
457.923	4.91
458.361	4.91
458.798	4.9
459.236	4.9
459.674	4.89
460.111	4.88
460.549	4.9
460.987	4.9
461.424	4.92
461.862	4.93
462.299	4.93
462.736	4.93
463.173	4.93
463.611	4.94
464.048	4.96
464.485	4.97
464.922	4.96
465.359	4.96
465.796	4.97
466.233	4.97
466.67	4.97
467.106	4.99
467.543	4.99
467.98	4.98
468.416	4.97
468.853	4.96
469.29	4.94
469.726	4.96
470.162	4.94
470.599	4.93
471.035	4.92
471.471	4.92
471.907	4.9
472.344	4.9
472.78	4.9
473.216	4.9
473.652	4.9
474.088	4.9
474.523	4.9
474.959	4.89
475.395	4.89
475.831	4.88
476.266	4.89
476.702	4.87
477.138	4.86
477.573	4.86
478.008	4.86
478.444	4.85
478.879	4.86
479.314	4.85
479.75	4.84
480.185	4.83
480.62	4.82
481.055	4.8
481.49	4.82
481.925	4.82
482.36	4.82
482.795	4.82
483.229	4.83
483.664	4.83
484.099	4.83
484.534	4.84
484.968	4.86
485.403	4.86
485.837	4.88
486.271	4.91
486.706	4.92
487.14	4.93
487.574	4.95
488.009	4.97
488.443	4.99
488.877	5.03
489.311	5.07
489.745	5.1
490.179	5.15
490.613	5.19
491.046	5.22
491.48	5.26
491.914	5.31
492.348	5.36
492.781	5.42
493.215	5.47
493.648	5.53
494.082	5.59
494.515	5.65
494.948	5.72
495.382	5.78
495.815	5.85
496.248	5.94
496.681	6.03
497.114	6.1
497.547	6.18
497.98	6.28
498.413	6.37
498.846	6.47
499.279	6.57
499.711	6.67
500.144	6.8
500.577	6.91
501.009	7.02
501.442	7.14
501.874	7.28
502.306	7.42
502.739	7.56
503.171	7.72
503.603	7.86
504.036	8.01
504.468	8.18
504.9	8.33
505.332	8.51
505.764	8.7
506.196	8.88
506.627	9.07
507.059	9.27
507.491	9.47
507.923	9.67
508.354	9.91
508.786	10.14
509.217	10.37
509.649	10.61
510.08	10.85
510.512	11.09
510.943	11.33
511.374	11.59
511.805	11.85
512.237	12.11
512.668	12.38
513.099	12.65
513.53	12.92
513.961	13.21
514.391	13.5
514.822	13.79
515.253	14.08
515.684	14.37
516.114	14.66
516.545	14.96
516.975	15.26
517.406	15.55
517.836	15.83
518.267	16.13
518.697	16.4
519.127	16.68
519.558	16.96
519.988	17.24
520.418	17.52
520.848	17.8
521.278	18.06
521.708	18.39
522.138	18.65
522.567	18.91
522.997	19.15
523.427	19.4
523.857	19.65
524.286	19.87
524.716	20.1
525.145	20.33
525.575	20.53
526.004	20.76
526.433	20.9
526.863	21.09
527.292	21.29
527.721	21.48
528.15	21.65
528.579	21.81
529.008	21.98
529.437	22.12
529.866	22.25
530.295	22.39
530.724	22.51
531.152	22.64
531.581	22.75
532.01	22.87
532.438	22.98
532.867	23.09
533.295	23.2
533.723	23.3
534.152	23.37
534.58	23.47
535.008	23.54
535.436	23.63
535.865	23.69
536.293	23.76
536.721	23.82
537.149	23.88
537.576	23.93
538.004	23.99
538.432	24.04
538.86	24.09
539.287	24.12
539.715	24.18
540.143	24.21
540.57	24.24
540.998	24.28
541.425	24.3
541.852	24.35
542.28	24.37
542.707	24.39
543.134	24.42
543.561	24.45
543.988	24.49
544.415	24.5
544.842	24.52
545.269	24.55
545.696	24.57
546.123	24.6
546.549	24.62
546.976	24.65
547.403	24.68
547.829	24.7
548.256	24.71
548.682	24.71
549.108	24.74
549.535	24.77
549.961	24.78
550.387	24.78
550.813	24.78
551.24	24.78
551.666	24.75
552.092	24.74
552.518	24.74
552.943	24.72
553.369	24.71
553.795	24.67
554.221	24.66
554.646	24.6
555.072	24.57
555.498	24.53
555.923	24.49
556.349	24.44
556.774	24.38
557.199	24.3
557.625	24.24
558.05	24.16
558.475	24.08
558.9	23.98
559.325	23.91
559.75	23.82
560.175	23.72
560.6	23.61
561.025	23.52
561.449	23.41
561.874	23.29
562.299	23.15
562.723	23.02
563.148	22.89
563.572	22.76
563.997	22.61
564.421	22.45
564.846	22.3
565.27	22.14
565.694	22
566.118	21.85
566.542	21.69
566.966	21.54
567.39	21.4
567.814	21.25
568.238	21.1
568.662	20.95
569.086	20.81
569.509	20.66
569.933	20.52
570.357	20.35
570.78	20.19
571.204	20.05
571.627	19.92
572.05	19.76
572.474	19.64
572.897	19.51
573.32	19.39
573.743	19.26
574.166	19.15
574.589	19.02
575.012	18.92
575.435	18.82
575.858	18.71
576.281	18.6
576.704	18.5
577.126	18.4
577.549	18.3
577.972	18.19
578.394	18.1
578.817	18.01
579.239	17.93
579.661	17.84
580.084	17.76
580.506	17.69
580.928	17.62
581.35	17.53
581.772	17.44
582.194	17.36
582.616	17.29
583.038	17.22
583.46	17.13
583.882	17.04
584.303	16.96
584.725	16.89
585.147	16.82
585.568	16.75
585.99	16.69
586.411	16.61
586.833	16.54
587.254	16.47
587.675	16.4
588.096	16.34
588.518	16.28
588.939	16.22
589.36	16.15
589.781	16.08
590.202	16.02
590.623	15.96
591.043	15.91
591.464	15.87
591.885	15.82
592.305	15.78
592.726	15.76
593.147	15.71
593.567	15.67
593.987	15.63
594.408	15.59
594.828	15.54
595.248	15.5
595.669	15.46
596.089	15.41
596.509	15.37
596.929	15.33
597.349	15.27
597.769	15.23
598.189	15.19
598.608	15.15
599.028	15.12
599.448	15.07
599.867	15.03
600.287	14.99
600.706	14.95
601.126	14.9
601.545	14.86
601.965	14.82
602.384	14.78
602.803	14.73
603.222	14.68
603.641	14.63
604.061	14.59
604.48	14.54
604.898	14.49
605.317	14.45
605.736	14.41
606.155	14.35
606.574	14.27
606.992	14.22
607.411	14.17
607.829	14.09
608.248	14.02
608.666	13.95
609.085	13.9
609.503	13.84
609.921	13.76
610.339	13.69
610.758	13.63
611.176	13.58
611.594	13.52
612.012	13.45
612.43	13.4
612.847	13.35
613.265	13.28
613.683	13.22
614.101	13.15
614.518	13.08
614.936	13.02
615.353	12.95
615.771	12.88
616.188	12.82
616.606	12.78
617.023	12.73
617.44	12.67
617.857	12.64
618.274	12.59
618.691	12.54
619.108	12.5
619.525	12.45
619.942	12.42
620.359	12.4
620.776	12.36
621.192	12.33
621.609	12.31
622.026	12.28
622.442	12.25
622.859	12.24
623.275	12.22
623.691	12.2
624.108	12.2
624.524	12.19
624.94	12.18
625.356	12.16
625.772	12.16
626.188	12.15
626.604	12.14
627.02	12.12
627.436	12.11
627.852	12.1
628.268	12.09
628.683	12.07
629.099	12.04
629.514	12.02
629.93	12.01
630.345	11.99
630.761	11.94
631.176	11.91
631.591	11.86
632.007	11.82
632.422	11.76
632.837	11.7
633.252	11.63
633.667	11.56
634.082	11.46
634.497	11.37
634.911	11.26
635.326	11.17
635.741	11.06
636.155	10.94
636.57	10.82
636.984	10.7
637.399	10.57
637.813	10.43
638.228	10.29
638.642	10.15
639.056	9.99
639.47	9.85
639.884	9.7
640.298	9.55
640.712	9.41
641.126	9.26
641.54	9.1
641.954	8.95
642.368	8.82
642.781	8.7
643.195	8.57
643.609	8.46
644.022	8.34
644.436	8.23
644.849	8.12
645.262	8.02
645.676	7.92
646.089	7.84
646.502	7.78
646.915	7.7
647.328	7.63
647.741	7.57
648.154	7.52
648.567	7.47
648.98	7.43
649.393	7.4
649.805	7.37
650.218	7.35
650.631	7.33
651.043	7.29
651.456	7.27
651.868	7.23
652.28	7.21
652.693	7.18
653.105	7.16
653.517	7.14
653.929	7.11
654.341	7.07
654.753	7.03
655.165	6.99
655.577	6.96
655.989	6.92
656.401	6.88
656.813	6.83
657.224	6.76
657.636	6.7
658.047	6.64
658.459	6.58
658.87	6.52
659.282	6.45
659.693	6.39
660.104	6.31
660.515	6.25
660.926	6.18
661.338	6.11
661.749	6.06
662.159	6
662.57	5.94
662.981	5.88
663.392	5.84
663.803	5.79
664.213	5.73
664.624	5.69
665.035	5.64
665.445	5.61
665.855	5.57
666.266	5.53
666.676	5.52
667.086	5.48
667.497	5.46
667.907	5.44
668.317	5.43
668.727	5.42
669.137	5.41
669.547	5.41
669.956	5.4
670.366	5.4
670.776	5.39
671.186	5.39
671.595	5.4
672.005	5.41
672.414	5.42
672.824	5.43
673.233	5.46
673.642	5.48
674.052	5.52
674.461	5.54
674.87	5.58
675.279	5.62
675.688	5.67
676.097	5.71
676.506	5.75
676.915	5.8
677.323	5.85
677.732	5.9
678.141	5.96
678.549	6.02
678.958	6.09
679.366	6.18
679.775	6.25
680.183	6.34
680.592	6.44
681	6.56
681.408	6.69
681.816	6.83
682.224	6.97
682.632	7.13
683.04	7.29
683.448	7.47
683.856	7.67
684.264	7.9
684.671	8.14
685.079	8.39
685.487	8.67
685.894	8.98
686.302	9.31
686.709	9.68
687.116	10.07
687.524	10.49
687.931	10.93
688.338	11.41
688.745	11.89
689.152	12.42
689.559	12.97
689.966	13.53
690.373	14.11
690.78	14.71
691.187	15.31
691.593	15.93
692	16.57
692.407	17.2
692.813	17.83
693.22	18.48
693.626	19.15
694.032	19.81
694.439	20.45
694.845	21.1
695.251	21.76
695.657	22.4
696.063	23.06
696.469	23.71
696.875	24.38
697.281	25.03
697.687	25.66
698.093	26.27
698.498	26.87
698.904	27.49
699.31	28.07
699.715	28.65
700.12	29.23
700.526	29.78
700.931	30.32
701.337	30.84
701.742	31.35
702.147	31.87
702.552	32.38
702.957	32.84
703.362	33.32
703.767	33.8
704.172	34.25
704.577	34.69
704.981	35.14
705.386	35.58
705.791	35.99
706.195	36.4
706.6	36.79
707.004	37.18
707.408	37.58
707.813	37.96
708.217	38.32
708.621	38.7
709.025	39.04
709.43	39.36
709.834	39.7
710.237	40.04
710.641	40.4
711.045	40.73
711.449	41.06
711.853	41.4
712.256	41.7
712.66	42
713.064	42.31
713.467	42.63
713.87	42.91
714.274	43.17
714.677	43.46
715.08	43.71
715.484	43.98
715.887	44.25
716.29	44.48
716.693	44.73
717.096	44.98
717.499	45.2
717.901	45.41
718.304	45.65
718.707	45.88
719.109	46.09
719.512	46.31
719.915	46.51
720.317	46.67
720.719	46.84
721.122	47.02
721.524	47.2
721.926	47.38
722.328	47.56
722.731	47.72
723.133	47.89
723.535	48.04
723.937	48.2
724.338	48.32
724.74	48.48
725.142	48.75
725.544	48.89
725.945	49.06
726.347	49.18
726.748	49.29
727.15	49.38
727.551	49.51
727.952	49.62
728.354	49.74
728.755	49.85
729.156	49.93
729.557	49.93
729.958	50
730.359	50.11
730.76	50.21
731.161	50.3
731.562	50.41
731.962	50.46
732.363	50.54
732.763	50.59
733.164	50.67
733.564	50.77
733.965	50.82
734.365	50.9
734.766	50.92
735.166	50.96
735.566	51
735.966	51.07
736.366	51.1
736.766	51.13
737.166	51.19
737.566	51.25
737.966	51.28
738.365	51.34
738.765	51.38
739.165	51.43
739.564	51.48
739.964	51.55
740.363	51.55
740.763	51.62
741.162	51.66
741.561	51.66
741.96	51.65
742.36	51.68
742.759	51.71
743.158	51.74
743.557	51.74
743.955	51.76
744.354	51.77
744.753	51.83
745.152	51.85
745.55	51.87
745.949	51.91
746.348	51.95
746.746	51.95
747.144	51.96
747.543	51.93
747.941	51.95
748.339	51.92
748.737	51.92
749.136	51.9
749.534	51.88
749.932	51.86
750.33	51.84
750.727	51.82
751.125	51.83
751.523	51.82
751.921	51.84
752.318	51.83
752.716	51.85
753.113	51.88
753.511	51.89
753.908	51.93
754.305	51.97
754.703	51.97
755.1	51.99
755.497	51.99
755.894	51.98
756.291	51.98
756.688	51.99
757.085	51.99
757.482	51.98
757.878	51.98
758.275	51.95
758.672	51.93
759.068	51.95
759.465	51.95
759.861	51.95
760.258	51.97
760.654	51.98
761.05	51.99
761.447	51.99
761.843	51.99
762.239	51.98
762.635	51.95
763.031	51.94
763.427	51.91
763.822	51.91
764.218	51.93
764.614	51.94
765.01	51.9
765.405	51.88
765.801	51.86
766.196	51.87
766.592	51.84
766.987	51.86
767.382	51.85
767.778	51.87
768.173	51.84
768.568	51.82
768.963	51.81
769.358	51.84
769.753	51.83
770.148	51.82
770.542	51.78
770.937	51.8
771.332	51.81
771.726	51.82
772.121	51.79
772.515	51.79
772.91	51.78
773.304	51.77
773.699	51.77
774.093	51.77
774.487	51.76
774.881	51.79
775.275	51.76
775.669	51.73
776.063	51.72
776.457	51.75
776.851	51.75
777.245	51.72
777.638	51.69
778.032	51.69
778.425	51.69
778.819	51.71
779.212	51.71
779.606	51.73
779.999	51.73
780.392	51.76
780.786	51.74
781.179	51.74
781.572	51.78
781.965	51.79
782.358	51.81
782.751	51.8
783.143	51.79
783.536	51.78
783.929	51.79
784.322	51.82
784.714	51.8
785.107	51.8
785.499	51.79
785.891	51.79
786.284	51.81
786.676	51.8
787.068	51.81
787.46	51.82
787.852	51.82
788.245	51.8
788.636	51.8
789.028	51.8
789.42	51.77
789.812	51.78
790.204	51.76
790.595	51.78
790.987	51.78
791.378	51.81
791.77	51.85
792.161	51.84
792.553	51.85
792.944	51.84
793.335	51.86
793.726	51.89
794.117	51.88
794.508	51.88
794.899	51.86
795.29	51.87
795.681	51.82
796.072	51.8
796.463	51.82
796.853	51.81
797.244	51.82
797.634	51.79
798.025	51.83
798.415	51.86
798.806	51.86
799.196	51.88
799.586	51.87
799.976	51.91
800.366	51.91
800.756	51.93
801.146	51.95
801.536	51.96
801.926	51.97
802.316	51.94
802.706	51.95
803.095	51.95
803.485	51.93
803.874	51.92
804.264	51.91
804.653	51.93
805.043	51.92
805.432	51.91
805.821	51.89
806.21	51.9
806.599	51.9
806.988	51.89
807.377	51.89
807.766	51.86
808.155	51.84
808.544	51.83
808.933	51.81
809.321	51.77
809.71	51.76
810.098	51.77
810.487	51.73
810.875	51.74
811.264	51.73
811.652	51.74
812.04	51.78
812.428	51.82
812.816	51.81
813.204	51.79
813.592	51.8
813.98	51.8
814.368	51.8
814.756	51.8
815.144	51.76
815.531	51.79
815.919	51.77
816.306	51.75
816.694	51.71
817.081	51.73
817.469	51.75
817.856	51.72
818.243	51.69
818.63	51.67
819.017	51.66
819.404	51.68
819.791	51.65
820.178	51.66
820.565	51.63
820.952	51.64
821.339	51.63
821.725	51.63
822.112	51.65
822.498	51.69
822.885	51.7
823.271	51.72
823.657	51.7
824.044	51.7
824.43	51.72
824.816	51.74
825.202	51.73
825.588	51.73
825.974	51.73
826.36	51.73
826.746	51.72
827.132	51.71
827.517	51.72
827.903	51.74
828.289	51.74
828.674	51.74
829.06	51.74
829.445	51.74
829.83	51.73
830.216	51.72
830.601	51.7
830.986	51.72
831.371	51.73
831.756	51.72
832.141	51.72
832.526	51.73
832.911	51.71
833.295	51.71
833.68	51.71
834.065	51.72
834.449	51.7
834.834	51.7
835.218	51.69
835.603	51.68
835.987	51.68
836.371	51.66
836.755	51.63
837.139	51.63
837.524	51.63
837.908	51.62
838.291	51.63
838.675	51.63
839.059	51.63
839.443	51.61
839.827	51.6
840.21	51.61
840.594	51.63
840.977	51.65
841.361	51.66
841.744	51.64
842.127	51.63
842.511	51.6
842.894	51.62
843.277	51.61
843.66	51.59
844.043	51.59
844.426	51.57
844.809	51.55
845.191	51.57
845.574	51.55
845.957	51.57
846.339	51.59
846.722	51.61
847.104	51.62
847.487	51.61
847.869	51.61
848.252	51.62
848.634	51.61
849.016	51.63
849.398	51.62
849.78	51.62
850.162	51.61
850.544	51.58
850.926	51.57
851.307	51.56
851.689	51.6
852.071	51.62
852.452	51.62
852.834	51.67
853.215	51.64
853.597	51.65
853.978	51.62
854.359	51.6
854.741	51.61
855.122	51.59
855.503	51.58
855.884	51.57
856.265	51.56
856.646	51.54
857.026	51.52
857.407	51.55
857.788	51.53
858.169	51.57
858.549	51.59
858.93	51.61
859.31	51.62
859.69	51.63
860.071	51.64
860.451	51.62
860.831	51.65
861.211	51.63
861.591	51.61
861.971	51.6
862.351	51.61
862.731	51.59
863.111	51.57
863.491	51.56
863.87	51.55
864.25	51.53
864.629	51.55
865.009	51.54
865.388	51.55
865.768	51.56
866.147	51.57
866.526	51.55
866.905	51.58
867.284	51.59
867.663	51.59
868.042	51.6
868.421	51.61
868.8	51.6
869.179	51.61
869.558	51.6
869.936	51.6
870.315	51.59
870.693	51.61
871.072	51.61
871.45	51.62
871.828	51.64
872.207	51.65
872.585	51.63
872.963	51.61
873.341	51.61
873.719	51.61
874.097	51.6
874.475	51.62
874.853	51.62
875.23	51.62
875.608	51.63
875.986	51.63
876.363	51.62
876.741	51.65
877.118	51.67
877.495	51.66
877.873	51.68
878.25	51.72
878.627	51.72
879.004	51.73
879.381	51.72
879.758	51.68
880.135	51.67
880.512	51.67
880.889	51.67
881.265	51.66
881.642	51.65
882.019	51.65
882.395	51.61
882.772	51.57
883.148	51.53
883.524	51.5
883.901	51.52
884.277	51.51
884.653	51.48
885.029	51.45
885.405	51.44
885.781	51.44
886.157	51.43
886.532	51.45
886.908	51.43
887.284	51.44
887.659	51.42
888.035	51.4
888.411	51.37
888.786	51.38
889.161	51.38
889.537	51.38
889.912	51.37
890.287	51.37
890.662	51.34
891.037	51.35
891.412	51.33
891.787	51.34
892.162	51.33
892.536	51.33
892.911	51.32
893.286	51.32
893.66	51.32
894.035	51.31
894.409	51.29
894.784	51.3
895.158	51.29
895.532	51.3
895.906	51.31
896.281	51.31
896.655	51.33
897.029	51.35
897.402	51.33
897.776	51.31
898.15	51.33
898.524	51.35
898.898	51.36
899.271	51.36
899.645	51.38
900.018	51.39
900.392	51.42
900.765	51.44
901.138	51.43
901.511	51.45
901.884	51.46
902.258	51.45
902.631	51.45
903.003	51.47
903.376	51.46
903.749	51.43
904.122	51.44
904.495	51.43
904.867	51.44
905.24	51.5
905.612	51.54
905.985	51.54
906.357	51.55
906.729	51.57
907.102	51.57
907.474	51.59
907.846	51.6
908.218	51.58
908.59	51.61
908.962	51.6
909.334	51.57
909.705	51.54
910.077	51.54
910.449	51.56
910.82	51.55
911.192	51.52
911.563	51.54
911.935	51.51
912.306	51.51
912.677	51.48
913.048	51.51
913.419	51.51
913.79	51.52
914.161	51.51
914.532	51.51
914.903	51.54
915.274	51.57
915.645	51.57
916.015	51.6
916.386	51.63
916.756	51.63
917.127	51.63
917.497	51.63
917.868	51.64
918.238	51.63
918.608	51.65
918.978	51.62
919.348	51.64
919.718	51.64
920.088	51.66
920.458	51.68
920.828	51.68
921.198	51.64
921.567	51.64
921.937	51.66
922.306	51.66
922.676	51.63
923.045	51.61
923.415	51.61
923.784	51.59
924.153	51.6
924.522	51.6
924.891	51.59
925.26	51.58
925.629	51.57
925.998	51.55
926.367	51.54
926.736	51.54
927.104	51.56
927.473	51.51
927.842	51.51
928.21	51.49
928.578	51.45
928.947	51.45
929.315	51.43
929.683	51.41
930.051	51.39
930.42	51.39
930.788	51.36
931.156	51.32
931.523	51.37
931.891	51.36
932.259	51.37
932.627	51.36
932.994	51.38
933.362	51.41
933.729	51.42
934.097	51.44
934.464	51.46
934.831	51.48
935.199	51.52
935.566	51.52
935.933	51.5
936.3	51.49
936.667	51.52
937.034	51.54
937.401	51.52
937.767	51.54
938.134	51.56
938.501	51.6
938.867	51.64
939.234	51.6
939.6	51.56
939.967	51.59
940.333	51.57
940.699	51.59
941.065	51.53
941.431	51.55
941.798	51.52
942.163	51.44
942.529	51.36
942.895	51.29
943.261	51.27
943.627	51.22
943.992	51.2
944.358	51.18
944.723	51.11
945.089	51.1
945.454	51.14
945.82	51.17
946.185	51.2
946.55	51.14
946.915	51.15
947.28	51.15
947.645	51.2
948.01	51.17
948.375	51.12
948.74	51.12
949.104	51.13
949.469	51.06
949.834	50.97
950.198	50.94
950.562	50.95
950.927	50.95
951.291	50.86
951.655	50.78
952.02	50.76
952.384	50.77
952.748	50.71
953.112	50.67
953.476	50.64
953.839	50.62
954.203	50.59
954.567	50.54
954.931	50.48
955.294	50.48
955.658	50.57
956.021	50.55
956.385	50.53
956.748	50.5
957.111	50.51
957.474	50.5
957.837	50.49
958.2	50.49
958.563	50.55
958.926	50.61
959.289	50.63
959.652	50.61
960.015	50.59
960.377	50.57
960.74	50.62
961.102	50.56
961.465	50.6
961.827	50.62
962.189	50.66
962.552	50.58
962.914	50.57
963.276	50.58
963.638	50.55
964	50.55
964.362	50.6
964.724	50.58
965.085	50.6
965.447	50.53
965.809	50.54
966.17	50.53
966.532	50.57
966.893	50.56
967.255	50.59
967.616	50.62
967.977	50.67
968.338	50.65
968.699	50.66
969.061	50.68
969.421	50.77
969.782	50.8
970.143	50.79
970.504	50.84
970.865	50.86
971.225	50.82
971.586	50.77
971.946	50.77
972.307	50.75
972.667	50.73
973.027	50.75
973.388	50.72
973.748	50.71
974.108	50.74
974.468	50.71
974.828	50.79
975.188	50.82
975.548	50.84
975.907	50.84
976.267	50.81
976.627	50.82
976.986	50.78
977.346	50.76
977.705	50.74
978.064	50.76
978.424	50.76
978.783	50.61
979.142	50.57
979.501	50.59
979.86	50.62
980.219	50.64
980.578	50.65
980.937	50.72
981.296	50.68
981.654	50.71
982.013	50.7
982.371	50.69
982.73	50.78
983.088	50.77
983.447	50.73
983.805	50.72
984.163	50.72
984.521	50.72
984.879	50.62
985.237	50.68
985.595	50.69
985.953	50.66
986.311	50.68
986.669	50.65
987.026	50.65
987.384	50.74
987.741	50.66
988.099	50.79
988.456	50.74
988.814	50.84
989.171	50.78
989.528	50.76
989.885	50.71
990.242	50.75
990.599	50.79
990.956	50.82
991.313	50.76
991.67	50.88
992.027	50.88
992.383	50.97
992.74	51.06
993.096	51.16
993.453	51.12
993.809	51.24
994.165	51.25
994.522	51.25
994.878	51.31
995.234	51.32
995.59	51.28
995.946	51.22
996.302	51.24
996.658	51.16
997.013	51.04
997.369	51.1
997.725	51.1
998.08	51.12
998.436	51.12
998.791	51.14
999.147	51.17
999.502	51.2
999.857	51.18
1000.212	51.13
1000.567	51.11
1000.922	51.28
1001.277	51.36
1001.632	51.31
1001.987	51.28
1002.342	51.29
1002.696	51.26
1003.051	51.38
1003.406	51.45
1003.76	51.41
1004.114	51.4
1004.469	51.54
1004.823	51.76
1005.177	51.64
1005.531	51.69
1005.885	51.77
1006.239	51.87
1006.593	51.97
1006.947	51.98
1007.301	51.82
1007.655	51.81
1008.008	51.98
1008.362	52
1008.715	51.83
1009.069	52.04
1009.422	51.94
1009.776	51.89
1010.129	51.8
1010.482	51.72
1010.835	51.77
1011.188	51.87
1011.541	51.95
1011.894	52.04
1012.247	52
1012.6	51.87
1012.952	51.69
1013.305	51.87
1013.657	52.1
1014.01	52.21
1014.362	52.19
1014.715	52.28
1015.067	52.42
1015.419	52.6
1015.771	52.34
1016.123	52.34
1016.475	52.39
1016.827	52.54
1017.179	52.51
1017.531	52.28
1017.883	52.25
1018.234	52.46
1018.586	52.58
1018.938	52.64
1019.289	52.52
1019.64	52.76
1019.992	52.59
1020.343	52.57
1020.694	52.53
1021.045	52.51
1021.396	52.55
1021.747	52.66
1022.098	52.58
1022.449	52.33
1022.8	52.43
1023.151	52.43
1023.501	52.37
1023.852	52.69
1024.202	52.76
1024.553	52.68
1024.903	52.71
1025.253	52.77
1025.604	52.7
1025.954	52.71
1026.304	52.8
1026.654	52.68
1027.004	52.88
1027.354	52.94
1027.703	52.65
1028.053	52.78
1028.403	53.02
1028.753	52.77
1029.102	52.94
1029.452	53.09
1029.801	53.18
1030.15	53.12
1030.499	52.97
897.758	1327.68
901.051	1335.5
904.343	1333.03
907.636	1358.7
910.928	1319.13
914.22	1324.62
917.511	1305.2
920.803	1246.63
924.094	1242.57
927.384	1218.38
930.675	1170.41
933.965	1163.51
937.255	1094.28
940.544	1050.81
943.834	997.94
947.123	992.13
950.411	929.65
953.7	911.91
956.988	864.53
960.276	828.74
963.563	815.11
966.851	784.86
970.138	778.53
973.424	754.69
976.711	759.29
979.997	723.65
983.283	718.99
986.568	704.59
989.853	682.24
993.138	670.63
996.423	644.03
999.708	625.08
1002.992	618.89
1006.275	590.47
1009.559	585.31
1012.842	562.7
1016.125	547.85
1019.408	538.38
1022.69	531.26
1025.972	520.32
1029.254	508.3
1032.536	500.59
1035.817	489.89
1039.098	483.48
1042.379	474.31
1045.659	469.47
1048.939	458.85
1052.219	449.35
1055.498	442.38
1058.778	432.5
1062.057	422.74
1065.335	417.94
1068.614	412.6
1071.892	409.94
1075.17	396.23
1078.447	388.54
1081.724	386.04
1085.001	383.36
1088.278	376.15
1091.554	368.25
1094.83	368.61
1098.106	367.04
1101.382	363.34
1104.657	361.8
1107.932	354.97
1111.206	357.84
1114.481	348.7
1117.755	345.2
1121.029	341.64
1124.302	340.82
1127.575	334.87
1130.848	330.46
1134.121	326.59
1137.393	324.91
1140.665	317.58
1143.937	315.71
1147.208	312.81
1150.48	312.42
1153.75	309.11
1157.021	305.42
1160.291	305.2
1163.561	301.91
1166.831	302.31
1170.101	299.86
1173.37	299.19
1176.639	300.13
1179.907	297.51
1183.176	294.45
1186.444	294.7
1189.711	293.6
1192.979	292.73
1196.246	290.36
1199.513	291.72
1202.78	289.1
1206.046	289.24
1209.312	286.09
1212.578	286.51
1215.843	288.66
1219.108	287.27
1222.373	292.96
1225.638	295.05
1228.902	298.69
1232.166	299.74
1235.43	301.81
1238.693	306.22
1241.956	307.08
1245.219	313.38
1248.482	312.07
1251.744	312.14
1255.006	313.02
1258.268	304.59
1261.529	301.45
1264.79	299.63
1268.051	298.15
1271.312	295.02
1274.572	290.72
1277.832	289.4
1281.092	283.23
1284.351	281.73
1287.61	281.76
1290.869	277.47
1294.128	276.2
1297.386	276.84
1300.644	273.51
1303.902	274.13
1307.159	272.67
1310.416	273.21
1313.673	272.16
1316.93	275.84
1320.186	275.74
1323.442	276.22
1326.697	281.35
1329.953	281.63
1333.208	282.64
1336.463	285.89
1339.717	286.16
1342.972	289.54
1346.226	292.15
1349.479	292.75
1352.733	293.88
1355.986	295.67
1359.238	295.62
1362.491	296.88
1365.743	300.01
1368.995	299.06
1372.247	299.15
1375.498	298.72
1378.749	300.93
1382	297.19
1385.251	297.31
1388.501	296.17
1391.751	296.64
1395	295.02
1398.25	292.29
1401.499	290.84
1404.748	290.59
1407.996	288.12
1411.244	286.68
1414.492	284.39
1417.74	281.97
1420.987	277.96
1424.234	276.99
1427.481	272.85
1430.728	272.34
1433.974	270.14
1437.22	267.36
1440.465	266.44
1443.711	263.52
1446.956	262.32
1450.201	259.08
1453.445	256.3
1456.689	255.68
1459.933	251.05
1463.177	249.25
1466.42	245.3
1469.663	242.22
1472.906	240.6
1476.148	234.35
1479.391	231.36
1482.633	229.18
1485.874	225.71
1489.115	224.15
1492.356	222.18
1495.597	221.47
1498.838	218.36
1502.078	217.13
1505.318	216.49
1508.557	216.2
1511.797	216.41
1515.036	215.3
1518.274	214.88
1521.513	213.04
1524.751	213.13
1527.989	212.4
1531.227	211.65
1534.464	212.46
1537.701	210.62
1540.938	209.92
1544.174	207.76
1547.41	207.18
1550.646	206.39
1553.882	206.24
1557.117	203.99
1560.352	202.42
1563.587	201.43
1566.821	200.22
1570.055	198.23
1573.289	197.19
1576.523	197
1579.756	195.61
1582.989	194.74
1586.222	194.5
1589.454	193
1592.686	195
1595.918	194.3
1599.15	193.98
1602.381	194.22
1605.612	194.2
1608.843	194.99
1612.073	194.91
1615.303	196.31
1618.533	195.89
1621.762	195.81
1624.992	195.9
1628.221	195.29
1631.449	195.22
1634.678	194.94
1637.906	195.89
1641.134	195.58
1644.361	195.07
1647.588	196.04
1650.815	194.72
1654.042	194.53
1657.269	195.58
1660.495	195.9
1663.72	195.43
1666.946	196.19
1670.171	196.61
1673.396	195.66
1676.621	196.19
1679.845	196.93
1683.069	195.42
1686.293	197.45
1689.517	198.53
1692.74	198.19
1695.963	198.9
1699.185	200.82
1702.408	200.64
1705.63	201.29
1708.852	202.14
1712.073	202.49
1715.294	202.58
1718.515	204.53
1721.736	203.57
1724.956	203.97
1728.176	204.25
1731.396	206
1734.616	204.41
1737.835	205.44
1741.054	204.1
1744.272	204.96
1747.491	206.56
1750.709	206.64
1753.927	206.53
1757.144	206.1
1760.361	206.94
1763.578	207.03
1766.795	206.25
1770.011	208.43
1773.227	208.31
1776.443	210.73
1779.658	211.57
1782.874	210.83
1786.089	211.74
1789.303	212.31
1792.518	214.82
1795.732	214.5
1798.945	216.79
1802.159	216.92
1805.372	217.51
1808.585	221.32
1811.797	222
1815.01	221.74
1818.222	223.65
1821.434	225.67
1824.645	226.39
1827.856	230.03
1831.067	231.75
1834.278	231
1837.488	232.71
1840.698	234.28
1843.908	232.05
1847.117	233.3
1850.326	235.08
1853.535	234.35
1856.744	236.81
1859.952	236.76
1863.16	234.37
1866.368	232.93
1869.575	235.57
1872.782	231.93
1875.989	230.02
1879.196	229.32
1882.402	227.92
1885.608	228.45
1888.814	228.72
1892.019	228.05
1895.224	227.28
1898.429	226.76
1901.634	228.56
1904.838	228.14
1908.042	230.82
1911.246	232.32
1914.449	233.69
1917.652	233.68
1920.855	233.66
1924.058	233.32
1927.26	232.51
1930.462	234.04
1933.664	236.37
1936.865	234.52
1940.066	233.93
1943.267	232.33
1946.467	232.2
1949.668	233.73
1952.868	236.04
1956.067	235.76
1959.267	236.55
1962.466	236.96
1965.665	235.73
1968.863	235.98
1972.061	239.49
1975.259	241.96
1978.457	244.37
1981.654	245.79
1984.852	245.9
1988.048	245.31
1991.245	248.25
1994.441	250.36
1997.637	253.09
2000.833	257.39
2004.028	261.22
2007.223	261.53
2010.418	264.37
2013.613	269.17
2016.807	272.83
2020.001	274.22
2023.194	279.26
2026.388	284.46
2029.581	291.29
2032.774	292.82
2035.966	298.93
2039.158	299.06
2042.35	306.1
2045.542	307.69
2048.733	312.22
2051.924	315.72
2055.115	322.43
2058.306	322.1
2061.496	325.64
2064.686	326.05
2067.875	332.34
2071.065	332.76
2074.254	331.72
2077.442	335.13
2080.631	336.85
2083.819	339.92
2087.007	340.33
2090.195	344.28
2093.382	347.91
2096.569	345.82
2099.756	350.6
2102.942	351.4
2106.128	355.4
2109.314	363.54
2112.5	361.99
2115.685	369.88
2118.87	370.45
2122.055	378.2
2125.239	380.49
2128.424	384.39
2131.608	388.11
2134.791	393.14
2137.974	395.34
2141.157	396.02
2144.34	397.15
2147.523	403.19
2150.705	400.42
2153.887	403.73
2157.068	405.27
2160.25	402.32
2163.431	404.39
2166.611	408.39
2169.792	416.84
2172.972	420.36
2176.152	423.34
2179.331	428.99
2182.511	436.47
2185.69	441.44
2188.868	450.38
2192.047	451.07
2195.225	464.19
2198.403	476.5
2201.58	484.14
2204.758	492.55
2207.935	504.27
2211.111	512.68
2214.288	517.32
2217.464	518.4
2220.64	526.64
2223.815	534.62
2226.991	556.55
2230.166	556.87
2233.34	566.37
2236.515	576.62
2239.689	578.3
2242.863	580.05
2246.036	597.34
2249.209	595.42
2252.382	606.01
2255.555	624.25
2258.727	626.1
2261.9	629.73
2265.071	636
2268.243	644.97
2271.414	653.21
2274.585	666.87
2277.756	673.92
2280.926	680.65
2284.096	694.62
2287.266	709.03
2290.436	714.2
2293.605	730.91
2296.774	753.11
2299.942	776.88
2303.111	780.52
2306.279	798.41
2309.447	809.88
2312.614	829.34
2315.781	849.71
2318.948	890.88
2322.115	877.06
2325.281	924.31
2328.447	903.58
2331.613	938.02
2334.779	926.89
2337.944	971.92
2341.109	978.99
2344.274	1004.27
2347.438	1041.24
2350.602	1043.17
2353.766	1072.29
2356.929	1089.39
2360.092	1083.05
2363.255	1163.67
2366.418	1161.51
2369.58	1187.98
2372.742	1257.09
2375.904	1291.2
2379.066	1284.6
2382.227	1256.68
2385.388	1363.21
2388.548	1365.85
2391.709	1382.88
2394.869	1538.41
2398.029	1471.87
2401.188	1511.76
2404.347	1499.51
2407.506	1472.01
2410.665	1516.84
2413.823	1608.05
2416.981	1708.53
2420.139	1651.13
2423.296	1633.78
2426.453	1699.99
2429.61	1639.08
2432.767	1714.52
2435.923	1702.47
2439.079	1861.23
2442.235	1886.36
2445.391	1865.94
2448.546	1852.55
2451.701	1801.52
2454.855	1797.11
2458.009	1900.17
2461.163	1991.96
2464.317	2058.4
2467.471	2109.92
2470.624	2111.26
2473.777	2055.91
2476.929	2005.1
2480.082	1950.12
2483.234	1926.68
2486.385	2026.16
2489.537	2036.6
2492.688	2121.08
2495.839	2046.96
2498.989	2005.55
2502.14	2017.98
2505.29	2035.08
2508.439	2070.29
2511.589	2066.46
2514.738	2248.91
2517.887	2200.79
2521.035	2321.96
2524.183	2348.75
2527.331	2359.44
2530.479	2360.45
2533.627	2377.51
