Data from C_2_DIV_OH_2N_Splice17_13-25-45-429.txt Node
Date: Sat Mar 07 13:25:45 EST 2020
User: sa697716
Spectrometer: NQ5500242
Trigger mode: 0
Integration Time (sec): 1.450000E-1
Scans to average: 20
Nonlinearity correction enabled: false
Boxcar width: 5
Storing dark spectrum: false
XAxis mode: Wavelengths
Number of Pixels in Spectrum: 512
>>>>>Begin Spectral Data<<<<<
187.83	191.24
188.298	217.77
188.766	211.14
189.233	169.89
189.701	171.9
190.169	195.81
190.636	209.19
191.104	278.83
191.571	195.42
192.039	72.18
192.506	93.29
192.974	-38.82
193.441	38.35
193.908	82.44
194.375	70.87
194.842	43.67
195.31	31.3
195.777	38.14
196.244	45.38
196.711	48.52
197.177	49.59
197.644	49.57
198.111	49.72
198.578	49.69
199.045	49.65
199.511	49.26
199.978	48.93
200.445	49.73
200.911	49.39
201.378	49.28
201.844	49
202.31	48.68
202.777	48.83
203.243	48.84
203.709	48.4
204.176	48.04
204.642	47.62
205.108	47.83
205.574	46.91
206.04	46.51
206.506	46.24
206.972	46.19
207.438	45.83
207.903	45.06
208.369	44.13
208.835	43.68
209.301	42.8
209.766	41.97
210.232	40.78
210.697	40.06
211.163	39.35
211.628	38.7
212.094	37.75
212.559	37.2
213.024	36.45
213.49	35.82
213.955	35.28
214.42	34.68
214.885	34.13
215.35	33.19
215.815	32.03
216.28	30.39
216.745	28.55
217.21	26.89
217.675	25.28
218.14	23.93
218.604	22.71
219.069	21.66
219.534	20.88
219.998	20.13
220.463	19.61
220.927	19.06
221.392	18.67
221.856	18.33
222.32	18.03
222.785	17.76
223.249	17.49
223.713	17.27
224.177	17.05
224.642	16.8
225.106	16.57
225.57	16.29
226.034	16.09
226.497	15.86
226.961	15.64
227.425	15.41
227.889	15.2
228.353	14.99
228.816	14.77
229.28	14.57
229.744	14.37
230.207	14.18
230.671	14
231.134	13.81
231.597	13.65
232.061	13.46
232.524	13.29
232.987	13.13
233.45	12.98
233.914	12.81
234.377	12.66
234.84	12.51
235.303	12.37
235.766	12.25
236.229	12.12
236.691	11.99
237.154	11.88
237.617	11.76
238.08	11.64
238.542	11.5
239.005	11.41
239.468	11.28
239.93	11.18
240.393	11.07
240.855	10.94
241.317	10.83
241.78	10.71
242.242	10.59
242.704	10.49
243.166	10.39
243.629	10.3
244.091	10.18
244.553	10.07
245.015	9.96
245.477	9.86
245.939	9.76
246.4	9.66
246.862	9.57
247.324	9.48
247.786	9.39
248.247	9.3
248.709	9.19
249.17	9.1
249.632	9.04
250.093	8.97
250.555	8.89
251.016	8.82
251.477	8.73
251.939	8.66
252.4	8.6
252.861	8.53
253.322	8.46
253.783	8.41
254.244	8.35
254.705	8.28
255.166	8.21
255.627	8.15
256.088	8.08
256.549	8.04
257.009	7.98
257.47	7.92
257.931	7.85
258.391	7.78
258.852	7.72
259.312	7.67
259.773	7.61
260.233	7.56
260.694	7.5
261.154	7.44
261.614	7.38
262.074	7.33
262.534	7.28
262.994	7.23
263.455	7.19
263.915	7.14
264.374	7.1
264.834	7.06
265.294	7.02
265.754	6.99
266.214	6.96
266.673	6.94
267.133	6.91
267.593	6.88
268.052	6.85
268.512	6.83
268.971	6.81
269.431	6.78
269.89	6.76
270.349	6.74
270.809	6.7
271.268	6.68
271.727	6.65
272.186	6.62
272.645	6.61
273.104	6.58
273.563	6.55
274.022	6.53
274.481	6.51
274.94	6.48
275.399	6.45
275.857	6.44
276.316	6.41
276.775	6.39
277.233	6.37
277.692	6.35
278.15	6.32
278.609	6.3
279.067	6.28
279.525	6.26
279.984	6.24
280.442	6.22
280.9	6.2
281.358	6.18
281.816	6.16
282.274	6.14
282.732	6.12
283.19	6.1
283.648	6.08
284.106	6.06
284.564	6.03
285.021	6.01
285.479	5.99
285.937	5.97
286.394	5.95
286.852	5.92
287.309	5.9
287.767	5.87
288.224	5.85
288.682	5.82
289.139	5.79
289.596	5.76
290.053	5.73
290.511	5.69
290.968	5.66
291.425	5.63
291.882	5.61
292.339	5.59
292.796	5.56
293.252	5.54
293.709	5.52
294.166	5.49
294.623	5.47
295.079	5.45
295.536	5.44
295.992	5.42
296.449	5.4
296.905	5.38
297.362	5.38
297.818	5.35
298.274	5.34
298.731	5.32
299.187	5.31
299.643	5.28
300.099	5.27
300.555	5.25
301.011	5.23
301.467	5.22
301.923	5.19
302.379	5.17
302.835	5.15
303.291	5.13
303.746	5.12
304.202	5.11
304.658	5.1
305.113	5.09
305.569	5.07
306.024	5.06
306.479	5.04
306.935	5.03
307.39	5.02
307.845	5.01
308.301	5
308.756	4.99
309.211	4.98
309.666	4.97
310.121	4.95
310.576	4.94
311.031	4.93
311.486	4.93
311.94	4.92
312.395	4.91
312.85	4.9
313.305	4.9
313.759	4.89
314.214	4.88
314.668	4.87
315.123	4.86
315.577	4.86
316.032	4.84
316.486	4.83
316.94	4.81
317.394	4.79
317.849	4.77
318.303	4.75
318.757	4.72
319.211	4.7
319.665	4.68
320.119	4.66
320.572	4.63
321.026	4.62
321.48	4.6
321.934	4.58
322.387	4.56
322.841	4.55
323.295	4.54
323.748	4.54
324.202	4.53
324.655	4.52
325.108	4.51
325.562	4.5
326.015	4.5
326.468	4.49
326.921	4.49
327.374	4.48
327.827	4.48
328.28	4.47
328.733	4.47
329.186	4.46
329.639	4.46
330.092	4.45
330.545	4.45
330.997	4.44
331.45	4.43
331.903	4.43
332.355	4.43
332.808	4.43
333.26	4.42
333.713	4.41
334.165	4.41
334.617	4.4
335.069	4.39
335.522	4.4
335.974	4.41
336.426	4.41
336.878	4.4
337.33	4.38
337.782	4.37
338.234	4.37
338.686	4.36
339.137	4.36
339.589	4.36
340.041	4.34
340.493	4.32
340.944	4.3
341.396	4.28
341.847	4.27
342.299	4.24
342.75	4.22
343.201	4.2
343.653	4.19
344.104	4.16
344.555	4.14
345.006	4.13
345.457	4.12
345.908	4.1
346.359	4.1
346.81	4.08
347.261	4.07
347.712	4.07
348.163	4.06
348.613	4.06
349.064	4.06
349.515	4.05
349.965	4.05
350.416	4.04
350.866	4.04
351.317	4.02
351.767	4.02
352.217	4.02
352.668	4.02
353.118	4.02
353.568	4
354.018	4
354.468	4
354.918	4
355.368	4
355.818	4
356.268	4
356.718	3.99
357.168	3.99
357.617	3.98
358.067	3.98
358.517	3.99
358.966	3.98
359.416	3.97
359.865	3.97
360.315	3.96
360.764	3.96
361.213	3.95
361.663	3.94
362.112	3.94
362.561	3.94
363.01	3.93
363.459	3.92
363.908	3.9
364.357	3.9
364.806	3.89
365.255	3.89
365.703	3.9
366.152	3.89
366.601	3.89
367.05	3.89
367.498	3.88
367.947	3.88
368.395	3.88
368.844	3.88
369.292	3.87
369.74	3.87
370.189	3.86
370.637	3.84
371.085	3.83
371.533	3.83
371.981	3.82
372.429	3.81
372.877	3.81
373.325	3.79
373.773	3.79
374.221	3.78
374.669	3.77
375.116	3.76
375.564	3.75
376.012	3.75
376.459	3.75
376.907	3.75
377.354	3.75
377.801	3.74
378.249	3.74
378.696	3.73
379.143	3.72
379.591	3.72
380.038	3.71
380.485	3.71
380.932	3.71
381.379	3.7
381.826	3.7
382.273	3.69
382.72	3.67
383.166	3.66
383.613	3.65
384.06	3.64
384.506	3.64
384.953	3.64
385.4	3.63
385.846	3.63
386.292	3.62
386.739	3.61
387.185	3.6
387.631	3.61
388.078	3.61
388.524	3.61
388.97	3.62
389.416	3.61
389.862	3.61
390.308	3.63
390.754	3.63
391.2	3.63
391.645	3.63
392.091	3.64
392.537	3.66
392.983	3.65
393.428	3.66
393.874	3.66
394.319	3.67
394.765	3.67
395.21	3.66
395.655	3.66
396.101	3.67
396.546	3.67
396.991	3.69
397.436	3.68
397.881	3.71
398.326	3.71
398.771	3.72
399.216	3.73
399.661	3.73
400.106	3.74
400.551	3.75
400.995	3.74
401.44	3.76
401.885	3.75
402.329	3.76
402.774	3.76
403.218	3.78
403.663	3.79
404.107	3.79
404.551	3.81
404.995	3.82
405.44	3.82
405.884	3.83
406.328	3.84
406.772	3.84
407.216	3.86
407.66	3.86
408.104	3.85
408.547	3.86
408.991	3.87
409.435	3.86
409.879	3.87
410.322	3.88
410.766	3.89
411.209	3.92
411.653	3.94
412.096	3.95
412.54	3.96
412.983	3.98
413.426	4.02
413.869	4.04
414.312	4.07
414.756	4.09
415.199	4.1
415.642	4.11
416.085	4.11
416.527	4.11
416.97	4.1
417.413	4.1
417.856	4.09
418.298	4.08
418.741	4.07
419.184	4.07
419.626	4.07
420.069	4.09
420.511	4.09
420.953	4.1
421.396	4.12
421.838	4.12
422.28	4.13
422.722	4.16
423.164	4.17
423.606	4.18
424.048	4.19
424.49	4.19
424.932	4.18
425.374	4.17
425.816	4.15
426.258	4.13
426.699	4.14
427.141	4.14
427.582	4.14
428.024	4.15
428.465	4.16
428.907	4.14
429.348	4.14
429.789	4.14
430.231	4.16
430.672	4.18
431.113	4.2
431.554	4.21
431.995	4.21
432.436	4.21
432.877	4.22
433.318	4.23
433.759	4.27
434.2	4.3
434.64	4.32
435.081	4.34
435.522	4.37
435.962	4.39
436.403	4.42
436.843	4.44
437.284	4.43
437.724	4.44
438.164	4.44
438.604	4.43
439.045	4.43
439.485	4.43
439.925	4.43
440.365	4.43
440.805	4.44
441.245	4.45
441.685	4.46
442.125	4.5
442.564	4.51
443.004	4.52
443.444	4.53
443.883	4.55
444.323	4.55
444.762	4.55
445.202	4.55
445.641	4.57
446.081	4.58
446.52	4.58
446.959	4.6
447.398	4.61
447.837	4.63
448.276	4.65
448.716	4.68
449.154	4.71
449.593	4.72
450.032	4.73
450.471	4.71
450.91	4.7
451.349	4.72
451.787	4.71
452.226	4.69
452.664	4.68
453.103	4.67
453.541	4.65
453.98	4.64
454.418	4.63
454.856	4.62
455.295	4.61
455.733	4.59
456.171	4.59
456.609	4.59
457.047	4.57
457.485	4.57
457.923	4.57
458.361	4.57
458.798	4.57
459.236	4.56
459.674	4.56
460.111	4.57
460.549	4.58
460.987	4.57
461.424	4.57
461.862	4.58
462.299	4.59
462.736	4.59
463.173	4.58
463.611	4.59
464.048	4.59
464.485	4.6
464.922	4.6
465.359	4.61
465.796	4.62
466.233	4.62
466.67	4.63
467.106	4.64
467.543	4.63
467.98	4.63
468.416	4.61
468.853	4.62
469.29	4.61
469.726	4.62
470.162	4.61
470.599	4.58
471.035	4.57
471.471	4.56
471.907	4.54
472.344	4.54
472.78	4.54
473.216	4.53
473.652	4.52
474.088	4.5
474.523	4.5
474.959	4.48
475.395	4.48
475.831	4.48
476.266	4.48
476.702	4.47
477.138	4.46
477.573	4.46
478.008	4.46
478.444	4.46
478.879	4.46
479.314	4.45
479.75	4.44
480.185	4.43
480.62	4.42
481.055	4.4
481.49	4.4
481.925	4.39
482.36	4.39
482.795	4.38
483.229	4.37
483.664	4.37
484.099	4.37
484.534	4.37
484.968	4.37
485.403	4.38
485.837	4.39
486.271	4.4
486.706	4.4
487.14	4.41
487.574	4.42
488.009	4.43
488.443	4.45
488.877	4.46
489.311	4.48
489.745	4.51
490.179	4.54
490.613	4.57
491.046	4.58
491.48	4.61
491.914	4.65
492.348	4.68
492.781	4.72
493.215	4.76
493.648	4.8
494.082	4.84
494.515	4.88
494.948	4.92
495.382	4.96
495.815	5.03
496.248	5.09
496.681	5.15
497.114	5.21
497.547	5.27
497.98	5.35
498.413	5.42
498.846	5.49
499.279	5.57
499.711	5.65
500.144	5.75
500.577	5.84
501.009	5.93
501.442	6.04
501.874	6.15
502.306	6.26
502.739	6.39
503.171	6.51
503.603	6.66
504.036	6.8
504.468	6.95
504.9	7.08
505.332	7.24
505.764	7.41
506.196	7.59
506.627	7.76
507.059	7.95
507.491	8.13
507.923	8.33
508.354	8.53
508.786	8.75
509.217	8.97
509.649	9.21
510.08	9.44
510.512	9.68
510.943	9.91
511.374	10.16
511.805	10.41
512.237	10.65
512.668	10.92
513.099	11.18
513.53	11.45
513.961	11.73
514.391	12.01
514.822	12.3
515.253	12.57
515.684	12.87
516.114	13.16
516.545	13.45
516.975	13.76
517.406	14.05
517.836	14.35
518.267	14.66
518.697	14.96
519.127	15.24
519.558	15.53
519.988	15.83
520.418	16.12
520.848	16.4
521.278	16.69
521.708	17.14
522.138	17.41
522.567	17.68
522.997	17.93
523.427	18.19
523.857	18.45
524.286	18.69
524.716	18.93
525.145	19.16
525.575	19.39
526.004	19.6
526.433	19.64
526.863	19.85
527.292	20.05
527.721	20.25
528.15	20.43
528.579	20.61
529.008	20.77
529.437	20.93
529.866	21.09
530.295	21.24
530.724	21.39
531.152	21.52
531.581	21.65
532.01	21.76
532.438	21.88
532.867	21.99
533.295	22.09
533.723	22.19
534.152	22.28
534.58	22.36
535.008	22.42
535.436	22.48
535.865	22.56
536.293	22.62
536.721	22.69
537.149	22.74
537.576	22.8
538.004	22.85
538.432	22.88
538.86	22.93
539.287	22.97
539.715	23.03
540.143	23.06
540.57	23.09
540.998	23.13
541.425	23.17
541.852	23.2
542.28	23.23
542.707	23.26
543.134	23.29
543.561	23.33
543.988	23.35
544.415	23.38
544.842	23.41
545.269	23.44
545.696	23.46
546.123	23.48
546.549	23.49
546.976	23.52
547.403	23.53
547.829	23.54
548.256	23.56
548.682	23.57
549.108	23.59
549.535	23.61
549.961	23.6
550.387	23.6
550.813	23.6
551.24	23.6
551.666	23.6
552.092	23.6
552.518	23.59
552.943	23.56
553.369	23.53
553.795	23.51
554.221	23.47
554.646	23.44
555.072	23.4
555.498	23.34
555.923	23.28
556.349	23.2
556.774	23.13
557.199	23.05
557.625	22.97
558.05	22.91
558.475	22.82
558.9	22.74
559.325	22.64
559.75	22.56
560.175	22.47
560.6	22.37
561.025	22.29
561.449	22.19
561.874	22.08
562.299	21.98
562.723	21.84
563.148	21.7
563.572	21.54
563.997	21.41
564.421	21.25
564.846	21.09
565.27	20.95
565.694	20.8
566.118	20.65
566.542	20.5
566.966	20.34
567.39	20.19
567.814	20.03
568.238	19.89
568.662	19.73
569.086	19.58
569.509	19.43
569.933	19.28
570.357	19.12
570.78	18.97
571.204	18.81
571.627	18.67
572.05	18.53
572.474	18.41
572.897	18.27
573.32	18.14
573.743	18.02
574.166	17.89
574.589	17.76
575.012	17.63
575.435	17.51
575.858	17.4
576.281	17.27
576.704	17.15
577.126	17.03
577.549	16.93
577.972	16.81
578.394	16.7
578.817	16.61
579.239	16.52
579.661	16.44
580.084	16.35
580.506	16.26
580.928	16.18
581.35	16.11
581.772	16.01
582.194	15.93
582.616	15.86
583.038	15.79
583.46	15.7
583.882	15.62
584.303	15.54
584.725	15.46
585.147	15.39
585.568	15.33
585.99	15.26
586.411	15.21
586.833	15.14
587.254	15.07
587.675	15
588.096	14.94
588.518	14.87
588.939	14.83
589.36	14.78
589.781	14.72
590.202	14.68
590.623	14.62
591.043	14.57
591.464	14.55
591.885	14.51
592.305	14.48
592.726	14.46
593.147	14.43
593.567	14.38
593.987	14.35
594.408	14.32
594.828	14.28
595.248	14.25
595.669	14.22
596.089	14.17
596.509	14.13
596.929	14.09
597.349	14.05
597.769	14.01
598.189	13.98
598.608	13.94
599.028	13.88
599.448	13.83
599.867	13.79
600.287	13.74
600.706	13.71
601.126	13.67
601.545	13.62
601.965	13.58
602.384	13.53
602.803	13.48
603.222	13.43
603.641	13.38
604.061	13.32
604.48	13.25
604.898	13.2
605.317	13.13
605.736	13.06
606.155	12.99
606.574	12.91
606.992	12.83
607.411	12.77
607.829	12.65
608.248	12.56
608.666	12.49
609.085	12.41
609.503	12.33
609.921	12.23
610.339	12.16
610.758	12.08
611.176	11.99
611.594	11.92
612.012	11.84
612.43	11.78
612.847	11.72
613.265	11.65
613.683	11.59
614.101	11.51
614.518	11.45
614.936	11.39
615.353	11.31
615.771	11.25
616.188	11.17
616.606	11.11
617.023	11.05
617.44	10.99
617.857	10.92
618.274	10.86
618.691	10.8
619.108	10.76
619.525	10.7
619.942	10.66
620.359	10.62
620.776	10.58
621.192	10.55
621.609	10.52
622.026	10.49
622.442	10.47
622.859	10.45
623.275	10.44
623.691	10.41
624.108	10.4
624.524	10.37
624.94	10.36
625.356	10.35
625.772	10.33
626.188	10.32
626.604	10.31
627.02	10.31
627.436	10.29
627.852	10.27
628.268	10.25
628.683	10.24
629.099	10.24
629.514	10.21
629.93	10.2
630.345	10.17
630.761	10.14
631.176	10.1
631.591	10.06
632.007	10.02
632.422	9.97
632.837	9.92
633.252	9.86
633.667	9.8
634.082	9.74
634.497	9.67
634.911	9.61
635.326	9.54
635.741	9.46
636.155	9.36
636.57	9.28
636.984	9.19
637.399	9.09
637.813	8.98
638.228	8.87
638.642	8.75
639.056	8.63
639.47	8.51
639.884	8.4
640.298	8.28
640.712	8.16
641.126	8.03
641.54	7.92
641.954	7.8
642.368	7.69
642.781	7.6
643.195	7.49
643.609	7.4
644.022	7.29
644.436	7.19
644.849	7.1
645.262	7.01
645.676	6.93
646.089	6.85
646.502	6.78
646.915	6.71
647.328	6.65
647.741	6.58
648.154	6.53
648.567	6.48
648.98	6.43
649.393	6.37
649.805	6.34
650.218	6.3
650.631	6.26
651.043	6.22
651.456	6.18
651.868	6.14
652.28	6.11
652.693	6.06
653.105	6.03
653.517	5.99
653.929	5.95
654.341	5.89
654.753	5.83
655.165	5.77
655.577	5.72
655.989	5.66
656.401	5.6
656.813	5.54
657.224	5.48
657.636	5.4
658.047	5.33
658.459	5.25
658.87	5.18
659.282	5.11
659.693	5.05
660.104	4.97
660.515	4.9
660.926	4.83
661.338	4.75
661.749	4.69
662.159	4.62
662.57	4.57
662.981	4.52
663.392	4.46
663.803	4.4
664.213	4.35
664.624	4.3
665.035	4.26
665.445	4.21
665.855	4.17
666.266	4.14
666.676	4.11
667.086	4.07
667.497	4.05
667.907	4.04
668.317	4.02
668.727	4.01
669.137	4
669.547	3.99
669.956	3.98
670.366	3.97
670.776	3.96
671.186	3.95
671.595	3.96
672.005	3.96
672.414	3.96
672.824	3.97
673.233	3.97
673.642	3.99
674.052	4
674.461	4.02
674.87	4.05
675.279	4.09
675.688	4.11
676.097	4.13
676.506	4.16
676.915	4.19
677.323	4.22
677.732	4.24
678.141	4.28
678.549	4.31
678.958	4.35
679.366	4.38
679.775	4.41
680.183	4.47
680.592	4.54
681	4.6
681.408	4.68
681.816	4.77
682.224	4.87
682.632	4.98
683.04	5.09
683.448	5.23
683.856	5.36
684.264	5.51
684.671	5.67
685.079	5.84
685.487	6.06
685.894	6.29
686.302	6.54
686.709	6.82
687.116	7.11
687.524	7.43
687.931	7.77
688.338	8.14
688.745	8.54
689.152	8.95
689.559	9.41
689.966	9.87
690.373	10.35
690.78	10.85
691.187	11.36
691.593	11.89
692	12.44
692.407	12.99
692.813	13.56
693.22	14.13
693.626	14.72
694.032	15.3
694.439	15.89
694.845	16.49
695.251	17.09
695.657	17.68
696.063	18.27
696.469	18.89
696.875	19.49
697.281	20.07
697.687	20.67
698.093	21.26
698.498	21.84
698.904	22.41
699.31	22.96
699.715	23.52
700.12	24.08
700.526	24.63
700.931	25.17
701.337	25.72
701.742	26.23
702.147	26.72
702.552	27.24
702.957	27.72
703.362	28.19
703.767	28.66
704.172	29.11
704.577	29.56
704.981	30
705.386	30.43
705.791	30.85
706.195	31.28
706.6	31.71
707.004	32.08
707.408	32.5
707.813	32.92
708.217	33.31
708.621	33.69
709.025	34.05
709.43	34.4
709.834	34.78
710.237	35.11
710.641	35.46
711.045	35.8
711.449	36.17
711.853	36.51
712.256	36.82
712.66	37.16
713.064	37.47
713.467	37.8
713.87	38.14
714.274	38.42
714.677	38.74
715.08	39.01
715.484	39.29
715.887	39.57
716.29	39.82
716.693	40.07
717.096	40.34
717.499	40.64
717.901	40.89
718.304	41.12
718.707	41.37
719.109	41.6
719.512	41.85
719.915	42.07
720.317	42.27
720.719	42.48
721.122	42.71
721.524	42.87
721.926	43.06
722.328	43.26
722.731	43.45
723.133	43.63
723.535	43.81
723.937	43.98
724.338	44.15
724.74	44.32
725.142	44.55
725.544	44.69
725.945	44.87
726.347	44.96
726.748	45.09
727.15	45.19
727.551	45.35
727.952	45.47
728.354	45.58
728.755	45.69
729.156	45.82
729.557	45.84
729.958	45.95
730.359	46.04
730.76	46.16
731.161	46.24
731.562	46.36
731.962	46.39
732.363	46.49
732.763	46.56
733.164	46.65
733.564	46.73
733.965	46.81
734.365	46.88
734.766	46.94
735.166	47.01
735.566	47.08
735.966	47.15
736.366	47.24
736.766	47.28
737.166	47.35
737.566	47.41
737.966	47.45
738.365	47.5
738.765	47.57
739.165	47.62
739.564	47.66
739.964	47.7
740.363	47.73
740.763	47.76
741.162	47.81
741.561	47.83
741.96	47.83
742.36	47.86
742.759	47.9
743.158	47.93
743.557	47.94
743.955	47.98
744.354	48.01
744.753	48.05
745.152	48.11
745.55	48.15
745.949	48.19
746.348	48.24
746.746	48.25
747.144	48.28
747.543	48.28
747.941	48.34
748.339	48.34
748.737	48.31
749.136	48.3
749.534	48.29
749.932	48.3
750.33	48.29
750.727	48.3
751.125	48.31
751.523	48.3
751.921	48.29
752.318	48.28
752.716	48.31
753.113	48.35
753.511	48.35
753.908	48.37
754.305	48.36
754.703	48.36
755.1	48.36
755.497	48.36
755.894	48.37
756.291	48.37
756.688	48.37
757.085	48.37
757.482	48.35
757.878	48.36
758.275	48.34
758.672	48.34
759.068	48.36
759.465	48.35
759.861	48.38
760.258	48.39
760.654	48.4
761.05	48.43
761.447	48.45
761.843	48.46
762.239	48.46
762.635	48.47
763.031	48.45
763.427	48.42
763.822	48.44
764.218	48.45
764.614	48.46
765.01	48.44
765.405	48.41
765.801	48.37
766.196	48.39
766.592	48.38
766.987	48.36
767.382	48.37
767.778	48.4
768.173	48.39
768.568	48.34
768.963	48.31
769.358	48.33
769.753	48.34
770.148	48.35
770.542	48.34
770.937	48.34
771.332	48.34
771.726	48.35
772.121	48.34
772.515	48.34
772.91	48.34
773.304	48.35
773.699	48.34
774.093	48.32
774.487	48.33
774.881	48.34
775.275	48.33
775.669	48.36
776.063	48.34
776.457	48.35
776.851	48.34
777.245	48.33
777.638	48.35
778.032	48.36
778.425	48.37
778.819	48.37
779.212	48.36
779.606	48.39
779.999	48.34
780.392	48.36
780.786	48.34
781.179	48.39
781.572	48.42
781.965	48.42
782.358	48.44
782.751	48.45
783.143	48.44
783.536	48.42
783.929	48.39
784.322	48.43
784.714	48.45
785.107	48.47
785.499	48.45
785.891	48.44
786.284	48.44
786.676	48.43
787.068	48.42
787.46	48.44
787.852	48.47
788.245	48.48
788.636	48.46
789.028	48.44
789.42	48.42
789.812	48.42
790.204	48.41
790.595	48.41
790.987	48.4
791.378	48.39
791.77	48.39
792.161	48.36
792.553	48.36
792.944	48.34
793.335	48.35
793.726	48.35
794.117	48.32
794.508	48.28
794.899	48.27
795.29	48.28
795.681	48.29
796.072	48.28
796.463	48.32
796.853	48.32
797.244	48.33
797.634	48.31
798.025	48.33
798.415	48.32
798.806	48.34
799.196	48.33
799.586	48.32
799.976	48.35
800.366	48.33
800.756	48.34
801.146	48.35
801.536	48.36
801.926	48.37
802.316	48.34
802.706	48.36
803.095	48.41
803.485	48.44
803.874	48.43
804.264	48.43
804.653	48.42
805.043	48.42
805.432	48.41
805.821	48.43
806.21	48.45
806.599	48.48
806.988	48.49
807.377	48.44
807.766	48.42
808.155	48.41
808.544	48.39
808.933	48.4
809.321	48.38
809.71	48.36
810.098	48.35
810.487	48.31
810.875	48.31
811.264	48.31
811.652	48.34
812.04	48.34
812.428	48.4
812.816	48.4
813.204	48.4
813.592	48.39
813.98	48.4
814.368	48.43
814.756	48.46
815.144	48.46
815.531	48.48
815.919	48.44
816.306	48.45
816.694	48.42
817.081	48.43
817.469	48.43
817.856	48.42
818.243	48.41
818.63	48.37
819.017	48.34
819.404	48.32
819.791	48.28
820.178	48.28
820.565	48.26
820.952	48.26
821.339	48.24
821.725	48.24
822.112	48.26
822.498	48.27
822.885	48.27
823.271	48.28
823.657	48.25
824.044	48.27
824.43	48.29
824.816	48.3
825.202	48.28
825.588	48.26
825.974	48.24
826.36	48.22
826.746	48.18
827.132	48.18
827.517	48.18
827.903	48.22
828.289	48.21
828.674	48.2
829.06	48.16
829.445	48.15
829.83	48.19
830.216	48.19
830.601	48.2
830.986	48.24
831.371	48.22
831.756	48.23
832.141	48.2
832.526	48.21
832.911	48.21
833.295	48.24
833.68	48.26
834.065	48.23
834.449	48.22
834.834	48.19
835.218	48.18
835.603	48.16
835.987	48.11
836.371	48.1
836.755	48.08
837.139	48.05
837.524	48.03
837.908	48.01
838.291	48.02
838.675	48.02
839.059	48.04
839.443	48.03
839.827	48.03
840.21	48.04
840.594	48.06
840.977	48.05
841.361	48.06
841.744	48.06
842.127	48.06
842.511	48.04
842.894	48.02
843.277	47.98
843.66	47.97
844.043	47.99
844.426	48
844.809	47.98
845.191	48.02
845.574	48
845.957	48
846.339	47.98
846.722	47.98
847.104	48.02
847.487	48.01
847.869	48.04
848.252	48.03
848.634	48.02
849.016	48.02
849.398	48
849.78	47.99
850.162	47.99
850.544	48.03
850.926	48.04
851.307	48.02
851.689	48.04
852.071	48.04
852.452	48.05
852.834	48.08
853.215	48.08
853.597	48.09
853.978	48.12
854.359	48.13
854.741	48.11
855.122	48.11
855.503	48.09
855.884	48.08
856.265	48.08
856.646	48.05
857.026	48.04
857.407	48.05
857.788	48.05
858.169	48.05
858.549	48.06
858.93	48.05
859.31	48.07
859.69	48.09
860.071	48.09
860.451	48.08
860.831	48.09
861.211	48.07
861.591	48.05
861.971	48.02
862.351	48.02
862.731	48
863.111	48
863.491	47.98
863.87	47.95
864.25	47.93
864.629	47.93
865.009	47.91
865.388	47.9
865.768	47.92
866.147	47.9
866.526	47.88
866.905	47.89
867.284	47.9
867.663	47.91
868.042	47.91
868.421	47.93
868.8	47.94
869.179	47.96
869.558	47.97
869.936	47.96
870.315	47.99
870.693	48
871.072	47.99
871.45	47.98
871.828	47.94
872.207	47.96
872.585	47.95
872.963	47.91
873.341	47.89
873.719	47.89
874.097	47.86
874.475	47.84
874.853	47.8
875.23	47.83
875.608	47.82
875.986	47.85
876.363	47.83
876.741	47.84
877.118	47.85
877.495	47.85
877.873	47.85
878.25	47.88
878.627	47.9
879.004	47.94
879.381	47.92
879.758	47.91
880.135	47.9
880.512	47.91
880.889	47.9
881.265	47.91
881.642	47.93
882.019	47.94
882.395	47.91
882.772	47.9
883.148	47.88
883.524	47.87
883.901	47.86
884.277	47.84
884.653	47.82
885.029	47.81
885.405	47.81
885.781	47.77
886.157	47.76
886.532	47.76
886.908	47.75
887.284	47.73
887.659	47.71
888.035	47.7
888.411	47.69
888.786	47.71
889.161	47.71
889.537	47.69
889.912	47.7
890.287	47.7
890.662	47.69
891.037	47.7
891.412	47.69
891.787	47.67
892.162	47.68
892.536	47.67
892.911	47.65
893.286	47.63
893.66	47.64
894.035	47.64
894.409	47.64
894.784	47.64
895.158	47.62
895.532	47.65
895.906	47.64
896.281	47.63
896.655	47.64
897.029	47.68
897.402	47.68
897.776	47.68
898.15	47.67
898.524	47.68
898.898	47.68
899.271	47.69
899.645	47.69
900.018	47.72
900.392	47.74
900.765	47.74
901.138	47.73
901.511	47.75
901.884	47.76
902.258	47.75
902.631	47.75
903.003	47.78
903.376	47.78
903.749	47.77
904.122	47.77
904.495	47.77
904.867	47.77
905.24	47.78
905.612	47.8
905.985	47.77
906.357	47.8
906.729	47.82
907.102	47.8
907.474	47.83
907.846	47.82
908.218	47.83
908.59	47.85
908.962	47.84
909.334	47.84
909.705	47.82
910.077	47.84
910.449	47.85
910.82	47.82
911.192	47.8
911.563	47.78
911.935	47.8
912.306	47.79
912.677	47.79
913.048	47.82
913.419	47.8
913.79	47.82
914.161	47.8
914.532	47.79
914.903	47.81
915.274	47.82
915.645	47.8
916.015	47.78
916.386	47.78
916.756	47.77
917.127	47.76
917.497	47.78
917.868	47.77
918.238	47.78
918.608	47.8
918.978	47.78
919.348	47.82
919.718	47.83
920.088	47.84
920.458	47.85
920.828	47.83
921.198	47.77
921.567	47.77
921.937	47.78
922.306	47.75
922.676	47.72
923.045	47.7
923.415	47.64
923.784	47.63
924.153	47.63
924.522	47.64
924.891	47.64
925.26	47.68
925.629	47.67
925.998	47.62
926.367	47.62
926.736	47.64
927.104	47.67
927.473	47.68
927.842	47.66
928.21	47.68
928.578	47.63
928.947	47.65
929.315	47.61
929.683	47.61
930.051	47.63
930.42	47.65
930.788	47.65
931.156	47.6
931.523	47.62
931.891	47.69
932.259	47.66
932.627	47.66
932.994	47.67
933.362	47.68
933.729	47.68
934.097	47.68
934.464	47.68
934.831	47.66
935.199	47.72
935.566	47.72
935.933	47.62
936.3	47.64
936.667	47.66
937.034	47.7
937.401	47.7
937.767	47.67
938.134	47.66
938.501	47.68
938.867	47.75
939.234	47.73
939.6	47.73
939.967	47.77
940.333	47.74
940.699	47.75
941.065	47.67
941.431	47.65
941.798	47.7
942.163	47.71
942.529	47.65
942.895	47.61
943.261	47.6
943.627	47.58
943.992	47.54
944.358	47.55
944.723	47.53
945.089	47.52
945.454	47.54
945.82	47.5
946.185	47.48
946.55	47.4
946.915	47.34
947.28	47.29
947.645	47.24
948.01	47.28
948.375	47.26
948.74	47.24
949.104	47.26
949.469	47.18
949.834	47.17
950.198	47.18
950.562	47.19
950.927	47.17
951.291	47.1
951.655	47.06
952.02	47.04
952.384	46.95
952.748	46.95
953.112	46.89
953.476	46.85
953.839	46.84
954.203	46.81
954.567	46.82
954.931	46.78
955.294	46.78
955.658	46.86
956.021	46.81
956.385	46.86
956.748	46.8
957.111	46.79
957.474	46.86
957.837	46.81
958.2	46.78
958.563	46.78
958.926	46.83
959.289	46.87
959.652	46.83
960.015	46.86
960.377	46.84
960.74	46.88
961.102	46.95
961.465	46.95
961.827	47.04
962.189	47.07
962.552	47.07
962.914	47.05
963.276	47.07
963.638	47.06
964	47.01
964.362	46.99
964.724	46.97
965.085	46.92
965.447	46.92
965.809	46.86
966.17	46.84
966.532	46.8
966.893	46.83
967.255	46.8
967.616	46.79
967.977	46.81
968.338	46.84
968.699	46.85
969.061	46.89
969.421	46.85
969.782	46.88
970.143	46.89
970.504	46.94
970.865	46.95
971.225	46.96
971.586	46.96
971.946	46.95
972.307	46.95
972.667	46.94
973.027	46.95
973.388	46.94
973.748	46.9
974.108	46.97
974.468	46.93
974.828	46.91
975.188	46.89
975.548	46.89
975.907	46.9
976.267	46.91
976.627	46.89
976.986	46.85
977.346	46.81
977.705	46.81
978.064	46.73
978.424	46.76
978.783	46.7
979.142	46.71
979.501	46.76
979.86	46.82
980.219	46.77
980.578	46.81
980.937	46.83
981.296	46.89
981.654	46.88
982.013	46.94
982.371	46.93
982.73	46.94
983.088	46.98
983.447	46.95
983.805	46.99
984.163	47.01
984.521	47
984.879	46.92
985.237	46.9
985.595	46.97
985.953	46.92
986.311	46.88
986.669	46.98
987.026	46.96
987.384	46.96
987.741	46.83
988.099	46.94
988.456	46.94
988.814	46.98
989.171	47.01
989.528	47.04
989.885	47.03
990.242	47.13
990.599	47.2
990.956	47.23
991.313	47.29
991.67	47.34
992.027	47.47
992.383	47.5
992.74	47.62
993.096	47.6
993.453	47.56
993.809	47.67
994.165	47.7
994.522	47.74
994.878	47.81
995.234	47.85
995.59	47.82
995.946	47.72
996.302	47.75
996.658	47.72
997.013	47.77
997.369	47.84
997.725	47.83
998.08	47.86
998.436	47.79
998.791	47.74
999.147	47.63
999.502	47.77
999.857	47.64
1000.212	47.57
1000.567	47.62
1000.922	47.55
1001.277	47.47
1001.632	47.38
1001.987	47.4
1002.342	47.39
1002.696	47.4
1003.051	47.52
1003.406	47.62
1003.76	47.74
1004.114	47.79
1004.469	47.8
1004.823	48.17
1005.177	48.19
1005.531	48.33
1005.885	48.28
1006.239	48.3
1006.593	48.44
1006.947	48.5
1007.301	48.38
1007.655	48.44
1008.008	48.5
1008.362	48.58
1008.715	48.33
1009.069	48.45
1009.422	48.42
1009.776	48.3
1010.129	48.28
1010.482	48.09
1010.835	48.03
1011.188	48.08
1011.541	48.01
1011.894	48.04
1012.247	48
1012.6	48.06
1012.952	48.03
1013.305	48.1
1013.657	48.33
1014.01	48.41
1014.362	48.52
1014.715	48.7
1015.067	48.74
1015.419	48.79
1015.771	48.76
1016.123	48.67
1016.475	48.77
1016.827	48.81
1017.179	48.89
1017.531	48.98
1017.883	49.07
1018.234	49.15
1018.586	49.15
1018.938	49.43
1019.289	49.49
1019.64	49.57
1019.992	49.76
1020.343	49.58
1020.694	49.71
1021.045	49.67
1021.396	49.66
1021.747	49.6
1022.098	49.67
1022.449	49.58
1022.8	49.28
1023.151	49.36
1023.501	49.38
1023.852	49.3
1024.202	49.32
1024.553	49.24
1024.903	49.12
1025.253	49.32
1025.604	49.36
1025.954	49.23
1026.304	49.17
1026.654	49.1
1027.004	48.92
1027.354	49.03
1027.703	49.07
1028.053	49.14
1028.403	49.15
1028.753	48.9
1029.102	48.83
1029.452	48.92
1029.801	49.18
1030.15	49.18
1030.499	49.26
897.758	1398.8
901.051	1407.45
904.343	1398.63
907.636	1422.84
910.928	1382.19
914.22	1386.73
917.511	1371.14
920.803	1310.59
924.094	1306.03
927.384	1274.39
930.675	1221.68
933.965	1213.95
937.255	1141.84
940.544	1098.36
943.834	1045.88
947.123	1039.05
950.411	974.33
953.7	953.44
956.988	901.51
960.276	864.85
963.563	851.55
966.851	820.83
970.138	811.57
973.424	786.2
976.711	790.06
979.997	752.28
983.283	746.66
986.568	731.15
989.853	708.57
993.138	697.39
996.423	671.18
999.708	650.67
1002.992	643.43
1006.275	617.37
1009.559	611.84
1012.842	589.59
1016.125	571.92
1019.408	562.32
1022.69	555.04
1025.972	544.93
1029.254	530.13
1032.536	521.19
1035.817	510.74
1039.098	503.55
1042.379	491.94
1045.659	486.35
1048.939	474.7
1052.219	465.16
1055.498	458.79
1058.778	447.92
1062.057	436.96
1065.335	433.4
1068.614	428.27
1071.892	423.96
1075.17	410.3
1078.447	402.96
1081.724	399.71
1085.001	396.48
1088.278	388.3
1091.554	380.66
1094.83	380.52
1098.106	378.26
1101.382	373.9
1104.657	371.92
1107.932	365.74
1111.206	367.1
1114.481	358.5
1117.755	354.68
1121.029	352.22
1124.302	351.9
1127.575	344.24
1130.848	340
1134.121	336.68
1137.393	335.83
1140.665	326.76
1143.937	325.13
1147.208	324.15
1150.48	322.73
1153.75	318.32
1157.021	314.52
1160.291	314.86
1163.561	311.37
1166.831	311.78
1170.101	308.61
1173.37	308.42
1176.639	309.6
1179.907	306.14
1183.176	302.75
1186.444	302.26
1189.711	302.1
1192.979	300.43
1196.246	297.92
1199.513	299.49
1202.78	297.15
1206.046	297.34
1209.312	293.92
1212.578	294.67
1215.843	297.34
1219.108	293.94
1222.373	300.65
1225.638	302.97
1228.902	307.1
1232.166	307.7
1235.43	310.42
1238.693	314.48
1241.956	316.74
1245.219	321.77
1248.482	320.8
1251.744	320.74
1255.006	323.54
1258.268	314.63
1261.529	311.78
1264.79	309.2
1268.051	307.79
1271.312	303.79
1274.572	299.59
1277.832	296.37
1281.092	291.7
1284.351	290.16
1287.61	289.92
1290.869	285.21
1294.128	283.76
1297.386	283.91
1300.644	280.49
1303.902	281.37
1307.159	279.9
1310.416	280.02
1313.673	279.85
1316.93	281.66
1320.186	282.43
1323.442	283.2
1326.697	288.33
1329.953	289.29
1333.208	290.31
1336.463	294.25
1339.717	294.69
1342.972	297.57
1346.226	300.6
1349.479	300.59
1352.733	302.6
1355.986	303.55
1359.238	303.98
1362.491	305.33
1365.743	308.21
1368.995	307.85
1372.247	306.82
1375.498	306.75
1378.749	310.57
1382	306.82
1385.251	307.9
1388.501	306.37
1391.751	307.68
1395	305.69
1398.25	303.04
1401.499	301.69
1404.748	301.29
1407.996	299.5
1411.244	298.12
1414.492	295.4
1417.74	293.11
1420.987	288.66
1424.234	288.83
1427.481	284.62
1430.728	284.88
1433.974	282.51
1437.22	279.18
1440.465	278.17
1443.711	275.66
1446.956	274.28
1450.201	270.78
1453.445	268.24
1456.689	267.72
1459.933	262.3
1463.177	260.34
1466.42	255.95
1469.663	252.35
1472.906	251.34
1476.148	244.86
1479.391	242.2
1482.633	239.71
1485.874	236.25
1489.115	234.46
1492.356	231.22
1495.597	230.62
1498.838	227.5
1502.078	226.17
1505.318	225.48
1508.557	225.17
1511.797	224.72
1515.036	223.16
1518.274	222.73
1521.513	220.35
1524.751	220.19
1527.989	219.78
1531.227	219.03
1534.464	218.89
1537.701	217.25
1540.938	216.72
1544.174	213.91
1547.41	213.96
1550.646	212.64
1553.882	212.08
1557.117	209.92
1560.352	208.66
1563.587	207.86
1566.821	206.42
1570.055	204.23
1573.289	202.97
1576.523	202.45
1579.756	200.92
1582.989	199.66
1586.222	199.74
1589.454	197.78
1592.686	199.55
1595.918	198.02
1599.15	197.57
1602.381	197.84
1605.612	197.85
1608.843	198.31
1612.073	198.16
1615.303	199.39
1618.533	199.33
1621.762	199.03
1624.992	200.37
1628.221	199.62
1631.449	200.09
1634.678	199.6
1637.906	199.97
1641.134	200.16
1644.361	199.66
1647.588	200.24
1650.815	199.29
1654.042	198.84
1657.269	199.64
1660.495	199.26
1663.72	198.75
1666.946	199.61
1670.171	199.75
1673.396	200
1676.621	199.95
1679.845	200.69
1683.069	200.17
1686.293	201.8
1689.517	203.04
1692.74	202.8
1695.963	203.31
1699.185	205.37
1702.408	204.99
1705.63	206.28
1708.852	206.2
1712.073	207.13
1715.294	206.94
1718.515	208.73
1721.736	208.07
1724.956	208.53
1728.176	208.51
1731.396	210.43
1734.616	209.7
1737.835	210.98
1741.054	208.91
1744.272	209.96
1747.491	211.6
1750.709	212.22
1753.927	212.09
1757.144	210.94
1760.361	211.62
1763.578	212.06
1766.795	211.64
1770.011	213.08
1773.227	212.83
1776.443	215.79
1779.658	216.66
1782.874	215.74
1786.089	216.61
1789.303	217.23
1792.518	220.8
1795.732	220.36
1798.945	222.91
1802.159	222.54
1805.372	223.14
1808.585	227.06
1811.797	227.92
1815.01	228.17
1818.222	230.11
1821.434	231.3
1824.645	232.62
1827.856	235.87
1831.067	238.09
1834.278	237
1837.488	239.46
1840.698	241.02
1843.908	238.69
1847.117	239.61
1850.326	241.71
1853.535	240.91
1856.744	244.52
1859.952	244.46
1863.16	242.98
1866.368	241.43
1869.575	244.15
1872.782	240.38
1875.989	240.54
1879.196	239.52
1882.402	238.41
1885.608	239.11
1888.814	239.85
1892.019	239.44
1895.224	238.53
1898.429	237.72
1901.634	239.13
1904.838	239.97
1908.042	243.12
1911.246	242.93
1914.449	245.05
1917.652	244.93
1920.855	243.97
1924.058	243.89
1927.26	242.55
1930.462	243.67
1933.664	246.01
1936.865	244.65
1940.066	243.72
1943.267	242.54
1946.467	242.55
1949.668	243.58
1952.868	246.41
1956.067	246.55
1959.267	247.65
1962.466	248.85
1965.665	246.96
1968.863	248.1
1972.061	251.13
1975.259	253.32
1978.457	255.07
1981.654	257.62
1984.852	258.55
1988.048	258.17
1991.245	260.58
1994.441	262.88
1997.637	264.5
2000.833	270.41
2004.028	273.17
2007.223	274.08
2010.418	276.97
2013.613	281.94
2016.807	284.28
2020.001	285.95
2023.194	290.26
2026.388	296.5
2029.581	302.77
2032.774	306.37
2035.966	311.42
2039.158	312.12
2042.35	318.52
2045.542	321.27
2048.733	325.88
2051.924	330.31
2055.115	337
2058.306	337.57
2061.496	340.75
2064.686	340.95
2067.875	346
2071.065	347.69
2074.254	346.58
2077.442	350.73
2080.631	352.03
2083.819	355.08
2087.007	355.45
2090.195	360.11
2093.382	363.47
2096.569	361.48
2099.756	366.83
2102.942	367.64
2106.128	371.11
2109.314	379.87
2112.5	378.45
2115.685	387.17
2118.87	387.68
2122.055	395.49
2125.239	397.85
2128.424	402.41
2131.608	405.72
2134.791	411.63
2137.974	413.2
2141.157	414.1
2144.34	414.28
2147.523	421.71
2150.705	417.67
2153.887	421.91
2157.068	423.04
2160.25	419.03
2163.431	420.68
2166.611	425.26
2169.792	433.51
2172.972	438.59
2176.152	441.17
2179.331	447.42
2182.511	454.69
2185.69	459.17
2188.868	469.02
2192.047	468.17
2195.225	481.88
2198.403	495.25
2201.58	504.6
2204.758	513.34
2207.935	523.98
2211.111	534.8
2214.288	540.34
2217.464	541.36
2220.64	549.92
2223.815	556.7
2226.991	581.68
2230.166	582.48
2233.34	591.83
2236.515	601.71
2239.689	601.13
2242.863	604.36
2246.036	621.83
2249.209	617.47
2252.382	629.61
2255.555	647.07
2258.727	649.37
2261.9	653.17
2265.071	659.84
2268.243	671.4
2271.414	678.85
2274.585	695.41
2277.756	703.5
2280.926	704.97
2284.096	725.01
2287.266	738.77
2290.436	747.3
2293.605	765.01
2296.774	787.35
2299.942	812.71
2303.111	815.95
2306.279	835.24
2309.447	849.03
2312.614	870.1
2315.781	895.93
2318.948	932.51
2322.115	919.75
2325.281	969.05
2328.447	948.23
2331.613	988.66
2334.779	975.66
2337.944	1018.32
2341.109	1027.09
2344.274	1052.11
2347.438	1088.15
2350.602	1091.15
2353.766	1125.22
2356.929	1141.71
2360.092	1135.47
2363.255	1219.31
2366.418	1213.9
2369.58	1237.36
2372.742	1317.89
2375.904	1352.03
2379.066	1343.67
2382.227	1315.79
2385.388	1428.74
2388.548	1429.68
2391.709	1445.71
2394.869	1611.57
2398.029	1539.92
2401.188	1585.57
2404.347	1575.83
2407.506	1544.99
2410.665	1583.53
2413.823	1685.97
2416.981	1788.86
2420.139	1727.18
2423.296	1712.24
2426.453	1789.36
2429.61	1717.73
2432.767	1799.78
2435.923	1778.54
2439.079	1947.24
2442.235	1974.44
2445.391	1965.82
2448.546	1944.4
2451.701	1889.51
2454.855	1888.16
2458.009	2005.32
2461.163	2082.42
2464.317	2162.17
2467.471	2218.91
2470.624	2221.52
2473.777	2158.52
2476.929	2106.54
2480.082	2045.03
2483.234	2021.66
2486.385	2127.28
2489.537	2135.78
2492.688	2212.7
2495.839	2147.28
2498.989	2102.18
2502.14	2107.73
2505.29	2134.42
2508.439	2171.96
2511.589	2159.47
2514.738	2355.35
2517.887	2306.1
2521.035	2436.18
2524.183	2461.51
2527.331	2473.51
2530.479	2474.01
2533.627	2488.58
