Data from C_2_HIR_IL_4N_Splice17_13-12-55-805.txt Node
Date: Sat Mar 07 13:12:55 EST 2020
User: sa697716
Spectrometer: NQ5500242
Trigger mode: 0
Integration Time (sec): 1.450000E-1
Scans to average: 20
Nonlinearity correction enabled: false
Boxcar width: 5
Storing dark spectrum: false
XAxis mode: Wavelengths
Number of Pixels in Spectrum: 512
>>>>>Begin Spectral Data<<<<<
187.83	107.65
188.298	124.36
188.766	110.11
189.233	108.82
189.701	100.07
190.169	116.17
190.636	105.64
191.104	46.3
191.571	-205.24
192.039	-296.81
192.506	-777.78
192.974	140.53
193.441	311.08
193.908	121.9
194.375	80.86
194.842	11.58
195.31	64.79
195.777	39.81
196.244	51.78
196.711	49.36
197.177	51.79
197.644	49.61
198.111	49.72
198.578	49.63
199.045	50.01
199.511	50.57
199.978	50.5
200.445	50.39
200.911	50.33
201.378	50.07
201.844	49.99
202.31	49.64
202.777	49.95
203.243	49.89
203.709	49.45
204.176	48.97
204.642	48.51
205.108	48.37
205.574	48.06
206.04	47.69
206.506	47.31
206.972	47.17
207.438	46.27
207.903	45.64
208.369	44.6
208.835	43.95
209.301	43.44
209.766	42.31
210.232	41.2
210.697	40.18
211.163	39.32
211.628	38.49
212.094	37.49
212.559	37.14
213.024	36.52
213.49	35.92
213.955	35.19
214.42	34.38
214.885	33.65
215.35	32.81
215.815	31.44
216.28	29.67
216.745	27.73
217.21	25.98
217.675	24.26
218.14	22.83
218.604	21.59
219.069	20.55
219.534	19.66
219.998	18.89
220.463	18.25
220.927	17.66
221.392	17.24
221.856	16.85
222.32	16.5
222.785	16.2
223.249	15.91
223.713	15.63
224.177	15.41
224.642	15.17
225.106	14.95
225.57	14.7
226.034	14.52
226.497	14.32
226.961	14.13
227.425	13.94
227.889	13.75
228.353	13.55
228.816	13.36
229.28	13.17
229.744	13
230.207	12.83
230.671	12.68
231.134	12.5
231.597	12.36
232.061	12.21
232.524	12.07
232.987	11.94
233.45	11.81
233.914	11.69
234.377	11.55
234.84	11.41
235.303	11.3
235.766	11.19
236.229	11.07
236.691	10.96
237.154	10.86
237.617	10.75
238.08	10.64
238.542	10.53
239.005	10.44
239.468	10.35
239.93	10.27
240.393	10.17
240.855	10.07
241.317	9.98
241.78	9.89
242.242	9.79
242.704	9.7
243.166	9.62
243.629	9.55
244.091	9.46
244.553	9.37
245.015	9.28
245.477	9.19
245.939	9.13
246.4	9.05
246.862	8.97
247.324	8.9
247.786	8.82
248.247	8.76
248.709	8.69
249.17	8.62
249.632	8.58
250.093	8.53
250.555	8.49
251.016	8.43
251.477	8.37
251.939	8.33
252.4	8.28
252.861	8.24
253.322	8.2
253.783	8.16
254.244	8.13
254.705	8.08
255.166	8.03
255.627	7.98
256.088	7.95
256.549	7.92
257.009	7.88
257.47	7.83
257.931	7.78
258.391	7.72
258.852	7.69
259.312	7.64
259.773	7.6
260.233	7.57
260.694	7.54
261.154	7.5
261.614	7.47
262.074	7.45
262.534	7.42
262.994	7.4
263.455	7.38
263.915	7.35
264.374	7.33
264.834	7.32
265.294	7.3
265.754	7.29
266.214	7.28
266.673	7.25
267.133	7.23
267.593	7.22
268.052	7.21
268.512	7.2
268.971	7.19
269.431	7.18
269.89	7.16
270.349	7.15
270.809	7.13
271.268	7.11
271.727	7.1
272.186	7.09
272.645	7.08
273.104	7.07
273.563	7.06
274.022	7.04
274.481	7.03
274.94	7.02
275.399	7.01
275.857	7.01
276.316	7
276.775	6.98
277.233	6.97
277.692	6.96
278.15	6.95
278.609	6.94
279.067	6.93
279.525	6.92
279.984	6.91
280.442	6.89
280.9	6.88
281.358	6.87
281.816	6.86
282.274	6.85
282.732	6.83
283.19	6.82
283.648	6.8
284.106	6.79
284.564	6.77
285.021	6.76
285.479	6.75
285.937	6.74
286.394	6.73
286.852	6.72
287.309	6.71
287.767	6.69
288.224	6.67
288.682	6.66
289.139	6.64
289.596	6.62
290.053	6.6
290.511	6.58
290.968	6.56
291.425	6.53
291.882	6.53
292.339	6.5
292.796	6.49
293.252	6.48
293.709	6.47
294.166	6.46
294.623	6.46
295.079	6.45
295.536	6.44
295.992	6.44
296.449	6.44
296.905	6.43
297.362	6.43
297.818	6.42
298.274	6.42
298.731	6.41
299.187	6.39
299.643	6.38
300.099	6.38
300.555	6.37
301.011	6.36
301.467	6.36
301.923	6.34
302.379	6.33
302.835	6.34
303.291	6.32
303.746	6.32
304.202	6.32
304.658	6.32
305.113	6.31
305.569	6.31
306.024	6.3
306.479	6.29
306.935	6.29
307.39	6.29
307.845	6.28
308.301	6.28
308.756	6.27
309.211	6.27
309.666	6.27
310.121	6.27
310.576	6.27
311.031	6.27
311.486	6.27
311.94	6.27
312.395	6.27
312.85	6.27
313.305	6.27
313.759	6.27
314.214	6.26
314.668	6.25
315.123	6.24
315.577	6.23
316.032	6.21
316.486	6.2
316.94	6.19
317.394	6.18
317.849	6.16
318.303	6.16
318.757	6.14
319.211	6.13
319.665	6.12
320.119	6.12
320.572	6.1
321.026	6.09
321.48	6.08
321.934	6.06
322.387	6.05
322.841	6.04
323.295	6.04
323.748	6.03
324.202	6.02
324.655	6.01
325.108	6
325.562	6
326.015	6.01
326.468	6
326.921	6.01
327.374	6.01
327.827	6
328.28	5.98
328.733	5.98
329.186	5.98
329.639	5.98
330.092	5.98
330.545	5.97
330.997	5.96
331.45	5.96
331.903	5.96
332.355	5.97
332.808	5.97
333.26	5.97
333.713	5.97
334.165	5.96
334.617	5.97
335.069	5.96
335.522	5.96
335.974	5.96
336.426	5.95
336.878	5.93
337.33	5.91
337.782	5.92
338.234	5.92
338.686	5.91
339.137	5.92
339.589	5.89
340.041	5.88
340.493	5.85
340.944	5.83
341.396	5.81
341.847	5.79
342.299	5.78
342.75	5.76
343.201	5.72
343.653	5.7
344.104	5.67
344.555	5.67
345.006	5.65
345.457	5.65
345.908	5.65
346.359	5.64
346.81	5.64
347.261	5.62
347.712	5.62
348.163	5.61
348.613	5.63
349.064	5.63
349.515	5.62
349.965	5.62
350.416	5.61
350.866	5.6
351.317	5.58
351.767	5.59
352.217	5.59
352.668	5.58
353.118	5.58
353.568	5.56
354.018	5.56
354.468	5.56
354.918	5.55
355.368	5.56
355.818	5.56
356.268	5.56
356.718	5.56
357.168	5.55
357.617	5.54
358.067	5.54
358.517	5.55
358.966	5.55
359.416	5.55
359.865	5.55
360.315	5.55
360.764	5.55
361.213	5.56
361.663	5.55
362.112	5.57
362.561	5.59
363.01	5.6
363.459	5.59
363.908	5.59
364.357	5.6
364.806	5.6
365.255	5.61
365.703	5.62
366.152	5.63
366.601	5.65
367.05	5.66
367.498	5.66
367.947	5.69
368.395	5.72
368.844	5.75
369.292	5.76
369.74	5.8
370.189	5.83
370.637	5.87
371.085	5.9
371.533	5.94
371.981	5.99
372.429	6.04
372.877	6.11
373.325	6.17
373.773	6.24
374.221	6.31
374.669	6.39
375.116	6.48
375.564	6.57
376.012	6.68
376.459	6.79
376.907	6.91
377.354	7.04
377.801	7.16
378.249	7.29
378.696	7.43
379.143	7.59
379.591	7.75
380.038	7.91
380.485	8.06
380.932	8.22
381.379	8.39
381.826	8.56
382.273	8.74
382.72	8.9
383.166	9.09
383.613	9.27
384.06	9.45
384.506	9.64
384.953	9.83
385.4	10.04
385.846	10.24
386.292	10.43
386.739	10.61
387.185	10.79
387.631	10.98
388.078	11.16
388.524	11.34
388.97	11.51
389.416	11.69
389.862	11.85
390.308	12
390.754	12.15
391.2	12.31
391.645	12.45
392.091	12.6
392.537	12.74
392.983	12.89
393.428	13.03
393.874	13.15
394.319	13.26
394.765	13.36
395.21	13.45
395.655	13.53
396.101	13.6
396.546	13.66
396.991	13.72
397.436	13.78
397.881	13.84
398.326	13.88
398.771	13.93
399.216	13.97
399.661	14.01
400.106	14.02
400.551	14.04
400.995	14.03
401.44	14.04
401.885	14.04
402.329	14.04
402.774	14.05
403.218	14.06
403.663	14.05
404.107	14.04
404.551	14.02
404.995	14.02
405.44	14.01
405.884	14.03
406.328	14.02
406.772	13.99
407.216	13.97
407.66	13.94
408.104	13.89
408.547	13.87
408.991	13.85
409.435	13.82
409.879	13.8
410.322	13.79
410.766	13.76
411.209	13.75
411.653	13.74
412.096	13.73
412.54	13.71
412.983	13.7
413.426	13.69
413.869	13.69
414.312	13.69
414.756	13.68
415.199	13.64
415.642	13.61
416.085	13.57
416.527	13.52
416.97	13.47
417.413	13.43
417.856	13.38
418.298	13.34
418.741	13.29
419.184	13.25
419.626	13.21
420.069	13.19
420.511	13.16
420.953	13.16
421.396	13.14
421.838	13.14
422.28	13.11
422.722	13.11
423.164	13.07
423.606	13.04
424.048	13
424.49	12.98
424.932	12.96
425.374	12.9
425.816	12.82
426.258	12.79
426.699	12.73
427.141	12.72
427.582	12.71
428.024	12.7
428.465	12.69
428.907	12.66
429.348	12.63
429.789	12.63
430.231	12.65
430.672	12.69
431.113	12.7
431.554	12.72
431.995	12.72
432.436	12.73
432.877	12.73
433.318	12.77
433.759	12.81
434.2	12.84
434.64	12.86
435.081	12.87
435.522	12.89
435.962	12.91
436.403	12.95
436.843	12.98
437.284	12.99
437.724	13.01
438.164	13.01
438.604	13.02
439.045	13.04
439.485	13.06
439.925	13.08
440.365	13.1
440.805	13.14
441.245	13.19
441.685	13.24
442.125	13.3
442.564	13.34
443.004	13.4
443.444	13.47
443.883	13.54
444.323	13.59
444.762	13.67
445.202	13.74
445.641	13.82
446.081	13.88
446.52	13.94
446.959	14.02
447.398	14.1
447.837	14.19
448.276	14.24
448.716	14.31
449.154	14.4
449.593	14.46
450.032	14.51
450.471	14.56
450.91	14.6
451.349	14.65
451.787	14.69
452.226	14.73
452.664	14.76
453.103	14.81
453.541	14.87
453.98	14.91
454.418	14.94
454.856	15
455.295	15.03
455.733	15.05
456.171	15.09
456.609	15.14
457.047	15.17
457.485	15.22
457.923	15.26
458.361	15.28
458.798	15.32
459.236	15.35
459.674	15.38
460.111	15.43
460.549	15.48
460.987	15.52
461.424	15.56
461.862	15.61
462.299	15.64
462.736	15.68
463.173	15.71
463.611	15.74
464.048	15.77
464.485	15.79
464.922	15.81
465.359	15.82
465.796	15.85
466.233	15.84
466.67	15.84
467.106	15.84
467.543	15.81
467.98	15.8
468.416	15.77
468.853	15.75
469.29	15.74
469.726	15.72
470.162	15.7
470.599	15.67
471.035	15.65
471.471	15.62
471.907	15.6
472.344	15.59
472.78	15.58
473.216	15.56
473.652	15.55
474.088	15.5
474.523	15.5
474.959	15.48
475.395	15.45
475.831	15.43
476.266	15.44
476.702	15.44
477.138	15.43
477.573	15.43
478.008	15.44
478.444	15.43
478.879	15.47
479.314	15.47
479.75	15.49
480.185	15.51
480.62	15.53
481.055	15.55
481.49	15.57
481.925	15.61
482.36	15.66
482.795	15.71
483.229	15.77
483.664	15.85
484.099	15.91
484.534	15.99
484.968	16.09
485.403	16.19
485.837	16.3
486.271	16.42
486.706	16.53
487.14	16.65
487.574	16.79
488.009	16.93
488.443	17.07
488.877	17.23
489.311	17.41
489.745	17.58
490.179	17.76
490.613	17.96
491.046	18.16
491.48	18.38
491.914	18.6
492.348	18.81
492.781	19.04
493.215	19.28
493.648	19.53
494.082	19.78
494.515	20.01
494.948	20.26
495.382	20.52
495.815	20.79
496.248	21.07
496.681	21.35
497.114	21.63
497.547	21.93
497.98	22.21
498.413	22.5
498.846	22.79
499.279	23.1
499.711	23.41
500.144	23.74
500.577	24.06
501.009	24.38
501.442	24.7
501.874	25.05
502.306	25.39
502.739	25.76
503.171	26.11
503.603	26.47
504.036	26.83
504.468	27.2
504.9	27.54
505.332	27.9
505.764	28.27
506.196	28.63
506.627	28.99
507.059	29.36
507.491	29.71
507.923	30.08
508.354	30.46
508.786	30.83
509.217	31.2
509.649	31.59
510.08	31.97
510.512	32.35
510.943	32.72
511.374	33.08
511.805	33.46
512.237	33.82
512.668	34.17
513.099	34.51
513.53	34.86
513.961	35.21
514.391	35.55
514.822	35.9
515.253	36.23
515.684	36.57
516.114	36.91
516.545	37.2
516.975	37.52
517.406	37.83
517.836	38.13
518.267	38.42
518.697	38.69
519.127	38.95
519.558	39.22
519.988	39.48
520.418	39.72
520.848	39.95
521.278	40.19
521.708	40.58
522.138	40.8
522.567	41.03
522.997	41.24
523.427	41.45
523.857	41.64
524.286	41.79
524.716	41.95
525.145	42.13
525.575	42.3
526.004	42.48
526.433	42.47
526.863	42.62
527.292	42.77
527.721	42.9
528.15	43.02
528.579	43.14
529.008	43.29
529.437	43.43
529.866	43.54
530.295	43.64
530.724	43.75
531.152	43.86
531.581	43.99
532.01	44.1
532.438	44.18
532.867	44.3
533.295	44.4
533.723	44.49
534.152	44.58
534.58	44.66
535.008	44.73
535.436	44.81
535.865	44.88
536.293	44.92
536.721	44.96
537.149	45.05
537.576	45.11
538.004	45.17
538.432	45.22
538.86	45.26
539.287	45.29
539.715	45.34
540.143	45.38
540.57	45.42
540.998	45.45
541.425	45.48
541.852	45.52
542.28	45.54
542.707	45.56
543.134	45.6
543.561	45.65
543.988	45.68
544.415	45.69
544.842	45.69
545.269	45.7
545.696	45.73
546.123	45.75
546.549	45.78
546.976	45.82
547.403	45.83
547.829	45.84
548.256	45.88
548.682	45.89
549.108	45.92
549.535	45.96
549.961	45.97
550.387	45.99
550.813	46.01
551.24	46
551.666	45.97
552.092	45.99
552.518	45.98
552.943	45.96
553.369	45.96
553.795	45.95
554.221	45.92
554.646	45.92
555.072	45.91
555.498	45.88
555.923	45.86
556.349	45.83
556.774	45.79
557.199	45.75
557.625	45.71
558.05	45.68
558.475	45.65
558.9	45.62
559.325	45.6
559.75	45.55
560.175	45.5
560.6	45.44
561.025	45.41
561.449	45.36
561.874	45.3
562.299	45.24
562.723	45.16
563.148	45.07
563.572	44.98
563.997	44.88
564.421	44.79
564.846	44.71
565.27	44.64
565.694	44.54
566.118	44.46
566.542	44.38
566.966	44.29
567.39	44.2
567.814	44.13
568.238	44.04
568.662	43.96
569.086	43.88
569.509	43.79
569.933	43.71
570.357	43.62
570.78	43.54
571.204	43.46
571.627	43.39
572.05	43.3
572.474	43.23
572.897	43.17
573.32	43.09
573.743	43.01
574.166	42.94
574.589	42.86
575.012	42.78
575.435	42.69
575.858	42.61
576.281	42.53
576.704	42.45
577.126	42.35
577.549	42.25
577.972	42.16
578.394	42.08
578.817	42.01
579.239	41.94
579.661	41.89
580.084	41.81
580.506	41.76
580.928	41.7
581.35	41.64
581.772	41.6
582.194	41.54
582.616	41.51
583.038	41.46
583.46	41.39
583.882	41.32
584.303	41.26
584.725	41.22
585.147	41.17
585.568	41.11
585.99	41.04
586.411	40.97
586.833	40.92
587.254	40.85
587.675	40.79
588.096	40.75
588.518	40.71
588.939	40.69
589.36	40.62
589.781	40.57
590.202	40.54
590.623	40.5
591.043	40.45
591.464	40.43
591.885	40.38
592.305	40.36
592.726	40.32
593.147	40.27
593.567	40.2
593.987	40.17
594.408	40.11
594.828	40.06
595.248	40.02
595.669	40
596.089	39.93
596.509	39.91
596.929	39.87
597.349	39.82
597.769	39.76
598.189	39.73
598.608	39.7
599.028	39.68
599.448	39.63
599.867	39.58
600.287	39.54
600.706	39.49
601.126	39.45
601.545	39.42
601.965	39.39
602.384	39.37
602.803	39.33
603.222	39.27
603.641	39.22
604.061	39.17
604.48	39.1
604.898	39.04
605.317	38.99
605.736	38.94
606.155	38.88
606.574	38.8
606.992	38.73
607.411	38.67
607.829	38.58
608.248	38.52
608.666	38.47
609.085	38.41
609.503	38.37
609.921	38.29
610.339	38.2
610.758	38.13
611.176	38.06
611.594	38
612.012	37.93
612.43	37.88
612.847	37.81
613.265	37.75
613.683	37.68
614.101	37.61
614.518	37.55
614.936	37.5
615.353	37.43
615.771	37.36
616.188	37.3
616.606	37.22
617.023	37.17
617.44	37.12
617.857	37.04
618.274	37
618.691	36.93
619.108	36.89
619.525	36.83
619.942	36.79
620.359	36.74
620.776	36.69
621.192	36.66
621.609	36.64
622.026	36.6
622.442	36.57
622.859	36.54
623.275	36.53
623.691	36.51
624.108	36.5
624.524	36.48
624.94	36.49
625.356	36.49
625.772	36.47
626.188	36.46
626.604	36.46
627.02	36.46
627.436	36.45
627.852	36.44
628.268	36.43
628.683	36.41
629.099	36.41
629.514	36.39
629.93	36.38
630.345	36.35
630.761	36.31
631.176	36.28
631.591	36.22
632.007	36.17
632.422	36.11
632.837	36.03
633.252	35.94
633.667	35.84
634.082	35.73
634.497	35.61
634.911	35.49
635.326	35.37
635.741	35.21
636.155	35.06
636.57	34.9
636.984	34.73
637.399	34.55
637.813	34.37
638.228	34.15
638.642	33.94
639.056	33.71
639.47	33.5
639.884	33.25
640.298	33
640.712	32.77
641.126	32.51
641.54	32.24
641.954	31.99
642.368	31.73
642.781	31.49
643.195	31.24
643.609	30.99
644.022	30.74
644.436	30.52
644.849	30.31
645.262	30.08
645.676	29.88
646.089	29.7
646.502	29.52
646.915	29.36
647.328	29.2
647.741	29.05
648.154	28.9
648.567	28.78
648.98	28.65
649.393	28.55
649.805	28.46
650.218	28.37
650.631	28.29
651.043	28.21
651.456	28.12
651.868	28.06
652.28	28
652.693	27.96
653.105	27.88
653.517	27.8
653.929	27.7
654.341	27.61
654.753	27.49
655.165	27.39
655.577	27.28
655.989	27.15
656.401	26.99
656.813	26.85
657.224	26.67
657.636	26.5
658.047	26.34
658.459	26.16
658.87	25.97
659.282	25.76
659.693	25.56
660.104	25.33
660.515	25.13
660.926	24.91
661.338	24.68
661.749	24.46
662.159	24.23
662.57	24
662.981	23.78
663.392	23.56
663.803	23.36
664.213	23.14
664.624	22.94
665.035	22.75
665.445	22.56
665.855	22.39
666.266	22.23
666.676	22.07
667.086	21.91
667.497	21.76
667.907	21.64
668.317	21.51
668.727	21.41
669.137	21.3
669.547	21.2
669.956	21.11
670.366	21.03
670.776	20.96
671.186	20.92
671.595	20.88
672.005	20.85
672.414	20.81
672.824	20.79
673.233	20.8
673.642	20.81
674.052	20.84
674.461	20.87
674.87	20.9
675.279	20.95
675.688	21
676.097	21.07
676.506	21.16
676.915	21.27
677.323	21.41
677.732	21.56
678.141	21.72
678.549	21.9
678.958	22.13
679.366	22.39
679.775	22.65
680.183	22.97
680.592	23.34
681	23.73
681.408	24.13
681.816	24.57
682.224	25.04
682.632	25.55
683.04	26.08
683.448	26.65
683.856	27.23
684.264	27.88
684.671	28.51
685.079	29.16
685.487	29.84
685.894	30.55
686.302	31.26
686.709	31.97
687.116	32.69
687.524	33.42
687.931	34.15
688.338	34.88
688.745	35.59
689.152	36.29
689.559	37
689.966	37.68
690.373	38.36
690.78	39.01
691.187	39.64
691.593	40.28
692	40.87
692.407	41.45
692.813	42
693.22	42.53
693.626	43.06
694.032	43.55
694.439	44.01
694.845	44.48
695.251	44.92
695.657	45.34
696.063	45.73
696.469	46.1
696.875	46.48
697.281	46.83
697.687	47.18
698.093	47.5
698.498	47.83
698.904	48.16
699.31	48.43
699.715	48.72
700.12	48.99
700.526	49.28
700.931	49.54
701.337	49.76
701.742	50
702.147	50.22
702.552	50.44
702.957	50.62
703.362	50.81
703.767	50.98
704.172	51.14
704.577	51.3
704.981	51.45
705.386	51.59
705.791	51.72
706.195	51.87
706.6	52.02
707.004	52.13
707.408	52.27
707.813	52.43
708.217	52.55
708.621	52.68
709.025	52.78
709.43	52.87
709.834	53.01
710.237	53.14
710.641	53.24
711.045	53.36
711.449	53.45
711.853	53.57
712.256	53.65
712.66	53.74
713.064	53.84
713.467	53.94
713.87	54.04
714.274	54.1
714.677	54.18
715.08	54.24
715.484	54.3
715.887	54.42
716.29	54.46
716.693	54.53
717.096	54.61
717.499	54.7
717.901	54.78
718.304	54.83
718.707	54.9
719.109	54.99
719.512	55.05
719.915	55.12
720.317	55.14
720.719	55.19
721.122	55.23
721.524	55.29
721.926	55.33
722.328	55.4
722.731	55.44
723.133	55.5
723.535	55.53
723.937	55.58
724.338	55.58
724.74	55.62
725.142	55.74
725.544	55.77
725.945	55.81
726.347	55.82
726.748	55.85
727.15	55.88
727.551	55.93
727.952	55.95
728.354	55.97
728.755	56.01
729.156	56.03
729.557	55.97
729.958	55.98
730.359	55.96
730.76	56.01
731.161	56.01
731.562	56.02
731.962	56.02
732.363	56.03
732.763	56.04
733.164	56.07
733.564	56.1
733.965	56.1
734.365	56.13
734.766	56.16
735.166	56.15
735.566	56.15
735.966	56.18
736.366	56.18
736.766	56.17
737.166	56.2
737.566	56.2
737.966	56.21
738.365	56.22
738.765	56.22
739.165	56.22
739.564	56.22
739.964	56.22
740.363	56.2
740.763	56.22
741.162	56.22
741.561	56.2
741.96	56.19
742.36	56.18
742.759	56.18
743.158	56.19
743.557	56.16
743.955	56.16
744.354	56.15
744.753	56.19
745.152	56.19
745.55	56.19
745.949	56.2
746.348	56.21
746.746	56.2
747.144	56.21
747.543	56.19
747.941	56.18
748.339	56.15
748.737	56.16
749.136	56.15
749.534	56.14
749.932	56.12
750.33	56.12
750.727	56.11
751.125	56.1
751.523	56.07
751.921	56.06
752.318	56.08
752.716	56.11
753.113	56.09
753.511	56.07
753.908	56.1
754.305	56.12
754.703	56.1
755.1	56.1
755.497	56.1
755.894	56.13
756.291	56.14
756.688	56.14
757.085	56.14
757.482	56.17
757.878	56.17
758.275	56.14
758.672	56.12
759.068	56.12
759.465	56.12
759.861	56.14
760.258	56.13
760.654	56.14
761.05	56.14
761.447	56.14
761.843	56.11
762.239	56.12
762.635	56.1
763.031	56.09
763.427	56.07
763.822	56.05
764.218	56.04
764.614	56.04
765.01	56
765.405	55.98
765.801	55.95
766.196	55.94
766.592	55.92
766.987	55.94
767.382	55.93
767.778	55.93
768.173	55.93
768.568	55.89
768.963	55.86
769.358	55.88
769.753	55.89
770.148	55.9
770.542	55.92
770.937	55.91
771.332	55.9
771.726	55.91
772.121	55.91
772.515	55.92
772.91	55.91
773.304	55.93
773.699	55.93
774.093	55.91
774.487	55.9
774.881	55.88
775.275	55.88
775.669	55.88
776.063	55.86
776.457	55.86
776.851	55.85
777.245	55.83
777.638	55.81
778.032	55.79
778.425	55.82
778.819	55.81
779.212	55.83
779.606	55.83
779.999	55.83
780.392	55.85
780.786	55.83
781.179	55.85
781.572	55.89
781.965	55.89
782.358	55.91
782.751	55.9
783.143	55.91
783.536	55.89
783.929	55.88
784.322	55.87
784.714	55.86
785.107	55.88
785.499	55.87
785.891	55.87
786.284	55.9
786.676	55.91
787.068	55.91
787.46	55.91
787.852	55.9
788.245	55.92
788.636	55.94
789.028	55.96
789.42	55.93
789.812	55.94
790.204	55.93
790.595	55.94
790.987	55.93
791.378	55.92
791.77	55.94
792.161	55.95
792.553	55.94
792.944	55.92
793.335	55.93
793.726	55.94
794.117	55.88
794.508	55.88
794.899	55.84
795.29	55.84
795.681	55.84
796.072	55.83
796.463	55.84
796.853	55.83
797.244	55.83
797.634	55.81
798.025	55.83
798.415	55.88
798.806	55.87
799.196	55.9
799.586	55.88
799.976	55.89
800.366	55.88
800.756	55.89
801.146	55.92
801.536	55.94
801.926	55.93
802.316	55.94
802.706	55.94
803.095	55.95
803.485	55.94
803.874	55.94
804.264	55.91
804.653	55.92
805.043	55.89
805.432	55.87
805.821	55.87
806.21	55.87
806.599	55.86
806.988	55.85
807.377	55.84
807.766	55.84
808.155	55.82
808.544	55.85
808.933	55.84
809.321	55.82
809.71	55.84
810.098	55.83
810.487	55.8
810.875	55.81
811.264	55.79
811.652	55.78
812.04	55.76
812.428	55.81
812.816	55.79
813.204	55.78
813.592	55.79
813.98	55.77
814.368	55.81
814.756	55.81
815.144	55.81
815.531	55.82
815.919	55.81
816.306	55.8
816.694	55.78
817.081	55.78
817.469	55.81
817.856	55.81
818.243	55.79
818.63	55.76
819.017	55.77
819.404	55.74
819.791	55.74
820.178	55.76
820.565	55.76
820.952	55.76
821.339	55.74
821.725	55.71
822.112	55.71
822.498	55.76
822.885	55.77
823.271	55.75
823.657	55.71
824.044	55.75
824.43	55.72
824.816	55.72
825.202	55.72
825.588	55.7
825.974	55.7
826.36	55.69
826.746	55.65
827.132	55.64
827.517	55.66
827.903	55.71
828.289	55.7
828.674	55.71
829.06	55.72
829.445	55.71
829.83	55.72
830.216	55.69
830.601	55.7
830.986	55.7
831.371	55.68
831.756	55.7
832.141	55.66
832.526	55.66
832.911	55.67
833.295	55.66
833.68	55.68
834.065	55.7
834.449	55.73
834.834	55.72
835.218	55.71
835.603	55.71
835.987	55.69
836.371	55.7
836.755	55.67
837.139	55.64
837.524	55.64
837.908	55.64
838.291	55.65
838.675	55.63
839.059	55.62
839.443	55.61
839.827	55.61
840.21	55.6
840.594	55.61
840.977	55.61
841.361	55.6
841.744	55.59
842.127	55.55
842.511	55.51
842.894	55.5
843.277	55.51
843.66	55.49
844.043	55.51
844.426	55.5
844.809	55.49
845.191	55.5
845.574	55.49
845.957	55.5
846.339	55.5
846.722	55.53
847.104	55.55
847.487	55.53
847.869	55.54
848.252	55.52
848.634	55.53
849.016	55.52
849.398	55.52
849.78	55.53
850.162	55.51
850.544	55.53
850.926	55.53
851.307	55.52
851.689	55.53
852.071	55.56
852.452	55.55
852.834	55.56
853.215	55.54
853.597	55.54
853.978	55.53
854.359	55.56
854.741	55.54
855.122	55.51
855.503	55.51
855.884	55.49
856.265	55.47
856.646	55.46
857.026	55.45
857.407	55.46
857.788	55.44
858.169	55.46
858.549	55.45
858.93	55.46
859.31	55.47
859.69	55.47
860.071	55.5
860.451	55.49
860.831	55.49
861.211	55.47
861.591	55.45
861.971	55.43
862.351	55.43
862.731	55.43
863.111	55.41
863.491	55.41
863.87	55.4
864.25	55.34
864.629	55.34
865.009	55.34
865.388	55.33
865.768	55.33
866.147	55.35
866.526	55.35
866.905	55.33
867.284	55.34
867.663	55.35
868.042	55.35
868.421	55.39
868.8	55.4
869.179	55.38
869.558	55.39
869.936	55.4
870.315	55.39
870.693	55.39
871.072	55.41
871.45	55.42
871.828	55.4
872.207	55.4
872.585	55.37
872.963	55.36
873.341	55.36
873.719	55.38
874.097	55.38
874.475	55.4
874.853	55.4
875.23	55.4
875.608	55.39
875.986	55.42
876.363	55.43
876.741	55.46
877.118	55.47
877.495	55.48
877.873	55.46
878.25	55.5
878.627	55.5
879.004	55.51
879.381	55.5
879.758	55.48
880.135	55.44
880.512	55.44
880.889	55.41
881.265	55.4
881.642	55.39
882.019	55.39
882.395	55.34
882.772	55.34
883.148	55.31
883.524	55.27
883.901	55.27
884.277	55.25
884.653	55.23
885.029	55.22
885.405	55.21
885.781	55.22
886.157	55.2
886.532	55.21
886.908	55.18
887.284	55.18
887.659	55.16
888.035	55.16
888.411	55.16
888.786	55.17
889.161	55.17
889.537	55.14
889.912	55.13
890.287	55.14
890.662	55.12
891.037	55.14
891.412	55.13
891.787	55.12
892.162	55.11
892.536	55.08
892.911	55.08
893.286	55.09
893.66	55.1
894.035	55.1
894.409	55.07
894.784	55.1
895.158	55.06
895.532	55.06
895.906	55.06
896.281	55.08
896.655	55.07
897.029	55.07
897.402	55.04
897.776	55.04
898.15	55.04
898.524	55.06
898.898	55.02
899.271	55.02
899.645	55.04
900.018	55.05
900.392	55.07
900.765	55.1
901.138	55.1
901.511	55.12
901.884	55.14
902.258	55.16
902.631	55.17
903.003	55.24
903.376	55.25
903.749	55.25
904.122	55.27
904.495	55.25
904.867	55.26
905.24	55.26
905.612	55.3
905.985	55.26
906.357	55.25
906.729	55.23
907.102	55.2
907.474	55.21
907.846	55.21
908.218	55.2
908.59	55.22
908.962	55.23
909.334	55.24
909.705	55.2
910.077	55.22
910.449	55.22
910.82	55.24
911.192	55.25
911.563	55.24
911.935	55.23
912.306	55.24
912.677	55.22
913.048	55.21
913.419	55.2
913.79	55.21
914.161	55.21
914.532	55.2
914.903	55.2
915.274	55.18
915.645	55.21
916.015	55.2
916.386	55.2
916.756	55.2
917.127	55.22
917.497	55.22
917.868	55.23
918.238	55.23
918.608	55.27
918.978	55.27
919.348	55.31
919.718	55.28
920.088	55.3
920.458	55.29
920.828	55.28
921.198	55.24
921.567	55.24
921.937	55.24
922.306	55.24
922.676	55.2
923.045	55.18
923.415	55.13
923.784	55.11
924.153	55.09
924.522	55.09
924.891	55.11
925.26	55.12
925.629	55.11
925.998	55.07
926.367	55.09
926.736	55.08
927.104	55.09
927.473	55.08
927.842	55.05
928.21	55.03
928.578	55
928.947	54.99
929.315	54.95
929.683	54.93
930.051	54.9
930.42	54.87
930.788	54.84
931.156	54.8
931.523	54.77
931.891	54.78
932.259	54.78
932.627	54.76
932.994	54.75
933.362	54.77
933.729	54.77
934.097	54.78
934.464	54.79
934.831	54.79
935.199	54.84
935.566	54.89
935.933	54.85
936.3	54.82
936.667	54.82
937.034	54.83
937.401	54.82
937.767	54.79
938.134	54.76
938.501	54.74
938.867	54.81
939.234	54.78
939.6	54.74
939.967	54.79
940.333	54.82
940.699	54.85
941.065	54.76
941.431	54.78
941.798	54.79
942.163	54.81
942.529	54.8
942.895	54.77
943.261	54.74
943.627	54.7
943.992	54.7
944.358	54.68
944.723	54.64
945.089	54.61
945.454	54.6
945.82	54.59
946.185	54.57
946.55	54.51
946.915	54.42
947.28	54.41
947.645	54.4
948.01	54.38
948.375	54.33
948.74	54.27
949.104	54.28
949.469	54.22
949.834	54.18
950.198	54.16
950.562	54.15
950.927	54.13
951.291	54.03
951.655	54
952.02	53.98
952.384	53.94
952.748	53.96
953.112	53.99
953.476	53.94
953.839	53.86
954.203	53.84
954.567	53.8
954.931	53.78
955.294	53.77
955.658	53.79
956.021	53.76
956.385	53.74
956.748	53.71
957.111	53.66
957.474	53.71
957.837	53.76
958.2	53.77
958.563	53.74
958.926	53.72
959.289	53.72
959.652	53.71
960.015	53.73
960.377	53.73
960.74	53.77
961.102	53.83
961.465	53.86
961.827	53.91
962.189	53.89
962.552	53.92
962.914	53.94
963.276	54.01
963.638	54.01
964	53.98
964.362	54.01
964.724	53.96
965.085	53.89
965.447	53.81
965.809	53.75
966.17	53.74
966.532	53.72
966.893	53.68
967.255	53.68
967.616	53.69
967.977	53.72
968.338	53.68
968.699	53.71
969.061	53.72
969.421	53.75
969.782	53.78
970.143	53.79
970.504	53.83
970.865	53.9
971.225	53.82
971.586	53.79
971.946	53.75
972.307	53.77
972.667	53.71
973.027	53.75
973.388	53.76
973.748	53.75
974.108	53.77
974.468	53.69
974.828	53.69
975.188	53.72
975.548	53.71
975.907	53.74
976.267	53.7
976.627	53.76
976.986	53.72
977.346	53.67
977.705	53.7
978.064	53.66
978.424	53.74
978.783	53.63
979.142	53.65
979.501	53.68
979.86	53.69
980.219	53.73
980.578	53.73
980.937	53.76
981.296	53.77
981.654	53.71
982.013	53.73
982.371	53.68
982.73	53.75
983.088	53.7
983.447	53.69
983.805	53.68
984.163	53.64
984.521	53.62
984.879	53.56
985.237	53.54
985.595	53.56
985.953	53.58
986.311	53.52
986.669	53.5
987.026	53.54
987.384	53.49
987.741	53.46
988.099	53.5
988.456	53.54
988.814	53.65
989.171	53.68
989.528	53.67
989.885	53.63
990.242	53.67
990.599	53.77
990.956	53.8
991.313	53.89
991.67	53.93
992.027	54.03
992.383	53.96
992.74	54
993.096	54.07
993.453	54.03
993.809	54.05
994.165	54.1
994.522	54.03
994.878	54.08
995.234	54
995.59	54.02
995.946	53.93
996.302	53.96
996.658	53.84
997.013	53.68
997.369	53.79
997.725	53.86
998.08	53.89
998.436	53.9
998.791	53.86
999.147	53.9
999.502	53.96
999.857	53.91
1000.212	53.87
1000.567	53.92
1000.922	53.97
1001.277	53.91
1001.632	53.86
1001.987	53.89
1002.342	53.96
1002.696	54.04
1003.051	54.2
1003.406	54.22
1003.76	54.34
1004.114	54.39
1004.469	54.39
1004.823	54.76
1005.177	54.71
1005.531	54.8
1005.885	54.86
1006.239	54.87
1006.593	54.94
1006.947	54.9
1007.301	54.78
1007.655	54.67
1008.008	54.64
1008.362	54.68
1008.715	54.46
1009.069	54.6
1009.422	54.57
1009.776	54.5
1010.129	54.47
1010.482	54.37
1010.835	54.36
1011.188	54.51
1011.541	54.62
1011.894	54.76
1012.247	54.75
1012.6	54.88
1012.952	54.86
1013.305	54.96
1013.657	55.09
1014.01	55.06
1014.362	54.96
1014.715	55.11
1015.067	55.05
1015.419	55.26
1015.771	55.1
1016.123	55.39
1016.475	55.36
1016.827	55.37
1017.179	55.32
1017.531	55.31
1017.883	55.38
1018.234	55.59
1018.586	55.5
1018.938	55.74
1019.289	55.54
1019.64	55.71
1019.992	55.58
1020.343	55.6
1020.694	55.66
1021.045	55.74
1021.396	55.82
1021.747	55.97
1022.098	56.02
1022.449	55.95
1022.8	55.96
1023.151	55.8
1023.501	55.94
1023.852	56.08
1024.202	55.97
1024.553	55.95
1024.903	55.96
1025.253	56.07
1025.604	56.16
1025.954	56.09
1026.304	56.2
1026.654	56.2
1027.004	56.39
1027.354	56.11
1027.703	55.91
1028.053	55.98
1028.403	56.15
1028.753	55.93
1029.102	55.96
1029.452	55.93
1029.801	56.09
1030.15	56.03
1030.499	55.87
897.758	1269.89
901.051	1280.95
904.343	1274.74
907.636	1300.03
910.928	1260.75
914.22	1263.71
917.511	1247.19
920.803	1194.5
924.094	1187.9
927.384	1161.6
930.675	1118.75
933.965	1110.84
937.255	1043.37
940.544	1003.57
943.834	956.38
947.123	951.95
950.411	893.65
953.7	875.67
956.988	825.61
960.276	797.3
963.563	783.12
966.851	752.72
970.138	747.98
973.424	725.35
976.711	726.68
979.997	692.81
983.283	688.9
986.568	675.23
989.853	655.74
993.138	645.68
996.423	619.31
999.708	603.57
1002.992	598.64
1006.275	571.07
1009.559	566.09
1012.842	547.36
1016.125	530.64
1019.408	521.58
1022.69	515.49
1025.972	504.21
1029.254	492.65
1032.536	484.61
1035.817	474.28
1039.098	467.54
1042.379	459.84
1045.659	453.93
1048.939	442.85
1052.219	434.39
1055.498	427.78
1058.778	417.52
1062.057	408.85
1065.335	405.39
1068.614	400.46
1071.892	397.12
1075.17	384.05
1078.447	375.86
1081.724	373.98
1085.001	371.98
1088.278	364.6
1091.554	356.66
1094.83	357.06
1098.106	355.23
1101.382	351.6
1104.657	349.43
1107.932	342.36
1111.206	344.78
1114.481	337.44
1117.755	333.8
1121.029	330.82
1124.302	330.35
1127.575	324.65
1130.848	320.4
1134.121	316.83
1137.393	314.68
1140.665	308.14
1143.937	306.63
1147.208	305.19
1150.48	303.67
1153.75	300.93
1157.021	296.28
1160.291	296.48
1163.561	293.46
1166.831	293.84
1170.101	290.81
1173.37	290.71
1176.639	291.53
1179.907	288.77
1183.176	285.04
1186.444	284.71
1189.711	283.33
1192.979	283.05
1196.246	281.54
1199.513	281.95
1202.78	280.54
1206.046	280.68
1209.312	277.29
1212.578	277.3
1215.843	280.07
1219.108	278.7
1222.373	284.03
1225.638	286.56
1228.902	289.93
1232.166	289.39
1235.43	292.72
1238.693	295.71
1241.956	297.22
1245.219	302.83
1248.482	303.28
1251.744	302.8
1255.006	303.9
1258.268	296.66
1261.529	294
1264.79	292.63
1268.051	291.55
1271.312	287.66
1274.572	283.92
1277.832	281.99
1281.092	276.4
1284.351	273.85
1287.61	274.18
1290.869	269.97
1294.128	268.54
1297.386	268.64
1300.644	265.1
1303.902	266.16
1307.159	264.76
1310.416	264.95
1313.673	263.84
1316.93	267.15
1320.186	267.42
1323.442	267.54
1326.697	271.95
1329.953	272.96
1333.208	273.44
1336.463	276.88
1339.717	276.75
1342.972	280.09
1346.226	282.87
1349.479	283.68
1352.733	284.72
1355.986	286.59
1359.238	286.76
1362.491	287.47
1365.743	289.79
1368.995	290.24
1372.247	289.66
1375.498	289.37
1378.749	291.39
1382	287.24
1385.251	287.7
1388.501	286.09
1391.751	285.98
1395	284.16
1398.25	282.3
1401.499	279.9
1404.748	278.79
1407.996	276.02
1411.244	274.75
1414.492	272.7
1417.74	269.92
1420.987	265.51
1424.234	265.2
1427.481	261.44
1430.728	261.22
1433.974	259.15
1437.22	256.59
1440.465	255.92
1443.711	253.29
1446.956	251.63
1450.201	248.53
1453.445	246.37
1456.689	246.28
1459.933	241.14
1463.177	238.82
1466.42	235.1
1469.663	231.95
1472.906	230.96
1476.148	224.54
1479.391	223
1482.633	220.88
1485.874	217.31
1489.115	215.69
1492.356	212.95
1495.597	213.04
1498.838	210.29
1502.078	208.93
1505.318	207.84
1508.557	207.89
1511.797	207.53
1515.036	205.55
1518.274	205.22
1521.513	204.25
1524.751	203.69
1527.989	203.47
1531.227	202.38
1534.464	203.07
1537.701	201.49
1540.938	201.27
1544.174	198.47
1547.41	199.2
1550.646	197.96
1553.882	198.11
1557.117	195.4
1560.352	194.63
1563.587	194.18
1566.821	192.92
1570.055	191.79
1573.289	190.41
1576.523	190.31
1579.756	189.23
1582.989	187.77
1586.222	187.93
1589.454	186.05
1592.686	187.63
1595.918	186.88
1599.15	186.31
1602.381	186.58
1605.612	185.68
1608.843	186.95
1612.073	186.56
1615.303	187.82
1618.533	187.85
1621.762	187.75
1624.992	188.61
1628.221	188.41
1631.449	188.4
1634.678	187.99
1637.906	188.82
1641.134	188.97
1644.361	188.67
1647.588	189.39
1650.815	188.45
1654.042	188.03
1657.269	189
1660.495	189.05
1663.72	188.49
1666.946	189.52
1670.171	189.81
1673.396	190.08
1676.621	190.06
1679.845	190.53
1683.069	190.19
1686.293	191.47
1689.517	192.8
1692.74	192.56
1695.963	192.82
1699.185	194.56
1702.408	194.2
1705.63	194.96
1708.852	195.14
1712.073	195.38
1715.294	195.65
1718.515	196.92
1721.736	196.31
1724.956	196.33
1728.176	196.42
1731.396	198.33
1734.616	198
1737.835	198.82
1741.054	197.92
1744.272	198.02
1747.491	200.05
1750.709	200.26
1753.927	199.8
1757.144	199.51
1760.361	200.07
1763.578	200.6
1766.795	199.92
1770.011	201.25
1773.227	200.94
1776.443	203.08
1779.658	204.16
1782.874	203.63
1786.089	204.43
1789.303	205.1
1792.518	208.3
1795.732	208.36
1798.945	209.97
1802.159	210.49
1805.372	210.66
1808.585	214.6
1811.797	215.24
1815.01	215.63
1818.222	217.43
1821.434	218.54
1824.645	219.46
1827.856	222.71
1831.067	223.92
1834.278	223.54
1837.488	225.06
1840.698	226.93
1843.908	224.48
1847.117	225.7
1850.326	226.72
1853.535	226.46
1856.744	229.35
1859.952	229.47
1863.16	226.56
1866.368	226.3
1869.575	228.05
1872.782	224.34
1875.989	223.59
1879.196	222.64
1882.402	220.86
1885.608	221.29
1888.814	220.99
1892.019	220.63
1895.224	219.27
1898.429	218.78
1901.634	219.42
1904.838	220.48
1908.042	222.46
1911.246	222.78
1914.449	224.48
1917.652	224.49
1920.855	224.08
1924.058	224.26
1927.26	222.97
1930.462	223.5
1933.664	226.32
1936.865	224.41
1940.066	222.79
1943.267	221.8
1946.467	221.46
1949.668	222.77
1952.868	225.17
1956.067	225.18
1959.267	225.08
1962.466	225.81
1965.665	225.53
1968.863	225.23
1972.061	228.6
1975.259	231.16
1978.457	232.56
1981.654	234.7
1984.852	234.67
1988.048	233.89
1991.245	236.97
1994.441	239.25
1997.637	241.23
2000.833	245.97
2004.028	249.69
2007.223	249.98
2010.418	253.12
2013.613	257.21
2016.807	259.52
2020.001	262.24
2023.194	267.35
2026.388	272.25
2029.581	278.75
2032.774	280.75
2035.966	286.11
2039.158	286.65
2042.35	292.36
2045.542	293.79
2048.733	299.28
2051.924	303
2055.115	308.19
2058.306	307.69
2061.496	311.2
2064.686	310.35
2067.875	316.73
2071.065	317.29
2074.254	315.51
2077.442	320.61
2080.631	321.74
2083.819	324.77
2087.007	325.25
2090.195	329.1
2093.382	331.78
2096.569	329.75
2099.756	335.02
2102.942	334.94
2106.128	338.02
2109.314	346.6
2112.5	344.27
2115.685	351.6
2118.87	351.67
2122.055	358.74
2125.239	360.52
2128.424	365.7
2131.608	369.48
2134.791	374.6
2137.974	376.85
2141.157	378.48
2144.34	378.37
2147.523	384.44
2150.705	382.26
2153.887	387.19
2157.068	388.3
2160.25	383.83
2163.431	386.27
2166.611	391.14
2169.792	398.4
2172.972	402.62
2176.152	404.87
2179.331	410.73
2182.511	417.25
2185.69	421.65
2188.868	429.89
2192.047	431.25
2195.225	446.26
2198.403	456.28
2201.58	464.08
2204.758	472.05
2207.935	482.18
2211.111	491.28
2214.288	496.43
2217.464	497.17
2220.64	505.89
2223.815	512.81
2226.991	534.34
2230.166	534.65
2233.34	542.52
2236.515	550.34
2239.689	552.41
2242.863	554.64
2246.036	570.21
2249.209	567.92
2252.382	578.96
2255.555	595.1
2258.727	596.3
2261.9	599.19
2265.071	605.76
2268.243	616.92
2271.414	622.64
2274.585	636.93
2277.756	643.48
2280.926	648.74
2284.096	662.3
2287.266	676.61
2290.436	681.82
2293.605	697.86
2296.774	716.24
2299.942	739.36
2303.111	741.47
2306.279	759.56
2309.447	769.36
2312.614	786.78
2315.781	807.72
2318.948	845.35
2322.115	832.42
2325.281	879.29
2328.447	859.27
2331.613	894.34
2334.779	882.52
2337.944	923.8
2341.109	932.83
2344.274	958.75
2347.438	994.24
2350.602	993.52
2353.766	1025.79
2356.929	1040.75
2360.092	1032.76
2363.255	1108.99
2366.418	1107.17
2369.58	1129.93
2372.742	1199.38
2375.904	1229.8
2379.066	1219.82
2382.227	1200.11
2385.388	1302.69
2388.548	1300.71
2391.709	1319.61
2394.869	1469.81
2398.029	1402.29
2401.188	1447.08
2404.347	1431.26
2407.506	1406.27
2410.665	1445.33
2413.823	1531.64
2416.981	1621.16
2420.139	1569.5
2423.296	1556.65
2426.453	1622.33
2429.61	1555.31
2432.767	1631.3
2435.923	1609.1
2439.079	1768.13
2442.235	1790.45
2445.391	1774.14
2448.546	1764.96
2451.701	1715.2
2454.855	1709.75
2458.009	1809.16
2461.163	1889.39
2464.317	1967.87
2467.471	2016.32
2470.624	2014.59
2473.777	1964.65
2476.929	1918.1
2480.082	1861.39
2483.234	1839.73
2486.385	1935.37
2489.537	1943.63
2492.688	2012.85
2495.839	1957.23
2498.989	1907.75
2502.14	1922.64
2505.29	1942.91
2508.439	1972.44
2511.589	1966.41
2514.738	2148.91
2517.887	2101.55
2521.035	2210.21
2524.183	2236.2
2527.331	2254.85
2530.479	2238.05
2533.627	2259.88
