Data from C_2_DIV_OH_2N_Splice17_13-25-32-708.txt Node
Date: Sat Mar 07 13:25:32 EST 2020
User: sa697716
Spectrometer: NQ5500242
Trigger mode: 0
Integration Time (sec): 1.450000E-1
Scans to average: 20
Nonlinearity correction enabled: false
Boxcar width: 5
Storing dark spectrum: false
XAxis mode: Wavelengths
Number of Pixels in Spectrum: 512
>>>>>Begin Spectral Data<<<<<
187.83	171.76
188.298	157.43
188.766	129.2
189.233	117.47
189.701	116.46
190.169	155.64
190.636	170.1
191.104	275.14
191.571	426.42
192.039	228.03
192.506	-92.85
192.974	53.55
193.441	-48.11
193.908	-74.34
194.375	-3.84
194.842	-40.96
195.31	33.16
195.777	-12.96
196.244	47.78
196.711	49.68
197.177	50.2
197.644	48.91
198.111	48.79
198.578	48.41
199.045	48.57
199.511	47.98
199.978	48.1
200.445	48.43
200.911	48.19
201.378	48.07
201.844	47.87
202.31	47.28
202.777	46.97
203.243	46.97
203.709	46.75
204.176	46.31
204.642	46.32
205.108	46.11
205.574	45.47
206.04	45.18
206.506	45.01
206.972	44.77
207.438	44.93
207.903	44.7
208.369	43.84
208.835	43.26
209.301	42.56
209.766	41.49
210.232	40.58
210.697	39.73
211.163	38.84
211.628	37.9
212.094	37.08
212.559	36.21
213.024	35.45
213.49	34.81
213.955	34.13
214.42	33.66
214.885	33.18
215.35	32.25
215.815	31.22
216.28	29.8
216.745	28.19
217.21	26.57
217.675	24.98
218.14	23.66
218.604	22.52
219.069	21.54
219.534	20.68
219.998	19.94
220.463	19.4
220.927	18.84
221.392	18.43
221.856	18.05
222.32	17.72
222.785	17.47
223.249	17.21
223.713	16.95
224.177	16.7
224.642	16.47
225.106	16.23
225.57	15.97
226.034	15.76
226.497	15.55
226.961	15.36
227.425	15.17
227.889	14.95
228.353	14.74
228.816	14.53
229.28	14.32
229.744	14.14
230.207	13.94
230.671	13.75
231.134	13.57
231.597	13.41
232.061	13.24
232.524	13.07
232.987	12.93
233.45	12.78
233.914	12.65
234.377	12.51
234.84	12.36
235.303	12.24
235.766	12.13
236.229	11.99
236.691	11.85
237.154	11.72
237.617	11.62
238.08	11.49
238.542	11.37
239.005	11.26
239.468	11.15
239.93	11.04
240.393	10.95
240.855	10.82
241.317	10.72
241.78	10.62
242.242	10.51
242.704	10.42
243.166	10.32
243.629	10.23
244.091	10.12
244.553	10.01
245.015	9.91
245.477	9.81
245.939	9.72
246.4	9.62
246.862	9.54
247.324	9.46
247.786	9.37
248.247	9.27
248.709	9.18
249.17	9.09
249.632	9.03
250.093	8.96
250.555	8.87
251.016	8.81
251.477	8.74
251.939	8.67
252.4	8.6
252.861	8.52
253.322	8.46
253.783	8.41
254.244	8.35
254.705	8.27
255.166	8.21
255.627	8.15
256.088	8.09
256.549	8.03
257.009	7.96
257.47	7.9
257.931	7.83
258.391	7.78
258.852	7.7
259.312	7.65
259.773	7.59
260.233	7.55
260.694	7.49
261.154	7.44
261.614	7.4
262.074	7.33
262.534	7.29
262.994	7.25
263.455	7.21
263.915	7.18
264.374	7.15
264.834	7.12
265.294	7.08
265.754	7.06
266.214	7.02
266.673	6.98
267.133	6.97
267.593	6.94
268.052	6.92
268.512	6.89
268.971	6.87
269.431	6.83
269.89	6.81
270.349	6.78
270.809	6.75
271.268	6.74
271.727	6.72
272.186	6.69
272.645	6.67
273.104	6.65
273.563	6.63
274.022	6.6
274.481	6.59
274.94	6.56
275.399	6.54
275.857	6.52
276.316	6.5
276.775	6.47
277.233	6.46
277.692	6.43
278.15	6.41
278.609	6.39
279.067	6.37
279.525	6.35
279.984	6.33
280.442	6.31
280.9	6.29
281.358	6.28
281.816	6.26
282.274	6.23
282.732	6.21
283.19	6.18
283.648	6.15
284.106	6.13
284.564	6.11
285.021	6.09
285.479	6.07
285.937	6.04
286.394	6.01
286.852	5.98
287.309	5.97
287.767	5.95
288.224	5.92
288.682	5.9
289.139	5.87
289.596	5.85
290.053	5.81
290.511	5.78
290.968	5.75
291.425	5.72
291.882	5.7
292.339	5.67
292.796	5.65
293.252	5.63
293.709	5.61
294.166	5.59
294.623	5.57
295.079	5.55
295.536	5.54
295.992	5.52
296.449	5.5
296.905	5.49
297.362	5.47
297.818	5.45
298.274	5.43
298.731	5.41
299.187	5.39
299.643	5.37
300.099	5.35
300.555	5.33
301.011	5.31
301.467	5.29
301.923	5.27
302.379	5.25
302.835	5.24
303.291	5.22
303.746	5.2
304.202	5.2
304.658	5.19
305.113	5.18
305.569	5.17
306.024	5.16
306.479	5.15
306.935	5.13
307.39	5.13
307.845	5.11
308.301	5.11
308.756	5.1
309.211	5.09
309.666	5.08
310.121	5.07
310.576	5.07
311.031	5.06
311.486	5.06
311.94	5.05
312.395	5.04
312.85	5.04
313.305	5.02
313.759	5.01
314.214	5
314.668	4.97
315.123	4.96
315.577	4.95
316.032	4.94
316.486	4.93
316.94	4.92
317.394	4.9
317.849	4.87
318.303	4.85
318.757	4.84
319.211	4.83
319.665	4.81
320.119	4.79
320.572	4.77
321.026	4.75
321.48	4.73
321.934	4.71
322.387	4.69
322.841	4.68
323.295	4.68
323.748	4.66
324.202	4.65
324.655	4.64
325.108	4.63
325.562	4.62
326.015	4.61
326.468	4.61
326.921	4.6
327.374	4.59
327.827	4.59
328.28	4.58
328.733	4.57
329.186	4.56
329.639	4.56
330.092	4.55
330.545	4.55
330.997	4.54
331.45	4.53
331.903	4.53
332.355	4.54
332.808	4.53
333.26	4.51
333.713	4.5
334.165	4.49
334.617	4.49
335.069	4.48
335.522	4.48
335.974	4.48
336.426	4.47
336.878	4.46
337.33	4.44
337.782	4.44
338.234	4.45
338.686	4.45
339.137	4.45
339.589	4.44
340.041	4.43
340.493	4.42
340.944	4.39
341.396	4.38
341.847	4.38
342.299	4.35
342.75	4.33
343.201	4.3
343.653	4.28
344.104	4.26
344.555	4.24
345.006	4.23
345.457	4.21
345.908	4.2
346.359	4.2
346.81	4.19
347.261	4.18
347.712	4.17
348.163	4.17
348.613	4.18
349.064	4.17
349.515	4.17
349.965	4.17
350.416	4.16
350.866	4.15
351.317	4.14
351.767	4.13
352.217	4.13
352.668	4.14
353.118	4.13
353.568	4.12
354.018	4.12
354.468	4.13
354.918	4.12
355.368	4.13
355.818	4.14
356.268	4.12
356.718	4.13
357.168	4.13
357.617	4.11
358.067	4.1
358.517	4.11
358.966	4.11
359.416	4.1
359.865	4.09
360.315	4.09
360.764	4.09
361.213	4.08
361.663	4.06
362.112	4.06
362.561	4.08
363.01	4.07
363.459	4.05
363.908	4.03
364.357	4.02
364.806	4.02
365.255	4.01
365.703	4.01
366.152	4.01
366.601	4.02
367.05	4.02
367.498	4
367.947	4
368.395	4.01
368.844	4.02
369.292	4.02
369.74	4.02
370.189	4.01
370.637	4
371.085	3.99
371.533	3.98
371.981	3.96
372.429	3.96
372.877	3.95
373.325	3.94
373.773	3.93
374.221	3.92
374.669	3.91
375.116	3.9
375.564	3.9
376.012	3.9
376.459	3.89
376.907	3.9
377.354	3.9
377.801	3.9
378.249	3.89
378.696	3.89
379.143	3.88
379.591	3.88
380.038	3.88
380.485	3.88
380.932	3.87
381.379	3.87
381.826	3.86
382.273	3.85
382.72	3.84
383.166	3.84
383.613	3.84
384.06	3.83
384.506	3.82
384.953	3.82
385.4	3.81
385.846	3.82
386.292	3.81
386.739	3.8
387.185	3.79
387.631	3.79
388.078	3.78
388.524	3.78
388.97	3.77
389.416	3.77
389.862	3.78
390.308	3.78
390.754	3.78
391.2	3.79
391.645	3.79
392.091	3.81
392.537	3.82
392.983	3.82
393.428	3.83
393.874	3.84
394.319	3.84
394.765	3.84
395.21	3.83
395.655	3.83
396.101	3.83
396.546	3.84
396.991	3.84
397.436	3.83
397.881	3.85
398.326	3.86
398.771	3.86
399.216	3.86
399.661	3.88
400.106	3.89
400.551	3.9
400.995	3.9
401.44	3.91
401.885	3.91
402.329	3.93
402.774	3.93
403.218	3.95
403.663	3.97
404.107	3.98
404.551	3.99
404.995	4
405.44	4
405.884	4.01
406.328	4.01
406.772	4.02
407.216	4.03
407.66	4.03
408.104	4.02
408.547	4.02
408.991	4.03
409.435	4.03
409.879	4.04
410.322	4.07
410.766	4.09
411.209	4.11
411.653	4.13
412.096	4.14
412.54	4.15
412.983	4.16
413.426	4.2
413.869	4.21
414.312	4.24
414.756	4.25
415.199	4.25
415.642	4.26
416.085	4.26
416.527	4.25
416.97	4.25
417.413	4.25
417.856	4.26
418.298	4.25
418.741	4.25
419.184	4.24
419.626	4.25
420.069	4.25
420.511	4.27
420.953	4.27
421.396	4.29
421.838	4.3
422.28	4.31
422.722	4.33
423.164	4.34
423.606	4.34
424.048	4.34
424.49	4.35
424.932	4.35
425.374	4.33
425.816	4.31
426.258	4.3
426.699	4.29
427.141	4.28
427.582	4.28
428.024	4.27
428.465	4.28
428.907	4.28
429.348	4.26
429.789	4.27
430.231	4.29
430.672	4.31
431.113	4.34
431.554	4.35
431.995	4.37
432.436	4.37
432.877	4.38
433.318	4.4
433.759	4.42
434.2	4.47
434.64	4.48
435.081	4.5
435.522	4.52
435.962	4.52
436.403	4.54
436.843	4.55
437.284	4.55
437.724	4.56
438.164	4.55
438.604	4.55
439.045	4.54
439.485	4.55
439.925	4.55
440.365	4.54
440.805	4.55
441.245	4.56
441.685	4.57
442.125	4.59
442.564	4.6
443.004	4.61
443.444	4.61
443.883	4.62
444.323	4.62
444.762	4.61
445.202	4.63
445.641	4.64
446.081	4.64
446.52	4.64
446.959	4.67
447.398	4.69
447.837	4.7
448.276	4.71
448.716	4.73
449.154	4.75
449.593	4.78
450.032	4.79
450.471	4.79
450.91	4.79
451.349	4.79
451.787	4.76
452.226	4.75
452.664	4.74
453.103	4.73
453.541	4.72
453.98	4.73
454.418	4.7
454.856	4.7
455.295	4.69
455.733	4.68
456.171	4.68
456.609	4.67
457.047	4.65
457.485	4.64
457.923	4.64
458.361	4.63
458.798	4.61
459.236	4.61
459.674	4.6
460.111	4.6
460.549	4.61
460.987	4.6
461.424	4.61
461.862	4.61
462.299	4.62
462.736	4.61
463.173	4.61
463.611	4.62
464.048	4.63
464.485	4.63
464.922	4.63
465.359	4.62
465.796	4.64
466.233	4.64
466.67	4.66
467.106	4.67
467.543	4.66
467.98	4.66
468.416	4.64
468.853	4.64
469.29	4.64
469.726	4.63
470.162	4.62
470.599	4.6
471.035	4.59
471.471	4.57
471.907	4.55
472.344	4.54
472.78	4.54
473.216	4.53
473.652	4.53
474.088	4.52
474.523	4.51
474.959	4.51
475.395	4.5
475.831	4.49
476.266	4.49
476.702	4.49
477.138	4.49
477.573	4.48
478.008	4.49
478.444	4.48
478.879	4.48
479.314	4.46
479.75	4.46
480.185	4.45
480.62	4.44
481.055	4.43
481.49	4.43
481.925	4.43
482.36	4.44
482.795	4.41
483.229	4.42
483.664	4.42
484.099	4.41
484.534	4.41
484.968	4.42
485.403	4.41
485.837	4.42
486.271	4.42
486.706	4.42
487.14	4.42
487.574	4.44
488.009	4.44
488.443	4.45
488.877	4.48
489.311	4.5
489.745	4.52
490.179	4.55
490.613	4.59
491.046	4.62
491.48	4.65
491.914	4.68
492.348	4.71
492.781	4.76
493.215	4.79
493.648	4.83
494.082	4.87
494.515	4.92
494.948	4.96
495.382	4.99
495.815	5.06
496.248	5.12
496.681	5.18
497.114	5.25
497.547	5.31
497.98	5.38
498.413	5.45
498.846	5.52
499.279	5.59
499.711	5.68
500.144	5.77
500.577	5.86
501.009	5.94
501.442	6.05
501.874	6.16
502.306	6.27
502.739	6.41
503.171	6.54
503.603	6.68
504.036	6.82
504.468	6.96
504.9	7.11
505.332	7.27
505.764	7.43
506.196	7.6
506.627	7.78
507.059	7.96
507.491	8.13
507.923	8.32
508.354	8.53
508.786	8.75
509.217	8.97
509.649	9.2
510.08	9.43
510.512	9.67
510.943	9.9
511.374	10.16
511.805	10.41
512.237	10.67
512.668	10.92
513.099	11.18
513.53	11.43
513.961	11.71
514.391	11.99
514.822	12.29
515.253	12.56
515.684	12.85
516.114	13.13
516.545	13.41
516.975	13.72
517.406	14.02
517.836	14.31
518.267	14.61
518.697	14.88
519.127	15.16
519.558	15.44
519.988	15.73
520.418	16.01
520.848	16.29
521.278	16.57
521.708	17.01
522.138	17.28
522.567	17.55
522.997	17.8
523.427	18.07
523.857	18.31
524.286	18.54
524.716	18.78
525.145	19.01
525.575	19.23
526.004	19.44
526.433	19.49
526.863	19.68
527.292	19.88
527.721	20.06
528.15	20.24
528.579	20.42
529.008	20.61
529.437	20.76
529.866	20.9
530.295	21.05
530.724	21.19
531.152	21.31
531.581	21.44
532.01	21.57
532.438	21.69
532.867	21.8
533.295	21.9
533.723	21.99
534.152	22.1
534.58	22.19
535.008	22.27
535.436	22.35
535.865	22.41
536.293	22.48
536.721	22.53
537.149	22.58
537.576	22.63
538.004	22.69
538.432	22.73
538.86	22.77
539.287	22.8
539.715	22.85
540.143	22.89
540.57	22.93
540.998	22.96
541.425	23.01
541.852	23.04
542.28	23.07
542.707	23.09
543.134	23.12
543.561	23.15
543.988	23.17
544.415	23.19
544.842	23.19
545.269	23.23
545.696	23.24
546.123	23.24
546.549	23.27
546.976	23.3
547.403	23.32
547.829	23.33
548.256	23.34
548.682	23.35
549.108	23.38
549.535	23.41
549.961	23.39
550.387	23.39
550.813	23.41
551.24	23.4
551.666	23.4
552.092	23.39
552.518	23.37
552.943	23.36
553.369	23.34
553.795	23.3
554.221	23.26
554.646	23.23
555.072	23.19
555.498	23.12
555.923	23.06
556.349	23
556.774	22.93
557.199	22.87
557.625	22.8
558.05	22.72
558.475	22.64
558.9	22.56
559.325	22.48
559.75	22.38
560.175	22.31
560.6	22.2
561.025	22.11
561.449	22.01
561.874	21.89
562.299	21.77
562.723	21.65
563.148	21.52
563.572	21.4
563.997	21.26
564.421	21.12
564.846	20.97
565.27	20.83
565.694	20.68
566.118	20.52
566.542	20.37
566.966	20.21
567.39	20.06
567.814	19.92
568.238	19.75
568.662	19.61
569.086	19.46
569.509	19.31
569.933	19.17
570.357	19.02
570.78	18.87
571.204	18.72
571.627	18.58
572.05	18.44
572.474	18.31
572.897	18.18
573.32	18.04
573.743	17.9
574.166	17.78
574.589	17.65
575.012	17.53
575.435	17.41
575.858	17.3
576.281	17.18
576.704	17.07
577.126	16.96
577.549	16.85
577.972	16.75
578.394	16.64
578.817	16.55
579.239	16.46
579.661	16.37
580.084	16.3
580.506	16.22
580.928	16.14
581.35	16.06
581.772	15.98
582.194	15.9
582.616	15.82
583.038	15.75
583.46	15.66
583.882	15.58
584.303	15.48
584.725	15.4
585.147	15.32
585.568	15.24
585.99	15.17
586.411	15.09
586.833	15.02
587.254	14.95
587.675	14.89
588.096	14.84
588.518	14.78
588.939	14.75
589.36	14.69
589.781	14.64
590.202	14.6
590.623	14.56
591.043	14.52
591.464	14.48
591.885	14.44
592.305	14.4
592.726	14.36
593.147	14.32
593.567	14.26
593.987	14.23
594.408	14.19
594.828	14.14
595.248	14.11
595.669	14.08
596.089	14.05
596.509	14.02
596.929	13.98
597.349	13.94
597.769	13.91
598.189	13.88
598.608	13.85
599.028	13.82
599.448	13.78
599.867	13.74
600.287	13.7
600.706	13.65
601.126	13.59
601.545	13.55
601.965	13.5
602.384	13.45
602.803	13.4
603.222	13.34
603.641	13.26
604.061	13.21
604.48	13.14
604.898	13.07
605.317	13.01
605.736	12.96
606.155	12.89
606.574	12.82
606.992	12.75
607.411	12.68
607.829	12.57
608.248	12.49
608.666	12.41
609.085	12.33
609.503	12.25
609.921	12.18
610.339	12.09
610.758	12.01
611.176	11.93
611.594	11.85
612.012	11.77
612.43	11.71
612.847	11.65
613.265	11.59
613.683	11.52
614.101	11.45
614.518	11.38
614.936	11.31
615.353	11.24
615.771	11.17
616.188	11.1
616.606	11.06
617.023	10.99
617.44	10.94
617.857	10.88
618.274	10.82
618.691	10.76
619.108	10.71
619.525	10.66
619.942	10.62
620.359	10.59
620.776	10.55
621.192	10.51
621.609	10.47
622.026	10.44
622.442	10.4
622.859	10.38
623.275	10.36
623.691	10.34
624.108	10.32
624.524	10.31
624.94	10.28
625.356	10.27
625.772	10.26
626.188	10.25
626.604	10.24
627.02	10.23
627.436	10.23
627.852	10.22
628.268	10.21
628.683	10.21
629.099	10.19
629.514	10.17
629.93	10.15
630.345	10.12
630.761	10.1
631.176	10.07
631.591	10.03
632.007	9.99
632.422	9.95
632.837	9.89
633.252	9.83
633.667	9.77
634.082	9.7
634.497	9.63
634.911	9.56
635.326	9.49
635.741	9.41
636.155	9.33
636.57	9.24
636.984	9.15
637.399	9.05
637.813	8.94
638.228	8.84
638.642	8.73
639.056	8.62
639.47	8.51
639.884	8.4
640.298	8.28
640.712	8.16
641.126	8.04
641.54	7.92
641.954	7.81
642.368	7.71
642.781	7.6
643.195	7.5
643.609	7.4
644.022	7.29
644.436	7.19
644.849	7.1
645.262	7
645.676	6.91
646.089	6.82
646.502	6.75
646.915	6.69
647.328	6.62
647.741	6.56
648.154	6.51
648.567	6.46
648.98	6.41
649.393	6.37
649.805	6.34
650.218	6.3
650.631	6.27
651.043	6.23
651.456	6.19
651.868	6.15
652.28	6.11
652.693	6.07
653.105	6.03
653.517	5.98
653.929	5.93
654.341	5.87
654.753	5.82
655.165	5.77
655.577	5.72
655.989	5.66
656.401	5.6
656.813	5.54
657.224	5.47
657.636	5.39
658.047	5.32
658.459	5.26
658.87	5.19
659.282	5.11
659.693	5.04
660.104	4.95
660.515	4.88
660.926	4.81
661.338	4.73
661.749	4.67
662.159	4.61
662.57	4.56
662.981	4.5
663.392	4.44
663.803	4.4
664.213	4.35
664.624	4.31
665.035	4.27
665.445	4.23
665.855	4.19
666.266	4.16
666.676	4.15
667.086	4.11
667.497	4.08
667.907	4.07
668.317	4.05
668.727	4.05
669.137	4.04
669.547	4.03
669.956	4.03
670.366	4.02
670.776	4.01
671.186	4.01
671.595	4.01
672.005	4.02
672.414	4.03
672.824	4.03
673.233	4.04
673.642	4.05
674.052	4.06
674.461	4.07
674.87	4.09
675.279	4.12
675.688	4.13
676.097	4.16
676.506	4.18
676.915	4.2
677.323	4.24
677.732	4.27
678.141	4.31
678.549	4.34
678.958	4.38
679.366	4.43
679.775	4.47
680.183	4.53
680.592	4.59
681	4.67
681.408	4.74
681.816	4.82
682.224	4.91
682.632	5.01
683.04	5.12
683.448	5.24
683.856	5.36
684.264	5.51
684.671	5.68
685.079	5.86
685.487	6.07
685.894	6.29
686.302	6.54
686.709	6.8
687.116	7.09
687.524	7.41
687.931	7.76
688.338	8.15
688.745	8.53
689.152	8.94
689.559	9.38
689.966	9.84
690.373	10.31
690.78	10.81
691.187	11.32
691.593	11.84
692	12.37
692.407	12.92
692.813	13.48
693.22	14.06
693.626	14.65
694.032	15.24
694.439	15.83
694.845	16.44
695.251	17.02
695.657	17.62
696.063	18.21
696.469	18.82
696.875	19.39
697.281	19.99
697.687	20.56
698.093	21.12
698.498	21.69
698.904	22.25
699.31	22.78
699.715	23.35
700.12	23.9
700.526	24.44
700.931	24.96
701.337	25.48
701.742	25.98
702.147	26.48
702.552	26.99
702.957	27.45
703.362	27.94
703.767	28.39
704.172	28.84
704.577	29.28
704.981	29.71
705.386	30.15
705.791	30.59
706.195	31.02
706.6	31.45
707.004	31.82
707.408	32.23
707.813	32.61
708.217	33.02
708.621	33.4
709.025	33.77
709.43	34.12
709.834	34.48
710.237	34.82
710.641	35.15
711.045	35.48
711.449	35.84
711.853	36.18
712.256	36.49
712.66	36.8
713.064	37.11
713.467	37.43
713.87	37.73
714.274	38
714.677	38.3
715.08	38.58
715.484	38.88
715.887	39.14
716.29	39.4
716.693	39.66
717.096	39.93
717.499	40.19
717.901	40.44
718.304	40.69
718.707	40.95
719.109	41.2
719.512	41.41
719.915	41.61
720.317	41.83
720.719	42.02
721.122	42.23
721.524	42.42
721.926	42.61
722.328	42.8
722.731	42.97
723.133	43.15
723.535	43.29
723.937	43.48
724.338	43.64
724.74	43.78
725.142	44.04
725.544	44.17
725.945	44.35
726.347	44.44
726.748	44.59
727.15	44.7
727.551	44.83
727.952	44.94
728.354	45.05
728.755	45.17
729.156	45.27
729.557	45.29
729.958	45.41
730.359	45.48
730.76	45.61
731.161	45.7
731.562	45.8
731.962	45.88
732.363	46
732.763	46.09
733.164	46.17
733.564	46.26
733.965	46.32
734.365	46.4
734.766	46.46
735.166	46.53
735.566	46.61
735.966	46.67
736.366	46.75
736.766	46.78
737.166	46.86
737.566	46.91
737.966	46.95
738.365	47.03
738.765	47.05
739.165	47.1
739.564	47.15
739.964	47.17
740.363	47.19
740.763	47.22
741.162	47.28
741.561	47.3
741.96	47.34
742.36	47.37
742.759	47.38
743.158	47.43
743.557	47.45
743.955	47.48
744.354	47.5
744.753	47.56
745.152	47.59
745.55	47.59
745.949	47.63
746.348	47.66
746.746	47.67
747.144	47.71
747.543	47.71
747.941	47.74
748.339	47.74
748.737	47.75
749.136	47.77
749.534	47.73
749.932	47.76
750.33	47.75
750.727	47.75
751.125	47.78
751.523	47.76
751.921	47.78
752.318	47.77
752.716	47.79
753.113	47.81
753.511	47.81
753.908	47.85
754.305	47.84
754.703	47.82
755.1	47.84
755.497	47.84
755.894	47.85
756.291	47.85
756.688	47.86
757.085	47.86
757.482	47.87
757.878	47.87
758.275	47.86
758.672	47.86
759.068	47.88
759.465	47.86
759.861	47.86
760.258	47.85
760.654	47.86
761.05	47.87
761.447	47.88
761.843	47.87
762.239	47.87
762.635	47.87
763.031	47.87
763.427	47.86
763.822	47.87
764.218	47.87
764.614	47.87
765.01	47.83
765.405	47.8
765.801	47.76
766.196	47.74
766.592	47.72
766.987	47.74
767.382	47.75
767.778	47.77
768.173	47.76
768.568	47.74
768.963	47.72
769.358	47.77
769.753	47.76
770.148	47.77
770.542	47.81
770.937	47.82
771.332	47.79
771.726	47.8
772.121	47.79
772.515	47.79
772.91	47.81
773.304	47.83
773.699	47.82
774.093	47.84
774.487	47.86
774.881	47.86
775.275	47.86
775.669	47.83
776.063	47.82
776.457	47.83
776.851	47.83
777.245	47.79
777.638	47.81
778.032	47.8
778.425	47.85
778.819	47.85
779.212	47.84
779.606	47.85
779.999	47.86
780.392	47.86
780.786	47.85
781.179	47.86
781.572	47.92
781.965	47.92
782.358	47.93
782.751	47.89
783.143	47.85
783.536	47.84
783.929	47.84
784.322	47.85
784.714	47.85
785.107	47.88
785.499	47.86
785.891	47.84
786.284	47.84
786.676	47.83
787.068	47.83
787.46	47.86
787.852	47.86
788.245	47.84
788.636	47.83
789.028	47.82
789.42	47.79
789.812	47.79
790.204	47.79
790.595	47.8
790.987	47.79
791.378	47.78
791.77	47.79
792.161	47.78
792.553	47.81
792.944	47.81
793.335	47.82
793.726	47.8
794.117	47.79
794.508	47.76
794.899	47.74
795.29	47.73
795.681	47.71
796.072	47.69
796.463	47.74
796.853	47.7
797.244	47.71
797.634	47.69
798.025	47.72
798.415	47.71
798.806	47.71
799.196	47.71
799.586	47.72
799.976	47.75
800.366	47.76
800.756	47.74
801.146	47.78
801.536	47.79
801.926	47.78
802.316	47.79
802.706	47.83
803.095	47.88
803.485	47.87
803.874	47.86
804.264	47.84
804.653	47.85
805.043	47.87
805.432	47.86
805.821	47.87
806.21	47.9
806.599	47.9
806.988	47.91
807.377	47.89
807.766	47.91
808.155	47.91
808.544	47.92
808.933	47.91
809.321	47.9
809.71	47.89
810.098	47.87
810.487	47.85
810.875	47.85
811.264	47.86
811.652	47.88
812.04	47.89
812.428	47.92
812.816	47.9
813.204	47.89
813.592	47.86
813.98	47.87
814.368	47.88
814.756	47.89
815.144	47.86
815.531	47.84
815.919	47.81
816.306	47.8
816.694	47.78
817.081	47.79
817.469	47.8
817.856	47.8
818.243	47.77
818.63	47.76
819.017	47.73
819.404	47.71
819.791	47.69
820.178	47.7
820.565	47.69
820.952	47.68
821.339	47.69
821.725	47.69
822.112	47.7
822.498	47.74
822.885	47.75
823.271	47.75
823.657	47.73
824.044	47.74
824.43	47.74
824.816	47.73
825.202	47.72
825.588	47.7
825.974	47.7
826.36	47.66
826.746	47.62
827.132	47.62
827.517	47.63
827.903	47.65
828.289	47.66
828.674	47.64
829.06	47.62
829.445	47.61
829.83	47.61
830.216	47.59
830.601	47.62
830.986	47.65
831.371	47.65
831.756	47.66
832.141	47.65
832.526	47.64
832.911	47.64
833.295	47.63
833.68	47.65
834.065	47.63
834.449	47.63
834.834	47.61
835.218	47.58
835.603	47.55
835.987	47.53
836.371	47.53
836.755	47.5
837.139	47.51
837.524	47.51
837.908	47.51
838.291	47.52
838.675	47.53
839.059	47.52
839.443	47.54
839.827	47.53
840.21	47.52
840.594	47.53
840.977	47.54
841.361	47.53
841.744	47.53
842.127	47.51
842.511	47.51
842.894	47.51
843.277	47.51
843.66	47.48
844.043	47.52
844.426	47.53
844.809	47.53
845.191	47.54
845.574	47.56
845.957	47.58
846.339	47.6
846.722	47.6
847.104	47.6
847.487	47.61
847.869	47.61
848.252	47.58
848.634	47.6
849.016	47.6
849.398	47.59
849.78	47.57
850.162	47.56
850.544	47.57
850.926	47.58
851.307	47.57
851.689	47.57
852.071	47.59
852.452	47.61
852.834	47.61
853.215	47.61
853.597	47.62
853.978	47.59
854.359	47.6
854.741	47.59
855.122	47.57
855.503	47.56
855.884	47.55
856.265	47.54
856.646	47.52
857.026	47.53
857.407	47.53
857.788	47.5
858.169	47.55
858.549	47.55
858.93	47.54
859.31	47.55
859.69	47.58
860.071	47.6
860.451	47.58
860.831	47.59
861.211	47.57
861.591	47.55
861.971	47.57
862.351	47.55
862.731	47.55
863.111	47.55
863.491	47.54
863.87	47.55
864.25	47.53
864.629	47.54
865.009	47.53
865.388	47.52
865.768	47.53
866.147	47.51
866.526	47.49
866.905	47.48
867.284	47.51
867.663	47.46
868.042	47.43
868.421	47.45
868.8	47.41
869.179	47.41
869.558	47.41
869.936	47.4
870.315	47.39
870.693	47.41
871.072	47.42
871.45	47.39
871.828	47.43
872.207	47.44
872.585	47.43
872.963	47.45
873.341	47.41
873.719	47.4
874.097	47.37
874.475	47.38
874.853	47.37
875.23	47.36
875.608	47.35
875.986	47.35
876.363	47.35
876.741	47.34
877.118	47.34
877.495	47.36
877.873	47.39
878.25	47.42
878.627	47.45
879.004	47.44
879.381	47.42
879.758	47.42
880.135	47.39
880.512	47.41
880.889	47.42
881.265	47.42
881.642	47.41
882.019	47.42
882.395	47.39
882.772	47.38
883.148	47.38
883.524	47.38
883.901	47.39
884.277	47.39
884.653	47.36
885.029	47.36
885.405	47.36
885.781	47.35
886.157	47.34
886.532	47.37
886.908	47.33
887.284	47.33
887.659	47.32
888.035	47.29
888.411	47.3
888.786	47.31
889.161	47.3
889.537	47.3
889.912	47.32
890.287	47.32
890.662	47.3
891.037	47.32
891.412	47.29
891.787	47.28
892.162	47.3
892.536	47.29
892.911	47.26
893.286	47.25
893.66	47.24
894.035	47.22
894.409	47.2
894.784	47.2
895.158	47.19
895.532	47.21
895.906	47.22
896.281	47.2
896.655	47.22
897.029	47.24
897.402	47.26
897.776	47.25
898.15	47.28
898.524	47.3
898.898	47.31
899.271	47.34
899.645	47.34
900.018	47.35
900.392	47.35
900.765	47.35
901.138	47.35
901.511	47.34
901.884	47.35
902.258	47.33
902.631	47.32
903.003	47.33
903.376	47.31
903.749	47.31
904.122	47.32
904.495	47.36
904.867	47.34
905.24	47.36
905.612	47.39
905.985	47.39
906.357	47.41
906.729	47.42
907.102	47.41
907.474	47.43
907.846	47.41
908.218	47.38
908.59	47.36
908.962	47.36
909.334	47.34
909.705	47.33
910.077	47.32
910.449	47.33
910.82	47.32
911.192	47.3
911.563	47.31
911.935	47.3
912.306	47.31
912.677	47.32
913.048	47.34
913.419	47.32
913.79	47.32
914.161	47.32
914.532	47.3
914.903	47.32
915.274	47.36
915.645	47.35
916.015	47.39
916.386	47.42
916.756	47.43
917.127	47.44
917.497	47.47
917.868	47.47
918.238	47.48
918.608	47.5
918.978	47.51
919.348	47.52
919.718	47.52
920.088	47.52
920.458	47.51
920.828	47.47
921.198	47.41
921.567	47.38
921.937	47.37
922.306	47.33
922.676	47.29
923.045	47.24
923.415	47.2
923.784	47.2
924.153	47.18
924.522	47.18
924.891	47.19
925.26	47.2
925.629	47.2
925.998	47.2
926.367	47.19
926.736	47.22
927.104	47.22
927.473	47.2
927.842	47.15
928.21	47.15
928.578	47.12
928.947	47.12
929.315	47.09
929.683	47.08
930.051	47.06
930.42	47.09
930.788	47.07
931.156	47.06
931.523	47.1
931.891	47.14
932.259	47.16
932.627	47.16
932.994	47.15
933.362	47.18
933.729	47.21
934.097	47.19
934.464	47.21
934.831	47.21
935.199	47.24
935.566	47.22
935.933	47.16
936.3	47.13
936.667	47.13
937.034	47.13
937.401	47.13
937.767	47.1
938.134	47.09
938.501	47.04
938.867	47.04
939.234	47.02
939.6	47.01
939.967	47.01
940.333	46.99
940.699	47.05
941.065	47.02
941.431	47.04
941.798	47
942.163	47
942.529	47.01
942.895	47
943.261	46.95
943.627	46.94
943.992	46.9
944.358	46.93
944.723	46.89
945.089	46.83
945.454	46.87
945.82	46.88
946.185	46.88
946.55	46.84
946.915	46.81
947.28	46.8
947.645	46.83
948.01	46.88
948.375	46.84
948.74	46.8
949.104	46.87
949.469	46.84
949.834	46.82
950.198	46.81
950.562	46.78
950.927	46.77
951.291	46.74
951.655	46.65
952.02	46.64
952.384	46.62
952.748	46.58
953.112	46.61
953.476	46.52
953.839	46.52
954.203	46.5
954.567	46.51
954.931	46.49
955.294	46.48
955.658	46.57
956.021	46.53
956.385	46.49
956.748	46.47
957.111	46.37
957.474	46.39
957.837	46.33
958.2	46.27
958.563	46.24
958.926	46.25
959.289	46.29
959.652	46.22
960.015	46.26
960.377	46.25
960.74	46.26
961.102	46.31
961.465	46.32
961.827	46.4
962.189	46.46
962.552	46.46
962.914	46.48
963.276	46.51
963.638	46.51
964	46.5
964.362	46.53
964.724	46.55
965.085	46.51
965.447	46.5
965.809	46.47
966.17	46.45
966.532	46.46
966.893	46.43
967.255	46.39
967.616	46.4
967.977	46.41
968.338	46.4
968.699	46.41
969.061	46.45
969.421	46.48
969.782	46.49
970.143	46.5
970.504	46.51
970.865	46.55
971.225	46.59
971.586	46.55
971.946	46.53
972.307	46.56
972.667	46.51
973.027	46.51
973.388	46.45
973.748	46.45
974.108	46.51
974.468	46.45
974.828	46.46
975.188	46.4
975.548	46.44
975.907	46.41
976.267	46.38
976.627	46.43
976.986	46.36
977.346	46.4
977.705	46.42
978.064	46.4
978.424	46.46
978.783	46.41
979.142	46.45
979.501	46.47
979.86	46.52
980.219	46.57
980.578	46.59
980.937	46.72
981.296	46.69
981.654	46.73
982.013	46.72
982.371	46.74
982.73	46.79
983.088	46.8
983.447	46.77
983.805	46.76
984.163	46.71
984.521	46.7
984.879	46.63
985.237	46.63
985.595	46.62
985.953	46.57
986.311	46.55
986.669	46.58
987.026	46.55
987.384	46.57
987.741	46.53
988.099	46.64
988.456	46.66
988.814	46.64
989.171	46.65
989.528	46.65
989.885	46.66
990.242	46.67
990.599	46.64
990.956	46.69
991.313	46.71
991.67	46.76
992.027	46.78
992.383	46.77
992.74	46.92
993.096	46.94
993.453	46.94
993.809	47
994.165	47.07
994.522	47.17
994.878	47.16
995.234	47.18
995.59	47.14
995.946	47.08
996.302	47.13
996.658	47.1
997.013	47.08
997.369	47.05
997.725	47.1
998.08	47.13
998.436	47.08
998.791	47.12
999.147	47.22
999.502	47.29
999.857	47.29
1000.212	47.2
1000.567	47.09
1000.922	47.11
1001.277	47.18
1001.632	47.16
1001.987	47.14
1002.342	47.08
1002.696	46.99
1003.051	47.04
1003.406	47.1
1003.76	47.1
1004.114	47.12
1004.469	47.18
1004.823	47.46
1005.177	47.38
1005.531	47.49
1005.885	47.5
1006.239	47.66
1006.593	47.82
1006.947	47.81
1007.301	47.83
1007.655	47.87
1008.008	48
1008.362	48.17
1008.715	47.93
1009.069	48.14
1009.422	47.94
1009.776	47.95
1010.129	48
1010.482	48.04
1010.835	48.06
1011.188	48.16
1011.541	48.28
1011.894	48.37
1012.247	48.34
1012.6	48.46
1012.952	48.26
1013.305	48.5
1013.657	48.6
1014.01	48.53
1014.362	48.24
1014.715	48.32
1015.067	48.32
1015.419	48.26
1015.771	48.17
1016.123	48.32
1016.475	48.31
1016.827	48.49
1017.179	48.53
1017.531	48.61
1017.883	48.62
1018.234	49.07
1018.586	48.96
1018.938	49.03
1019.289	49.1
1019.64	49.27
1019.992	49.11
1020.343	49.14
1020.694	49.11
1021.045	49.06
1021.396	48.95
1021.747	49.23
1022.098	49.15
1022.449	49.13
1022.8	49.07
1023.151	48.97
1023.501	48.96
1023.852	48.95
1024.202	48.84
1024.553	49
1024.903	49.1
1025.253	49.25
1025.604	49.23
1025.954	48.95
1026.304	49.02
1026.654	49.27
1027.004	49.46
1027.354	49.35
1027.703	49.44
1028.053	49.57
1028.403	49.76
1028.753	49.43
1029.102	49.46
1029.452	49.32
1029.801	49.67
1030.15	49.7
1030.499	49.38
897.758	1398.02
901.051	1401.4
904.343	1398.67
907.636	1424.31
910.928	1385.09
914.22	1386.43
917.511	1369.8
920.803	1310.66
924.094	1302.52
927.384	1273.99
930.675	1220.23
933.965	1213.74
937.255	1144.31
940.544	1097.82
943.834	1043.59
947.123	1035.39
950.411	973.75
953.7	953.03
956.988	898.87
960.276	862.74
963.563	849.01
966.851	819.01
970.138	809.48
973.424	784.05
976.711	787.87
979.997	749.88
983.283	744.23
986.568	727.94
989.853	704.28
993.138	694.33
996.423	667.16
999.708	649.03
1002.992	641
1006.275	613.23
1009.559	607.68
1012.842	585.07
1016.125	568.35
1019.408	558.39
1022.69	551.21
1025.972	541.27
1029.254	526.93
1032.536	519.31
1035.817	507.73
1039.098	500.68
1042.379	490.09
1045.659	484.36
1048.939	472.59
1052.219	464.03
1055.498	457.82
1058.778	447.08
1062.057	436.27
1065.335	431.79
1068.614	426.24
1071.892	422.07
1075.17	408.14
1078.447	400.86
1081.724	398.28
1085.001	395.54
1088.278	385.9
1091.554	378.87
1094.83	378.88
1098.106	376.69
1101.382	373.08
1104.657	370.98
1107.932	364.28
1111.206	367.17
1114.481	358.27
1117.755	354.31
1121.029	351.77
1124.302	351.85
1127.575	343.6
1130.848	339.34
1134.121	336
1137.393	334.63
1140.665	326.33
1143.937	325.26
1147.208	322.26
1150.48	321.52
1153.75	316.29
1157.021	312.9
1160.291	313.31
1163.561	309.84
1166.831	310.64
1170.101	307.86
1173.37	307.81
1176.639	308.89
1179.907	304.77
1183.176	302.45
1186.444	301.99
1189.711	302.61
1192.979	301.18
1196.246	298.96
1199.513	300.43
1202.78	297.7
1206.046	297.59
1209.312	294.09
1212.578	294.57
1215.843	297.89
1219.108	294.83
1222.373	301.24
1225.638	303.34
1228.902	307.39
1232.166	306.96
1235.43	309.65
1238.693	314.28
1241.956	316.35
1245.219	321.61
1248.482	320.87
1251.744	320.57
1255.006	323
1258.268	313.98
1261.529	311.13
1264.79	308.27
1268.051	307.78
1271.312	304.16
1274.572	299.23
1277.832	296.34
1281.092	290.87
1284.351	289.36
1287.61	289.22
1290.869	283.78
1294.128	282.75
1297.386	283.02
1300.644	279.12
1303.902	280.16
1307.159	278.43
1310.416	278.94
1313.673	278.74
1316.93	281.39
1320.186	281.73
1323.442	282.24
1326.697	287.94
1329.953	288.51
1333.208	289.49
1336.463	293.85
1339.717	293.94
1342.972	297.19
1346.226	299.84
1349.479	299.86
1352.733	301.99
1355.986	303.2
1359.238	303.9
1362.491	304.5
1365.743	307.76
1368.995	307.65
1372.247	306.05
1375.498	305.45
1378.749	309.06
1382	305.34
1385.251	306.86
1388.501	304.88
1391.751	306.16
1395	304.76
1398.25	302.55
1401.499	301.13
1404.748	300.51
1407.996	299.21
1411.244	298.21
1414.492	295.97
1417.74	293.93
1420.987	288.67
1424.234	289.25
1427.481	284.65
1430.728	284.4
1433.974	282.15
1437.22	278.67
1440.465	277.75
1443.711	275.36
1446.956	273.92
1450.201	270.46
1453.445	267.61
1456.689	267.02
1459.933	261.65
1463.177	259.91
1466.42	255.5
1469.663	252.09
1472.906	251
1476.148	244.42
1479.391	241.39
1482.633	238.97
1485.874	235.07
1489.115	233.81
1492.356	231.15
1495.597	230.54
1498.838	227.36
1502.078	226.04
1505.318	225.24
1508.557	224.96
1511.797	224.83
1515.036	224.04
1518.274	223.01
1521.513	221.09
1524.751	220.41
1527.989	219.74
1531.227	218.71
1534.464	218.98
1537.701	217.32
1540.938	216.85
1544.174	214.21
1547.41	213.78
1550.646	212.13
1553.882	212.37
1557.117	209.88
1560.352	208.86
1563.587	208.24
1566.821	206.82
1570.055	204.54
1573.289	203.35
1576.523	202.79
1579.756	201.62
1582.989	200.37
1586.222	200.25
1589.454	198.65
1592.686	200.65
1595.918	199.34
1599.15	198.69
1602.381	198.99
1605.612	199.01
1608.843	199.6
1612.073	199.29
1615.303	199.91
1618.533	200.04
1621.762	200.09
1624.992	200.41
1628.221	199.61
1631.449	200.03
1634.678	199.37
1637.906	199.81
1641.134	199.83
1644.361	199.16
1647.588	200.18
1650.815	199.49
1654.042	198.81
1657.269	199.57
1660.495	199.36
1663.72	198.81
1666.946	199.39
1670.171	199.98
1673.396	200.18
1676.621	200.07
1679.845	200.74
1683.069	200.06
1686.293	201.45
1689.517	203.07
1692.74	202.8
1695.963	203.61
1699.185	205.6
1702.408	205.3
1705.63	206.45
1708.852	206.32
1712.073	207.41
1715.294	207.4
1718.515	209.07
1721.736	208.69
1724.956	208.72
1728.176	208.94
1731.396	210.77
1734.616	209.92
1737.835	211.29
1741.054	209.26
1744.272	210.47
1747.491	211.76
1750.709	212.37
1753.927	212.14
1757.144	211.27
1760.361	212.1
1763.578	212.59
1766.795	211.97
1770.011	213.42
1773.227	213.21
1776.443	216.25
1779.658	217.14
1782.874	216.5
1786.089	217.23
1789.303	217.83
1792.518	221.14
1795.732	221.02
1798.945	222.96
1802.159	223.18
1805.372	223.86
1808.585	227.75
1811.797	228.71
1815.01	228.58
1818.222	230.86
1821.434	232.18
1824.645	233.29
1827.856	236.27
1831.067	238.29
1834.278	236.88
1837.488	239.08
1840.698	240.83
1843.908	238.62
1847.117	239.36
1850.326	241.47
1853.535	240.38
1856.744	244.37
1859.952	244.2
1863.16	243.16
1866.368	241.08
1869.575	244.48
1872.782	240.84
1875.989	240.41
1879.196	239.31
1882.402	238.49
1885.608	238.98
1888.814	239.87
1892.019	239.25
1895.224	238.55
1898.429	237.36
1901.634	239.42
1904.838	240.06
1908.042	242.84
1911.246	243.51
1914.449	245.43
1917.652	245.22
1920.855	244.98
1924.058	244.39
1927.26	242.77
1930.462	243.77
1933.664	246.48
1936.865	244.52
1940.066	244
1943.267	242.85
1946.467	242.18
1949.668	243.65
1952.868	246.6
1956.067	246.11
1959.267	247.77
1962.466	248.94
1965.665	247.67
1968.863	248.24
1972.061	252.28
1975.259	254.48
1978.457	255.97
1981.654	258.45
1984.852	259.01
1988.048	258.34
1991.245	260.51
1994.441	263.18
1997.637	264.71
2000.833	270.16
2004.028	273.74
2007.223	274.19
2010.418	277.15
2013.613	281.69
2016.807	284.48
2020.001	286.8
2023.194	291.24
2026.388	298.31
2029.581	304.11
2032.774	308.1
2035.966	312.99
2039.158	313.13
2042.35	319.04
2045.542	322.35
2048.733	326.44
2051.924	330.91
2055.115	337.12
2058.306	337.51
2061.496	340.38
2064.686	340.7
2067.875	345.28
2071.065	347.19
2074.254	345.98
2077.442	350.64
2080.631	350.58
2083.819	355.03
2087.007	355.07
2090.195	359.29
2093.382	362.91
2096.569	361.06
2099.756	366.82
2102.942	367.78
2106.128	371.5
2109.314	380.77
2112.5	379.35
2115.685	387.65
2118.87	388.49
2122.055	396.38
2125.239	398.64
2128.424	403.26
2131.608	407.08
2134.791	411.87
2137.974	413.84
2141.157	415.17
2144.34	415.15
2147.523	421.92
2150.705	418.64
2153.887	422.17
2157.068	423.77
2160.25	418.75
2163.431	420.49
2166.611	424.82
2169.792	434.01
2172.972	438.69
2176.152	441.26
2179.331	447.32
2182.511	454.61
2185.69	460.2
2188.868	470.67
2192.047	469.54
2195.225	484.75
2198.403	497.23
2201.58	506.6
2204.758	515.01
2207.935	525.48
2211.111	534.2
2214.288	541.16
2217.464	542.5
2220.64	550.96
2223.815	557.69
2226.991	582.96
2230.166	584
2233.34	593.6
2236.515	601.36
2239.689	602.72
2242.863	607.68
2246.036	626.18
2249.209	620.67
2252.382	633.13
2255.555	651.52
2258.727	653.66
2261.9	655.19
2265.071	662.22
2268.243	673.78
2271.414	682.16
2274.585	697.15
2277.756	702.62
2280.926	706.6
2284.096	723.47
2287.266	736.89
2290.436	742.95
2293.605	760.91
2296.774	786.18
2299.942	810.51
2303.111	813.76
2306.279	832.44
2309.447	844.78
2312.614	867.55
2315.781	891.85
2318.948	933.64
2322.115	919.89
2325.281	970.32
2328.447	946.79
2331.613	986.75
2334.779	974.75
2337.944	1018.47
2341.109	1028.84
2344.274	1053.55
2347.438	1091.06
2350.602	1092.32
2353.766	1125.02
2356.929	1141.77
2360.092	1134.57
2363.255	1221.47
2366.418	1215.19
2369.58	1239.77
2372.742	1316.75
2375.904	1350.66
2379.066	1344.71
2382.227	1316.49
2385.388	1428.59
2388.548	1430.61
2391.709	1446.61
2394.869	1614.22
2398.029	1541.73
2401.188	1585.43
2404.347	1573.16
2407.506	1544.3
2410.665	1585
2413.823	1682.41
2416.981	1781.65
2420.139	1720.8
2423.296	1706.36
2426.453	1780.64
2429.61	1707.6
2432.767	1789.61
2435.923	1770.55
2439.079	1939.58
2442.235	1967.83
2445.391	1956.08
2448.546	1941.75
2451.701	1887.46
2454.855	1888.64
2458.009	2000.2
2461.163	2080.15
2464.317	2161.03
2467.471	2213.09
2470.624	2216.15
2473.777	2155.96
2476.929	2103.31
2480.082	2040.77
2483.234	2016.46
2486.385	2118.85
2489.537	2129.43
2492.688	2205.75
2495.839	2144.07
2498.989	2096.02
2502.14	2106.55
2505.29	2131
2508.439	2169.09
2511.589	2157.53
2514.738	2351.05
2517.887	2301.98
2521.035	2436.4
2524.183	2453.14
2527.331	2467.48
2530.479	2464.94
2533.627	2481.82
