Data from C_2_DEC_NC_4N_Splice17_13-28-52-566.txt Node
Date: Sat Mar 07 13:28:52 EST 2020
User: sa697716
Spectrometer: NQ5500242
Trigger mode: 0
Integration Time (sec): 1.450000E-1
Scans to average: 20
Nonlinearity correction enabled: false
Boxcar width: 5
Storing dark spectrum: false
XAxis mode: Wavelengths
Number of Pixels in Spectrum: 512
>>>>>Begin Spectral Data<<<<<
187.83	146.82
188.298	172.97
188.766	173.02
189.233	157.28
189.701	162.27
190.169	182.57
190.636	223.69
191.104	359.38
191.571	457.7
192.039	308.06
192.506	372.53
192.974	16.71
193.441	134.7
193.908	133.31
194.375	137.82
194.842	120.79
195.31	109.17
195.777	236.45
196.244	47.03
196.711	44.15
197.177	44.82
197.644	44.16
198.111	43.22
198.578	43.4
199.045	43.7
199.511	43.48
199.978	43.54
200.445	43.97
200.911	44.05
201.378	44.38
201.844	44.4
202.31	44.16
202.777	44.22
203.243	44.46
203.709	44.36
204.176	43.77
204.642	43.71
205.108	43.56
205.574	43.11
206.04	42.62
206.506	42.07
206.972	41.75
207.438	41.43
207.903	40.78
208.369	39.91
208.835	39.04
209.301	38.58
209.766	37.6
210.232	36.61
210.697	35.6
211.163	34.63
211.628	33.72
212.094	32.63
212.559	31.87
213.024	31.05
213.49	30.45
213.955	29.69
214.42	28.73
214.885	27.86
215.35	26.75
215.815	25.42
216.28	23.6
216.745	21.59
217.21	19.64
217.675	17.82
218.14	16.22
218.604	14.87
219.069	13.74
219.534	12.8
219.998	11.96
220.463	11.34
220.927	10.73
221.392	10.32
221.856	9.97
222.32	9.67
222.785	9.41
223.249	9.16
223.713	8.92
224.177	8.74
224.642	8.57
225.106	8.38
225.57	8.18
226.034	8.03
226.497	7.88
226.961	7.74
227.425	7.61
227.889	7.47
228.353	7.34
228.816	7.22
229.28	7.07
229.744	6.96
230.207	6.86
230.671	6.74
231.134	6.64
231.597	6.56
232.061	6.45
232.524	6.35
232.987	6.26
233.45	6.19
233.914	6.11
234.377	6.05
234.84	5.96
235.303	5.9
235.766	5.86
236.229	5.79
236.691	5.72
237.154	5.67
237.617	5.63
238.08	5.59
238.542	5.52
239.005	5.49
239.468	5.42
239.93	5.37
240.393	5.33
240.855	5.27
241.317	5.22
241.78	5.17
242.242	5.11
242.704	5.07
243.166	5.01
243.629	4.98
244.091	4.94
244.553	4.89
245.015	4.84
245.477	4.79
245.939	4.75
246.4	4.7
246.862	4.66
247.324	4.62
247.786	4.57
248.247	4.53
248.709	4.48
249.17	4.43
249.632	4.41
250.093	4.39
250.555	4.35
251.016	4.33
251.477	4.3
251.939	4.28
252.4	4.25
252.861	4.23
253.322	4.2
253.783	4.18
254.244	4.17
254.705	4.13
255.166	4.1
255.627	4.08
256.088	4.06
256.549	4.04
257.009	4.01
257.47	3.99
257.931	3.96
258.391	3.94
258.852	3.91
259.312	3.88
259.773	3.86
260.233	3.84
260.694	3.82
261.154	3.79
261.614	3.77
262.074	3.75
262.534	3.72
262.994	3.71
263.455	3.69
263.915	3.67
264.374	3.65
264.834	3.64
265.294	3.62
265.754	3.61
266.214	3.59
266.673	3.57
267.133	3.56
267.593	3.55
268.052	3.54
268.512	3.53
268.971	3.52
269.431	3.51
269.89	3.5
270.349	3.49
270.809	3.48
271.268	3.48
271.727	3.47
272.186	3.47
272.645	3.47
273.104	3.46
273.563	3.45
274.022	3.44
274.481	3.45
274.94	3.44
275.399	3.44
275.857	3.43
276.316	3.43
276.775	3.42
277.233	3.42
277.692	3.42
278.15	3.42
278.609	3.41
279.067	3.41
279.525	3.41
279.984	3.4
280.442	3.4
280.9	3.39
281.358	3.39
281.816	3.39
282.274	3.39
282.732	3.39
283.19	3.38
283.648	3.38
284.106	3.37
284.564	3.37
285.021	3.37
285.479	3.37
285.937	3.36
286.394	3.35
286.852	3.34
287.309	3.34
287.767	3.33
288.224	3.32
288.682	3.3
289.139	3.29
289.596	3.28
290.053	3.26
290.511	3.25
290.968	3.25
291.425	3.23
291.882	3.23
292.339	3.21
292.796	3.21
293.252	3.2
293.709	3.21
294.166	3.21
294.623	3.2
295.079	3.2
295.536	3.19
295.992	3.19
296.449	3.18
296.905	3.18
297.362	3.18
297.818	3.17
298.274	3.17
298.731	3.16
299.187	3.15
299.643	3.14
300.099	3.14
300.555	3.13
301.011	3.13
301.467	3.13
301.923	3.11
302.379	3.11
302.835	3.11
303.291	3.11
303.746	3.11
304.202	3.11
304.658	3.11
305.113	3.11
305.569	3.11
306.024	3.11
306.479	3.11
306.935	3.1
307.39	3.11
307.845	3.11
308.301	3.11
308.756	3.11
309.211	3.11
309.666	3.11
310.121	3.11
310.576	3.1
311.031	3.1
311.486	3.1
311.94	3.11
312.395	3.1
312.85	3.1
313.305	3.1
313.759	3.11
314.214	3.1
314.668	3.1
315.123	3.1
315.577	3.1
316.032	3.09
316.486	3.09
316.94	3.09
317.394	3.08
317.849	3.08
318.303	3.06
318.757	3.05
319.211	3.04
319.665	3.03
320.119	3.02
320.572	3.01
321.026	3.01
321.48	3
321.934	2.99
322.387	2.98
322.841	2.97
323.295	2.97
323.748	2.97
324.202	2.96
324.655	2.96
325.108	2.97
325.562	2.97
326.015	2.97
326.468	2.97
326.921	2.96
327.374	2.96
327.827	2.96
328.28	2.96
328.733	2.95
329.186	2.96
329.639	2.95
330.092	2.95
330.545	2.94
330.997	2.94
331.45	2.95
331.903	2.96
332.355	2.97
332.808	2.96
333.26	2.96
333.713	2.97
334.165	2.97
334.617	2.97
335.069	2.97
335.522	2.97
335.974	2.97
336.426	2.95
336.878	2.94
337.33	2.94
337.782	2.95
338.234	2.96
338.686	2.95
339.137	2.96
339.589	2.94
340.041	2.94
340.493	2.93
340.944	2.91
341.396	2.91
341.847	2.9
342.299	2.88
342.75	2.88
343.201	2.85
343.653	2.84
344.104	2.82
344.555	2.82
345.006	2.82
345.457	2.82
345.908	2.81
346.359	2.81
346.81	2.8
347.261	2.8
347.712	2.79
348.163	2.78
348.613	2.78
349.064	2.79
349.515	2.78
349.965	2.78
350.416	2.77
350.866	2.77
351.317	2.77
351.767	2.77
352.217	2.77
352.668	2.77
353.118	2.78
353.568	2.78
354.018	2.78
354.468	2.79
354.918	2.79
355.368	2.8
355.818	2.81
356.268	2.8
356.718	2.8
357.168	2.79
357.617	2.79
358.067	2.79
358.517	2.81
358.966	2.81
359.416	2.81
359.865	2.81
360.315	2.81
360.764	2.81
361.213	2.81
361.663	2.81
362.112	2.81
362.561	2.81
363.01	2.82
363.459	2.79
363.908	2.78
364.357	2.79
364.806	2.77
365.255	2.77
365.703	2.78
366.152	2.79
366.601	2.79
367.05	2.79
367.498	2.78
367.947	2.79
368.395	2.8
368.844	2.81
369.292	2.8
369.74	2.81
370.189	2.81
370.637	2.79
371.085	2.78
371.533	2.78
371.981	2.78
372.429	2.77
372.877	2.77
373.325	2.76
373.773	2.75
374.221	2.74
374.669	2.74
375.116	2.73
375.564	2.74
376.012	2.74
376.459	2.74
376.907	2.75
377.354	2.75
377.801	2.76
378.249	2.76
378.696	2.76
379.143	2.77
379.591	2.78
380.038	2.78
380.485	2.78
380.932	2.78
381.379	2.77
381.826	2.77
382.273	2.76
382.72	2.75
383.166	2.76
383.613	2.76
384.06	2.75
384.506	2.76
384.953	2.77
385.4	2.77
385.846	2.78
386.292	2.79
386.739	2.79
387.185	2.79
387.631	2.8
388.078	2.8
388.524	2.81
388.97	2.81
389.416	2.82
389.862	2.83
390.308	2.85
390.754	2.87
391.2	2.88
391.645	2.91
392.091	2.94
392.537	2.96
392.983	2.98
393.428	3
393.874	3.02
394.319	3.04
394.765	3.05
395.21	3.07
395.655	3.08
396.101	3.11
396.546	3.11
396.991	3.12
397.436	3.15
397.881	3.17
398.326	3.2
398.771	3.22
399.216	3.24
399.661	3.27
400.106	3.29
400.551	3.31
400.995	3.32
401.44	3.35
401.885	3.37
402.329	3.39
402.774	3.42
403.218	3.46
403.663	3.48
404.107	3.51
404.551	3.53
404.995	3.55
405.44	3.56
405.884	3.59
406.328	3.63
406.772	3.64
407.216	3.67
407.66	3.68
408.104	3.67
408.547	3.68
408.991	3.7
409.435	3.7
409.879	3.72
410.322	3.75
410.766	3.77
411.209	3.79
411.653	3.82
412.096	3.84
412.54	3.86
412.983	3.89
413.426	3.93
413.869	3.96
414.312	4
414.756	4.03
415.199	4.05
415.642	4.06
416.085	4.08
416.527	4.09
416.97	4.09
417.413	4.1
417.856	4.11
418.298	4.1
418.741	4.11
419.184	4.11
419.626	4.11
420.069	4.13
420.511	4.15
420.953	4.16
421.396	4.17
421.838	4.18
422.28	4.2
422.722	4.22
423.164	4.22
423.606	4.23
424.048	4.24
424.49	4.25
424.932	4.25
425.374	4.23
425.816	4.21
426.258	4.21
426.699	4.19
427.141	4.19
427.582	4.19
428.024	4.2
428.465	4.2
428.907	4.19
429.348	4.17
429.789	4.18
430.231	4.2
430.672	4.22
431.113	4.26
431.554	4.29
431.995	4.3
432.436	4.31
432.877	4.33
433.318	4.35
433.759	4.38
434.2	4.41
434.64	4.44
435.081	4.45
435.522	4.47
435.962	4.48
436.403	4.5
436.843	4.53
437.284	4.52
437.724	4.53
438.164	4.51
438.604	4.52
439.045	4.53
439.485	4.53
439.925	4.53
440.365	4.53
440.805	4.53
441.245	4.54
441.685	4.56
442.125	4.59
442.564	4.61
443.004	4.64
443.444	4.66
443.883	4.67
444.323	4.67
444.762	4.7
445.202	4.72
445.641	4.75
446.081	4.77
446.52	4.78
446.959	4.83
447.398	4.85
447.837	4.87
448.276	4.89
448.716	4.92
449.154	4.96
449.593	4.99
450.032	5
450.471	5.01
450.91	5.02
451.349	5.03
451.787	5.03
452.226	5.04
452.664	5.06
453.103	5.05
453.541	5.05
453.98	5.06
454.418	5.04
454.856	5.05
455.295	5.05
455.733	5.04
456.171	5.04
456.609	5.04
457.047	5.02
457.485	5.01
457.923	5.02
458.361	5.02
458.798	5.03
459.236	5.04
459.674	5.03
460.111	5.02
460.549	5.04
460.987	5.04
461.424	5.04
461.862	5.05
462.299	5.06
462.736	5.06
463.173	5.07
463.611	5.06
464.048	5.06
464.485	5.08
464.922	5.08
465.359	5.09
465.796	5.11
466.233	5.11
466.67	5.12
467.106	5.14
467.543	5.13
467.98	5.12
468.416	5.11
468.853	5.11
469.29	5.11
469.726	5.11
470.162	5.1
470.599	5.09
471.035	5.08
471.471	5.06
471.907	5.05
472.344	5.06
472.78	5.07
473.216	5.08
473.652	5.09
474.088	5.08
474.523	5.09
474.959	5.1
475.395	5.09
475.831	5.09
476.266	5.1
476.702	5.1
477.138	5.1
477.573	5.1
478.008	5.1
478.444	5.08
478.879	5.09
479.314	5.09
479.75	5.08
480.185	5.08
480.62	5.08
481.055	5.08
481.49	5.07
481.925	5.07
482.36	5.08
482.795	5.09
483.229	5.09
483.664	5.1
484.099	5.1
484.534	5.1
484.968	5.12
485.403	5.13
485.837	5.14
486.271	5.16
486.706	5.17
487.14	5.19
487.574	5.21
488.009	5.24
488.443	5.25
488.877	5.29
489.311	5.33
489.745	5.37
490.179	5.42
490.613	5.47
491.046	5.51
491.48	5.57
491.914	5.62
492.348	5.68
492.781	5.75
493.215	5.82
493.648	5.89
494.082	5.95
494.515	6.01
494.948	6.08
495.382	6.15
495.815	6.23
496.248	6.31
496.681	6.41
497.114	6.5
497.547	6.6
497.98	6.7
498.413	6.8
498.846	6.92
499.279	7.04
499.711	7.15
500.144	7.28
500.577	7.41
501.009	7.55
501.442	7.68
501.874	7.84
502.306	7.98
502.739	8.15
503.171	8.32
503.603	8.49
504.036	8.68
504.468	8.87
504.9	9.04
505.332	9.23
505.764	9.44
506.196	9.64
506.627	9.85
507.059	10.07
507.491	10.29
507.923	10.51
508.354	10.75
508.786	10.99
509.217	11.24
509.649	11.5
510.08	11.76
510.512	12.01
510.943	12.27
511.374	12.55
511.805	12.82
512.237	13.11
512.668	13.39
513.099	13.68
513.53	13.97
513.961	14.26
514.391	14.56
514.822	14.87
515.253	15.17
515.684	15.47
516.114	15.79
516.545	16.08
516.975	16.38
517.406	16.68
517.836	16.97
518.267	17.28
518.697	17.57
519.127	17.85
519.558	18.15
519.988	18.44
520.418	18.71
520.848	18.98
521.278	19.26
521.708	19.69
522.138	19.96
522.567	20.21
522.997	20.44
523.427	20.7
523.857	20.95
524.286	21.17
524.716	21.39
525.145	21.62
525.575	21.83
526.004	22.03
526.433	22.07
526.863	22.27
527.292	22.46
527.721	22.64
528.15	22.81
528.579	22.95
529.008	23.12
529.437	23.26
529.866	23.38
530.295	23.52
530.724	23.65
531.152	23.77
531.581	23.88
532.01	23.99
532.438	24.1
532.867	24.2
533.295	24.29
533.723	24.38
534.152	24.47
534.58	24.57
535.008	24.63
535.436	24.7
535.865	24.75
536.293	24.81
536.721	24.86
537.149	24.9
537.576	24.95
538.004	24.99
538.432	25.03
538.86	25.06
539.287	25.09
539.715	25.13
540.143	25.16
540.57	25.2
540.998	25.23
541.425	25.28
541.852	25.31
542.28	25.36
542.707	25.39
543.134	25.42
543.561	25.44
543.988	25.47
544.415	25.49
544.842	25.5
545.269	25.53
545.696	25.55
546.123	25.57
546.549	25.59
546.976	25.6
547.403	25.62
547.829	25.63
548.256	25.66
548.682	25.67
549.108	25.68
549.535	25.71
549.961	25.72
550.387	25.73
550.813	25.73
551.24	25.73
551.666	25.72
552.092	25.71
552.518	25.71
552.943	25.69
553.369	25.67
553.795	25.64
554.221	25.62
554.646	25.57
555.072	25.54
555.498	25.5
555.923	25.46
556.349	25.42
556.774	25.36
557.199	25.32
557.625	25.25
558.05	25.19
558.475	25.14
558.9	25.08
559.325	25.03
559.75	24.93
560.175	24.86
560.6	24.77
561.025	24.68
561.449	24.6
561.874	24.49
562.299	24.41
562.723	24.3
563.148	24.17
563.572	24.04
563.997	23.91
564.421	23.79
564.846	23.65
565.27	23.54
565.694	23.41
566.118	23.27
566.542	23.14
566.966	23
567.39	22.85
567.814	22.73
568.238	22.59
568.662	22.46
569.086	22.33
569.509	22.18
569.933	22.04
570.357	21.9
570.78	21.76
571.204	21.62
571.627	21.49
572.05	21.35
572.474	21.22
572.897	21.09
573.32	20.95
573.743	20.81
574.166	20.71
574.589	20.58
575.012	20.46
575.435	20.34
575.858	20.22
576.281	20.1
576.704	20.01
577.126	19.91
577.549	19.8
577.972	19.69
578.394	19.6
578.817	19.51
579.239	19.42
579.661	19.34
580.084	19.26
580.506	19.19
580.928	19.11
581.35	19.03
581.772	18.94
582.194	18.87
582.616	18.79
583.038	18.72
583.46	18.62
583.882	18.54
584.303	18.46
584.725	18.38
585.147	18.31
585.568	18.25
585.99	18.17
586.411	18.11
586.833	18.04
587.254	17.97
587.675	17.89
588.096	17.84
588.518	17.78
588.939	17.73
589.36	17.68
589.781	17.62
590.202	17.56
590.623	17.52
591.043	17.47
591.464	17.44
591.885	17.41
592.305	17.38
592.726	17.36
593.147	17.32
593.567	17.28
593.987	17.24
594.408	17.2
594.828	17.18
595.248	17.16
595.669	17.12
596.089	17.09
596.509	17.05
596.929	17.01
597.349	16.97
597.769	16.94
598.189	16.9
598.608	16.87
599.028	16.85
599.448	16.8
599.867	16.76
600.287	16.71
600.706	16.66
601.126	16.63
601.545	16.6
601.965	16.55
602.384	16.49
602.803	16.44
603.222	16.39
603.641	16.33
604.061	16.27
604.48	16.21
604.898	16.14
605.317	16.08
605.736	16
606.155	15.93
606.574	15.86
606.992	15.8
607.411	15.73
607.829	15.62
608.248	15.54
608.666	15.45
609.085	15.37
609.503	15.31
609.921	15.23
610.339	15.15
610.758	15.07
611.176	14.98
611.594	14.9
612.012	14.82
612.43	14.77
612.847	14.69
613.265	14.61
613.683	14.54
614.101	14.46
614.518	14.38
614.936	14.3
615.353	14.22
615.771	14.16
616.188	14.08
616.606	14.02
617.023	13.94
617.44	13.89
617.857	13.83
618.274	13.77
618.691	13.7
619.108	13.65
619.525	13.61
619.942	13.56
620.359	13.52
620.776	13.48
621.192	13.45
621.609	13.42
622.026	13.39
622.442	13.36
622.859	13.32
623.275	13.31
623.691	13.29
624.108	13.28
624.524	13.26
624.94	13.25
625.356	13.25
625.772	13.24
626.188	13.23
626.604	13.22
627.02	13.21
627.436	13.22
627.852	13.2
628.268	13.19
628.683	13.18
629.099	13.16
629.514	13.14
629.93	13.1
630.345	13.07
630.761	13.03
631.176	12.99
631.591	12.94
632.007	12.9
632.422	12.86
632.837	12.81
633.252	12.73
633.667	12.66
634.082	12.58
634.497	12.5
634.911	12.41
635.326	12.32
635.741	12.24
636.155	12.14
636.57	12.03
636.984	11.91
637.399	11.79
637.813	11.68
638.228	11.55
638.642	11.43
639.056	11.3
639.47	11.17
639.884	11.05
640.298	10.9
640.712	10.76
641.126	10.62
641.54	10.48
641.954	10.33
642.368	10.19
642.781	10.07
643.195	9.93
643.609	9.81
644.022	9.68
644.436	9.55
644.849	9.42
645.262	9.3
645.676	9.19
646.089	9.09
646.502	9
646.915	8.93
647.328	8.84
647.741	8.76
648.154	8.69
648.567	8.63
648.98	8.57
649.393	8.53
649.805	8.49
650.218	8.44
650.631	8.39
651.043	8.35
651.456	8.3
651.868	8.25
652.28	8.21
652.693	8.17
653.105	8.11
653.517	8.06
653.929	7.99
654.341	7.93
654.753	7.86
655.165	7.79
655.577	7.71
655.989	7.64
656.401	7.55
656.813	7.46
657.224	7.37
657.636	7.27
658.047	7.18
658.459	7.07
658.87	6.97
659.282	6.88
659.693	6.78
660.104	6.68
660.515	6.58
660.926	6.49
661.338	6.4
661.749	6.31
662.159	6.21
662.57	6.13
662.981	6.05
663.392	5.97
663.803	5.89
664.213	5.81
664.624	5.73
665.035	5.67
665.445	5.61
665.855	5.54
666.266	5.49
666.676	5.44
667.086	5.38
667.497	5.33
667.907	5.29
668.317	5.26
668.727	5.23
669.137	5.2
669.547	5.18
669.956	5.16
670.366	5.15
670.776	5.14
671.186	5.13
671.595	5.13
672.005	5.13
672.414	5.13
672.824	5.13
673.233	5.13
673.642	5.15
674.052	5.15
674.461	5.16
674.87	5.17
675.279	5.2
675.688	5.24
676.097	5.27
676.506	5.31
676.915	5.34
677.323	5.39
677.732	5.43
678.141	5.48
678.549	5.54
678.958	5.6
679.366	5.68
679.775	5.74
680.183	5.81
680.592	5.9
681	6
681.408	6.1
681.816	6.23
682.224	6.37
682.632	6.51
683.04	6.67
683.448	6.85
683.856	7.03
684.264	7.25
684.671	7.49
685.079	7.74
685.487	8.03
685.894	8.35
686.302	8.68
686.709	9.03
687.116	9.42
687.524	9.83
687.931	10.26
688.338	10.72
688.745	11.19
689.152	11.69
689.559	12.23
689.966	12.75
690.373	13.28
690.78	13.84
691.187	14.41
691.593	14.98
692	15.57
692.407	16.15
692.813	16.74
693.22	17.32
693.626	17.91
694.032	18.49
694.439	19.09
694.845	19.69
695.251	20.26
695.657	20.84
696.063	21.42
696.469	21.96
696.875	22.54
697.281	23.1
697.687	23.65
698.093	24.2
698.498	24.73
698.904	25.24
699.31	25.74
699.715	26.24
700.12	26.71
700.526	27.19
700.931	27.66
701.337	28.1
701.742	28.53
702.147	28.95
702.552	29.37
702.957	29.77
703.362	30.16
703.767	30.53
704.172	30.91
704.577	31.28
704.981	31.64
705.386	32
705.791	32.34
706.195	32.69
706.6	33.03
707.004	33.32
707.408	33.64
707.813	33.95
708.217	34.27
708.621	34.59
709.025	34.86
709.43	35.13
709.834	35.43
710.237	35.7
710.641	35.96
711.045	36.21
711.449	36.49
711.853	36.77
712.256	37.02
712.66	37.26
713.064	37.46
713.467	37.7
713.87	37.94
714.274	38.15
714.677	38.37
715.08	38.59
715.484	38.81
715.887	39.02
716.29	39.18
716.693	39.35
717.096	39.54
717.499	39.76
717.901	39.96
718.304	40.15
718.707	40.32
719.109	40.51
719.512	40.67
719.915	40.84
720.317	40.97
720.719	41.12
721.122	41.27
721.524	41.4
721.926	41.53
722.328	41.66
722.731	41.77
723.133	41.92
723.535	42.02
723.937	42.15
724.338	42.27
724.74	42.4
725.142	42.61
725.544	42.71
725.945	42.86
726.347	42.93
726.748	43.01
727.15	43.09
727.551	43.18
727.952	43.26
728.354	43.33
728.755	43.41
729.156	43.47
729.557	43.46
729.958	43.51
730.359	43.56
730.76	43.65
731.161	43.72
731.562	43.82
731.962	43.85
732.363	43.9
732.763	43.95
733.164	44
733.564	44.08
733.965	44.12
734.365	44.21
734.766	44.24
735.166	44.28
735.566	44.32
735.966	44.34
736.366	44.4
736.766	44.43
737.166	44.48
737.566	44.53
737.966	44.53
738.365	44.58
738.765	44.6
739.165	44.64
739.564	44.68
739.964	44.69
740.363	44.7
740.763	44.72
741.162	44.74
741.561	44.76
741.96	44.77
742.36	44.81
742.759	44.81
743.158	44.83
743.557	44.81
743.955	44.82
744.354	44.85
744.753	44.89
745.152	44.91
745.55	44.93
745.949	44.97
746.348	45
746.746	44.99
747.144	45.02
747.543	45.01
747.941	45.04
748.339	45.03
748.737	45.03
749.136	45
749.534	44.97
749.932	44.99
750.33	44.96
750.727	44.97
751.125	44.99
751.523	44.98
751.921	45.01
752.318	45.03
752.716	45.04
753.113	45.06
753.511	45.08
753.908	45.12
754.305	45.13
754.703	45.12
755.1	45.13
755.497	45.1
755.894	45.12
756.291	45.11
756.688	45.1
757.085	45.12
757.482	45.1
757.878	45.11
758.275	45.11
758.672	45.1
759.068	45.13
759.465	45.11
759.861	45.13
760.258	45.14
760.654	45.13
761.05	45.15
761.447	45.15
761.843	45.14
762.239	45.12
762.635	45.1
763.031	45.09
763.427	45.06
763.822	45.06
764.218	45.06
764.614	45.07
765.01	45.07
765.405	45.05
765.801	45.04
766.196	45.07
766.592	45.1
766.987	45.12
767.382	45.12
767.778	45.13
768.173	45.12
768.568	45.1
768.963	45.07
769.358	45.07
769.753	45.08
770.148	45.06
770.542	45.04
770.937	45.05
771.332	45.02
771.726	45.03
772.121	45.03
772.515	45.05
772.91	45.05
773.304	45.08
773.699	45.07
774.093	45.05
774.487	45.06
774.881	45.07
775.275	45.06
775.669	45.04
776.063	45.02
776.457	45.02
776.851	45
777.245	44.97
777.638	44.95
778.032	44.97
778.425	44.97
778.819	44.98
779.212	44.97
779.606	44.95
779.999	44.95
780.392	44.97
780.786	44.99
781.179	44.99
781.572	45.05
781.965	45.07
782.358	45.05
782.751	45.06
783.143	45.07
783.536	45.07
783.929	45.09
784.322	45.1
784.714	45.12
785.107	45.12
785.499	45.12
785.891	45.1
786.284	45.09
786.676	45.11
787.068	45.1
787.46	45.13
787.852	45.13
788.245	45.12
788.636	45.09
789.028	45.07
789.42	45.06
789.812	45.07
790.204	45.05
790.595	45.05
790.987	45.03
791.378	45.07
791.77	45.05
792.161	45.05
792.553	45.07
792.944	45.08
793.335	45.11
793.726	45.11
794.117	45.1
794.508	45.11
794.899	45.1
795.29	45.1
795.681	45.07
796.072	45.05
796.463	45.07
796.853	45.04
797.244	45.03
797.634	45.02
798.025	45.03
798.415	45.03
798.806	45.03
799.196	45.03
799.586	45.03
799.976	45.04
800.366	45.05
800.756	45.03
801.146	45.06
801.536	45.08
801.926	45.07
802.316	45.06
802.706	45.06
803.095	45.08
803.485	45.1
803.874	45.09
804.264	45.06
804.653	45.08
805.043	45.07
805.432	45.07
805.821	45.07
806.21	45.08
806.599	45.09
806.988	45.09
807.377	45.08
807.766	45.08
808.155	45.08
808.544	45.12
808.933	45.13
809.321	45.14
809.71	45.13
810.098	45.12
810.487	45.12
810.875	45.1
811.264	45.1
811.652	45.12
812.04	45.1
812.428	45.14
812.816	45.1
813.204	45.06
813.592	45.03
813.98	45.06
814.368	45.06
814.756	45.06
815.144	45.05
815.531	45.05
815.919	45.02
816.306	45.02
816.694	45.01
817.081	45.03
817.469	45.07
817.856	45.05
818.243	45
818.63	44.99
819.017	44.97
819.404	44.96
819.791	44.93
820.178	44.94
820.565	44.93
820.952	44.9
821.339	44.87
821.725	44.87
822.112	44.89
822.498	44.93
822.885	44.94
823.271	44.93
823.657	44.93
824.044	44.96
824.43	44.97
824.816	44.96
825.202	44.95
825.588	44.95
825.974	44.92
826.36	44.91
826.746	44.88
827.132	44.86
827.517	44.88
827.903	44.89
828.289	44.89
828.674	44.89
829.06	44.88
829.445	44.88
829.83	44.89
830.216	44.89
830.601	44.9
830.986	44.9
831.371	44.91
831.756	44.91
832.141	44.9
832.526	44.89
832.911	44.86
833.295	44.85
833.68	44.86
834.065	44.87
834.449	44.85
834.834	44.85
835.218	44.83
835.603	44.82
835.987	44.78
836.371	44.77
836.755	44.75
837.139	44.76
837.524	44.76
837.908	44.76
838.291	44.75
838.675	44.75
839.059	44.76
839.443	44.74
839.827	44.75
840.21	44.73
840.594	44.74
840.977	44.72
841.361	44.74
841.744	44.72
842.127	44.69
842.511	44.65
842.894	44.64
843.277	44.61
843.66	44.61
844.043	44.61
844.426	44.6
844.809	44.59
845.191	44.6
845.574	44.56
845.957	44.59
846.339	44.6
846.722	44.62
847.104	44.63
847.487	44.63
847.869	44.61
848.252	44.6
848.634	44.61
849.016	44.61
849.398	44.62
849.78	44.61
850.162	44.57
850.544	44.57
850.926	44.56
851.307	44.55
851.689	44.55
852.071	44.57
852.452	44.58
852.834	44.57
853.215	44.57
853.597	44.57
853.978	44.59
854.359	44.6
854.741	44.61
855.122	44.62
855.503	44.6
855.884	44.61
856.265	44.6
856.646	44.58
857.026	44.58
857.407	44.57
857.788	44.55
858.169	44.55
858.549	44.55
858.93	44.54
859.31	44.55
859.69	44.57
860.071	44.57
860.451	44.57
860.831	44.59
861.211	44.6
861.591	44.58
861.971	44.59
862.351	44.59
862.731	44.6
863.111	44.6
863.491	44.57
863.87	44.57
864.25	44.54
864.629	44.55
865.009	44.54
865.388	44.51
865.768	44.53
866.147	44.54
866.526	44.53
866.905	44.52
867.284	44.51
867.663	44.51
868.042	44.52
868.421	44.54
868.8	44.54
869.179	44.55
869.558	44.57
869.936	44.55
870.315	44.53
870.693	44.55
871.072	44.57
871.45	44.59
871.828	44.6
872.207	44.6
872.585	44.58
872.963	44.61
873.341	44.6
873.719	44.58
874.097	44.59
874.475	44.59
874.853	44.58
875.23	44.58
875.608	44.6
875.986	44.61
876.363	44.61
876.741	44.63
877.118	44.62
877.495	44.62
877.873	44.66
878.25	44.68
878.627	44.68
879.004	44.65
879.381	44.64
879.758	44.6
880.135	44.59
880.512	44.59
880.889	44.56
881.265	44.53
881.642	44.53
882.019	44.51
882.395	44.49
882.772	44.49
883.148	44.49
883.524	44.48
883.901	44.48
884.277	44.46
884.653	44.44
885.029	44.44
885.405	44.46
885.781	44.44
886.157	44.43
886.532	44.44
886.908	44.44
887.284	44.44
887.659	44.42
888.035	44.41
888.411	44.4
888.786	44.39
889.161	44.38
889.537	44.37
889.912	44.37
890.287	44.39
890.662	44.36
891.037	44.37
891.412	44.35
891.787	44.33
892.162	44.32
892.536	44.3
892.911	44.31
893.286	44.3
893.66	44.3
894.035	44.27
894.409	44.24
894.784	44.24
895.158	44.22
895.532	44.23
895.906	44.25
896.281	44.26
896.655	44.28
897.029	44.29
897.402	44.3
897.776	44.3
898.15	44.31
898.524	44.33
898.898	44.32
899.271	44.3
899.645	44.31
900.018	44.31
900.392	44.3
900.765	44.32
901.138	44.31
901.511	44.3
901.884	44.31
902.258	44.32
902.631	44.34
903.003	44.35
903.376	44.38
903.749	44.39
904.122	44.4
904.495	44.41
904.867	44.41
905.24	44.44
905.612	44.44
905.985	44.42
906.357	44.43
906.729	44.42
907.102	44.43
907.474	44.43
907.846	44.45
908.218	44.43
908.59	44.45
908.962	44.45
909.334	44.43
909.705	44.43
910.077	44.45
910.449	44.45
910.82	44.44
911.192	44.43
911.563	44.43
911.935	44.4
912.306	44.42
912.677	44.41
913.048	44.41
913.419	44.4
913.79	44.42
914.161	44.43
914.532	44.44
914.903	44.48
915.274	44.47
915.645	44.44
916.015	44.46
916.386	44.5
916.756	44.51
917.127	44.51
917.497	44.55
917.868	44.55
918.238	44.53
918.608	44.53
918.978	44.51
919.348	44.53
919.718	44.55
920.088	44.57
920.458	44.54
920.828	44.53
921.198	44.54
921.567	44.53
921.937	44.53
922.306	44.53
922.676	44.52
923.045	44.53
923.415	44.52
923.784	44.49
924.153	44.5
924.522	44.51
924.891	44.5
925.26	44.46
925.629	44.46
925.998	44.42
926.367	44.43
926.736	44.42
927.104	44.43
927.473	44.42
927.842	44.41
928.21	44.4
928.578	44.35
928.947	44.37
929.315	44.38
929.683	44.38
930.051	44.4
930.42	44.4
930.788	44.41
931.156	44.41
931.523	44.39
931.891	44.43
932.259	44.43
932.627	44.49
932.994	44.47
933.362	44.46
933.729	44.47
934.097	44.49
934.464	44.49
934.831	44.49
935.199	44.45
935.566	44.45
935.933	44.41
936.3	44.38
936.667	44.36
937.034	44.4
937.401	44.46
937.767	44.47
938.134	44.45
938.501	44.48
938.867	44.51
939.234	44.52
939.6	44.55
939.967	44.61
940.333	44.62
940.699	44.62
941.065	44.55
941.431	44.52
941.798	44.53
942.163	44.52
942.529	44.48
942.895	44.45
943.261	44.43
943.627	44.41
943.992	44.38
944.358	44.34
944.723	44.35
945.089	44.34
945.454	44.32
945.82	44.26
946.185	44.21
946.55	44.2
946.915	44.11
947.28	44.08
947.645	44.11
948.01	44.12
948.375	44.11
948.74	44.06
949.104	44.08
949.469	44.03
949.834	43.99
950.198	44
950.562	43.94
950.927	43.96
951.291	43.89
951.655	43.82
952.02	43.81
952.384	43.81
952.748	43.78
953.112	43.79
953.476	43.78
953.839	43.8
954.203	43.77
954.567	43.81
954.931	43.8
955.294	43.86
955.658	43.9
956.021	43.88
956.385	43.9
956.748	43.87
957.111	43.84
957.474	43.86
957.837	43.81
958.2	43.86
958.563	43.82
958.926	43.8
959.289	43.8
959.652	43.79
960.015	43.72
960.377	43.72
960.74	43.74
961.102	43.73
961.465	43.79
961.827	43.85
962.189	43.82
962.552	43.84
962.914	43.86
963.276	43.89
963.638	43.86
964	43.95
964.362	43.94
964.724	43.92
965.085	43.89
965.447	43.84
965.809	43.79
966.17	43.74
966.532	43.71
966.893	43.74
967.255	43.72
967.616	43.71
967.977	43.71
968.338	43.7
968.699	43.7
969.061	43.76
969.421	43.75
969.782	43.79
970.143	43.84
970.504	43.92
970.865	43.93
971.225	43.91
971.586	43.92
971.946	43.86
972.307	43.87
972.667	43.83
973.027	43.8
973.388	43.79
973.748	43.79
974.108	43.85
974.468	43.79
974.828	43.83
975.188	43.81
975.548	43.83
975.907	43.84
976.267	43.87
976.627	43.93
976.986	43.94
977.346	43.94
977.705	43.91
978.064	43.86
978.424	43.88
978.783	43.8
979.142	43.86
979.501	43.84
979.86	43.89
980.219	43.87
980.578	43.83
980.937	43.86
981.296	43.86
981.654	43.89
982.013	43.88
982.371	43.93
982.73	43.95
983.088	43.94
983.447	43.96
983.805	43.98
984.163	43.99
984.521	44.07
984.879	44.01
985.237	44.12
985.595	44.16
985.953	44.22
986.311	44.18
986.669	44.18
987.026	44.17
987.384	44.25
987.741	44.19
988.099	44.27
988.456	44.19
988.814	44.24
989.171	44.14
989.528	44.15
989.885	44.1
990.242	44.16
990.599	44.16
990.956	44.18
991.313	44.13
991.67	44.17
992.027	44.26
992.383	44.28
992.74	44.33
993.096	44.35
993.453	44.36
993.809	44.38
994.165	44.41
994.522	44.46
994.878	44.47
995.234	44.49
995.59	44.4
995.946	44.37
996.302	44.51
996.658	44.51
997.013	44.6
997.369	44.55
997.725	44.71
998.08	44.79
998.436	44.79
998.791	44.9
999.147	44.88
999.502	45.01
999.857	44.94
1000.212	44.83
1000.567	44.83
1000.922	44.68
1001.277	44.83
1001.632	44.61
1001.987	44.45
1002.342	44.47
1002.696	44.33
1003.051	44.44
1003.406	44.53
1003.76	44.49
1004.114	44.48
1004.469	44.5
1004.823	44.8
1005.177	44.56
1005.531	44.71
1005.885	44.75
1006.239	44.87
1006.593	44.95
1006.947	44.96
1007.301	44.72
1007.655	44.79
1008.008	45.01
1008.362	45.09
1008.715	44.9
1009.069	45.09
1009.422	45.11
1009.776	45.2
1010.129	45.12
1010.482	45.12
1010.835	45.16
1011.188	45.39
1011.541	45.4
1011.894	45.29
1012.247	45.28
1012.6	45.33
1012.952	45.32
1013.305	45.35
1013.657	45.43
1014.01	45.38
1014.362	45.35
1014.715	45.45
1015.067	45.44
1015.419	45.39
1015.771	45.36
1016.123	45.38
1016.475	45.47
1016.827	45.41
1017.179	45.55
1017.531	45.5
1017.883	45.69
1018.234	46.03
1018.586	46.05
1018.938	46.22
1019.289	46.32
1019.64	46.45
1019.992	46.4
1020.343	46.36
1020.694	46.52
1021.045	46.3
1021.396	46.46
1021.747	46.42
1022.098	46.16
1022.449	45.98
1022.8	46.08
1023.151	46.19
1023.501	46.15
1023.852	46.23
1024.202	46.21
1024.553	46.11
1024.903	46.51
1025.253	46.51
1025.604	46.63
1025.954	46.35
1026.304	46.47
1026.654	46.3
1027.004	46.14
1027.354	46.18
1027.703	46.18
1028.053	46.15
1028.403	46.4
1028.753	45.97
1029.102	45.99
1029.452	45.98
1029.801	46.51
1030.15	46.44
1030.499	46.33
897.758	1403.92
901.051	1413.98
904.343	1409.94
907.636	1433.98
910.928	1394.43
914.22	1395.68
917.511	1374.82
920.803	1318.93
924.094	1314.17
927.384	1283.91
930.675	1231.22
933.965	1225.03
937.255	1149.16
940.544	1104.13
943.834	1050.5
947.123	1042.93
950.411	978.59
953.7	959.66
956.988	907.29
960.276	867.5
963.563	852.84
966.851	822.52
970.138	815.53
973.424	790.75
976.711	795.21
979.997	754.04
983.283	750
986.568	735.22
989.853	713.52
993.138	699.99
996.423	674.74
999.708	655.93
1002.992	648.05
1006.275	619.15
1009.559	613.63
1012.842	590.43
1016.125	575.26
1019.408	564.16
1022.69	556.48
1025.972	544.72
1029.254	532.42
1032.536	522.8
1035.817	511.16
1039.098	504.16
1042.379	493.08
1045.659	487.85
1048.939	475.35
1052.219	466.93
1055.498	459.27
1058.778	448.67
1062.057	437.58
1065.335	432.35
1068.614	426.87
1071.892	423.07
1075.17	409.69
1078.447	401.76
1081.724	399.26
1085.001	396.51
1088.278	387.89
1091.554	380.15
1094.83	380.2
1098.106	377.92
1101.382	374.3
1104.657	372.12
1107.932	366.05
1111.206	367.25
1114.481	358.21
1117.755	354.35
1121.029	350.99
1124.302	351.11
1127.575	344.32
1130.848	339.98
1134.121	336.88
1137.393	335.14
1140.665	326.92
1143.937	325.21
1147.208	323.05
1150.48	322.35
1153.75	318.15
1157.021	314.13
1160.291	313.51
1163.561	310.68
1166.831	311.2
1170.101	308.26
1173.37	307.72
1176.639	309.17
1179.907	305.98
1183.176	302.76
1186.444	302.4
1189.711	301.96
1192.979	300.7
1196.246	298.62
1199.513	299.64
1202.78	297
1206.046	296.87
1209.312	294.37
1212.578	294.58
1215.843	296.26
1219.108	295.17
1222.373	301.16
1225.638	303.01
1228.902	307.7
1232.166	308.29
1235.43	310.5
1238.693	315.17
1241.956	316.74
1245.219	321.55
1248.482	321.05
1251.744	321.29
1255.006	322.24
1258.268	314.57
1261.529	311.7
1264.79	308.73
1268.051	307.02
1271.312	302.85
1274.572	298.28
1277.832	295.63
1281.092	290.66
1284.351	288.87
1287.61	288.74
1290.869	284.31
1294.128	282.09
1297.386	281.86
1300.644	279.4
1303.902	279.87
1307.159	279.34
1310.416	279.46
1313.673	279.19
1316.93	281.73
1320.186	282.12
1323.442	282.58
1326.697	287.32
1329.953	289.04
1333.208	290.21
1336.463	293.9
1339.717	294.26
1342.972	297.63
1346.226	300.44
1349.479	300.84
1352.733	302.53
1355.986	303.51
1359.238	303.89
1362.491	305.76
1365.743	308
1368.995	308.28
1372.247	308.26
1375.498	308.18
1378.749	311.09
1382	307.09
1385.251	308.51
1388.501	306.97
1391.751	308.62
1395	307.04
1398.25	304.36
1401.499	302.67
1404.748	302.25
1407.996	298.37
1411.244	297.45
1414.492	295.41
1417.74	293.13
1420.987	288.91
1424.234	287.94
1427.481	284.7
1430.728	284.51
1433.974	281.58
1437.22	278.94
1440.465	278.27
1443.711	276.19
1446.956	274.94
1450.201	270.73
1453.445	268.75
1456.689	267.83
1459.933	262.72
1463.177	260.29
1466.42	256.38
1469.663	253.06
1472.906	251.75
1476.148	245.37
1479.391	242.17
1482.633	239.38
1485.874	235.84
1489.115	234.08
1492.356	230.78
1495.597	231.47
1498.838	227.1
1502.078	225.64
1505.318	225.08
1508.557	224.15
1511.797	224.27
1515.036	223.56
1518.274	222.51
1521.513	220.58
1524.751	220.02
1527.989	219.54
1531.227	217.63
1534.464	218.58
1537.701	216.49
1540.938	215.79
1544.174	213.4
1547.41	212.89
1550.646	211.54
1553.882	211.39
1557.117	208.81
1560.352	207.86
1563.587	207
1566.821	205.58
1570.055	203.32
1573.289	202.18
1576.523	201.64
1579.756	200.61
1582.989	198.81
1586.222	198.56
1589.454	197.33
1592.686	199.23
1595.918	197.73
1599.15	197.08
1602.381	197.68
1605.612	197.75
1608.843	198.54
1612.073	198.39
1615.303	199.19
1618.533	199.14
1621.762	198.75
1624.992	199.47
1628.221	199.18
1631.449	199.18
1634.678	198.54
1637.906	199.19
1641.134	199.32
1644.361	198.68
1647.588	199.51
1650.815	198.55
1654.042	197.46
1657.269	199
1660.495	198.59
1663.72	197.54
1666.946	198.49
1670.171	199.26
1673.396	199.24
1676.621	199.39
1679.845	199.87
1683.069	199.68
1686.293	201.12
1689.517	202.99
1692.74	202.18
1695.963	203.17
1699.185	205.31
1702.408	205.14
1705.63	206.12
1708.852	206.41
1712.073	206.75
1715.294	207.12
1718.515	208.38
1721.736	207.94
1724.956	208.88
1728.176	208.85
1731.396	210.71
1734.616	209.7
1737.835	210.97
1741.054	209.49
1744.272	209.73
1747.491	211.74
1750.709	212.17
1753.927	211.87
1757.144	211.51
1760.361	212.09
1763.578	212.68
1766.795	211.4
1770.011	213.59
1773.227	213.49
1776.443	216.15
1779.658	217.23
1782.874	216.95
1786.089	217.51
1789.303	218.47
1792.518	220.98
1795.732	220.87
1798.945	223.41
1802.159	223.86
1805.372	224.05
1808.585	228.12
1811.797	228.84
1815.01	229.41
1818.222	230.89
1821.434	232.81
1824.645	233.98
1827.856	237.92
1831.067	240.1
1834.278	238.99
1837.488	240.71
1840.698	242.59
1843.908	240.11
1847.117	241.47
1850.326	243.01
1853.535	242.4
1856.744	246.25
1859.952	246.11
1863.16	244.45
1866.368	242.09
1869.575	245.36
1872.782	242
1875.989	241.52
1879.196	241.28
1882.402	239.61
1885.608	240.43
1888.814	241.56
1892.019	240.65
1895.224	239.61
1898.429	239.11
1901.634	241.64
1904.838	241.32
1908.042	244.51
1911.246	245.54
1914.449	246.67
1917.652	247.28
1920.855	247.29
1924.058	246.31
1927.26	245.61
1930.462	246.59
1933.664	249.38
1936.865	247.4
1940.066	247.42
1943.267	245.85
1946.467	245.01
1949.668	246.87
1952.868	250.15
1956.067	250.14
1959.267	250.74
1962.466	251.25
1965.665	249.88
1968.863	249.79
1972.061	253.89
1975.259	255.36
1978.457	257.43
1981.654	260.37
1984.852	260.72
1988.048	259.15
1991.245	261.57
1994.441	265
1997.637	266.64
2000.833	272.69
2004.028	276.39
2007.223	276.21
2010.418	278.83
2013.613	283.94
2016.807	286.24
2020.001	288.84
2023.194	293.88
2026.388	299.69
2029.581	305.57
2032.774	309.03
2035.966	314.38
2039.158	314.54
2042.35	321.95
2045.542	325.49
2048.733	329.93
2051.924	334.94
2055.115	339.74
2058.306	340.02
2061.496	344.5
2064.686	344.71
2067.875	349.38
2071.065	351.11
2074.254	349.87
2077.442	353.57
2080.631	354.7
2083.819	358.01
2087.007	357.08
2090.195	363
2093.382	365.78
2096.569	363.22
2099.756	368.44
2102.942	370.27
2106.128	373.69
2109.314	382.05
2112.5	380.48
2115.685	389.35
2118.87	389.82
2122.055	399.53
2125.239	401.52
2128.424	406.33
2131.608	409.31
2134.791	414.98
2137.974	416.28
2141.157	417.27
2144.34	418.81
2147.523	426.42
2150.705	422.66
2153.887	427.03
2157.068	426.36
2160.25	422.43
2163.431	425.43
2166.611	429.62
2169.792	438.66
2172.972	442.4
2176.152	445.18
2179.331	451.53
2182.511	457
2185.69	463.02
2188.868	472.22
2192.047	473.66
2195.225	486.68
2198.403	499
2201.58	508.69
2204.758	517.32
2207.935	530.3
2211.111	539.96
2214.288	545.55
2217.464	548.01
2220.64	556.08
2223.815	564.64
2226.991	588.7
2230.166	590.39
2233.34	599.48
2236.515	608.92
2239.689	609.58
2242.863	613.3
2246.036	631.22
2249.209	625.5
2252.382	638.07
2255.555	656.2
2258.727	658.24
2261.9	659.76
2265.071	666.48
2268.243	677.77
2271.414	686.32
2274.585	702.51
2277.756	708.81
2280.926	713.14
2284.096	732.38
2287.266	746.6
2290.436	752.3
2293.605	769.54
2296.774	793.59
2299.942	818.92
2303.111	823.6
2306.279	842.7
2309.447	854.9
2312.614	875.96
2315.781	900.22
2318.948	942.44
2322.115	928.43
2325.281	978.35
2328.447	958.25
2331.613	1002.09
2334.779	990.35
2337.944	1033.69
2341.109	1043.49
2344.274	1069.78
2347.438	1111.14
2350.602	1109.79
2353.766	1142.4
2356.929	1159.38
2360.092	1152.97
2363.255	1236.24
2366.418	1227.03
2369.58	1251.86
2372.742	1331.93
2375.904	1366.44
2379.066	1358.28
2382.227	1329.28
2385.388	1444.58
2388.548	1443.97
2391.709	1462.31
2394.869	1626.06
2398.029	1561.32
2401.188	1606.53
2404.347	1596.16
2407.506	1565.03
2410.665	1614.06
2413.823	1709.16
2416.981	1810.59
2420.139	1750.16
2423.296	1734.31
2426.453	1808.7
2429.61	1741.78
2432.767	1819.15
2435.923	1801.5
2439.079	1968.66
2442.235	1997.67
2445.391	1975.36
2448.546	1963.73
2451.701	1908.22
2454.855	1905.93
2458.009	2016.46
2461.163	2103.34
2464.317	2186.18
2467.471	2238.53
2470.624	2237.27
2473.777	2180.35
2476.929	2123.97
2480.082	2059.29
2483.234	2036.85
2486.385	2136.93
2489.537	2150.08
2492.688	2232.41
2495.839	2168.5
2498.989	2115.1
2502.14	2129.32
2505.29	2153.01
2508.439	2185.11
2511.589	2179.54
2514.738	2386.88
2517.887	2334.1
2521.035	2473.65
2524.183	2496.13
2527.331	2512.9
2530.479	2503.3
2533.627	2527.6
