Data from C_2_HIR_WI_4N_Splice17_13-35-45-124.txt Node
Date: Sat Mar 07 13:35:45 EST 2020
User: sa697716
Spectrometer: NQ5500242
Trigger mode: 0
Integration Time (sec): 1.450000E-1
Scans to average: 20
Nonlinearity correction enabled: false
Boxcar width: 5
Storing dark spectrum: false
XAxis mode: Wavelengths
Number of Pixels in Spectrum: 512
>>>>>Begin Spectral Data<<<<<
187.83	139.86
188.298	141.78
188.766	112.75
189.233	93.58
189.701	95.38
190.169	131.32
190.636	118.65
191.104	157.83
191.571	-28.61
192.039	-305.17
192.506	-198.17
192.974	115.15
193.441	114.83
193.908	13.02
194.375	19.21
194.842	-15.71
195.31	106.29
195.777	169.17
196.244	110.19
196.711	101.36
197.177	103.08
197.644	103.42
198.111	104.05
198.578	104.48
199.045	105.03
199.511	104.47
199.978	104.3
200.445	104.8
200.911	104.8
201.378	104.8
201.844	104.98
202.31	104.74
202.777	104.28
203.243	103.71
203.709	102.86
204.176	101.99
204.642	101.11
205.108	100.47
205.574	99.03
206.04	97.84
206.506	97.24
206.972	96.24
207.438	94.83
207.903	93.49
208.369	91.77
208.835	89.65
209.301	87.37
209.766	85.08
210.232	82.84
210.697	80.53
211.163	78.41
211.628	75.86
212.094	73.84
212.559	72.21
213.024	70.3
213.49	68.55
213.955	66.91
214.42	65.06
214.885	62.9
215.35	60.07
215.815	56.56
216.28	52.18
216.745	47.42
217.21	42.41
217.675	37.82
218.14	33.89
218.604	30.48
219.069	27.58
219.534	25.22
219.998	23.28
220.463	21.65
220.927	20.23
221.392	19.14
221.856	18.23
222.32	17.5
222.785	16.82
223.249	16.28
223.713	15.72
224.177	15.28
224.642	14.85
225.106	14.41
225.57	13.99
226.034	13.66
226.497	13.33
226.961	13.01
227.425	12.69
227.889	12.4
228.353	12.07
228.816	11.81
229.28	11.55
229.744	11.3
230.207	11.07
230.671	10.86
231.134	10.64
231.597	10.45
232.061	10.26
232.524	10.08
232.987	9.91
233.45	9.78
233.914	9.64
234.377	9.49
234.84	9.36
235.303	9.25
235.766	9.13
236.229	9.02
236.691	8.89
237.154	8.79
237.617	8.7
238.08	8.62
238.542	8.51
239.005	8.43
239.468	8.34
239.93	8.27
240.393	8.19
240.855	8.11
241.317	8.02
241.78	7.93
242.242	7.84
242.704	7.76
243.166	7.66
243.629	7.58
244.091	7.49
244.553	7.4
245.015	7.31
245.477	7.22
245.939	7.14
246.4	7.07
246.862	7
247.324	6.93
247.786	6.85
248.247	6.78
248.709	6.68
249.17	6.6
249.632	6.55
250.093	6.49
250.555	6.42
251.016	6.35
251.477	6.28
251.939	6.23
252.4	6.17
252.861	6.12
253.322	6.07
253.783	6.03
254.244	6
254.705	5.95
255.166	5.9
255.627	5.86
256.088	5.83
256.549	5.79
257.009	5.74
257.47	5.68
257.931	5.64
258.391	5.57
258.852	5.52
259.312	5.46
259.773	5.41
260.233	5.36
260.694	5.31
261.154	5.25
261.614	5.2
262.074	5.15
262.534	5.1
262.994	5.06
263.455	5.03
263.915	5
264.374	4.96
264.834	4.92
265.294	4.88
265.754	4.86
266.214	4.83
266.673	4.8
267.133	4.78
267.593	4.75
268.052	4.73
268.512	4.71
268.971	4.68
269.431	4.67
269.89	4.65
270.349	4.63
270.809	4.61
271.268	4.6
271.727	4.59
272.186	4.57
272.645	4.56
273.104	4.55
273.563	4.54
274.022	4.53
274.481	4.52
274.94	4.52
275.399	4.51
275.857	4.5
276.316	4.49
276.775	4.49
277.233	4.49
277.692	4.49
278.15	4.48
278.609	4.48
279.067	4.48
279.525	4.47
279.984	4.46
280.442	4.46
280.9	4.46
281.358	4.45
281.816	4.45
282.274	4.45
282.732	4.45
283.19	4.44
283.648	4.44
284.106	4.43
284.564	4.44
285.021	4.44
285.479	4.44
285.937	4.43
286.394	4.43
286.852	4.42
287.309	4.41
287.767	4.39
288.224	4.38
288.682	4.35
289.139	4.33
289.596	4.3
290.053	4.26
290.511	4.24
290.968	4.21
291.425	4.18
291.882	4.15
292.339	4.13
292.796	4.1
293.252	4.09
293.709	4.08
294.166	4.06
294.623	4.05
295.079	4.04
295.536	4.03
295.992	4.03
296.449	4.02
296.905	4.01
297.362	4.01
297.818	3.99
298.274	3.99
298.731	3.97
299.187	3.96
299.643	3.94
300.099	3.94
300.555	3.94
301.011	3.93
301.467	3.93
301.923	3.92
302.379	3.92
302.835	3.92
303.291	3.92
303.746	3.91
304.202	3.92
304.658	3.92
305.113	3.92
305.569	3.93
306.024	3.93
306.479	3.93
306.935	3.93
307.39	3.94
307.845	3.94
308.301	3.94
308.756	3.94
309.211	3.95
309.666	3.97
310.121	3.97
310.576	3.98
311.031	3.98
311.486	3.99
311.94	3.99
312.395	3.99
312.85	3.99
313.305	4
313.759	4.01
314.214	4
314.668	4
315.123	3.99
315.577	3.98
316.032	3.97
316.486	3.96
316.94	3.96
317.394	3.96
317.849	3.93
318.303	3.91
318.757	3.89
319.211	3.88
319.665	3.85
320.119	3.83
320.572	3.81
321.026	3.8
321.48	3.79
321.934	3.77
322.387	3.75
322.841	3.75
323.295	3.75
323.748	3.76
324.202	3.76
324.655	3.76
325.108	3.77
325.562	3.77
326.015	3.77
326.468	3.78
326.921	3.78
327.374	3.78
327.827	3.78
328.28	3.77
328.733	3.77
329.186	3.77
329.639	3.78
330.092	3.78
330.545	3.78
330.997	3.78
331.45	3.79
331.903	3.79
332.355	3.81
332.808	3.82
333.26	3.82
333.713	3.82
334.165	3.83
334.617	3.84
335.069	3.84
335.522	3.86
335.974	3.87
336.426	3.87
336.878	3.87
337.33	3.87
337.782	3.88
338.234	3.89
338.686	3.89
339.137	3.89
339.589	3.87
340.041	3.87
340.493	3.85
340.944	3.83
341.396	3.81
341.847	3.79
342.299	3.76
342.75	3.73
343.201	3.7
343.653	3.68
344.104	3.65
344.555	3.64
345.006	3.62
345.457	3.61
345.908	3.59
346.359	3.6
346.81	3.59
347.261	3.58
347.712	3.59
348.163	3.58
348.613	3.59
349.064	3.59
349.515	3.59
349.965	3.59
350.416	3.59
350.866	3.59
351.317	3.59
351.767	3.6
352.217	3.6
352.668	3.6
353.118	3.6
353.568	3.6
354.018	3.6
354.468	3.61
354.918	3.61
355.368	3.62
355.818	3.62
356.268	3.63
356.718	3.63
357.168	3.63
357.617	3.62
358.067	3.62
358.517	3.63
358.966	3.63
359.416	3.64
359.865	3.64
360.315	3.64
360.764	3.64
361.213	3.64
361.663	3.64
362.112	3.65
362.561	3.67
363.01	3.66
363.459	3.65
363.908	3.64
364.357	3.65
364.806	3.64
365.255	3.65
365.703	3.66
366.152	3.66
366.601	3.67
367.05	3.66
367.498	3.65
367.947	3.65
368.395	3.66
368.844	3.67
369.292	3.66
369.74	3.67
370.189	3.67
370.637	3.66
371.085	3.65
371.533	3.65
371.981	3.65
372.429	3.66
372.877	3.67
373.325	3.67
373.773	3.67
374.221	3.67
374.669	3.67
375.116	3.67
375.564	3.69
376.012	3.7
376.459	3.71
376.907	3.73
377.354	3.75
377.801	3.77
378.249	3.78
378.696	3.8
379.143	3.82
379.591	3.85
380.038	3.87
380.485	3.89
380.932	3.92
381.379	3.95
381.826	3.96
382.273	3.99
382.72	4
383.166	4.04
383.613	4.07
384.06	4.09
384.506	4.13
384.953	4.17
385.4	4.21
385.846	4.26
386.292	4.3
386.739	4.35
387.185	4.39
387.631	4.45
388.078	4.5
388.524	4.56
388.97	4.63
389.416	4.7
389.862	4.76
390.308	4.83
390.754	4.9
391.2	4.99
391.645	5.07
392.091	5.17
392.537	5.26
392.983	5.35
393.428	5.45
393.874	5.54
394.319	5.63
394.765	5.73
395.21	5.82
395.655	5.91
396.101	6.01
396.546	6.09
396.991	6.19
397.436	6.28
397.881	6.41
398.326	6.52
398.771	6.63
399.216	6.75
399.661	6.87
400.106	6.97
400.551	7.07
400.995	7.17
401.44	7.26
401.885	7.35
402.329	7.46
402.774	7.54
403.218	7.65
403.663	7.75
404.107	7.84
404.551	7.94
404.995	8.02
405.44	8.12
405.884	8.22
406.328	8.32
406.772	8.41
407.216	8.49
407.66	8.57
408.104	8.64
408.547	8.73
408.991	8.82
409.435	8.9
409.879	8.99
410.322	9.08
410.766	9.17
411.209	9.27
411.653	9.37
412.096	9.45
412.54	9.53
412.983	9.63
413.426	9.73
413.869	9.81
414.312	9.91
414.756	10
415.199	10.07
415.642	10.15
416.085	10.22
416.527	10.27
416.97	10.32
417.413	10.36
417.856	10.39
418.298	10.41
418.741	10.45
419.184	10.48
419.626	10.52
420.069	10.56
420.511	10.61
420.953	10.63
421.396	10.69
421.838	10.74
422.28	10.8
422.722	10.85
423.164	10.88
423.606	10.92
424.048	10.95
424.49	10.97
424.932	10.97
425.374	10.93
425.816	10.93
426.258	10.91
426.699	10.91
427.141	10.92
427.582	10.93
428.024	10.96
428.465	10.98
428.907	10.99
429.348	10.98
429.789	11.01
430.231	11.07
430.672	11.12
431.113	11.18
431.554	11.23
431.995	11.26
432.436	11.29
432.877	11.32
433.318	11.36
433.759	11.42
434.2	11.49
434.64	11.55
435.081	11.61
435.522	11.66
435.962	11.71
436.403	11.78
436.843	11.83
437.284	11.85
437.724	11.91
438.164	11.95
438.604	12
439.045	12.06
439.485	12.1
439.925	12.16
440.365	12.22
440.805	12.27
441.245	12.33
441.685	12.41
442.125	12.5
442.564	12.58
443.004	12.67
443.444	12.76
443.883	12.89
444.323	12.99
444.762	13.09
445.202	13.2
445.641	13.34
446.081	13.45
446.52	13.54
446.959	13.68
447.398	13.78
447.837	13.88
448.276	13.96
448.716	14.04
449.154	14.15
449.593	14.24
450.032	14.32
450.471	14.35
450.91	14.41
451.349	14.48
451.787	14.5
452.226	14.54
452.664	14.58
453.103	14.61
453.541	14.62
453.98	14.62
454.418	14.62
454.856	14.63
455.295	14.64
455.733	14.63
456.171	14.63
456.609	14.66
457.047	14.64
457.485	14.66
457.923	14.66
458.361	14.66
458.798	14.65
459.236	14.64
459.674	14.64
460.111	14.65
460.549	14.66
460.987	14.67
461.424	14.66
461.862	14.69
462.299	14.69
462.736	14.7
463.173	14.71
463.611	14.73
464.048	14.76
464.485	14.77
464.922	14.77
465.359	14.78
465.796	14.81
466.233	14.82
466.67	14.83
467.106	14.84
467.543	14.84
467.98	14.85
468.416	14.85
468.853	14.87
469.29	14.89
469.726	14.91
470.162	14.93
470.599	14.92
471.035	14.93
471.471	14.94
471.907	14.96
472.344	14.98
472.78	15
473.216	15.01
473.652	15.02
474.088	15
474.523	15.02
474.959	15.02
475.395	15.02
475.831	15.03
476.266	15.03
476.702	15.03
477.138	15.03
477.573	15.04
478.008	15.06
478.444	15.05
478.879	15.07
479.314	15.06
479.75	15.07
480.185	15.07
480.62	15.06
481.055	15.05
481.49	15.06
481.925	15.07
482.36	15.08
482.795	15.08
483.229	15.09
483.664	15.11
484.099	15.14
484.534	15.17
484.968	15.21
485.403	15.25
485.837	15.3
486.271	15.35
486.706	15.4
487.14	15.46
487.574	15.52
488.009	15.59
488.443	15.66
488.877	15.74
489.311	15.83
489.745	15.93
490.179	16.03
490.613	16.14
491.046	16.24
491.48	16.36
491.914	16.47
492.348	16.59
492.781	16.73
493.215	16.87
493.648	17.01
494.082	17.14
494.515	17.28
494.948	17.43
495.382	17.6
495.815	17.77
496.248	17.96
496.681	18.14
497.114	18.33
497.547	18.52
497.98	18.7
498.413	18.91
498.846	19.12
499.279	19.34
499.711	19.55
500.144	19.76
500.577	19.99
501.009	20.22
501.442	20.46
501.874	20.71
502.306	20.95
502.739	21.24
503.171	21.49
503.603	21.78
504.036	22.06
504.468	22.35
504.9	22.64
505.332	22.94
505.764	23.23
506.196	23.52
506.627	23.84
507.059	24.16
507.491	24.45
507.923	24.79
508.354	25.11
508.786	25.45
509.217	25.8
509.649	26.14
510.08	26.48
510.512	26.83
510.943	27.18
511.374	27.53
511.805	27.88
512.237	28.23
512.668	28.59
513.099	28.93
513.53	29.27
513.961	29.61
514.391	29.96
514.822	30.32
515.253	30.68
515.684	31.02
516.114	31.37
516.545	31.71
516.975	32.04
517.406	32.36
517.836	32.7
518.267	33.04
518.697	33.35
519.127	33.64
519.558	33.93
519.988	34.22
520.418	34.5
520.848	34.77
521.278	35.04
521.708	35.49
522.138	35.74
522.567	36
522.997	36.23
523.427	36.47
523.857	36.7
524.286	36.92
524.716	37.14
525.145	37.38
525.575	37.6
526.004	37.8
526.433	37.81
526.863	37.99
527.292	38.16
527.721	38.33
528.15	38.51
528.579	38.66
529.008	38.84
529.437	38.97
529.866	39.08
530.295	39.21
530.724	39.34
531.152	39.48
531.581	39.61
532.01	39.72
532.438	39.82
532.867	39.92
533.295	40.03
533.723	40.1
534.152	40.21
534.58	40.31
535.008	40.37
535.436	40.43
535.865	40.48
536.293	40.53
536.721	40.58
537.149	40.66
537.576	40.71
538.004	40.78
538.432	40.83
538.86	40.87
539.287	40.9
539.715	40.98
540.143	41.03
540.57	41.08
540.998	41.11
541.425	41.15
541.852	41.17
542.28	41.22
542.707	41.25
543.134	41.29
543.561	41.34
543.988	41.37
544.415	41.39
544.842	41.41
545.269	41.44
545.696	41.51
546.123	41.56
546.549	41.61
546.976	41.62
547.403	41.64
547.829	41.67
548.256	41.68
548.682	41.7
549.108	41.74
549.535	41.81
549.961	41.81
550.387	41.81
550.813	41.82
551.24	41.83
551.666	41.85
552.092	41.86
552.518	41.87
552.943	41.9
553.369	41.91
553.795	41.89
554.221	41.86
554.646	41.86
555.072	41.86
555.498	41.84
555.923	41.82
556.349	41.78
556.774	41.74
557.199	41.71
557.625	41.66
558.05	41.59
558.475	41.57
558.9	41.54
559.325	41.52
559.75	41.47
560.175	41.41
560.6	41.35
561.025	41.3
561.449	41.22
561.874	41.13
562.299	41.06
562.723	40.99
563.148	40.89
563.572	40.77
563.997	40.64
564.421	40.51
564.846	40.39
565.27	40.27
565.694	40.16
566.118	40.07
566.542	39.96
566.966	39.83
567.39	39.71
567.814	39.59
568.238	39.45
568.662	39.35
569.086	39.27
569.509	39.16
569.933	39.06
570.357	38.94
570.78	38.8
571.204	38.69
571.627	38.59
572.05	38.48
572.474	38.4
572.897	38.32
573.32	38.2
573.743	38.07
574.166	37.98
574.589	37.87
575.012	37.76
575.435	37.68
575.858	37.6
576.281	37.52
576.704	37.45
577.126	37.36
577.549	37.27
577.972	37.2
578.394	37.13
578.817	37.05
579.239	36.97
579.661	36.91
580.084	36.85
580.506	36.77
580.928	36.67
581.35	36.59
581.772	36.51
582.194	36.43
582.616	36.35
583.038	36.28
583.46	36.21
583.882	36.15
584.303	36.08
584.725	36
585.147	35.95
585.568	35.91
585.99	35.84
586.411	35.79
586.833	35.75
587.254	35.69
587.675	35.65
588.096	35.59
588.518	35.54
588.939	35.5
589.36	35.44
589.781	35.39
590.202	35.35
590.623	35.3
591.043	35.23
591.464	35.2
591.885	35.15
592.305	35.12
592.726	35.08
593.147	35.04
593.567	35
593.987	34.96
594.408	34.91
594.828	34.86
595.248	34.84
595.669	34.79
596.089	34.74
596.509	34.71
596.929	34.67
597.349	34.64
597.769	34.59
598.189	34.54
598.608	34.51
599.028	34.47
599.448	34.44
599.867	34.4
600.287	34.38
600.706	34.34
601.126	34.29
601.545	34.23
601.965	34.19
602.384	34.15
602.803	34.1
603.222	34.03
603.641	33.99
604.061	33.93
604.48	33.84
604.898	33.77
605.317	33.71
605.736	33.64
606.155	33.58
606.574	33.49
606.992	33.41
607.411	33.32
607.829	33.22
608.248	33.13
608.666	33.04
609.085	32.96
609.503	32.87
609.921	32.75
610.339	32.66
610.758	32.56
611.176	32.47
611.594	32.38
612.012	32.27
612.43	32.19
612.847	32.1
613.265	32
613.683	31.92
614.101	31.85
614.518	31.77
614.936	31.68
615.353	31.59
615.771	31.51
616.188	31.44
616.606	31.37
617.023	31.31
617.44	31.25
617.857	31.18
618.274	31.12
618.691	31.05
619.108	30.97
619.525	30.91
619.942	30.87
620.359	30.82
620.776	30.77
621.192	30.74
621.609	30.7
622.026	30.64
622.442	30.62
622.859	30.59
623.275	30.55
623.691	30.55
624.108	30.54
624.524	30.53
624.94	30.53
625.356	30.53
625.772	30.51
626.188	30.51
626.604	30.5
627.02	30.48
627.436	30.47
627.852	30.46
628.268	30.45
628.683	30.42
629.099	30.4
629.514	30.37
629.93	30.34
630.345	30.31
630.761	30.26
631.176	30.23
631.591	30.18
632.007	30.13
632.422	30.07
632.837	30
633.252	29.94
633.667	29.86
634.082	29.77
634.497	29.69
634.911	29.6
635.326	29.51
635.741	29.41
636.155	29.29
636.57	29.17
636.984	29.03
637.399	28.89
637.813	28.76
638.228	28.61
638.642	28.44
639.056	28.27
639.47	28.1
639.884	27.91
640.298	27.72
640.712	27.55
641.126	27.36
641.54	27.16
641.954	26.98
642.368	26.78
642.781	26.6
643.195	26.41
643.609	26.2
644.022	26.02
644.436	25.84
644.849	25.66
645.262	25.47
645.676	25.32
646.089	25.18
646.502	25.03
646.915	24.89
647.328	24.75
647.741	24.63
648.154	24.52
648.567	24.42
648.98	24.31
649.393	24.22
649.805	24.13
650.218	24.02
650.631	23.93
651.043	23.83
651.456	23.74
651.868	23.63
652.28	23.53
652.693	23.43
653.105	23.32
653.517	23.2
653.929	23.1
654.341	22.96
654.753	22.82
655.165	22.68
655.577	22.53
655.989	22.36
656.401	22.19
656.813	22.02
657.224	21.83
657.636	21.63
658.047	21.43
658.459	21.22
658.87	20.99
659.282	20.76
659.693	20.54
660.104	20.3
660.515	20.06
660.926	19.83
661.338	19.58
661.749	19.35
662.159	19.13
662.57	18.91
662.981	18.69
663.392	18.48
663.803	18.27
664.213	18.06
664.624	17.87
665.035	17.68
665.445	17.5
665.855	17.32
666.266	17.15
666.676	17
667.086	16.82
667.497	16.67
667.907	16.53
668.317	16.41
668.727	16.28
669.137	16.17
669.547	16.06
669.956	15.96
670.366	15.88
670.776	15.79
671.186	15.7
671.595	15.65
672.005	15.56
672.414	15.52
672.824	15.48
673.233	15.44
673.642	15.41
674.052	15.39
674.461	15.38
674.87	15.38
675.279	15.39
675.688	15.4
676.097	15.42
676.506	15.46
676.915	15.51
677.323	15.57
677.732	15.64
678.141	15.73
678.549	15.84
678.958	15.97
679.366	16.11
679.775	16.28
680.183	16.49
680.592	16.73
681	17
681.408	17.29
681.816	17.61
682.224	17.98
682.632	18.38
683.04	18.78
683.448	19.24
683.856	19.72
684.264	20.25
684.671	20.8
685.079	21.38
685.487	22
685.894	22.63
686.302	23.3
686.709	23.98
687.116	24.69
687.524	25.43
687.931	26.16
688.338	26.92
688.745	27.69
689.152	28.43
689.559	29.2
689.966	29.95
690.373	30.7
690.78	31.42
691.187	32.15
691.593	32.86
692	33.56
692.407	34.22
692.813	34.92
693.22	35.56
693.626	36.2
694.032	36.81
694.439	37.42
694.845	38
695.251	38.59
695.657	39.15
696.063	39.68
696.469	40.22
696.875	40.76
697.281	41.24
697.687	41.74
698.093	42.22
698.498	42.66
698.904	43.08
699.31	43.52
699.715	43.93
700.12	44.3
700.526	44.67
700.931	45.03
701.337	45.35
701.742	45.64
702.147	45.94
702.552	46.26
702.957	46.54
703.362	46.8
703.767	47.03
704.172	47.3
704.577	47.55
704.981	47.83
705.386	48.06
705.791	48.3
706.195	48.55
706.6	48.8
707.004	48.98
707.408	49.21
707.813	49.46
708.217	49.67
708.621	49.89
709.025	50.09
709.43	50.24
709.834	50.44
710.237	50.6
710.641	50.74
711.045	50.9
711.449	51.07
711.853	51.25
712.256	51.36
712.66	51.53
713.064	51.64
713.467	51.79
713.87	51.94
714.274	52.05
714.677	52.22
715.08	52.35
715.484	52.46
715.887	52.61
716.29	52.7
716.693	52.84
717.096	52.93
717.499	53.04
717.901	53.15
718.304	53.25
718.707	53.35
719.109	53.44
719.512	53.54
719.915	53.64
720.317	53.69
720.719	53.75
721.122	53.84
721.524	53.94
721.926	54.01
722.328	54.1
722.731	54.18
723.133	54.26
723.535	54.34
723.937	54.42
724.338	54.45
724.74	54.54
725.142	54.71
725.544	54.74
725.945	54.82
726.347	54.86
726.748	54.86
727.15	54.88
727.551	54.94
727.952	54.94
728.354	54.97
728.755	55.01
729.156	55.04
729.557	54.96
729.958	55.01
730.359	55.02
730.76	55.07
731.161	55.12
731.562	55.16
731.962	55.17
732.363	55.24
732.763	55.26
733.164	55.32
733.564	55.37
733.965	55.39
734.365	55.43
734.766	55.43
735.166	55.46
735.566	55.49
735.966	55.53
736.366	55.56
736.766	55.56
737.166	55.58
737.566	55.59
737.966	55.59
738.365	55.61
738.765	55.63
739.165	55.64
739.564	55.67
739.964	55.69
740.363	55.68
740.763	55.7
741.162	55.71
741.561	55.74
741.96	55.73
742.36	55.75
742.759	55.76
743.158	55.76
743.557	55.76
743.955	55.75
744.354	55.75
744.753	55.78
745.152	55.81
745.55	55.83
745.949	55.85
746.348	55.86
746.746	55.88
747.144	55.91
747.543	55.9
747.941	55.91
748.339	55.9
748.737	55.87
749.136	55.85
749.534	55.78
749.932	55.77
750.33	55.74
750.727	55.75
751.125	55.71
751.523	55.68
751.921	55.69
752.318	55.68
752.716	55.72
753.113	55.73
753.511	55.76
753.908	55.8
754.305	55.82
754.703	55.8
755.1	55.81
755.497	55.81
755.894	55.8
756.291	55.78
756.688	55.78
757.085	55.77
757.482	55.77
757.878	55.76
758.275	55.77
758.672	55.76
759.068	55.81
759.465	55.81
759.861	55.83
760.258	55.86
760.654	55.88
761.05	55.89
761.447	55.9
761.843	55.91
762.239	55.92
762.635	55.91
763.031	55.91
763.427	55.87
763.822	55.87
764.218	55.89
764.614	55.89
765.01	55.89
765.405	55.9
765.801	55.88
766.196	55.87
766.592	55.83
766.987	55.85
767.382	55.83
767.778	55.88
768.173	55.88
768.568	55.85
768.963	55.85
769.358	55.86
769.753	55.85
770.148	55.87
770.542	55.9
770.937	55.91
771.332	55.91
771.726	55.9
772.121	55.86
772.515	55.85
772.91	55.88
773.304	55.9
773.699	55.9
774.093	55.9
774.487	55.89
774.881	55.92
775.275	55.93
775.669	55.9
776.063	55.91
776.457	55.92
776.851	55.93
777.245	55.88
777.638	55.87
778.032	55.86
778.425	55.88
778.819	55.89
779.212	55.91
779.606	55.91
779.999	55.93
780.392	55.97
780.786	55.99
781.179	56
781.572	56.05
781.965	56.04
782.358	56.08
782.751	56.06
783.143	56.07
783.536	56.05
783.929	56.06
784.322	56.08
784.714	56.08
785.107	56.11
785.499	56.09
785.891	56.11
786.284	56.14
786.676	56.13
787.068	56.15
787.46	56.16
787.852	56.17
788.245	56.19
788.636	56.19
789.028	56.18
789.42	56.17
789.812	56.2
790.204	56.17
790.595	56.17
790.987	56.19
791.378	56.22
791.77	56.18
792.161	56.16
792.553	56.16
792.944	56.13
793.335	56.13
793.726	56.13
794.117	56.1
794.508	56.07
794.899	56.05
795.29	56.03
795.681	56
796.072	56.01
796.463	56.05
796.853	56.03
797.244	56.07
797.634	56.06
798.025	56.07
798.415	56.1
798.806	56.13
799.196	56.13
799.586	56.14
799.976	56.13
800.366	56.12
800.756	56.09
801.146	56.12
801.536	56.13
801.926	56.15
802.316	56.15
802.706	56.15
803.095	56.16
803.485	56.17
803.874	56.16
804.264	56.18
804.653	56.18
805.043	56.2
805.432	56.18
805.821	56.19
806.21	56.16
806.599	56.14
806.988	56.15
807.377	56.14
807.766	56.15
808.155	56.14
808.544	56.13
808.933	56.15
809.321	56.14
809.71	56.12
810.098	56.11
810.487	56.11
810.875	56.11
811.264	56.07
811.652	56.07
812.04	56.06
812.428	56.09
812.816	56.08
813.204	56.05
813.592	56.01
813.98	56.01
814.368	55.98
814.756	55.98
815.144	55.95
815.531	55.95
815.919	55.94
816.306	55.92
816.694	55.89
817.081	55.9
817.469	55.92
817.856	55.93
818.243	55.91
818.63	55.92
819.017	55.89
819.404	55.89
819.791	55.9
820.178	55.91
820.565	55.89
820.952	55.89
821.339	55.85
821.725	55.84
822.112	55.86
822.498	55.86
822.885	55.87
823.271	55.89
823.657	55.86
824.044	55.86
824.43	55.85
824.816	55.84
825.202	55.83
825.588	55.85
825.974	55.82
826.36	55.79
826.746	55.79
827.132	55.74
827.517	55.75
827.903	55.77
828.289	55.78
828.674	55.78
829.06	55.76
829.445	55.74
829.83	55.72
830.216	55.7
830.601	55.69
830.986	55.67
831.371	55.68
831.756	55.66
832.141	55.68
832.526	55.65
832.911	55.63
833.295	55.64
833.68	55.65
834.065	55.63
834.449	55.64
834.834	55.66
835.218	55.67
835.603	55.67
835.987	55.64
836.371	55.6
836.755	55.58
837.139	55.55
837.524	55.54
837.908	55.55
838.291	55.56
838.675	55.54
839.059	55.5
839.443	55.48
839.827	55.45
840.21	55.45
840.594	55.45
840.977	55.45
841.361	55.46
841.744	55.41
842.127	55.38
842.511	55.36
842.894	55.35
843.277	55.34
843.66	55.31
844.043	55.33
844.426	55.33
844.809	55.32
845.191	55.34
845.574	55.34
845.957	55.35
846.339	55.36
846.722	55.35
847.104	55.36
847.487	55.37
847.869	55.39
848.252	55.37
848.634	55.35
849.016	55.34
849.398	55.32
849.78	55.3
850.162	55.3
850.544	55.29
850.926	55.29
851.307	55.28
851.689	55.27
852.071	55.24
852.452	55.24
852.834	55.27
853.215	55.25
853.597	55.24
853.978	55.25
854.359	55.26
854.741	55.25
855.122	55.23
855.503	55.24
855.884	55.24
856.265	55.25
856.646	55.24
857.026	55.24
857.407	55.25
857.788	55.26
858.169	55.25
858.549	55.25
858.93	55.25
859.31	55.27
859.69	55.28
860.071	55.3
860.451	55.3
860.831	55.28
861.211	55.26
861.591	55.25
861.971	55.22
862.351	55.23
862.731	55.2
863.111	55.17
863.491	55.16
863.87	55.15
864.25	55.12
864.629	55.11
865.009	55.14
865.388	55.13
865.768	55.13
866.147	55.15
866.526	55.13
866.905	55.14
867.284	55.18
867.663	55.16
868.042	55.15
868.421	55.17
868.8	55.18
869.179	55.17
869.558	55.19
869.936	55.18
870.315	55.18
870.693	55.19
871.072	55.2
871.45	55.22
871.828	55.23
872.207	55.26
872.585	55.24
872.963	55.24
873.341	55.24
873.719	55.23
874.097	55.24
874.475	55.27
874.853	55.29
875.23	55.3
875.608	55.27
875.986	55.3
876.363	55.27
876.741	55.28
877.118	55.3
877.495	55.29
877.873	55.29
878.25	55.33
878.627	55.32
879.004	55.31
879.381	55.31
879.758	55.3
880.135	55.27
880.512	55.26
880.889	55.23
881.265	55.21
881.642	55.22
882.019	55.22
882.395	55.17
882.772	55.14
883.148	55.13
883.524	55.07
883.901	55.08
884.277	55.04
884.653	55.01
885.029	55
885.405	54.97
885.781	54.96
886.157	54.92
886.532	54.91
886.908	54.88
887.284	54.86
887.659	54.86
888.035	54.82
888.411	54.82
888.786	54.81
889.161	54.82
889.537	54.82
889.912	54.8
890.287	54.79
890.662	54.78
891.037	54.8
891.412	54.79
891.787	54.77
892.162	54.76
892.536	54.75
892.911	54.74
893.286	54.73
893.66	54.71
894.035	54.71
894.409	54.69
894.784	54.69
895.158	54.66
895.532	54.67
895.906	54.68
896.281	54.66
896.655	54.66
897.029	54.67
897.402	54.67
897.776	54.68
898.15	54.71
898.524	54.75
898.898	54.76
899.271	54.78
899.645	54.8
900.018	54.83
900.392	54.9
900.765	54.93
901.138	54.93
901.511	54.96
901.884	54.99
902.258	55
902.631	55.01
903.003	55.04
903.376	55.08
903.749	55.09
904.122	55.12
904.495	55.12
904.867	55.14
905.24	55.18
905.612	55.19
905.985	55.19
906.357	55.2
906.729	55.22
907.102	55.22
907.474	55.22
907.846	55.25
908.218	55.22
908.59	55.25
908.962	55.27
909.334	55.28
909.705	55.26
910.077	55.27
910.449	55.27
910.82	55.27
911.192	55.28
911.563	55.28
911.935	55.25
912.306	55.27
912.677	55.25
913.048	55.24
913.419	55.21
913.79	55.23
914.161	55.26
914.532	55.28
914.903	55.31
915.274	55.31
915.645	55.35
916.015	55.37
916.386	55.38
916.756	55.39
917.127	55.41
917.497	55.46
917.868	55.48
918.238	55.46
918.608	55.45
918.978	55.46
919.348	55.49
919.718	55.47
920.088	55.48
920.458	55.51
920.828	55.5
921.198	55.48
921.567	55.49
921.937	55.54
922.306	55.58
922.676	55.61
923.045	55.61
923.415	55.57
923.784	55.58
924.153	55.63
924.522	55.65
924.891	55.68
925.26	55.7
925.629	55.7
925.998	55.65
926.367	55.66
926.736	55.64
927.104	55.65
927.473	55.66
927.842	55.65
928.21	55.62
928.578	55.55
928.947	55.59
929.315	55.55
929.683	55.52
930.051	55.47
930.42	55.44
930.788	55.42
931.156	55.37
931.523	55.34
931.891	55.36
932.259	55.36
932.627	55.4
932.994	55.37
933.362	55.39
933.729	55.44
934.097	55.52
934.464	55.54
934.831	55.59
935.199	55.68
935.566	55.74
935.933	55.73
936.3	55.76
936.667	55.78
937.034	55.84
937.401	55.92
937.767	55.99
938.134	56.01
938.501	56.12
938.867	56.18
939.234	56.21
939.6	56.24
939.967	56.31
940.333	56.32
940.699	56.37
941.065	56.36
941.431	56.36
941.798	56.3
942.163	56.26
942.529	56.15
942.895	56.15
943.261	56.07
943.627	56.07
943.992	56.04
944.358	56.01
944.723	55.97
945.089	55.92
945.454	55.92
945.82	55.88
946.185	55.92
946.55	55.89
946.915	55.8
947.28	55.78
947.645	55.73
948.01	55.73
948.375	55.69
948.74	55.7
949.104	55.71
949.469	55.63
949.834	55.61
950.198	55.54
950.562	55.52
950.927	55.48
951.291	55.45
951.655	55.37
952.02	55.3
952.384	55.25
952.748	55.21
953.112	55.18
953.476	55.14
953.839	55.11
954.203	55.07
954.567	55.05
954.931	55.04
955.294	55.02
955.658	55.07
956.021	55.04
956.385	55.02
956.748	54.96
957.111	54.9
957.474	54.92
957.837	54.91
958.2	54.92
958.563	54.93
958.926	54.95
959.289	54.98
959.652	54.96
960.015	54.98
960.377	55.02
960.74	55.04
961.102	55.06
961.465	55.14
961.827	55.22
962.189	55.26
962.552	55.25
962.914	55.28
963.276	55.28
963.638	55.26
964	55.22
964.362	55.21
964.724	55.14
965.085	55.17
965.447	55.11
965.809	55.07
966.17	55.05
966.532	55.05
966.893	55.06
967.255	55.07
967.616	55.09
967.977	55.2
968.338	55.24
968.699	55.35
969.061	55.36
969.421	55.36
969.782	55.35
970.143	55.37
970.504	55.42
970.865	55.43
971.225	55.41
971.586	55.47
971.946	55.44
972.307	55.42
972.667	55.41
973.027	55.43
973.388	55.48
973.748	55.57
974.108	55.61
974.468	55.6
974.828	55.73
975.188	55.79
975.548	55.77
975.907	55.88
976.267	55.93
976.627	55.98
976.986	55.94
977.346	55.97
977.705	55.95
978.064	55.94
978.424	55.96
978.783	55.84
979.142	55.8
979.501	55.87
979.86	55.86
980.219	55.87
980.578	55.86
980.937	55.93
981.296	55.91
981.654	55.91
982.013	55.97
982.371	55.99
982.73	56.05
983.088	56.12
983.447	56.08
983.805	56.1
984.163	56.12
984.521	56.09
984.879	56.11
985.237	56.13
985.595	56.31
985.953	56.33
986.311	56.31
986.669	56.38
987.026	56.44
987.384	56.57
987.741	56.58
988.099	56.73
988.456	56.82
988.814	56.88
989.171	56.97
989.528	56.89
989.885	56.95
990.242	57.04
990.599	57.09
990.956	57.11
991.313	57.02
991.67	57.06
992.027	57.2
992.383	57.28
992.74	57.41
993.096	57.43
993.453	57.52
993.809	57.53
994.165	57.66
994.522	57.73
994.878	57.77
995.234	57.87
995.59	57.89
995.946	57.84
996.302	57.92
996.658	57.94
997.013	58.02
997.369	58.07
997.725	58.24
998.08	58.32
998.436	58.32
998.791	58.45
999.147	58.59
999.502	58.69
999.857	58.74
1000.212	58.66
1000.567	58.71
1000.922	58.69
1001.277	58.72
1001.632	58.74
1001.987	58.75
1002.342	58.85
1002.696	58.85
1003.051	58.94
1003.406	59.1
1003.76	59.09
1004.114	59.26
1004.469	59.51
1004.823	60.01
1005.177	60.07
1005.531	60.19
1005.885	60.19
1006.239	60.23
1006.593	60.49
1006.947	60.54
1007.301	60.55
1007.655	60.68
1008.008	60.9
1008.362	60.84
1008.715	60.73
1009.069	60.84
1009.422	60.89
1009.776	61.05
1010.129	61.16
1010.482	61.19
1010.835	61.4
1011.188	61.63
1011.541	61.77
1011.894	61.72
1012.247	61.87
1012.6	61.91
1012.952	62
1013.305	62.07
1013.657	62.27
1014.01	62.49
1014.362	62.57
1014.715	62.52
1015.067	62.64
1015.419	62.8
1015.771	62.87
1016.123	62.95
1016.475	63.07
1016.827	63.23
1017.179	63.45
1017.531	63.54
1017.883	63.62
1018.234	63.9
1018.586	64.21
1018.938	64.45
1019.289	64.43
1019.64	64.57
1019.992	64.74
1020.343	64.82
1020.694	64.9
1021.045	64.97
1021.396	65.06
1021.747	65.4
1022.098	65.41
1022.449	65.47
1022.8	65.62
1023.151	65.93
1023.501	66.3
1023.852	66.61
1024.202	66.87
1024.553	67.1
1024.903	67.34
1025.253	67.86
1025.604	67.92
1025.954	67.86
1026.304	68.12
1026.654	68.05
1027.004	68.21
1027.354	68.18
1027.703	68.26
1028.053	68.43
1028.403	68.65
1028.753	68.62
1029.102	68.73
1029.452	68.84
1029.801	69.37
1030.15	69.33
1030.499	69.44
897.758	1594.74
901.051	1597.2
904.343	1595.44
907.636	1622.12
910.928	1578.44
914.22	1576
917.511	1558.61
920.803	1491.81
924.094	1484.45
927.384	1453.11
930.675	1391.07
933.965	1382.66
937.255	1304.68
940.544	1250.34
943.834	1191.67
947.123	1182.15
950.411	1114.74
953.7	1088.05
956.988	1027.6
960.276	986.77
963.563	971.29
966.851	935.58
970.138	927.91
973.424	898.97
976.711	905.5
979.997	859.34
983.283	854.54
986.568	836.67
989.853	811.87
993.138	799.85
996.423	769.16
999.708	749.01
1002.992	740.4
1006.275	705.15
1009.559	699.46
1012.842	673.93
1016.125	656.28
1019.408	645.03
1022.69	635.38
1025.972	623.18
1029.254	607.4
1032.536	597.31
1035.817	583.09
1039.098	576.71
1042.379	564.45
1045.659	558.48
1048.939	544.2
1052.219	533.62
1055.498	524.75
1058.778	512.88
1062.057	500.56
1065.335	494.82
1068.614	489.58
1071.892	484.82
1075.17	467.95
1078.447	459.95
1081.724	456.08
1085.001	453.08
1088.278	442.99
1091.554	434.63
1094.83	435.18
1098.106	431.79
1101.382	428.03
1104.657	424.58
1107.932	416.83
1111.206	421.07
1114.481	409.57
1117.755	405.39
1121.029	401.77
1124.302	402.51
1127.575	393.84
1130.848	388.86
1134.121	384.82
1137.393	383.56
1140.665	374.64
1143.937	374.02
1147.208	369
1150.48	370.42
1153.75	364.97
1157.021	359.44
1160.291	359.41
1163.561	356.38
1166.831	355.89
1170.101	353.46
1173.37	351.81
1176.639	353.41
1179.907	349.32
1183.176	346.85
1186.444	345.71
1189.711	345.55
1192.979	345.13
1196.246	342.19
1199.513	343.39
1202.78	341.54
1206.046	341.34
1209.312	337.96
1212.578	338.48
1215.843	341.53
1219.108	338.86
1222.373	345.99
1225.638	348.38
1228.902	353.69
1232.166	354.09
1235.43	357.28
1238.693	361.29
1241.956	363.11
1245.219	369.67
1248.482	369.15
1251.744	368.82
1255.006	370.94
1258.268	361.29
1261.529	358
1264.79	354.87
1268.051	352.7
1271.312	347.79
1274.572	344.26
1277.832	341.56
1281.092	335.06
1284.351	332.58
1287.61	332.56
1290.869	327.11
1294.128	325.64
1297.386	325.91
1300.644	322.4
1303.902	323.83
1307.159	322.17
1310.416	322.27
1313.673	321.95
1316.93	325.67
1320.186	325.73
1323.442	326.56
1326.697	332.33
1329.953	333.28
1333.208	334.02
1336.463	338.11
1339.717	338.42
1342.972	342.49
1346.226	345.31
1349.479	345.3
1352.733	347.26
1355.986	348.74
1359.238	348.1
1362.491	350.4
1365.743	353.13
1368.995	353.62
1372.247	352.25
1375.498	352.7
1378.749	355.84
1382	350.53
1385.251	352.68
1388.501	349.94
1391.751	351.96
1395	350.22
1398.25	346.92
1401.499	345.25
1404.748	344.39
1407.996	341.05
1411.244	339.12
1414.492	337.66
1417.74	336.12
1420.987	330.5
1424.234	330.55
1427.481	325.16
1430.728	325.48
1433.974	321.7
1437.22	319.83
1440.465	318.41
1443.711	316.69
1446.956	315.16
1450.201	310.55
1453.445	307.11
1456.689	305.88
1459.933	300.15
1463.177	298.31
1466.42	293.38
1469.663	290.66
1472.906	287.86
1476.148	281.27
1479.391	277.47
1482.633	274.29
1485.874	270.28
1489.115	268.85
1492.356	265.78
1495.597	265.83
1498.838	261.78
1502.078	260.34
1505.318	258.94
1508.557	258.78
1511.797	258.39
1515.036	256.98
1518.274	256.27
1521.513	254.2
1524.751	253.61
1527.989	253.15
1531.227	252
1534.464	253.06
1537.701	250.84
1540.938	250.25
1544.174	247.04
1547.41	246.98
1550.646	245.87
1553.882	245.84
1557.117	242.45
1560.352	240.97
1563.587	240.12
1566.821	238.33
1570.055	235.61
1573.289	234.38
1576.523	234.05
1579.756	232.26
1582.989	230.38
1586.222	230.41
1589.454	228.89
1592.686	230.95
1595.918	230.06
1599.15	229.26
1602.381	229.86
1605.612	229.64
1608.843	230.74
1612.073	229.95
1615.303	231.83
1618.533	232.18
1621.762	231.45
1624.992	231.68
1628.221	231.54
1631.449	231.02
1634.678	230.58
1637.906	230.66
1641.134	231.08
1644.361	230.16
1647.588	231.61
1650.815	230.24
1654.042	229.26
1657.269	230.7
1660.495	230.89
1663.72	229.14
1666.946	230.38
1670.171	230.84
1673.396	230.88
1676.621	230.82
1679.845	230.92
1683.069	230.41
1686.293	231.87
1689.517	233.61
1692.74	233.04
1695.963	234.12
1699.185	237.12
1702.408	237.55
1705.63	238.26
1708.852	238.96
1712.073	239.17
1715.294	239.84
1718.515	241.48
1721.736	241.4
1724.956	241
1728.176	241.08
1731.396	243.63
1734.616	242.31
1737.835	242.9
1741.054	241.56
1744.272	241.87
1747.491	244.46
1750.709	245.2
1753.927	244.58
1757.144	243.54
1760.361	245.7
1763.578	245.97
1766.795	244.37
1770.011	246.6
1773.227	246.66
1776.443	249.5
1779.658	251.24
1782.874	250.28
1786.089	251.2
1789.303	252.08
1792.518	255.25
1795.732	254.63
1798.945	257.6
1802.159	257.56
1805.372	258.29
1808.585	262.97
1811.797	263.65
1815.01	263.65
1818.222	265.68
1821.434	267.54
1824.645	268.95
1827.856	273.34
1831.067	276.17
1834.278	274.11
1837.488	276.51
1840.698	278.57
1843.908	275.33
1847.117	277.26
1850.326	279.28
1853.535	278.65
1856.744	282.42
1859.952	282.58
1863.16	280.87
1866.368	277.94
1869.575	282.48
1872.782	277.51
1875.989	276.55
1879.196	275.58
1882.402	273.6
1885.608	274.43
1888.814	275.05
1892.019	274.49
1895.224	272.89
1898.429	272.24
1901.634	274.64
1904.838	274.51
1908.042	278.43
1911.246	279.23
1914.449	281.22
1917.652	281.22
1920.855	280.93
1924.058	280.38
1927.26	279.26
1930.462	280.38
1933.664	283.38
1936.865	280.37
1940.066	280.16
1943.267	278.56
1946.467	278.11
1949.668	280.03
1952.868	283.63
1956.067	283.43
1959.267	283.45
1962.466	284.11
1965.665	282.97
1968.863	283.7
1972.061	288.12
1975.259	291
1978.457	293.45
1981.654	295.67
1984.852	296.16
1988.048	295.12
1991.245	297.63
1994.441	301.63
1997.637	304.22
2000.833	310.04
2004.028	314
2007.223	315.39
2010.418	318.42
2013.613	323.91
2016.807	327.86
2020.001	330.23
2023.194	335.08
2026.388	342.51
2029.581	350.3
2032.774	352.98
2035.966	359.84
2039.158	360.15
2042.35	367.69
2045.542	369.38
2048.733	375.09
2051.924	380.23
2055.115	387.4
2058.306	388.35
2061.496	393.26
2064.686	391.99
2067.875	400.04
2071.065	401
2074.254	399.5
2077.442	404.01
2080.631	406.64
2083.819	410.25
2087.007	410.34
2090.195	414.86
2093.382	417.73
2096.569	414.17
2099.756	422.58
2102.942	422.05
2106.128	427.37
2109.314	435.94
2112.5	434.54
2115.685	442.42
2118.87	444.02
2122.055	452.24
2125.239	455.89
2128.424	461.6
2131.608	466.38
2134.791	470.8
2137.974	473.39
2141.157	473.94
2144.34	475.06
2147.523	483.41
2150.705	480.59
2153.887	483.75
2157.068	485.65
2160.25	480.13
2163.431	483.31
2166.611	488.3
2169.792	498.14
2172.972	503.89
2176.152	507.21
2179.331	515.37
2182.511	522.49
2185.69	529.42
2188.868	540.76
2192.047	541.56
2195.225	558.42
2198.403	571.75
2201.58	581.89
2204.758	592.69
2207.935	604.5
2211.111	615.8
2214.288	621.99
2217.464	624.27
2220.64	632.58
2223.815	641.43
2226.991	668.18
2230.166	668.69
2233.34	682.19
2236.515	692.4
2239.689	692.6
2242.863	695.83
2246.036	717.9
2249.209	711.34
2252.382	722.46
2255.555	745.4
2258.727	747.56
2261.9	750.91
2265.071	758.33
2268.243	769.39
2271.414	778.87
2274.585	797.33
2277.756	806.23
2280.926	811
2284.096	829.13
2287.266	850.72
2290.436	854.95
2293.605	875.46
2296.774	901.92
2299.942	933.53
2303.111	936.57
2306.279	958.73
2309.447	971.51
2312.614	997.4
2315.781	1022.88
2318.948	1071.29
2322.115	1053.52
2325.281	1112.7
2328.447	1087.39
2331.613	1135.61
2334.779	1119.54
2337.944	1171.25
2341.109	1182.22
2344.274	1211.23
2347.438	1254.38
2350.602	1255.67
2353.766	1294.22
2356.929	1312.94
2360.092	1301.82
2363.255	1400.79
2366.418	1391.39
2369.58	1422.51
2372.742	1508.76
2375.904	1548.38
2379.066	1539.86
2382.227	1509.29
2385.388	1637.04
2388.548	1639.73
2391.709	1662.35
2394.869	1852.05
2398.029	1768.53
2401.188	1820.03
2404.347	1802.92
2407.506	1772.94
2410.665	1828.34
2413.823	1939.12
2416.981	2054.56
2420.139	1981.02
2423.296	1960.87
2426.453	2045.74
2429.61	1969.2
2432.767	2063.87
2435.923	2044.92
2439.079	2234.27
2442.235	2258.66
2445.391	2235.92
2448.546	2222.54
2451.701	2155.36
2454.855	2161.44
2458.009	2289.12
2461.163	2378.77
2464.317	2464.27
2467.471	2527.4
2470.624	2523.34
2473.777	2471.71
2476.929	2417.97
2480.082	2341
2483.234	2311.62
2486.385	2430.9
2489.537	2439.74
2492.688	2534.26
2495.839	2466.73
2498.989	2417.77
2502.14	2426.66
2505.29	2457.65
2508.439	2488.04
2511.589	2478.19
2514.738	2705.3
2517.887	2646.89
2521.035	2795.76
2524.183	2819.48
2527.331	2838.46
2530.479	2826.15
2533.627	2843.41
