Data from C_2_HIR_WI_4N_Splice17_13-35-36-219.txt Node
Date: Sat Mar 07 13:35:36 EST 2020
User: sa697716
Spectrometer: NQ5500242
Trigger mode: 0
Integration Time (sec): 1.450000E-1
Scans to average: 20
Nonlinearity correction enabled: false
Boxcar width: 5
Storing dark spectrum: false
XAxis mode: Wavelengths
Number of Pixels in Spectrum: 512
>>>>>Begin Spectral Data<<<<<
187.83	192.72
188.298	204.27
188.766	182.66
189.233	134.99
189.701	133.06
190.169	159.75
190.636	129.04
191.104	90.24
191.571	-179.59
192.039	-207.44
192.506	-495.4
192.974	5.39
193.441	53.95
193.908	16.74
194.375	-33.65
194.842	-98.69
195.31	-133.4
195.777	-360.05
196.244	71.48
196.711	92.27
197.177	96.71
197.644	97.78
198.111	97.97
198.578	98.07
199.045	98.37
199.511	98.15
199.978	98.31
200.445	98.93
200.911	98.71
201.378	98.63
201.844	98.6
202.31	98.16
202.777	97.84
203.243	97.76
203.709	97.02
204.176	96.24
204.642	95.72
205.108	95.06
205.574	93.95
206.04	92.75
206.506	91.87
206.972	90.95
207.438	89.84
207.903	88.49
208.369	86.54
208.835	84.64
209.301	82.62
209.766	80.15
210.232	77.62
210.697	75.2
211.163	73.17
211.628	71.26
212.094	69.07
212.559	67.28
213.024	65.49
213.49	63.78
213.955	62.01
214.42	60.09
214.885	58.18
215.35	55.61
215.815	52.52
216.28	48.39
216.745	43.63
217.21	39.16
217.675	34.74
218.14	31.04
218.604	27.73
219.069	25.06
219.534	22.81
219.998	20.9
220.463	19.42
220.927	18.02
221.392	16.96
221.856	16.08
222.32	15.32
222.785	14.72
223.249	14.12
223.713	13.63
224.177	13.17
224.642	12.78
225.106	12.39
225.57	11.99
226.034	11.69
226.497	11.38
226.961	11.11
227.425	10.83
227.889	10.56
228.353	10.32
228.816	10.07
229.28	9.84
229.744	9.61
230.207	9.41
230.671	9.21
231.134	9.02
231.597	8.86
232.061	8.68
232.524	8.53
232.987	8.39
233.45	8.26
233.914	8.15
234.377	8.03
234.84	7.91
235.303	7.81
235.766	7.71
236.229	7.61
236.691	7.51
237.154	7.43
237.617	7.35
238.08	7.26
238.542	7.17
239.005	7.1
239.468	7.02
239.93	6.96
240.393	6.9
240.855	6.82
241.317	6.76
241.78	6.67
242.242	6.59
242.704	6.52
243.166	6.45
243.629	6.39
244.091	6.32
244.553	6.25
245.015	6.16
245.477	6.08
245.939	6.02
246.4	5.95
246.862	5.88
247.324	5.82
247.786	5.76
248.247	5.69
248.709	5.62
249.17	5.54
249.632	5.49
250.093	5.45
250.555	5.4
251.016	5.36
251.477	5.31
251.939	5.26
252.4	5.22
252.861	5.18
253.322	5.14
253.783	5.11
254.244	5.08
254.705	5.04
255.166	5
255.627	4.97
256.088	4.93
256.549	4.9
257.009	4.86
257.47	4.81
257.931	4.76
258.391	4.71
258.852	4.66
259.312	4.61
259.773	4.57
260.233	4.53
260.694	4.48
261.154	4.43
261.614	4.4
262.074	4.35
262.534	4.31
262.994	4.28
263.455	4.24
263.915	4.21
264.374	4.17
264.834	4.14
265.294	4.11
265.754	4.09
266.214	4.06
266.673	4.04
267.133	4.02
267.593	4
268.052	3.98
268.512	3.97
268.971	3.96
269.431	3.95
269.89	3.93
270.349	3.92
270.809	3.9
271.268	3.89
271.727	3.87
272.186	3.87
272.645	3.86
273.104	3.84
273.563	3.84
274.022	3.82
274.481	3.82
274.94	3.81
275.399	3.8
275.857	3.79
276.316	3.79
276.775	3.78
277.233	3.78
277.692	3.78
278.15	3.78
278.609	3.77
279.067	3.78
279.525	3.77
279.984	3.77
280.442	3.77
280.9	3.77
281.358	3.78
281.816	3.78
282.274	3.78
282.732	3.78
283.19	3.78
283.648	3.78
284.106	3.78
284.564	3.78
285.021	3.79
285.479	3.79
285.937	3.78
286.394	3.78
286.852	3.77
287.309	3.77
287.767	3.76
288.224	3.74
288.682	3.72
289.139	3.69
289.596	3.67
290.053	3.64
290.511	3.61
290.968	3.6
291.425	3.56
291.882	3.54
292.339	3.52
292.796	3.5
293.252	3.48
293.709	3.48
294.166	3.47
294.623	3.46
295.079	3.44
295.536	3.44
295.992	3.42
296.449	3.42
296.905	3.41
297.362	3.4
297.818	3.39
298.274	3.39
298.731	3.38
299.187	3.37
299.643	3.36
300.099	3.35
300.555	3.35
301.011	3.34
301.467	3.34
301.923	3.33
302.379	3.33
302.835	3.33
303.291	3.33
303.746	3.34
304.202	3.34
304.658	3.34
305.113	3.35
305.569	3.35
306.024	3.36
306.479	3.36
306.935	3.36
307.39	3.36
307.845	3.37
308.301	3.38
308.756	3.38
309.211	3.38
309.666	3.39
310.121	3.4
310.576	3.41
311.031	3.41
311.486	3.41
311.94	3.42
312.395	3.42
312.85	3.43
313.305	3.43
313.759	3.44
314.214	3.44
314.668	3.43
315.123	3.43
315.577	3.42
316.032	3.42
316.486	3.42
316.94	3.41
317.394	3.4
317.849	3.38
318.303	3.36
318.757	3.34
319.211	3.32
319.665	3.31
320.119	3.29
320.572	3.27
321.026	3.26
321.48	3.25
321.934	3.23
322.387	3.23
322.841	3.22
323.295	3.23
323.748	3.22
324.202	3.23
324.655	3.22
325.108	3.23
325.562	3.23
326.015	3.23
326.468	3.24
326.921	3.24
327.374	3.24
327.827	3.25
328.28	3.24
328.733	3.25
329.186	3.25
329.639	3.26
330.092	3.26
330.545	3.26
330.997	3.26
331.45	3.27
331.903	3.28
332.355	3.3
332.808	3.29
333.26	3.29
333.713	3.3
334.165	3.31
334.617	3.32
335.069	3.32
335.522	3.33
335.974	3.34
336.426	3.34
336.878	3.34
337.33	3.34
337.782	3.35
338.234	3.36
338.686	3.36
339.137	3.36
339.589	3.35
340.041	3.35
340.493	3.33
340.944	3.32
341.396	3.3
341.847	3.29
342.299	3.26
342.75	3.24
343.201	3.22
343.653	3.2
344.104	3.17
344.555	3.16
345.006	3.15
345.457	3.14
345.908	3.12
346.359	3.12
346.81	3.11
347.261	3.1
347.712	3.1
348.163	3.09
348.613	3.1
349.064	3.1
349.515	3.1
349.965	3.1
350.416	3.09
350.866	3.1
351.317	3.09
351.767	3.1
352.217	3.1
352.668	3.1
353.118	3.1
353.568	3.1
354.018	3.11
354.468	3.11
354.918	3.12
355.368	3.12
355.818	3.12
356.268	3.13
356.718	3.14
357.168	3.14
357.617	3.14
358.067	3.15
358.517	3.17
358.966	3.17
359.416	3.17
359.865	3.17
360.315	3.17
360.764	3.18
361.213	3.18
361.663	3.17
362.112	3.17
362.561	3.17
363.01	3.17
363.459	3.15
363.908	3.15
364.357	3.15
364.806	3.15
365.255	3.15
365.703	3.16
366.152	3.17
366.601	3.18
367.05	3.18
367.498	3.19
367.947	3.2
368.395	3.21
368.844	3.21
369.292	3.21
369.74	3.21
370.189	3.21
370.637	3.2
371.085	3.19
371.533	3.19
371.981	3.19
372.429	3.19
372.877	3.18
373.325	3.19
373.773	3.19
374.221	3.2
374.669	3.2
375.116	3.2
375.564	3.21
376.012	3.23
376.459	3.24
376.907	3.25
377.354	3.27
377.801	3.28
378.249	3.29
378.696	3.31
379.143	3.33
379.591	3.36
380.038	3.38
380.485	3.4
380.932	3.41
381.379	3.43
381.826	3.45
382.273	3.48
382.72	3.49
383.166	3.51
383.613	3.54
384.06	3.57
384.506	3.59
384.953	3.63
385.4	3.67
385.846	3.72
386.292	3.76
386.739	3.79
387.185	3.85
387.631	3.9
388.078	3.96
388.524	4.01
388.97	4.06
389.416	4.13
389.862	4.19
390.308	4.27
390.754	4.34
391.2	4.42
391.645	4.5
392.091	4.59
392.537	4.67
392.983	4.74
393.428	4.84
393.874	4.93
394.319	5.04
394.765	5.12
395.21	5.21
395.655	5.31
396.101	5.42
396.546	5.53
396.991	5.64
397.436	5.76
397.881	5.89
398.326	6.02
398.771	6.14
399.216	6.26
399.661	6.38
400.106	6.49
400.551	6.59
400.995	6.68
401.44	6.77
401.885	6.85
402.329	6.95
402.774	7.04
403.218	7.15
403.663	7.25
404.107	7.36
404.551	7.46
404.995	7.57
405.44	7.66
405.884	7.76
406.328	7.87
406.772	7.97
407.216	8.07
407.66	8.15
408.104	8.22
408.547	8.32
408.991	8.41
409.435	8.5
409.879	8.59
410.322	8.7
410.766	8.82
411.209	8.92
411.653	9.03
412.096	9.13
412.54	9.24
412.983	9.34
413.426	9.47
413.869	9.56
414.312	9.67
414.756	9.77
415.199	9.85
415.642	9.91
416.085	9.99
416.527	10.05
416.97	10.08
417.413	10.11
417.856	10.14
418.298	10.16
418.741	10.2
419.184	10.23
419.626	10.26
420.069	10.3
420.511	10.35
420.953	10.39
421.396	10.45
421.838	10.51
422.28	10.59
422.722	10.66
423.164	10.72
423.606	10.77
424.048	10.81
424.49	10.81
424.932	10.82
425.374	10.79
425.816	10.73
426.258	10.69
426.699	10.66
427.141	10.65
427.582	10.67
428.024	10.71
428.465	10.74
428.907	10.76
429.348	10.78
429.789	10.83
430.231	10.94
430.672	11.06
431.113	11.18
431.554	11.3
431.995	11.4
432.436	11.45
432.877	11.52
433.318	11.6
433.759	11.68
434.2	11.78
434.64	11.86
435.081	11.93
435.522	12.01
435.962	12.06
436.403	12.14
436.843	12.19
437.284	12.23
437.724	12.28
438.164	12.32
438.604	12.41
439.045	12.49
439.485	12.57
439.925	12.64
440.365	12.7
440.805	12.78
441.245	12.85
441.685	12.96
442.125	13.06
442.564	13.15
443.004	13.26
443.444	13.36
443.883	13.48
444.323	13.58
444.762	13.7
445.202	13.84
445.641	13.98
446.081	14.13
446.52	14.26
446.959	14.4
447.398	14.55
447.837	14.65
448.276	14.73
448.716	14.8
449.154	14.91
449.593	14.98
450.032	15.04
450.471	15.06
450.91	15.07
451.349	15.12
451.787	15.14
452.226	15.14
452.664	15.16
453.103	15.18
453.541	15.2
453.98	15.21
454.418	15.18
454.856	15.16
455.295	15.16
455.733	15.14
456.171	15.11
456.609	15.1
457.047	15.08
457.485	15.06
457.923	15.07
458.361	15.08
458.798	15.08
459.236	15.1
459.674	15.1
460.111	15.12
460.549	15.16
460.987	15.19
461.424	15.22
461.862	15.26
462.299	15.29
462.736	15.31
463.173	15.33
463.611	15.37
464.048	15.4
464.485	15.45
464.922	15.49
465.359	15.52
465.796	15.56
466.233	15.62
466.67	15.64
467.106	15.7
467.543	15.74
467.98	15.78
468.416	15.81
468.853	15.86
469.29	15.9
469.726	15.97
470.162	16
470.599	16.03
471.035	16.04
471.471	16.08
471.907	16.09
472.344	16.11
472.78	16.16
473.216	16.17
473.652	16.21
474.088	16.21
474.523	16.23
474.959	16.25
475.395	16.25
475.831	16.26
476.266	16.27
476.702	16.28
477.138	16.28
477.573	16.28
478.008	16.29
478.444	16.26
478.879	16.25
479.314	16.22
479.75	16.2
480.185	16.17
480.62	16.14
481.055	16.07
481.49	16
481.925	15.92
482.36	15.85
482.795	15.78
483.229	15.74
483.664	15.71
484.099	15.68
484.534	15.66
484.968	15.68
485.403	15.7
485.837	15.74
486.271	15.81
486.706	15.88
487.14	15.95
487.574	16.01
488.009	16.06
488.443	16.12
488.877	16.19
489.311	16.27
489.745	16.35
490.179	16.45
490.613	16.54
491.046	16.65
491.48	16.76
491.914	16.88
492.348	17.02
492.781	17.16
493.215	17.3
493.648	17.43
494.082	17.55
494.515	17.69
494.948	17.82
495.382	17.95
495.815	18.09
496.248	18.24
496.681	18.4
497.114	18.55
497.547	18.71
497.98	18.88
498.413	19.07
498.846	19.27
499.279	19.46
499.711	19.67
500.144	19.89
500.577	20.11
501.009	20.34
501.442	20.59
501.874	20.84
502.306	21.11
502.739	21.4
503.171	21.65
503.603	21.92
504.036	22.21
504.468	22.49
504.9	22.78
505.332	23.08
505.764	23.39
506.196	23.69
506.627	24
507.059	24.32
507.491	24.62
507.923	24.95
508.354	25.3
508.786	25.64
509.217	25.97
509.649	26.3
510.08	26.61
510.512	26.94
510.943	27.27
511.374	27.6
511.805	27.91
512.237	28.2
512.668	28.48
513.099	28.76
513.53	29.06
513.961	29.37
514.391	29.7
514.822	30.05
515.253	30.38
515.684	30.71
516.114	31.05
516.545	31.41
516.975	31.81
517.406	32.2
517.836	32.59
518.267	32.97
518.697	33.31
519.127	33.63
519.558	33.97
519.988	34.29
520.418	34.62
520.848	34.93
521.278	35.23
521.708	35.66
522.138	35.91
522.567	36.12
522.997	36.33
523.427	36.58
523.857	36.84
524.286	37.07
524.716	37.3
525.145	37.52
525.575	37.74
526.004	37.95
526.433	38
526.863	38.25
527.292	38.48
527.721	38.69
528.15	38.86
528.579	39
529.008	39.14
529.437	39.26
529.866	39.38
530.295	39.49
530.724	39.61
531.152	39.73
531.581	39.84
532.01	39.94
532.438	40.08
532.867	40.19
533.295	40.3
533.723	40.41
534.152	40.49
534.58	40.59
535.008	40.63
535.436	40.68
535.865	40.69
536.293	40.71
536.721	40.75
537.149	40.78
537.576	40.83
538.004	40.89
538.432	40.93
538.86	41
539.287	41.03
539.715	41.14
540.143	41.23
540.57	41.32
540.998	41.41
541.425	41.49
541.852	41.56
542.28	41.64
542.707	41.71
543.134	41.78
543.561	41.84
543.988	41.92
544.415	41.96
544.842	42.01
545.269	42.07
545.696	42.14
546.123	42.2
546.549	42.26
546.976	42.3
547.403	42.35
547.829	42.39
548.256	42.45
548.682	42.5
549.108	42.55
549.535	42.62
549.961	42.67
550.387	42.7
550.813	42.73
551.24	42.75
551.666	42.78
552.092	42.8
552.518	42.81
552.943	42.79
553.369	42.78
553.795	42.77
554.221	42.72
554.646	42.64
555.072	42.59
555.498	42.54
555.923	42.45
556.349	42.37
556.774	42.31
557.199	42.24
557.625	42.18
558.05	42.13
558.475	42.05
558.9	42.01
559.325	41.98
559.75	41.91
560.175	41.84
560.6	41.77
561.025	41.69
561.449	41.59
561.874	41.46
562.299	41.34
562.723	41.23
563.148	41.1
563.572	40.93
563.997	40.78
564.421	40.64
564.846	40.48
565.27	40.35
565.694	40.22
566.118	40.07
566.542	39.92
566.966	39.76
567.39	39.59
567.814	39.44
568.238	39.34
568.662	39.2
569.086	39.07
569.509	38.96
569.933	38.84
570.357	38.71
570.78	38.6
571.204	38.5
571.627	38.41
572.05	38.3
572.474	38.22
572.897	38.09
573.32	37.97
573.743	37.86
574.166	37.74
574.589	37.62
575.012	37.5
575.435	37.42
575.858	37.32
576.281	37.22
576.704	37.15
577.126	37.05
577.549	36.99
577.972	36.91
578.394	36.84
578.817	36.79
579.239	36.73
579.661	36.69
580.084	36.62
580.506	36.56
580.928	36.49
581.35	36.42
581.772	36.35
582.194	36.26
582.616	36.21
583.038	36.15
583.46	36.06
583.882	35.98
584.303	35.87
584.725	35.75
585.147	35.65
585.568	35.54
585.99	35.46
586.411	35.39
586.833	35.32
587.254	35.23
587.675	35.15
588.096	35.1
588.518	35.05
588.939	35.04
589.36	35.03
589.781	34.99
590.202	34.99
590.623	34.95
591.043	34.9
591.464	34.88
591.885	34.83
592.305	34.79
592.726	34.76
593.147	34.71
593.567	34.64
593.987	34.58
594.408	34.55
594.828	34.51
595.248	34.49
595.669	34.45
596.089	34.4
596.509	34.35
596.929	34.3
597.349	34.22
597.769	34.17
598.189	34.13
598.608	34.1
599.028	34.05
599.448	33.99
599.867	33.94
600.287	33.89
600.706	33.85
601.126	33.82
601.545	33.79
601.965	33.76
602.384	33.72
602.803	33.66
603.222	33.61
603.641	33.55
604.061	33.49
604.48	33.4
604.898	33.3
605.317	33.22
605.736	33.12
606.155	33.03
606.574	32.93
606.992	32.83
607.411	32.75
607.829	32.61
608.248	32.48
608.666	32.37
609.085	32.26
609.503	32.16
609.921	32.04
610.339	31.95
610.758	31.84
611.176	31.74
611.594	31.64
612.012	31.5
612.43	31.42
612.847	31.33
613.265	31.24
613.683	31.15
614.101	31.09
614.518	30.99
614.936	30.9
615.353	30.82
615.771	30.74
616.188	30.66
616.606	30.6
617.023	30.53
617.44	30.48
617.857	30.41
618.274	30.34
618.691	30.25
619.108	30.18
619.525	30.12
619.942	30.03
620.359	29.96
620.776	29.89
621.192	29.84
621.609	29.79
622.026	29.73
622.442	29.68
622.859	29.64
623.275	29.59
623.691	29.56
624.108	29.53
624.524	29.51
624.94	29.49
625.356	29.47
625.772	29.42
626.188	29.39
626.604	29.37
627.02	29.35
627.436	29.33
627.852	29.31
628.268	29.29
628.683	29.26
629.099	29.26
629.514	29.24
629.93	29.22
630.345	29.21
630.761	29.16
631.176	29.13
631.591	29.09
632.007	29.05
632.422	29.01
632.837	28.96
633.252	28.89
633.667	28.81
634.082	28.74
634.497	28.66
634.911	28.57
635.326	28.49
635.741	28.4
636.155	28.28
636.57	28.17
636.984	28.03
637.399	27.9
637.813	27.77
638.228	27.61
638.642	27.44
639.056	27.27
639.47	27.12
639.884	26.96
640.298	26.78
640.712	26.61
641.126	26.44
641.54	26.26
641.954	26.08
642.368	25.88
642.781	25.72
643.195	25.55
643.609	25.36
644.022	25.17
644.436	24.99
644.849	24.8
645.262	24.63
645.676	24.45
646.089	24.3
646.502	24.16
646.915	24.04
647.328	23.91
647.741	23.79
648.154	23.68
648.567	23.59
648.98	23.5
649.393	23.41
649.805	23.33
650.218	23.26
650.631	23.17
651.043	23.06
651.456	22.95
651.868	22.81
652.28	22.66
652.693	22.53
653.105	22.38
653.517	22.24
653.929	22.12
654.341	21.99
654.753	21.84
655.165	21.7
655.577	21.56
655.989	21.42
656.401	21.31
656.813	21.19
657.224	21.05
657.636	20.9
658.047	20.74
658.459	20.56
658.87	20.37
659.282	20.17
659.693	19.99
660.104	19.78
660.515	19.57
660.926	19.36
661.338	19.15
661.749	18.93
662.159	18.72
662.57	18.52
662.981	18.31
663.392	18.09
663.803	17.89
664.213	17.69
664.624	17.5
665.035	17.32
665.445	17.13
665.855	16.94
666.266	16.76
666.676	16.61
667.086	16.44
667.497	16.29
667.907	16.16
668.317	16.04
668.727	15.9
669.137	15.8
669.547	15.69
669.956	15.59
670.366	15.5
670.776	15.43
671.186	15.35
671.595	15.29
672.005	15.21
672.414	15.15
672.824	15.08
673.233	15.04
673.642	14.99
674.052	14.97
674.461	14.96
674.87	14.94
675.279	14.95
675.688	14.96
676.097	14.98
676.506	15.01
676.915	15.05
677.323	15.11
677.732	15.19
678.141	15.27
678.549	15.36
678.958	15.47
679.366	15.61
679.775	15.75
680.183	15.93
680.592	16.14
681	16.38
681.408	16.64
681.816	16.92
682.224	17.22
682.632	17.53
683.04	17.85
683.448	18.21
683.856	18.59
684.264	19.03
684.671	19.48
685.079	19.95
685.487	20.45
685.894	21
686.302	21.58
686.709	22.19
687.116	22.84
687.524	23.51
687.931	24.21
688.338	24.92
688.745	25.62
689.152	26.33
689.559	27.06
689.966	27.78
690.373	28.5
690.78	29.19
691.187	29.87
691.593	30.54
692	31.21
692.407	31.86
692.813	32.5
693.22	33.11
693.626	33.72
694.032	34.33
694.439	34.89
694.845	35.44
695.251	35.99
695.657	36.49
696.063	36.99
696.469	37.48
696.875	37.96
697.281	38.42
697.687	38.85
698.093	39.28
698.498	39.67
698.904	40.08
699.31	40.46
699.715	40.83
700.12	41.22
700.526	41.6
700.931	41.95
701.337	42.27
701.742	42.6
702.147	42.91
702.552	43.22
702.957	43.48
703.362	43.77
703.767	44.01
704.172	44.27
704.577	44.52
704.981	44.75
705.386	44.98
705.791	45.22
706.195	45.44
706.6	45.67
707.004	45.85
707.408	46.08
707.813	46.29
708.217	46.49
708.621	46.67
709.025	46.83
709.43	46.99
709.834	47.17
710.237	47.33
710.641	47.47
711.045	47.63
711.449	47.8
711.853	47.95
712.256	48.02
712.66	48.15
713.064	48.24
713.467	48.34
713.87	48.42
714.274	48.45
714.677	48.49
715.08	48.52
715.484	48.56
715.887	48.63
716.29	48.65
716.693	48.77
717.096	48.87
717.499	48.99
717.901	49.11
718.304	49.24
718.707	49.4
719.109	49.52
719.512	49.67
719.915	49.8
720.317	49.86
720.719	49.95
721.122	50.02
721.524	50.1
721.926	50.14
722.328	50.18
722.731	50.22
723.133	50.27
723.535	50.34
723.937	50.37
724.338	50.4
724.74	50.49
725.142	50.68
725.544	50.71
725.945	50.79
726.347	50.86
726.748	50.88
727.15	50.93
727.551	51.01
727.952	51.05
728.354	51.13
728.755	51.19
729.156	51.24
729.557	51.18
729.958	51.24
730.359	51.28
730.76	51.34
731.161	51.42
731.562	51.48
731.962	51.47
732.363	51.51
732.763	51.55
733.164	51.57
733.564	51.61
733.965	51.63
734.365	51.7
734.766	51.71
735.166	51.72
735.566	51.72
735.966	51.72
736.366	51.75
736.766	51.75
737.166	51.77
737.566	51.79
737.966	51.78
738.365	51.78
738.765	51.77
739.165	51.77
739.564	51.8
739.964	51.83
740.363	51.83
740.763	51.85
741.162	51.9
741.561	51.89
741.96	51.88
742.36	51.9
742.759	51.91
743.158	51.93
743.557	51.9
743.955	51.91
744.354	51.91
744.753	51.95
745.152	51.98
745.55	51.98
745.949	52.01
746.348	52.04
746.746	52.02
747.144	52.05
747.543	52.03
747.941	52.05
748.339	51.98
748.737	51.96
749.136	51.93
749.534	51.88
749.932	51.85
750.33	51.83
750.727	51.79
751.125	51.8
751.523	51.77
751.921	51.77
752.318	51.77
752.716	51.82
753.113	51.81
753.511	51.8
753.908	51.83
754.305	51.81
754.703	51.76
755.1	51.68
755.497	51.5
755.894	51.25
756.291	50.93
756.688	50.59
757.085	50.27
757.482	49.99
757.878	49.74
758.275	49.47
758.672	49.21
759.068	48.98
759.465	48.82
759.861	48.76
760.258	48.79
760.654	48.9
761.05	49.08
761.447	49.22
761.843	49.36
762.239	49.48
762.635	49.63
763.031	49.83
763.427	50.04
763.822	50.27
764.218	50.49
764.614	50.7
765.01	50.89
765.405	51.06
765.801	51.21
766.196	51.39
766.592	51.52
766.987	51.65
767.382	51.73
767.778	51.8
768.173	51.86
768.568	51.89
768.963	51.91
769.358	51.97
769.753	52
770.148	52.04
770.542	52.04
770.937	52.08
771.332	52.07
771.726	52.08
772.121	52.1
772.515	52.08
772.91	52.07
773.304	52.12
773.699	52.09
774.093	52.03
774.487	52.03
774.881	52.01
775.275	51.97
775.669	51.94
776.063	51.93
776.457	51.92
776.851	51.9
777.245	51.88
777.638	51.85
778.032	51.87
778.425	51.92
778.819	51.9
779.212	51.93
779.606	51.94
779.999	51.94
780.392	51.94
780.786	51.9
781.179	51.91
781.572	51.94
781.965	51.92
782.358	51.91
782.751	51.86
783.143	51.84
783.536	51.78
783.929	51.73
784.322	51.76
784.714	51.77
785.107	51.79
785.499	51.77
785.891	51.72
786.284	51.72
786.676	51.67
787.068	51.67
787.46	51.65
787.852	51.64
788.245	51.65
788.636	51.59
789.028	51.55
789.42	51.49
789.812	51.46
790.204	51.42
790.595	51.39
790.987	51.39
791.378	51.37
791.77	51.35
792.161	51.34
792.553	51.3
792.944	51.28
793.335	51.28
793.726	51.29
794.117	51.26
794.508	51.24
794.899	51.2
795.29	51.17
795.681	51.14
796.072	51.1
796.463	51.11
796.853	51.09
797.244	51.07
797.634	51.04
798.025	51.01
798.415	50.98
798.806	50.96
799.196	50.94
799.586	50.94
799.976	50.94
800.366	50.95
800.756	50.9
801.146	50.88
801.536	50.84
801.926	50.82
802.316	50.79
802.706	50.8
803.095	50.78
803.485	50.73
803.874	50.68
804.264	50.62
804.653	50.57
805.043	50.54
805.432	50.5
805.821	50.48
806.21	50.44
806.599	50.39
806.988	50.34
807.377	50.28
807.766	50.26
808.155	50.19
808.544	50.16
808.933	50.11
809.321	50.06
809.71	50.02
810.098	49.98
810.487	49.9
810.875	49.82
811.264	49.76
811.652	49.73
812.04	49.69
812.428	49.66
812.816	49.59
813.204	49.54
813.592	49.44
813.98	49.39
814.368	49.33
814.756	49.3
815.144	49.26
815.531	49.21
815.919	49.15
816.306	49.12
816.694	49.07
817.081	49.08
817.469	49.08
817.856	49.06
818.243	49
818.63	48.97
819.017	48.92
819.404	48.88
819.791	48.87
820.178	48.87
820.565	48.83
820.952	48.81
821.339	48.75
821.725	48.72
822.112	48.72
822.498	48.73
822.885	48.74
823.271	48.74
823.657	48.71
824.044	48.7
824.43	48.64
824.816	48.62
825.202	48.59
825.588	48.55
825.974	48.5
826.36	48.46
826.746	48.42
827.132	48.37
827.517	48.34
827.903	48.35
828.289	48.34
828.674	48.33
829.06	48.29
829.445	48.27
829.83	48.26
830.216	48.22
830.601	48.21
830.986	48.2
831.371	48.15
831.756	48.15
832.141	48.13
832.526	48.08
832.911	48.05
833.295	48.03
833.68	48.02
834.065	48.01
834.449	47.99
834.834	47.95
835.218	47.92
835.603	47.91
835.987	47.87
836.371	47.84
836.755	47.82
837.139	47.79
837.524	47.8
837.908	47.79
838.291	47.79
838.675	47.79
839.059	47.81
839.443	47.78
839.827	47.75
840.21	47.72
840.594	47.72
840.977	47.69
841.361	47.69
841.744	47.64
842.127	47.6
842.511	47.55
842.894	47.51
843.277	47.5
843.66	47.46
844.043	47.49
844.426	47.49
844.809	47.49
845.191	47.48
845.574	47.46
845.957	47.45
846.339	47.44
846.722	47.43
847.104	47.44
847.487	47.39
847.869	47.39
848.252	47.34
848.634	47.33
849.016	47.32
849.398	47.33
849.78	47.31
850.162	47.29
850.544	47.27
850.926	47.27
851.307	47.25
851.689	47.27
852.071	47.27
852.452	47.29
852.834	47.28
853.215	47.26
853.597	47.23
853.978	47.23
854.359	47.25
854.741	47.23
855.122	47.21
855.503	47.19
855.884	47.16
856.265	47.16
856.646	47.13
857.026	47.13
857.407	47.13
857.788	47.11
858.169	47.11
858.549	47.09
858.93	47.09
859.31	47.08
859.69	47.09
860.071	47.11
860.451	47.1
860.831	47.1
861.211	47.07
861.591	47.04
861.971	47.04
862.351	47.03
862.731	47.03
863.111	47.01
863.491	47.01
863.87	46.99
864.25	46.98
864.629	46.97
865.009	46.96
865.388	46.93
865.768	46.94
866.147	46.93
866.526	46.92
866.905	46.89
867.284	46.9
867.663	46.91
868.042	46.9
868.421	46.91
868.8	46.89
869.179	46.89
869.558	46.9
869.936	46.89
870.315	46.88
870.693	46.89
871.072	46.91
871.45	46.92
871.828	46.91
872.207	46.95
872.585	46.93
872.963	46.97
873.341	46.96
873.719	46.97
874.097	46.97
874.475	46.98
874.853	46.99
875.23	47.01
875.608	47.01
875.986	47.02
876.363	47.02
876.741	47.02
877.118	46.99
877.495	46.99
877.873	46.99
878.25	47.01
878.627	47.02
879.004	47.02
879.381	46.99
879.758	46.96
880.135	46.94
880.512	46.92
880.889	46.9
881.265	46.87
881.642	46.89
882.019	46.88
882.395	46.85
882.772	46.83
883.148	46.79
883.524	46.77
883.901	46.76
884.277	46.74
884.653	46.69
885.029	46.67
885.405	46.69
885.781	46.66
886.157	46.62
886.532	46.61
886.908	46.57
887.284	46.57
887.659	46.53
888.035	46.5
888.411	46.48
888.786	46.49
889.161	46.49
889.537	46.43
889.912	46.41
890.287	46.4
890.662	46.38
891.037	46.37
891.412	46.35
891.787	46.35
892.162	46.34
892.536	46.33
892.911	46.32
893.286	46.29
893.66	46.29
894.035	46.28
894.409	46.25
894.784	46.26
895.158	46.25
895.532	46.23
895.906	46.22
896.281	46.21
896.655	46.2
897.029	46.2
897.402	46.21
897.776	46.22
898.15	46.23
898.524	46.26
898.898	46.25
899.271	46.26
899.645	46.29
900.018	46.33
900.392	46.37
900.765	46.4
901.138	46.39
901.511	46.42
901.884	46.43
902.258	46.45
902.631	46.44
903.003	46.47
903.376	46.46
903.749	46.44
904.122	46.45
904.495	46.46
904.867	46.46
905.24	46.49
905.612	46.51
905.985	46.49
906.357	46.49
906.729	46.52
907.102	46.53
907.474	46.59
907.846	46.63
908.218	46.64
908.59	46.63
908.962	46.63
909.334	46.63
909.705	46.61
910.077	46.65
910.449	46.65
910.82	46.66
911.192	46.65
911.563	46.59
911.935	46.57
912.306	46.57
912.677	46.57
913.048	46.59
913.419	46.57
913.79	46.58
914.161	46.58
914.532	46.59
914.903	46.6
915.274	46.61
915.645	46.67
916.015	46.69
916.386	46.68
916.756	46.69
917.127	46.7
917.497	46.73
917.868	46.76
918.238	46.76
918.608	46.8
918.978	46.8
919.348	46.84
919.718	46.82
920.088	46.87
920.458	46.89
920.828	46.89
921.198	46.88
921.567	46.88
921.937	46.9
922.306	46.89
922.676	46.88
923.045	46.88
923.415	46.85
923.784	46.86
924.153	46.85
924.522	46.85
924.891	46.85
925.26	46.87
925.629	46.86
925.998	46.84
926.367	46.85
926.736	46.85
927.104	46.85
927.473	46.85
927.842	46.81
928.21	46.8
928.578	46.8
928.947	46.79
929.315	46.75
929.683	46.75
930.051	46.7
930.42	46.68
930.788	46.64
931.156	46.6
931.523	46.55
931.891	46.6
932.259	46.59
932.627	46.61
932.994	46.58
933.362	46.61
933.729	46.6
934.097	46.64
934.464	46.65
934.831	46.68
935.199	46.76
935.566	46.83
935.933	46.8
936.3	46.8
936.667	46.81
937.034	46.89
937.401	46.92
937.767	47.02
938.134	47.08
938.501	47.13
938.867	47.24
939.234	47.25
939.6	47.3
939.967	47.39
940.333	47.4
940.699	47.5
941.065	47.48
941.431	47.51
941.798	47.47
942.163	47.47
942.529	47.49
942.895	47.42
943.261	47.4
943.627	47.33
943.992	47.28
944.358	47.29
944.723	47.23
945.089	47.14
945.454	47.16
945.82	47.15
946.185	47.13
946.55	47.06
946.915	47.04
947.28	47
947.645	47
948.01	46.98
948.375	46.94
948.74	46.91
949.104	46.95
949.469	46.88
949.834	46.84
950.198	46.83
950.562	46.79
950.927	46.74
951.291	46.7
951.655	46.63
952.02	46.63
952.384	46.57
952.748	46.57
953.112	46.53
953.476	46.5
953.839	46.43
954.203	46.39
954.567	46.39
954.931	46.33
955.294	46.3
955.658	46.36
956.021	46.35
956.385	46.32
956.748	46.25
957.111	46.21
957.474	46.17
957.837	46.17
958.2	46.15
958.563	46.14
958.926	46.17
959.289	46.17
959.652	46.12
960.015	46.14
960.377	46.15
960.74	46.2
961.102	46.24
961.465	46.32
961.827	46.39
962.189	46.42
962.552	46.42
962.914	46.44
963.276	46.47
963.638	46.5
964	46.44
964.362	46.49
964.724	46.44
965.085	46.44
965.447	46.39
965.809	46.35
966.17	46.36
966.532	46.32
966.893	46.34
967.255	46.35
967.616	46.35
967.977	46.42
968.338	46.42
968.699	46.46
969.061	46.49
969.421	46.54
969.782	46.57
970.143	46.62
970.504	46.74
970.865	46.77
971.225	46.79
971.586	46.83
971.946	46.8
972.307	46.85
972.667	46.87
973.027	46.84
973.388	46.9
973.748	46.95
974.108	47
974.468	46.95
974.828	47.02
975.188	46.99
975.548	46.95
975.907	46.96
976.267	46.96
976.627	47.02
976.986	47.09
977.346	47.04
977.705	47.02
978.064	47.03
978.424	47.04
978.783	46.97
979.142	47.06
979.501	47.11
979.86	47.15
980.219	47.2
980.578	47.21
980.937	47.16
981.296	47.16
981.654	47.19
982.013	47.2
982.371	47.19
982.73	47.22
983.088	47.21
983.447	47.18
983.805	47.21
984.163	47.19
984.521	47.24
984.879	47.27
985.237	47.34
985.595	47.44
985.953	47.42
986.311	47.44
986.669	47.51
987.026	47.55
987.384	47.69
987.741	47.75
988.099	47.84
988.456	47.83
988.814	47.93
989.171	48
989.528	47.96
989.885	47.94
990.242	48.04
990.599	48.07
990.956	48.16
991.313	48.23
991.67	48.27
992.027	48.36
992.383	48.45
992.74	48.55
993.096	48.55
993.453	48.57
993.809	48.71
994.165	48.79
994.522	49
994.878	49.06
995.234	49.04
995.59	49.06
995.946	49.05
996.302	49.21
996.658	49.28
997.013	49.31
997.369	49.5
997.725	49.57
998.08	49.67
998.436	49.49
998.791	49.56
999.147	49.6
999.502	49.73
999.857	49.8
1000.212	49.73
1000.567	49.76
1000.922	49.89
1001.277	49.89
1001.632	49.83
1001.987	49.89
1002.342	49.91
1002.696	49.99
1003.051	50.29
1003.406	50.47
1003.76	50.54
1004.114	50.6
1004.469	50.71
1004.823	51.05
1005.177	51.05
1005.531	51.29
1005.885	51.39
1006.239	51.63
1006.593	51.74
1006.947	51.6
1007.301	51.5
1007.655	51.58
1008.008	51.68
1008.362	51.82
1008.715	51.62
1009.069	51.82
1009.422	51.97
1009.776	51.87
1010.129	51.87
1010.482	51.94
1010.835	52.15
1011.188	52.3
1011.541	52.45
1011.894	52.62
1012.247	52.69
1012.6	52.9
1012.952	52.94
1013.305	53.12
1013.657	53.37
1014.01	53.58
1014.362	53.65
1014.715	53.77
1015.067	54.13
1015.419	54.27
1015.771	54.3
1016.123	54.37
1016.475	54.35
1016.827	54.52
1017.179	54.66
1017.531	54.89
1017.883	54.98
1018.234	55.31
1018.586	55.41
1018.938	55.55
1019.289	55.59
1019.64	55.83
1019.992	56.02
1020.343	56.26
1020.694	56.3
1021.045	56.22
1021.396	56.57
1021.747	56.9
1022.098	56.83
1022.449	56.96
1022.8	57.04
1023.151	57.16
1023.501	57.36
1023.852	57.71
1024.202	57.77
1024.553	57.99
1024.903	58.39
1025.253	58.49
1025.604	58.63
1025.954	58.55
1026.304	58.78
1026.654	58.71
1027.004	58.78
1027.354	58.88
1027.703	58.81
1028.053	59
1028.403	59.36
1028.753	59.2
1029.102	59.3
1029.452	59.39
1029.801	59.94
1030.15	59.94
1030.499	60.08
897.758	1593.53
901.051	1600.4
904.343	1593.85
907.636	1621.96
910.928	1577.9
914.22	1578.63
917.511	1557.15
920.803	1489.86
924.094	1485.09
927.384	1449.99
930.675	1386.42
933.965	1378.65
937.255	1297.94
940.544	1246.91
943.834	1186.65
947.123	1176.85
950.411	1108.47
953.7	1084.64
956.988	1023.63
960.276	983.25
963.563	968.95
966.851	934.57
970.138	927.29
973.424	897.79
976.711	904.78
979.997	860.3
983.283	854.78
986.568	835.78
989.853	809.98
993.138	798.12
996.423	766.9
999.708	744.9
1002.992	737.54
1006.275	702.88
1009.559	697.08
1012.842	671.68
1016.125	653.2
1019.408	642.21
1022.69	632.63
1025.972	621.35
1029.254	605.8
1032.536	595.56
1035.817	582.2
1039.098	574.91
1042.379	562.58
1045.659	557.18
1048.939	541.52
1052.219	531.66
1055.498	522.91
1058.778	511.44
1062.057	498.58
1065.335	493.45
1068.614	487.74
1071.892	483.08
1075.17	467.02
1078.447	458.41
1081.724	455.05
1085.001	451.87
1088.278	441.89
1091.554	433.33
1094.83	433.67
1098.106	430.91
1101.382	427.18
1104.657	424.25
1107.932	416.7
1111.206	420.74
1114.481	409.74
1117.755	404.78
1121.029	401.88
1124.302	401.9
1127.575	393.76
1130.848	388.8
1134.121	384.19
1137.393	382.96
1140.665	373.44
1143.937	372.92
1147.208	368.22
1150.48	368.87
1153.75	364.57
1157.021	358.49
1160.291	358.89
1163.561	355.87
1166.831	355.4
1170.101	353.47
1173.37	351.85
1176.639	353.74
1179.907	349.21
1183.176	346.06
1186.444	345.55
1189.711	344.91
1192.979	345.03
1196.246	341.77
1199.513	342.89
1202.78	341.34
1206.046	340.79
1209.312	337.12
1212.578	338.08
1215.843	341.12
1219.108	338.96
1222.373	345.91
1225.638	348.29
1228.902	353.26
1232.166	353.47
1235.43	356.36
1238.693	360.2
1241.956	362.53
1245.219	368.87
1248.482	368.01
1251.744	367.54
1255.006	369.64
1258.268	359.81
1261.529	356.42
1264.79	353.4
1268.051	351.66
1271.312	347.33
1274.572	343.7
1277.832	340.35
1281.092	334.23
1284.351	331.55
1287.61	331.61
1290.869	326.36
1294.128	325.03
1297.386	324.56
1300.644	321.13
1303.902	322.52
1307.159	320.67
1310.416	320.82
1313.673	320.52
1316.93	323.97
1320.186	324.12
1323.442	325.1
1326.697	330.6
1329.953	331.56
1333.208	333.24
1336.463	336.84
1339.717	337.35
1342.972	342.2
1346.226	344.28
1349.479	344.63
1352.733	346.83
1355.986	348.06
1359.238	347.65
1362.491	349.83
1365.743	353.12
1368.995	353.26
1372.247	352.12
1375.498	352.06
1378.749	354.37
1382	350.24
1385.251	351.84
1388.501	349.12
1391.751	351.61
1395	349.48
1398.25	346.24
1401.499	344.07
1404.748	343.33
1407.996	340.25
1411.244	338.44
1414.492	336.85
1417.74	335.11
1420.987	329.66
1424.234	329.57
1427.481	324.32
1430.728	324.4
1433.974	320.47
1437.22	318.15
1440.465	317.1
1443.711	315.38
1446.956	314.09
1450.201	309.11
1453.445	305.96
1456.689	305
1459.933	299.23
1463.177	297.22
1466.42	292.99
1469.663	290.07
1472.906	287.84
1476.148	281.07
1479.391	277.15
1482.633	274.01
1485.874	270.59
1489.115	268.73
1492.356	265.14
1495.597	265.35
1498.838	261.24
1502.078	259.26
1505.318	258.35
1508.557	257.98
1511.797	257.34
1515.036	255.96
1518.274	255.44
1521.513	252.76
1524.751	252.47
1527.989	252.01
1531.227	250.65
1534.464	251.6
1537.701	249.8
1540.938	248.87
1544.174	246.21
1547.41	245.92
1550.646	244.87
1553.882	245.13
1557.117	241.74
1560.352	240.31
1563.587	239.82
1566.821	238.11
1570.055	235.61
1573.289	234.2
1576.523	234.05
1579.756	232.07
1582.989	230.37
1586.222	230.45
1589.454	227.91
1592.686	230.33
1595.918	228.9
1599.15	227.95
1602.381	228.47
1605.612	227.89
1608.843	229.24
1612.073	228.55
1615.303	230.06
1618.533	230.62
1621.762	229.79
1624.992	230.5
1628.221	230.29
1631.449	230.48
1634.678	230.15
1637.906	230.45
1641.134	230.81
1644.361	229.8
1647.588	230.99
1650.815	229.66
1654.042	228.89
1657.269	229.98
1660.495	230.2
1663.72	228.88
1666.946	229.68
1670.171	230.2
1673.396	229.99
1676.621	229.98
1679.845	230.63
1683.069	229.74
1686.293	231.81
1689.517	233.12
1692.74	233.01
1695.963	233.85
1699.185	236.55
1702.408	236.91
1705.63	237.66
1708.852	238.73
1712.073	238.77
1715.294	238.84
1718.515	241.22
1721.736	240.5
1724.956	240.48
1728.176	240.58
1731.396	243.04
1734.616	241.58
1737.835	242.35
1741.054	240.73
1744.272	241.43
1747.491	243.98
1750.709	244.71
1753.927	244.03
1757.144	242.95
1760.361	244.89
1763.578	245.48
1766.795	244.2
1770.011	246.26
1773.227	246.19
1776.443	249.57
1779.658	250.64
1782.874	250.3
1786.089	251.06
1789.303	251.86
1792.518	255.12
1795.732	254.59
1798.945	257.27
1802.159	257.58
1805.372	258.5
1808.585	263.16
1811.797	263.79
1815.01	263.76
1818.222	265.54
1821.434	267.04
1824.645	268.58
1827.856	272.82
1831.067	275.56
1834.278	273.7
1837.488	275.86
1840.698	277.93
1843.908	274.8
1847.117	276.26
1850.326	278.19
1853.535	277.42
1856.744	281.89
1859.952	281.33
1863.16	279.96
1866.368	277.61
1869.575	282.13
1872.782	277.2
1875.989	275.91
1879.196	275.11
1882.402	273.46
1885.608	274.1
1888.814	275.04
1892.019	274.55
1895.224	273.63
1898.429	272.42
1901.634	273.9
1904.838	274
1908.042	277.79
1911.246	279.05
1914.449	280.84
1917.652	280.55
1920.855	280.41
1924.058	279.55
1927.26	277.68
1930.462	279.11
1933.664	282.65
1936.865	279.85
1940.066	279.48
1943.267	277.47
1946.467	277.23
1949.668	279.35
1952.868	282.73
1956.067	282.63
1959.267	283.34
1962.466	284.37
1965.665	282.78
1968.863	283.16
1972.061	287.45
1975.259	289.6
1978.457	292.82
1981.654	294.84
1984.852	295.35
1988.048	294.37
1991.245	296.67
1994.441	300.21
1997.637	302.84
2000.833	308.91
2004.028	312.78
2007.223	314.1
2010.418	317.56
2013.613	322.25
2016.807	325.84
2020.001	327.91
2023.194	333.25
2026.388	341.2
2029.581	348.79
2032.774	351.06
2035.966	357.61
2039.158	358.17
2042.35	366.14
2045.542	368.2
2048.733	374.24
2051.924	379.2
2055.115	386.71
2058.306	387.17
2061.496	391.47
2064.686	390.13
2067.875	398.97
2071.065	399.89
2074.254	398.21
2077.442	402.54
2080.631	404.55
2083.819	407.95
2087.007	408.7
2090.195	412.33
2093.382	415.68
2096.569	412.54
2099.756	420.77
2102.942	419.74
2106.128	424.96
2109.314	434
2112.5	432.13
2115.685	441.01
2118.87	442.12
2122.055	450.41
2125.239	454.96
2128.424	460.63
2131.608	464.25
2134.791	469.8
2137.974	471.72
2141.157	472.22
2144.34	473.45
2147.523	481.84
2150.705	477.92
2153.887	482.35
2157.068	483.4
2160.25	477.77
2163.431	480.68
2166.611	485.98
2169.792	495.1
2172.972	501.45
2176.152	504.71
2179.331	512.31
2182.511	519.86
2185.69	527
2188.868	537.37
2192.047	539.57
2195.225	556.19
2198.403	568.81
2201.58	578.96
2204.758	590.29
2207.935	602.75
2211.111	613.09
2214.288	619.64
2217.464	621.94
2220.64	631.1
2223.815	640.57
2226.991	665.51
2230.166	666.53
2233.34	680.34
2236.515	691.49
2239.689	690.82
2242.863	693.84
2246.036	717.35
2249.209	710.1
2252.382	721.37
2255.555	742.97
2258.727	744.83
2261.9	748.84
2265.071	756.26
2268.243	768.22
2271.414	777.42
2274.585	796.61
2277.756	802.67
2280.926	807.29
2284.096	826.06
2287.266	846.18
2290.436	850.78
2293.605	871.93
2296.774	898.03
2299.942	928.66
2303.111	931.02
2306.279	952.8
2309.447	966.06
2312.614	994.14
2315.781	1019.83
2318.948	1068.01
2322.115	1051.04
2325.281	1111.66
2328.447	1084
2331.613	1132.5
2334.779	1116.55
2337.944	1166.66
2341.109	1177.42
2344.274	1206.18
2347.438	1249.54
2350.602	1249.41
2353.766	1288.06
2356.929	1307.74
2360.092	1294.82
2363.255	1394.75
2366.418	1384.85
2369.58	1415.06
2372.742	1503.79
2375.904	1543.09
2379.066	1533.37
2382.227	1501.06
2385.388	1629.43
2388.548	1635.73
2391.709	1654.22
2394.869	1843.84
2398.029	1760.44
2401.188	1816.61
2404.347	1801.49
2407.506	1770.25
2410.665	1824.65
2413.823	1936.88
2416.981	2053.66
2420.139	1983.03
2423.296	1959.16
2426.453	2046.26
2429.61	1968.3
2432.767	2062.92
2435.923	2038.71
2439.079	2226.74
2442.235	2254.47
2445.391	2231.98
2448.546	2213.45
2451.701	2150.32
2454.855	2150.38
2458.009	2279.39
2461.163	2372.64
2464.317	2459.42
2467.471	2522.72
2470.624	2516.5
2473.777	2460.92
2476.929	2404.52
2480.082	2333.31
2483.234	2306.18
2486.385	2423.61
2489.537	2434.02
2492.688	2525.39
2495.839	2453.44
2498.989	2401.68
2502.14	2413.79
2505.29	2445.35
2508.439	2479.9
2511.589	2470.39
2514.738	2692.91
2517.887	2636.03
2521.035	2786.33
2524.183	2806.32
2527.331	2826.26
2530.479	2816.76
2533.627	2837.56
