Data from C_2_HIR_IL_4N_Splice17_13-13-21-247.txt Node
Date: Sat Mar 07 13:13:21 EST 2020
User: sa697716
Spectrometer: NQ5500242
Trigger mode: 0
Integration Time (sec): 1.450000E-1
Scans to average: 20
Nonlinearity correction enabled: false
Boxcar width: 5
Storing dark spectrum: false
XAxis mode: Wavelengths
Number of Pixels in Spectrum: 512
>>>>>Begin Spectral Data<<<<<
187.83	177.42
188.298	179.88
188.766	162.75
189.233	129.82
189.701	143.92
190.169	163.43
190.636	197.84
191.104	323.86
191.571	302.92
192.039	176.95
192.506	-221.25
192.974	116.68
193.441	207.39
193.908	91.72
194.375	34.77
194.842	21.39
195.31	57.5
195.777	57.91
196.244	48.81
196.711	48.13
197.177	48.95
197.644	47.77
198.111	46.96
198.578	46.79
199.045	47.53
199.511	47.49
199.978	47.83
200.445	47.82
200.911	48.12
201.378	48.24
201.844	48.18
202.31	47.74
202.777	47.9
203.243	48.14
203.709	47.92
204.176	47.6
204.642	47.48
205.108	47.07
205.574	46.73
206.04	46.18
206.506	45.73
206.972	45.56
207.438	45.65
207.903	44.86
208.369	43.89
208.835	43.13
209.301	42.01
209.766	40.69
210.232	39.69
210.697	38.79
211.163	38.03
211.628	37.19
212.094	36.19
212.559	35.2
213.024	34.48
213.49	34.01
213.955	33.18
214.42	32.59
214.885	32.03
215.35	31.01
215.815	29.6
216.28	27.68
216.745	25.8
217.21	23.87
217.675	22.13
218.14	20.6
218.604	19.21
219.069	18.19
219.534	17.24
219.998	16.45
220.463	15.82
220.927	15.25
221.392	14.83
221.856	14.45
222.32	14.1
222.785	13.79
223.249	13.55
223.713	13.3
224.177	13.08
224.642	12.88
225.106	12.63
225.57	12.41
226.034	12.21
226.497	12.02
226.961	11.84
227.425	11.68
227.889	11.53
228.353	11.35
228.816	11.19
229.28	11.02
229.744	10.87
230.207	10.73
230.671	10.6
231.134	10.46
231.597	10.35
232.061	10.22
232.524	10.09
232.987	9.96
233.45	9.86
233.914	9.73
234.377	9.62
234.84	9.52
235.303	9.43
235.766	9.33
236.229	9.24
236.691	9.13
237.154	9.05
237.617	8.96
238.08	8.87
238.542	8.76
239.005	8.7
239.468	8.62
239.93	8.53
240.393	8.46
240.855	8.37
241.317	8.28
241.78	8.2
242.242	8.11
242.704	8.05
243.166	7.98
243.629	7.93
244.091	7.85
244.553	7.77
245.015	7.69
245.477	7.62
245.939	7.57
246.4	7.51
246.862	7.47
247.324	7.42
247.786	7.36
248.247	7.29
248.709	7.22
249.17	7.16
249.632	7.12
250.093	7.08
250.555	7.03
251.016	6.98
251.477	6.93
251.939	6.88
252.4	6.84
252.861	6.8
253.322	6.77
253.783	6.75
254.244	6.73
254.705	6.68
255.166	6.65
255.627	6.62
256.088	6.6
256.549	6.57
257.009	6.53
257.47	6.5
257.931	6.46
258.391	6.42
258.852	6.37
259.312	6.33
259.773	6.3
260.233	6.27
260.694	6.23
261.154	6.2
261.614	6.16
262.074	6.13
262.534	6.1
262.994	6.07
263.455	6.06
263.915	6.04
264.374	6.02
264.834	6
265.294	5.97
265.754	5.96
266.214	5.94
266.673	5.92
267.133	5.91
267.593	5.9
268.052	5.88
268.512	5.87
268.971	5.86
269.431	5.85
269.89	5.84
270.349	5.83
270.809	5.82
271.268	5.81
271.727	5.8
272.186	5.79
272.645	5.79
273.104	5.77
273.563	5.77
274.022	5.76
274.481	5.75
274.94	5.74
275.399	5.73
275.857	5.72
276.316	5.71
276.775	5.7
277.233	5.69
277.692	5.68
278.15	5.67
278.609	5.66
279.067	5.65
279.525	5.65
279.984	5.63
280.442	5.63
280.9	5.63
281.358	5.62
281.816	5.61
282.274	5.61
282.732	5.59
283.19	5.59
283.648	5.58
284.106	5.57
284.564	5.56
285.021	5.55
285.479	5.54
285.937	5.52
286.394	5.52
286.852	5.5
287.309	5.49
287.767	5.48
288.224	5.47
288.682	5.45
289.139	5.43
289.596	5.42
290.053	5.4
290.511	5.38
290.968	5.37
291.425	5.35
291.882	5.34
292.339	5.33
292.796	5.32
293.252	5.32
293.709	5.31
294.166	5.31
294.623	5.3
295.079	5.3
295.536	5.29
295.992	5.29
296.449	5.28
296.905	5.28
297.362	5.28
297.818	5.27
298.274	5.26
298.731	5.25
299.187	5.25
299.643	5.24
300.099	5.23
300.555	5.23
301.011	5.22
301.467	5.22
301.923	5.21
302.379	5.21
302.835	5.21
303.291	5.2
303.746	5.2
304.202	5.2
304.658	5.21
305.113	5.21
305.569	5.21
306.024	5.21
306.479	5.2
306.935	5.2
307.39	5.21
307.845	5.21
308.301	5.21
308.756	5.22
309.211	5.21
309.666	5.22
310.121	5.22
310.576	5.22
311.031	5.22
311.486	5.22
311.94	5.22
312.395	5.22
312.85	5.22
313.305	5.21
313.759	5.22
314.214	5.22
314.668	5.21
315.123	5.2
315.577	5.2
316.032	5.2
316.486	5.19
316.94	5.18
317.394	5.16
317.849	5.14
318.303	5.13
318.757	5.11
319.211	5.1
319.665	5.09
320.119	5.08
320.572	5.06
321.026	5.05
321.48	5.05
321.934	5.04
322.387	5.03
322.841	5.03
323.295	5.04
323.748	5.04
324.202	5.03
324.655	5.02
325.108	5.02
325.562	5.02
326.015	5.02
326.468	5.02
326.921	5.02
327.374	5.01
327.827	5.01
328.28	5
328.733	5
329.186	5
329.639	5.01
330.092	5.01
330.545	5.01
330.997	5.01
331.45	5.01
331.903	5.01
332.355	5.01
332.808	5.02
333.26	5.02
333.713	5.02
334.165	5.01
334.617	5.01
335.069	5
335.522	5
335.974	5.01
336.426	5.01
336.878	5
337.33	5
337.782	4.99
338.234	5
338.686	5
339.137	5
339.589	4.99
340.041	4.99
340.493	4.97
340.944	4.95
341.396	4.94
341.847	4.93
342.299	4.91
342.75	4.9
343.201	4.87
343.653	4.85
344.104	4.83
344.555	4.81
345.006	4.8
345.457	4.79
345.908	4.78
346.359	4.77
346.81	4.77
347.261	4.76
347.712	4.75
348.163	4.74
348.613	4.74
349.064	4.73
349.515	4.73
349.965	4.73
350.416	4.71
350.866	4.71
351.317	4.71
351.767	4.71
352.217	4.71
352.668	4.7
353.118	4.71
353.568	4.71
354.018	4.71
354.468	4.72
354.918	4.71
355.368	4.72
355.818	4.72
356.268	4.72
356.718	4.73
357.168	4.73
357.617	4.73
358.067	4.72
358.517	4.73
358.966	4.73
359.416	4.73
359.865	4.73
360.315	4.73
360.764	4.73
361.213	4.73
361.663	4.72
362.112	4.73
362.561	4.73
363.01	4.74
363.459	4.74
363.908	4.74
364.357	4.75
364.806	4.76
365.255	4.77
365.703	4.79
366.152	4.81
366.601	4.83
367.05	4.84
367.498	4.85
367.947	4.88
368.395	4.9
368.844	4.93
369.292	4.95
369.74	4.99
370.189	5.01
370.637	5.05
371.085	5.08
371.533	5.12
371.981	5.17
372.429	5.23
372.877	5.29
373.325	5.35
373.773	5.4
374.221	5.47
374.669	5.54
375.116	5.62
375.564	5.71
376.012	5.81
376.459	5.92
376.907	6.03
377.354	6.14
377.801	6.27
378.249	6.4
378.696	6.54
379.143	6.69
379.591	6.85
380.038	7.02
380.485	7.19
380.932	7.35
381.379	7.53
381.826	7.71
382.273	7.89
382.72	8.07
383.166	8.26
383.613	8.45
384.06	8.64
384.506	8.83
384.953	9.02
385.4	9.22
385.846	9.43
386.292	9.62
386.739	9.82
387.185	10.02
387.631	10.23
388.078	10.43
388.524	10.62
388.97	10.81
389.416	11.01
389.862	11.2
390.308	11.37
390.754	11.54
391.2	11.71
391.645	11.88
392.091	12.04
392.537	12.2
392.983	12.34
393.428	12.49
393.874	12.62
394.319	12.73
394.765	12.84
395.21	12.94
395.655	13.03
396.101	13.12
396.546	13.2
396.991	13.27
397.436	13.35
397.881	13.44
398.326	13.5
398.771	13.57
399.216	13.64
399.661	13.7
400.106	13.73
400.551	13.77
400.995	13.78
401.44	13.81
401.885	13.83
402.329	13.84
402.774	13.85
403.218	13.87
403.663	13.88
404.107	13.88
404.551	13.88
404.995	13.89
405.44	13.87
405.884	13.87
406.328	13.87
406.772	13.85
407.216	13.84
407.66	13.82
408.104	13.77
408.547	13.74
408.991	13.72
409.435	13.71
409.879	13.69
410.322	13.69
410.766	13.69
411.209	13.68
411.653	13.67
412.096	13.65
412.54	13.64
412.983	13.64
413.426	13.65
413.869	13.66
414.312	13.64
414.756	13.63
415.199	13.59
415.642	13.55
416.085	13.51
416.527	13.48
416.97	13.44
417.413	13.39
417.856	13.35
418.298	13.3
418.741	13.27
419.184	13.23
419.626	13.2
420.069	13.17
420.511	13.16
420.953	13.13
421.396	13.11
421.838	13.11
422.28	13.1
422.722	13.08
423.164	13.05
423.606	13.01
424.048	12.98
424.49	12.97
424.932	12.93
425.374	12.86
425.816	12.82
426.258	12.79
426.699	12.76
427.141	12.75
427.582	12.74
428.024	12.75
428.465	12.74
428.907	12.72
429.348	12.69
429.789	12.69
430.231	12.73
430.672	12.76
431.113	12.79
431.554	12.8
431.995	12.81
432.436	12.83
432.877	12.84
433.318	12.88
433.759	12.91
434.2	12.95
434.64	12.98
435.081	13.01
435.522	13.02
435.962	13.03
436.403	13.08
436.843	13.1
437.284	13.12
437.724	13.14
438.164	13.17
438.604	13.21
439.045	13.25
439.485	13.29
439.925	13.3
440.365	13.36
440.805	13.4
441.245	13.46
441.685	13.53
442.125	13.61
442.564	13.66
443.004	13.7
443.444	13.78
443.883	13.86
444.323	13.94
444.762	14.05
445.202	14.12
445.641	14.2
446.081	14.28
446.52	14.36
446.959	14.44
447.398	14.53
447.837	14.6
448.276	14.67
448.716	14.75
449.154	14.83
449.593	14.89
450.032	14.95
450.471	15.02
450.91	15.08
451.349	15.13
451.787	15.19
452.226	15.25
452.664	15.3
453.103	15.34
453.541	15.39
453.98	15.47
454.418	15.51
454.856	15.57
455.295	15.6
455.733	15.63
456.171	15.68
456.609	15.72
457.047	15.77
457.485	15.83
457.923	15.88
458.361	15.92
458.798	15.96
459.236	15.99
459.674	16.02
460.111	16.08
460.549	16.13
460.987	16.18
461.424	16.22
461.862	16.25
462.299	16.29
462.736	16.33
463.173	16.37
463.611	16.39
464.048	16.42
464.485	16.46
464.922	16.48
465.359	16.5
465.796	16.52
466.233	16.54
466.67	16.56
467.106	16.56
467.543	16.54
467.98	16.53
468.416	16.49
468.853	16.49
469.29	16.47
469.726	16.46
470.162	16.43
470.599	16.4
471.035	16.38
471.471	16.34
471.907	16.33
472.344	16.32
472.78	16.31
473.216	16.3
473.652	16.29
474.088	16.25
474.523	16.26
474.959	16.25
475.395	16.22
475.831	16.22
476.266	16.21
476.702	16.19
477.138	16.19
477.573	16.18
478.008	16.2
478.444	16.2
478.879	16.23
479.314	16.23
479.75	16.25
480.185	16.27
480.62	16.29
481.055	16.33
481.49	16.37
481.925	16.42
482.36	16.47
482.795	16.53
483.229	16.59
483.664	16.65
484.099	16.73
484.534	16.81
484.968	16.91
485.403	17
485.837	17.11
486.271	17.23
486.706	17.35
487.14	17.47
487.574	17.61
488.009	17.77
488.443	17.92
488.877	18.1
489.311	18.28
489.745	18.48
490.179	18.68
490.613	18.9
491.046	19.11
491.48	19.33
491.914	19.57
492.348	19.8
492.781	20.05
493.215	20.3
493.648	20.54
494.082	20.79
494.515	21.05
494.948	21.32
495.382	21.58
495.815	21.86
496.248	22.15
496.681	22.44
497.114	22.73
497.547	23
497.98	23.31
498.413	23.62
498.846	23.94
499.279	24.25
499.711	24.56
500.144	24.9
500.577	25.22
501.009	25.53
501.442	25.87
501.874	26.21
502.306	26.56
502.739	26.91
503.171	27.26
503.603	27.6
504.036	27.95
504.468	28.31
504.9	28.66
505.332	29.04
505.764	29.4
506.196	29.76
506.627	30.13
507.059	30.5
507.491	30.87
507.923	31.23
508.354	31.61
508.786	32
509.217	32.37
509.649	32.74
510.08	33.1
510.512	33.48
510.943	33.84
511.374	34.2
511.805	34.57
512.237	34.9
512.668	35.25
513.099	35.58
513.53	35.92
513.961	36.27
514.391	36.59
514.822	36.92
515.253	37.24
515.684	37.55
516.114	37.86
516.545	38.15
516.975	38.47
517.406	38.75
517.836	39.02
518.267	39.3
518.697	39.55
519.127	39.81
519.558	40.05
519.988	40.3
520.418	40.54
520.848	40.77
521.278	40.99
521.708	41.36
522.138	41.57
522.567	41.78
522.997	41.94
523.427	42.14
523.857	42.32
524.286	42.48
524.716	42.66
525.145	42.83
525.575	42.99
526.004	43.16
526.433	43.14
526.863	43.29
527.292	43.43
527.721	43.58
528.15	43.71
528.579	43.84
529.008	43.97
529.437	44.07
529.866	44.18
530.295	44.3
530.724	44.39
531.152	44.51
531.581	44.62
532.01	44.71
532.438	44.81
532.867	44.91
533.295	44.97
533.723	45.07
534.152	45.16
534.58	45.23
535.008	45.27
535.436	45.35
535.865	45.41
536.293	45.45
536.721	45.51
537.149	45.55
537.576	45.59
538.004	45.66
538.432	45.7
538.86	45.75
539.287	45.78
539.715	45.82
540.143	45.87
540.57	45.9
540.998	45.95
541.425	45.99
541.852	46.02
542.28	46.06
542.707	46.06
543.134	46.09
543.561	46.12
543.988	46.16
544.415	46.16
544.842	46.15
545.269	46.18
545.696	46.18
546.123	46.2
546.549	46.22
546.976	46.23
547.403	46.25
547.829	46.27
548.256	46.28
548.682	46.28
549.108	46.33
549.535	46.36
549.961	46.35
550.387	46.36
550.813	46.37
551.24	46.39
551.666	46.4
552.092	46.41
552.518	46.4
552.943	46.39
553.369	46.37
553.795	46.36
554.221	46.36
554.646	46.38
555.072	46.37
555.498	46.36
555.923	46.32
556.349	46.3
556.774	46.28
557.199	46.25
557.625	46.22
558.05	46.22
558.475	46.19
558.9	46.15
559.325	46.11
559.75	46.05
560.175	46
560.6	45.95
561.025	45.91
561.449	45.86
561.874	45.81
562.299	45.75
562.723	45.68
563.148	45.59
563.572	45.49
563.997	45.42
564.421	45.34
564.846	45.27
565.27	45.19
565.694	45.1
566.118	45.03
566.542	44.94
566.966	44.87
567.39	44.79
567.814	44.72
568.238	44.66
568.662	44.59
569.086	44.54
569.509	44.46
569.933	44.41
570.357	44.32
570.78	44.22
571.204	44.15
571.627	44.07
572.05	44
572.474	43.95
572.897	43.88
573.32	43.81
573.743	43.71
574.166	43.65
574.589	43.57
575.012	43.52
575.435	43.44
575.858	43.37
576.281	43.28
576.704	43.21
577.126	43.12
577.549	43.05
577.972	42.99
578.394	42.92
578.817	42.86
579.239	42.79
579.661	42.73
580.084	42.7
580.506	42.65
580.928	42.61
581.35	42.55
581.772	42.5
582.194	42.44
582.616	42.38
583.038	42.33
583.46	42.27
583.882	42.21
584.303	42.14
584.725	42.08
585.147	42.02
585.568	41.97
585.99	41.93
586.411	41.88
586.833	41.82
587.254	41.76
587.675	41.71
588.096	41.64
588.518	41.6
588.939	41.57
589.36	41.51
589.781	41.49
590.202	41.44
590.623	41.41
591.043	41.35
591.464	41.32
591.885	41.28
592.305	41.25
592.726	41.24
593.147	41.21
593.567	41.16
593.987	41.12
594.408	41.07
594.828	41.02
595.248	40.97
595.669	40.94
596.089	40.9
596.509	40.86
596.929	40.84
597.349	40.76
597.769	40.73
598.189	40.7
598.608	40.66
599.028	40.62
599.448	40.59
599.867	40.55
600.287	40.51
600.706	40.46
601.126	40.41
601.545	40.37
601.965	40.35
602.384	40.3
602.803	40.26
603.222	40.21
603.641	40.17
604.061	40.13
604.48	40.07
604.898	40.02
605.317	39.99
605.736	39.95
606.155	39.89
606.574	39.83
606.992	39.78
607.411	39.73
607.829	39.67
608.248	39.6
608.666	39.52
609.085	39.49
609.503	39.44
609.921	39.38
610.339	39.31
610.758	39.25
611.176	39.18
611.594	39.11
612.012	39.03
612.43	38.98
612.847	38.91
613.265	38.85
613.683	38.77
614.101	38.7
614.518	38.6
614.936	38.54
615.353	38.46
615.771	38.41
616.188	38.32
616.606	38.25
617.023	38.19
617.44	38.16
617.857	38.1
618.274	38.04
618.691	37.97
619.108	37.95
619.525	37.9
619.942	37.87
620.359	37.84
620.776	37.81
621.192	37.79
621.609	37.77
622.026	37.74
622.442	37.73
622.859	37.71
623.275	37.69
623.691	37.66
624.108	37.63
624.524	37.61
624.94	37.6
625.356	37.59
625.772	37.57
626.188	37.56
626.604	37.53
627.02	37.52
627.436	37.53
627.852	37.53
628.268	37.52
628.683	37.52
629.099	37.52
629.514	37.51
629.93	37.49
630.345	37.46
630.761	37.41
631.176	37.37
631.591	37.31
632.007	37.24
632.422	37.17
632.837	37.1
633.252	37.02
633.667	36.92
634.082	36.81
634.497	36.7
634.911	36.59
635.326	36.47
635.741	36.34
636.155	36.21
636.57	36.07
636.984	35.9
637.399	35.71
637.813	35.53
638.228	35.32
638.642	35.11
639.056	34.89
639.47	34.69
639.884	34.46
640.298	34.23
640.712	34
641.126	33.74
641.54	33.47
641.954	33.24
642.368	32.99
642.781	32.75
643.195	32.53
643.609	32.28
644.022	32.03
644.436	31.81
644.849	31.59
645.262	31.35
645.676	31.17
646.089	31.01
646.502	30.83
646.915	30.67
647.328	30.51
647.741	30.37
648.154	30.23
648.567	30.12
648.98	30.01
649.393	29.92
649.805	29.85
650.218	29.75
650.631	29.65
651.043	29.57
651.456	29.5
651.868	29.42
652.28	29.35
652.693	29.29
653.105	29.21
653.517	29.13
653.929	29.04
654.341	28.94
654.753	28.84
655.165	28.74
655.577	28.63
655.989	28.5
656.401	28.36
656.813	28.23
657.224	28.08
657.636	27.9
658.047	27.74
658.459	27.55
658.87	27.36
659.282	27.16
659.693	26.96
660.104	26.73
660.515	26.51
660.926	26.3
661.338	26.06
661.749	25.81
662.159	25.59
662.57	25.37
662.981	25.15
663.392	24.92
663.803	24.72
664.213	24.49
664.624	24.3
665.035	24.11
665.445	23.92
665.855	23.73
666.266	23.56
666.676	23.4
667.086	23.23
667.497	23.09
667.907	22.97
668.317	22.84
668.727	22.73
669.137	22.62
669.547	22.52
669.956	22.43
670.366	22.37
670.776	22.32
671.186	22.26
671.595	22.2
672.005	22.16
672.414	22.13
672.824	22.12
673.233	22.13
673.642	22.13
674.052	22.15
674.461	22.17
674.87	22.2
675.279	22.26
675.688	22.34
676.097	22.43
676.506	22.53
676.915	22.66
677.323	22.79
677.732	22.91
678.141	23.1
678.549	23.29
678.958	23.52
679.366	23.78
679.775	24.04
680.183	24.36
680.592	24.73
681	25.1
681.408	25.5
681.816	25.96
682.224	26.45
682.632	26.96
683.04	27.5
683.448	28.05
683.856	28.63
684.264	29.24
684.671	29.85
685.079	30.49
685.487	31.15
685.894	31.84
686.302	32.53
686.709	33.21
687.116	33.89
687.524	34.56
687.931	35.27
688.338	35.95
688.745	36.63
689.152	37.3
689.559	37.98
689.966	38.64
690.373	39.28
690.78	39.91
691.187	40.53
691.593	41.11
692	41.69
692.407	42.23
692.813	42.78
693.22	43.28
693.626	43.78
694.032	44.25
694.439	44.68
694.845	45.11
695.251	45.5
695.657	45.87
696.063	46.28
696.469	46.63
696.875	46.98
697.281	47.29
697.687	47.64
698.093	47.95
698.498	48.24
698.904	48.54
699.31	48.81
699.715	49.07
700.12	49.33
700.526	49.54
700.931	49.77
701.337	50
701.742	50.2
702.147	50.39
702.552	50.6
702.957	50.76
703.362	50.92
703.767	51.08
704.172	51.23
704.577	51.36
704.981	51.52
705.386	51.67
705.791	51.81
706.195	51.95
706.6	52.1
707.004	52.19
707.408	52.32
707.813	52.44
708.217	52.59
708.621	52.72
709.025	52.85
709.43	52.96
709.834	53.05
710.237	53.12
710.641	53.2
711.045	53.26
711.449	53.37
711.853	53.47
712.256	53.57
712.66	53.63
713.064	53.68
713.467	53.75
713.87	53.85
714.274	53.91
714.677	54
715.08	54.09
715.484	54.2
715.887	54.27
716.29	54.32
716.693	54.39
717.096	54.45
717.499	54.53
717.901	54.61
718.304	54.66
718.707	54.74
719.109	54.82
719.512	54.86
719.915	54.9
720.317	54.92
720.719	54.94
721.122	54.99
721.524	55.03
721.926	55.09
722.328	55.14
722.731	55.18
723.133	55.23
723.535	55.26
723.937	55.33
724.338	55.37
724.74	55.4
725.142	55.53
725.544	55.54
725.945	55.6
726.347	55.61
726.748	55.61
727.15	55.61
727.551	55.65
727.952	55.67
728.354	55.69
728.755	55.7
729.156	55.71
729.557	55.66
729.958	55.66
730.359	55.65
730.76	55.68
731.161	55.68
731.562	55.71
731.962	55.7
732.363	55.71
732.763	55.71
733.164	55.74
733.564	55.74
733.965	55.72
734.365	55.75
734.766	55.76
735.166	55.76
735.566	55.76
735.966	55.79
736.366	55.79
736.766	55.79
737.166	55.79
737.566	55.79
737.966	55.81
738.365	55.83
738.765	55.88
739.165	55.86
739.564	55.87
739.964	55.89
740.363	55.86
740.763	55.88
741.162	55.87
741.561	55.85
741.96	55.83
742.36	55.82
742.759	55.83
743.158	55.78
743.557	55.78
743.955	55.76
744.354	55.75
744.753	55.75
745.152	55.75
745.55	55.75
745.949	55.77
746.348	55.79
746.746	55.78
747.144	55.79
747.543	55.79
747.941	55.81
748.339	55.79
748.737	55.8
749.136	55.8
749.534	55.78
749.932	55.77
750.33	55.77
750.727	55.77
751.125	55.79
751.523	55.76
751.921	55.76
752.318	55.76
752.716	55.78
753.113	55.77
753.511	55.76
753.908	55.79
754.305	55.79
754.703	55.77
755.1	55.75
755.497	55.74
755.894	55.73
756.291	55.74
756.688	55.72
757.085	55.73
757.482	55.74
757.878	55.74
758.275	55.72
758.672	55.73
759.068	55.76
759.465	55.75
759.861	55.74
760.258	55.74
760.654	55.72
761.05	55.72
761.447	55.71
761.843	55.69
762.239	55.68
762.635	55.66
763.031	55.64
763.427	55.6
763.822	55.6
764.218	55.61
764.614	55.63
765.01	55.61
765.405	55.58
765.801	55.52
766.196	55.51
766.592	55.5
766.987	55.51
767.382	55.45
767.778	55.46
768.173	55.45
768.568	55.42
768.963	55.38
769.358	55.39
769.753	55.39
770.148	55.42
770.542	55.43
770.937	55.43
771.332	55.42
771.726	55.46
772.121	55.46
772.515	55.47
772.91	55.44
773.304	55.47
773.699	55.48
774.093	55.47
774.487	55.46
774.881	55.46
775.275	55.43
775.669	55.4
776.063	55.38
776.457	55.37
776.851	55.36
777.245	55.35
777.638	55.33
778.032	55.31
778.425	55.35
778.819	55.33
779.212	55.33
779.606	55.36
779.999	55.37
780.392	55.39
780.786	55.39
781.179	55.4
781.572	55.42
781.965	55.45
782.358	55.45
782.751	55.42
783.143	55.45
783.536	55.44
783.929	55.43
784.322	55.45
784.714	55.44
785.107	55.43
785.499	55.41
785.891	55.39
786.284	55.38
786.676	55.4
787.068	55.4
787.46	55.4
787.852	55.41
788.245	55.4
788.636	55.4
789.028	55.39
789.42	55.37
789.812	55.4
790.204	55.42
790.595	55.43
790.987	55.41
791.378	55.42
791.77	55.42
792.161	55.41
792.553	55.41
792.944	55.41
793.335	55.44
793.726	55.47
794.117	55.45
794.508	55.41
794.899	55.4
795.29	55.42
795.681	55.36
796.072	55.34
796.463	55.38
796.853	55.38
797.244	55.35
797.634	55.33
798.025	55.35
798.415	55.36
798.806	55.37
799.196	55.35
799.586	55.35
799.976	55.39
800.366	55.4
800.756	55.38
801.146	55.41
801.536	55.43
801.926	55.44
802.316	55.42
802.706	55.44
803.095	55.5
803.485	55.52
803.874	55.49
804.264	55.49
804.653	55.5
805.043	55.5
805.432	55.48
805.821	55.49
806.21	55.48
806.599	55.48
806.988	55.46
807.377	55.41
807.766	55.43
808.155	55.43
808.544	55.43
808.933	55.4
809.321	55.39
809.71	55.4
810.098	55.37
810.487	55.35
810.875	55.33
811.264	55.34
811.652	55.36
812.04	55.35
812.428	55.38
812.816	55.35
813.204	55.35
813.592	55.32
813.98	55.32
814.368	55.33
814.756	55.35
815.144	55.35
815.531	55.33
815.919	55.29
816.306	55.29
816.694	55.26
817.081	55.31
817.469	55.3
817.856	55.32
818.243	55.31
818.63	55.28
819.017	55.27
819.404	55.27
819.791	55.26
820.178	55.28
820.565	55.26
820.952	55.24
821.339	55.2
821.725	55.23
822.112	55.23
822.498	55.25
822.885	55.29
823.271	55.28
823.657	55.25
824.044	55.27
824.43	55.26
824.816	55.28
825.202	55.28
825.588	55.26
825.974	55.23
826.36	55.22
826.746	55.19
827.132	55.19
827.517	55.21
827.903	55.26
828.289	55.26
828.674	55.27
829.06	55.26
829.445	55.26
829.83	55.29
830.216	55.3
830.601	55.3
830.986	55.3
831.371	55.29
831.756	55.27
832.141	55.24
832.526	55.23
832.911	55.21
833.295	55.2
833.68	55.22
834.065	55.22
834.449	55.22
834.834	55.2
835.218	55.2
835.603	55.19
835.987	55.18
836.371	55.2
836.755	55.17
837.139	55.17
837.524	55.18
837.908	55.17
838.291	55.17
838.675	55.15
839.059	55.16
839.443	55.11
839.827	55.1
840.21	55.08
840.594	55.07
840.977	55.08
841.361	55.08
841.744	55.04
842.127	55.03
842.511	54.99
842.894	55
843.277	54.98
843.66	54.99
844.043	54.97
844.426	54.99
844.809	54.98
845.191	55.01
845.574	55
845.957	55.03
846.339	55.03
846.722	55.05
847.104	55.06
847.487	55.04
847.869	55.06
848.252	55.07
848.634	55.07
849.016	55.08
849.398	55.06
849.78	55.06
850.162	55.02
850.544	55.01
850.926	55.03
851.307	55.01
851.689	55.04
852.071	55.03
852.452	55.04
852.834	55.04
853.215	55.02
853.597	54.99
853.978	54.97
854.359	54.99
854.741	54.96
855.122	54.93
855.503	54.92
855.884	54.88
856.265	54.87
856.646	54.84
857.026	54.84
857.407	54.86
857.788	54.86
858.169	54.88
858.549	54.87
858.93	54.89
859.31	54.9
859.69	54.93
860.071	54.96
860.451	54.95
860.831	54.96
861.211	54.9
861.591	54.87
861.971	54.87
862.351	54.87
862.731	54.88
863.111	54.85
863.491	54.83
863.87	54.8
864.25	54.79
864.629	54.8
865.009	54.81
865.388	54.84
865.768	54.86
866.147	54.85
866.526	54.85
866.905	54.86
867.284	54.87
867.663	54.87
868.042	54.88
868.421	54.89
868.8	54.92
869.179	54.92
869.558	54.91
869.936	54.9
870.315	54.92
870.693	54.94
871.072	54.94
871.45	54.94
871.828	54.98
872.207	54.99
872.585	54.97
872.963	54.96
873.341	54.96
873.719	54.97
874.097	54.96
874.475	54.97
874.853	54.94
875.23	54.97
875.608	54.98
875.986	54.99
876.363	54.99
876.741	55.01
877.118	55.02
877.495	55.03
877.873	55.02
878.25	55.06
878.627	55.05
879.004	55.06
879.381	55.05
879.758	55.01
880.135	54.96
880.512	54.95
880.889	54.95
881.265	54.93
881.642	54.93
882.019	54.91
882.395	54.84
882.772	54.81
883.148	54.78
883.524	54.75
883.901	54.77
884.277	54.76
884.653	54.73
885.029	54.71
885.405	54.68
885.781	54.66
886.157	54.66
886.532	54.69
886.908	54.68
887.284	54.68
887.659	54.65
888.035	54.62
888.411	54.62
888.786	54.63
889.161	54.64
889.537	54.64
889.912	54.63
890.287	54.64
890.662	54.62
891.037	54.65
891.412	54.66
891.787	54.65
892.162	54.63
892.536	54.62
892.911	54.61
893.286	54.6
893.66	54.6
894.035	54.6
894.409	54.57
894.784	54.55
895.158	54.54
895.532	54.52
895.906	54.54
896.281	54.56
896.655	54.56
897.029	54.57
897.402	54.56
897.776	54.56
898.15	54.58
898.524	54.6
898.898	54.63
899.271	54.62
899.645	54.65
900.018	54.67
900.392	54.68
900.765	54.7
901.138	54.7
901.511	54.71
901.884	54.73
902.258	54.72
902.631	54.72
903.003	54.72
903.376	54.72
903.749	54.69
904.122	54.71
904.495	54.7
904.867	54.69
905.24	54.69
905.612	54.69
905.985	54.67
906.357	54.65
906.729	54.66
907.102	54.67
907.474	54.67
907.846	54.67
908.218	54.64
908.59	54.65
908.962	54.65
909.334	54.64
909.705	54.61
910.077	54.63
910.449	54.64
910.82	54.62
911.192	54.62
911.563	54.59
911.935	54.57
912.306	54.59
912.677	54.61
913.048	54.61
913.419	54.59
913.79	54.62
914.161	54.64
914.532	54.63
914.903	54.64
915.274	54.62
915.645	54.66
916.015	54.68
916.386	54.68
916.756	54.67
917.127	54.71
917.497	54.75
917.868	54.74
918.238	54.71
918.608	54.72
918.978	54.72
919.348	54.74
919.718	54.71
920.088	54.74
920.458	54.73
920.828	54.7
921.198	54.64
921.567	54.61
921.937	54.61
922.306	54.62
922.676	54.62
923.045	54.59
923.415	54.59
923.784	54.62
924.153	54.59
924.522	54.6
924.891	54.62
925.26	54.66
925.629	54.68
925.998	54.66
926.367	54.66
926.736	54.66
927.104	54.68
927.473	54.64
927.842	54.59
928.21	54.6
928.578	54.57
928.947	54.56
929.315	54.49
929.683	54.47
930.051	54.46
930.42	54.42
930.788	54.39
931.156	54.3
931.523	54.3
931.891	54.32
932.259	54.3
932.627	54.26
932.994	54.24
933.362	54.26
933.729	54.27
934.097	54.28
934.464	54.29
934.831	54.3
935.199	54.32
935.566	54.34
935.933	54.27
936.3	54.24
936.667	54.25
937.034	54.25
937.401	54.26
937.767	54.25
938.134	54.22
938.501	54.23
938.867	54.21
939.234	54.23
939.6	54.19
939.967	54.21
940.333	54.18
940.699	54.19
941.065	54.14
941.431	54.12
941.798	54.1
942.163	54.1
942.529	54.03
942.895	54
943.261	53.95
943.627	53.96
943.992	53.97
944.358	53.96
944.723	53.93
945.089	53.86
945.454	53.86
945.82	53.82
946.185	53.83
946.55	53.75
946.915	53.74
947.28	53.69
947.645	53.71
948.01	53.7
948.375	53.72
948.74	53.67
949.104	53.75
949.469	53.72
949.834	53.67
950.198	53.58
950.562	53.62
950.927	53.59
951.291	53.59
951.655	53.51
952.02	53.46
952.384	53.43
952.748	53.47
953.112	53.38
953.476	53.31
953.839	53.31
954.203	53.35
954.567	53.3
954.931	53.28
955.294	53.21
955.658	53.26
956.021	53.28
956.385	53.22
956.748	53.12
957.111	53.12
957.474	53.14
957.837	53.12
958.2	53.08
958.563	53.06
958.926	53.08
959.289	53.14
959.652	53.11
960.015	53.1
960.377	53.11
960.74	53.14
961.102	53.13
961.465	53.18
961.827	53.18
962.189	53.21
962.552	53.23
962.914	53.24
963.276	53.26
963.638	53.22
964	53.18
964.362	53.22
964.724	53.23
965.085	53.21
965.447	53.19
965.809	53.19
966.17	53.17
966.532	53.19
966.893	53.18
967.255	53.2
967.616	53.23
967.977	53.28
968.338	53.26
968.699	53.27
969.061	53.28
969.421	53.3
969.782	53.33
970.143	53.31
970.504	53.28
970.865	53.27
971.225	53.19
971.586	53.18
971.946	53.13
972.307	53.18
972.667	53.14
973.027	53.14
973.388	53.13
973.748	53.11
974.108	53.12
974.468	53.14
974.828	53.2
975.188	53.21
975.548	53.15
975.907	53.14
976.267	53.08
976.627	53.16
976.986	53.14
977.346	53.07
977.705	53.02
978.064	52.98
978.424	53.04
978.783	52.98
979.142	53
979.501	53.05
979.86	53.1
980.219	53.13
980.578	53.08
980.937	53.14
981.296	53.13
981.654	53.19
982.013	53.21
982.371	53.13
982.73	53.13
983.088	53.09
983.447	53.06
983.805	53.09
984.163	53.06
984.521	53.01
984.879	52.89
985.237	52.9
985.595	52.93
985.953	52.89
986.311	52.87
986.669	52.91
987.026	52.92
987.384	52.97
987.741	52.87
988.099	52.83
988.456	52.93
988.814	53.07
989.171	53.11
989.528	53.1
989.885	53.1
990.242	53.18
990.599	53.17
990.956	53.21
991.313	53.21
991.67	53.24
992.027	53.38
992.383	53.37
992.74	53.39
993.096	53.41
993.453	53.39
993.809	53.48
994.165	53.55
994.522	53.61
994.878	53.66
995.234	53.7
995.59	53.7
995.946	53.59
996.302	53.59
996.658	53.6
997.013	53.54
997.369	53.59
997.725	53.6
998.08	53.55
998.436	53.49
998.791	53.49
999.147	53.4
999.502	53.41
999.857	53.46
1000.212	53.4
1000.567	53.35
1000.922	53.42
1001.277	53.34
1001.632	53.19
1001.987	53.22
1002.342	53.21
1002.696	53.17
1003.051	53.35
1003.406	53.59
1003.76	53.57
1004.114	53.61
1004.469	53.71
1004.823	53.95
1005.177	53.93
1005.531	54.11
1005.885	54.09
1006.239	54.12
1006.593	54.31
1006.947	54.29
1007.301	54
1007.655	53.97
1008.008	53.98
1008.362	54.01
1008.715	53.73
1009.069	53.94
1009.422	53.92
1009.776	53.83
1010.129	53.82
1010.482	53.71
1010.835	53.55
1011.188	53.69
1011.541	53.66
1011.894	53.7
1012.247	53.57
1012.6	53.6
1012.952	53.48
1013.305	53.57
1013.657	53.58
1014.01	53.65
1014.362	53.55
1014.715	53.72
1015.067	53.91
1015.419	54.11
1015.771	54.07
1016.123	54.13
1016.475	54.08
1016.827	54.14
1017.179	54.17
1017.531	54.36
1017.883	54.2
1018.234	54.37
1018.586	54.28
1018.938	54.28
1019.289	54.28
1019.64	54.3
1019.992	54.41
1020.343	54.69
1020.694	54.63
1021.045	54.62
1021.396	54.57
1021.747	54.74
1022.098	54.68
1022.449	54.7
1022.8	54.51
1023.151	54.42
1023.501	54.68
1023.852	54.54
1024.202	54.37
1024.553	54.2
1024.903	54.06
1025.253	54.38
1025.604	54.35
1025.954	53.99
1026.304	54.3
1026.654	54.52
1027.004	54.55
1027.354	54.35
1027.703	54.3
1028.053	54.36
1028.403	54.87
1028.753	54.73
1029.102	54.46
1029.452	54.51
1029.801	55.01
1030.15	54.75
1030.499	54.46
897.758	1266.99
901.051	1281.43
904.343	1277.6
907.636	1302.38
910.928	1266.15
914.22	1264.49
917.511	1247.22
920.803	1197.3
924.094	1192.93
927.384	1162.61
930.675	1117.79
933.965	1112.84
937.255	1044.23
940.544	1002.36
943.834	952.2
947.123	945.89
950.411	891.17
953.7	873.18
956.988	824.53
960.276	792.49
963.563	780.87
966.851	752.51
970.138	747.95
973.424	724.7
976.711	728.24
979.997	695.35
983.283	691.49
986.568	677.1
989.853	655.67
993.138	645.65
996.423	620.49
999.708	603.09
1002.992	596.57
1006.275	570.24
1009.559	566.53
1012.842	544.95
1016.125	529.37
1019.408	520.08
1022.69	513.06
1025.972	503.65
1029.254	492.32
1032.536	484.56
1035.817	473.22
1039.098	468.7
1042.379	459.12
1045.659	453.93
1048.939	443.75
1052.219	434.54
1055.498	428.56
1058.778	419.17
1062.057	409.13
1065.335	404.9
1068.614	399.56
1071.892	396.44
1075.17	383.11
1078.447	374.82
1081.724	372.03
1085.001	370.33
1088.278	362.64
1091.554	354.2
1094.83	355.45
1098.106	353.02
1101.382	349.89
1104.657	348.02
1107.932	342.09
1111.206	343.63
1114.481	336.24
1117.755	332.8
1121.029	330.27
1124.302	330.23
1127.575	324.39
1130.848	319.71
1134.121	316.63
1137.393	314.82
1140.665	308.19
1143.937	305.76
1147.208	305.05
1150.48	304.02
1153.75	300.5
1157.021	295.48
1160.291	295.62
1163.561	292.79
1166.831	292.57
1170.101	289.99
1173.37	289.57
1176.639	290.37
1179.907	287.83
1183.176	283.79
1186.444	284.04
1189.711	283.02
1192.979	282.06
1196.246	280.53
1199.513	281.03
1202.78	279.64
1206.046	279.89
1209.312	276.95
1212.578	276.94
1215.843	279.57
1219.108	278.6
1222.373	283.76
1225.638	285.8
1228.902	290.34
1232.166	289.67
1235.43	293.23
1238.693	296.52
1241.956	297.29
1245.219	302.69
1248.482	302.82
1251.744	302.56
1255.006	302.53
1258.268	295.39
1261.529	293.3
1264.79	290.53
1268.051	290.46
1271.312	285.76
1274.572	282.26
1277.832	280.96
1281.092	275.37
1284.351	273.3
1287.61	273.49
1290.869	269.69
1294.128	267.8
1297.386	267.96
1300.644	265.03
1303.902	265.81
1307.159	264.32
1310.416	264.39
1313.673	263.38
1316.93	266.35
1320.186	266.5
1323.442	266.57
1326.697	271.56
1329.953	272.71
1333.208	272.59
1336.463	275.76
1339.717	275.34
1342.972	279.31
1346.226	282.09
1349.479	282.27
1352.733	283.52
1355.986	285.3
1359.238	285.69
1362.491	286.45
1365.743	288.07
1368.995	288.6
1372.247	288.48
1375.498	288.27
1378.749	289.41
1382	285.64
1385.251	286.21
1388.501	284.08
1391.751	283.84
1395	282.29
1398.25	280.14
1401.499	278.15
1404.748	277.29
1407.996	274.35
1411.244	272.98
1414.492	271.52
1417.74	268.69
1420.987	264.44
1424.234	264.63
1427.481	260.7
1430.728	260.22
1433.974	257.6
1437.22	255.6
1440.465	254.67
1443.711	252.5
1446.956	250.8
1450.201	247.82
1453.445	245.51
1456.689	245.46
1459.933	240.77
1463.177	238.73
1466.42	234.43
1469.663	231.99
1472.906	230.48
1476.148	224.89
1479.391	222.45
1482.633	220.53
1485.874	217.19
1489.115	215.55
1492.356	212.91
1495.597	212.04
1498.838	209.35
1502.078	208.42
1505.318	207.17
1508.557	207.44
1511.797	207.1
1515.036	205.6
1518.274	205.11
1521.513	203.54
1524.751	203.36
1527.989	203.03
1531.227	202.46
1534.464	203.36
1537.701	201.62
1540.938	201.2
1544.174	198.8
1547.41	198.62
1550.646	197.74
1553.882	197.49
1557.117	195.05
1560.352	194.23
1563.587	193.57
1566.821	192.41
1570.055	190.34
1573.289	189.17
1576.523	188.88
1579.756	187.18
1582.989	186.76
1586.222	186.58
1589.454	185.67
1592.686	187.18
1595.918	185.96
1599.15	185.38
1602.381	185.78
1605.612	185.61
1608.843	186.66
1612.073	186.52
1615.303	188.04
1618.533	187.3
1621.762	187.34
1624.992	187.03
1628.221	186.98
1631.449	187.21
1634.678	186.55
1637.906	187.41
1641.134	187.51
1644.361	187.11
1647.588	187.63
1650.815	186.7
1654.042	185.89
1657.269	187.24
1660.495	187.69
1663.72	187.27
1666.946	188.05
1670.171	188.85
1673.396	188.37
1676.621	188.66
1679.845	189.21
1683.069	188.85
1686.293	190.37
1689.517	192.18
1692.74	191.54
1695.963	192.06
1699.185	193.69
1702.408	193.57
1705.63	194.2
1708.852	194.76
1712.073	194.47
1715.294	194.74
1718.515	195.67
1721.736	195.04
1724.956	195.2
1728.176	195.47
1731.396	197.18
1734.616	196.33
1737.835	197.15
1741.054	195.87
1744.272	196.12
1747.491	198.45
1750.709	198.43
1753.927	198.55
1757.144	197.85
1760.361	198.57
1763.578	198.85
1766.795	198.05
1770.011	199.53
1773.227	199.03
1776.443	201.93
1779.658	202.73
1782.874	201.67
1786.089	202.35
1789.303	203.23
1792.518	206.2
1795.732	205.9
1798.945	207.75
1802.159	207.94
1805.372	208.57
1808.585	212.87
1811.797	213.16
1815.01	213.35
1818.222	215.48
1821.434	216.64
1824.645	217.18
1827.856	220.44
1831.067	222.1
1834.278	221.43
1837.488	223.05
1840.698	224.9
1843.908	222.35
1847.117	223.02
1850.326	224.77
1853.535	224.34
1856.744	227.54
1859.952	227.64
1863.16	225.01
1866.368	224.32
1869.575	226.46
1872.782	222.51
1875.989	221.54
1879.196	220.45
1882.402	218.84
1885.608	219.36
1888.814	219.35
1892.019	218.92
1895.224	217.96
1898.429	218.14
1901.634	218.98
1904.838	219.36
1908.042	222.42
1911.246	222.78
1914.449	224.78
1917.652	224.78
1920.855	224.47
1924.058	223.85
1927.26	222.9
1930.462	223.65
1933.664	225.76
1936.865	224.04
1940.066	222.93
1943.267	222.12
1946.467	221.43
1949.668	222.95
1952.868	225.89
1956.067	225.51
1959.267	225.91
1962.466	226.82
1965.665	226.12
1968.863	226.15
1972.061	229.44
1975.259	232.23
1978.457	233.98
1981.654	236.11
1984.852	235.94
1988.048	235.13
1991.245	238.25
1994.441	240.54
1997.637	242.6
2000.833	246.76
2004.028	250.63
2007.223	250.7
2010.418	253.51
2013.613	256.98
2016.807	259.92
2020.001	261.95
2023.194	266.34
2026.388	271.36
2029.581	278.52
2032.774	279.99
2035.966	285.92
2039.158	285.92
2042.35	292.19
2045.542	293.3
2048.733	298.22
2051.924	302.2
2055.115	307.42
2058.306	307.67
2061.496	310.52
2064.686	310.11
2067.875	315.51
2071.065	316.66
2074.254	314.69
2077.442	319.06
2080.631	320.86
2083.819	323.69
2087.007	323.97
2090.195	328.2
2093.382	331.29
2096.569	329.27
2099.756	334.03
2102.942	335.23
2106.128	338.13
2109.314	346.71
2112.5	344.92
2115.685	351.49
2118.87	352.22
2122.055	359.76
2125.239	361.64
2128.424	367.08
2131.608	370.2
2134.791	375.42
2137.974	377.61
2141.157	378.66
2144.34	379.24
2147.523	384.85
2150.705	383.3
2153.887	386.88
2157.068	387.22
2160.25	384.03
2163.431	385.34
2166.611	389.7
2169.792	396.97
2172.972	400.85
2176.152	403.48
2179.331	408.84
2182.511	415.97
2185.69	420.02
2188.868	429.8
2192.047	430.01
2195.225	444.05
2198.403	453.54
2201.58	461.28
2204.758	470.93
2207.935	480.68
2211.111	490.07
2214.288	494.82
2217.464	495.71
2220.64	504.32
2223.815	510.37
2226.991	532.58
2230.166	532.43
2233.34	541.85
2236.515	552.43
2239.689	551.3
2242.863	554.52
2246.036	570.38
2249.209	568.31
2252.382	578.1
2255.555	594.93
2258.727	596.12
2261.9	600.16
2265.071	607.02
2268.243	616.63
2271.414	622.46
2274.585	637.68
2277.756	644.06
2280.926	647.87
2284.096	661.26
2287.266	677.67
2290.436	683.15
2293.605	698.23
2296.774	718.46
2299.942	741.22
2303.111	745.46
2306.279	763.43
2309.447	772.55
2312.614	790.59
2315.781	810.88
2318.948	851.68
2322.115	836.54
2325.281	884.3
2328.447	866.6
2331.613	898.02
2334.779	886.42
2337.944	926.82
2341.109	935.8
2344.274	964.05
2347.438	998.64
2350.602	1000.7
2353.766	1032.73
2356.929	1048.26
2360.092	1036.79
2363.255	1111.23
2366.418	1112.56
2369.58	1134.6
2372.742	1201.93
2375.904	1231.75
2379.066	1220.87
2382.227	1198.12
2385.388	1299.27
2388.548	1294.59
2391.709	1312.33
2394.869	1466.76
2398.029	1401.05
2401.188	1443.74
2404.347	1430.26
2407.506	1409.74
2410.665	1447.42
2413.823	1540.25
2416.981	1633.36
2420.139	1578.43
2423.296	1564.77
2426.453	1632.33
2429.61	1563.53
2432.767	1641.59
2435.923	1619.06
2439.079	1778.63
2442.235	1799.97
2445.391	1783.97
2448.546	1767.79
2451.701	1722.28
2454.855	1720.33
2458.009	1818.52
2461.163	1894.45
2464.317	1967.12
2467.471	2016.49
2470.624	2020.69
2473.777	1964.17
2476.929	1918.04
2480.082	1865.84
2483.234	1842.85
2486.385	1928.65
2489.537	1940.37
2492.688	2011.12
2495.839	1955.74
2498.989	1909.11
2502.14	1925.03
2505.29	1940.2
2508.439	1976.86
2511.589	1967.24
2514.738	2149.05
2517.887	2102.2
2521.035	2215.66
2524.183	2240.09
2527.331	2258.93
2530.479	2248.98
2533.627	2272.99
