Data from C_2_DIV_WI_4N_Splice17_13-22-05-938.txt Node
Date: Sat Mar 07 13:22:05 EST 2020
User: sa697716
Spectrometer: NQ5500242
Trigger mode: 0
Integration Time (sec): 1.450000E-1
Scans to average: 20
Nonlinearity correction enabled: false
Boxcar width: 5
Storing dark spectrum: false
XAxis mode: Wavelengths
Number of Pixels in Spectrum: 512
>>>>>Begin Spectral Data<<<<<
187.83	158.96
188.298	173.82
188.766	163.23
189.233	129.13
189.701	118.4
190.169	155.03
190.636	191.91
191.104	248.18
191.571	329.72
192.039	17.98
192.506	228.69
192.974	96.62
193.441	169.23
193.908	132.43
194.375	47.67
194.842	-12.65
195.31	73.28
195.777	249.48
196.244	52.61
196.711	49.43
197.177	48.83
197.644	47.64
198.111	46.38
198.578	46.04
199.045	46.37
199.511	46.42
199.978	46.04
200.445	46.17
200.911	46.22
201.378	46.14
201.844	46.1
202.31	45.44
202.777	45.6
203.243	45.7
203.709	45.45
204.176	44.83
204.642	44.64
205.108	44.54
205.574	44
206.04	43.34
206.506	42.98
206.972	42.58
207.438	42.4
207.903	41.5
208.369	40.3
208.835	39.82
209.301	38.95
209.766	37.6
210.232	36.72
210.697	35.66
211.163	34.8
211.628	34.17
212.094	33.27
212.559	32.45
213.024	31.81
213.49	31.22
213.955	30.36
214.42	29.74
214.885	29.07
215.35	27.96
215.815	26.64
216.28	24.9
216.745	22.71
217.21	20.74
217.675	18.89
218.14	17.35
218.604	16
219.069	14.84
219.534	13.85
219.998	12.99
220.463	12.31
220.927	11.68
221.392	11.17
221.856	10.79
222.32	10.44
222.785	10.18
223.249	9.89
223.713	9.64
224.177	9.44
224.642	9.26
225.106	9.07
225.57	8.87
226.034	8.74
226.497	8.6
226.961	8.43
227.425	8.3
227.889	8.15
228.353	8.01
228.816	7.88
229.28	7.75
229.744	7.61
230.207	7.49
230.671	7.38
231.134	7.26
231.597	7.18
232.061	7.1
232.524	7.01
232.987	6.93
233.45	6.86
233.914	6.79
234.377	6.7
234.84	6.63
235.303	6.57
235.766	6.51
236.229	6.45
236.691	6.36
237.154	6.29
237.617	6.23
238.08	6.17
238.542	6.1
239.005	6.05
239.468	5.99
239.93	5.94
240.393	5.9
240.855	5.84
241.317	5.78
241.78	5.73
242.242	5.68
242.704	5.63
243.166	5.58
243.629	5.54
244.091	5.47
244.553	5.42
245.015	5.38
245.477	5.33
245.939	5.28
246.4	5.22
246.862	5.18
247.324	5.13
247.786	5.09
248.247	5.04
248.709	4.98
249.17	4.93
249.632	4.9
250.093	4.86
250.555	4.82
251.016	4.78
251.477	4.75
251.939	4.71
252.4	4.69
252.861	4.65
253.322	4.62
253.783	4.6
254.244	4.57
254.705	4.53
255.166	4.5
255.627	4.47
256.088	4.45
256.549	4.42
257.009	4.39
257.47	4.35
257.931	4.31
258.391	4.28
258.852	4.25
259.312	4.23
259.773	4.2
260.233	4.18
260.694	4.15
261.154	4.12
261.614	4.09
262.074	4.06
262.534	4.03
262.994	4.01
263.455	3.98
263.915	3.95
264.374	3.93
264.834	3.91
265.294	3.88
265.754	3.87
266.214	3.85
266.673	3.83
267.133	3.82
267.593	3.8
268.052	3.79
268.512	3.78
268.971	3.77
269.431	3.76
269.89	3.74
270.349	3.74
270.809	3.72
271.268	3.71
271.727	3.7
272.186	3.69
272.645	3.69
273.104	3.68
273.563	3.67
274.022	3.66
274.481	3.65
274.94	3.64
275.399	3.63
275.857	3.62
276.316	3.61
276.775	3.59
277.233	3.58
277.692	3.57
278.15	3.57
278.609	3.56
279.067	3.56
279.525	3.55
279.984	3.54
280.442	3.53
280.9	3.53
281.358	3.53
281.816	3.54
282.274	3.53
282.732	3.52
283.19	3.51
283.648	3.5
284.106	3.48
284.564	3.47
285.021	3.47
285.479	3.47
285.937	3.45
286.394	3.45
286.852	3.44
287.309	3.44
287.767	3.43
288.224	3.42
288.682	3.41
289.139	3.4
289.596	3.38
290.053	3.36
290.511	3.34
290.968	3.33
291.425	3.3
291.882	3.29
292.339	3.28
292.796	3.26
293.252	3.25
293.709	3.24
294.166	3.23
294.623	3.23
295.079	3.21
295.536	3.21
295.992	3.2
296.449	3.19
296.905	3.19
297.362	3.18
297.818	3.17
298.274	3.16
298.731	3.15
299.187	3.14
299.643	3.13
300.099	3.12
300.555	3.11
301.011	3.1
301.467	3.1
301.923	3.09
302.379	3.08
302.835	3.08
303.291	3.07
303.746	3.07
304.202	3.07
304.658	3.07
305.113	3.07
305.569	3.07
306.024	3.07
306.479	3.06
306.935	3.06
307.39	3.06
307.845	3.07
308.301	3.08
308.756	3.08
309.211	3.08
309.666	3.09
310.121	3.09
310.576	3.09
311.031	3.09
311.486	3.08
311.94	3.09
312.395	3.09
312.85	3.08
313.305	3.08
313.759	3.08
314.214	3.07
314.668	3.06
315.123	3.07
315.577	3.07
316.032	3.07
316.486	3.07
316.94	3.07
317.394	3.06
317.849	3.05
318.303	3.05
318.757	3.05
319.211	3.04
319.665	3.02
320.119	3.01
320.572	2.99
321.026	2.98
321.48	2.97
321.934	2.96
322.387	2.96
322.841	2.96
323.295	2.96
323.748	2.95
324.202	2.95
324.655	2.96
325.108	2.96
325.562	2.97
326.015	2.97
326.468	2.98
326.921	2.98
327.374	2.97
327.827	2.98
328.28	2.97
328.733	2.98
329.186	2.97
329.639	2.97
330.092	2.97
330.545	2.97
330.997	2.97
331.45	2.97
331.903	2.98
332.355	2.98
332.808	2.98
333.26	2.97
333.713	2.96
334.165	2.97
334.617	2.97
335.069	2.97
335.522	2.98
335.974	2.98
336.426	2.97
336.878	2.96
337.33	2.96
337.782	2.97
338.234	2.97
338.686	2.99
339.137	3
339.589	2.98
340.041	2.98
340.493	2.97
340.944	2.95
341.396	2.95
341.847	2.95
342.299	2.94
342.75	2.93
343.201	2.92
343.653	2.9
344.104	2.88
344.555	2.87
345.006	2.86
345.457	2.86
345.908	2.85
346.359	2.85
346.81	2.84
347.261	2.84
347.712	2.84
348.163	2.84
348.613	2.84
349.064	2.85
349.515	2.84
349.965	2.85
350.416	2.85
350.866	2.85
351.317	2.85
351.767	2.85
352.217	2.84
352.668	2.84
353.118	2.84
353.568	2.83
354.018	2.84
354.468	2.84
354.918	2.84
355.368	2.86
355.818	2.86
356.268	2.87
356.718	2.88
357.168	2.87
357.617	2.87
358.067	2.87
358.517	2.89
358.966	2.89
359.416	2.9
359.865	2.9
360.315	2.9
360.764	2.9
361.213	2.9
361.663	2.9
362.112	2.92
362.561	2.93
363.01	2.94
363.459	2.93
363.908	2.93
364.357	2.93
364.806	2.92
365.255	2.92
365.703	2.94
366.152	2.94
366.601	2.94
367.05	2.95
367.498	2.95
367.947	2.96
368.395	2.96
368.844	2.98
369.292	2.98
369.74	2.99
370.189	3
370.637	3
371.085	3
371.533	3.01
371.981	3.01
372.429	3.01
372.877	3.03
373.325	3.04
373.773	3.05
374.221	3.06
374.669	3.08
375.116	3.08
375.564	3.1
376.012	3.12
376.459	3.13
376.907	3.14
377.354	3.16
377.801	3.18
378.249	3.19
378.696	3.21
379.143	3.23
379.591	3.25
380.038	3.28
380.485	3.3
380.932	3.32
381.379	3.36
381.826	3.37
382.273	3.39
382.72	3.4
383.166	3.42
383.613	3.44
384.06	3.45
384.506	3.46
384.953	3.49
385.4	3.51
385.846	3.53
386.292	3.54
386.739	3.56
387.185	3.58
387.631	3.61
388.078	3.64
388.524	3.66
388.97	3.68
389.416	3.72
389.862	3.75
390.308	3.78
390.754	3.81
391.2	3.85
391.645	3.88
392.091	3.92
392.537	3.96
392.983	4
393.428	4.03
393.874	4.06
394.319	4.09
394.765	4.12
395.21	4.13
395.655	4.16
396.101	4.2
396.546	4.21
396.991	4.23
397.436	4.26
397.881	4.3
398.326	4.33
398.771	4.37
399.216	4.4
399.661	4.43
400.106	4.46
400.551	4.48
400.995	4.5
401.44	4.52
401.885	4.55
402.329	4.58
402.774	4.59
403.218	4.63
403.663	4.66
404.107	4.68
404.551	4.7
404.995	4.72
405.44	4.74
405.884	4.76
406.328	4.78
406.772	4.79
407.216	4.8
407.66	4.81
408.104	4.79
408.547	4.79
408.991	4.8
409.435	4.81
409.879	4.82
410.322	4.84
410.766	4.87
411.209	4.89
411.653	4.91
412.096	4.93
412.54	4.94
412.983	4.97
413.426	5.01
413.869	5.04
414.312	5.07
414.756	5.09
415.199	5.1
415.642	5.1
416.085	5.11
416.527	5.11
416.97	5.1
417.413	5.12
417.856	5.13
418.298	5.11
418.741	5.11
419.184	5.1
419.626	5.11
420.069	5.13
420.511	5.13
420.953	5.13
421.396	5.14
421.838	5.15
422.28	5.16
422.722	5.17
423.164	5.16
423.606	5.18
424.048	5.17
424.49	5.18
424.932	5.16
425.374	5.14
425.816	5.12
426.258	5.1
426.699	5.08
427.141	5.07
427.582	5.07
428.024	5.07
428.465	5.07
428.907	5.06
429.348	5.04
429.789	5.05
430.231	5.08
430.672	5.11
431.113	5.12
431.554	5.14
431.995	5.15
432.436	5.15
432.877	5.16
433.318	5.18
433.759	5.2
434.2	5.24
434.64	5.25
435.081	5.26
435.522	5.26
435.962	5.28
436.403	5.31
436.843	5.32
437.284	5.32
437.724	5.33
438.164	5.32
438.604	5.33
439.045	5.33
439.485	5.34
439.925	5.34
440.365	5.36
440.805	5.36
441.245	5.38
441.685	5.39
442.125	5.42
442.564	5.43
443.004	5.47
443.444	5.5
443.883	5.53
444.323	5.55
444.762	5.57
445.202	5.59
445.641	5.64
446.081	5.67
446.52	5.7
446.959	5.74
447.398	5.77
447.837	5.79
448.276	5.81
448.716	5.82
449.154	5.86
449.593	5.9
450.032	5.92
450.471	5.91
450.91	5.91
451.349	5.93
451.787	5.92
452.226	5.91
452.664	5.93
453.103	5.92
453.541	5.93
453.98	5.94
454.418	5.92
454.856	5.92
455.295	5.93
455.733	5.92
456.171	5.91
456.609	5.92
457.047	5.92
457.485	5.9
457.923	5.9
458.361	5.89
458.798	5.88
459.236	5.88
459.674	5.87
460.111	5.87
460.549	5.88
460.987	5.89
461.424	5.88
461.862	5.91
462.299	5.91
462.736	5.92
463.173	5.93
463.611	5.93
464.048	5.93
464.485	5.94
464.922	5.96
465.359	5.95
465.796	5.96
466.233	5.96
466.67	5.94
467.106	5.94
467.543	5.93
467.98	5.92
468.416	5.92
468.853	5.92
469.29	5.92
469.726	5.91
470.162	5.91
470.599	5.91
471.035	5.89
471.471	5.9
471.907	5.91
472.344	5.92
472.78	5.93
473.216	5.92
473.652	5.91
474.088	5.89
474.523	5.89
474.959	5.89
475.395	5.89
475.831	5.89
476.266	5.9
476.702	5.89
477.138	5.88
477.573	5.89
478.008	5.9
478.444	5.9
478.879	5.92
479.314	5.92
479.75	5.92
480.185	5.9
480.62	5.89
481.055	5.89
481.49	5.89
481.925	5.9
482.36	5.9
482.795	5.9
483.229	5.9
483.664	5.91
484.099	5.91
484.534	5.92
484.968	5.93
485.403	5.93
485.837	5.95
486.271	5.97
486.706	5.98
487.14	5.99
487.574	6.01
488.009	6.04
488.443	6.06
488.877	6.09
489.311	6.13
489.745	6.17
490.179	6.23
490.613	6.27
491.046	6.31
491.48	6.36
491.914	6.41
492.348	6.47
492.781	6.54
493.215	6.61
493.648	6.67
494.082	6.73
494.515	6.8
494.948	6.86
495.382	6.93
495.815	7.01
496.248	7.09
496.681	7.18
497.114	7.27
497.547	7.34
497.98	7.43
498.413	7.53
498.846	7.64
499.279	7.74
499.711	7.85
500.144	7.97
500.577	8.09
501.009	8.22
501.442	8.34
501.874	8.48
502.306	8.63
502.739	8.8
503.171	8.95
503.603	9.1
504.036	9.28
504.468	9.45
504.9	9.61
505.332	9.78
505.764	9.95
506.196	10.13
506.627	10.32
507.059	10.51
507.491	10.69
507.923	10.89
508.354	11.1
508.786	11.3
509.217	11.52
509.649	11.75
510.08	11.99
510.512	12.23
510.943	12.47
511.374	12.71
511.805	12.95
512.237	13.19
512.668	13.44
513.099	13.7
513.53	13.95
513.961	14.21
514.391	14.45
514.822	14.72
515.253	14.99
515.684	15.24
516.114	15.5
516.545	15.76
516.975	16.03
517.406	16.3
517.836	16.55
518.267	16.81
518.697	17.07
519.127	17.33
519.558	17.58
519.988	17.82
520.418	18.07
520.848	18.31
521.278	18.54
521.708	18.93
522.138	19.16
522.567	19.39
522.997	19.59
523.427	19.81
523.857	20
524.286	20.18
524.716	20.38
525.145	20.57
525.575	20.77
526.004	20.95
526.433	20.96
526.863	21.12
527.292	21.29
527.721	21.44
528.15	21.58
528.579	21.73
529.008	21.88
529.437	22.01
529.866	22.13
530.295	22.24
530.724	22.37
531.152	22.48
531.581	22.59
532.01	22.68
532.438	22.78
532.867	22.88
533.295	22.96
533.723	23.04
534.152	23.12
534.58	23.2
535.008	23.24
535.436	23.3
535.865	23.35
536.293	23.4
536.721	23.44
537.149	23.5
537.576	23.53
538.004	23.58
538.432	23.62
538.86	23.64
539.287	23.67
539.715	23.73
540.143	23.75
540.57	23.78
540.998	23.82
541.425	23.85
541.852	23.87
542.28	23.9
542.707	23.92
543.134	23.95
543.561	23.98
543.988	24.01
544.415	24.01
544.842	24.03
545.269	24.06
545.696	24.07
546.123	24.09
546.549	24.09
546.976	24.1
547.403	24.12
547.829	24.12
548.256	24.13
548.682	24.14
549.108	24.17
549.535	24.18
549.961	24.19
550.387	24.2
550.813	24.21
551.24	24.21
551.666	24.21
552.092	24.2
552.518	24.19
552.943	24.18
553.369	24.16
553.795	24.13
554.221	24.09
554.646	24.04
555.072	24.01
555.498	23.97
555.923	23.93
556.349	23.87
556.774	23.83
557.199	23.76
557.625	23.71
558.05	23.66
558.475	23.61
558.9	23.57
559.325	23.53
559.75	23.46
560.175	23.39
560.6	23.29
561.025	23.24
561.449	23.16
561.874	23.09
562.299	23.01
562.723	22.91
563.148	22.8
563.572	22.69
563.997	22.57
564.421	22.45
564.846	22.35
565.27	22.25
565.694	22.12
566.118	22.02
566.542	21.9
566.966	21.77
567.39	21.64
567.814	21.53
568.238	21.4
568.662	21.29
569.086	21.18
569.509	21.05
569.933	20.93
570.357	20.81
570.78	20.67
571.204	20.57
571.627	20.46
572.05	20.34
572.474	20.22
572.897	20.11
573.32	20
573.743	19.89
574.166	19.78
574.589	19.68
575.012	19.56
575.435	19.46
575.858	19.36
576.281	19.27
576.704	19.18
577.126	19.1
577.549	19.02
577.972	18.94
578.394	18.85
578.817	18.77
579.239	18.69
579.661	18.62
580.084	18.56
580.506	18.49
580.928	18.41
581.35	18.34
581.772	18.27
582.194	18.2
582.616	18.13
583.038	18.06
583.46	17.99
583.882	17.93
584.303	17.85
584.725	17.79
585.147	17.73
585.568	17.67
585.99	17.61
586.411	17.55
586.833	17.49
587.254	17.44
587.675	17.38
588.096	17.31
588.518	17.27
588.939	17.24
589.36	17.19
589.781	17.14
590.202	17.1
590.623	17.07
591.043	17.03
591.464	17
591.885	16.96
592.305	16.94
592.726	16.93
593.147	16.88
593.567	16.83
593.987	16.79
594.408	16.74
594.828	16.71
595.248	16.68
595.669	16.64
596.089	16.6
596.509	16.57
596.929	16.54
597.349	16.5
597.769	16.46
598.189	16.45
598.608	16.43
599.028	16.43
599.448	16.4
599.867	16.36
600.287	16.33
600.706	16.29
601.126	16.25
601.545	16.21
601.965	16.18
602.384	16.16
602.803	16.1
603.222	16.05
603.641	15.99
604.061	15.94
604.48	15.88
604.898	15.82
605.317	15.78
605.736	15.73
606.155	15.68
606.574	15.6
606.992	15.52
607.411	15.47
607.829	15.37
608.248	15.3
608.666	15.23
609.085	15.18
609.503	15.12
609.921	15.04
610.339	14.97
610.758	14.9
611.176	14.82
611.594	14.76
612.012	14.68
612.43	14.63
612.847	14.56
613.265	14.48
613.683	14.41
614.101	14.34
614.518	14.27
614.936	14.2
615.353	14.13
615.771	14.06
616.188	14.01
616.606	13.96
617.023	13.91
617.44	13.88
617.857	13.83
618.274	13.77
618.691	13.73
619.108	13.68
619.525	13.64
619.942	13.6
620.359	13.57
620.776	13.53
621.192	13.48
621.609	13.46
622.026	13.42
622.442	13.39
622.859	13.37
623.275	13.34
623.691	13.32
624.108	13.31
624.524	13.3
624.94	13.3
625.356	13.29
625.772	13.28
626.188	13.27
626.604	13.26
627.02	13.25
627.436	13.25
627.852	13.24
628.268	13.23
628.683	13.2
629.099	13.18
629.514	13.16
629.93	13.14
630.345	13.12
630.761	13.09
631.176	13.06
631.591	13.02
632.007	12.98
632.422	12.94
632.837	12.89
633.252	12.84
633.667	12.8
634.082	12.72
634.497	12.66
634.911	12.58
635.326	12.49
635.741	12.41
636.155	12.33
636.57	12.25
636.984	12.16
637.399	12.07
637.813	11.96
638.228	11.83
638.642	11.72
639.056	11.6
639.47	11.5
639.884	11.39
640.298	11.26
640.712	11.14
641.126	11.02
641.54	10.87
641.954	10.74
642.368	10.63
642.781	10.52
643.195	10.41
643.609	10.3
644.022	10.18
644.436	10.07
644.849	9.97
645.262	9.86
645.676	9.76
646.089	9.69
646.502	9.61
646.915	9.55
647.328	9.47
647.741	9.4
648.154	9.35
648.567	9.3
648.98	9.25
649.393	9.19
649.805	9.16
650.218	9.12
650.631	9.09
651.043	9.04
651.456	8.98
651.868	8.93
652.28	8.89
652.693	8.84
653.105	8.78
653.517	8.73
653.929	8.68
654.341	8.62
654.753	8.55
655.165	8.48
655.577	8.42
655.989	8.36
656.401	8.29
656.813	8.21
657.224	8.13
657.636	8.04
658.047	7.94
658.459	7.84
658.87	7.75
659.282	7.65
659.693	7.57
660.104	7.46
660.515	7.37
660.926	7.29
661.338	7.18
661.749	7.1
662.159	7.01
662.57	6.94
662.981	6.86
663.392	6.8
663.803	6.73
664.213	6.65
664.624	6.59
665.035	6.53
665.445	6.46
665.855	6.42
666.266	6.38
666.676	6.34
667.086	6.29
667.497	6.25
667.907	6.22
668.317	6.18
668.727	6.16
669.137	6.14
669.547	6.13
669.956	6.11
670.366	6.09
670.776	6.07
671.186	6.07
671.595	6.07
672.005	6.06
672.414	6.07
672.824	6.08
673.233	6.09
673.642	6.11
674.052	6.11
674.461	6.13
674.87	6.15
675.279	6.19
675.688	6.22
676.097	6.26
676.506	6.31
676.915	6.34
677.323	6.39
677.732	6.44
678.141	6.5
678.549	6.57
678.958	6.63
679.366	6.7
679.775	6.77
680.183	6.86
680.592	6.96
681	7.06
681.408	7.16
681.816	7.29
682.224	7.42
682.632	7.57
683.04	7.74
683.448	7.92
683.856	8.11
684.264	8.33
684.671	8.55
685.079	8.79
685.487	9.06
685.894	9.35
686.302	9.65
686.709	9.98
687.116	10.31
687.524	10.68
687.931	11.06
688.338	11.46
688.745	11.87
689.152	12.3
689.559	12.76
689.966	13.22
690.373	13.69
690.78	14.19
691.187	14.68
691.593	15.18
692	15.68
692.407	16.17
692.813	16.69
693.22	17.19
693.626	17.71
694.032	18.22
694.439	18.71
694.845	19.22
695.251	19.71
695.657	20.19
696.063	20.69
696.469	21.16
696.875	21.64
697.281	22.1
697.687	22.57
698.093	23.04
698.498	23.47
698.904	23.91
699.31	24.34
699.715	24.77
700.12	25.2
700.526	25.61
700.931	26
701.337	26.39
701.742	26.78
702.147	27.14
702.552	27.5
702.957	27.83
703.362	28.18
703.767	28.49
704.172	28.78
704.577	29.1
704.981	29.41
705.386	29.75
705.791	30.04
706.195	30.31
706.6	30.61
707.004	30.88
707.408	31.16
707.813	31.45
708.217	31.72
708.621	32
709.025	32.23
709.43	32.47
709.834	32.7
710.237	32.93
710.641	33.17
711.045	33.38
711.449	33.62
711.853	33.86
712.256	34.05
712.66	34.25
713.064	34.46
713.467	34.68
713.87	34.89
714.274	35.08
714.677	35.29
715.08	35.48
715.484	35.68
715.887	35.87
716.29	36.01
716.693	36.21
717.096	36.39
717.499	36.56
717.901	36.72
718.304	36.88
718.707	37.02
719.109	37.17
719.512	37.31
719.915	37.45
720.317	37.56
720.719	37.68
721.122	37.81
721.524	37.92
721.926	38.06
722.328	38.19
722.731	38.28
723.133	38.41
723.535	38.52
723.937	38.64
724.338	38.75
724.74	38.86
725.142	39.1
725.544	39.18
725.945	39.3
726.347	39.34
726.748	39.41
727.15	39.49
727.551	39.56
727.952	39.63
728.354	39.72
728.755	39.77
729.156	39.82
729.557	39.79
729.958	39.85
730.359	39.88
730.76	39.96
731.161	40.01
731.562	40.07
731.962	40.1
732.363	40.15
732.763	40.19
733.164	40.23
733.564	40.29
733.965	40.33
734.365	40.38
734.766	40.42
735.166	40.45
735.566	40.51
735.966	40.56
736.366	40.61
736.766	40.65
737.166	40.68
737.566	40.72
737.966	40.73
738.365	40.75
738.765	40.78
739.165	40.79
739.564	40.83
739.964	40.84
740.363	40.83
740.763	40.84
741.162	40.86
741.561	40.87
741.96	40.87
742.36	40.9
742.759	40.92
743.158	40.92
743.557	40.94
743.955	40.99
744.354	41
744.753	41.04
745.152	41.09
745.55	41.08
745.949	41.08
746.348	41.11
746.746	41.1
747.144	41.1
747.543	41.12
747.941	41.11
748.339	41.07
748.737	41.07
749.136	41.05
749.534	41.02
749.932	41.03
750.33	41.05
750.727	41.05
751.125	41.06
751.523	41.06
751.921	41.08
752.318	41.1
752.716	41.12
753.113	41.14
753.511	41.16
753.908	41.2
754.305	41.22
754.703	41.21
755.1	41.22
755.497	41.22
755.894	41.22
756.291	41.22
756.688	41.19
757.085	41.2
757.482	41.19
757.878	41.19
758.275	41.18
758.672	41.16
759.068	41.18
759.465	41.17
759.861	41.19
760.258	41.22
760.654	41.2
761.05	41.25
761.447	41.24
761.843	41.24
762.239	41.23
762.635	41.21
763.031	41.21
763.427	41.19
763.822	41.19
764.218	41.2
764.614	41.19
765.01	41.19
765.405	41.16
765.801	41.16
766.196	41.16
766.592	41.17
766.987	41.19
767.382	41.2
767.778	41.22
768.173	41.23
768.568	41.2
768.963	41.2
769.358	41.2
769.753	41.21
770.148	41.21
770.542	41.22
770.937	41.23
771.332	41.22
771.726	41.21
772.121	41.21
772.515	41.17
772.91	41.18
773.304	41.16
773.699	41.18
774.093	41.16
774.487	41.18
774.881	41.18
775.275	41.15
775.669	41.11
776.063	41.09
776.457	41.1
776.851	41.14
777.245	41.13
777.638	41.15
778.032	41.15
778.425	41.17
778.819	41.18
779.212	41.18
779.606	41.21
779.999	41.23
780.392	41.28
780.786	41.25
781.179	41.25
781.572	41.27
781.965	41.27
782.358	41.27
782.751	41.26
783.143	41.25
783.536	41.23
783.929	41.23
784.322	41.23
784.714	41.24
785.107	41.29
785.499	41.28
785.891	41.28
786.284	41.29
786.676	41.29
787.068	41.28
787.46	41.28
787.852	41.3
788.245	41.29
788.636	41.3
789.028	41.29
789.42	41.26
789.812	41.28
790.204	41.27
790.595	41.28
790.987	41.28
791.378	41.29
791.77	41.28
792.161	41.27
792.553	41.27
792.944	41.27
793.335	41.29
793.726	41.3
794.117	41.28
794.508	41.26
794.899	41.23
795.29	41.21
795.681	41.2
796.072	41.2
796.463	41.25
796.853	41.24
797.244	41.25
797.634	41.21
798.025	41.24
798.415	41.23
798.806	41.26
799.196	41.31
799.586	41.34
799.976	41.35
800.366	41.34
800.756	41.34
801.146	41.36
801.536	41.36
801.926	41.37
802.316	41.37
802.706	41.38
803.095	41.38
803.485	41.36
803.874	41.35
804.264	41.36
804.653	41.37
805.043	41.34
805.432	41.34
805.821	41.35
806.21	41.35
806.599	41.34
806.988	41.35
807.377	41.34
807.766	41.34
808.155	41.31
808.544	41.3
808.933	41.32
809.321	41.32
809.71	41.32
810.098	41.3
810.487	41.27
810.875	41.27
811.264	41.28
811.652	41.28
812.04	41.26
812.428	41.31
812.816	41.31
813.204	41.32
813.592	41.31
813.98	41.29
814.368	41.32
814.756	41.33
815.144	41.3
815.531	41.28
815.919	41.29
816.306	41.3
816.694	41.26
817.081	41.27
817.469	41.26
817.856	41.26
818.243	41.27
818.63	41.25
819.017	41.24
819.404	41.27
819.791	41.26
820.178	41.25
820.565	41.23
820.952	41.26
821.339	41.25
821.725	41.26
822.112	41.28
822.498	41.28
822.885	41.32
823.271	41.33
823.657	41.28
824.044	41.3
824.43	41.34
824.816	41.37
825.202	41.38
825.588	41.37
825.974	41.34
826.36	41.32
826.746	41.3
827.132	41.26
827.517	41.27
827.903	41.31
828.289	41.31
828.674	41.25
829.06	41.23
829.445	41.18
829.83	41.19
830.216	41.19
830.601	41.19
830.986	41.2
831.371	41.17
831.756	41.17
832.141	41.15
832.526	41.13
832.911	41.15
833.295	41.16
833.68	41.18
834.065	41.18
834.449	41.21
834.834	41.2
835.218	41.21
835.603	41.23
835.987	41.21
836.371	41.21
836.755	41.2
837.139	41.16
837.524	41.16
837.908	41.17
838.291	41.15
838.675	41.13
839.059	41.13
839.443	41.13
839.827	41.11
840.21	41.12
840.594	41.14
840.977	41.13
841.361	41.16
841.744	41.13
842.127	41.11
842.511	41.11
842.894	41.1
843.277	41.08
843.66	41.08
844.043	41.1
844.426	41.11
844.809	41.1
845.191	41.12
845.574	41.11
845.957	41.13
846.339	41.14
846.722	41.14
847.104	41.16
847.487	41.18
847.869	41.16
848.252	41.15
848.634	41.13
849.016	41.14
849.398	41.14
849.78	41.15
850.162	41.15
850.544	41.15
850.926	41.15
851.307	41.14
851.689	41.14
852.071	41.16
852.452	41.18
852.834	41.2
853.215	41.17
853.597	41.17
853.978	41.18
854.359	41.2
854.741	41.19
855.122	41.2
855.503	41.2
855.884	41.19
856.265	41.19
856.646	41.17
857.026	41.18
857.407	41.2
857.788	41.2
858.169	41.21
858.549	41.19
858.93	41.19
859.31	41.19
859.69	41.21
860.071	41.23
860.451	41.23
860.831	41.25
861.211	41.2
861.591	41.19
861.971	41.17
862.351	41.16
862.731	41.16
863.111	41.15
863.491	41.13
863.87	41.13
864.25	41.12
864.629	41.14
865.009	41.13
865.388	41.15
865.768	41.16
866.147	41.17
866.526	41.18
866.905	41.18
867.284	41.19
867.663	41.19
868.042	41.17
868.421	41.17
868.8	41.17
869.179	41.17
869.558	41.17
869.936	41.2
870.315	41.18
870.693	41.21
871.072	41.21
871.45	41.22
871.828	41.25
872.207	41.28
872.585	41.27
872.963	41.29
873.341	41.29
873.719	41.29
874.097	41.27
874.475	41.28
874.853	41.26
875.23	41.29
875.608	41.28
875.986	41.28
876.363	41.27
876.741	41.29
877.118	41.28
877.495	41.27
877.873	41.28
878.25	41.31
878.627	41.32
879.004	41.31
879.381	41.3
879.758	41.29
880.135	41.28
880.512	41.24
880.889	41.22
881.265	41.21
881.642	41.23
882.019	41.23
882.395	41.2
882.772	41.2
883.148	41.19
883.524	41.19
883.901	41.18
884.277	41.19
884.653	41.2
885.029	41.19
885.405	41.21
885.781	41.21
886.157	41.2
886.532	41.21
886.908	41.19
887.284	41.19
887.659	41.2
888.035	41.2
888.411	41.19
888.786	41.2
889.161	41.21
889.537	41.19
889.912	41.18
890.287	41.18
890.662	41.16
891.037	41.18
891.412	41.17
891.787	41.15
892.162	41.16
892.536	41.15
892.911	41.14
893.286	41.13
893.66	41.13
894.035	41.14
894.409	41.13
894.784	41.11
895.158	41.07
895.532	41.09
895.906	41.09
896.281	41.08
896.655	41.07
897.029	41.08
897.402	41.05
897.776	41.04
898.15	41.03
898.524	41.05
898.898	41.07
899.271	41.1
899.645	41.11
900.018	41.12
900.392	41.13
900.765	41.15
901.138	41.18
901.511	41.19
901.884	41.2
902.258	41.21
902.631	41.21
903.003	41.21
903.376	41.22
903.749	41.23
904.122	41.24
904.495	41.23
904.867	41.25
905.24	41.25
905.612	41.27
905.985	41.26
906.357	41.25
906.729	41.27
907.102	41.26
907.474	41.28
907.846	41.26
908.218	41.24
908.59	41.26
908.962	41.24
909.334	41.23
909.705	41.21
910.077	41.23
910.449	41.24
910.82	41.22
911.192	41.23
911.563	41.19
911.935	41.18
912.306	41.19
912.677	41.16
913.048	41.2
913.419	41.2
913.79	41.2
914.161	41.19
914.532	41.17
914.903	41.19
915.274	41.15
915.645	41.17
916.015	41.15
916.386	41.16
916.756	41.18
917.127	41.17
917.497	41.16
917.868	41.18
918.238	41.17
918.608	41.19
918.978	41.18
919.348	41.24
919.718	41.25
920.088	41.28
920.458	41.27
920.828	41.27
921.198	41.25
921.567	41.29
921.937	41.31
922.306	41.3
922.676	41.32
923.045	41.32
923.415	41.29
923.784	41.27
924.153	41.29
924.522	41.29
924.891	41.29
925.26	41.27
925.629	41.24
925.998	41.23
926.367	41.26
926.736	41.27
927.104	41.26
927.473	41.26
927.842	41.27
928.21	41.28
928.578	41.26
928.947	41.26
929.315	41.25
929.683	41.24
930.051	41.2
930.42	41.16
930.788	41.12
931.156	41.11
931.523	41.11
931.891	41.12
932.259	41.11
932.627	41.13
932.994	41.15
933.362	41.14
933.729	41.18
934.097	41.24
934.464	41.25
934.831	41.27
935.199	41.3
935.566	41.29
935.933	41.22
936.3	41.22
936.667	41.19
937.034	41.21
937.401	41.23
937.767	41.18
938.134	41.19
938.501	41.21
938.867	41.22
939.234	41.2
939.6	41.21
939.967	41.26
940.333	41.2
940.699	41.24
941.065	41.17
941.431	41.19
941.798	41.22
942.163	41.12
942.529	41.08
942.895	41.04
943.261	40.99
943.627	40.98
943.992	40.98
944.358	41.02
944.723	40.98
945.089	40.91
945.454	40.92
945.82	40.86
946.185	40.91
946.55	40.86
946.915	40.86
947.28	40.89
947.645	40.86
948.01	40.88
948.375	40.87
948.74	40.83
949.104	40.91
949.469	40.87
949.834	40.89
950.198	40.85
950.562	40.9
950.927	40.89
951.291	40.8
951.655	40.72
952.02	40.68
952.384	40.64
952.748	40.64
953.112	40.59
953.476	40.56
953.839	40.5
954.203	40.51
954.567	40.46
954.931	40.44
955.294	40.46
955.658	40.6
956.021	40.58
956.385	40.54
956.748	40.56
957.111	40.54
957.474	40.54
957.837	40.58
958.2	40.57
958.563	40.55
958.926	40.57
959.289	40.61
959.652	40.52
960.015	40.51
960.377	40.55
960.74	40.54
961.102	40.52
961.465	40.59
961.827	40.68
962.189	40.67
962.552	40.69
962.914	40.71
963.276	40.7
963.638	40.73
964	40.72
964.362	40.69
964.724	40.68
965.085	40.68
965.447	40.6
965.809	40.52
966.17	40.5
966.532	40.51
966.893	40.47
967.255	40.44
967.616	40.46
967.977	40.49
968.338	40.53
968.699	40.55
969.061	40.58
969.421	40.65
969.782	40.66
970.143	40.64
970.504	40.69
970.865	40.75
971.225	40.74
971.586	40.72
971.946	40.68
972.307	40.68
972.667	40.69
973.027	40.7
973.388	40.68
973.748	40.73
974.108	40.83
974.468	40.75
974.828	40.76
975.188	40.8
975.548	40.78
975.907	40.82
976.267	40.85
976.627	40.84
976.986	40.83
977.346	40.82
977.705	40.77
978.064	40.76
978.424	40.84
978.783	40.77
979.142	40.74
979.501	40.79
979.86	40.89
980.219	40.88
980.578	40.89
980.937	40.93
981.296	40.91
981.654	40.85
982.013	40.82
982.371	40.79
982.73	40.85
983.088	40.84
983.447	40.81
983.805	40.8
984.163	40.75
984.521	40.73
984.879	40.64
985.237	40.68
985.595	40.73
985.953	40.77
986.311	40.73
986.669	40.75
987.026	40.8
987.384	40.84
987.741	40.72
988.099	40.82
988.456	40.78
988.814	40.87
989.171	40.89
989.528	40.95
989.885	40.95
990.242	40.96
990.599	40.93
990.956	40.94
991.313	40.93
991.67	41.02
992.027	41.07
992.383	41.14
992.74	41.24
993.096	41.24
993.453	41.21
993.809	41.24
994.165	41.37
994.522	41.43
994.878	41.45
995.234	41.47
995.59	41.4
995.946	41.34
996.302	41.36
996.658	41.37
997.013	41.39
997.369	41.42
997.725	41.43
998.08	41.44
998.436	41.49
998.791	41.55
999.147	41.53
999.502	41.68
999.857	41.77
1000.212	41.67
1000.567	41.67
1000.922	41.69
1001.277	41.63
1001.632	41.59
1001.987	41.57
1002.342	41.41
1002.696	41.36
1003.051	41.54
1003.406	41.5
1003.76	41.47
1004.114	41.59
1004.469	41.56
1004.823	41.79
1005.177	41.89
1005.531	41.98
1005.885	42.01
1006.239	42.18
1006.593	42.32
1006.947	42.3
1007.301	42.2
1007.655	42.16
1008.008	42.19
1008.362	42.16
1008.715	42.01
1009.069	41.95
1009.422	41.9
1009.776	41.81
1010.129	41.82
1010.482	41.58
1010.835	41.56
1011.188	41.65
1011.541	41.66
1011.894	41.72
1012.247	41.84
1012.6	41.79
1012.952	41.84
1013.305	41.97
1013.657	42.12
1014.01	42.15
1014.362	42.23
1014.715	42.36
1015.067	42.48
1015.419	42.66
1015.771	42.52
1016.123	42.61
1016.475	42.63
1016.827	42.82
1017.179	42.86
1017.531	42.84
1017.883	42.82
1018.234	43.03
1018.586	42.97
1018.938	43.06
1019.289	43.03
1019.64	43.32
1019.992	43.18
1020.343	43.16
1020.694	43.15
1021.045	43.07
1021.396	43.08
1021.747	43.21
1022.098	43.39
1022.449	43.41
1022.8	43.42
1023.151	43.4
1023.501	43.42
1023.852	43.66
1024.202	43.71
1024.553	43.48
1024.903	43.7
1025.253	43.9
1025.604	44.07
1025.954	43.86
1026.304	43.89
1026.654	44.03
1027.004	44.06
1027.354	43.86
1027.703	43.62
1028.053	43.64
1028.403	43.96
1028.753	43.58
1029.102	43.85
1029.452	43.92
1029.801	44.3
1030.15	44.36
1030.499	44.18
897.758	1380.34
901.051	1385.82
904.343	1378.74
907.636	1400.25
910.928	1360.76
914.22	1362.77
917.511	1343.1
920.803	1283.07
924.094	1277.19
927.384	1244.59
930.675	1196.48
933.965	1188.86
937.255	1118.68
940.544	1075.97
943.834	1022.44
947.123	1015.31
950.411	951.79
953.7	933.23
956.988	881.14
960.276	844.02
963.563	834.23
966.851	803.24
970.138	795.68
973.424	771.15
976.711	773.78
979.997	738.78
983.283	733
986.568	718.9
989.853	695.08
993.138	684.28
996.423	657.81
999.708	636.81
1002.992	629.29
1006.275	602.18
1009.559	595.88
1012.842	573.78
1016.125	556.56
1019.408	546.05
1022.69	539.32
1025.972	529.12
1029.254	515.05
1032.536	507.04
1035.817	495.96
1039.098	489.61
1042.379	478.43
1045.659	473.25
1048.939	462.59
1052.219	452.41
1055.498	446.64
1058.778	435.48
1062.057	424.97
1065.335	420.22
1068.614	415.96
1071.892	410.37
1075.17	397.09
1078.447	389.62
1081.724	386.29
1085.001	383.1
1088.278	375.45
1091.554	367.66
1094.83	367.58
1098.106	364.6
1101.382	362.24
1104.657	358.44
1107.932	353.33
1111.206	355.04
1114.481	345.68
1117.755	342.91
1121.029	339.36
1124.302	339.27
1127.575	332.63
1130.848	328.82
1134.121	325.82
1137.393	322.96
1140.665	316.31
1143.937	314.25
1147.208	312.7
1150.48	312.26
1153.75	307.95
1157.021	303.92
1160.291	303.7
1163.561	300.54
1166.831	300.78
1170.101	298.47
1173.37	297.73
1176.639	298.55
1179.907	295.51
1183.176	291.62
1186.444	291.61
1189.711	290.88
1192.979	289.58
1196.246	288.21
1199.513	288.78
1202.78	286.67
1206.046	286.37
1209.312	283.75
1212.578	284.05
1215.843	287.07
1219.108	285.38
1222.373	290.93
1225.638	293.34
1228.902	298.06
1232.166	298.31
1235.43	300.83
1238.693	304.49
1241.956	306.54
1245.219	311.43
1248.482	311.39
1251.744	310.59
1255.006	312.45
1258.268	304.05
1261.529	300.98
1264.79	299.11
1268.051	296.96
1271.312	293.38
1274.572	289.15
1277.832	286.66
1281.092	282.33
1284.351	280.05
1287.61	280.08
1290.869	275.1
1294.128	274.19
1297.386	273.91
1300.644	270.1
1303.902	270.83
1307.159	270.28
1310.416	270.73
1313.673	269.93
1316.93	272.68
1320.186	272.98
1323.442	273.26
1326.697	279.37
1329.953	280.11
1333.208	281.78
1336.463	284.7
1339.717	285.83
1342.972	288.87
1346.226	291.37
1349.479	291.93
1352.733	293.45
1355.986	294.91
1359.238	295.88
1362.491	296.86
1365.743	299.61
1368.995	299.46
1372.247	298.12
1375.498	298.07
1378.749	301.05
1382	297.6
1385.251	298.67
1388.501	297.05
1391.751	298.26
1395	296.64
1398.25	294.03
1401.499	293.47
1404.748	293.11
1407.996	292.42
1411.244	290.75
1414.492	288.72
1417.74	287.56
1420.987	283.07
1424.234	282.97
1427.481	278.84
1430.728	279.25
1433.974	276.15
1437.22	274.14
1440.465	273.07
1443.711	271.33
1446.956	269.81
1450.201	266.07
1453.445	263.19
1456.689	262.7
1459.933	257.88
1463.177	255.88
1466.42	251.56
1469.663	248.55
1472.906	246.57
1476.148	240.24
1479.391	236.98
1482.633	234.72
1485.874	231.08
1489.115	229.53
1492.356	226.68
1495.597	226.25
1498.838	222.79
1502.078	221.34
1505.318	220.6
1508.557	219.65
1511.797	219.59
1515.036	217.94
1518.274	217.61
1521.513	215.56
1524.751	215.16
1527.989	214.39
1531.227	213.13
1534.464	213.59
1537.701	212.05
1540.938	211.54
1544.174	208.68
1547.41	207.92
1550.646	207.16
1553.882	206.68
1557.117	203.87
1560.352	202.65
1563.587	201.9
1566.821	200.39
1570.055	198.3
1573.289	196.51
1576.523	196.19
1579.756	195.2
1582.989	194.43
1586.222	194.06
1589.454	192.85
1592.686	194.78
1595.918	193.46
1599.15	192.96
1602.381	193.2
1605.612	193.07
1608.843	194.04
1612.073	193.62
1615.303	194.5
1618.533	194.43
1621.762	193.96
1624.992	193.94
1628.221	193.65
1631.449	193.35
1634.678	192.75
1637.906	193.22
1641.134	193.19
1644.361	192.61
1647.588	193.29
1650.815	192.36
1654.042	191.43
1657.269	193.12
1660.495	192.97
1663.72	191.98
1666.946	193.25
1670.171	193.66
1673.396	193.92
1676.621	194.29
1679.845	194.41
1683.069	194.17
1686.293	195.58
1689.517	197.01
1692.74	196.22
1695.963	197.12
1699.185	199.37
1702.408	199.25
1705.63	200.24
1708.852	200.54
1712.073	200.92
1715.294	201.58
1718.515	202.82
1721.736	202.62
1724.956	203.15
1728.176	203.45
1731.396	205.17
1734.616	204.41
1737.835	205.5
1741.054	204.01
1744.272	204.71
1747.491	206.37
1750.709	206.51
1753.927	206.56
1757.144	205.63
1760.361	206.52
1763.578	206.84
1766.795	206.22
1770.011	207.99
1773.227	207.87
1776.443	210.7
1779.658	211.49
1782.874	211.15
1786.089	212
1789.303	212.54
1792.518	215.91
1795.732	215.34
1798.945	217.73
1802.159	218.02
1805.372	218.23
1808.585	222.14
1811.797	222.93
1815.01	223.1
1818.222	224.91
1821.434	226.75
1824.645	227.83
1827.856	231.04
1831.067	233.2
1834.278	232.47
1837.488	235.17
1840.698	236.63
1843.908	234.23
1847.117	235.54
1850.326	237.43
1853.535	237.46
1856.744	241.13
1859.952	240.98
1863.16	239.46
1866.368	238.42
1869.575	241.57
1872.782	236.87
1875.989	237.28
1879.196	236.22
1882.402	234.93
1885.608	236.16
1888.814	236.25
1892.019	235.62
1895.224	234.94
1898.429	234.92
1901.634	236.17
1904.838	236.09
1908.042	239.88
1911.246	240
1914.449	242.35
1917.652	242.49
1920.855	242.04
1924.058	241.79
1927.26	240.9
1930.462	241.99
1933.664	243.59
1936.865	242.02
1940.066	242.04
1943.267	240.12
1946.467	239.78
1949.668	241.75
1952.868	243.94
1956.067	243.67
1959.267	244.49
1962.466	245.33
1965.665	244.1
1968.863	244.99
1972.061	248.81
1975.259	251.32
1978.457	253.27
1981.654	255.54
1984.852	255.56
1988.048	255.32
1991.245	257.86
1994.441	260.8
1997.637	262.45
2000.833	268.15
2004.028	271.01
2007.223	272.02
2010.418	273.98
2013.613	279.15
2016.807	281.92
2020.001	283.99
2023.194	288.65
2026.388	294.05
2029.581	300.11
2032.774	303.29
2035.966	307.48
2039.158	309.06
2042.35	315
2045.542	317.81
2048.733	322.53
2051.924	326.76
2055.115	332.55
2058.306	333.1
2061.496	337.41
2064.686	337.24
2067.875	342.8
2071.065	345.02
2074.254	343.75
2077.442	346.96
2080.631	348.12
2083.819	350.64
2087.007	351.85
2090.195	355.64
2093.382	358.16
2096.569	355.77
2099.756	361.14
2102.942	362.07
2106.128	365.68
2109.314	373.45
2112.5	372.6
2115.685	380.93
2118.87	381.63
2122.055	388.57
2125.239	391.67
2128.424	396.71
2131.608	400.44
2134.791	406.48
2137.974	408.16
2141.157	409.09
2144.34	410.16
2147.523	416.97
2150.705	413.67
2153.887	417.08
2157.068	418.21
2160.25	412.9
2163.431	416.67
2166.611	420.28
2169.792	428.8
2172.972	432.94
2176.152	435.45
2179.331	440.85
2182.511	448.08
2185.69	452.95
2188.868	463.26
2192.047	463.73
2195.225	479.21
2198.403	489.1
2201.58	499.3
2204.758	505.78
2207.935	516.14
2211.111	526.21
2214.288	533.02
2217.464	533.87
2220.64	541.77
2223.815	548.38
2226.991	572.61
2230.166	573.15
2233.34	582.27
2236.515	590.12
2239.689	592.12
2242.863	596.1
2246.036	613.34
2249.209	609.29
2252.382	620.56
2255.555	639.4
2258.727	641.85
2261.9	643.78
2265.071	650.99
2268.243	661.35
2271.414	668.9
2274.585	685.2
2277.756	692.38
2280.926	696.84
2284.096	712.42
2287.266	727.18
2290.436	733.96
2293.605	751.67
2296.774	774.78
2299.942	799.28
2303.111	806.56
2306.279	827.13
2309.447	836.74
2312.614	858.99
2315.781	882.34
2318.948	925.31
2322.115	911.54
2325.281	958.47
2328.447	937.02
2331.613	977.2
2334.779	964.91
2337.944	1007.42
2341.109	1015.51
2344.274	1042.78
2347.438	1080.48
2350.602	1080.76
2353.766	1111.54
2356.929	1129.24
2360.092	1123.71
2363.255	1205.94
2366.418	1200.14
2369.58	1227.28
2372.742	1298.84
2375.904	1333.97
2379.066	1327.73
2382.227	1297.17
2385.388	1411.9
2388.548	1411.57
2391.709	1426.43
2394.869	1590.48
2398.029	1524.23
2401.188	1565.12
2404.347	1552.53
2407.506	1527.02
2410.665	1570.34
2413.823	1669.16
2416.981	1772.2
2420.139	1707.82
2423.296	1689.25
2426.453	1766.47
2429.61	1697.52
2432.767	1773.64
2435.923	1757.08
2439.079	1926.77
2442.235	1944.85
2445.391	1932.68
2448.546	1915.89
2451.701	1860.53
2454.855	1858.39
2458.009	1973.33
2461.163	2048.51
2464.317	2128.93
2467.471	2185.69
2470.624	2186.75
2473.777	2121.1
2476.929	2082.62
2480.082	2011.29
2483.234	1987.87
2486.385	2087.8
2489.537	2100.36
2492.688	2176.47
2495.839	2119.39
2498.989	2069.44
2502.14	2080.11
2505.29	2103.86
2508.439	2136.7
2511.589	2121.29
2514.738	2323.02
2517.887	2270.37
2521.035	2403.98
2524.183	2424.9
2527.331	2445.21
2530.479	2436.69
2533.627	2453.61
