Data from C_2_DEC_OH_4N_Splice17_13-05-58-362.txt Node
Date: Sat Mar 07 13:05:58 EST 2020
User: sa697716
Spectrometer: NQ5500242
Trigger mode: 0
Integration Time (sec): 1.450000E-1
Scans to average: 20
Nonlinearity correction enabled: false
Boxcar width: 5
Storing dark spectrum: false
XAxis mode: Wavelengths
Number of Pixels in Spectrum: 512
>>>>>Begin Spectral Data<<<<<
187.83	203.93
188.298	211.72
188.766	193.41
189.233	159.23
189.701	153.57
190.169	174.75
190.636	169.82
191.104	200.63
191.571	-86.54
192.039	-269.09
192.506	-982.45
192.974	306.3
193.441	227.8
193.908	95.67
194.375	78.8
194.842	0.7
195.31	37.07
195.777	30.65
196.244	33.29
196.711	34.99
197.177	38.11
197.644	37.27
198.111	37.22
198.578	37.84
199.045	38.46
199.511	38.4
199.978	38.55
200.445	38.31
200.911	38.13
201.378	38.28
201.844	38.4
202.31	37.93
202.777	37.86
203.243	37.72
203.709	37.49
204.176	36.86
204.642	36.55
205.108	36.35
205.574	36.22
206.04	35.53
206.506	35.26
206.972	35.03
207.438	34.72
207.903	34.17
208.369	33.61
208.835	33.13
209.301	32.47
209.766	31.46
210.232	30.46
210.697	29.55
211.163	28.87
211.628	28.01
212.094	26.96
212.559	26.43
213.024	25.76
213.49	25.29
213.955	24.58
214.42	24.14
214.885	23.45
215.35	22.67
215.815	21.49
216.28	19.96
216.745	18.22
217.21	16.58
217.675	14.77
218.14	13.29
218.604	11.97
219.069	10.94
219.534	10
219.998	9.28
220.463	8.64
220.927	8.05
221.392	7.64
221.856	7.29
222.32	6.99
222.785	6.79
223.249	6.58
223.713	6.37
224.177	6.21
224.642	6.03
225.106	5.85
225.57	5.7
226.034	5.59
226.497	5.47
226.961	5.35
227.425	5.23
227.889	5.1
228.353	5
228.816	4.89
229.28	4.78
229.744	4.7
230.207	4.62
230.671	4.53
231.134	4.44
231.597	4.38
232.061	4.31
232.524	4.25
232.987	4.19
233.45	4.13
233.914	4.08
234.377	4.01
234.84	3.95
235.303	3.91
235.766	3.88
236.229	3.84
236.691	3.78
237.154	3.74
237.617	3.69
238.08	3.66
238.542	3.61
239.005	3.59
239.468	3.57
239.93	3.53
240.393	3.5
240.855	3.46
241.317	3.42
241.78	3.39
242.242	3.35
242.704	3.33
243.166	3.28
243.629	3.27
244.091	3.22
244.553	3.18
245.015	3.14
245.477	3.11
245.939	3.07
246.4	3.03
246.862	3
247.324	2.98
247.786	2.94
248.247	2.91
248.709	2.86
249.17	2.82
249.632	2.79
250.093	2.76
250.555	2.74
251.016	2.72
251.477	2.69
251.939	2.68
252.4	2.65
252.861	2.63
253.322	2.61
253.783	2.58
254.244	2.57
254.705	2.55
255.166	2.53
255.627	2.5
256.088	2.49
256.549	2.47
257.009	2.44
257.47	2.42
257.931	2.39
258.391	2.35
258.852	2.33
259.312	2.3
259.773	2.27
260.233	2.25
260.694	2.23
261.154	2.2
261.614	2.18
262.074	2.16
262.534	2.14
262.994	2.12
263.455	2.11
263.915	2.09
264.374	2.07
264.834	2.06
265.294	2.03
265.754	2.02
266.214	2
266.673	1.99
267.133	1.98
267.593	1.96
268.052	1.95
268.512	1.94
268.971	1.93
269.431	1.92
269.89	1.91
270.349	1.91
270.809	1.89
271.268	1.89
271.727	1.88
272.186	1.87
272.645	1.87
273.104	1.85
273.563	1.85
274.022	1.84
274.481	1.84
274.94	1.83
275.399	1.83
275.857	1.82
276.316	1.82
276.775	1.81
277.233	1.81
277.692	1.81
278.15	1.81
278.609	1.81
279.067	1.81
279.525	1.81
279.984	1.81
280.442	1.81
280.9	1.81
281.358	1.81
281.816	1.81
282.274	1.81
282.732	1.8
283.19	1.81
283.648	1.8
284.106	1.8
284.564	1.8
285.021	1.81
285.479	1.8
285.937	1.8
286.394	1.8
286.852	1.79
287.309	1.78
287.767	1.78
288.224	1.77
288.682	1.77
289.139	1.76
289.596	1.75
290.053	1.73
290.511	1.72
290.968	1.71
291.425	1.69
291.882	1.69
292.339	1.68
292.796	1.67
293.252	1.66
293.709	1.66
294.166	1.66
294.623	1.65
295.079	1.65
295.536	1.64
295.992	1.64
296.449	1.63
296.905	1.63
297.362	1.63
297.818	1.63
298.274	1.62
298.731	1.62
299.187	1.61
299.643	1.61
300.099	1.6
300.555	1.6
301.011	1.6
301.467	1.6
301.923	1.59
302.379	1.59
302.835	1.59
303.291	1.59
303.746	1.59
304.202	1.6
304.658	1.6
305.113	1.6
305.569	1.6
306.024	1.6
306.479	1.59
306.935	1.59
307.39	1.6
307.845	1.6
308.301	1.6
308.756	1.61
309.211	1.61
309.666	1.62
310.121	1.62
310.576	1.62
311.031	1.62
311.486	1.63
311.94	1.64
312.395	1.64
312.85	1.64
313.305	1.64
313.759	1.65
314.214	1.65
314.668	1.64
315.123	1.64
315.577	1.64
316.032	1.64
316.486	1.64
316.94	1.63
317.394	1.63
317.849	1.62
318.303	1.61
318.757	1.6
319.211	1.59
319.665	1.58
320.119	1.57
320.572	1.56
321.026	1.55
321.48	1.55
321.934	1.54
322.387	1.54
322.841	1.54
323.295	1.53
323.748	1.54
324.202	1.53
324.655	1.54
325.108	1.55
325.562	1.56
326.015	1.56
326.468	1.57
326.921	1.57
327.374	1.57
327.827	1.57
328.28	1.58
328.733	1.59
329.186	1.59
329.639	1.59
330.092	1.59
330.545	1.59
330.997	1.58
331.45	1.59
331.903	1.6
332.355	1.61
332.808	1.61
333.26	1.61
333.713	1.6
334.165	1.6
334.617	1.61
335.069	1.61
335.522	1.62
335.974	1.63
336.426	1.63
336.878	1.63
337.33	1.63
337.782	1.62
338.234	1.63
338.686	1.63
339.137	1.65
339.589	1.64
340.041	1.64
340.493	1.63
340.944	1.62
341.396	1.62
341.847	1.61
342.299	1.6
342.75	1.6
343.201	1.58
343.653	1.58
344.104	1.56
344.555	1.56
345.006	1.55
345.457	1.55
345.908	1.54
346.359	1.54
346.81	1.53
347.261	1.54
347.712	1.54
348.163	1.53
348.613	1.54
349.064	1.54
349.515	1.54
349.965	1.54
350.416	1.53
350.866	1.53
351.317	1.53
351.767	1.53
352.217	1.53
352.668	1.53
353.118	1.53
353.568	1.53
354.018	1.53
354.468	1.54
354.918	1.54
355.368	1.54
355.818	1.56
356.268	1.55
356.718	1.55
357.168	1.55
357.617	1.55
358.067	1.55
358.517	1.56
358.966	1.56
359.416	1.56
359.865	1.57
360.315	1.57
360.764	1.57
361.213	1.57
361.663	1.57
362.112	1.58
362.561	1.58
363.01	1.58
363.459	1.56
363.908	1.56
364.357	1.56
364.806	1.55
365.255	1.54
365.703	1.55
366.152	1.56
366.601	1.56
367.05	1.56
367.498	1.56
367.947	1.56
368.395	1.57
368.844	1.57
369.292	1.57
369.74	1.57
370.189	1.57
370.637	1.57
371.085	1.55
371.533	1.55
371.981	1.56
372.429	1.56
372.877	1.56
373.325	1.56
373.773	1.55
374.221	1.56
374.669	1.55
375.116	1.55
375.564	1.55
376.012	1.54
376.459	1.54
376.907	1.54
377.354	1.54
377.801	1.55
378.249	1.55
378.696	1.55
379.143	1.54
379.591	1.55
380.038	1.55
380.485	1.55
380.932	1.56
381.379	1.56
381.826	1.56
382.273	1.55
382.72	1.54
383.166	1.54
383.613	1.54
384.06	1.54
384.506	1.54
384.953	1.54
385.4	1.54
385.846	1.54
386.292	1.54
386.739	1.54
387.185	1.54
387.631	1.55
388.078	1.54
388.524	1.55
388.97	1.54
389.416	1.55
389.862	1.55
390.308	1.56
390.754	1.57
391.2	1.58
391.645	1.59
392.091	1.6
392.537	1.6
392.983	1.6
393.428	1.61
393.874	1.62
394.319	1.64
394.765	1.65
395.21	1.65
395.655	1.66
396.101	1.66
396.546	1.66
396.991	1.67
397.436	1.69
397.881	1.71
398.326	1.71
398.771	1.73
399.216	1.73
399.661	1.75
400.106	1.76
400.551	1.77
400.995	1.78
401.44	1.8
401.885	1.8
402.329	1.81
402.774	1.82
403.218	1.86
403.663	1.87
404.107	1.89
404.551	1.9
404.995	1.9
405.44	1.9
405.884	1.92
406.328	1.94
406.772	1.95
407.216	1.96
407.66	1.97
408.104	1.96
408.547	1.97
408.991	1.98
409.435	1.99
409.879	2.01
410.322	2.04
410.766	2.06
411.209	2.08
411.653	2.1
412.096	2.12
412.54	2.14
412.983	2.16
413.426	2.2
413.869	2.22
414.312	2.24
414.756	2.26
415.199	2.26
415.642	2.27
416.085	2.29
416.527	2.29
416.97	2.29
417.413	2.29
417.856	2.3
418.298	2.28
418.741	2.29
419.184	2.28
419.626	2.28
420.069	2.3
420.511	2.3
420.953	2.3
421.396	2.31
421.838	2.32
422.28	2.34
422.722	2.35
423.164	2.37
423.606	2.37
424.048	2.39
424.49	2.41
424.932	2.41
425.374	2.4
425.816	2.38
426.258	2.37
426.699	2.37
427.141	2.36
427.582	2.37
428.024	2.38
428.465	2.39
428.907	2.38
429.348	2.37
429.789	2.37
430.231	2.4
430.672	2.44
431.113	2.46
431.554	2.47
431.995	2.49
432.436	2.5
432.877	2.52
433.318	2.53
433.759	2.55
434.2	2.59
434.64	2.61
435.081	2.63
435.522	2.64
435.962	2.66
436.403	2.68
436.843	2.69
437.284	2.69
437.724	2.69
438.164	2.7
438.604	2.7
439.045	2.69
439.485	2.7
439.925	2.69
440.365	2.7
440.805	2.7
441.245	2.71
441.685	2.72
442.125	2.74
442.564	2.74
443.004	2.74
443.444	2.75
443.883	2.76
444.323	2.74
444.762	2.74
445.202	2.74
445.641	2.75
446.081	2.76
446.52	2.76
446.959	2.77
447.398	2.79
447.837	2.79
448.276	2.8
448.716	2.8
449.154	2.82
449.593	2.84
450.032	2.85
450.471	2.84
450.91	2.83
451.349	2.85
451.787	2.84
452.226	2.83
452.664	2.84
453.103	2.83
453.541	2.84
453.98	2.84
454.418	2.83
454.856	2.83
455.295	2.82
455.733	2.8
456.171	2.79
456.609	2.78
457.047	2.78
457.485	2.77
457.923	2.77
458.361	2.78
458.798	2.78
459.236	2.78
459.674	2.77
460.111	2.77
460.549	2.79
460.987	2.8
461.424	2.81
461.862	2.83
462.299	2.83
462.736	2.84
463.173	2.83
463.611	2.84
464.048	2.86
464.485	2.87
464.922	2.87
465.359	2.88
465.796	2.9
466.233	2.91
466.67	2.92
467.106	2.93
467.543	2.92
467.98	2.92
468.416	2.91
468.853	2.91
469.29	2.91
469.726	2.91
470.162	2.91
470.599	2.89
471.035	2.88
471.471	2.87
471.907	2.87
472.344	2.87
472.78	2.88
473.216	2.88
473.652	2.88
474.088	2.86
474.523	2.85
474.959	2.85
475.395	2.84
475.831	2.83
476.266	2.84
476.702	2.82
477.138	2.82
477.573	2.82
478.008	2.82
478.444	2.8
478.879	2.81
479.314	2.81
479.75	2.81
480.185	2.8
480.62	2.8
481.055	2.78
481.49	2.78
481.925	2.78
482.36	2.79
482.795	2.78
483.229	2.78
483.664	2.78
484.099	2.77
484.534	2.77
484.968	2.77
485.403	2.77
485.837	2.78
486.271	2.79
486.706	2.8
487.14	2.79
487.574	2.8
488.009	2.82
488.443	2.82
488.877	2.84
489.311	2.85
489.745	2.87
490.179	2.9
490.613	2.93
491.046	2.94
491.48	2.95
491.914	2.98
492.348	3.01
492.781	3.03
493.215	3.07
493.648	3.1
494.082	3.13
494.515	3.16
494.948	3.18
495.382	3.2
495.815	3.24
496.248	3.28
496.681	3.32
497.114	3.36
497.547	3.39
497.98	3.43
498.413	3.45
498.846	3.5
499.279	3.54
499.711	3.59
500.144	3.64
500.577	3.69
501.009	3.74
501.442	3.79
501.874	3.84
502.306	3.9
502.739	3.97
503.171	4.03
503.603	4.09
504.036	4.16
504.468	4.22
504.9	4.27
505.332	4.33
505.764	4.39
506.196	4.46
506.627	4.53
507.059	4.61
507.491	4.66
507.923	4.72
508.354	4.8
508.786	4.88
509.217	4.96
509.649	5.05
510.08	5.12
510.512	5.19
510.943	5.27
511.374	5.34
511.805	5.41
512.237	5.49
512.668	5.57
513.099	5.65
513.53	5.72
513.961	5.79
514.391	5.87
514.822	5.96
515.253	6.04
515.684	6.11
516.114	6.2
516.545	6.27
516.975	6.34
517.406	6.41
517.836	6.47
518.267	6.55
518.697	6.6
519.127	6.65
519.558	6.7
519.988	6.76
520.418	6.8
520.848	6.85
521.278	6.9
521.708	7.13
522.138	7.18
522.567	7.22
522.997	7.25
523.427	7.3
523.857	7.35
524.286	7.38
524.716	7.41
525.145	7.45
525.575	7.49
526.004	7.54
526.433	7.39
526.863	7.42
527.292	7.46
527.721	7.49
528.15	7.52
528.579	7.54
529.008	7.56
529.437	7.59
529.866	7.6
530.295	7.62
530.724	7.63
531.152	7.64
531.581	7.65
532.01	7.66
532.438	7.69
532.867	7.7
533.295	7.7
533.723	7.71
534.152	7.72
534.58	7.74
535.008	7.74
535.436	7.75
535.865	7.76
536.293	7.76
536.721	7.75
537.149	7.75
537.576	7.77
538.004	7.79
538.432	7.79
538.86	7.8
539.287	7.8
539.715	7.8
540.143	7.81
540.57	7.81
540.998	7.82
541.425	7.84
541.852	7.85
542.28	7.85
542.707	7.85
543.134	7.85
543.561	7.86
543.988	7.87
544.415	7.87
544.842	7.87
545.269	7.89
545.696	7.9
546.123	7.9
546.549	7.91
546.976	7.93
547.403	7.94
547.829	7.96
548.256	7.97
548.682	7.98
549.108	8.01
549.535	8.02
549.961	8.04
550.387	8.05
550.813	8.06
551.24	8.07
551.666	8.07
552.092	8.09
552.518	8.11
552.943	8.11
553.369	8.13
553.795	8.13
554.221	8.14
554.646	8.14
555.072	8.16
555.498	8.16
555.923	8.17
556.349	8.18
556.774	8.18
557.199	8.19
557.625	8.22
558.05	8.23
558.475	8.23
558.9	8.24
559.325	8.25
559.75	8.26
560.175	8.27
560.6	8.27
561.025	8.27
561.449	8.29
561.874	8.3
562.299	8.3
562.723	8.3
563.148	8.28
563.572	8.28
563.997	8.28
564.421	8.27
564.846	8.27
565.27	8.27
565.694	8.28
566.118	8.26
566.542	8.25
566.966	8.23
567.39	8.22
567.814	8.23
568.238	8.23
568.662	8.23
569.086	8.23
569.509	8.23
569.933	8.24
570.357	8.25
570.78	8.25
571.204	8.26
571.627	8.27
572.05	8.27
572.474	8.28
572.897	8.28
573.32	8.29
573.743	8.29
574.166	8.3
574.589	8.29
575.012	8.28
575.435	8.29
575.858	8.29
576.281	8.3
576.704	8.31
577.126	8.32
577.549	8.32
577.972	8.33
578.394	8.33
578.817	8.35
579.239	8.36
579.661	8.39
580.084	8.4
580.506	8.41
580.928	8.42
581.35	8.44
581.772	8.46
582.194	8.48
582.616	8.5
583.038	8.52
583.46	8.52
583.882	8.55
584.303	8.56
584.725	8.57
585.147	8.59
585.568	8.61
585.99	8.62
586.411	8.64
586.833	8.66
587.254	8.67
587.675	8.69
588.096	8.71
588.518	8.72
588.939	8.74
589.36	8.77
589.781	8.78
590.202	8.81
590.623	8.83
591.043	8.86
591.464	8.89
591.885	8.92
592.305	8.95
592.726	8.99
593.147	9.02
593.567	9.06
593.987	9.09
594.408	9.13
594.828	9.16
595.248	9.2
595.669	9.23
596.089	9.27
596.509	9.29
596.929	9.34
597.349	9.37
597.769	9.4
598.189	9.44
598.608	9.48
599.028	9.53
599.448	9.57
599.867	9.6
600.287	9.64
600.706	9.69
601.126	9.74
601.545	9.78
601.965	9.82
602.384	9.88
602.803	9.93
603.222	9.97
603.641	10.01
604.061	10.06
604.48	10.1
604.898	10.13
605.317	10.18
605.736	10.22
606.155	10.27
606.574	10.3
606.992	10.33
607.411	10.37
607.829	10.37
608.248	10.41
608.666	10.44
609.085	10.48
609.503	10.52
609.921	10.56
610.339	10.59
610.758	10.62
611.176	10.64
611.594	10.68
612.012	10.7
612.43	10.77
612.847	10.8
613.265	10.83
613.683	10.86
614.101	10.89
614.518	10.91
614.936	10.94
615.353	10.96
615.771	11
616.188	11.03
616.606	11.06
617.023	11.09
617.44	11.13
617.857	11.15
618.274	11.19
618.691	11.21
619.108	11.23
619.525	11.26
619.942	11.31
620.359	11.35
620.776	11.39
621.192	11.43
621.609	11.48
622.026	11.52
622.442	11.56
622.859	11.6
623.275	11.65
623.691	11.72
624.108	11.76
624.524	11.81
624.94	11.87
625.356	11.92
625.772	11.97
626.188	12.02
626.604	12.07
627.02	12.13
627.436	12.2
627.852	12.26
628.268	12.29
628.683	12.34
629.099	12.38
629.514	12.42
629.93	12.45
630.345	12.49
630.761	12.5
631.176	12.52
631.591	12.53
632.007	12.53
632.422	12.53
632.837	12.52
633.252	12.49
633.667	12.46
634.082	12.42
634.497	12.37
634.911	12.32
635.326	12.26
635.741	12.18
636.155	12.1
636.57	12.01
636.984	11.92
637.399	11.82
637.813	11.72
638.228	11.61
638.642	11.48
639.056	11.36
639.47	11.24
639.884	11.12
640.298	10.98
640.712	10.84
641.126	10.7
641.54	10.55
641.954	10.4
642.368	10.27
642.781	10.14
643.195	10
643.609	9.87
644.022	9.73
644.436	9.6
644.849	9.48
645.262	9.36
645.676	9.26
646.089	9.16
646.502	9.06
646.915	8.97
647.328	8.89
647.741	8.82
648.154	8.74
648.567	8.7
648.98	8.64
649.393	8.6
649.805	8.56
650.218	8.52
650.631	8.48
651.043	8.45
651.456	8.42
651.868	8.38
652.28	8.34
652.693	8.32
653.105	8.28
653.517	8.24
653.929	8.2
654.341	8.16
654.753	8.1
655.165	8.07
655.577	8.01
655.989	7.95
656.401	7.87
656.813	7.81
657.224	7.72
657.636	7.63
658.047	7.55
658.459	7.45
658.87	7.36
659.282	7.25
659.693	7.14
660.104	7.03
660.515	6.92
660.926	6.81
661.338	6.7
661.749	6.59
662.159	6.48
662.57	6.38
662.981	6.26
663.392	6.16
663.803	6.07
664.213	5.98
664.624	5.88
665.035	5.78
665.445	5.71
665.855	5.62
666.266	5.55
666.676	5.47
667.086	5.39
667.497	5.33
667.907	5.27
668.317	5.2
668.727	5.15
669.137	5.11
669.547	5.07
669.956	5.03
670.366	5
670.776	4.96
671.186	4.94
671.595	4.93
672.005	4.9
672.414	4.89
672.824	4.89
673.233	4.89
673.642	4.89
674.052	4.89
674.461	4.89
674.87	4.9
675.279	4.93
675.688	4.95
676.097	4.97
676.506	5
676.915	5.03
677.323	5.07
677.732	5.11
678.141	5.18
678.549	5.24
678.958	5.32
679.366	5.43
679.775	5.53
680.183	5.66
680.592	5.83
681	6
681.408	6.19
681.816	6.4
682.224	6.64
682.632	6.91
683.04	7.2
683.448	7.52
683.856	7.86
684.264	8.24
684.671	8.66
685.079	9.11
685.487	9.6
685.894	10.13
686.302	10.69
686.709	11.27
687.116	11.89
687.524	12.55
687.931	13.22
688.338	13.9
688.745	14.6
689.152	15.32
689.559	16.05
689.966	16.78
690.373	17.53
690.78	18.27
691.187	19.02
691.593	19.76
692	20.49
692.407	21.21
692.813	21.95
693.22	22.67
693.626	23.38
694.032	24.08
694.439	24.78
694.845	25.45
695.251	26.12
695.657	26.75
696.063	27.38
696.469	27.99
696.875	28.61
697.281	29.17
697.687	29.73
698.093	30.26
698.498	30.78
698.904	31.29
699.31	31.76
699.715	32.22
700.12	32.7
700.526	33.12
700.931	33.55
701.337	33.95
701.742	34.35
702.147	34.73
702.552	35.11
702.957	35.45
703.362	35.78
703.767	36.1
704.172	36.42
704.577	36.72
704.981	37.04
705.386	37.31
705.791	37.59
706.195	37.87
706.6	38.16
707.004	38.39
707.408	38.64
707.813	38.89
708.217	39.14
708.621	39.4
709.025	39.59
709.43	39.8
709.834	40.03
710.237	40.25
710.641	40.44
711.045	40.64
711.449	40.85
711.853	41.07
712.256	41.25
712.66	41.43
713.064	41.58
713.467	41.78
713.87	41.96
714.274	42.12
714.677	42.29
715.08	42.45
715.484	42.61
715.887	42.77
716.29	42.91
716.693	43.06
717.096	43.21
717.499	43.37
717.901	43.5
718.304	43.61
718.707	43.73
719.109	43.85
719.512	43.97
719.915	44.1
720.317	44.18
720.719	44.25
721.122	44.35
721.524	44.44
721.926	44.55
722.328	44.64
722.731	44.74
723.133	44.86
723.535	44.96
723.937	45.02
724.338	45.08
724.74	45.18
725.142	45.41
725.544	45.48
725.945	45.6
726.347	45.65
726.748	45.72
727.15	45.77
727.551	45.83
727.952	45.87
728.354	45.96
728.755	46.01
729.156	46.04
729.557	45.97
729.958	46.03
730.359	46.04
730.76	46.11
731.161	46.13
731.562	46.2
731.962	46.21
732.363	46.25
732.763	46.31
733.164	46.33
733.564	46.38
733.965	46.42
734.365	46.46
734.766	46.51
735.166	46.54
735.566	46.58
735.966	46.63
736.366	46.68
736.766	46.69
737.166	46.71
737.566	46.74
737.966	46.78
738.365	46.82
738.765	46.85
739.165	46.86
739.564	46.87
739.964	46.87
740.363	46.88
740.763	46.91
741.162	46.94
741.561	46.92
741.96	46.91
742.36	46.91
742.759	46.9
743.158	46.91
743.557	46.91
743.955	46.93
744.354	46.96
744.753	46.96
745.152	46.99
745.55	47
745.949	47.05
746.348	47.11
746.746	47.13
747.144	47.16
747.543	47.16
747.941	47.18
748.339	47.2
748.737	47.22
749.136	47.23
749.534	47.23
749.932	47.26
750.33	47.25
750.727	47.25
751.125	47.28
751.523	47.29
751.921	47.3
752.318	47.29
752.716	47.31
753.113	47.32
753.511	47.35
753.908	47.39
754.305	47.4
754.703	47.41
755.1	47.41
755.497	47.38
755.894	47.38
756.291	47.39
756.688	47.39
757.085	47.39
757.482	47.4
757.878	47.39
758.275	47.34
758.672	47.32
759.068	47.35
759.465	47.34
759.861	47.36
760.258	47.37
760.654	47.37
761.05	47.39
761.447	47.4
761.843	47.4
762.239	47.4
762.635	47.42
763.031	47.43
763.427	47.4
763.822	47.41
764.218	47.43
764.614	47.42
765.01	47.44
765.405	47.42
765.801	47.4
766.196	47.41
766.592	47.37
766.987	47.39
767.382	47.38
767.778	47.38
768.173	47.38
768.568	47.36
768.963	47.35
769.358	47.36
769.753	47.36
770.148	47.34
770.542	47.31
770.937	47.35
771.332	47.34
771.726	47.34
772.121	47.36
772.515	47.39
772.91	47.37
773.304	47.39
773.699	47.39
774.093	47.37
774.487	47.4
774.881	47.46
775.275	47.44
775.669	47.43
776.063	47.42
776.457	47.4
776.851	47.35
777.245	47.32
777.638	47.32
778.032	47.32
778.425	47.35
778.819	47.32
779.212	47.27
779.606	47.28
779.999	47.27
780.392	47.3
780.786	47.31
781.179	47.37
781.572	47.41
781.965	47.41
782.358	47.39
782.751	47.38
783.143	47.41
783.536	47.4
783.929	47.4
784.322	47.42
784.714	47.39
785.107	47.38
785.499	47.36
785.891	47.38
786.284	47.39
786.676	47.39
787.068	47.38
787.46	47.38
787.852	47.43
788.245	47.43
788.636	47.38
789.028	47.38
789.42	47.37
789.812	47.37
790.204	47.35
790.595	47.34
790.987	47.34
791.378	47.35
791.77	47.34
792.161	47.32
792.553	47.32
792.944	47.35
793.335	47.37
793.726	47.39
794.117	47.39
794.508	47.35
794.899	47.34
795.29	47.33
795.681	47.31
796.072	47.32
796.463	47.33
796.853	47.3
797.244	47.28
797.634	47.26
798.025	47.26
798.415	47.25
798.806	47.27
799.196	47.29
799.586	47.32
799.976	47.3
800.366	47.28
800.756	47.27
801.146	47.29
801.536	47.31
801.926	47.29
802.316	47.27
802.706	47.29
803.095	47.28
803.485	47.25
803.874	47.24
804.264	47.25
804.653	47.23
805.043	47.23
805.432	47.23
805.821	47.23
806.21	47.26
806.599	47.25
806.988	47.22
807.377	47.2
807.766	47.2
808.155	47.18
808.544	47.17
808.933	47.16
809.321	47.12
809.71	47.11
810.098	47.09
810.487	47.05
810.875	47.03
811.264	47.02
811.652	47.05
812.04	47.04
812.428	47.04
812.816	47.03
813.204	47
813.592	46.99
813.98	47
814.368	46.97
814.756	46.97
815.144	46.97
815.531	46.97
815.919	46.91
816.306	46.91
816.694	46.87
817.081	46.87
817.469	46.87
817.856	46.87
818.243	46.81
818.63	46.8
819.017	46.78
819.404	46.75
819.791	46.73
820.178	46.74
820.565	46.69
820.952	46.7
821.339	46.7
821.725	46.69
822.112	46.7
822.498	46.73
822.885	46.74
823.271	46.74
823.657	46.72
824.044	46.72
824.43	46.74
824.816	46.77
825.202	46.75
825.588	46.73
825.974	46.74
826.36	46.72
826.746	46.7
827.132	46.7
827.517	46.7
827.903	46.73
828.289	46.77
828.674	46.76
829.06	46.74
829.445	46.73
829.83	46.72
830.216	46.69
830.601	46.68
830.986	46.67
831.371	46.67
831.756	46.67
832.141	46.66
832.526	46.61
832.911	46.58
833.295	46.58
833.68	46.59
834.065	46.6
834.449	46.61
834.834	46.62
835.218	46.63
835.603	46.63
835.987	46.61
836.371	46.57
836.755	46.58
837.139	46.58
837.524	46.59
837.908	46.59
838.291	46.59
838.675	46.59
839.059	46.58
839.443	46.56
839.827	46.56
840.21	46.55
840.594	46.57
840.977	46.56
841.361	46.55
841.744	46.51
842.127	46.47
842.511	46.44
842.894	46.43
843.277	46.43
843.66	46.39
844.043	46.36
844.426	46.35
844.809	46.35
845.191	46.35
845.574	46.36
845.957	46.37
846.339	46.39
846.722	46.38
847.104	46.39
847.487	46.36
847.869	46.37
848.252	46.38
848.634	46.37
849.016	46.37
849.398	46.36
849.78	46.34
850.162	46.33
850.544	46.32
850.926	46.31
851.307	46.3
851.689	46.31
852.071	46.33
852.452	46.34
852.834	46.35
853.215	46.34
853.597	46.34
853.978	46.35
854.359	46.35
854.741	46.33
855.122	46.33
855.503	46.29
855.884	46.26
856.265	46.24
856.646	46.21
857.026	46.22
857.407	46.2
857.788	46.18
858.169	46.17
858.549	46.15
858.93	46.17
859.31	46.17
859.69	46.18
860.071	46.2
860.451	46.2
860.831	46.2
861.211	46.15
861.591	46.16
861.971	46.14
862.351	46.14
862.731	46.15
863.111	46.13
863.491	46.14
863.87	46.14
864.25	46.12
864.629	46.14
865.009	46.15
865.388	46.16
865.768	46.14
866.147	46.13
866.526	46.12
866.905	46.09
867.284	46.11
867.663	46.08
868.042	46.09
868.421	46.12
868.8	46.1
869.179	46.08
869.558	46.08
869.936	46.07
870.315	46.08
870.693	46.09
871.072	46.1
871.45	46.09
871.828	46.12
872.207	46.11
872.585	46.08
872.963	46.09
873.341	46.08
873.719	46.09
874.097	46.09
874.475	46.11
874.853	46.09
875.23	46.1
875.608	46.11
875.986	46.1
876.363	46.1
876.741	46.08
877.118	46.09
877.495	46.11
877.873	46.11
878.25	46.12
878.627	46.12
879.004	46.12
879.381	46.11
879.758	46.09
880.135	46.09
880.512	46.08
880.889	46.11
881.265	46.07
881.642	46.03
882.019	46.04
882.395	46.06
882.772	46.04
883.148	46.04
883.524	46.03
883.901	46.05
884.277	46.02
884.653	46.03
885.029	46.02
885.405	46.04
885.781	46.05
886.157	46.04
886.532	46.03
886.908	46.01
887.284	45.99
887.659	45.98
888.035	45.96
888.411	45.95
888.786	45.93
889.161	45.93
889.537	45.92
889.912	45.9
890.287	45.88
890.662	45.87
891.037	45.87
891.412	45.86
891.787	45.84
892.162	45.83
892.536	45.82
892.911	45.81
893.286	45.79
893.66	45.78
894.035	45.76
894.409	45.76
894.784	45.73
895.158	45.72
895.532	45.74
895.906	45.76
896.281	45.76
896.655	45.77
897.029	45.79
897.402	45.79
897.776	45.78
898.15	45.79
898.524	45.79
898.898	45.8
899.271	45.82
899.645	45.81
900.018	45.79
900.392	45.82
900.765	45.82
901.138	45.79
901.511	45.79
901.884	45.8
902.258	45.81
902.631	45.81
903.003	45.82
903.376	45.79
903.749	45.8
904.122	45.82
904.495	45.81
904.867	45.83
905.24	45.87
905.612	45.89
905.985	45.88
906.357	45.87
906.729	45.88
907.102	45.9
907.474	45.93
907.846	45.92
908.218	45.9
908.59	45.91
908.962	45.9
909.334	45.89
909.705	45.88
910.077	45.9
910.449	45.92
910.82	45.92
911.192	45.92
911.563	45.92
911.935	45.92
912.306	45.94
912.677	45.94
913.048	45.99
913.419	45.98
913.79	45.99
914.161	46.01
914.532	46
914.903	46
915.274	46
915.645	46.02
916.015	46
916.386	45.97
916.756	45.97
917.127	45.95
917.497	45.95
917.868	45.97
918.238	45.97
918.608	45.98
918.978	45.98
919.348	45.96
919.718	45.96
920.088	46
920.458	46
920.828	45.99
921.198	45.96
921.567	45.99
921.937	45.98
922.306	45.93
922.676	45.91
923.045	45.88
923.415	45.87
923.784	45.86
924.153	45.82
924.522	45.84
924.891	45.85
925.26	45.85
925.629	45.81
925.998	45.77
926.367	45.8
926.736	45.79
927.104	45.78
927.473	45.78
927.842	45.77
928.21	45.79
928.578	45.77
928.947	45.75
929.315	45.75
929.683	45.73
930.051	45.74
930.42	45.71
930.788	45.7
931.156	45.72
931.523	45.72
931.891	45.73
932.259	45.72
932.627	45.73
932.994	45.72
933.362	45.7
933.729	45.72
934.097	45.7
934.464	45.75
934.831	45.76
935.199	45.77
935.566	45.78
935.933	45.71
936.3	45.7
936.667	45.69
937.034	45.73
937.401	45.77
937.767	45.78
938.134	45.74
938.501	45.64
938.867	45.63
939.234	45.57
939.6	45.47
939.967	45.47
940.333	45.39
940.699	45.36
941.065	45.19
941.431	45.08
941.798	44.96
942.163	44.89
942.529	44.87
942.895	44.81
943.261	44.8
943.627	44.81
943.992	44.77
944.358	44.74
944.723	44.66
945.089	44.67
945.454	44.67
945.82	44.7
946.185	44.75
946.55	44.72
946.915	44.68
947.28	44.64
947.645	44.65
948.01	44.7
948.375	44.68
948.74	44.72
949.104	44.76
949.469	44.73
949.834	44.72
950.198	44.65
950.562	44.67
950.927	44.68
951.291	44.64
951.655	44.59
952.02	44.56
952.384	44.51
952.748	44.49
953.112	44.45
953.476	44.43
953.839	44.37
954.203	44.39
954.567	44.38
954.931	44.38
955.294	44.37
955.658	44.44
956.021	44.42
956.385	44.47
956.748	44.5
957.111	44.49
957.474	44.52
957.837	44.54
958.2	44.59
958.563	44.6
958.926	44.63
959.289	44.66
959.652	44.6
960.015	44.63
960.377	44.63
960.74	44.64
961.102	44.66
961.465	44.69
961.827	44.78
962.189	44.81
962.552	44.77
962.914	44.81
963.276	44.86
963.638	44.94
964	44.99
964.362	45.05
964.724	45.04
965.085	45.07
965.447	45.08
965.809	45
966.17	44.99
966.532	45.08
966.893	45.04
967.255	44.99
967.616	44.97
967.977	44.96
968.338	44.93
968.699	44.96
969.061	44.95
969.421	44.96
969.782	45
970.143	45.03
970.504	44.99
970.865	45.08
971.225	45.12
971.586	45.06
971.946	45.01
972.307	44.96
972.667	44.94
973.027	45.01
973.388	45.02
973.748	45.11
974.108	45.13
974.468	45.09
974.828	45.12
975.188	45.11
975.548	45.18
975.907	45.22
976.267	45.31
976.627	45.31
976.986	45.29
977.346	45.27
977.705	45.19
978.064	45.17
978.424	45.24
978.783	45.15
979.142	45.19
979.501	45.22
979.86	45.27
980.219	45.25
980.578	45.27
980.937	45.32
981.296	45.34
981.654	45.4
982.013	45.42
982.371	45.41
982.73	45.47
983.088	45.45
983.447	45.38
983.805	45.33
984.163	45.35
984.521	45.3
984.879	45.23
985.237	45.22
985.595	45.24
985.953	45.21
986.311	45.17
986.669	45.16
987.026	45.18
987.384	45.23
987.741	45.15
988.099	45.27
988.456	45.24
988.814	45.26
989.171	45.3
989.528	45.26
989.885	45.31
990.242	45.41
990.599	45.48
990.956	45.51
991.313	45.54
991.67	45.59
992.027	45.62
992.383	45.77
992.74	45.82
993.096	45.8
993.453	45.85
993.809	45.8
994.165	45.8
994.522	45.83
994.878	45.84
995.234	45.83
995.59	45.92
995.946	45.76
996.302	45.68
996.658	45.83
997.013	45.82
997.369	45.8
997.725	45.92
998.08	46.02
998.436	45.94
998.791	45.98
999.147	46
999.502	46.01
999.857	46.09
1000.212	46.17
1000.567	46.09
1000.922	46.01
1001.277	46.12
1001.632	46.06
1001.987	46.01
1002.342	45.93
1002.696	45.86
1003.051	45.92
1003.406	46.04
1003.76	45.97
1004.114	45.97
1004.469	45.86
1004.823	46.23
1005.177	46.21
1005.531	46.24
1005.885	46.17
1006.239	46.24
1006.593	46.35
1006.947	46.38
1007.301	46.21
1007.655	46.32
1008.008	46.37
1008.362	46.56
1008.715	46.34
1009.069	46.36
1009.422	46.39
1009.776	46.35
1010.129	46.4
1010.482	46.29
1010.835	46.35
1011.188	46.48
1011.541	46.56
1011.894	46.53
1012.247	46.41
1012.6	46.39
1012.952	46.19
1013.305	46.16
1013.657	46.46
1014.01	46.52
1014.362	46.45
1014.715	46.47
1015.067	46.59
1015.419	46.54
1015.771	46.53
1016.123	46.59
1016.475	46.74
1016.827	46.84
1017.179	47
1017.531	46.91
1017.883	46.94
1018.234	47.3
1018.586	47.3
1018.938	47.32
1019.289	47.37
1019.64	47.45
1019.992	47.43
1020.343	47.25
1020.694	47.3
1021.045	47.03
1021.396	46.83
1021.747	46.73
1022.098	46.65
1022.449	46.31
1022.8	46.23
1023.151	46.1
1023.501	46.05
1023.852	46.09
1024.202	46.04
1024.553	46
1024.903	46.22
1025.253	46.32
1025.604	46.4
1025.954	46.18
1026.304	46.57
1026.654	46.65
1027.004	46.69
1027.354	46.48
1027.703	46.4
1028.053	46.44
1028.403	46.36
1028.753	46.03
1029.102	46.25
1029.452	46.29
1029.801	46.58
1030.15	46.38
1030.499	46.05
897.758	1236.58
901.051	1250.62
904.343	1244.61
907.636	1269.69
910.928	1237.48
914.22	1237.75
917.511	1222.21
920.803	1169.05
924.094	1161.34
927.384	1135.64
930.675	1092.22
933.965	1087.57
937.255	1023.16
940.544	983.75
943.834	938.11
947.123	930.45
950.411	874.81
953.7	857.15
956.988	811.24
960.276	779.62
963.563	766.9
966.851	740.77
970.138	732.58
973.424	708.74
976.711	712.54
979.997	675.42
983.283	671.23
986.568	657.47
989.853	637.67
993.138	626.4
996.423	601.57
999.708	583.92
1002.992	577.15
1006.275	550.88
1009.559	546.38
1012.842	525.58
1016.125	513.23
1019.408	503.8
1022.69	497.02
1025.972	486.41
1029.254	474.91
1032.536	468.24
1035.817	458.12
1039.098	452.61
1042.379	445.25
1045.659	439.91
1048.939	429.94
1052.219	419.24
1055.498	413.87
1058.778	403.76
1062.057	395.18
1065.335	391.04
1068.614	385.72
1071.892	382.89
1075.17	370.15
1078.447	361.68
1081.724	358.84
1085.001	356.93
1088.278	349.72
1091.554	342.81
1094.83	342.33
1098.106	339.81
1101.382	337.3
1104.657	335.3
1107.932	329.14
1111.206	330.85
1114.481	324.56
1117.755	320.63
1121.029	317.13
1124.302	317.91
1127.575	311.17
1130.848	308.24
1134.121	304.24
1137.393	302.19
1140.665	295.05
1143.937	293.5
1147.208	291.06
1150.48	289.51
1153.75	286.54
1157.021	282.21
1160.291	281.38
1163.561	278.5
1166.831	278.55
1170.101	276.95
1173.37	275.18
1176.639	276.67
1179.907	274.15
1183.176	270.88
1186.444	270.92
1189.711	270.04
1192.979	269.5
1196.246	267.58
1199.513	268.76
1202.78	266.43
1206.046	266.61
1209.312	265.14
1212.578	264.63
1215.843	267.51
1219.108	266.36
1222.373	271.31
1225.638	273.73
1228.902	277.88
1232.166	277.36
1235.43	279.45
1238.693	283.52
1241.956	284.82
1245.219	289.1
1248.482	290.06
1251.744	288.51
1255.006	289.96
1258.268	282.48
1261.529	280.02
1264.79	277.47
1268.051	277.66
1271.312	273.31
1274.572	270.64
1277.832	267.29
1281.092	262.84
1284.351	260.56
1287.61	260.52
1290.869	256.55
1294.128	255.45
1297.386	255.43
1300.644	252.59
1303.902	252.92
1307.159	252.38
1310.416	252.41
1313.673	252.45
1316.93	254.98
1320.186	254.77
1323.442	255.21
1326.697	259.34
1329.953	259.81
1333.208	260.77
1336.463	263.93
1339.717	264.03
1342.972	267.14
1346.226	269.22
1349.479	269.88
1352.733	270.92
1355.986	273.46
1359.238	273.54
1362.491	275.48
1365.743	277.54
1368.995	277.4
1372.247	276.41
1375.498	276.16
1378.749	278.29
1382	273.9
1385.251	274.91
1388.501	273.35
1391.751	272.93
1395	271.76
1398.25	269.04
1401.499	267.52
1404.748	266.71
1407.996	265.45
1411.244	264.11
1414.492	262.63
1417.74	260.87
1420.987	256.66
1424.234	256.21
1427.481	253.15
1430.728	252.6
1433.974	250.12
1437.22	248.19
1440.465	247.5
1443.711	245.03
1446.956	243.27
1450.201	239.5
1453.445	237.56
1456.689	236.67
1459.933	232.81
1463.177	230.29
1466.42	226.48
1469.663	223.79
1472.906	222.2
1476.148	216.51
1479.391	214.21
1482.633	212.66
1485.874	209.21
1489.115	207.5
1492.356	205.08
1495.597	204.55
1498.838	201.75
1502.078	200.99
1505.318	200.09
1508.557	199.73
1511.797	199.83
1515.036	198.17
1518.274	197.15
1521.513	195.94
1524.751	195.62
1527.989	194.71
1531.227	193.66
1534.464	193.95
1537.701	192.42
1540.938	192
1544.174	189.82
1547.41	189.35
1550.646	188.42
1553.882	188.61
1557.117	186.4
1560.352	185.46
1563.587	185.03
1566.821	183.71
1570.055	182.53
1573.289	180.82
1576.523	180.69
1579.756	179.31
1582.989	177.96
1586.222	177.84
1589.454	176.67
1592.686	177.8
1595.918	177.04
1599.15	176.7
1602.381	177.02
1605.612	176.16
1608.843	177.44
1612.073	176.62
1615.303	177.69
1618.533	177.69
1621.762	177.45
1624.992	177.94
1628.221	177.58
1631.449	177.3
1634.678	176.91
1637.906	177.59
1641.134	177.51
1644.361	177.22
1647.588	177.86
1650.815	177.25
1654.042	176.47
1657.269	177.74
1660.495	177.6
1663.72	177.23
1666.946	177.8
1670.171	178.33
1673.396	177.85
1676.621	178.54
1679.845	178.48
1683.069	178.69
1686.293	179.87
1689.517	181.16
1692.74	180.83
1695.963	180.58
1699.185	182.3
1702.408	182.08
1705.63	183.04
1708.852	183.76
1712.073	183.95
1715.294	184.55
1718.515	185.5
1721.736	184.84
1724.956	184.99
1728.176	185.13
1731.396	186.91
1734.616	186.18
1737.835	187.51
1741.054	185.47
1744.272	186.53
1747.491	187.98
1750.709	188.06
1753.927	187.84
1757.144	187.56
1760.361	188.57
1763.578	188.95
1766.795	188.54
1770.011	189.77
1773.227	189.36
1776.443	191.99
1779.658	192.32
1782.874	191.37
1786.089	192.37
1789.303	192.85
1792.518	195.44
1795.732	195.42
1798.945	196.45
1802.159	197.09
1805.372	197.57
1808.585	201.27
1811.797	202.39
1815.01	201.97
1818.222	204.15
1821.434	205.16
1824.645	206.45
1827.856	209.47
1831.067	210.98
1834.278	211
1837.488	212.48
1840.698	214.07
1843.908	212.02
1847.117	212.69
1850.326	214.97
1853.535	213.77
1856.744	217.65
1859.952	216.66
1863.16	215.08
1866.368	214.05
1869.575	216.83
1872.782	213.68
1875.989	213.02
1879.196	212.47
1882.402	211.53
1885.608	211.69
1888.814	212.75
1892.019	212.4
1895.224	212.09
1898.429	211.47
1901.634	213.09
1904.838	213.07
1908.042	215.13
1911.246	216.58
1914.449	218.41
1917.652	217.51
1920.855	218.16
1924.058	217.47
1927.26	216.15
1930.462	217.31
1933.664	220.05
1936.865	218.17
1940.066	217.8
1943.267	216.75
1946.467	215.76
1949.668	217.17
1952.868	220.31
1956.067	219.61
1959.267	221.03
1962.466	221.65
1965.665	220.28
1968.863	220.66
1972.061	223.56
1975.259	225.61
1978.457	227.69
1981.654	229.12
1984.852	229.34
1988.048	229.15
1991.245	231.33
1994.441	234.16
1997.637	235.12
2000.833	240.63
2004.028	243.92
2007.223	244.77
2010.418	247.17
2013.613	252
2016.807	255.27
2020.001	257.65
2023.194	261.47
2026.388	266.77
2029.581	272.46
2032.774	275
2035.966	279.63
2039.158	280.14
2042.35	286.74
2045.542	287.93
2048.733	291.94
2051.924	295.69
2055.115	300.61
2058.306	301.17
2061.496	304.73
2064.686	304.28
2067.875	309.3
2071.065	310.67
2074.254	308.17
2077.442	311.03
2080.631	313.54
2083.819	316.26
2087.007	316.03
2090.195	318.98
2093.382	322.43
2096.569	320.21
2099.756	325
2102.942	326.83
2106.128	328.9
2109.314	336.81
2112.5	335.56
2115.685	342.66
2118.87	342.99
2122.055	350.36
2125.239	352.57
2128.424	356.33
2131.608	359.17
2134.791	363.75
2137.974	365.43
2141.157	366.95
2144.34	368.52
2147.523	373.79
2150.705	370.83
2153.887	375.77
2157.068	376.49
2160.25	374.43
2163.431	375.24
2166.611	379.74
2169.792	385.95
2172.972	390.44
2176.152	392.59
2179.331	397.65
2182.511	405.11
2185.69	409.02
2188.868	416.17
2192.047	418.41
2195.225	429.86
2198.403	440.43
2201.58	448.89
2204.758	455.7
2207.935	464.89
2211.111	476.03
2214.288	480.31
2217.464	480.67
2220.64	490.51
2223.815	497.93
2226.991	517.32
2230.166	517.06
2233.34	526.38
2236.515	535.37
2239.689	537.76
2242.863	541.03
2246.036	554.38
2249.209	552.73
2252.382	561.46
2255.555	578.46
2258.727	578.6
2261.9	583.3
2265.071	590.62
2268.243	600.28
2271.414	606.83
2274.585	622.39
2277.756	627.93
2280.926	633.12
2284.096	647.09
2287.266	663.14
2290.436	664.23
2293.605	681.98
2296.774	700.73
2299.942	721.61
2303.111	727.19
2306.279	742.5
2309.447	751.97
2312.614	771.47
2315.781	791.11
2318.948	827.04
2322.115	815.49
2325.281	863.76
2328.447	844.8
2331.613	879.78
2334.779	870.16
2337.944	907.6
2341.109	918.33
2344.274	944.39
2347.438	978.65
2350.602	978.84
2353.766	1009.42
2356.929	1024.83
2360.092	1015.85
2363.255	1087.98
2366.418	1084.61
2369.58	1105
2372.742	1177.13
2375.904	1206.22
2379.066	1198.33
2382.227	1175.83
2385.388	1278.65
2388.548	1278.59
2391.709	1294.12
2394.869	1441.94
2398.029	1379.32
2401.188	1417.71
2404.347	1412.49
2407.506	1386.27
2410.665	1426.84
2413.823	1509.71
2416.981	1598.56
2420.139	1547.62
2423.296	1531.78
2426.453	1598.17
2429.61	1534.94
2432.767	1608.64
2435.923	1593.69
2439.079	1739.27
2442.235	1759.12
2445.391	1739.78
2448.546	1726.44
2451.701	1676.49
2454.855	1668.93
2458.009	1773.64
2461.163	1851.01
2464.317	1917.84
2467.471	1965.14
2470.624	1968.15
2473.777	1923.45
2476.929	1871.75
2480.082	1818.11
2483.234	1802.61
2486.385	1894.09
2489.537	1901.89
2492.688	1972.34
2495.839	1913.06
2498.989	1873.28
2502.14	1888.21
2505.29	1902.39
2508.439	1933.42
2511.589	1932.78
2514.738	2108.96
2517.887	2060.53
2521.035	2177
2524.183	2202.11
2527.331	2214.2
2530.479	2205.83
2533.627	2224.98
