Data from C_3_DIV_WI_4N_Splice17_13-51-20-029.txt Node
Date: Sat Mar 07 13:51:20 EST 2020
User: sa697716
Spectrometer: NQ5500242
Trigger mode: 0
Integration Time (sec): 1.450000E-1
Scans to average: 20
Nonlinearity correction enabled: false
Boxcar width: 5
Storing dark spectrum: false
XAxis mode: Wavelengths
Number of Pixels in Spectrum: 512
>>>>>Begin Spectral Data<<<<<
187.83	224.61
188.298	246.49
188.766	221.72
189.233	179.34
189.701	190.85
190.169	212.2
190.636	235.83
191.104	422.95
191.571	222.12
192.039	-148.14
192.506	-360.08
192.974	64.74
193.441	174.38
193.908	84.18
194.375	73.32
194.842	-1.52
195.31	22.88
195.777	-23.65
196.244	50.74
196.711	42.2
197.177	43.43
197.644	42.88
198.111	42.73
198.578	42.5
199.045	42.87
199.511	42.66
199.978	42.86
200.445	42.95
200.911	43.18
201.378	43.02
201.844	42.76
202.31	42.36
202.777	42.19
203.243	41.97
203.709	41.8
204.176	41.14
204.642	40.88
205.108	41.03
205.574	40.45
206.04	39.72
206.506	39.43
206.972	39.32
207.438	38.98
207.903	38.76
208.369	38.18
208.835	37.45
209.301	36.98
209.766	35.83
210.232	34.73
210.697	33.99
211.163	33.32
211.628	32.64
212.094	31.64
212.559	31.12
213.024	30.31
213.49	29.68
213.955	29.02
214.42	28.43
214.885	27.91
215.35	26.92
215.815	25.71
216.28	23.99
216.745	22.05
217.21	20.29
217.675	18.42
218.14	17.01
218.604	15.67
219.069	14.53
219.534	13.61
219.998	12.79
220.463	12.15
220.927	11.58
221.392	11.17
221.856	10.8
222.32	10.47
222.785	10.22
223.249	9.96
223.713	9.73
224.177	9.56
224.642	9.36
225.106	9.19
225.57	9
226.034	8.88
226.497	8.7
226.961	8.56
227.425	8.42
227.889	8.29
228.353	8.16
228.816	8.03
229.28	7.92
229.744	7.8
230.207	7.67
230.671	7.56
231.134	7.44
231.597	7.37
232.061	7.28
232.524	7.2
232.987	7.11
233.45	7.03
233.914	6.95
234.377	6.87
234.84	6.79
235.303	6.74
235.766	6.68
236.229	6.61
236.691	6.54
237.154	6.48
237.617	6.43
238.08	6.37
238.542	6.31
239.005	6.27
239.468	6.2
239.93	6.15
240.393	6.1
240.855	6.03
241.317	5.97
241.78	5.9
242.242	5.83
242.704	5.78
243.166	5.73
243.629	5.69
244.091	5.63
244.553	5.57
245.015	5.53
245.477	5.47
245.939	5.42
246.4	5.37
246.862	5.32
247.324	5.29
247.786	5.24
248.247	5.18
248.709	5.12
249.17	5.07
249.632	5.04
250.093	5
250.555	4.96
251.016	4.93
251.477	4.88
251.939	4.85
252.4	4.81
252.861	4.78
253.322	4.75
253.783	4.72
254.244	4.69
254.705	4.66
255.166	4.62
255.627	4.59
256.088	4.57
256.549	4.55
257.009	4.51
257.47	4.47
257.931	4.43
258.391	4.41
258.852	4.37
259.312	4.33
259.773	4.3
260.233	4.27
260.694	4.24
261.154	4.2
261.614	4.17
262.074	4.13
262.534	4.11
262.994	4.09
263.455	4.06
263.915	4.04
264.374	4.01
264.834	3.99
265.294	3.97
265.754	3.95
266.214	3.94
266.673	3.91
267.133	3.9
267.593	3.88
268.052	3.86
268.512	3.85
268.971	3.84
269.431	3.82
269.89	3.81
270.349	3.8
270.809	3.78
271.268	3.76
271.727	3.75
272.186	3.74
272.645	3.74
273.104	3.72
273.563	3.71
274.022	3.7
274.481	3.68
274.94	3.68
275.399	3.66
275.857	3.66
276.316	3.64
276.775	3.64
277.233	3.63
277.692	3.62
278.15	3.62
278.609	3.61
279.067	3.61
279.525	3.61
279.984	3.6
280.442	3.59
280.9	3.59
281.358	3.59
281.816	3.58
282.274	3.57
282.732	3.56
283.19	3.55
283.648	3.53
284.106	3.52
284.564	3.51
285.021	3.51
285.479	3.5
285.937	3.48
286.394	3.47
286.852	3.46
287.309	3.45
287.767	3.44
288.224	3.43
288.682	3.41
289.139	3.41
289.596	3.39
290.053	3.36
290.511	3.34
290.968	3.33
291.425	3.31
291.882	3.3
292.339	3.29
292.796	3.27
293.252	3.25
293.709	3.24
294.166	3.23
294.623	3.22
295.079	3.2
295.536	3.2
295.992	3.19
296.449	3.19
296.905	3.18
297.362	3.17
297.818	3.16
298.274	3.16
298.731	3.15
299.187	3.14
299.643	3.13
300.099	3.13
300.555	3.12
301.011	3.11
301.467	3.1
301.923	3.09
302.379	3.08
302.835	3.08
303.291	3.07
303.746	3.07
304.202	3.07
304.658	3.06
305.113	3.06
305.569	3.06
306.024	3.05
306.479	3.05
306.935	3.04
307.39	3.04
307.845	3.04
308.301	3.04
308.756	3.05
309.211	3.04
309.666	3.04
310.121	3.04
310.576	3.04
311.031	3.04
311.486	3.04
311.94	3.04
312.395	3.05
312.85	3.04
313.305	3.03
313.759	3.03
314.214	3.02
314.668	3.01
315.123	3.01
315.577	3
316.032	3
316.486	3
316.94	2.99
317.394	2.98
317.849	2.97
318.303	2.96
318.757	2.94
319.211	2.94
319.665	2.92
320.119	2.92
320.572	2.91
321.026	2.89
321.48	2.88
321.934	2.86
322.387	2.85
322.841	2.85
323.295	2.85
323.748	2.85
324.202	2.85
324.655	2.85
325.108	2.85
325.562	2.85
326.015	2.86
326.468	2.85
326.921	2.85
327.374	2.86
327.827	2.87
328.28	2.87
328.733	2.86
329.186	2.86
329.639	2.86
330.092	2.85
330.545	2.85
330.997	2.84
331.45	2.85
331.903	2.85
332.355	2.86
332.808	2.85
333.26	2.84
333.713	2.85
334.165	2.85
334.617	2.84
335.069	2.84
335.522	2.85
335.974	2.86
336.426	2.85
336.878	2.85
337.33	2.85
337.782	2.85
338.234	2.86
338.686	2.86
339.137	2.86
339.589	2.86
340.041	2.85
340.493	2.84
340.944	2.82
341.396	2.83
341.847	2.82
342.299	2.81
342.75	2.81
343.201	2.79
343.653	2.78
344.104	2.76
344.555	2.75
345.006	2.74
345.457	2.75
345.908	2.75
346.359	2.75
346.81	2.74
347.261	2.73
347.712	2.72
348.163	2.71
348.613	2.72
349.064	2.72
349.515	2.72
349.965	2.72
350.416	2.71
350.866	2.71
351.317	2.7
351.767	2.7
352.217	2.7
352.668	2.7
353.118	2.71
353.568	2.7
354.018	2.7
354.468	2.71
354.918	2.71
355.368	2.73
355.818	2.73
356.268	2.73
356.718	2.74
357.168	2.74
357.617	2.73
358.067	2.72
358.517	2.73
358.966	2.74
359.416	2.75
359.865	2.75
360.315	2.74
360.764	2.75
361.213	2.75
361.663	2.74
362.112	2.76
362.561	2.76
363.01	2.77
363.459	2.77
363.908	2.77
364.357	2.77
364.806	2.77
365.255	2.77
365.703	2.79
366.152	2.8
366.601	2.81
367.05	2.81
367.498	2.81
367.947	2.83
368.395	2.85
368.844	2.86
369.292	2.87
369.74	2.88
370.189	2.89
370.637	2.9
371.085	2.91
371.533	2.93
371.981	2.94
372.429	2.96
372.877	2.97
373.325	2.98
373.773	2.99
374.221	3.01
374.669	3.02
375.116	3.03
375.564	3.04
376.012	3.06
376.459	3.07
376.907	3.1
377.354	3.11
377.801	3.13
378.249	3.15
378.696	3.17
379.143	3.19
379.591	3.21
380.038	3.25
380.485	3.27
380.932	3.29
381.379	3.32
381.826	3.35
382.273	3.37
382.72	3.38
383.166	3.4
383.613	3.42
384.06	3.45
384.506	3.47
384.953	3.49
385.4	3.52
385.846	3.54
386.292	3.56
386.739	3.58
387.185	3.6
387.631	3.63
388.078	3.66
388.524	3.68
388.97	3.7
389.416	3.73
389.862	3.76
390.308	3.79
390.754	3.83
391.2	3.85
391.645	3.88
392.091	3.92
392.537	3.96
392.983	3.97
393.428	4
393.874	4.02
394.319	4.06
394.765	4.07
395.21	4.08
395.655	4.09
396.101	4.12
396.546	4.13
396.991	4.15
397.436	4.16
397.881	4.2
398.326	4.22
398.771	4.25
399.216	4.26
399.661	4.28
400.106	4.3
400.551	4.32
400.995	4.32
401.44	4.33
401.885	4.35
402.329	4.36
402.774	4.37
403.218	4.4
403.663	4.42
404.107	4.43
404.551	4.45
404.995	4.46
405.44	4.46
405.884	4.47
406.328	4.49
406.772	4.49
407.216	4.49
407.66	4.5
408.104	4.48
408.547	4.47
408.991	4.49
409.435	4.49
409.879	4.49
410.322	4.51
410.766	4.52
411.209	4.54
411.653	4.56
412.096	4.57
412.54	4.57
412.983	4.58
413.426	4.62
413.869	4.62
414.312	4.65
414.756	4.68
415.199	4.69
415.642	4.7
416.085	4.7
416.527	4.7
416.97	4.7
417.413	4.7
417.856	4.7
418.298	4.68
418.741	4.69
419.184	4.67
419.626	4.67
420.069	4.67
420.511	4.68
420.953	4.69
421.396	4.69
421.838	4.7
422.28	4.69
422.722	4.72
423.164	4.73
423.606	4.74
424.048	4.74
424.49	4.74
424.932	4.73
425.374	4.7
425.816	4.68
426.258	4.69
426.699	4.69
427.141	4.7
427.582	4.7
428.024	4.71
428.465	4.71
428.907	4.7
429.348	4.7
429.789	4.71
430.231	4.76
430.672	4.77
431.113	4.79
431.554	4.81
431.995	4.82
432.436	4.83
432.877	4.84
433.318	4.86
433.759	4.89
434.2	4.91
434.64	4.93
435.081	4.95
435.522	4.96
435.962	4.96
436.403	4.99
436.843	5.01
437.284	5.01
437.724	5
438.164	5
438.604	5
439.045	5.02
439.485	5.03
439.925	5.03
440.365	5.05
440.805	5.07
441.245	5.08
441.685	5.1
442.125	5.14
442.564	5.17
443.004	5.18
443.444	5.2
443.883	5.22
444.323	5.22
444.762	5.22
445.202	5.24
445.641	5.27
446.081	5.28
446.52	5.28
446.959	5.32
447.398	5.33
447.837	5.36
448.276	5.38
448.716	5.42
449.154	5.45
449.593	5.49
450.032	5.5
450.471	5.51
450.91	5.51
451.349	5.54
451.787	5.54
452.226	5.53
452.664	5.53
453.103	5.53
453.541	5.53
453.98	5.54
454.418	5.52
454.856	5.54
455.295	5.53
455.733	5.51
456.171	5.51
456.609	5.51
457.047	5.52
457.485	5.52
457.923	5.51
458.361	5.51
458.798	5.5
459.236	5.51
459.674	5.49
460.111	5.5
460.549	5.52
460.987	5.51
461.424	5.52
461.862	5.52
462.299	5.52
462.736	5.53
463.173	5.53
463.611	5.54
464.048	5.55
464.485	5.55
464.922	5.56
465.359	5.55
465.796	5.58
466.233	5.58
466.67	5.59
467.106	5.61
467.543	5.6
467.98	5.6
468.416	5.58
468.853	5.59
469.29	5.57
469.726	5.57
470.162	5.57
470.599	5.54
471.035	5.53
471.471	5.52
471.907	5.5
472.344	5.51
472.78	5.51
473.216	5.51
473.652	5.5
474.088	5.5
474.523	5.51
474.959	5.5
475.395	5.49
475.831	5.49
476.266	5.49
476.702	5.49
477.138	5.49
477.573	5.49
478.008	5.49
478.444	5.49
478.879	5.5
479.314	5.49
479.75	5.48
480.185	5.47
480.62	5.47
481.055	5.46
481.49	5.46
481.925	5.46
482.36	5.47
482.795	5.46
483.229	5.46
483.664	5.46
484.099	5.46
484.534	5.45
484.968	5.47
485.403	5.47
485.837	5.47
486.271	5.49
486.706	5.5
487.14	5.5
487.574	5.51
488.009	5.53
488.443	5.55
488.877	5.57
489.311	5.6
489.745	5.62
490.179	5.66
490.613	5.71
491.046	5.73
491.48	5.77
491.914	5.8
492.348	5.84
492.781	5.89
493.215	5.92
493.648	5.97
494.082	6.03
494.515	6.08
494.948	6.13
495.382	6.17
495.815	6.23
496.248	6.29
496.681	6.35
497.114	6.42
497.547	6.48
497.98	6.56
498.413	6.64
498.846	6.71
499.279	6.79
499.711	6.87
500.144	6.96
500.577	7.06
501.009	7.15
501.442	7.26
501.874	7.37
502.306	7.48
502.739	7.62
503.171	7.74
503.603	7.87
504.036	8.01
504.468	8.14
504.9	8.28
505.332	8.43
505.764	8.58
506.196	8.74
506.627	8.92
507.059	9.09
507.491	9.24
507.923	9.42
508.354	9.61
508.786	9.82
509.217	10.03
509.649	10.24
510.08	10.45
510.512	10.68
510.943	10.88
511.374	11.1
511.805	11.35
512.237	11.57
512.668	11.81
513.099	12.04
513.53	12.27
513.961	12.52
514.391	12.77
514.822	13.04
515.253	13.29
515.684	13.55
516.114	13.82
516.545	14.08
516.975	14.36
517.406	14.62
517.836	14.88
518.267	15.17
518.697	15.43
519.127	15.68
519.558	15.95
519.988	16.21
520.418	16.47
520.848	16.72
521.278	16.96
521.708	17.43
522.138	17.68
522.567	17.92
522.997	18.15
523.427	18.38
523.857	18.61
524.286	18.8
524.716	19.02
525.145	19.23
525.575	19.42
526.004	19.62
526.433	19.59
526.863	19.78
527.292	19.95
527.721	20.13
528.15	20.29
528.579	20.45
529.008	20.6
529.437	20.73
529.866	20.86
530.295	20.99
530.724	21.12
531.152	21.23
531.581	21.35
532.01	21.46
532.438	21.55
532.867	21.65
533.295	21.73
533.723	21.83
534.152	21.9
534.58	22
535.008	22.07
535.436	22.14
535.865	22.21
536.293	22.24
536.721	22.29
537.149	22.36
537.576	22.39
538.004	22.44
538.432	22.47
538.86	22.51
539.287	22.52
539.715	22.55
540.143	22.57
540.57	22.58
540.998	22.62
541.425	22.65
541.852	22.66
542.28	22.71
542.707	22.74
543.134	22.75
543.561	22.79
543.988	22.84
544.415	22.86
544.842	22.88
545.269	22.91
545.696	22.94
546.123	22.95
546.549	22.98
546.976	22.99
547.403	23
547.829	23.02
548.256	23.04
548.682	23.05
549.108	23.08
549.535	23.11
549.961	23.1
550.387	23.11
550.813	23.12
551.24	23.09
551.666	23.09
552.092	23.1
552.518	23.09
552.943	23.08
553.369	23.05
553.795	23.02
554.221	22.99
554.646	22.98
555.072	22.94
555.498	22.91
555.923	22.87
556.349	22.81
556.774	22.76
557.199	22.7
557.625	22.64
558.05	22.59
558.475	22.52
558.9	22.45
559.325	22.37
559.75	22.31
560.175	22.22
560.6	22.13
561.025	22.04
561.449	21.94
561.874	21.83
562.299	21.74
562.723	21.62
563.148	21.51
563.572	21.38
563.997	21.25
564.421	21.11
564.846	20.98
565.27	20.86
565.694	20.74
566.118	20.6
566.542	20.47
566.966	20.32
567.39	20.18
567.814	20.04
568.238	19.9
568.662	19.76
569.086	19.63
569.509	19.5
569.933	19.37
570.357	19.22
570.78	19.08
571.204	18.94
571.627	18.83
572.05	18.69
572.474	18.58
572.897	18.46
573.32	18.34
573.743	18.23
574.166	18.12
574.589	17.99
575.012	17.88
575.435	17.78
575.858	17.68
576.281	17.58
576.704	17.48
577.126	17.38
577.549	17.28
577.972	17.18
578.394	17.08
578.817	17
579.239	16.93
579.661	16.87
580.084	16.79
580.506	16.71
580.928	16.64
581.35	16.56
581.772	16.48
582.194	16.42
582.616	16.36
583.038	16.28
583.46	16.2
583.882	16.13
584.303	16.04
584.725	15.98
585.147	15.94
585.568	15.87
585.99	15.82
586.411	15.78
586.833	15.71
587.254	15.65
587.675	15.59
588.096	15.54
588.518	15.49
588.939	15.46
589.36	15.41
589.781	15.35
590.202	15.32
590.623	15.28
591.043	15.23
591.464	15.2
591.885	15.16
592.305	15.13
592.726	15.11
593.147	15.08
593.567	15.04
593.987	15
594.408	14.97
594.828	14.92
595.248	14.89
595.669	14.86
596.089	14.82
596.509	14.79
596.929	14.76
597.349	14.72
597.769	14.69
598.189	14.64
598.608	14.62
599.028	14.6
599.448	14.56
599.867	14.51
600.287	14.47
600.706	14.44
601.126	14.4
601.545	14.35
601.965	14.31
602.384	14.26
602.803	14.23
603.222	14.17
603.641	14.12
604.061	14.07
604.48	14.02
604.898	13.96
605.317	13.9
605.736	13.85
606.155	13.8
606.574	13.74
606.992	13.67
607.411	13.59
607.829	13.49
608.248	13.41
608.666	13.33
609.085	13.27
609.503	13.2
609.921	13.14
610.339	13.06
610.758	12.98
611.176	12.9
611.594	12.83
612.012	12.77
612.43	12.71
612.847	12.64
613.265	12.58
613.683	12.51
614.101	12.44
614.518	12.37
614.936	12.3
615.353	12.23
615.771	12.17
616.188	12.11
616.606	12.06
617.023	12.02
617.44	11.98
617.857	11.92
618.274	11.86
618.691	11.81
619.108	11.76
619.525	11.72
619.942	11.69
620.359	11.65
620.776	11.62
621.192	11.58
621.609	11.55
622.026	11.52
622.442	11.49
622.859	11.48
623.275	11.46
623.691	11.43
624.108	11.42
624.524	11.4
624.94	11.37
625.356	11.37
625.772	11.36
626.188	11.35
626.604	11.33
627.02	11.32
627.436	11.32
627.852	11.32
628.268	11.3
628.683	11.29
629.099	11.28
629.514	11.27
629.93	11.25
630.345	11.22
630.761	11.19
631.176	11.17
631.591	11.14
632.007	11.1
632.422	11.05
632.837	11.02
633.252	10.97
633.667	10.92
634.082	10.87
634.497	10.8
634.911	10.74
635.326	10.67
635.741	10.6
636.155	10.52
636.57	10.45
636.984	10.38
637.399	10.29
637.813	10.2
638.228	10.11
638.642	10.02
639.056	9.92
639.47	9.83
639.884	9.74
640.298	9.64
640.712	9.53
641.126	9.42
641.54	9.31
641.954	9.2
642.368	9.09
642.781	9
643.195	8.9
643.609	8.81
644.022	8.71
644.436	8.62
644.849	8.53
645.262	8.44
645.676	8.35
646.089	8.28
646.502	8.22
646.915	8.17
647.328	8.09
647.741	8.03
648.154	7.97
648.567	7.93
648.98	7.88
649.393	7.84
649.805	7.8
650.218	7.76
650.631	7.72
651.043	7.68
651.456	7.64
651.868	7.6
652.28	7.56
652.693	7.52
653.105	7.47
653.517	7.42
653.929	7.39
654.341	7.33
654.753	7.28
655.165	7.22
655.577	7.17
655.989	7.09
656.401	7.02
656.813	6.96
657.224	6.9
657.636	6.82
658.047	6.76
658.459	6.67
658.87	6.6
659.282	6.52
659.693	6.46
660.104	6.38
660.515	6.32
660.926	6.24
661.338	6.17
661.749	6.1
662.159	6.03
662.57	5.97
662.981	5.91
663.392	5.86
663.803	5.8
664.213	5.74
664.624	5.68
665.035	5.63
665.445	5.6
665.855	5.56
666.266	5.53
666.676	5.5
667.086	5.46
667.497	5.44
667.907	5.42
668.317	5.41
668.727	5.4
669.137	5.4
669.547	5.39
669.956	5.39
670.366	5.38
670.776	5.37
671.186	5.37
671.595	5.37
672.005	5.36
672.414	5.36
672.824	5.36
673.233	5.37
673.642	5.38
674.052	5.38
674.461	5.39
674.87	5.4
675.279	5.43
675.688	5.45
676.097	5.47
676.506	5.51
676.915	5.54
677.323	5.58
677.732	5.6
678.141	5.64
678.549	5.68
678.958	5.72
679.366	5.78
679.775	5.83
680.183	5.9
680.592	5.97
681	6.03
681.408	6.11
681.816	6.19
682.224	6.28
682.632	6.38
683.04	6.49
683.448	6.61
683.856	6.74
684.264	6.89
684.671	7.04
685.079	7.2
685.487	7.39
685.894	7.61
686.302	7.84
686.709	8.1
687.116	8.38
687.524	8.67
687.931	8.99
688.338	9.34
688.745	9.69
689.152	10.07
689.559	10.48
689.966	10.89
690.373	11.33
690.78	11.79
691.187	12.25
691.593	12.72
692	13.2
692.407	13.69
692.813	14.19
693.22	14.69
693.626	15.21
694.032	15.73
694.439	16.27
694.845	16.8
695.251	17.32
695.657	17.84
696.063	18.38
696.469	18.92
696.875	19.46
697.281	20
697.687	20.53
698.093	21.06
698.498	21.56
698.904	22.08
699.31	22.58
699.715	23.11
700.12	23.62
700.526	24.11
700.931	24.58
701.337	25.04
701.742	25.49
702.147	25.94
702.552	26.39
702.957	26.84
703.362	27.26
703.767	27.67
704.172	28.06
704.577	28.47
704.981	28.87
705.386	29.27
705.791	29.69
706.195	30.08
706.6	30.47
707.004	30.83
707.408	31.2
707.813	31.58
708.217	31.94
708.621	32.31
709.025	32.64
709.43	32.96
709.834	33.31
710.237	33.62
710.641	33.93
711.045	34.24
711.449	34.55
711.853	34.9
712.256	35.18
712.66	35.49
713.064	35.76
713.467	36.05
713.87	36.36
714.274	36.63
714.677	36.91
715.08	37.17
715.484	37.43
715.887	37.72
716.29	37.95
716.693	38.2
717.096	38.44
717.499	38.69
717.901	38.93
718.304	39.14
718.707	39.35
719.109	39.58
719.512	39.8
719.915	40.03
720.317	40.19
720.719	40.34
721.122	40.51
721.524	40.72
721.926	40.91
722.328	41.09
722.731	41.25
723.133	41.45
723.535	41.6
723.937	41.75
724.338	41.9
724.74	42.09
725.142	42.42
725.544	42.57
725.945	42.73
726.347	42.84
726.748	42.98
727.15	43.09
727.551	43.21
727.952	43.32
728.354	43.43
728.755	43.51
729.156	43.6
729.557	43.54
729.958	43.62
730.359	43.67
730.76	43.76
731.161	43.84
731.562	43.95
731.962	44.01
732.363	44.09
732.763	44.17
733.164	44.25
733.564	44.31
733.965	44.38
734.365	44.47
734.766	44.54
735.166	44.61
735.566	44.67
735.966	44.72
736.366	44.77
736.766	44.83
737.166	44.88
737.566	44.95
737.966	45
738.365	45.04
738.765	45.09
739.165	45.14
739.564	45.18
739.964	45.19
740.363	45.24
740.763	45.28
741.162	45.31
741.561	45.36
741.96	45.38
742.36	45.4
742.759	45.43
743.158	45.46
743.557	45.47
743.955	45.5
744.354	45.53
744.753	45.55
745.152	45.59
745.55	45.61
745.949	45.63
746.348	45.65
746.746	45.66
747.144	45.68
747.543	45.66
747.941	45.69
748.339	45.64
748.737	45.67
749.136	45.67
749.534	45.64
749.932	45.66
750.33	45.65
750.727	45.65
751.125	45.67
751.523	45.68
751.921	45.72
752.318	45.73
752.716	45.76
753.113	45.77
753.511	45.79
753.908	45.83
754.305	45.84
754.703	45.86
755.1	45.87
755.497	45.88
755.894	45.89
756.291	45.88
756.688	45.88
757.085	45.91
757.482	45.91
757.878	45.9
758.275	45.9
758.672	45.9
759.068	45.91
759.465	45.9
759.861	45.92
760.258	45.92
760.654	45.93
761.05	45.95
761.447	45.94
761.843	45.94
762.239	45.92
762.635	45.91
763.031	45.92
763.427	45.88
763.822	45.91
764.218	45.92
764.614	45.91
765.01	45.9
765.405	45.88
765.801	45.88
766.196	45.87
766.592	45.9
766.987	45.89
767.382	45.86
767.778	45.87
768.173	45.86
768.568	45.83
768.963	45.82
769.358	45.83
769.753	45.83
770.148	45.83
770.542	45.82
770.937	45.82
771.332	45.84
771.726	45.85
772.121	45.84
772.515	45.83
772.91	45.84
773.304	45.87
773.699	45.87
774.093	45.87
774.487	45.86
774.881	45.89
775.275	45.87
775.669	45.85
776.063	45.85
776.457	45.88
776.851	45.87
777.245	45.84
777.638	45.8
778.032	45.83
778.425	45.83
778.819	45.84
779.212	45.83
779.606	45.84
779.999	45.83
780.392	45.85
780.786	45.81
781.179	45.8
781.572	45.86
781.965	45.88
782.358	45.86
782.751	45.86
783.143	45.86
783.536	45.85
783.929	45.83
784.322	45.89
784.714	45.85
785.107	45.88
785.499	45.89
785.891	45.86
786.284	45.86
786.676	45.84
787.068	45.85
787.46	45.85
787.852	45.86
788.245	45.87
788.636	45.84
789.028	45.89
789.42	45.87
789.812	45.88
790.204	45.91
790.595	45.91
790.987	45.91
791.378	45.92
791.77	45.93
792.161	45.93
792.553	45.94
792.944	45.93
793.335	45.93
793.726	45.95
794.117	45.95
794.508	45.91
794.899	45.91
795.29	45.92
795.681	45.92
796.072	45.9
796.463	45.96
796.853	45.97
797.244	45.99
797.634	45.98
798.025	45.98
798.415	45.98
798.806	45.99
799.196	46
799.586	46.02
799.976	46.04
800.366	46.03
800.756	46
801.146	45.97
801.536	45.96
801.926	45.95
802.316	45.95
802.706	45.95
803.095	45.97
803.485	45.95
803.874	45.94
804.264	45.91
804.653	45.93
805.043	45.92
805.432	45.93
805.821	45.97
806.21	45.99
806.599	46.03
806.988	46.06
807.377	46.07
807.766	46.08
808.155	46.08
808.544	46.09
808.933	46.09
809.321	46.09
809.71	46.1
810.098	46.09
810.487	46.05
810.875	46.03
811.264	45.99
811.652	46.01
812.04	46.01
812.428	46.05
812.816	46.05
813.204	46.03
813.592	46.03
813.98	46.04
814.368	46.05
814.756	46.09
815.144	46.09
815.531	46.11
815.919	46.1
816.306	46.1
816.694	46.08
817.081	46.07
817.469	46.09
817.856	46.09
818.243	46.08
818.63	46.07
819.017	46.05
819.404	46.03
819.791	46.02
820.178	46
820.565	45.98
820.952	45.97
821.339	45.98
821.725	45.99
822.112	46.01
822.498	46.01
822.885	46.04
823.271	46.02
823.657	46.02
824.044	46.01
824.43	46.04
824.816	46.05
825.202	46.05
825.588	46.04
825.974	46.02
826.36	46
826.746	45.99
827.132	45.96
827.517	45.97
827.903	45.97
828.289	46
828.674	46
829.06	45.97
829.445	45.97
829.83	45.97
830.216	45.98
830.601	45.98
830.986	45.97
831.371	45.96
831.756	45.97
832.141	45.96
832.526	45.93
832.911	45.9
833.295	45.91
833.68	45.91
834.065	45.89
834.449	45.87
834.834	45.87
835.218	45.88
835.603	45.87
835.987	45.85
836.371	45.85
836.755	45.82
837.139	45.8
837.524	45.81
837.908	45.81
838.291	45.83
838.675	45.83
839.059	45.81
839.443	45.74
839.827	45.74
840.21	45.75
840.594	45.76
840.977	45.78
841.361	45.79
841.744	45.75
842.127	45.73
842.511	45.71
842.894	45.7
843.277	45.7
843.66	45.7
844.043	45.72
844.426	45.71
844.809	45.7
845.191	45.7
845.574	45.69
845.957	45.7
846.339	45.7
846.722	45.69
847.104	45.69
847.487	45.67
847.869	45.69
848.252	45.7
848.634	45.69
849.016	45.68
849.398	45.67
849.78	45.69
850.162	45.68
850.544	45.68
850.926	45.69
851.307	45.67
851.689	45.71
852.071	45.7
852.452	45.69
852.834	45.69
853.215	45.7
853.597	45.71
853.978	45.69
854.359	45.71
854.741	45.71
855.122	45.68
855.503	45.7
855.884	45.67
856.265	45.7
856.646	45.65
857.026	45.67
857.407	45.68
857.788	45.66
858.169	45.67
858.549	45.67
858.93	45.69
859.31	45.72
859.69	45.73
860.071	45.76
860.451	45.74
860.831	45.77
861.211	45.73
861.591	45.72
861.971	45.73
862.351	45.75
862.731	45.74
863.111	45.73
863.491	45.71
863.87	45.69
864.25	45.66
864.629	45.69
865.009	45.68
865.388	45.69
865.768	45.7
866.147	45.67
866.526	45.65
866.905	45.64
867.284	45.66
867.663	45.68
868.042	45.68
868.421	45.7
868.8	45.67
869.179	45.7
869.558	45.7
869.936	45.7
870.315	45.7
870.693	45.71
871.072	45.72
871.45	45.72
871.828	45.71
872.207	45.73
872.585	45.71
872.963	45.73
873.341	45.71
873.719	45.71
874.097	45.7
874.475	45.73
874.853	45.74
875.23	45.74
875.608	45.72
875.986	45.74
876.363	45.73
876.741	45.75
877.118	45.76
877.495	45.79
877.873	45.8
878.25	45.83
878.627	45.84
879.004	45.82
879.381	45.82
879.758	45.8
880.135	45.78
880.512	45.78
880.889	45.74
881.265	45.71
881.642	45.68
882.019	45.69
882.395	45.66
882.772	45.64
883.148	45.63
883.524	45.61
883.901	45.61
884.277	45.58
884.653	45.55
885.029	45.55
885.405	45.58
885.781	45.57
886.157	45.54
886.532	45.55
886.908	45.53
887.284	45.53
887.659	45.51
888.035	45.49
888.411	45.49
888.786	45.51
889.161	45.52
889.537	45.49
889.912	45.47
890.287	45.47
890.662	45.45
891.037	45.45
891.412	45.44
891.787	45.42
892.162	45.43
892.536	45.43
892.911	45.42
893.286	45.41
893.66	45.4
894.035	45.42
894.409	45.4
894.784	45.42
895.158	45.41
895.532	45.42
895.906	45.45
896.281	45.44
896.655	45.44
897.029	45.44
897.402	45.44
897.776	45.44
898.15	45.44
898.524	45.48
898.898	45.46
899.271	45.48
899.645	45.47
900.018	45.48
900.392	45.49
900.765	45.5
901.138	45.48
901.511	45.49
901.884	45.5
902.258	45.48
902.631	45.48
903.003	45.49
903.376	45.49
903.749	45.49
904.122	45.5
904.495	45.54
904.867	45.54
905.24	45.56
905.612	45.6
905.985	45.58
906.357	45.59
906.729	45.6
907.102	45.6
907.474	45.62
907.846	45.64
908.218	45.62
908.59	45.61
908.962	45.61
909.334	45.6
909.705	45.56
910.077	45.57
910.449	45.58
910.82	45.58
911.192	45.6
911.563	45.58
911.935	45.55
912.306	45.56
912.677	45.57
913.048	45.6
913.419	45.59
913.79	45.62
914.161	45.65
914.532	45.65
914.903	45.64
915.274	45.63
915.645	45.66
916.015	45.71
916.386	45.71
916.756	45.69
917.127	45.68
917.497	45.7
917.868	45.67
918.238	45.66
918.608	45.67
918.978	45.65
919.348	45.66
919.718	45.64
920.088	45.62
920.458	45.62
920.828	45.6
921.198	45.6
921.567	45.59
921.937	45.62
922.306	45.6
922.676	45.58
923.045	45.59
923.415	45.56
923.784	45.55
924.153	45.57
924.522	45.56
924.891	45.59
925.26	45.58
925.629	45.58
925.998	45.56
926.367	45.58
926.736	45.62
927.104	45.62
927.473	45.61
927.842	45.59
928.21	45.59
928.578	45.58
928.947	45.58
929.315	45.56
929.683	45.57
930.051	45.56
930.42	45.56
930.788	45.53
931.156	45.51
931.523	45.52
931.891	45.6
932.259	45.6
932.627	45.61
932.994	45.61
933.362	45.62
933.729	45.61
934.097	45.63
934.464	45.65
934.831	45.67
935.199	45.74
935.566	45.8
935.933	45.72
936.3	45.7
936.667	45.69
937.034	45.74
937.401	45.75
937.767	45.77
938.134	45.75
938.501	45.74
938.867	45.76
939.234	45.72
939.6	45.68
939.967	45.72
940.333	45.72
940.699	45.77
941.065	45.63
941.431	45.57
941.798	45.52
942.163	45.49
942.529	45.43
942.895	45.39
943.261	45.37
943.627	45.3
943.992	45.27
944.358	45.22
944.723	45.18
945.089	45.17
945.454	45.19
945.82	45.16
946.185	45.19
946.55	45.15
946.915	45.18
947.28	45.11
947.645	45.16
948.01	45.19
948.375	45.17
948.74	45.15
949.104	45.2
949.469	45.16
949.834	45.14
950.198	45.11
950.562	45.11
950.927	45.04
951.291	45
951.655	44.89
952.02	44.84
952.384	44.85
952.748	44.81
953.112	44.81
953.476	44.82
953.839	44.81
954.203	44.83
954.567	44.83
954.931	44.8
955.294	44.81
955.658	44.85
956.021	44.85
956.385	44.84
956.748	44.82
957.111	44.74
957.474	44.72
957.837	44.69
958.2	44.64
958.563	44.59
958.926	44.62
959.289	44.63
959.652	44.62
960.015	44.6
960.377	44.56
960.74	44.61
961.102	44.66
961.465	44.7
961.827	44.84
962.189	44.89
962.552	44.93
962.914	44.88
963.276	44.93
963.638	44.92
964	44.92
964.362	44.98
964.724	44.95
965.085	44.91
965.447	44.85
965.809	44.76
966.17	44.7
966.532	44.68
966.893	44.7
967.255	44.66
967.616	44.71
967.977	44.69
968.338	44.63
968.699	44.61
969.061	44.59
969.421	44.65
969.782	44.63
970.143	44.68
970.504	44.75
970.865	44.8
971.225	44.73
971.586	44.67
971.946	44.65
972.307	44.64
972.667	44.6
973.027	44.66
973.388	44.66
973.748	44.7
974.108	44.75
974.468	44.66
974.828	44.67
975.188	44.66
975.548	44.71
975.907	44.76
976.267	44.79
976.627	44.9
976.986	44.88
977.346	44.83
977.705	44.78
978.064	44.74
978.424	44.82
978.783	44.78
979.142	44.83
979.501	44.86
979.86	44.88
980.219	44.89
980.578	44.85
980.937	44.86
981.296	44.83
981.654	44.88
982.013	44.86
982.371	44.82
982.73	44.83
983.088	44.83
983.447	44.84
983.805	44.84
984.163	44.83
984.521	44.82
984.879	44.81
985.237	44.84
985.595	44.87
985.953	44.87
986.311	44.78
986.669	44.76
987.026	44.79
987.384	44.79
987.741	44.73
988.099	44.78
988.456	44.75
988.814	44.85
989.171	44.86
989.528	44.88
989.885	44.93
990.242	45.06
990.599	45.13
990.956	45.17
991.313	45.13
991.67	45.18
992.027	45.28
992.383	45.46
992.74	45.37
993.096	45.36
993.453	45.32
993.809	45.31
994.165	45.32
994.522	45.38
994.878	45.38
995.234	45.49
995.59	45.47
995.946	45.41
996.302	45.39
996.658	45.38
997.013	45.39
997.369	45.41
997.725	45.38
998.08	45.34
998.436	45.33
998.791	45.42
999.147	45.4
999.502	45.52
999.857	45.46
1000.212	45.37
1000.567	45.46
1000.922	45.45
1001.277	45.45
1001.632	45.48
1001.987	45.56
1002.342	45.53
1002.696	45.38
1003.051	45.45
1003.406	45.5
1003.76	45.52
1004.114	45.56
1004.469	45.61
1004.823	45.94
1005.177	45.95
1005.531	46.03
1005.885	46.09
1006.239	46.16
1006.593	46.44
1006.947	46.41
1007.301	46.19
1007.655	46.21
1008.008	46.24
1008.362	46.44
1008.715	46.29
1009.069	46.42
1009.422	46.38
1009.776	46.4
1010.129	46.34
1010.482	46.17
1010.835	46.12
1011.188	46.27
1011.541	46.25
1011.894	46.32
1012.247	46.07
1012.6	46.02
1012.952	45.88
1013.305	45.88
1013.657	45.94
1014.01	45.9
1014.362	45.96
1014.715	46.13
1015.067	46.21
1015.419	46.39
1015.771	46.3
1016.123	46.42
1016.475	46.56
1016.827	46.8
1017.179	46.88
1017.531	46.72
1017.883	46.84
1018.234	46.94
1018.586	46.9
1018.938	47.16
1019.289	47.16
1019.64	47.15
1019.992	47.11
1020.343	46.98
1020.694	46.73
1021.045	46.8
1021.396	46.81
1021.747	46.93
1022.098	46.78
1022.449	46.76
1022.8	46.76
1023.151	46.65
1023.501	46.83
1023.852	46.77
1024.202	46.72
1024.553	46.88
1024.903	47.07
1025.253	47.33
1025.604	47.25
1025.954	47.02
1026.304	46.94
1026.654	46.93
1027.004	46.88
1027.354	46.69
1027.703	46.64
1028.053	46.69
1028.403	46.71
1028.753	46.24
1029.102	46.27
1029.452	46.28
1029.801	46.65
1030.15	46.69
1030.499	46.23
897.758	1875.89
901.051	1872.37
904.343	1866.87
907.636	1905.06
910.928	1855.52
914.22	1846.74
917.511	1824.05
920.803	1741.66
924.094	1734.75
927.384	1694.56
930.675	1619.42
933.965	1605.82
937.255	1519.19
940.544	1455.83
943.834	1382.57
947.123	1367.91
950.411	1290.6
953.7	1260.52
956.988	1191.21
960.276	1141.86
963.563	1124.87
966.851	1086.34
970.138	1076.49
973.424	1039.44
976.711	1046.14
979.997	992.58
983.283	989.45
986.568	968.04
989.853	935.4
993.138	921.65
996.423	885.17
999.708	860.61
1002.992	850.78
1006.275	813.55
1009.559	803.87
1012.842	776.37
1016.125	753.13
1019.408	738.96
1022.69	729.34
1025.972	717.72
1029.254	698.48
1032.536	687.18
1035.817	670.59
1039.098	661.74
1042.379	645.13
1045.659	640.22
1048.939	622.8
1052.219	611.97
1055.498	600.53
1058.778	587.32
1062.057	571.42
1065.335	564.49
1068.614	557.42
1071.892	552.76
1075.17	534.44
1078.447	524.57
1081.724	520.35
1085.001	516.2
1088.278	505.25
1091.554	497.08
1094.83	496.09
1098.106	493.92
1101.382	489.04
1104.657	485.33
1107.932	476.94
1111.206	479.78
1114.481	468.31
1117.755	463.4
1121.029	459.93
1124.302	460.39
1127.575	449.95
1130.848	444.48
1134.121	439.11
1137.393	438.23
1140.665	428.58
1143.937	426.74
1147.208	421.24
1150.48	421.47
1153.75	415.6
1157.021	408.44
1160.291	408.03
1163.561	403.58
1166.831	403.89
1170.101	401.7
1173.37	398.8
1176.639	400.04
1179.907	395.83
1183.176	393.02
1186.444	392.53
1189.711	391.4
1192.979	390.87
1196.246	387.56
1199.513	389.61
1202.78	386.74
1206.046	386.48
1209.312	382.59
1212.578	383.37
1215.843	386.78
1219.108	382.87
1222.373	390.74
1225.638	394.86
1228.902	401.54
1232.166	401.64
1235.43	404.44
1238.693	410.02
1241.956	411.94
1245.219	420.61
1248.482	418.94
1251.744	418.8
1255.006	421.47
1258.268	410.6
1261.529	405.84
1264.79	401.74
1268.051	400.24
1271.312	395.87
1274.572	390.3
1277.832	386
1281.092	379.13
1284.351	376.98
1287.61	376.18
1290.869	370.59
1294.128	367.95
1297.386	368.12
1300.644	364.5
1303.902	365.01
1307.159	362.95
1310.416	364.01
1313.673	364.13
1316.93	367.13
1320.186	367.18
1323.442	369.05
1326.697	376.04
1329.953	376.44
1333.208	378.16
1336.463	382.62
1339.717	383.68
1342.972	387.33
1346.226	390.5
1349.479	390.63
1352.733	393.48
1355.986	395.51
1359.238	394.95
1362.491	397.28
1365.743	402.04
1368.995	401.31
1372.247	400.24
1375.498	400.61
1378.749	405.28
1382	399.54
1385.251	403.18
1388.501	399.3
1391.751	402.53
1395	400.56
1398.25	397.51
1401.499	395.46
1404.748	396.17
1407.996	392.73
1411.244	390.71
1414.492	389.11
1417.74	387.31
1420.987	379.7
1424.234	381.33
1427.481	374.86
1430.728	375.56
1433.974	370.61
1437.22	368.04
1440.465	366.75
1443.711	364.62
1446.956	363.15
1450.201	356.77
1453.445	353.55
1456.689	353.15
1459.933	346.43
1463.177	344.14
1466.42	337.89
1469.663	334.93
1472.906	332.95
1476.148	323.65
1479.391	319.51
1482.633	315.59
1485.874	311.54
1489.115	309.31
1492.356	305.04
1495.597	304.54
1498.838	299.25
1502.078	297.36
1505.318	295.48
1508.557	295.11
1511.797	295.88
1515.036	292.93
1518.274	292.23
1521.513	289.5
1524.751	288.96
1527.989	288.08
1531.227	286.29
1534.464	287.69
1537.701	285.45
1540.938	284.72
1544.174	280.76
1547.41	279.68
1550.646	278.81
1553.882	278.76
1557.117	275.04
1560.352	272.74
1563.587	272.08
1566.821	270.27
1570.055	266.77
1573.289	264.56
1576.523	264.17
1579.756	261.86
1582.989	260.7
1586.222	260.52
1589.454	258.61
1592.686	260.79
1595.918	259.61
1599.15	258.54
1602.381	258.46
1605.612	258.51
1608.843	260.01
1612.073	259.36
1615.303	261.24
1618.533	261.11
1621.762	259.82
1624.992	260.52
1628.221	259.84
1631.449	260.1
1634.678	259.59
1637.906	261.47
1641.134	260.75
1644.361	260.05
1647.588	261.63
1650.815	259.91
1654.042	258.24
1657.269	260.81
1660.495	260.53
1663.72	258.78
1666.946	259.9
1670.171	260.29
1673.396	259.16
1676.621	260.2
1679.845	259.88
1683.069	259.47
1686.293	261.41
1689.517	263.37
1692.74	262.51
1695.963	263.76
1699.185	267.93
1702.408	267.8
1705.63	268.53
1708.852	269.87
1712.073	270.43
1715.294	271.47
1718.515	272.05
1721.736	272.19
1724.956	272.44
1728.176	272.31
1731.396	274.86
1734.616	273.23
1737.835	274.33
1741.054	272.23
1744.272	273.42
1747.491	275.58
1750.709	276.23
1753.927	276.97
1757.144	275.26
1760.361	277.53
1763.578	277.84
1766.795	276.87
1770.011	278.84
1773.227	279.03
1776.443	283.29
1779.658	284.59
1782.874	283.68
1786.089	284.9
1789.303	285.75
1792.518	289.65
1795.732	288.63
1798.945	292.53
1802.159	292.49
1805.372	293.51
1808.585	299.07
1811.797	299.81
1815.01	299.68
1818.222	302.47
1821.434	304.3
1824.645	305.81
1827.856	311.72
1831.067	315.12
1834.278	312.17
1837.488	315.33
1840.698	317.78
1843.908	313.85
1847.117	316.1
1850.326	318.37
1853.535	317.25
1856.744	322.71
1859.952	322.17
1863.16	320.76
1866.368	317.72
1869.575	324.68
1872.782	319.5
1875.989	317.92
1879.196	317.49
1882.402	316.18
1885.608	318.03
1888.814	319.91
1892.019	318.58
1895.224	318
1898.429	316.23
1901.634	319.74
1904.838	318.42
1908.042	322.4
1911.246	324.44
1914.449	326.67
1917.652	326.57
1920.855	325.76
1924.058	324.55
1927.26	323.66
1930.462	325.56
1933.664	329.27
1936.865	325.94
1940.066	326.72
1943.267	324.27
1946.467	323.88
1949.668	326.34
1952.868	330.35
1956.067	329.88
1959.267	330.79
1962.466	331.88
1965.665	330.15
1968.863	330.09
1972.061	334.6
1975.259	337.71
1978.457	340.61
1981.654	343.06
1984.852	343.8
1988.048	342.4
1991.245	345.27
1994.441	350.51
1997.637	351.74
2000.833	358.7
2004.028	363.93
2007.223	365.78
2010.418	368.79
2013.613	375.07
2016.807	379.23
2020.001	381.76
2023.194	387.67
2026.388	396.9
2029.581	404.27
2032.774	409.25
2035.966	416.86
2039.158	418.05
2042.35	427.4
2045.542	428.86
2048.733	435.09
2051.924	441.11
2055.115	449.26
2058.306	449.52
2061.496	454.86
2064.686	454.39
2067.875	462.98
2071.065	463.96
2074.254	461.26
2077.442	465.32
2080.631	468.67
2083.819	473.64
2087.007	472.86
2090.195	478.2
2093.382	483.47
2096.569	479
2099.756	487.22
2102.942	486.85
2106.128	493.43
2109.314	505.4
2112.5	503.9
2115.685	514.5
2118.87	515.38
2122.055	525.69
2125.239	529.49
2128.424	536.52
2131.608	539.87
2134.791	547.27
2137.974	550.42
2141.157	551.24
2144.34	551.37
2147.523	560.54
2150.705	556
2153.887	559.96
2157.068	562.35
2160.25	558.08
2163.431	557.73
2166.611	564.68
2169.792	576.32
2172.972	583.1
2176.152	585.01
2179.331	593.02
2182.511	604.14
2185.69	612.04
2188.868	625.07
2192.047	625.92
2195.225	641.94
2198.403	660.43
2201.58	673.15
2204.758	684.66
2207.935	697.99
2211.111	712.94
2214.288	721.59
2217.464	722.02
2220.64	731.4
2223.815	743.73
2226.991	774.95
2230.166	778.24
2233.34	791.9
2236.515	804.13
2239.689	803.53
2242.863	809.87
2246.036	832.77
2249.209	823.16
2252.382	837.31
2255.555	864.51
2258.727	865.37
2261.9	869.31
2265.071	876.68
2268.243	890.61
2271.414	901.16
2274.585	924.54
2277.756	931.43
2280.926	937.74
2284.096	962.87
2287.266	984.2
2290.436	990.86
2293.605	1015.6
2296.774	1050.33
2299.942	1082.03
2303.111	1088.81
2306.279	1117.14
2309.447	1129.41
2312.614	1158.91
2315.781	1192.11
2318.948	1248.07
2322.115	1228.54
2325.281	1294.44
2328.447	1266.02
2331.613	1318.31
2334.779	1303.59
2337.944	1360.23
2341.109	1372.22
2344.274	1408.12
2347.438	1462.73
2350.602	1462.68
2353.766	1504.88
2356.929	1526.26
2360.092	1515.08
2363.255	1630.07
2366.418	1617.72
2369.58	1655.03
2372.742	1755.58
2375.904	1799.2
2379.066	1790.19
2382.227	1752.41
2385.388	1898.73
2388.548	1902.57
2391.709	1931.26
2394.869	2160.14
2398.029	2052.84
2401.188	2115.19
2404.347	2103.59
2407.506	2071.95
2410.665	2127.69
2413.823	2260.27
2416.981	2390.92
2420.139	2311.42
2423.296	2284.63
2426.453	2387.08
2429.61	2287.2
2432.767	2406.67
2435.923	2387.16
2439.079	2596.46
2442.235	2630.45
2445.391	2607.5
2448.546	2588.78
2451.701	2518.67
2454.855	2519.39
2458.009	2673.91
2461.163	2776.56
2464.317	2884.49
2467.471	2956.25
2470.624	2948.72
2473.777	2879.38
2476.929	2806.46
2480.082	2731.57
2483.234	2692.77
2486.385	2825.66
2489.537	2836.36
2492.688	2950.94
2495.839	2858.05
2498.989	2799.91
2502.14	2817.31
2505.29	2856.26
2508.439	2901.71
2511.589	2893.39
2514.738	3146.47
2517.887	3085.35
2521.035	3257.63
2524.183	3283.51
2527.331	3304.85
2530.479	3306.29
2533.627	3323.34
