Data from C_3_DEC_NC_4N_Splice17_13-58-30-835.txt Node
Date: Sat Mar 07 13:58:30 EST 2020
User: sa697716
Spectrometer: NQ5500242
Trigger mode: 0
Integration Time (sec): 1.450000E-1
Scans to average: 20
Nonlinearity correction enabled: false
Boxcar width: 5
Storing dark spectrum: false
XAxis mode: Wavelengths
Number of Pixels in Spectrum: 512
>>>>>Begin Spectral Data<<<<<
187.83	138.52
188.298	171.31
188.766	166.21
189.233	136.07
189.701	127.68
190.169	146.83
190.636	162.27
191.104	213.04
191.571	204.3
192.039	207.72
192.506	180.25
192.974	138.02
193.441	412.86
193.908	209.82
194.375	105.19
194.842	75.92
195.31	118.91
195.777	261.94
196.244	44.18
196.711	43.2
197.177	43.64
197.644	42.6
198.111	41.36
198.578	41.54
199.045	42.54
199.511	42.96
199.978	42.37
200.445	42.3
200.911	42.47
201.378	42.49
201.844	42.57
202.31	42.34
202.777	42.47
203.243	42.72
203.709	42.58
204.176	42.14
204.642	41.81
205.108	41.94
205.574	41.86
206.04	41.43
206.506	41.2
206.972	40.62
207.438	40.19
207.903	39.69
208.369	38.86
208.835	37.91
209.301	37.17
209.766	36.21
210.232	35.07
210.697	33.84
211.163	33.03
211.628	32.35
212.094	31.56
212.559	30.93
213.024	30.16
213.49	29.46
213.955	28.75
214.42	27.95
214.885	27.12
215.35	26.15
215.815	25.04
216.28	23.35
216.745	21.6
217.21	19.87
217.675	18.16
218.14	16.66
218.604	15.4
219.069	14.31
219.534	13.42
219.998	12.69
220.463	12.11
220.927	11.56
221.392	11.17
221.856	10.81
222.32	10.51
222.785	10.27
223.249	10.04
223.713	9.83
224.177	9.69
224.642	9.53
225.106	9.34
225.57	9.16
226.034	9.02
226.497	8.86
226.961	8.72
227.425	8.59
227.889	8.47
228.353	8.35
228.816	8.23
229.28	8.1
229.744	7.98
230.207	7.89
230.671	7.78
231.134	7.66
231.597	7.58
232.061	7.48
232.524	7.38
232.987	7.28
233.45	7.22
233.914	7.14
234.377	7.06
234.84	6.99
235.303	6.92
235.766	6.86
236.229	6.8
236.691	6.73
237.154	6.67
237.617	6.61
238.08	6.55
238.542	6.47
239.005	6.42
239.468	6.36
239.93	6.3
240.393	6.25
240.855	6.19
241.317	6.12
241.78	6.07
242.242	6.01
242.704	5.97
243.166	5.92
243.629	5.87
244.091	5.81
244.553	5.76
245.015	5.7
245.477	5.64
245.939	5.6
246.4	5.56
246.862	5.51
247.324	5.47
247.786	5.42
248.247	5.36
248.709	5.31
249.17	5.26
249.632	5.24
250.093	5.19
250.555	5.17
251.016	5.13
251.477	5.09
251.939	5.06
252.4	5.02
252.861	4.99
253.322	4.97
253.783	4.95
254.244	4.93
254.705	4.88
255.166	4.86
255.627	4.83
256.088	4.81
256.549	4.79
257.009	4.76
257.47	4.73
257.931	4.7
258.391	4.66
258.852	4.63
259.312	4.59
259.773	4.57
260.233	4.54
260.694	4.51
261.154	4.48
261.614	4.44
262.074	4.41
262.534	4.39
262.994	4.37
263.455	4.35
263.915	4.33
264.374	4.3
264.834	4.28
265.294	4.26
265.754	4.24
266.214	4.23
266.673	4.22
267.133	4.21
267.593	4.2
268.052	4.19
268.512	4.18
268.971	4.17
269.431	4.16
269.89	4.15
270.349	4.14
270.809	4.13
271.268	4.12
271.727	4.11
272.186	4.09
272.645	4.07
273.104	4.06
273.563	4.05
274.022	4.04
274.481	4.02
274.94	4.02
275.399	4
275.857	3.99
276.316	3.98
276.775	3.98
277.233	3.97
277.692	3.96
278.15	3.96
278.609	3.95
279.067	3.94
279.525	3.94
279.984	3.92
280.442	3.91
280.9	3.91
281.358	3.9
281.816	3.89
282.274	3.89
282.732	3.88
283.19	3.87
283.648	3.85
284.106	3.85
284.564	3.84
285.021	3.84
285.479	3.83
285.937	3.82
286.394	3.81
286.852	3.8
287.309	3.79
287.767	3.77
288.224	3.76
288.682	3.75
289.139	3.74
289.596	3.73
290.053	3.71
290.511	3.69
290.968	3.67
291.425	3.65
291.882	3.64
292.339	3.63
292.796	3.62
293.252	3.6
293.709	3.59
294.166	3.58
294.623	3.57
295.079	3.56
295.536	3.56
295.992	3.55
296.449	3.55
296.905	3.54
297.362	3.53
297.818	3.52
298.274	3.52
298.731	3.51
299.187	3.49
299.643	3.48
300.099	3.48
300.555	3.47
301.011	3.46
301.467	3.45
301.923	3.45
302.379	3.44
302.835	3.44
303.291	3.43
303.746	3.43
304.202	3.43
304.658	3.42
305.113	3.42
305.569	3.42
306.024	3.42
306.479	3.4
306.935	3.39
307.39	3.39
307.845	3.39
308.301	3.39
308.756	3.39
309.211	3.39
309.666	3.4
310.121	3.39
310.576	3.39
311.031	3.39
311.486	3.4
311.94	3.41
312.395	3.4
312.85	3.4
313.305	3.39
313.759	3.39
314.214	3.38
314.668	3.37
315.123	3.37
315.577	3.36
316.032	3.35
316.486	3.34
316.94	3.33
317.394	3.32
317.849	3.31
318.303	3.3
318.757	3.3
319.211	3.29
319.665	3.28
320.119	3.27
320.572	3.26
321.026	3.25
321.48	3.25
321.934	3.23
322.387	3.22
322.841	3.21
323.295	3.21
323.748	3.21
324.202	3.21
324.655	3.2
325.108	3.2
325.562	3.21
326.015	3.2
326.468	3.21
326.921	3.21
327.374	3.21
327.827	3.21
328.28	3.2
328.733	3.2
329.186	3.19
329.639	3.19
330.092	3.18
330.545	3.18
330.997	3.18
331.45	3.18
331.903	3.19
332.355	3.2
332.808	3.19
333.26	3.19
333.713	3.19
334.165	3.18
334.617	3.19
335.069	3.18
335.522	3.18
335.974	3.18
336.426	3.16
336.878	3.15
337.33	3.15
337.782	3.15
338.234	3.16
338.686	3.15
339.137	3.17
339.589	3.16
340.041	3.16
340.493	3.15
340.944	3.14
341.396	3.14
341.847	3.14
342.299	3.11
342.75	3.1
343.201	3.07
343.653	3.07
344.104	3.05
344.555	3.04
345.006	3.03
345.457	3.02
345.908	3.01
346.359	3.01
346.81	3
347.261	3
347.712	3
348.163	2.99
348.613	2.99
349.064	3
349.515	2.99
349.965	2.98
350.416	2.97
350.866	2.97
351.317	2.96
351.767	2.96
352.217	2.96
352.668	2.96
353.118	2.96
353.568	2.95
354.018	2.94
354.468	2.95
354.918	2.96
355.368	2.96
355.818	2.96
356.268	2.97
356.718	2.97
357.168	2.97
357.617	2.97
358.067	2.97
358.517	2.99
358.966	2.99
359.416	2.99
359.865	2.99
360.315	3
360.764	2.99
361.213	2.99
361.663	2.98
362.112	2.99
362.561	3
363.01	3
363.459	2.98
363.908	2.98
364.357	2.98
364.806	2.98
365.255	2.98
365.703	2.99
366.152	3
366.601	3.01
367.05	3.01
367.498	3
367.947	3.02
368.395	3.03
368.844	3.04
369.292	3.04
369.74	3.05
370.189	3.05
370.637	3.05
371.085	3.05
371.533	3.05
371.981	3.06
372.429	3.07
372.877	3.07
373.325	3.07
373.773	3.08
374.221	3.08
374.669	3.08
375.116	3.09
375.564	3.1
376.012	3.12
376.459	3.12
376.907	3.13
377.354	3.14
377.801	3.16
378.249	3.17
378.696	3.18
379.143	3.2
379.591	3.22
380.038	3.23
380.485	3.25
380.932	3.28
381.379	3.31
381.826	3.32
382.273	3.34
382.72	3.34
383.166	3.36
383.613	3.38
384.06	3.39
384.506	3.4
384.953	3.42
385.4	3.43
385.846	3.45
386.292	3.46
386.739	3.47
387.185	3.49
387.631	3.51
388.078	3.53
388.524	3.54
388.97	3.57
389.416	3.6
389.862	3.63
390.308	3.65
390.754	3.67
391.2	3.7
391.645	3.72
392.091	3.76
392.537	3.79
392.983	3.81
393.428	3.83
393.874	3.84
394.319	3.86
394.765	3.87
395.21	3.88
395.655	3.9
396.101	3.92
396.546	3.93
396.991	3.95
397.436	3.96
397.881	3.99
398.326	4.01
398.771	4.04
399.216	4.06
399.661	4.07
400.106	4.09
400.551	4.09
400.995	4.1
401.44	4.1
401.885	4.1
402.329	4.12
402.774	4.12
403.218	4.13
403.663	4.13
404.107	4.14
404.551	4.15
404.995	4.15
405.44	4.15
405.884	4.15
406.328	4.18
406.772	4.18
407.216	4.17
407.66	4.17
408.104	4.17
408.547	4.17
408.991	4.16
409.435	4.16
409.879	4.16
410.322	4.18
410.766	4.19
411.209	4.2
411.653	4.22
412.096	4.23
412.54	4.24
412.983	4.24
413.426	4.27
413.869	4.29
414.312	4.31
414.756	4.33
415.199	4.33
415.642	4.33
416.085	4.33
416.527	4.31
416.97	4.29
417.413	4.28
417.856	4.29
418.298	4.27
418.741	4.26
419.184	4.25
419.626	4.24
420.069	4.25
420.511	4.24
420.953	4.24
421.396	4.25
421.838	4.26
422.28	4.26
422.722	4.27
423.164	4.27
423.606	4.26
424.048	4.27
424.49	4.28
424.932	4.28
425.374	4.27
425.816	4.25
426.258	4.25
426.699	4.24
427.141	4.24
427.582	4.24
428.024	4.24
428.465	4.24
428.907	4.23
429.348	4.21
429.789	4.21
430.231	4.21
430.672	4.24
431.113	4.25
431.554	4.26
431.995	4.26
432.436	4.27
432.877	4.27
433.318	4.28
433.759	4.29
434.2	4.32
434.64	4.33
435.081	4.35
435.522	4.36
435.962	4.38
436.403	4.39
436.843	4.41
437.284	4.4
437.724	4.42
438.164	4.41
438.604	4.42
439.045	4.43
439.485	4.44
439.925	4.43
440.365	4.42
440.805	4.42
441.245	4.42
441.685	4.44
442.125	4.46
442.564	4.47
443.004	4.49
443.444	4.51
443.883	4.52
444.323	4.52
444.762	4.54
445.202	4.56
445.641	4.58
446.081	4.61
446.52	4.62
446.959	4.65
447.398	4.68
447.837	4.69
448.276	4.69
448.716	4.71
449.154	4.74
449.593	4.76
450.032	4.76
450.471	4.76
450.91	4.75
451.349	4.76
451.787	4.74
452.226	4.73
452.664	4.73
453.103	4.73
453.541	4.74
453.98	4.74
454.418	4.72
454.856	4.72
455.295	4.7
455.733	4.68
456.171	4.67
456.609	4.67
457.047	4.66
457.485	4.65
457.923	4.65
458.361	4.62
458.798	4.61
459.236	4.6
459.674	4.59
460.111	4.6
460.549	4.62
460.987	4.62
461.424	4.63
461.862	4.64
462.299	4.64
462.736	4.64
463.173	4.64
463.611	4.65
464.048	4.66
464.485	4.67
464.922	4.66
465.359	4.66
465.796	4.67
466.233	4.67
466.67	4.67
467.106	4.68
467.543	4.67
467.98	4.67
468.416	4.66
468.853	4.66
469.29	4.66
469.726	4.67
470.162	4.67
470.599	4.66
471.035	4.66
471.471	4.64
471.907	4.63
472.344	4.63
472.78	4.64
473.216	4.64
473.652	4.65
474.088	4.64
474.523	4.63
474.959	4.61
475.395	4.61
475.831	4.6
476.266	4.61
476.702	4.6
477.138	4.6
477.573	4.6
478.008	4.6
478.444	4.58
478.879	4.59
479.314	4.6
479.75	4.6
480.185	4.59
480.62	4.58
481.055	4.57
481.49	4.58
481.925	4.57
482.36	4.57
482.795	4.57
483.229	4.57
483.664	4.57
484.099	4.57
484.534	4.58
484.968	4.59
485.403	4.59
485.837	4.61
486.271	4.63
486.706	4.65
487.14	4.66
487.574	4.68
488.009	4.7
488.443	4.72
488.877	4.75
489.311	4.78
489.745	4.81
490.179	4.85
490.613	4.88
491.046	4.91
491.48	4.95
491.914	5
492.348	5.05
492.781	5.11
493.215	5.16
493.648	5.21
494.082	5.27
494.515	5.32
494.948	5.38
495.382	5.44
495.815	5.51
496.248	5.59
496.681	5.66
497.114	5.73
497.547	5.81
497.98	5.89
498.413	5.98
498.846	6.07
499.279	6.16
499.711	6.26
500.144	6.37
500.577	6.48
501.009	6.59
501.442	6.7
501.874	6.83
502.306	6.95
502.739	7.09
503.171	7.24
503.603	7.38
504.036	7.53
504.468	7.68
504.9	7.84
505.332	7.99
505.764	8.15
506.196	8.33
506.627	8.5
507.059	8.69
507.491	8.86
507.923	9.04
508.354	9.26
508.786	9.46
509.217	9.68
509.649	9.89
510.08	10.12
510.512	10.35
510.943	10.57
511.374	10.8
511.805	11.04
512.237	11.29
512.668	11.54
513.099	11.77
513.53	12.02
513.961	12.28
514.391	12.54
514.822	12.81
515.253	13.08
515.684	13.34
516.114	13.6
516.545	13.87
516.975	14.15
517.406	14.41
517.836	14.68
518.267	14.95
518.697	15.2
519.127	15.45
519.558	15.71
519.988	15.95
520.418	16.19
520.848	16.44
521.278	16.68
521.708	17.08
522.138	17.32
522.567	17.55
522.997	17.77
523.427	17.98
523.857	18.18
524.286	18.38
524.716	18.59
525.145	18.78
525.575	18.96
526.004	19.15
526.433	19.15
526.863	19.31
527.292	19.48
527.721	19.63
528.15	19.78
528.579	19.93
529.008	20.06
529.437	20.18
529.866	20.3
530.295	20.43
530.724	20.54
531.152	20.65
531.581	20.75
532.01	20.84
532.438	20.94
532.867	21.03
533.295	21.11
533.723	21.2
534.152	21.28
534.58	21.34
535.008	21.38
535.436	21.44
535.865	21.48
536.293	21.53
536.721	21.57
537.149	21.61
537.576	21.65
538.004	21.69
538.432	21.72
538.86	21.73
539.287	21.76
539.715	21.8
540.143	21.82
540.57	21.85
540.998	21.87
541.425	21.9
541.852	21.92
542.28	21.95
542.707	21.96
543.134	21.96
543.561	22
543.988	22.02
544.415	22.03
544.842	22.04
545.269	22.07
545.696	22.1
546.123	22.11
546.549	22.12
546.976	22.14
547.403	22.16
547.829	22.18
548.256	22.2
548.682	22.21
549.108	22.25
549.535	22.28
549.961	22.29
550.387	22.3
550.813	22.32
551.24	22.32
551.666	22.31
552.092	22.32
552.518	22.31
552.943	22.31
553.369	22.3
553.795	22.27
554.221	22.24
554.646	22.2
555.072	22.17
555.498	22.13
555.923	22.08
556.349	22.04
556.774	21.98
557.199	21.95
557.625	21.89
558.05	21.82
558.475	21.76
558.9	21.69
559.325	21.64
559.75	21.56
560.175	21.49
560.6	21.4
561.025	21.33
561.449	21.24
561.874	21.13
562.299	21.03
562.723	20.93
563.148	20.83
563.572	20.7
563.997	20.58
564.421	20.46
564.846	20.33
565.27	20.2
565.694	20.07
566.118	19.93
566.542	19.8
566.966	19.66
567.39	19.52
567.814	19.39
568.238	19.25
568.662	19.13
569.086	18.99
569.509	18.86
569.933	18.73
570.357	18.6
570.78	18.47
571.204	18.34
571.627	18.24
572.05	18.11
572.474	18.01
572.897	17.91
573.32	17.79
573.743	17.68
574.166	17.58
574.589	17.47
575.012	17.38
575.435	17.29
575.858	17.19
576.281	17.09
576.704	17
577.126	16.89
577.549	16.8
577.972	16.71
578.394	16.62
578.817	16.54
579.239	16.46
579.661	16.38
580.084	16.3
580.506	16.23
580.928	16.15
581.35	16.07
581.772	16
582.194	15.93
582.616	15.86
583.038	15.79
583.46	15.71
583.882	15.63
584.303	15.57
584.725	15.5
585.147	15.45
585.568	15.38
585.99	15.32
586.411	15.26
586.833	15.19
587.254	15.15
587.675	15.11
588.096	15.07
588.518	15.01
588.939	14.96
589.36	14.92
589.781	14.86
590.202	14.83
590.623	14.8
591.043	14.76
591.464	14.73
591.885	14.68
592.305	14.63
592.726	14.61
593.147	14.58
593.567	14.55
593.987	14.51
594.408	14.48
594.828	14.43
595.248	14.39
595.669	14.37
596.089	14.33
596.509	14.29
596.929	14.27
597.349	14.22
597.769	14.18
598.189	14.13
598.608	14.1
599.028	14.07
599.448	14.04
599.867	14
600.287	13.96
600.706	13.92
601.126	13.88
601.545	13.84
601.965	13.81
602.384	13.77
602.803	13.74
603.222	13.68
603.641	13.63
604.061	13.59
604.48	13.53
604.898	13.48
605.317	13.43
605.736	13.37
606.155	13.32
606.574	13.25
606.992	13.18
607.411	13.12
607.829	13.04
608.248	12.98
608.666	12.91
609.085	12.85
609.503	12.79
609.921	12.72
610.339	12.65
610.758	12.57
611.176	12.5
611.594	12.44
612.012	12.37
612.43	12.32
612.847	12.24
613.265	12.18
613.683	12.13
614.101	12.07
614.518	12
614.936	11.93
615.353	11.87
615.771	11.82
616.188	11.75
616.606	11.7
617.023	11.64
617.44	11.6
617.857	11.54
618.274	11.48
618.691	11.43
619.108	11.39
619.525	11.35
619.942	11.33
620.359	11.29
620.776	11.26
621.192	11.23
621.609	11.2
622.026	11.16
622.442	11.15
622.859	11.13
623.275	11.11
623.691	11.1
624.108	11.07
624.524	11.05
624.94	11.03
625.356	11.01
625.772	11
626.188	10.99
626.604	10.98
627.02	10.95
627.436	10.94
627.852	10.92
628.268	10.9
628.683	10.89
629.099	10.87
629.514	10.86
629.93	10.83
630.345	10.81
630.761	10.77
631.176	10.74
631.591	10.7
632.007	10.66
632.422	10.61
632.837	10.56
633.252	10.49
633.667	10.43
634.082	10.36
634.497	10.29
634.911	10.2
635.326	10.13
635.741	10.04
636.155	9.94
636.57	9.83
636.984	9.74
637.399	9.64
637.813	9.53
638.228	9.41
638.642	9.29
639.056	9.16
639.47	9.05
639.884	8.93
640.298	8.81
640.712	8.69
641.126	8.58
641.54	8.46
641.954	8.33
642.368	8.23
642.781	8.13
643.195	8.02
643.609	7.94
644.022	7.83
644.436	7.73
644.849	7.64
645.262	7.54
645.676	7.45
646.089	7.37
646.502	7.3
646.915	7.23
647.328	7.17
647.741	7.1
648.154	7.04
648.567	6.99
648.98	6.95
649.393	6.91
649.805	6.88
650.218	6.85
650.631	6.83
651.043	6.8
651.456	6.76
651.868	6.72
652.28	6.7
652.693	6.67
653.105	6.65
653.517	6.6
653.929	6.56
654.341	6.52
654.753	6.47
655.165	6.4
655.577	6.35
655.989	6.29
656.401	6.24
656.813	6.18
657.224	6.12
657.636	6.03
658.047	5.98
658.459	5.91
658.87	5.84
659.282	5.75
659.693	5.69
660.104	5.61
660.515	5.54
660.926	5.47
661.338	5.39
661.749	5.32
662.159	5.26
662.57	5.19
662.981	5.13
663.392	5.07
663.803	5.02
664.213	4.96
664.624	4.91
665.035	4.86
665.445	4.82
665.855	4.78
666.266	4.76
666.676	4.73
667.086	4.7
667.497	4.67
667.907	4.65
668.317	4.63
668.727	4.62
669.137	4.62
669.547	4.61
669.956	4.6
670.366	4.59
670.776	4.59
671.186	4.59
671.595	4.59
672.005	4.6
672.414	4.6
672.824	4.61
673.233	4.62
673.642	4.63
674.052	4.65
674.461	4.67
674.87	4.69
675.279	4.71
675.688	4.74
676.097	4.78
676.506	4.81
676.915	4.85
677.323	4.89
677.732	4.92
678.141	4.97
678.549	5
678.958	5.06
679.366	5.12
679.775	5.17
680.183	5.24
680.592	5.3
681	5.39
681.408	5.48
681.816	5.58
682.224	5.7
682.632	5.82
683.04	5.96
683.448	6.1
683.856	6.25
684.264	6.42
684.671	6.61
685.079	6.82
685.487	7.04
685.894	7.29
686.302	7.54
686.709	7.83
687.116	8.14
687.524	8.47
687.931	8.83
688.338	9.21
688.745	9.59
689.152	10
689.559	10.43
689.966	10.87
690.373	11.35
690.78	11.84
691.187	12.32
691.593	12.82
692	13.33
692.407	13.84
692.813	14.37
693.22	14.9
693.626	15.42
694.032	15.96
694.439	16.48
694.845	16.99
695.251	17.51
695.657	18.03
696.063	18.55
696.469	19.08
696.875	19.59
697.281	20.1
697.687	20.6
698.093	21.11
698.498	21.58
698.904	22.07
699.31	22.55
699.715	23.01
700.12	23.48
700.526	23.92
700.931	24.35
701.337	24.78
701.742	25.2
702.147	25.6
702.552	26
702.957	26.39
703.362	26.77
703.767	27.11
704.172	27.47
704.577	27.81
704.981	28.17
705.386	28.52
705.791	28.87
706.195	29.2
706.6	29.55
707.004	29.87
707.408	30.19
707.813	30.53
708.217	30.87
708.621	31.19
709.025	31.48
709.43	31.74
709.834	32.03
710.237	32.29
710.641	32.55
711.045	32.8
711.449	33.06
711.853	33.32
712.256	33.55
712.66	33.78
713.064	34.01
713.467	34.25
713.87	34.5
714.274	34.69
714.677	34.93
715.08	35.14
715.484	35.38
715.887	35.61
716.29	35.8
716.693	36
717.096	36.21
717.499	36.41
717.901	36.6
718.304	36.8
718.707	37.01
719.109	37.19
719.512	37.37
719.915	37.53
720.317	37.66
720.719	37.79
721.122	37.95
721.524	38.07
721.926	38.22
722.328	38.38
722.731	38.5
723.133	38.65
723.535	38.76
723.937	38.89
724.338	39.01
724.74	39.15
725.142	39.37
725.544	39.47
725.945	39.62
726.347	39.69
726.748	39.77
727.15	39.84
727.551	39.93
727.952	40
728.354	40.1
728.755	40.17
729.156	40.23
729.557	40.2
729.958	40.3
730.359	40.37
730.76	40.45
731.161	40.52
731.562	40.62
731.962	40.66
732.363	40.74
732.763	40.78
733.164	40.83
733.564	40.9
733.965	40.97
734.365	41.02
734.766	41.06
735.166	41.12
735.566	41.16
735.966	41.2
736.366	41.25
736.766	41.3
737.166	41.35
737.566	41.41
737.966	41.45
738.365	41.49
738.765	41.54
739.165	41.57
739.564	41.59
739.964	41.61
740.363	41.62
740.763	41.65
741.162	41.66
741.561	41.65
741.96	41.64
742.36	41.66
742.759	41.66
743.158	41.64
743.557	41.65
743.955	41.64
744.354	41.68
744.753	41.72
745.152	41.75
745.55	41.77
745.949	41.81
746.348	41.86
746.746	41.84
747.144	41.88
747.543	41.91
747.941	41.93
748.339	41.95
748.737	41.96
749.136	41.98
749.534	41.98
749.932	41.98
750.33	41.97
750.727	41.99
751.125	42
751.523	42
751.921	42.01
752.318	42.04
752.716	42.03
753.113	42.06
753.511	42.05
753.908	42.06
754.305	42.09
754.703	42.08
755.1	42.05
755.497	42.06
755.894	42.01
756.291	42.01
756.688	41.96
757.085	41.97
757.482	41.91
757.878	41.93
758.275	41.9
758.672	41.86
759.068	41.88
759.465	41.85
759.861	41.84
760.258	41.88
760.654	41.89
761.05	41.9
761.447	41.91
761.843	41.88
762.239	41.87
762.635	41.88
763.031	41.89
763.427	41.87
763.822	41.91
764.218	41.94
764.614	41.94
765.01	41.92
765.405	41.91
765.801	41.92
766.196	41.97
766.592	41.97
766.987	41.96
767.382	41.98
767.778	41.99
768.173	41.99
768.568	41.95
768.963	41.96
769.358	41.98
769.753	41.99
770.148	41.97
770.542	41.96
770.937	41.97
771.332	41.98
771.726	41.97
772.121	41.97
772.515	41.96
772.91	41.97
773.304	41.99
773.699	41.97
774.093	41.99
774.487	42
774.881	42.02
775.275	42.03
775.669	42.02
776.063	42.01
776.457	42.03
776.851	42.03
777.245	42.02
777.638	42
778.032	42.02
778.425	42.05
778.819	42.05
779.212	42.07
779.606	42.06
779.999	42.08
780.392	42.1
780.786	42.09
781.179	42.11
781.572	42.15
781.965	42.16
782.358	42.16
782.751	42.13
783.143	42.13
783.536	42.12
783.929	42.13
784.322	42.14
784.714	42.13
785.107	42.14
785.499	42.14
785.891	42.12
786.284	42.14
786.676	42.12
787.068	42.11
787.46	42.1
787.852	42.09
788.245	42.08
788.636	42.06
789.028	42.07
789.42	42.06
789.812	42.05
790.204	42.06
790.595	42.06
790.987	42.07
791.378	42.1
791.77	42.11
792.161	42.12
792.553	42.13
792.944	42.14
793.335	42.14
793.726	42.18
794.117	42.18
794.508	42.13
794.899	42.14
795.29	42.13
795.681	42.1
796.072	42.13
796.463	42.17
796.853	42.15
797.244	42.17
797.634	42.18
798.025	42.18
798.415	42.17
798.806	42.22
799.196	42.2
799.586	42.23
799.976	42.27
800.366	42.29
800.756	42.28
801.146	42.32
801.536	42.33
801.926	42.32
802.316	42.3
802.706	42.36
803.095	42.36
803.485	42.36
803.874	42.36
804.264	42.36
804.653	42.33
805.043	42.32
805.432	42.32
805.821	42.35
806.21	42.37
806.599	42.43
806.988	42.42
807.377	42.43
807.766	42.45
808.155	42.44
808.544	42.45
808.933	42.48
809.321	42.47
809.71	42.46
810.098	42.41
810.487	42.4
810.875	42.37
811.264	42.36
811.652	42.37
812.04	42.36
812.428	42.39
812.816	42.37
813.204	42.37
813.592	42.36
813.98	42.38
814.368	42.42
814.756	42.45
815.144	42.44
815.531	42.44
815.919	42.43
816.306	42.43
816.694	42.44
817.081	42.44
817.469	42.46
817.856	42.49
818.243	42.47
818.63	42.46
819.017	42.45
819.404	42.44
819.791	42.45
820.178	42.44
820.565	42.46
820.952	42.45
821.339	42.45
821.725	42.44
822.112	42.44
822.498	42.46
822.885	42.47
823.271	42.47
823.657	42.46
824.044	42.44
824.43	42.47
824.816	42.47
825.202	42.46
825.588	42.48
825.974	42.47
826.36	42.46
826.746	42.44
827.132	42.43
827.517	42.42
827.903	42.45
828.289	42.46
828.674	42.45
829.06	42.42
829.445	42.41
829.83	42.39
830.216	42.4
830.601	42.37
830.986	42.37
831.371	42.34
831.756	42.35
832.141	42.32
832.526	42.31
832.911	42.32
833.295	42.33
833.68	42.33
834.065	42.32
834.449	42.29
834.834	42.31
835.218	42.3
835.603	42.32
835.987	42.3
836.371	42.29
836.755	42.26
837.139	42.22
837.524	42.22
837.908	42.22
838.291	42.25
838.675	42.25
839.059	42.24
839.443	42.22
839.827	42.2
840.21	42.19
840.594	42.2
840.977	42.21
841.361	42.22
841.744	42.19
842.127	42.18
842.511	42.15
842.894	42.13
843.277	42.13
843.66	42.13
844.043	42.14
844.426	42.14
844.809	42.11
845.191	42.12
845.574	42.11
845.957	42.13
846.339	42.13
846.722	42.14
847.104	42.15
847.487	42.17
847.869	42.17
848.252	42.15
848.634	42.15
849.016	42.16
849.398	42.16
849.78	42.18
850.162	42.17
850.544	42.15
850.926	42.14
851.307	42.14
851.689	42.15
852.071	42.16
852.452	42.18
852.834	42.18
853.215	42.18
853.597	42.21
853.978	42.21
854.359	42.23
854.741	42.25
855.122	42.26
855.503	42.25
855.884	42.23
856.265	42.21
856.646	42.22
857.026	42.24
857.407	42.25
857.788	42.23
858.169	42.24
858.549	42.24
858.93	42.24
859.31	42.24
859.69	42.23
860.071	42.26
860.451	42.26
860.831	42.23
861.211	42.22
861.591	42.2
861.971	42.19
862.351	42.18
862.731	42.19
863.111	42.18
863.491	42.18
863.87	42.17
864.25	42.16
864.629	42.16
865.009	42.18
865.388	42.17
865.768	42.18
866.147	42.16
866.526	42.15
866.905	42.14
867.284	42.16
867.663	42.15
868.042	42.16
868.421	42.18
868.8	42.19
869.179	42.18
869.558	42.19
869.936	42.18
870.315	42.19
870.693	42.19
871.072	42.18
871.45	42.19
871.828	42.2
872.207	42.21
872.585	42.17
872.963	42.18
873.341	42.18
873.719	42.19
874.097	42.19
874.475	42.22
874.853	42.24
875.23	42.26
875.608	42.26
875.986	42.26
876.363	42.25
876.741	42.27
877.118	42.27
877.495	42.29
877.873	42.27
878.25	42.3
878.627	42.28
879.004	42.28
879.381	42.29
879.758	42.29
880.135	42.29
880.512	42.29
880.889	42.29
881.265	42.28
881.642	42.27
882.019	42.29
882.395	42.27
882.772	42.25
883.148	42.23
883.524	42.21
883.901	42.21
884.277	42.18
884.653	42.17
885.029	42.16
885.405	42.16
885.781	42.15
886.157	42.14
886.532	42.13
886.908	42.12
887.284	42.11
887.659	42.1
888.035	42.06
888.411	42.06
888.786	42.08
889.161	42.09
889.537	42.08
889.912	42.07
890.287	42.05
890.662	42.03
891.037	42.05
891.412	42.02
891.787	42.01
892.162	42.02
892.536	42.01
892.911	41.98
893.286	41.96
893.66	41.94
894.035	41.93
894.409	41.91
894.784	41.92
895.158	41.89
895.532	41.92
895.906	41.93
896.281	41.91
896.655	41.9
897.029	41.91
897.402	41.89
897.776	41.9
898.15	41.9
898.524	41.92
898.898	41.93
899.271	41.95
899.645	41.95
900.018	41.96
900.392	41.98
900.765	41.99
901.138	41.99
901.511	42.01
901.884	42.03
902.258	42.05
902.631	42.05
903.003	42.08
903.376	42.07
903.749	42.07
904.122	42.07
904.495	42.07
904.867	42.07
905.24	42.07
905.612	42.08
905.985	42.05
906.357	42.03
906.729	42.05
907.102	42.01
907.474	41.99
907.846	41.98
908.218	41.98
908.59	42
908.962	42.02
909.334	42.03
909.705	42.02
910.077	42.03
910.449	42.06
910.82	42.04
911.192	42.06
911.563	42.06
911.935	42.08
912.306	42.08
912.677	42.07
913.048	42.05
913.419	42.04
913.79	42.03
914.161	42.05
914.532	42.01
914.903	42.02
915.274	42
915.645	42.01
916.015	41.99
916.386	41.99
916.756	41.96
917.127	41.99
917.497	41.98
917.868	41.98
918.238	41.96
918.608	42
918.978	42.01
919.348	42.04
919.718	42.03
920.088	42.04
920.458	42.02
920.828	42.04
921.198	42.02
921.567	42.03
921.937	42.07
922.306	42.08
922.676	42.08
923.045	42.06
923.415	42.05
923.784	42.05
924.153	42.05
924.522	42.05
924.891	42.05
925.26	42.06
925.629	42.07
925.998	42.05
926.367	42.05
926.736	42.04
927.104	42.06
927.473	42.02
927.842	41.97
928.21	41.98
928.578	41.96
928.947	41.94
929.315	41.89
929.683	41.87
930.051	41.85
930.42	41.85
930.788	41.8
931.156	41.75
931.523	41.75
931.891	41.8
932.259	41.82
932.627	41.83
932.994	41.82
933.362	41.82
933.729	41.83
934.097	41.82
934.464	41.79
934.831	41.8
935.199	41.86
935.566	41.89
935.933	41.81
936.3	41.74
936.667	41.75
937.034	41.8
937.401	41.85
937.767	41.82
938.134	41.83
938.501	41.87
938.867	41.89
939.234	41.82
939.6	41.8
939.967	41.9
940.333	41.91
940.699	41.92
941.065	41.82
941.431	41.8
941.798	41.8
942.163	41.79
942.529	41.72
942.895	41.71
943.261	41.7
943.627	41.67
943.992	41.69
944.358	41.72
944.723	41.73
945.089	41.73
945.454	41.73
945.82	41.73
946.185	41.75
946.55	41.78
946.915	41.8
947.28	41.79
947.645	41.83
948.01	41.79
948.375	41.77
948.74	41.72
949.104	41.77
949.469	41.78
949.834	41.79
950.198	41.74
950.562	41.71
950.927	41.65
951.291	41.6
951.655	41.52
952.02	41.48
952.384	41.44
952.748	41.44
953.112	41.36
953.476	41.24
953.839	41.15
954.203	41.12
954.567	41.07
954.931	41.02
955.294	41.02
955.658	41.04
956.021	41.02
956.385	40.98
956.748	40.95
957.111	40.96
957.474	40.98
957.837	40.98
958.2	41
958.563	40.99
958.926	41.01
959.289	41.03
959.652	41
960.015	40.99
960.377	41
960.74	41
961.102	41
961.465	41.04
961.827	41.1
962.189	41.1
962.552	41.1
962.914	41.06
963.276	41.06
963.638	41.01
964	41
964.362	41
964.724	41
965.085	40.98
965.447	40.9
965.809	40.87
966.17	40.84
966.532	40.83
966.893	40.88
967.255	40.88
967.616	40.89
967.977	40.9
968.338	40.85
968.699	40.87
969.061	40.87
969.421	40.89
969.782	40.89
970.143	40.9
970.504	40.93
970.865	40.87
971.225	40.89
971.586	40.88
971.946	40.91
972.307	40.93
972.667	40.91
973.027	40.92
973.388	40.92
973.748	40.92
974.108	40.91
974.468	40.87
974.828	40.95
975.188	40.89
975.548	40.89
975.907	40.87
976.267	40.87
976.627	40.9
976.986	40.86
977.346	40.81
977.705	40.8
978.064	40.84
978.424	40.87
978.783	40.78
979.142	40.77
979.501	40.83
979.86	40.86
980.219	40.88
980.578	40.86
980.937	40.9
981.296	40.91
981.654	40.9
982.013	40.87
982.371	40.87
982.73	40.91
983.088	40.89
983.447	40.86
983.805	40.83
984.163	40.79
984.521	40.78
984.879	40.8
985.237	40.87
985.595	40.91
985.953	40.9
986.311	40.88
986.669	40.77
987.026	40.82
987.384	40.8
987.741	40.76
988.099	40.79
988.456	40.79
988.814	40.73
989.171	40.71
989.528	40.72
989.885	40.74
990.242	40.8
990.599	40.96
990.956	40.93
991.313	40.9
991.67	41
992.027	41.1
992.383	41.16
992.74	41.27
993.096	41.22
993.453	41.17
993.809	41.21
994.165	41.21
994.522	41.28
994.878	41.35
995.234	41.4
995.59	41.36
995.946	41.31
996.302	41.32
996.658	41.25
997.013	41.3
997.369	41.37
997.725	41.37
998.08	41.47
998.436	41.43
998.791	41.46
999.147	41.45
999.502	41.48
999.857	41.43
1000.212	41.32
1000.567	41.34
1000.922	41.37
1001.277	41.36
1001.632	41.31
1001.987	41.26
1002.342	41.18
1002.696	41.14
1003.051	41.28
1003.406	41.34
1003.76	41.49
1004.114	41.48
1004.469	41.59
1004.823	41.86
1005.177	41.87
1005.531	41.91
1005.885	41.84
1006.239	41.8
1006.593	41.83
1006.947	41.85
1007.301	41.82
1007.655	41.7
1008.008	41.77
1008.362	41.76
1008.715	41.54
1009.069	41.57
1009.422	41.62
1009.776	41.71
1010.129	41.75
1010.482	41.75
1010.835	41.6
1011.188	41.76
1011.541	41.77
1011.894	41.98
1012.247	42.03
1012.6	41.96
1012.952	41.88
1013.305	41.96
1013.657	41.97
1014.01	42.19
1014.362	42.16
1014.715	42.3
1015.067	42.19
1015.419	42.32
1015.771	42.11
1016.123	42
1016.475	42.04
1016.827	42.18
1017.179	42.14
1017.531	42.24
1017.883	42.12
1018.234	42.27
1018.586	42.21
1018.938	42.22
1019.289	42.15
1019.64	42.13
1019.992	42.12
1020.343	42.17
1020.694	42.09
1021.045	42.11
1021.396	42.01
1021.747	42.19
1022.098	42.13
1022.449	42.04
1022.8	42.02
1023.151	41.96
1023.501	42.29
1023.852	42.39
1024.202	42.33
1024.553	42.39
1024.903	42.49
1025.253	42.79
1025.604	42.66
1025.954	42.57
1026.304	42.64
1026.654	42.97
1027.004	43.08
1027.354	43.01
1027.703	42.96
1028.053	43.15
1028.403	43.23
1028.753	43.03
1029.102	42.86
1029.452	42.89
1029.801	43.21
1030.15	43.36
1030.499	43.03
897.758	1494.93
901.051	1501.14
904.343	1498.14
907.636	1521.56
910.928	1482.55
914.22	1482.18
917.511	1457.06
920.803	1391.68
924.094	1385.05
927.384	1352.2
930.675	1294.84
933.965	1287.71
937.255	1212.91
940.544	1163.28
943.834	1106.84
947.123	1095.99
950.411	1029.01
953.7	1008.65
956.988	957.49
960.276	914.64
963.563	901.39
966.851	869.99
970.138	862.78
973.424	834.47
976.711	839.3
979.997	796.1
983.283	793.24
986.568	777.67
989.853	751.82
993.138	738.06
996.423	711.87
999.708	690.66
1002.992	682.77
1006.275	650.16
1009.559	644.06
1012.842	621.8
1016.125	606.17
1019.408	593.89
1022.69	586.45
1025.972	576.03
1029.254	560.98
1032.536	551.3
1035.817	541.21
1039.098	533.82
1042.379	523.37
1045.659	517.71
1048.939	502.78
1052.219	492.82
1055.498	485.12
1058.778	473.18
1062.057	461.06
1065.335	456.11
1068.614	449.85
1071.892	444.98
1075.17	429.88
1078.447	421.92
1081.724	418.55
1085.001	415.96
1088.278	407.69
1091.554	399.65
1094.83	399.6
1098.106	397.41
1101.382	393.45
1104.657	390.76
1107.932	383.11
1111.206	385.19
1114.481	375.9
1117.755	371.52
1121.029	368.59
1124.302	368.43
1127.575	360.2
1130.848	356.14
1134.121	352.14
1137.393	350.43
1140.665	343.4
1143.937	341.84
1147.208	340.08
1150.48	339.35
1153.75	335.07
1157.021	329.18
1160.291	329.18
1163.561	326.81
1166.831	325.72
1170.101	323.36
1173.37	322.31
1176.639	322.99
1179.907	319.63
1183.176	316.06
1186.444	315.43
1189.711	315.58
1192.979	315.61
1196.246	311.91
1199.513	313.03
1202.78	311.44
1206.046	311.6
1209.312	308.45
1212.578	308.6
1215.843	311.04
1219.108	307.85
1222.373	314.87
1225.638	317.2
1228.902	321.53
1232.166	322.39
1235.43	324.68
1238.693	329.35
1241.956	331.1
1245.219	336.43
1248.482	336.39
1251.744	336.54
1255.006	339.06
1258.268	329.46
1261.529	325.92
1264.79	323.46
1268.051	322.29
1271.312	318.12
1274.572	313.59
1277.832	310.99
1281.092	305.56
1284.351	303.57
1287.61	303.11
1290.869	298.06
1294.128	296.69
1297.386	296.17
1300.644	292.75
1303.902	293.52
1307.159	292.39
1310.416	293.1
1313.673	292.07
1316.93	295.18
1320.186	295.29
1323.442	296.36
1326.697	301.82
1329.953	302.57
1333.208	304.21
1336.463	308.05
1339.717	308.36
1342.972	311.73
1346.226	313.92
1349.479	314.66
1352.733	316.58
1355.986	317.71
1359.238	317.79
1362.491	320.11
1365.743	322.38
1368.995	322.08
1372.247	321.44
1375.498	322.26
1378.749	325.37
1382	321.77
1385.251	323.53
1388.501	321.11
1391.751	323.19
1395	321.5
1398.25	318.73
1401.499	318.15
1404.748	318.37
1407.996	315.7
1411.244	313.79
1414.492	312.31
1417.74	309.71
1420.987	304.45
1424.234	304.92
1427.481	299.61
1430.728	300.49
1433.974	296.64
1437.22	294.05
1440.465	293.11
1443.711	290.74
1446.956	289.23
1450.201	284.45
1453.445	282.54
1456.689	281.86
1459.933	276.11
1463.177	275.99
1466.42	270.8
1469.663	268.18
1472.906	266.55
1476.148	259.51
1479.391	255.88
1482.633	253.37
1485.874	249.83
1489.115	247.84
1492.356	244.46
1495.597	244.25
1498.838	239.79
1502.078	237.97
1505.318	236.83
1508.557	236.86
1511.797	236.46
1515.036	234.95
1518.274	234.1
1521.513	231.62
1524.751	231.27
1527.989	230.31
1531.227	229.46
1534.464	230.15
1537.701	228.48
1540.938	227.64
1544.174	224.08
1547.41	224.24
1550.646	222.99
1553.882	222.62
1557.117	220.67
1560.352	218.92
1563.587	218.41
1566.821	216.89
1570.055	213.94
1573.289	212.69
1576.523	212.24
1579.756	210.99
1582.989	208.87
1586.222	208.99
1589.454	208.07
1592.686	209.36
1595.918	208.58
1599.15	207.76
1602.381	208.15
1605.612	208.22
1608.843	208.55
1612.073	208.38
1615.303	209.72
1618.533	210.54
1621.762	209.38
1624.992	209.99
1628.221	209.38
1631.449	208.72
1634.678	208.88
1637.906	209.72
1641.134	209.36
1644.361	209.08
1647.588	209.84
1650.815	208.53
1654.042	207.77
1657.269	209.32
1660.495	208.78
1663.72	207.97
1666.946	208.95
1670.171	209.04
1673.396	208.6
1676.621	209.03
1679.845	209.21
1683.069	209.11
1686.293	210.54
1689.517	211.74
1692.74	211.69
1695.963	212.29
1699.185	214.84
1702.408	215.04
1705.63	215.63
1708.852	216.41
1712.073	216.86
1715.294	217.37
1718.515	218.44
1721.736	218.32
1724.956	218.45
1728.176	218.34
1731.396	220.4
1734.616	219.38
1737.835	220.42
1741.054	218.86
1744.272	219.31
1747.491	221
1750.709	222.14
1753.927	222.01
1757.144	221.39
1760.361	222.83
1763.578	223.13
1766.795	222.4
1770.011	223.8
1773.227	223.7
1776.443	226.89
1779.658	227.63
1782.874	227.58
1786.089	228.01
1789.303	228.92
1792.518	231.59
1795.732	231.03
1798.945	234.22
1802.159	234.11
1805.372	235.02
1808.585	239.19
1811.797	240.62
1815.01	240.57
1818.222	242.44
1821.434	244.09
1824.645	245.03
1827.856	249.32
1831.067	251.62
1834.278	250.03
1837.488	252.2
1840.698	254.47
1843.908	252.16
1847.117	252.99
1850.326	255.04
1853.535	253.9
1856.744	258.35
1859.952	258.31
1863.16	256.59
1866.368	255.42
1869.575	259.62
1872.782	255.27
1875.989	254.83
1879.196	254.25
1882.402	252.9
1885.608	254.13
1888.814	255.49
1892.019	254.31
1895.224	253.72
1898.429	253.23
1901.634	254.61
1904.838	253.79
1908.042	257.64
1911.246	258.77
1914.449	260.18
1917.652	260.64
1920.855	260.59
1924.058	260.85
1927.26	259.51
1930.462	261.13
1933.664	263.81
1936.865	261.42
1940.066	261.88
1943.267	260.32
1946.467	259.92
1949.668	261.13
1952.868	264.76
1956.067	264.34
1959.267	264.17
1962.466	265.39
1965.665	262.79
1968.863	263.53
1972.061	268.46
1975.259	270.02
1978.457	271.93
1981.654	273.56
1984.852	275
1988.048	273.12
1991.245	276.33
1994.441	279.91
1997.637	281.54
2000.833	287.53
2004.028	291.01
2007.223	291.65
2010.418	295.57
2013.613	300.71
2016.807	304.41
2020.001	307
2023.194	311.72
2026.388	317.97
2029.581	324.05
2032.774	327.05
2035.966	333.93
2039.158	334.7
2042.35	340.93
2045.542	342.03
2048.733	347.73
2051.924	352.29
2055.115	357.4
2058.306	358.36
2061.496	362.22
2064.686	363.34
2067.875	370.58
2071.065	370.71
2074.254	369.23
2077.442	373.92
2080.631	375.34
2083.819	378.59
2087.007	378.05
2090.195	382.4
2093.382	386.3
2096.569	383.44
2099.756	389.6
2102.942	389.71
2106.128	393.78
2109.314	404.21
2112.5	402.81
2115.685	411.68
2118.87	411.83
2122.055	421.38
2125.239	424.74
2128.424	429.35
2131.608	432.84
2134.791	437.87
2137.974	439.7
2141.157	441.42
2144.34	440.4
2147.523	447.8
2150.705	445.3
2153.887	448.71
2157.068	449.34
2160.25	445.5
2163.431	446.07
2166.611	451.56
2169.792	460.59
2172.972	465.83
2176.152	468.45
2179.331	475.39
2182.511	481.84
2185.69	487.64
2188.868	499.94
2192.047	500.15
2195.225	514.5
2198.403	528.38
2201.58	538.13
2204.758	547.62
2207.935	558.47
2211.111	570.19
2214.288	575.58
2217.464	578.19
2220.64	588.04
2223.815	594.58
2226.991	618.87
2230.166	620.52
2233.34	632.3
2236.515	641.04
2239.689	642.2
2242.863	645.74
2246.036	664.9
2249.209	659.52
2252.382	670.07
2255.555	687.83
2258.727	689.85
2261.9	695.79
2265.071	702.64
2268.243	713.98
2271.414	723.34
2274.585	738.85
2277.756	747.62
2280.926	751.63
2284.096	769.8
2287.266	787.33
2290.436	795.44
2293.605	813.75
2296.774	838.45
2299.942	863.7
2303.111	866.93
2306.279	887.56
2309.447	900.78
2312.614	920.46
2315.781	946.46
2318.948	990.51
2322.115	975.24
2325.281	1028.01
2328.447	1007.31
2331.613	1048.56
2334.779	1036.89
2337.944	1085.46
2341.109	1093
2344.274	1122.91
2347.438	1168.68
2350.602	1165.47
2353.766	1202.53
2356.929	1222.36
2360.092	1214.74
2363.255	1305.69
2366.418	1299.63
2369.58	1328.11
2372.742	1412.15
2375.904	1449.59
2379.066	1439.35
2382.227	1405.95
2385.388	1529.1
2388.548	1524.88
2391.709	1546.08
2394.869	1720.67
2398.029	1644.09
2401.188	1689.89
2404.347	1678.2
2407.506	1646.97
2410.665	1693.77
2413.823	1797.46
2416.981	1905.6
2420.139	1842.39
2423.296	1827.09
2426.453	1906.77
2429.61	1835.92
2432.767	1920.49
2435.923	1905.74
2439.079	2075.8
2442.235	2105.83
2445.391	2088.96
2448.546	2071.92
2451.701	2016.38
2454.855	2017.02
2458.009	2141.45
2461.163	2222.81
2464.317	2300.45
2467.471	2361.78
2470.624	2355.3
2473.777	2305.77
2476.929	2242.89
2480.082	2176.89
2483.234	2152.78
2486.385	2249.86
2489.537	2261.02
2492.688	2344.44
2495.839	2283.15
2498.989	2237.1
2502.14	2244.79
2505.29	2280.68
2508.439	2303.81
2511.589	2298.19
2514.738	2509.55
2517.887	2458.09
2521.035	2609.19
2524.183	2623.56
2527.331	2644.47
2530.479	2632.48
2533.627	2647.5
