Data from C_3_DEC_CT_2N_Splice17_13-54-41-857.txt Node
Date: Sat Mar 07 13:54:41 EST 2020
User: sa697716
Spectrometer: NQ5500242
Trigger mode: 0
Integration Time (sec): 1.450000E-1
Scans to average: 20
Nonlinearity correction enabled: false
Boxcar width: 5
Storing dark spectrum: false
XAxis mode: Wavelengths
Number of Pixels in Spectrum: 512
>>>>>Begin Spectral Data<<<<<
187.83	224.9
188.298	255.55
188.766	231.18
189.233	199.49
189.701	221.64
190.169	256.38
190.636	292.43
191.104	417.06
191.571	196.43
192.039	231.9
192.506	143.53
192.974	-115.63
193.441	-36.08
193.908	-38.09
194.375	23.17
194.842	72.55
195.31	155.29
195.777	473.91
196.244	80.59
196.711	57.51
197.177	57.01
197.644	55.32
198.111	55.45
198.578	55.34
199.045	55.79
199.511	55.54
199.978	55.22
200.445	55.01
200.911	54.7
201.378	54.54
201.844	54.58
202.31	54.59
202.777	54.69
203.243	54.71
203.709	54.12
204.176	53.35
204.642	53.06
205.108	52.48
205.574	52.07
206.04	51.37
206.506	50.91
206.972	50.4
207.438	49.82
207.903	48.74
208.369	47.56
208.835	46.98
209.301	46.14
209.766	44.75
210.232	43.74
210.697	42.5
211.163	41.54
211.628	40.57
212.094	39.61
212.559	38.7
213.024	37.94
213.49	37.15
213.955	36.15
214.42	35.32
214.885	34.39
215.35	33.22
215.815	31.59
216.28	29.53
216.745	27.18
217.21	24.8
217.675	22.6
218.14	20.74
218.604	19.01
219.069	17.59
219.534	16.43
219.998	15.43
220.463	14.63
220.927	13.91
221.392	13.36
221.856	12.88
222.32	12.45
222.785	12.14
223.249	11.81
223.713	11.56
224.177	11.35
224.642	11.14
225.106	10.91
225.57	10.67
226.034	10.48
226.497	10.3
226.961	10.14
227.425	9.98
227.889	9.81
228.353	9.66
228.816	9.5
229.28	9.32
229.744	9.18
230.207	9.05
230.671	8.93
231.134	8.82
231.597	8.73
232.061	8.63
232.524	8.53
232.987	8.42
233.45	8.34
233.914	8.25
234.377	8.16
234.84	8.07
235.303	7.98
235.766	7.89
236.229	7.81
236.691	7.71
237.154	7.63
237.617	7.55
238.08	7.48
238.542	7.38
239.005	7.32
239.468	7.26
239.93	7.19
240.393	7.14
240.855	7.07
241.317	6.99
241.78	6.91
242.242	6.83
242.704	6.77
243.166	6.7
243.629	6.64
244.091	6.56
244.553	6.49
245.015	6.42
245.477	6.34
245.939	6.28
246.4	6.22
246.862	6.17
247.324	6.12
247.786	6.06
248.247	6
248.709	5.93
249.17	5.87
249.632	5.83
250.093	5.78
250.555	5.73
251.016	5.69
251.477	5.64
251.939	5.6
252.4	5.55
252.861	5.5
253.322	5.46
253.783	5.43
254.244	5.4
254.705	5.34
255.166	5.3
255.627	5.25
256.088	5.22
256.549	5.19
257.009	5.14
257.47	5.1
257.931	5.06
258.391	5.02
258.852	4.98
259.312	4.93
259.773	4.9
260.233	4.86
260.694	4.82
261.154	4.78
261.614	4.75
262.074	4.7
262.534	4.67
262.994	4.63
263.455	4.6
263.915	4.57
264.374	4.54
264.834	4.52
265.294	4.48
265.754	4.46
266.214	4.44
266.673	4.41
267.133	4.4
267.593	4.38
268.052	4.37
268.512	4.36
268.971	4.35
269.431	4.34
269.89	4.32
270.349	4.32
270.809	4.31
271.268	4.29
271.727	4.28
272.186	4.27
272.645	4.25
273.104	4.24
273.563	4.22
274.022	4.21
274.481	4.2
274.94	4.19
275.399	4.17
275.857	4.16
276.316	4.16
276.775	4.15
277.233	4.14
277.692	4.14
278.15	4.14
278.609	4.14
279.067	4.13
279.525	4.13
279.984	4.12
280.442	4.12
280.9	4.12
281.358	4.12
281.816	4.11
282.274	4.11
282.732	4.11
283.19	4.11
283.648	4.1
284.106	4.1
284.564	4.09
285.021	4.09
285.479	4.09
285.937	4.08
286.394	4.08
286.852	4.07
287.309	4.07
287.767	4.05
288.224	4.04
288.682	4.02
289.139	4.01
289.596	3.98
290.053	3.96
290.511	3.94
290.968	3.91
291.425	3.89
291.882	3.87
292.339	3.85
292.796	3.83
293.252	3.82
293.709	3.81
294.166	3.8
294.623	3.8
295.079	3.79
295.536	3.78
295.992	3.79
296.449	3.79
296.905	3.79
297.362	3.78
297.818	3.77
298.274	3.77
298.731	3.76
299.187	3.75
299.643	3.74
300.099	3.75
300.555	3.74
301.011	3.74
301.467	3.73
301.923	3.72
302.379	3.72
302.835	3.73
303.291	3.72
303.746	3.72
304.202	3.73
304.658	3.73
305.113	3.73
305.569	3.73
306.024	3.73
306.479	3.73
306.935	3.73
307.39	3.74
307.845	3.74
308.301	3.74
308.756	3.74
309.211	3.74
309.666	3.75
310.121	3.76
310.576	3.76
311.031	3.76
311.486	3.77
311.94	3.77
312.395	3.77
312.85	3.77
313.305	3.77
313.759	3.78
314.214	3.77
314.668	3.76
315.123	3.76
315.577	3.76
316.032	3.75
316.486	3.75
316.94	3.74
317.394	3.73
317.849	3.72
318.303	3.71
318.757	3.7
319.211	3.7
319.665	3.68
320.119	3.67
320.572	3.65
321.026	3.64
321.48	3.63
321.934	3.62
322.387	3.62
322.841	3.61
323.295	3.61
323.748	3.6
324.202	3.6
324.655	3.61
325.108	3.62
325.562	3.62
326.015	3.62
326.468	3.62
326.921	3.62
327.374	3.62
327.827	3.62
328.28	3.62
328.733	3.62
329.186	3.62
329.639	3.63
330.092	3.63
330.545	3.62
330.997	3.63
331.45	3.63
331.903	3.64
332.355	3.65
332.808	3.66
333.26	3.66
333.713	3.66
334.165	3.65
334.617	3.66
335.069	3.65
335.522	3.66
335.974	3.66
336.426	3.66
336.878	3.65
337.33	3.65
337.782	3.64
338.234	3.66
338.686	3.65
339.137	3.66
339.589	3.65
340.041	3.64
340.493	3.63
340.944	3.61
341.396	3.6
341.847	3.6
342.299	3.58
342.75	3.57
343.201	3.54
343.653	3.53
344.104	3.51
344.555	3.49
345.006	3.48
345.457	3.48
345.908	3.47
346.359	3.47
346.81	3.46
347.261	3.45
347.712	3.45
348.163	3.44
348.613	3.45
349.064	3.46
349.515	3.46
349.965	3.46
350.416	3.45
350.866	3.46
351.317	3.44
351.767	3.44
352.217	3.45
352.668	3.46
353.118	3.46
353.568	3.45
354.018	3.45
354.468	3.46
354.918	3.46
355.368	3.47
355.818	3.47
356.268	3.48
356.718	3.48
357.168	3.48
357.617	3.47
358.067	3.47
358.517	3.49
358.966	3.49
359.416	3.49
359.865	3.49
360.315	3.49
360.764	3.49
361.213	3.49
361.663	3.48
362.112	3.5
362.561	3.5
363.01	3.5
363.459	3.49
363.908	3.48
364.357	3.49
364.806	3.48
365.255	3.48
365.703	3.49
366.152	3.5
366.601	3.51
367.05	3.5
367.498	3.51
367.947	3.51
368.395	3.52
368.844	3.53
369.292	3.52
369.74	3.52
370.189	3.52
370.637	3.53
371.085	3.52
371.533	3.52
371.981	3.51
372.429	3.52
372.877	3.51
373.325	3.51
373.773	3.5
374.221	3.5
374.669	3.5
375.116	3.5
375.564	3.49
376.012	3.49
376.459	3.48
376.907	3.48
377.354	3.48
377.801	3.49
378.249	3.49
378.696	3.5
379.143	3.5
379.591	3.5
380.038	3.51
380.485	3.51
380.932	3.51
381.379	3.52
381.826	3.53
382.273	3.53
382.72	3.52
383.166	3.52
383.613	3.52
384.06	3.52
384.506	3.52
384.953	3.52
385.4	3.53
385.846	3.54
386.292	3.54
386.739	3.54
387.185	3.54
387.631	3.55
388.078	3.55
388.524	3.55
388.97	3.56
389.416	3.58
389.862	3.59
390.308	3.6
390.754	3.61
391.2	3.63
391.645	3.65
392.091	3.67
392.537	3.69
392.983	3.7
393.428	3.72
393.874	3.73
394.319	3.74
394.765	3.75
395.21	3.74
395.655	3.75
396.101	3.77
396.546	3.78
396.991	3.79
397.436	3.79
397.881	3.82
398.326	3.84
398.771	3.87
399.216	3.88
399.661	3.91
400.106	3.93
400.551	3.94
400.995	3.94
401.44	3.95
401.885	3.97
402.329	3.99
402.774	3.99
403.218	4.02
403.663	4.03
404.107	4.04
404.551	4.06
404.995	4.07
405.44	4.09
405.884	4.11
406.328	4.13
406.772	4.14
407.216	4.15
407.66	4.16
408.104	4.16
408.547	4.17
408.991	4.18
409.435	4.2
409.879	4.21
410.322	4.23
410.766	4.26
411.209	4.28
411.653	4.31
412.096	4.34
412.54	4.36
412.983	4.39
413.426	4.43
413.869	4.47
414.312	4.5
414.756	4.52
415.199	4.53
415.642	4.55
416.085	4.57
416.527	4.57
416.97	4.56
417.413	4.57
417.856	4.57
418.298	4.56
418.741	4.56
419.184	4.56
419.626	4.57
420.069	4.57
420.511	4.57
420.953	4.58
421.396	4.6
421.838	4.62
422.28	4.63
422.722	4.66
423.164	4.67
423.606	4.68
424.048	4.7
424.49	4.72
424.932	4.73
425.374	4.72
425.816	4.71
426.258	4.69
426.699	4.69
427.141	4.69
427.582	4.71
428.024	4.73
428.465	4.75
428.907	4.75
429.348	4.74
429.789	4.75
430.231	4.79
430.672	4.83
431.113	4.88
431.554	4.9
431.995	4.92
432.436	4.92
432.877	4.93
433.318	4.94
433.759	4.98
434.2	5.02
434.64	5.05
435.081	5.06
435.522	5.07
435.962	5.08
436.403	5.12
436.843	5.14
437.284	5.14
437.724	5.15
438.164	5.13
438.604	5.13
439.045	5.12
439.485	5.13
439.925	5.13
440.365	5.13
440.805	5.12
441.245	5.12
441.685	5.13
442.125	5.15
442.564	5.14
443.004	5.17
443.444	5.18
443.883	5.2
444.323	5.2
444.762	5.22
445.202	5.23
445.641	5.26
446.081	5.28
446.52	5.28
446.959	5.29
447.398	5.33
447.837	5.33
448.276	5.35
448.716	5.35
449.154	5.35
449.593	5.37
450.032	5.37
450.471	5.35
450.91	5.33
451.349	5.34
451.787	5.33
452.226	5.31
452.664	5.31
453.103	5.3
453.541	5.28
453.98	5.29
454.418	5.25
454.856	5.24
455.295	5.23
455.733	5.22
456.171	5.19
456.609	5.19
457.047	5.17
457.485	5.15
457.923	5.14
458.361	5.14
458.798	5.12
459.236	5.11
459.674	5.1
460.111	5.1
460.549	5.1
460.987	5.11
461.424	5.1
461.862	5.12
462.299	5.13
462.736	5.12
463.173	5.13
463.611	5.15
464.048	5.17
464.485	5.18
464.922	5.18
465.359	5.19
465.796	5.21
466.233	5.22
466.67	5.22
467.106	5.24
467.543	5.24
467.98	5.23
468.416	5.22
468.853	5.21
469.29	5.21
469.726	5.2
470.162	5.18
470.599	5.15
471.035	5.13
471.471	5.12
471.907	5.09
472.344	5.08
472.78	5.08
473.216	5.06
473.652	5.05
474.088	5.02
474.523	5.03
474.959	5.03
475.395	5.02
475.831	5.01
476.266	5
476.702	5
477.138	4.99
477.573	4.98
478.008	4.99
478.444	4.97
478.879	4.98
479.314	4.96
479.75	4.94
480.185	4.93
480.62	4.92
481.055	4.9
481.49	4.89
481.925	4.88
482.36	4.87
482.795	4.86
483.229	4.85
483.664	4.84
484.099	4.83
484.534	4.82
484.968	4.82
485.403	4.81
485.837	4.81
486.271	4.82
486.706	4.82
487.14	4.81
487.574	4.81
488.009	4.81
488.443	4.81
488.877	4.81
489.311	4.83
489.745	4.83
490.179	4.85
490.613	4.86
491.046	4.86
491.48	4.87
491.914	4.88
492.348	4.9
492.781	4.91
493.215	4.94
493.648	4.96
494.082	4.97
494.515	4.99
494.948	5.01
495.382	5.03
495.815	5.05
496.248	5.08
496.681	5.11
497.114	5.14
497.547	5.17
497.98	5.21
498.413	5.23
498.846	5.27
499.279	5.3
499.711	5.34
500.144	5.39
500.577	5.44
501.009	5.49
501.442	5.55
501.874	5.61
502.306	5.67
502.739	5.74
503.171	5.81
503.603	5.88
504.036	5.96
504.468	6.02
504.9	6.1
505.332	6.18
505.764	6.26
506.196	6.34
506.627	6.43
507.059	6.52
507.491	6.61
507.923	6.73
508.354	6.84
508.786	6.97
509.217	7.11
509.649	7.24
510.08	7.37
510.512	7.52
510.943	7.67
511.374	7.82
511.805	7.97
512.237	8.13
512.668	8.29
513.099	8.46
513.53	8.63
513.961	8.81
514.391	8.99
514.822	9.18
515.253	9.37
515.684	9.58
516.114	9.79
516.545	10.01
516.975	10.23
517.406	10.44
517.836	10.66
518.267	10.89
518.697	11.11
519.127	11.34
519.558	11.57
519.988	11.8
520.418	12.02
520.848	12.22
521.278	12.45
521.708	12.86
522.138	13.1
522.567	13.31
522.997	13.51
523.427	13.72
523.857	13.93
524.286	14.13
524.716	14.33
525.145	14.53
525.575	14.74
526.004	14.93
526.433	14.92
526.863	15.1
527.292	15.29
527.721	15.46
528.15	15.62
528.579	15.78
529.008	15.94
529.437	16.07
529.866	16.21
530.295	16.34
530.724	16.47
531.152	16.59
531.581	16.7
532.01	16.8
532.438	16.92
532.867	17.02
533.295	17.12
533.723	17.21
534.152	17.3
534.58	17.38
535.008	17.45
535.436	17.53
535.865	17.59
536.293	17.64
536.721	17.7
537.149	17.75
537.576	17.8
538.004	17.84
538.432	17.88
538.86	17.94
539.287	17.96
539.715	18
540.143	18.05
540.57	18.08
540.998	18.12
541.425	18.14
541.852	18.19
542.28	18.22
542.707	18.26
543.134	18.29
543.561	18.33
543.988	18.38
544.415	18.4
544.842	18.42
545.269	18.47
545.696	18.51
546.123	18.54
546.549	18.56
546.976	18.6
547.403	18.62
547.829	18.65
548.256	18.67
548.682	18.69
549.108	18.73
549.535	18.75
549.961	18.77
550.387	18.77
550.813	18.81
551.24	18.81
551.666	18.79
552.092	18.79
552.518	18.78
552.943	18.77
553.369	18.74
553.795	18.7
554.221	18.66
554.646	18.61
555.072	18.57
555.498	18.51
555.923	18.45
556.349	18.4
556.774	18.34
557.199	18.28
557.625	18.2
558.05	18.14
558.475	18.06
558.9	17.99
559.325	17.92
559.75	17.83
560.175	17.75
560.6	17.66
561.025	17.56
561.449	17.44
561.874	17.32
562.299	17.2
562.723	17.06
563.148	16.93
563.572	16.79
563.997	16.65
564.421	16.5
564.846	16.35
565.27	16.19
565.694	16.04
566.118	15.9
566.542	15.76
566.966	15.59
567.39	15.45
567.814	15.3
568.238	15.15
568.662	15
569.086	14.87
569.509	14.73
569.933	14.6
570.357	14.44
570.78	14.3
571.204	14.17
571.627	14.04
572.05	13.91
572.474	13.8
572.897	13.68
573.32	13.57
573.743	13.44
574.166	13.33
574.589	13.21
575.012	13.11
575.435	13.02
575.858	12.92
576.281	12.83
576.704	12.74
577.126	12.64
577.549	12.56
577.972	12.47
578.394	12.39
578.817	12.33
579.239	12.25
579.661	12.19
580.084	12.13
580.506	12.06
580.928	11.99
581.35	11.93
581.772	11.87
582.194	11.8
582.616	11.75
583.038	11.69
583.46	11.61
583.882	11.54
584.303	11.47
584.725	11.41
585.147	11.36
585.568	11.32
585.99	11.27
586.411	11.22
586.833	11.18
587.254	11.12
587.675	11.07
588.096	11.05
588.518	11.01
588.939	10.97
589.36	10.93
589.781	10.89
590.202	10.87
590.623	10.83
591.043	10.78
591.464	10.75
591.885	10.73
592.305	10.7
592.726	10.68
593.147	10.65
593.567	10.63
593.987	10.6
594.408	10.56
594.828	10.51
595.248	10.48
595.669	10.46
596.089	10.43
596.509	10.4
596.929	10.37
597.349	10.33
597.769	10.3
598.189	10.27
598.608	10.25
599.028	10.23
599.448	10.19
599.867	10.16
600.287	10.13
600.706	10.09
601.126	10.05
601.545	10.02
601.965	9.99
602.384	9.95
602.803	9.91
603.222	9.86
603.641	9.82
604.061	9.78
604.48	9.73
604.898	9.68
605.317	9.63
605.736	9.57
606.155	9.52
606.574	9.46
606.992	9.41
607.411	9.36
607.829	9.27
608.248	9.2
608.666	9.14
609.085	9.08
609.503	9.03
609.921	8.98
610.339	8.93
610.758	8.88
611.176	8.82
611.594	8.77
612.012	8.7
612.43	8.68
612.847	8.63
613.265	8.58
613.683	8.55
614.101	8.5
614.518	8.45
614.936	8.39
615.353	8.33
615.771	8.29
616.188	8.25
616.606	8.21
617.023	8.16
617.44	8.14
617.857	8.1
618.274	8.05
618.691	8.01
619.108	7.98
619.525	7.96
619.942	7.94
620.359	7.92
620.776	7.89
621.192	7.87
621.609	7.85
622.026	7.82
622.442	7.81
622.859	7.79
623.275	7.78
623.691	7.76
624.108	7.74
624.524	7.72
624.94	7.71
625.356	7.71
625.772	7.7
626.188	7.7
626.604	7.69
627.02	7.68
627.436	7.68
627.852	7.68
628.268	7.68
628.683	7.68
629.099	7.67
629.514	7.66
629.93	7.65
630.345	7.65
630.761	7.62
631.176	7.61
631.591	7.58
632.007	7.57
632.422	7.54
632.837	7.51
633.252	7.48
633.667	7.45
634.082	7.4
634.497	7.38
634.911	7.33
635.326	7.29
635.741	7.25
636.155	7.21
636.57	7.17
636.984	7.13
637.399	7.09
637.813	7.04
638.228	6.98
638.642	6.92
639.056	6.85
639.47	6.79
639.884	6.74
640.298	6.68
640.712	6.62
641.126	6.56
641.54	6.49
641.954	6.42
642.368	6.36
642.781	6.32
643.195	6.26
643.609	6.21
644.022	6.15
644.436	6.1
644.849	6.04
645.262	5.98
645.676	5.93
646.089	5.88
646.502	5.84
646.915	5.8
647.328	5.77
647.741	5.74
648.154	5.71
648.567	5.69
648.98	5.66
649.393	5.64
649.805	5.64
650.218	5.62
650.631	5.61
651.043	5.59
651.456	5.57
651.868	5.56
652.28	5.54
652.693	5.53
653.105	5.51
653.517	5.5
653.929	5.49
654.341	5.45
654.753	5.43
655.165	5.4
655.577	5.39
655.989	5.36
656.401	5.32
656.813	5.31
657.224	5.28
657.636	5.24
658.047	5.21
658.459	5.17
658.87	5.14
659.282	5.1
659.693	5.08
660.104	5.04
660.515	5.01
660.926	4.98
661.338	4.93
661.749	4.91
662.159	4.89
662.57	4.87
662.981	4.85
663.392	4.83
663.803	4.82
664.213	4.8
664.624	4.8
665.035	4.78
665.445	4.78
665.855	4.78
666.266	4.77
666.676	4.77
667.086	4.76
667.497	4.76
667.907	4.76
668.317	4.77
668.727	4.77
669.137	4.77
669.547	4.77
669.956	4.77
670.366	4.78
670.776	4.78
671.186	4.79
671.595	4.79
672.005	4.79
672.414	4.81
672.824	4.82
673.233	4.83
673.642	4.85
674.052	4.87
674.461	4.88
674.87	4.89
675.279	4.91
675.688	4.94
676.097	4.96
676.506	4.98
676.915	5.01
677.323	5.03
677.732	5.04
678.141	5.06
678.549	5.08
678.958	5.11
679.366	5.15
679.775	5.16
680.183	5.19
680.592	5.23
681	5.28
681.408	5.31
681.816	5.37
682.224	5.43
682.632	5.48
683.04	5.52
683.448	5.59
683.856	5.63
684.264	5.71
684.671	5.78
685.079	5.86
685.487	5.95
685.894	6.05
686.302	6.16
686.709	6.29
687.116	6.43
687.524	6.6
687.931	6.78
688.338	6.99
688.745	7.21
689.152	7.46
689.559	7.74
689.966	8.01
690.373	8.32
690.78	8.65
691.187	8.99
691.593	9.37
692	9.77
692.407	10.18
692.813	10.62
693.22	11.06
693.626	11.51
694.032	12
694.439	12.5
694.845	13.02
695.251	13.55
695.657	14.08
696.063	14.62
696.469	15.18
696.875	15.76
697.281	16.32
697.687	16.91
698.093	17.51
698.498	18.09
698.904	18.68
699.31	19.28
699.715	19.9
700.12	20.51
700.526	21.1
700.931	21.7
701.337	22.31
701.742	22.92
702.147	23.51
702.552	24.11
702.957	24.69
703.362	25.28
703.767	25.84
704.172	26.39
704.577	26.97
704.981	27.54
705.386	28.12
705.791	28.69
706.195	29.25
706.6	29.82
707.004	30.37
707.408	30.94
707.813	31.51
708.217	32.09
708.621	32.67
709.025	33.21
709.43	33.75
709.834	34.3
710.237	34.84
710.641	35.37
711.045	35.91
711.449	36.46
711.853	36.98
712.256	37.47
712.66	37.96
713.064	38.47
713.467	38.97
713.87	39.48
714.274	39.97
714.677	40.46
715.08	40.92
715.484	41.39
715.887	41.88
716.29	42.31
716.693	42.8
717.096	43.24
717.499	43.68
717.901	44.12
718.304	44.55
718.707	44.98
719.109	45.4
719.512	45.84
719.915	46.26
720.317	46.62
720.719	47.01
721.122	47.39
721.524	47.79
721.926	48.19
722.328	48.55
722.731	48.89
723.133	49.22
723.535	49.58
723.937	49.91
724.338	50.22
724.74	50.56
725.142	50.98
725.544	51.27
725.945	51.59
726.347	51.84
726.748	52.14
727.15	52.41
727.551	52.71
727.952	52.96
728.354	53.2
728.755	53.43
729.156	53.65
729.557	53.77
729.958	53.99
730.359	54.18
730.76	54.39
731.161	54.59
731.562	54.81
731.962	54.96
732.363	55.14
732.763	55.33
733.164	55.5
733.564	55.66
733.965	55.83
734.365	56
734.766	56.16
735.166	56.32
735.566	56.43
735.966	56.55
736.366	56.68
736.766	56.8
737.166	56.94
737.566	57.07
737.966	57.18
738.365	57.26
738.765	57.38
739.165	57.46
739.564	57.57
739.964	57.67
740.363	57.76
740.763	57.85
741.162	57.96
741.561	58.01
741.96	58.07
742.36	58.15
742.759	58.23
743.158	58.29
743.557	58.34
743.955	58.39
744.354	58.47
744.753	58.54
745.152	58.61
745.55	58.65
745.949	58.71
746.348	58.78
746.746	58.82
747.144	58.88
747.543	58.92
747.941	59
748.339	59.03
748.737	59.02
749.136	59.07
749.534	59.08
749.932	59.1
750.33	59.13
750.727	59.14
751.125	59.17
751.523	59.18
751.921	59.19
752.318	59.2
752.716	59.24
753.113	59.28
753.511	59.28
753.908	59.36
754.305	59.38
754.703	59.38
755.1	59.42
755.497	59.45
755.894	59.45
756.291	59.49
756.688	59.49
757.085	59.49
757.482	59.51
757.878	59.52
758.275	59.49
758.672	59.5
759.068	59.55
759.465	59.55
759.861	59.6
760.258	59.64
760.654	59.63
761.05	59.66
761.447	59.68
761.843	59.69
762.239	59.69
762.635	59.69
763.031	59.7
763.427	59.66
763.822	59.67
764.218	59.66
764.614	59.67
765.01	59.68
765.405	59.69
765.801	59.68
766.196	59.7
766.592	59.72
766.987	59.75
767.382	59.76
767.778	59.78
768.173	59.79
768.568	59.78
768.963	59.76
769.358	59.79
769.753	59.79
770.148	59.79
770.542	59.8
770.937	59.82
771.332	59.8
771.726	59.82
772.121	59.82
772.515	59.84
772.91	59.85
773.304	59.86
773.699	59.85
774.093	59.83
774.487	59.83
774.881	59.83
775.275	59.79
775.669	59.77
776.063	59.77
776.457	59.8
776.851	59.76
777.245	59.75
777.638	59.74
778.032	59.75
778.425	59.8
778.819	59.81
779.212	59.84
779.606	59.91
779.999	59.93
780.392	59.94
780.786	59.94
781.179	59.98
781.572	60.04
781.965	60.09
782.358	60.06
782.751	60.06
783.143	60.07
783.536	60.04
783.929	60.01
784.322	60.01
784.714	60
785.107	60.02
785.499	60
785.891	59.99
786.284	60
786.676	60.07
787.068	60.06
787.46	60.06
787.852	60.05
788.245	60.08
788.636	60.09
789.028	60.09
789.42	60.08
789.812	60.08
790.204	60.1
790.595	60.08
790.987	60.04
791.378	60.09
791.77	60.11
792.161	60.11
792.553	60.13
792.944	60.12
793.335	60.13
793.726	60.16
794.117	60.16
794.508	60.14
794.899	60.13
795.29	60.15
795.681	60.08
796.072	60.11
796.463	60.15
796.853	60.13
797.244	60.16
797.634	60.19
798.025	60.22
798.415	60.21
798.806	60.22
799.196	60.26
799.586	60.27
799.976	60.32
800.366	60.33
800.756	60.32
801.146	60.34
801.536	60.36
801.926	60.36
802.316	60.38
802.706	60.43
803.095	60.44
803.485	60.44
803.874	60.45
804.264	60.48
804.653	60.51
805.043	60.53
805.432	60.52
805.821	60.54
806.21	60.55
806.599	60.53
806.988	60.51
807.377	60.5
807.766	60.49
808.155	60.5
808.544	60.5
808.933	60.47
809.321	60.46
809.71	60.49
810.098	60.48
810.487	60.47
810.875	60.48
811.264	60.52
811.652	60.56
812.04	60.57
812.428	60.6
812.816	60.6
813.204	60.61
813.592	60.59
813.98	60.62
814.368	60.62
814.756	60.61
815.144	60.62
815.531	60.6
815.919	60.59
816.306	60.59
816.694	60.59
817.081	60.58
817.469	60.61
817.856	60.65
818.243	60.62
818.63	60.62
819.017	60.63
819.404	60.63
819.791	60.64
820.178	60.64
820.565	60.62
820.952	60.61
821.339	60.6
821.725	60.59
822.112	60.62
822.498	60.64
822.885	60.65
823.271	60.68
823.657	60.64
824.044	60.64
824.43	60.68
824.816	60.68
825.202	60.68
825.588	60.68
825.974	60.65
826.36	60.64
826.746	60.61
827.132	60.59
827.517	60.6
827.903	60.64
828.289	60.66
828.674	60.61
829.06	60.61
829.445	60.59
829.83	60.56
830.216	60.56
830.601	60.55
830.986	60.56
831.371	60.54
831.756	60.53
832.141	60.51
832.526	60.47
832.911	60.46
833.295	60.47
833.68	60.49
834.065	60.5
834.449	60.49
834.834	60.45
835.218	60.43
835.603	60.43
835.987	60.39
836.371	60.35
836.755	60.33
837.139	60.31
837.524	60.32
837.908	60.32
838.291	60.35
838.675	60.34
839.059	60.34
839.443	60.33
839.827	60.33
840.21	60.33
840.594	60.36
840.977	60.35
841.361	60.38
841.744	60.32
842.127	60.29
842.511	60.27
842.894	60.28
843.277	60.28
843.66	60.25
844.043	60.28
844.426	60.27
844.809	60.28
845.191	60.29
845.574	60.27
845.957	60.28
846.339	60.26
846.722	60.23
847.104	60.24
847.487	60.22
847.869	60.23
848.252	60.22
848.634	60.22
849.016	60.2
849.398	60.21
849.78	60.24
850.162	60.22
850.544	60.23
850.926	60.27
851.307	60.27
851.689	60.28
852.071	60.29
852.452	60.29
852.834	60.31
853.215	60.29
853.597	60.28
853.978	60.27
854.359	60.31
854.741	60.32
855.122	60.31
855.503	60.3
855.884	60.3
856.265	60.29
856.646	60.27
857.026	60.29
857.407	60.33
857.788	60.33
858.169	60.33
858.549	60.3
858.93	60.28
859.31	60.28
859.69	60.3
860.071	60.32
860.451	60.34
860.831	60.34
861.211	60.31
861.591	60.26
861.971	60.26
862.351	60.27
862.731	60.29
863.111	60.29
863.491	60.29
863.87	60.27
864.25	60.25
864.629	60.24
865.009	60.23
865.388	60.24
865.768	60.27
866.147	60.3
866.526	60.3
866.905	60.3
867.284	60.33
867.663	60.32
868.042	60.35
868.421	60.36
868.8	60.38
869.179	60.41
869.558	60.43
869.936	60.39
870.315	60.37
870.693	60.38
871.072	60.37
871.45	60.38
871.828	60.4
872.207	60.4
872.585	60.37
872.963	60.39
873.341	60.35
873.719	60.36
874.097	60.37
874.475	60.39
874.853	60.38
875.23	60.42
875.608	60.4
875.986	60.41
876.363	60.41
876.741	60.44
877.118	60.42
877.495	60.44
877.873	60.44
878.25	60.47
878.627	60.47
879.004	60.47
879.381	60.45
879.758	60.43
880.135	60.41
880.512	60.4
880.889	60.4
881.265	60.38
881.642	60.38
882.019	60.38
882.395	60.37
882.772	60.35
883.148	60.31
883.524	60.31
883.901	60.34
884.277	60.3
884.653	60.29
885.029	60.26
885.405	60.27
885.781	60.25
886.157	60.26
886.532	60.25
886.908	60.23
887.284	60.24
887.659	60.22
888.035	60.2
888.411	60.2
888.786	60.21
889.161	60.22
889.537	60.24
889.912	60.25
890.287	60.22
890.662	60.2
891.037	60.21
891.412	60.21
891.787	60.19
892.162	60.17
892.536	60.18
892.911	60.17
893.286	60.17
893.66	60.14
894.035	60.13
894.409	60.11
894.784	60.11
895.158	60.08
895.532	60.09
895.906	60.1
896.281	60.11
896.655	60.1
897.029	60.1
897.402	60.09
897.776	60.1
898.15	60.09
898.524	60.12
898.898	60.12
899.271	60.15
899.645	60.16
900.018	60.19
900.392	60.2
900.765	60.2
901.138	60.19
901.511	60.21
901.884	60.23
902.258	60.25
902.631	60.24
903.003	60.28
903.376	60.31
903.749	60.33
904.122	60.32
904.495	60.35
904.867	60.39
905.24	60.43
905.612	60.48
905.985	60.47
906.357	60.49
906.729	60.51
907.102	60.5
907.474	60.49
907.846	60.49
908.218	60.49
908.59	60.52
908.962	60.5
909.334	60.47
909.705	60.46
910.077	60.46
910.449	60.47
910.82	60.48
911.192	60.48
911.563	60.5
911.935	60.48
912.306	60.53
912.677	60.53
913.048	60.57
913.419	60.59
913.79	60.57
914.161	60.58
914.532	60.58
914.903	60.57
915.274	60.58
915.645	60.6
916.015	60.6
916.386	60.62
916.756	60.6
917.127	60.62
917.497	60.61
917.868	60.65
918.238	60.65
918.608	60.68
918.978	60.68
919.348	60.72
919.718	60.7
920.088	60.73
920.458	60.72
920.828	60.71
921.198	60.65
921.567	60.65
921.937	60.64
922.306	60.62
922.676	60.63
923.045	60.63
923.415	60.61
923.784	60.64
924.153	60.66
924.522	60.65
924.891	60.68
925.26	60.74
925.629	60.77
925.998	60.76
926.367	60.8
926.736	60.78
927.104	60.81
927.473	60.77
927.842	60.72
928.21	60.73
928.578	60.71
928.947	60.71
929.315	60.67
929.683	60.66
930.051	60.64
930.42	60.66
930.788	60.66
931.156	60.63
931.523	60.63
931.891	60.66
932.259	60.65
932.627	60.67
932.994	60.68
933.362	60.65
933.729	60.68
934.097	60.65
934.464	60.62
934.831	60.58
935.199	60.58
935.566	60.62
935.933	60.56
936.3	60.5
936.667	60.49
937.034	60.49
937.401	60.52
937.767	60.47
938.134	60.47
938.501	60.44
938.867	60.48
939.234	60.43
939.6	60.35
939.967	60.36
940.333	60.35
940.699	60.34
941.065	60.22
941.431	60.18
941.798	60.17
942.163	60.14
942.529	60.14
942.895	60.08
943.261	60.1
943.627	60.07
943.992	60.06
944.358	60.04
944.723	60.03
945.089	59.97
945.454	59.99
945.82	59.93
946.185	59.96
946.55	59.89
946.915	59.89
947.28	59.83
947.645	59.87
948.01	59.92
948.375	59.88
948.74	59.83
949.104	59.91
949.469	59.86
949.834	59.86
950.198	59.84
950.562	59.81
950.927	59.84
951.291	59.77
951.655	59.69
952.02	59.63
952.384	59.65
952.748	59.63
953.112	59.6
953.476	59.56
953.839	59.54
954.203	59.53
954.567	59.54
954.931	59.47
955.294	59.5
955.658	59.56
956.021	59.53
956.385	59.5
956.748	59.47
957.111	59.44
957.474	59.45
957.837	59.44
958.2	59.41
958.563	59.4
958.926	59.45
959.289	59.46
959.652	59.35
960.015	59.38
960.377	59.36
960.74	59.42
961.102	59.44
961.465	59.53
961.827	59.6
962.189	59.59
962.552	59.62
962.914	59.62
963.276	59.65
963.638	59.73
964	59.7
964.362	59.77
964.724	59.73
965.085	59.7
965.447	59.64
965.809	59.61
966.17	59.61
966.532	59.62
966.893	59.63
967.255	59.64
967.616	59.62
967.977	59.62
968.338	59.57
968.699	59.65
969.061	59.62
969.421	59.63
969.782	59.68
970.143	59.71
970.504	59.72
970.865	59.7
971.225	59.67
971.586	59.71
971.946	59.72
972.307	59.73
972.667	59.62
973.027	59.67
973.388	59.62
973.748	59.64
974.108	59.69
974.468	59.66
974.828	59.71
975.188	59.75
975.548	59.76
975.907	59.83
976.267	59.91
976.627	60
976.986	60.02
977.346	60.05
977.705	60.06
978.064	60.03
978.424	60.09
978.783	59.99
979.142	59.96
979.501	59.97
979.86	59.96
980.219	59.95
980.578	59.96
980.937	60
981.296	59.98
981.654	59.91
982.013	59.91
982.371	59.86
982.73	59.91
983.088	59.9
983.447	59.87
983.805	59.86
984.163	59.8
984.521	59.73
984.879	59.64
985.237	59.66
985.595	59.7
985.953	59.7
986.311	59.68
986.669	59.63
987.026	59.68
987.384	59.66
987.741	59.63
988.099	59.7
988.456	59.79
988.814	59.87
989.171	59.83
989.528	59.83
989.885	59.88
990.242	59.92
990.599	59.95
990.956	59.93
991.313	59.9
991.67	59.94
992.027	60.05
992.383	60.11
992.74	60.2
993.096	60.25
993.453	60.2
993.809	60.16
994.165	60.22
994.522	60.35
994.878	60.38
995.234	60.4
995.59	60.32
995.946	60.23
996.302	60.2
996.658	60.21
997.013	60.28
997.369	60.37
997.725	60.46
998.08	60.46
998.436	60.4
998.791	60.53
999.147	60.59
999.502	60.7
999.857	60.66
1000.212	60.51
1000.567	60.49
1000.922	60.37
1001.277	60.31
1001.632	60.14
1001.987	60.12
1002.342	60.08
1002.696	59.98
1003.051	60.23
1003.406	60.35
1003.76	60.37
1004.114	60.44
1004.469	60.5
1004.823	60.79
1005.177	60.84
1005.531	61.03
1005.885	61.09
1006.239	61.19
1006.593	61.15
1006.947	61.05
1007.301	60.9
1007.655	60.91
1008.008	61.02
1008.362	60.87
1008.715	60.69
1009.069	60.76
1009.422	60.89
1009.776	61.05
1010.129	61.02
1010.482	61.11
1010.835	60.95
1011.188	61.01
1011.541	61.01
1011.894	60.98
1012.247	61.1
1012.6	61.15
1012.952	61.29
1013.305	61.3
1013.657	61.25
1014.01	61.38
1014.362	61.36
1014.715	61.6
1015.067	61.88
1015.419	61.94
1015.771	61.85
1016.123	61.93
1016.475	61.98
1016.827	61.75
1017.179	61.71
1017.531	61.51
1017.883	61.43
1018.234	61.65
1018.586	61.73
1018.938	61.78
1019.289	61.7
1019.64	61.6
1019.992	61.56
1020.343	61.69
1020.694	61.86
1021.045	61.86
1021.396	62.01
1021.747	62.19
1022.098	62.17
1022.449	61.89
1022.8	61.83
1023.151	62
1023.501	62.35
1023.852	62.34
1024.202	62.16
1024.553	62.14
1024.903	62.13
1025.253	62.4
1025.604	62.32
1025.954	61.82
1026.304	62.02
1026.654	61.84
1027.004	61.81
1027.354	61.63
1027.703	61.44
1028.053	61.42
1028.403	61.42
1028.753	60.99
1029.102	60.88
1029.452	60.86
1029.801	61.42
1030.15	61.3
1030.499	61.15
897.758	1712.03
901.051	1720.52
904.343	1713.96
907.636	1747.25
910.928	1702.69
914.22	1697.66
917.511	1673.34
920.803	1601.71
924.094	1598.11
927.384	1558.56
930.675	1491.67
933.965	1482.83
937.255	1394.68
940.544	1339.56
943.834	1272.98
947.123	1259.92
950.411	1187.37
953.7	1160.89
956.988	1101.81
960.276	1050.85
963.563	1035.55
966.851	1000.41
970.138	991.79
973.424	960.1
976.711	966.22
979.997	916.97
983.283	914.3
986.568	895.08
989.853	866.15
993.138	851.65
996.423	819.7
999.708	798.18
1002.992	790.06
1006.275	752.85
1009.559	745.86
1012.842	719.12
1016.125	700.24
1019.408	686.98
1022.69	677.04
1025.972	666.21
1029.254	648.77
1032.536	639.05
1035.817	623.44
1039.098	615.89
1042.379	602.75
1045.659	597.1
1048.939	581.36
1052.219	569.99
1055.498	559.93
1058.778	548.67
1062.057	533.71
1065.335	528.16
1068.614	520.86
1071.892	517.05
1075.17	498.64
1078.447	489.89
1081.724	486.81
1085.001	483.47
1088.278	474.15
1091.554	465.16
1094.83	464.43
1098.106	462.87
1101.382	457.69
1104.657	454.63
1107.932	446.73
1111.206	450.1
1114.481	439.3
1117.755	434.26
1121.029	430.64
1124.302	429.99
1127.575	422.39
1130.848	417.01
1134.121	411.66
1137.393	410.97
1140.665	402.99
1143.937	400.91
1147.208	396.05
1150.48	396.19
1153.75	389.76
1157.021	384.45
1160.291	384.4
1163.561	380.17
1166.831	380.57
1170.101	378.82
1173.37	375.9
1176.639	376.74
1179.907	372.23
1183.176	369.85
1186.444	368.92
1189.711	369.24
1192.979	367.17
1196.246	364.57
1199.513	366.03
1202.78	363.68
1206.046	363.64
1209.312	359.82
1212.578	360.42
1215.843	364.18
1219.108	361.46
1222.373	368.73
1225.638	372.03
1228.902	378.62
1232.166	377.77
1235.43	380.33
1238.693	386.05
1241.956	386.56
1245.219	395.34
1248.482	393.74
1251.744	393.55
1255.006	394.03
1258.268	385.15
1261.529	380.7
1264.79	377.2
1268.051	376.31
1271.312	372.05
1274.572	365.94
1277.832	363.47
1281.092	356.4
1284.351	354.72
1287.61	354.2
1290.869	349.27
1294.128	346.73
1297.386	346.51
1300.644	342.38
1303.902	344.05
1307.159	342.11
1310.416	342.93
1313.673	342.62
1316.93	345.8
1320.186	346.12
1323.442	346.74
1326.697	353.8
1329.953	354.21
1333.208	355.98
1336.463	360.86
1339.717	360.64
1342.972	364.93
1346.226	368.1
1349.479	368.21
1352.733	370.89
1355.986	371.81
1359.238	372.02
1362.491	374.27
1365.743	378.29
1368.995	377.96
1372.247	376.02
1375.498	376.37
1378.749	379.93
1382	375.58
1385.251	377.49
1388.501	374.56
1391.751	377.47
1395	374.93
1398.25	371.85
1401.499	369.95
1404.748	369.96
1407.996	366.97
1411.244	365.42
1414.492	363.41
1417.74	359.63
1420.987	353.74
1424.234	354.36
1427.481	347.82
1430.728	349.12
1433.974	344.64
1437.22	341.15
1440.465	340.16
1443.711	338.35
1446.956	336.09
1450.201	330.63
1453.445	327.89
1456.689	327.17
1459.933	321.11
1463.177	320.26
1466.42	313.91
1469.663	311.22
1472.906	309.49
1476.148	300.98
1479.391	296.95
1482.633	294.01
1485.874	290
1489.115	288.35
1492.356	284.35
1495.597	283.59
1498.838	278.41
1502.078	276.82
1505.318	275.04
1508.557	274.93
1511.797	275.59
1515.036	273.43
1518.274	272.39
1521.513	269.82
1524.751	269.68
1527.989	269.06
1531.227	267.62
1534.464	269.24
1537.701	267.43
1540.938	266.63
1544.174	263.48
1547.41	262.54
1550.646	261.59
1553.882	262.16
1557.117	259.12
1560.352	256.93
1563.587	256.36
1566.821	254.77
1570.055	251.33
1573.289	250.05
1576.523	249.76
1579.756	247.81
1582.989	246.36
1586.222	246.14
1589.454	244.23
1592.686	246.18
1595.918	245.56
1599.15	244.61
1602.381	244.58
1605.612	244.47
1608.843	245.55
1612.073	245.05
1615.303	246.06
1618.533	246.68
1621.762	245.97
1624.992	245.94
1628.221	245.85
1631.449	245.58
1634.678	245.26
1637.906	246.42
1641.134	246.2
1644.361	245.08
1647.588	245.94
1650.815	244.88
1654.042	243.85
1657.269	245.72
1660.495	246.09
1663.72	243.88
1666.946	244.67
1670.171	244.93
1673.396	244.43
1676.621	244.69
1679.845	245.34
1683.069	245.16
1686.293	246.98
1689.517	248.06
1692.74	247.33
1695.963	248.75
1699.185	252.47
1702.408	252.5
1705.63	253.29
1708.852	254.66
1712.073	255.19
1715.294	255.33
1718.515	256.77
1721.736	256.61
1724.956	257.23
1728.176	257.38
1731.396	259.19
1734.616	257.83
1737.835	259.09
1741.054	257.05
1744.272	257.61
1747.491	260.45
1750.709	260.98
1753.927	260.76
1757.144	259.6
1760.361	261.07
1763.578	261.32
1766.795	260.37
1770.011	262.17
1773.227	262.34
1776.443	266.04
1779.658	267.62
1782.874	266.04
1786.089	267.34
1789.303	268.16
1792.518	271.71
1795.732	271.4
1798.945	274.29
1802.159	274.38
1805.372	275.47
1808.585	279.8
1811.797	280.85
1815.01	280.24
1818.222	283.21
1821.434	284.41
1824.645	286.15
1827.856	290.48
1831.067	293.3
1834.278	291.64
1837.488	294.41
1840.698	296.57
1843.908	293.52
1847.117	295.18
1850.326	297.57
1853.535	295.54
1856.744	301.49
1859.952	300.29
1863.16	298.97
1866.368	296.51
1869.575	301.98
1872.782	296.51
1875.989	294.77
1879.196	294.2
1882.402	292.65
1885.608	293.42
1888.814	295.04
1892.019	293.32
1895.224	292.91
1898.429	291.07
1901.634	293.04
1904.838	291.3
1908.042	295.77
1911.246	297.17
1914.449	298.79
1917.652	299.02
1920.855	298.74
1924.058	298.46
1927.26	296.89
1930.462	298.96
1933.664	302.33
1936.865	299.68
1940.066	301.11
1943.267	298.17
1946.467	297.75
1949.668	299.76
1952.868	302.88
1956.067	302.86
1959.267	302.91
1962.466	303.75
1965.665	301.79
1968.863	302.33
1972.061	306.69
1975.259	309.12
1978.457	311.57
1981.654	313.74
1984.852	314.47
1988.048	313.4
1991.245	316.31
1994.441	321.18
1997.637	323.04
2000.833	328.51
2004.028	333.5
2007.223	335.02
2010.418	338.55
2013.613	344.08
2016.807	348.9
2020.001	351.62
2023.194	356.52
2026.388	365.01
2029.581	371.67
2032.774	376.11
2035.966	384.04
2039.158	384.79
2042.35	392.31
2045.542	393.94
2048.733	400.21
2051.924	405.13
2055.115	411.24
2058.306	412.34
2061.496	416.99
2064.686	418.03
2067.875	424.12
2071.065	424.9
2074.254	422.56
2077.442	426.69
2080.631	429.31
2083.819	433.87
2087.007	434.26
2090.195	439.05
2093.382	443.09
2096.569	438.98
2099.756	445.79
2102.942	446.86
2106.128	452.2
2109.314	463.07
2112.5	462.58
2115.685	471.61
2118.87	471.98
2122.055	481.7
2125.239	486.11
2128.424	493.26
2131.608	496.04
2134.791	502.18
2137.974	504.71
2141.157	505.99
2144.34	506.43
2147.523	514.19
2150.705	510.53
2153.887	514.82
2157.068	515.76
2160.25	511.71
2163.431	512.73
2166.611	518.74
2169.792	529.15
2172.972	535.17
2176.152	537.27
2179.331	545.56
2182.511	554.94
2185.69	562.68
2188.868	575.08
2192.047	576.42
2195.225	592.01
2198.403	608.48
2201.58	619
2204.758	630.07
2207.935	643.26
2211.111	657.93
2214.288	663.94
2217.464	666.33
2220.64	673.63
2223.815	683.31
2226.991	710.93
2230.166	713.72
2233.34	724.18
2236.515	737.39
2239.689	737.34
2242.863	742.11
2246.036	763.71
2249.209	755.35
2252.382	768.87
2255.555	793.13
2258.727	795.21
2261.9	799.7
2265.071	806.5
2268.243	819.92
2271.414	830.49
2274.585	850.21
2277.756	857.36
2280.926	863.3
2284.096	884.38
2287.266	902.41
2290.436	910.02
2293.605	931.76
2296.774	962.91
2299.942	990.48
2303.111	997.27
2306.279	1019.27
2309.447	1033.07
2312.614	1059.4
2315.781	1087.07
2318.948	1142.47
2322.115	1123.94
2325.281	1182.74
2328.447	1156.98
2331.613	1202.55
2334.779	1191.62
2337.944	1240.14
2341.109	1254.28
2344.274	1285.8
2347.438	1338.65
2350.602	1337.61
2353.766	1377.78
2356.929	1399.25
2360.092	1387.78
2363.255	1494.49
2366.418	1485.55
2369.58	1520.19
2372.742	1616.73
2375.904	1654.25
2379.066	1647.97
2382.227	1610.76
2385.388	1748.61
2388.548	1744.63
2391.709	1766.44
2394.869	1977.58
2398.029	1879.39
2401.188	1937.95
2404.347	1921.96
2407.506	1890.94
2410.665	1944.66
2413.823	2066.35
2416.981	2186.09
2420.139	2111.35
2423.296	2088.61
2426.453	2187.72
2429.61	2101.3
2432.767	2208.1
2435.923	2187.57
2439.079	2381.18
2442.235	2415.87
2445.391	2395.06
2448.546	2376.59
2451.701	2309.26
2454.855	2308.47
2458.009	2452.43
2461.163	2541.76
2464.317	2632.93
2467.471	2704.25
2470.624	2697.48
2473.777	2639.24
2476.929	2562.03
2480.082	2493.51
2483.234	2459.51
2486.385	2576.56
2489.537	2591.22
2492.688	2692.8
2495.839	2612.81
2498.989	2560.06
2502.14	2572.08
2505.29	2605.4
2508.439	2640.3
2511.589	2638.54
2514.738	2875.8
2517.887	2816.06
2521.035	2982.05
2524.183	2997.65
2527.331	3018.92
2530.479	3015.84
2533.627	3032.92
