Data from C_3_DEC_CT_2N_Splice17_13-54-59-654.txt Node
Date: Sat Mar 07 13:54:59 EST 2020
User: sa697716
Spectrometer: NQ5500242
Trigger mode: 0
Integration Time (sec): 1.450000E-1
Scans to average: 20
Nonlinearity correction enabled: false
Boxcar width: 5
Storing dark spectrum: false
XAxis mode: Wavelengths
Number of Pixels in Spectrum: 512
>>>>>Begin Spectral Data<<<<<
187.83	108.3
188.298	145.37
188.766	137.79
189.233	124.02
189.701	121.79
190.169	154.01
190.636	178.91
191.104	240.94
191.571	42.43
192.039	-62.56
192.506	65.58
192.974	-23.51
193.441	125.24
193.908	101.05
194.375	110.74
194.842	63.51
195.31	117.51
195.777	255.14
196.244	65.7
196.711	50.99
197.177	54.08
197.644	52.86
198.111	52.62
198.578	52.95
199.045	53.41
199.511	53
199.978	53.11
200.445	53.27
200.911	53.28
201.378	53.08
201.844	53.13
202.31	52.79
202.777	52.81
203.243	52.62
203.709	52.19
204.176	51.36
204.642	51.21
205.108	51.24
205.574	50.6
206.04	49.71
206.506	49.26
206.972	48.98
207.438	48.52
207.903	47.91
208.369	46.93
208.835	45.99
209.301	45.14
209.766	43.68
210.232	42.1
210.697	41
211.163	40.22
211.628	39.07
212.094	37.98
212.559	37.06
213.024	36.29
213.49	35.47
213.955	34.63
214.42	33.79
214.885	33.02
215.35	31.76
215.815	30.23
216.28	28.05
216.745	25.76
217.21	23.54
217.675	21.25
218.14	19.21
218.604	17.55
219.069	16.16
219.534	14.97
219.998	13.96
220.463	13.17
220.927	12.43
221.392	11.89
221.856	11.41
222.32	10.98
222.785	10.67
223.249	10.36
223.713	10.09
224.177	9.85
224.642	9.64
225.106	9.41
225.57	9.2
226.034	9.02
226.497	8.85
226.961	8.7
227.425	8.54
227.889	8.38
228.353	8.25
228.816	8.11
229.28	7.97
229.744	7.85
230.207	7.74
230.671	7.62
231.134	7.5
231.597	7.4
232.061	7.29
232.524	7.19
232.987	7.08
233.45	6.99
233.914	6.89
234.377	6.78
234.84	6.67
235.303	6.59
235.766	6.52
236.229	6.43
236.691	6.34
237.154	6.27
237.617	6.2
238.08	6.14
238.542	6.07
239.005	6.01
239.468	5.97
239.93	5.91
240.393	5.84
240.855	5.76
241.317	5.71
241.78	5.65
242.242	5.58
242.704	5.54
243.166	5.48
243.629	5.43
244.091	5.36
244.553	5.3
245.015	5.26
245.477	5.2
245.939	5.15
246.4	5.11
246.862	5.06
247.324	5.01
247.786	4.95
248.247	4.9
248.709	4.84
249.17	4.78
249.632	4.75
250.093	4.71
250.555	4.66
251.016	4.62
251.477	4.57
251.939	4.53
252.4	4.49
252.861	4.45
253.322	4.43
253.783	4.4
254.244	4.37
254.705	4.32
255.166	4.29
255.627	4.26
256.088	4.23
256.549	4.21
257.009	4.18
257.47	4.14
257.931	4.11
258.391	4.07
258.852	4.03
259.312	4
259.773	3.97
260.233	3.94
260.694	3.91
261.154	3.88
261.614	3.84
262.074	3.8
262.534	3.77
262.994	3.75
263.455	3.72
263.915	3.69
264.374	3.66
264.834	3.64
265.294	3.62
265.754	3.6
266.214	3.57
266.673	3.54
267.133	3.53
267.593	3.52
268.052	3.5
268.512	3.49
268.971	3.48
269.431	3.46
269.89	3.44
270.349	3.43
270.809	3.42
271.268	3.42
271.727	3.41
272.186	3.4
272.645	3.4
273.104	3.38
273.563	3.37
274.022	3.36
274.481	3.36
274.94	3.36
275.399	3.35
275.857	3.34
276.316	3.33
276.775	3.32
277.233	3.32
277.692	3.31
278.15	3.31
278.609	3.31
279.067	3.3
279.525	3.29
279.984	3.29
280.442	3.29
280.9	3.29
281.358	3.28
281.816	3.28
282.274	3.29
282.732	3.28
283.19	3.28
283.648	3.28
284.106	3.27
284.564	3.27
285.021	3.28
285.479	3.28
285.937	3.28
286.394	3.28
286.852	3.27
287.309	3.26
287.767	3.24
288.224	3.24
288.682	3.22
289.139	3.2
289.596	3.19
290.053	3.17
290.511	3.14
290.968	3.13
291.425	3.1
291.882	3.09
292.339	3.08
292.796	3.06
293.252	3.05
293.709	3.05
294.166	3.04
294.623	3.04
295.079	3.03
295.536	3.02
295.992	3.02
296.449	3.01
296.905	3.01
297.362	3.01
297.818	3
298.274	3
298.731	2.99
299.187	2.98
299.643	2.97
300.099	2.97
300.555	2.96
301.011	2.95
301.467	2.95
301.923	2.94
302.379	2.93
302.835	2.94
303.291	2.94
303.746	2.93
304.202	2.93
304.658	2.94
305.113	2.94
305.569	2.94
306.024	2.95
306.479	2.95
306.935	2.95
307.39	2.96
307.845	2.96
308.301	2.96
308.756	2.97
309.211	2.97
309.666	2.98
310.121	2.99
310.576	2.99
311.031	2.99
311.486	2.99
311.94	3
312.395	3.01
312.85	3.01
313.305	3
313.759	3
314.214	2.99
314.668	2.98
315.123	2.99
315.577	2.98
316.032	2.99
316.486	2.98
316.94	2.98
317.394	2.96
317.849	2.95
318.303	2.95
318.757	2.94
319.211	2.94
319.665	2.92
320.119	2.9
320.572	2.89
321.026	2.88
321.48	2.86
321.934	2.85
322.387	2.84
322.841	2.84
323.295	2.84
323.748	2.84
324.202	2.84
324.655	2.85
325.108	2.85
325.562	2.85
326.015	2.85
326.468	2.85
326.921	2.86
327.374	2.86
327.827	2.86
328.28	2.86
328.733	2.86
329.186	2.86
329.639	2.86
330.092	2.86
330.545	2.86
330.997	2.86
331.45	2.88
331.903	2.89
332.355	2.9
332.808	2.9
333.26	2.89
333.713	2.89
334.165	2.9
334.617	2.9
335.069	2.9
335.522	2.91
335.974	2.91
336.426	2.9
336.878	2.9
337.33	2.9
337.782	2.9
338.234	2.91
338.686	2.91
339.137	2.93
339.589	2.92
340.041	2.92
340.493	2.91
340.944	2.9
341.396	2.9
341.847	2.88
342.299	2.87
342.75	2.85
343.201	2.83
343.653	2.82
344.104	2.79
344.555	2.78
345.006	2.76
345.457	2.75
345.908	2.74
346.359	2.73
346.81	2.72
347.261	2.72
347.712	2.72
348.163	2.71
348.613	2.72
349.064	2.72
349.515	2.72
349.965	2.72
350.416	2.72
350.866	2.72
351.317	2.72
351.767	2.73
352.217	2.73
352.668	2.72
353.118	2.73
353.568	2.73
354.018	2.74
354.468	2.75
354.918	2.75
355.368	2.75
355.818	2.76
356.268	2.77
356.718	2.77
357.168	2.77
357.617	2.77
358.067	2.76
358.517	2.77
358.966	2.77
359.416	2.77
359.865	2.76
360.315	2.76
360.764	2.75
361.213	2.75
361.663	2.74
362.112	2.74
362.561	2.75
363.01	2.76
363.459	2.74
363.908	2.75
364.357	2.75
364.806	2.74
365.255	2.74
365.703	2.76
366.152	2.76
366.601	2.76
367.05	2.77
367.498	2.76
367.947	2.76
368.395	2.77
368.844	2.77
369.292	2.77
369.74	2.78
370.189	2.78
370.637	2.77
371.085	2.75
371.533	2.75
371.981	2.75
372.429	2.76
372.877	2.75
373.325	2.76
373.773	2.74
374.221	2.74
374.669	2.73
375.116	2.72
375.564	2.72
376.012	2.72
376.459	2.73
376.907	2.72
377.354	2.72
377.801	2.72
378.249	2.72
378.696	2.73
379.143	2.73
379.591	2.73
380.038	2.73
380.485	2.74
380.932	2.73
381.379	2.74
381.826	2.74
382.273	2.73
382.72	2.73
383.166	2.73
383.613	2.72
384.06	2.72
384.506	2.72
384.953	2.72
385.4	2.73
385.846	2.73
386.292	2.72
386.739	2.73
387.185	2.73
387.631	2.74
388.078	2.74
388.524	2.74
388.97	2.74
389.416	2.75
389.862	2.76
390.308	2.77
390.754	2.79
391.2	2.81
391.645	2.81
392.091	2.84
392.537	2.85
392.983	2.86
393.428	2.88
393.874	2.89
394.319	2.9
394.765	2.9
395.21	2.9
395.655	2.91
396.101	2.92
396.546	2.93
396.991	2.95
397.436	2.96
397.881	2.99
398.326	3
398.771	3.03
399.216	3.04
399.661	3.07
400.106	3.09
400.551	3.1
400.995	3.11
401.44	3.12
401.885	3.13
402.329	3.14
402.774	3.15
403.218	3.18
403.663	3.19
404.107	3.19
404.551	3.21
404.995	3.22
405.44	3.24
405.884	3.25
406.328	3.28
406.772	3.28
407.216	3.29
407.66	3.3
408.104	3.3
408.547	3.32
408.991	3.34
409.435	3.35
409.879	3.37
410.322	3.39
410.766	3.42
411.209	3.43
411.653	3.47
412.096	3.5
412.54	3.52
412.983	3.54
413.426	3.58
413.869	3.61
414.312	3.65
414.756	3.68
415.199	3.69
415.642	3.71
416.085	3.73
416.527	3.72
416.97	3.72
417.413	3.73
417.856	3.73
418.298	3.72
418.741	3.72
419.184	3.71
419.626	3.71
420.069	3.71
420.511	3.72
420.953	3.72
421.396	3.74
421.838	3.76
422.28	3.77
422.722	3.8
423.164	3.81
423.606	3.83
424.048	3.84
424.49	3.85
424.932	3.86
425.374	3.85
425.816	3.84
426.258	3.83
426.699	3.82
427.141	3.82
427.582	3.81
428.024	3.82
428.465	3.82
428.907	3.82
429.348	3.81
429.789	3.81
430.231	3.85
430.672	3.87
431.113	3.91
431.554	3.95
431.995	3.97
432.436	3.98
432.877	4
433.318	4.02
433.759	4.06
434.2	4.1
434.64	4.14
435.081	4.15
435.522	4.18
435.962	4.19
436.403	4.21
436.843	4.23
437.284	4.23
437.724	4.24
438.164	4.23
438.604	4.23
439.045	4.22
439.485	4.22
439.925	4.22
440.365	4.21
440.805	4.2
441.245	4.21
441.685	4.22
442.125	4.23
442.564	4.24
443.004	4.24
443.444	4.25
443.883	4.26
444.323	4.24
444.762	4.25
445.202	4.27
445.641	4.3
446.081	4.29
446.52	4.28
446.959	4.3
447.398	4.31
447.837	4.32
448.276	4.33
448.716	4.33
449.154	4.36
449.593	4.38
450.032	4.38
450.471	4.36
450.91	4.35
451.349	4.36
451.787	4.33
452.226	4.33
452.664	4.31
453.103	4.29
453.541	4.29
453.98	4.28
454.418	4.24
454.856	4.22
455.295	4.2
455.733	4.19
456.171	4.17
456.609	4.17
457.047	4.14
457.485	4.13
457.923	4.13
458.361	4.12
458.798	4.11
459.236	4.11
459.674	4.1
460.111	4.1
460.549	4.12
460.987	4.11
461.424	4.11
461.862	4.12
462.299	4.13
462.736	4.12
463.173	4.13
463.611	4.13
464.048	4.15
464.485	4.16
464.922	4.16
465.359	4.16
465.796	4.2
466.233	4.2
466.67	4.22
467.106	4.24
467.543	4.24
467.98	4.22
468.416	4.21
468.853	4.2
469.29	4.19
469.726	4.19
470.162	4.18
470.599	4.16
471.035	4.14
471.471	4.13
471.907	4.1
472.344	4.09
472.78	4.1
473.216	4.09
473.652	4.08
474.088	4.06
474.523	4.06
474.959	4.05
475.395	4.03
475.831	4.02
476.266	4.01
476.702	3.99
477.138	3.99
477.573	3.98
478.008	3.98
478.444	3.96
478.879	3.97
479.314	3.95
479.75	3.95
480.185	3.93
480.62	3.92
481.055	3.91
481.49	3.89
481.925	3.88
482.36	3.87
482.795	3.85
483.229	3.84
483.664	3.84
484.099	3.83
484.534	3.82
484.968	3.82
485.403	3.82
485.837	3.82
486.271	3.83
486.706	3.82
487.14	3.81
487.574	3.82
488.009	3.82
488.443	3.81
488.877	3.82
489.311	3.83
489.745	3.83
490.179	3.84
490.613	3.85
491.046	3.86
491.48	3.87
491.914	3.89
492.348	3.9
492.781	3.92
493.215	3.94
493.648	3.96
494.082	3.97
494.515	3.99
494.948	4.02
495.382	4.03
495.815	4.06
496.248	4.08
496.681	4.1
497.114	4.13
497.547	4.16
497.98	4.19
498.413	4.22
498.846	4.25
499.279	4.29
499.711	4.31
500.144	4.35
500.577	4.39
501.009	4.44
501.442	4.48
501.874	4.54
502.306	4.59
502.739	4.66
503.171	4.72
503.603	4.79
504.036	4.86
504.468	4.93
504.9	5
505.332	5.07
505.764	5.16
506.196	5.25
506.627	5.35
507.059	5.44
507.491	5.53
507.923	5.64
508.354	5.76
508.786	5.87
509.217	6
509.649	6.13
510.08	6.28
510.512	6.41
510.943	6.55
511.374	6.7
511.805	6.85
512.237	7.01
512.668	7.18
513.099	7.34
513.53	7.52
513.961	7.7
514.391	7.89
514.822	8.08
515.253	8.28
515.684	8.48
516.114	8.69
516.545	8.9
516.975	9.13
517.406	9.35
517.836	9.57
518.267	9.81
518.697	10.02
519.127	10.25
519.558	10.49
519.988	10.72
520.418	10.94
520.848	11.16
521.278	11.38
521.708	11.78
522.138	12
522.567	12.23
522.997	12.43
523.427	12.65
523.857	12.86
524.286	13.06
524.716	13.27
525.145	13.47
525.575	13.67
526.004	13.87
526.433	13.87
526.863	14.05
527.292	14.23
527.721	14.39
528.15	14.56
528.579	14.72
529.008	14.88
529.437	15.03
529.866	15.16
530.295	15.31
530.724	15.43
531.152	15.55
531.581	15.68
532.01	15.79
532.438	15.9
532.867	16.01
533.295	16.1
533.723	16.18
534.152	16.25
534.58	16.34
535.008	16.39
535.436	16.46
535.865	16.53
536.293	16.58
536.721	16.63
537.149	16.68
537.576	16.73
538.004	16.77
538.432	16.81
538.86	16.86
539.287	16.89
539.715	16.96
540.143	16.99
540.57	17.03
540.998	17.06
541.425	17.1
541.852	17.14
542.28	17.17
542.707	17.21
543.134	17.24
543.561	17.29
543.988	17.34
544.415	17.36
544.842	17.39
545.269	17.42
545.696	17.47
546.123	17.49
546.549	17.51
546.976	17.56
547.403	17.58
547.829	17.61
548.256	17.64
548.682	17.65
549.108	17.68
549.535	17.71
549.961	17.71
550.387	17.71
550.813	17.74
551.24	17.74
551.666	17.72
552.092	17.71
552.518	17.7
552.943	17.67
553.369	17.64
553.795	17.61
554.221	17.56
554.646	17.52
555.072	17.47
555.498	17.41
555.923	17.35
556.349	17.27
556.774	17.19
557.199	17.12
557.625	17.04
558.05	16.97
558.475	16.88
558.9	16.8
559.325	16.72
559.75	16.63
560.175	16.53
560.6	16.43
561.025	16.33
561.449	16.22
561.874	16.09
562.299	15.96
562.723	15.83
563.148	15.69
563.572	15.55
563.997	15.4
564.421	15.25
564.846	15.11
565.27	14.96
565.694	14.81
566.118	14.66
566.542	14.51
566.966	14.36
567.39	14.2
567.814	14.05
568.238	13.9
568.662	13.73
569.086	13.58
569.509	13.44
569.933	13.3
570.357	13.15
570.78	13.01
571.204	12.87
571.627	12.73
572.05	12.6
572.474	12.5
572.897	12.38
573.32	12.25
573.743	12.14
574.166	12.02
574.589	11.9
575.012	11.8
575.435	11.7
575.858	11.6
576.281	11.51
576.704	11.41
577.126	11.31
577.549	11.21
577.972	11.13
578.394	11.05
578.817	10.97
579.239	10.89
579.661	10.82
580.084	10.76
580.506	10.7
580.928	10.63
581.35	10.58
581.772	10.51
582.194	10.45
582.616	10.4
583.038	10.33
583.46	10.27
583.882	10.22
584.303	10.16
584.725	10.09
585.147	10.04
585.568	10
585.99	9.94
586.411	9.89
586.833	9.85
587.254	9.79
587.675	9.75
588.096	9.7
588.518	9.65
588.939	9.62
589.36	9.58
589.781	9.54
590.202	9.5
590.623	9.46
591.043	9.43
591.464	9.39
591.885	9.37
592.305	9.33
592.726	9.32
593.147	9.29
593.567	9.27
593.987	9.23
594.408	9.19
594.828	9.16
595.248	9.14
595.669	9.13
596.089	9.1
596.509	9.07
596.929	9.05
597.349	9.01
597.769	8.98
598.189	8.94
598.608	8.91
599.028	8.89
599.448	8.85
599.867	8.82
600.287	8.77
600.706	8.74
601.126	8.7
601.545	8.66
601.965	8.63
602.384	8.6
602.803	8.56
603.222	8.52
603.641	8.46
604.061	8.42
604.48	8.37
604.898	8.32
605.317	8.27
605.736	8.23
606.155	8.18
606.574	8.13
606.992	8.07
607.411	8.01
607.829	7.93
608.248	7.88
608.666	7.82
609.085	7.76
609.503	7.71
609.921	7.65
610.339	7.58
610.758	7.52
611.176	7.47
611.594	7.42
612.012	7.35
612.43	7.34
612.847	7.29
613.265	7.25
613.683	7.2
614.101	7.15
614.518	7.11
614.936	7.05
615.353	7
615.771	6.96
616.188	6.91
616.606	6.87
617.023	6.83
617.44	6.8
617.857	6.76
618.274	6.72
618.691	6.69
619.108	6.65
619.525	6.63
619.942	6.62
620.359	6.6
620.776	6.59
621.192	6.57
621.609	6.55
622.026	6.52
622.442	6.51
622.859	6.49
623.275	6.48
623.691	6.47
624.108	6.46
624.524	6.44
624.94	6.43
625.356	6.42
625.772	6.41
626.188	6.4
626.604	6.38
627.02	6.37
627.436	6.38
627.852	6.37
628.268	6.35
628.683	6.35
629.099	6.35
629.514	6.34
629.93	6.34
630.345	6.34
630.761	6.33
631.176	6.32
631.591	6.31
632.007	6.29
632.422	6.26
632.837	6.25
633.252	6.22
633.667	6.19
634.082	6.15
634.497	6.11
634.911	6.07
635.326	6.03
635.741	6
636.155	5.94
636.57	5.9
636.984	5.86
637.399	5.81
637.813	5.75
638.228	5.69
638.642	5.63
639.056	5.57
639.47	5.51
639.884	5.47
640.298	5.41
640.712	5.36
641.126	5.3
641.54	5.24
641.954	5.17
642.368	5.12
642.781	5.08
643.195	5.02
643.609	4.98
644.022	4.93
644.436	4.88
644.849	4.83
645.262	4.79
645.676	4.74
646.089	4.71
646.502	4.69
646.915	4.66
647.328	4.63
647.741	4.6
648.154	4.57
648.567	4.56
648.98	4.53
649.393	4.51
649.805	4.49
650.218	4.47
650.631	4.46
651.043	4.44
651.456	4.42
651.868	4.4
652.28	4.39
652.693	4.38
653.105	4.36
653.517	4.34
653.929	4.32
654.341	4.3
654.753	4.27
655.165	4.24
655.577	4.22
655.989	4.2
656.401	4.17
656.813	4.14
657.224	4.1
657.636	4.06
658.047	4.04
658.459	4.02
658.87	3.99
659.282	3.96
659.693	3.94
660.104	3.9
660.515	3.88
660.926	3.86
661.338	3.84
661.749	3.82
662.159	3.81
662.57	3.8
662.981	3.78
663.392	3.77
663.803	3.76
664.213	3.75
664.624	3.74
665.035	3.74
665.445	3.73
665.855	3.73
666.266	3.73
666.676	3.74
667.086	3.72
667.497	3.72
667.907	3.72
668.317	3.72
668.727	3.73
669.137	3.74
669.547	3.75
669.956	3.74
670.366	3.75
670.776	3.75
671.186	3.75
671.595	3.76
672.005	3.77
672.414	3.78
672.824	3.8
673.233	3.81
673.642	3.82
674.052	3.84
674.461	3.86
674.87	3.88
675.279	3.88
675.688	3.9
676.097	3.93
676.506	3.95
676.915	3.97
677.323	4
677.732	4.01
678.141	4.04
678.549	4.06
678.958	4.09
679.366	4.12
679.775	4.15
680.183	4.18
680.592	4.23
681	4.26
681.408	4.29
681.816	4.32
682.224	4.36
682.632	4.41
683.04	4.45
683.448	4.49
683.856	4.54
684.264	4.6
684.671	4.66
685.079	4.73
685.487	4.81
685.894	4.91
686.302	5.02
686.709	5.14
687.116	5.27
687.524	5.43
687.931	5.6
688.338	5.79
688.745	5.98
689.152	6.2
689.559	6.44
689.966	6.71
690.373	6.98
690.78	7.29
691.187	7.62
691.593	7.97
692	8.34
692.407	8.74
692.813	9.16
693.22	9.59
693.626	10.04
694.032	10.51
694.439	10.99
694.845	11.5
695.251	12.01
695.657	12.53
696.063	13.07
696.469	13.61
696.875	14.18
697.281	14.74
697.687	15.34
698.093	15.93
698.498	16.51
698.904	17.1
699.31	17.7
699.715	18.32
700.12	18.95
700.526	19.57
700.931	20.19
701.337	20.79
701.742	21.41
702.147	22.01
702.552	22.63
702.957	23.23
703.362	23.83
703.767	24.43
704.172	25.02
704.577	25.62
704.981	26.21
705.386	26.8
705.791	27.39
706.195	27.97
706.6	28.57
707.004	29.14
707.408	29.74
707.813	30.34
708.217	30.9
708.621	31.5
709.025	32.05
709.43	32.59
709.834	33.16
710.237	33.7
710.641	34.26
711.045	34.79
711.449	35.34
711.853	35.89
712.256	36.39
712.66	36.93
713.064	37.43
713.467	37.95
713.87	38.48
714.274	38.97
714.677	39.51
715.08	39.99
715.484	40.49
715.887	40.99
716.29	41.44
716.693	41.94
717.096	42.4
717.499	42.87
717.901	43.32
718.304	43.78
718.707	44.2
719.109	44.63
719.512	45.06
719.915	45.48
720.317	45.87
720.719	46.26
721.122	46.62
721.524	47.02
721.926	47.41
722.328	47.82
722.731	48.17
723.133	48.54
723.535	48.89
723.937	49.25
724.338	49.6
724.74	49.94
725.142	50.4
725.544	50.72
725.945	51.05
726.347	51.32
726.748	51.58
727.15	51.87
727.551	52.16
727.952	52.41
728.354	52.67
728.755	52.88
729.156	53.1
729.557	53.19
729.958	53.43
730.359	53.65
730.76	53.83
731.161	54.06
731.562	54.28
731.962	54.44
732.363	54.64
732.763	54.81
733.164	54.99
733.564	55.17
733.965	55.35
734.365	55.51
734.766	55.64
735.166	55.83
735.566	55.97
735.966	56.09
736.366	56.24
736.766	56.35
737.166	56.48
737.566	56.62
737.966	56.75
738.365	56.86
738.765	56.98
739.165	57.1
739.564	57.21
739.964	57.29
740.363	57.37
740.763	57.47
741.162	57.57
741.561	57.65
741.96	57.71
742.36	57.78
742.759	57.85
743.158	57.91
743.557	57.93
743.955	58.02
744.354	58.06
744.753	58.15
745.152	58.23
745.55	58.3
745.949	58.37
746.348	58.46
746.746	58.52
747.144	58.6
747.543	58.65
747.941	58.72
748.339	58.74
748.737	58.78
749.136	58.79
749.534	58.79
749.932	58.8
750.33	58.8
750.727	58.82
751.125	58.85
751.523	58.84
751.921	58.87
752.318	58.88
752.716	58.91
753.113	58.96
753.511	58.99
753.908	59.04
754.305	59.07
754.703	59.11
755.1	59.12
755.497	59.14
755.894	59.15
756.291	59.14
756.688	59.15
757.085	59.18
757.482	59.19
757.878	59.2
758.275	59.23
758.672	59.23
759.068	59.25
759.465	59.26
759.861	59.26
760.258	59.3
760.654	59.33
761.05	59.33
761.447	59.35
761.843	59.34
762.239	59.35
762.635	59.32
763.031	59.32
763.427	59.29
763.822	59.34
764.218	59.36
764.614	59.36
765.01	59.36
765.405	59.38
765.801	59.35
766.196	59.37
766.592	59.37
766.987	59.39
767.382	59.38
767.778	59.39
768.173	59.4
768.568	59.39
768.963	59.37
769.358	59.39
769.753	59.41
770.148	59.44
770.542	59.42
770.937	59.44
771.332	59.43
771.726	59.45
772.121	59.45
772.515	59.42
772.91	59.42
773.304	59.45
773.699	59.43
774.093	59.4
774.487	59.39
774.881	59.44
775.275	59.4
775.669	59.37
776.063	59.35
776.457	59.36
776.851	59.34
777.245	59.32
777.638	59.29
778.032	59.28
778.425	59.32
778.819	59.34
779.212	59.33
779.606	59.38
779.999	59.39
780.392	59.44
780.786	59.43
781.179	59.45
781.572	59.51
781.965	59.53
782.358	59.59
782.751	59.54
783.143	59.55
783.536	59.52
783.929	59.49
784.322	59.49
784.714	59.5
785.107	59.56
785.499	59.52
785.891	59.51
786.284	59.53
786.676	59.53
787.068	59.56
787.46	59.56
787.852	59.6
788.245	59.61
788.636	59.62
789.028	59.62
789.42	59.6
789.812	59.67
790.204	59.66
790.595	59.69
790.987	59.66
791.378	59.69
791.77	59.69
792.161	59.69
792.553	59.71
792.944	59.72
793.335	59.7
793.726	59.73
794.117	59.7
794.508	59.69
794.899	59.65
795.29	59.64
795.681	59.59
796.072	59.6
796.463	59.61
796.853	59.57
797.244	59.58
797.634	59.57
798.025	59.57
798.415	59.58
798.806	59.59
799.196	59.63
799.586	59.65
799.976	59.67
800.366	59.65
800.756	59.64
801.146	59.71
801.536	59.72
801.926	59.71
802.316	59.71
802.706	59.75
803.095	59.78
803.485	59.77
803.874	59.79
804.264	59.8
804.653	59.83
805.043	59.87
805.432	59.84
805.821	59.85
806.21	59.9
806.599	59.91
806.988	59.88
807.377	59.89
807.766	59.9
808.155	59.9
808.544	59.93
808.933	59.93
809.321	59.91
809.71	59.91
810.098	59.9
810.487	59.89
810.875	59.9
811.264	59.92
811.652	59.93
812.04	59.93
812.428	59.95
812.816	59.94
813.204	59.96
813.592	59.97
813.98	60
814.368	60.04
814.756	60.06
815.144	60.05
815.531	60.03
815.919	60.02
816.306	60
816.694	59.99
817.081	60
817.469	60.02
817.856	60.02
818.243	59.99
818.63	59.96
819.017	59.94
819.404	59.93
819.791	59.93
820.178	59.91
820.565	59.91
820.952	59.91
821.339	59.92
821.725	59.9
822.112	59.88
822.498	59.91
822.885	59.92
823.271	59.93
823.657	59.91
824.044	59.89
824.43	59.93
824.816	59.94
825.202	59.93
825.588	59.9
825.974	59.87
826.36	59.88
826.746	59.86
827.132	59.82
827.517	59.82
827.903	59.86
828.289	59.87
828.674	59.85
829.06	59.83
829.445	59.82
829.83	59.82
830.216	59.81
830.601	59.79
830.986	59.78
831.371	59.78
831.756	59.76
832.141	59.73
832.526	59.75
832.911	59.74
833.295	59.74
833.68	59.76
834.065	59.74
834.449	59.75
834.834	59.74
835.218	59.74
835.603	59.74
835.987	59.71
836.371	59.67
836.755	59.61
837.139	59.58
837.524	59.58
837.908	59.58
838.291	59.58
838.675	59.55
839.059	59.58
839.443	59.57
839.827	59.53
840.21	59.52
840.594	59.55
840.977	59.58
841.361	59.6
841.744	59.56
842.127	59.54
842.511	59.52
842.894	59.5
843.277	59.46
843.66	59.42
844.043	59.46
844.426	59.46
844.809	59.43
845.191	59.44
845.574	59.4
845.957	59.4
846.339	59.39
846.722	59.38
847.104	59.42
847.487	59.41
847.869	59.41
848.252	59.39
848.634	59.38
849.016	59.4
849.398	59.4
849.78	59.4
850.162	59.4
850.544	59.4
850.926	59.4
851.307	59.37
851.689	59.37
852.071	59.41
852.452	59.41
852.834	59.41
853.215	59.39
853.597	59.38
853.978	59.38
854.359	59.39
854.741	59.4
855.122	59.4
855.503	59.39
855.884	59.38
856.265	59.36
856.646	59.34
857.026	59.36
857.407	59.38
857.788	59.38
858.169	59.4
858.549	59.42
858.93	59.43
859.31	59.42
859.69	59.47
860.071	59.53
860.451	59.54
860.831	59.56
861.211	59.54
861.591	59.51
861.971	59.5
862.351	59.5
862.731	59.49
863.111	59.47
863.491	59.48
863.87	59.46
864.25	59.42
864.629	59.45
865.009	59.45
865.388	59.46
865.768	59.48
866.147	59.51
866.526	59.5
866.905	59.49
867.284	59.5
867.663	59.49
868.042	59.5
868.421	59.5
868.8	59.48
869.179	59.48
869.558	59.47
869.936	59.45
870.315	59.39
870.693	59.36
871.072	59.37
871.45	59.37
871.828	59.4
872.207	59.4
872.585	59.38
872.963	59.35
873.341	59.35
873.719	59.36
874.097	59.37
874.475	59.42
874.853	59.44
875.23	59.46
875.608	59.47
875.986	59.46
876.363	59.46
876.741	59.45
877.118	59.5
877.495	59.54
877.873	59.54
878.25	59.58
878.627	59.6
879.004	59.58
879.381	59.58
879.758	59.54
880.135	59.54
880.512	59.51
880.889	59.52
881.265	59.48
881.642	59.46
882.019	59.45
882.395	59.4
882.772	59.38
883.148	59.38
883.524	59.36
883.901	59.38
884.277	59.35
884.653	59.35
885.029	59.34
885.405	59.34
885.781	59.32
886.157	59.3
886.532	59.31
886.908	59.28
887.284	59.27
887.659	59.25
888.035	59.24
888.411	59.23
888.786	59.23
889.161	59.23
889.537	59.23
889.912	59.23
890.287	59.22
890.662	59.21
891.037	59.22
891.412	59.19
891.787	59.14
892.162	59.14
892.536	59.13
892.911	59.12
893.286	59.11
893.66	59.1
894.035	59.08
894.409	59.08
894.784	59.06
895.158	59.04
895.532	59.07
895.906	59.08
896.281	59.07
896.655	59.08
897.029	59.09
897.402	59.06
897.776	59.05
898.15	59.05
898.524	59.06
898.898	59.06
899.271	59.08
899.645	59.12
900.018	59.15
900.392	59.16
900.765	59.16
901.138	59.15
901.511	59.17
901.884	59.19
902.258	59.21
902.631	59.22
903.003	59.26
903.376	59.26
903.749	59.23
904.122	59.25
904.495	59.26
904.867	59.29
905.24	59.32
905.612	59.36
905.985	59.34
906.357	59.35
906.729	59.38
907.102	59.37
907.474	59.38
907.846	59.37
908.218	59.35
908.59	59.38
908.962	59.37
909.334	59.37
909.705	59.36
910.077	59.41
910.449	59.42
910.82	59.42
911.192	59.42
911.563	59.43
911.935	59.42
912.306	59.45
912.677	59.46
913.048	59.48
913.419	59.45
913.79	59.46
914.161	59.46
914.532	59.44
914.903	59.45
915.274	59.44
915.645	59.45
916.015	59.47
916.386	59.48
916.756	59.46
917.127	59.48
917.497	59.52
917.868	59.51
918.238	59.49
918.608	59.52
918.978	59.55
919.348	59.56
919.718	59.56
920.088	59.62
920.458	59.65
920.828	59.65
921.198	59.6
921.567	59.61
921.937	59.64
922.306	59.65
922.676	59.64
923.045	59.6
923.415	59.61
923.784	59.62
924.153	59.62
924.522	59.6
924.891	59.59
925.26	59.64
925.629	59.66
925.998	59.61
926.367	59.62
926.736	59.63
927.104	59.65
927.473	59.64
927.842	59.64
928.21	59.65
928.578	59.63
928.947	59.66
929.315	59.63
929.683	59.61
930.051	59.63
930.42	59.62
930.788	59.59
931.156	59.55
931.523	59.55
931.891	59.54
932.259	59.49
932.627	59.48
932.994	59.47
933.362	59.43
933.729	59.41
934.097	59.37
934.464	59.38
934.831	59.35
935.199	59.38
935.566	59.35
935.933	59.29
936.3	59.28
936.667	59.25
937.034	59.23
937.401	59.24
937.767	59.21
938.134	59.18
938.501	59.18
938.867	59.19
939.234	59.14
939.6	59.11
939.967	59.14
940.333	59.14
940.699	59.17
941.065	59.15
941.431	59.14
941.798	59.12
942.163	59.1
942.529	59.03
942.895	58.99
943.261	58.94
943.627	58.94
943.992	58.87
944.358	58.84
944.723	58.76
945.089	58.66
945.454	58.66
945.82	58.67
946.185	58.68
946.55	58.65
946.915	58.64
947.28	58.66
947.645	58.65
948.01	58.69
948.375	58.68
948.74	58.68
949.104	58.77
949.469	58.78
949.834	58.72
950.198	58.71
950.562	58.68
950.927	58.63
951.291	58.58
951.655	58.54
952.02	58.49
952.384	58.47
952.748	58.44
953.112	58.42
953.476	58.4
953.839	58.38
954.203	58.34
954.567	58.35
954.931	58.32
955.294	58.28
955.658	58.31
956.021	58.32
956.385	58.23
956.748	58.23
957.111	58.16
957.474	58.13
957.837	58.09
958.2	58.14
958.563	58.16
958.926	58.21
959.289	58.29
959.652	58.25
960.015	58.28
960.377	58.36
960.74	58.43
961.102	58.46
961.465	58.52
961.827	58.61
962.189	58.64
962.552	58.6
962.914	58.6
963.276	58.61
963.638	58.64
964	58.58
964.362	58.6
964.724	58.5
965.085	58.51
965.447	58.46
965.809	58.41
966.17	58.36
966.532	58.36
966.893	58.37
967.255	58.32
967.616	58.27
967.977	58.28
968.338	58.25
968.699	58.31
969.061	58.32
969.421	58.35
969.782	58.35
970.143	58.39
970.504	58.5
970.865	58.54
971.225	58.57
971.586	58.64
971.946	58.72
972.307	58.74
972.667	58.71
973.027	58.74
973.388	58.72
973.748	58.76
974.108	58.81
974.468	58.7
974.828	58.78
975.188	58.8
975.548	58.75
975.907	58.73
976.267	58.71
976.627	58.82
976.986	58.81
977.346	58.77
977.705	58.74
978.064	58.7
978.424	58.77
978.783	58.62
979.142	58.59
979.501	58.62
979.86	58.65
980.219	58.64
980.578	58.61
980.937	58.64
981.296	58.57
981.654	58.61
982.013	58.64
982.371	58.62
982.73	58.67
983.088	58.68
983.447	58.69
983.805	58.68
984.163	58.71
984.521	58.69
984.879	58.62
985.237	58.72
985.595	58.77
985.953	58.75
986.311	58.72
986.669	58.66
987.026	58.62
987.384	58.69
987.741	58.67
988.099	58.75
988.456	58.7
988.814	58.79
989.171	58.81
989.528	58.81
989.885	58.82
990.242	58.82
990.599	58.89
990.956	59.04
991.313	59.02
991.67	59.03
992.027	59.15
992.383	59.26
992.74	59.32
993.096	59.3
993.453	59.31
993.809	59.31
994.165	59.38
994.522	59.47
994.878	59.48
995.234	59.4
995.59	59.39
995.946	59.26
996.302	59.28
996.658	59.29
997.013	59.3
997.369	59.31
997.725	59.36
998.08	59.34
998.436	59.29
998.791	59.31
999.147	59.33
999.502	59.34
999.857	59.32
1000.212	59.26
1000.567	59.21
1000.922	59.34
1001.277	59.35
1001.632	59.37
1001.987	59.37
1002.342	59.41
1002.696	59.28
1003.051	59.53
1003.406	59.67
1003.76	59.71
1004.114	59.64
1004.469	59.67
1004.823	59.87
1005.177	59.74
1005.531	59.83
1005.885	59.85
1006.239	59.94
1006.593	60.05
1006.947	59.88
1007.301	59.71
1007.655	59.69
1008.008	60.03
1008.362	60.09
1008.715	59.88
1009.069	60.08
1009.422	60.24
1009.776	60.34
1010.129	60.3
1010.482	60.25
1010.835	60.37
1011.188	60.44
1011.541	60.5
1011.894	60.27
1012.247	60.28
1012.6	60.34
1012.952	60.34
1013.305	60.15
1013.657	60.2
1014.01	60.22
1014.362	60.24
1014.715	60.34
1015.067	60.51
1015.419	60.55
1015.771	60.64
1016.123	60.6
1016.475	60.57
1016.827	60.73
1017.179	60.75
1017.531	60.73
1017.883	60.76
1018.234	60.98
1018.586	60.79
1018.938	60.93
1019.289	60.86
1019.64	60.88
1019.992	60.83
1020.343	60.81
1020.694	60.93
1021.045	60.97
1021.396	60.95
1021.747	61.03
1022.098	60.96
1022.449	61.01
1022.8	60.86
1023.151	60.77
1023.501	60.86
1023.852	61.13
1024.202	61.13
1024.553	60.83
1024.903	60.81
1025.253	61.07
1025.604	61.25
1025.954	61.05
1026.304	61.17
1026.654	61.34
1027.004	61.61
1027.354	61.43
1027.703	61.12
1028.053	61.01
1028.403	61.07
1028.753	60.73
1029.102	60.5
1029.452	60.24
1029.801	60.48
1030.15	60.45
1030.499	60.05
897.758	1701
901.051	1710.87
904.343	1707.19
907.636	1739.79
910.928	1695.22
914.22	1689.36
917.511	1667.74
920.803	1598.33
924.094	1589.75
927.384	1552.61
930.675	1483.95
933.965	1476.44
937.255	1387.4
940.544	1329.96
943.834	1263.88
947.123	1251.3
950.411	1179.62
953.7	1152.8
956.988	1092.69
960.276	1045.96
963.563	1030.56
966.851	994.39
970.138	986.64
973.424	956.13
976.711	960.34
979.997	914.65
983.283	911.56
986.568	893.05
989.853	862.37
993.138	847.61
996.423	816.24
999.708	794
1002.992	786.19
1006.275	749.77
1009.559	741.61
1012.842	717.56
1016.125	697.16
1019.408	682.55
1022.69	673.35
1025.972	663.41
1029.254	646.17
1032.536	635.75
1035.817	621.36
1039.098	614.04
1042.379	599.97
1045.659	594.65
1048.939	578.17
1052.219	566.85
1055.498	557.78
1058.778	545.69
1062.057	531.73
1065.335	525.73
1068.614	518.69
1071.892	513.85
1075.17	496.46
1078.447	487.85
1081.724	483.91
1085.001	480.92
1088.278	471.52
1091.554	463.14
1094.83	462.22
1098.106	460.67
1101.382	455.58
1104.657	453.3
1107.932	444.89
1111.206	448.53
1114.481	437.24
1117.755	433.66
1121.029	430.26
1124.302	429.88
1127.575	420.98
1130.848	416.31
1134.121	410.87
1137.393	409.96
1140.665	401.11
1143.937	399.85
1147.208	394.98
1150.48	395.58
1153.75	388.78
1157.021	383.25
1160.291	382.93
1163.561	378.95
1166.831	378.83
1170.101	376.97
1173.37	374.48
1176.639	375.42
1179.907	371.59
1183.176	368.63
1186.444	367.42
1189.711	367.86
1192.979	365.9
1196.246	363.14
1199.513	365.24
1202.78	362.85
1206.046	362.34
1209.312	359.41
1212.578	359.95
1215.843	362.67
1219.108	359.62
1222.373	367.64
1225.638	370.89
1228.902	377.6
1232.166	376.49
1235.43	379.44
1238.693	385.03
1241.956	386.09
1245.219	393.5
1248.482	392.5
1251.744	392.74
1255.006	393.68
1258.268	384.29
1261.529	379.72
1264.79	375.91
1268.051	375.61
1271.312	371.11
1274.572	365.38
1277.832	363.03
1281.092	356.77
1284.351	354.63
1287.61	353.86
1290.869	349.21
1294.128	346.77
1297.386	346.53
1300.644	342.98
1303.902	343.88
1307.159	341.63
1310.416	342.5
1313.673	341.98
1316.93	344.75
1320.186	345.09
1323.442	346.25
1326.697	352.78
1329.953	352.95
1333.208	355.55
1336.463	359.42
1339.717	359.88
1342.972	364.21
1346.226	366.67
1349.479	366.63
1352.733	368.93
1355.986	370.38
1359.238	370.16
1362.491	372.55
1365.743	376.48
1368.995	375.53
1372.247	374.53
1375.498	375.16
1378.749	378.69
1382	374.45
1385.251	376.61
1388.501	373.58
1391.751	375.83
1395	373.78
1398.25	370.06
1401.499	368.45
1404.748	367.96
1407.996	364.85
1411.244	362.63
1414.492	360.5
1417.74	357.33
1420.987	351.07
1424.234	351.73
1427.481	345.27
1430.728	345.93
1433.974	341.8
1437.22	338.44
1440.465	337.75
1443.711	335.42
1446.956	333.77
1450.201	328.15
1453.445	325.21
1456.689	324.59
1459.933	318.91
1463.177	317.55
1466.42	311.48
1469.663	309.06
1472.906	307.49
1476.148	298.71
1479.391	295.06
1482.633	291.93
1485.874	288.17
1489.115	286.81
1492.356	283.21
1495.597	281.94
1498.838	277.38
1502.078	275.81
1505.318	274.11
1508.557	274.08
1511.797	275.29
1515.036	272.82
1518.274	271.66
1521.513	269.29
1524.751	268.85
1527.989	268.13
1531.227	266.94
1534.464	268.52
1537.701	266.41
1540.938	265.48
1544.174	262.35
1547.41	261.04
1550.646	260.35
1553.882	260.86
1557.117	257.98
1560.352	255.73
1563.587	255.04
1566.821	253.27
1570.055	250.14
1573.289	249.14
1576.523	249.04
1579.756	246.56
1582.989	245.49
1586.222	245.33
1589.454	242.86
1592.686	244.64
1595.918	244.37
1599.15	243.41
1602.381	243.83
1605.612	243.72
1608.843	244.36
1612.073	243.74
1615.303	245.28
1618.533	245.42
1621.762	244.24
1624.992	245.37
1628.221	245.07
1631.449	244.39
1634.678	243.93
1637.906	244.52
1641.134	244.66
1644.361	243.76
1647.588	244.92
1650.815	243.7
1654.042	242.43
1657.269	244.94
1660.495	244.79
1663.72	242.46
1666.946	243.97
1670.171	244.6
1673.396	244.01
1676.621	243.93
1679.845	244.37
1683.069	244.14
1686.293	246.09
1689.517	247.76
1692.74	246.62
1695.963	247.93
1699.185	252.03
1702.408	251.65
1705.63	252.28
1708.852	253.92
1712.073	254.22
1715.294	254.78
1718.515	255.85
1721.736	255.63
1724.956	255.48
1728.176	255.68
1731.396	257.75
1734.616	256.23
1737.835	257.17
1741.054	255.19
1744.272	255.76
1747.491	258.55
1750.709	259.15
1753.927	258.81
1757.144	257.87
1760.361	259.83
1763.578	260.19
1766.795	259.17
1770.011	260.78
1773.227	260.92
1776.443	264.82
1779.658	266.22
1782.874	264.28
1786.089	265.55
1789.303	266.56
1792.518	269.25
1795.732	268.94
1798.945	271.95
1802.159	272
1805.372	273.37
1808.585	278.05
1811.797	278.61
1815.01	278.54
1818.222	281.72
1821.434	282.88
1824.645	284.61
1827.856	289.71
1831.067	292.37
1834.278	290.01
1837.488	292.54
1840.698	294.68
1843.908	291.44
1847.117	293.5
1850.326	295.36
1853.535	294.19
1856.744	299.5
1859.952	298.06
1863.16	296.51
1866.368	294.23
1869.575	299.95
1872.782	294.33
1875.989	292.52
1879.196	291.79
1882.402	289.8
1885.608	291.09
1888.814	292.09
1892.019	290.43
1895.224	290.25
1898.429	288.31
1901.634	290.43
1904.838	288.82
1908.042	293.48
1911.246	295.14
1914.449	296.81
1917.652	296.73
1920.855	296.4
1924.058	295.94
1927.26	294.83
1930.462	296.59
1933.664	299.95
1936.865	297.56
1940.066	298.63
1943.267	296.08
1946.467	295.89
1949.668	297.95
1952.868	301.74
1956.067	301.27
1959.267	302.19
1962.466	302.91
1965.665	300.85
1968.863	301.69
1972.061	305.89
1975.259	308.01
1978.457	310.5
1981.654	312.59
1984.852	313.39
1988.048	312.07
1991.245	315.03
1994.441	319.22
1997.637	321.45
2000.833	327.59
2004.028	332.15
2007.223	333.33
2010.418	337.04
2013.613	342.4
2016.807	346.93
2020.001	349.61
2023.194	354.6
2026.388	363
2029.581	369.1
2032.774	373.25
2035.966	380.27
2039.158	381.3
2042.35	389.63
2045.542	390.99
2048.733	397.38
2051.924	402.53
2055.115	408.6
2058.306	409.53
2061.496	413.89
2064.686	414.87
2067.875	422.08
2071.065	423.64
2074.254	421.31
2077.442	425.13
2080.631	427.74
2083.819	431.96
2087.007	431.48
2090.195	437.08
2093.382	440.42
2096.569	436.61
2099.756	444.69
2102.942	444.16
2106.128	449.05
2109.314	460.51
2112.5	458.85
2115.685	468.94
2118.87	469.33
2122.055	480.31
2125.239	483.13
2128.424	490.6
2131.608	494.11
2134.791	498.97
2137.974	502.63
2141.157	503.97
2144.34	503.56
2147.523	512.27
2150.705	508.75
2153.887	513.09
2157.068	513.26
2160.25	508.99
2163.431	510.36
2166.611	515.69
2169.792	527.47
2172.972	532.56
2176.152	534.86
2179.331	542.89
2182.511	551.39
2185.69	558.23
2188.868	570.24
2192.047	571.89
2195.225	588.25
2198.403	604.92
2201.58	615.63
2204.758	625.7
2207.935	638.95
2211.111	652.98
2214.288	658.94
2217.464	661.7
2220.64	669.47
2223.815	679.04
2226.991	706.4
2230.166	708.8
2233.34	718.51
2236.515	731.74
2239.689	731.02
2242.863	734.51
2246.036	756
2249.209	747.22
2252.382	760.67
2255.555	786.23
2258.727	787.73
2261.9	791.4
2265.071	798.83
2268.243	812.6
2271.414	823.25
2274.585	843.6
2277.756	851.1
2280.926	855.31
2284.096	878.41
2287.266	897.27
2290.436	903.22
2293.605	926.07
2296.774	956.49
2299.942	984.75
2303.111	990.35
2306.279	1011.36
2309.447	1023.27
2312.614	1053.39
2315.781	1080.28
2318.948	1133.98
2322.115	1114.2
2325.281	1174.44
2328.447	1150.56
2331.613	1194.48
2334.779	1181.7
2337.944	1230.98
2341.109	1245.01
2344.274	1279.18
2347.438	1326.05
2350.602	1329.72
2353.766	1368.45
2356.929	1390.35
2360.092	1377.39
2363.255	1480.55
2366.418	1475.74
2369.58	1508.4
2372.742	1601.3
2375.904	1639.24
2379.066	1630.7
2382.227	1592.18
2385.388	1726.05
2388.548	1726.68
2391.709	1747.49
2394.869	1953.32
2398.029	1860.33
2401.188	1915.37
2404.347	1907.16
2407.506	1878.47
2410.665	1933.5
2413.823	2055.23
2416.981	2178.47
2420.139	2105.14
2423.296	2077.07
2426.453	2174.52
2429.61	2094.73
2432.767	2194.94
2435.923	2176.54
2439.079	2367.04
2442.235	2403.53
2445.391	2376.26
2448.546	2355.61
2451.701	2291.03
2454.855	2290.88
2458.009	2437.44
2461.163	2525.77
2464.317	2611.53
2467.471	2682.81
2470.624	2678.33
2473.777	2618.25
2476.929	2545.15
2480.082	2476.37
2483.234	2443.62
2486.385	2561.44
2489.537	2574.54
2492.688	2671.15
2495.839	2598.14
2498.989	2544.68
2502.14	2556.74
2505.29	2589.1
2508.439	2616.95
2511.589	2613.93
2514.738	2852.34
2517.887	2795.07
2521.035	2956.78
2524.183	2973.87
2527.331	2999.19
2530.479	2992.14
2533.627	3009.26
