Data from C_3_DIV_PA_2N_Splice17_14-13-15-159.txt Node
Date: Sat Mar 07 14:13:15 EST 2020
User: sa697716
Spectrometer: NQ5500242
Trigger mode: 0
Integration Time (sec): 1.450000E-1
Scans to average: 20
Nonlinearity correction enabled: false
Boxcar width: 5
Storing dark spectrum: false
XAxis mode: Wavelengths
Number of Pixels in Spectrum: 512
>>>>>Begin Spectral Data<<<<<
187.83	37.2
188.298	57.35
188.766	40.71
189.233	44.63
189.701	31.49
190.169	37.77
190.636	41
191.104	46.88
191.571	202.42
192.039	191.36
192.506	141.2
192.974	83.12
193.441	223.04
193.908	121.66
194.375	77.69
194.842	53.65
195.31	39.82
195.777	-44.83
196.244	60.99
196.711	70.6
197.177	71.6
197.644	71.81
198.111	72.27
198.578	72.37
199.045	72.96
199.511	72.95
199.978	72.48
200.445	72.84
200.911	72.96
201.378	72.8
201.844	72.57
202.31	72.31
202.777	72.3
203.243	72.25
203.709	71.83
204.176	71.06
204.642	70.69
205.108	70.57
205.574	70.12
206.04	69.56
206.506	69.01
206.972	68.87
207.438	68.21
207.903	67.2
208.369	65.77
208.835	64.59
209.301	63.19
209.766	61.59
210.232	60.14
210.697	58.56
211.163	57.32
211.628	56.43
212.094	55.26
212.559	54.2
213.024	53.26
213.49	52.49
213.955	51.71
214.42	51.1
214.885	50.39
215.35	49.2
215.815	47.51
216.28	45.1
216.745	42.23
217.21	39.37
217.675	36.76
218.14	34.42
218.604	32.2
219.069	30.34
219.534	28.74
219.998	27.45
220.463	26.4
220.927	25.43
221.392	24.69
221.856	24.1
222.32	23.53
222.785	23.04
223.249	22.56
223.713	22.19
224.177	21.85
224.642	21.49
225.106	21.12
225.57	20.77
226.034	20.44
226.497	20.14
226.961	19.83
227.425	19.53
227.889	19.25
228.353	18.98
228.816	18.7
229.28	18.4
229.744	18.15
230.207	17.89
230.671	17.63
231.134	17.39
231.597	17.16
232.061	16.92
232.524	16.69
232.987	16.46
233.45	16.25
233.914	16.04
234.377	15.85
234.84	15.66
235.303	15.5
235.766	15.33
236.229	15.14
236.691	14.98
237.154	14.81
237.617	14.66
238.08	14.52
238.542	14.37
239.005	14.25
239.468	14.1
239.93	13.98
240.393	13.86
240.855	13.71
241.317	13.58
241.78	13.45
242.242	13.32
242.704	13.2
243.166	13.05
243.629	12.91
244.091	12.77
244.553	12.65
245.015	12.51
245.477	12.37
245.939	12.25
246.4	12.12
246.862	12
247.324	11.88
247.786	11.74
248.247	11.62
248.709	11.49
249.17	11.35
249.632	11.22
250.093	11.1
250.555	10.97
251.016	10.84
251.477	10.71
251.939	10.59
252.4	10.48
252.861	10.37
253.322	10.27
253.783	10.18
254.244	10.09
254.705	10
255.166	9.91
255.627	9.83
256.088	9.77
256.549	9.7
257.009	9.62
257.47	9.54
257.931	9.45
258.391	9.37
258.852	9.27
259.312	9.2
259.773	9.11
260.233	9.04
260.694	8.95
261.154	8.87
261.614	8.79
262.074	8.71
262.534	8.64
262.994	8.57
263.455	8.51
263.915	8.45
264.374	8.39
264.834	8.34
265.294	8.28
265.754	8.23
266.214	8.18
266.673	8.12
267.133	8.09
267.593	8.04
268.052	7.99
268.512	7.95
268.971	7.92
269.431	7.89
269.89	7.85
270.349	7.82
270.809	7.78
271.268	7.76
271.727	7.73
272.186	7.7
272.645	7.68
273.104	7.65
273.563	7.63
274.022	7.6
274.481	7.57
274.94	7.55
275.399	7.52
275.857	7.5
276.316	7.48
276.775	7.45
277.233	7.43
277.692	7.41
278.15	7.38
278.609	7.37
279.067	7.35
279.525	7.33
279.984	7.31
280.442	7.3
280.9	7.28
281.358	7.26
281.816	7.25
282.274	7.23
282.732	7.22
283.19	7.21
283.648	7.21
284.106	7.2
284.564	7.19
285.021	7.19
285.479	7.19
285.937	7.18
286.394	7.18
286.852	7.16
287.309	7.16
287.767	7.14
288.224	7.11
288.682	7.09
289.139	7.05
289.596	7.02
290.053	6.97
290.511	6.93
290.968	6.89
291.425	6.84
291.882	6.8
292.339	6.76
292.796	6.73
293.252	6.71
293.709	6.67
294.166	6.65
294.623	6.63
295.079	6.61
295.536	6.6
295.992	6.58
296.449	6.56
296.905	6.54
297.362	6.53
297.818	6.51
298.274	6.49
298.731	6.48
299.187	6.45
299.643	6.43
300.099	6.41
300.555	6.38
301.011	6.37
301.467	6.35
301.923	6.33
302.379	6.32
302.835	6.31
303.291	6.29
303.746	6.28
304.202	6.28
304.658	6.27
305.113	6.26
305.569	6.25
306.024	6.25
306.479	6.24
306.935	6.23
307.39	6.23
307.845	6.23
308.301	6.23
308.756	6.24
309.211	6.22
309.666	6.23
310.121	6.24
310.576	6.24
311.031	6.24
311.486	6.25
311.94	6.25
312.395	6.25
312.85	6.25
313.305	6.25
313.759	6.25
314.214	6.25
314.668	6.24
315.123	6.24
315.577	6.23
316.032	6.22
316.486	6.21
316.94	6.2
317.394	6.19
317.849	6.17
318.303	6.15
318.757	6.12
319.211	6.1
319.665	6.08
320.119	6.05
320.572	6.03
321.026	6.01
321.48	5.99
321.934	5.96
322.387	5.94
322.841	5.92
323.295	5.92
323.748	5.91
324.202	5.9
324.655	5.89
325.108	5.88
325.562	5.88
326.015	5.87
326.468	5.87
326.921	5.86
327.374	5.86
327.827	5.85
328.28	5.84
328.733	5.83
329.186	5.82
329.639	5.83
330.092	5.82
330.545	5.82
330.997	5.81
331.45	5.81
331.903	5.81
332.355	5.81
332.808	5.82
333.26	5.82
333.713	5.82
334.165	5.82
334.617	5.82
335.069	5.82
335.522	5.83
335.974	5.85
336.426	5.86
336.878	5.86
337.33	5.86
337.782	5.87
338.234	5.87
338.686	5.89
339.137	5.89
339.589	5.89
340.041	5.89
340.493	5.87
340.944	5.85
341.396	5.84
341.847	5.82
342.299	5.79
342.75	5.77
343.201	5.73
343.653	5.7
344.104	5.66
344.555	5.64
345.006	5.62
345.457	5.6
345.908	5.58
346.359	5.57
346.81	5.56
347.261	5.54
347.712	5.54
348.163	5.53
348.613	5.54
349.064	5.54
349.515	5.54
349.965	5.54
350.416	5.54
350.866	5.53
351.317	5.53
351.767	5.53
352.217	5.54
352.668	5.54
353.118	5.55
353.568	5.55
354.018	5.56
354.468	5.57
354.918	5.56
355.368	5.57
355.818	5.58
356.268	5.58
356.718	5.59
357.168	5.59
357.617	5.59
358.067	5.6
358.517	5.61
358.966	5.62
359.416	5.62
359.865	5.63
360.315	5.64
360.764	5.64
361.213	5.65
361.663	5.65
362.112	5.66
362.561	5.67
363.01	5.67
363.459	5.66
363.908	5.65
364.357	5.65
364.806	5.66
365.255	5.66
365.703	5.67
366.152	5.68
366.601	5.69
367.05	5.7
367.498	5.7
367.947	5.7
368.395	5.72
368.844	5.73
369.292	5.74
369.74	5.75
370.189	5.74
370.637	5.74
371.085	5.73
371.533	5.74
371.981	5.74
372.429	5.74
372.877	5.75
373.325	5.76
373.773	5.76
374.221	5.77
374.669	5.78
375.116	5.79
375.564	5.8
376.012	5.81
376.459	5.82
376.907	5.83
377.354	5.85
377.801	5.86
378.249	5.87
378.696	5.88
379.143	5.88
379.591	5.89
380.038	5.9
380.485	5.91
380.932	5.93
381.379	5.95
381.826	5.96
382.273	5.96
382.72	5.96
383.166	5.97
383.613	5.98
384.06	5.99
384.506	6
384.953	6.02
385.4	6.03
385.846	6.05
386.292	6.06
386.739	6.07
387.185	6.1
387.631	6.13
388.078	6.14
388.524	6.15
388.97	6.17
389.416	6.2
389.862	6.23
390.308	6.26
390.754	6.29
391.2	6.33
391.645	6.37
392.091	6.4
392.537	6.44
392.983	6.48
393.428	6.54
393.874	6.58
394.319	6.62
394.765	6.64
395.21	6.67
395.655	6.7
396.101	6.73
396.546	6.75
396.991	6.79
397.436	6.82
397.881	6.86
398.326	6.9
398.771	6.95
399.216	6.99
399.661	7.05
400.106	7.09
400.551	7.13
400.995	7.16
401.44	7.19
401.885	7.22
402.329	7.25
402.774	7.28
403.218	7.33
403.663	7.37
404.107	7.41
404.551	7.45
404.995	7.49
405.44	7.53
405.884	7.58
406.328	7.63
406.772	7.68
407.216	7.73
407.66	7.79
408.104	7.81
408.547	7.86
408.991	7.9
409.435	7.94
409.879	7.98
410.322	8.04
410.766	8.09
411.209	8.15
411.653	8.22
412.096	8.26
412.54	8.3
412.983	8.35
413.426	8.42
413.869	8.48
414.312	8.55
414.756	8.62
415.199	8.67
415.642	8.71
416.085	8.76
416.527	8.79
416.97	8.82
417.413	8.85
417.856	8.87
418.298	8.87
418.741	8.89
419.184	8.9
419.626	8.91
420.069	8.92
420.511	8.95
420.953	8.97
421.396	8.99
421.838	9.02
422.28	9.07
422.722	9.12
423.164	9.16
423.606	9.19
424.048	9.23
424.49	9.26
424.932	9.29
425.374	9.29
425.816	9.29
426.258	9.3
426.699	9.29
427.141	9.28
427.582	9.29
428.024	9.32
428.465	9.35
428.907	9.37
429.348	9.39
429.789	9.41
430.231	9.44
430.672	9.49
431.113	9.55
431.554	9.62
431.995	9.67
432.436	9.69
432.877	9.72
433.318	9.76
433.759	9.8
434.2	9.84
434.64	9.9
435.081	9.95
435.522	9.99
435.962	10.02
436.403	10.06
436.843	10.1
437.284	10.13
437.724	10.15
438.164	10.17
438.604	10.17
439.045	10.18
439.485	10.19
439.925	10.2
440.365	10.22
440.805	10.23
441.245	10.26
441.685	10.27
442.125	10.3
442.564	10.33
443.004	10.33
443.444	10.36
443.883	10.41
444.323	10.42
444.762	10.45
445.202	10.48
445.641	10.5
446.081	10.52
446.52	10.54
446.959	10.58
447.398	10.6
447.837	10.64
448.276	10.66
448.716	10.68
449.154	10.71
449.593	10.73
450.032	10.74
450.471	10.75
450.91	10.75
451.349	10.75
451.787	10.73
452.226	10.73
452.664	10.71
453.103	10.69
453.541	10.68
453.98	10.67
454.418	10.65
454.856	10.63
455.295	10.61
455.733	10.57
456.171	10.54
456.609	10.52
457.047	10.48
457.485	10.47
457.923	10.46
458.361	10.44
458.798	10.41
459.236	10.4
459.674	10.39
460.111	10.38
460.549	10.39
460.987	10.4
461.424	10.41
461.862	10.42
462.299	10.41
462.736	10.39
463.173	10.39
463.611	10.38
464.048	10.37
464.485	10.36
464.922	10.35
465.359	10.34
465.796	10.33
466.233	10.32
466.67	10.31
467.106	10.33
467.543	10.32
467.98	10.32
468.416	10.33
468.853	10.34
469.29	10.34
469.726	10.34
470.162	10.33
470.599	10.33
471.035	10.32
471.471	10.32
471.907	10.32
472.344	10.32
472.78	10.32
473.216	10.3
473.652	10.29
474.088	10.29
474.523	10.31
474.959	10.31
475.395	10.3
475.831	10.28
476.266	10.28
476.702	10.27
477.138	10.26
477.573	10.25
478.008	10.26
478.444	10.24
478.879	10.23
479.314	10.21
479.75	10.21
480.185	10.19
480.62	10.19
481.055	10.19
481.49	10.16
481.925	10.15
482.36	10.14
482.795	10.13
483.229	10.13
483.664	10.13
484.099	10.12
484.534	10.11
484.968	10.12
485.403	10.11
485.837	10.11
486.271	10.13
486.706	10.14
487.14	10.14
487.574	10.16
488.009	10.16
488.443	10.17
488.877	10.19
489.311	10.21
489.745	10.22
490.179	10.26
490.613	10.29
491.046	10.31
491.48	10.33
491.914	10.35
492.348	10.38
492.781	10.42
493.215	10.47
493.648	10.51
494.082	10.55
494.515	10.58
494.948	10.62
495.382	10.66
495.815	10.71
496.248	10.78
496.681	10.85
497.114	10.91
497.547	10.97
497.98	11.03
498.413	11.1
498.846	11.17
499.279	11.26
499.711	11.33
500.144	11.42
500.577	11.49
501.009	11.56
501.442	11.65
501.874	11.73
502.306	11.82
502.739	11.93
503.171	12.04
503.603	12.14
504.036	12.25
504.468	12.37
504.9	12.48
505.332	12.61
505.764	12.75
506.196	12.88
506.627	13.03
507.059	13.19
507.491	13.34
507.923	13.5
508.354	13.68
508.786	13.84
509.217	14.01
509.649	14.19
510.08	14.38
510.512	14.57
510.943	14.76
511.374	14.95
511.805	15.14
512.237	15.34
512.668	15.56
513.099	15.75
513.53	15.98
513.961	16.2
514.391	16.43
514.822	16.65
515.253	16.87
515.684	17.09
516.114	17.33
516.545	17.57
516.975	17.81
517.406	18.04
517.836	18.28
518.267	18.52
518.697	18.73
519.127	18.95
519.558	19.18
519.988	19.43
520.418	19.66
520.848	19.87
521.278	20.09
521.708	20.31
522.138	20.51
522.567	20.73
522.997	20.93
523.427	21.15
523.857	21.35
524.286	21.53
524.716	21.71
525.145	21.9
525.575	22.08
526.004	22.26
526.433	22.42
526.863	22.6
527.292	22.75
527.721	22.9
528.15	23.04
528.579	23.19
529.008	23.36
529.437	23.49
529.866	23.61
530.295	23.74
530.724	23.86
531.152	23.98
531.581	24.09
532.01	24.21
532.438	24.33
532.867	24.42
533.295	24.51
533.723	24.58
534.152	24.66
534.58	24.73
535.008	24.8
535.436	24.87
535.865	24.92
536.293	24.97
536.721	25.02
537.149	25.07
537.576	25.11
538.004	25.16
538.432	25.18
538.86	25.22
539.287	25.25
539.715	25.3
540.143	25.33
540.57	25.35
540.998	25.37
541.425	25.4
541.852	25.43
542.28	25.47
542.707	25.49
543.134	25.54
543.561	25.59
543.988	25.62
544.415	25.64
544.842	25.69
545.269	25.73
545.696	25.77
546.123	25.8
546.549	25.84
546.976	25.9
547.403	25.93
547.829	25.96
548.256	25.99
548.682	26.02
549.108	26.07
549.535	26.11
549.961	26.15
550.387	26.17
550.813	26.2
551.24	26.22
551.666	26.21
552.092	26.22
552.518	26.22
552.943	26.25
553.369	26.26
553.795	26.24
554.221	26.24
554.646	26.22
555.072	26.2
555.498	26.16
555.923	26.13
556.349	26.09
556.774	26.06
557.199	26.03
557.625	25.98
558.05	25.94
558.475	25.89
558.9	25.83
559.325	25.76
559.75	25.71
560.175	25.65
560.6	25.58
561.025	25.5
561.449	25.41
561.874	25.3
562.299	25.21
562.723	25.1
563.148	24.97
563.572	24.86
563.997	24.71
564.421	24.58
564.846	24.45
565.27	24.32
565.694	24.2
566.118	24.06
566.542	23.92
566.966	23.77
567.39	23.63
567.814	23.48
568.238	23.33
568.662	23.19
569.086	23.05
569.509	22.92
569.933	22.79
570.357	22.65
570.78	22.52
571.204	22.39
571.627	22.27
572.05	22.13
572.474	22.03
572.897	21.92
573.32	21.82
573.743	21.71
574.166	21.6
574.589	21.49
575.012	21.4
575.435	21.3
575.858	21.22
576.281	21.13
576.704	21.06
577.126	20.99
577.549	20.9
577.972	20.83
578.394	20.75
578.817	20.69
579.239	20.63
579.661	20.55
580.084	20.49
580.506	20.44
580.928	20.37
581.35	20.32
581.772	20.24
582.194	20.2
582.616	20.15
583.038	20.09
583.46	20.02
583.882	19.97
584.303	19.93
584.725	19.87
585.147	19.81
585.568	19.77
585.99	19.72
586.411	19.67
586.833	19.6
587.254	19.54
587.675	19.51
588.096	19.47
588.518	19.42
588.939	19.38
589.36	19.33
589.781	19.29
590.202	19.26
590.623	19.22
591.043	19.19
591.464	19.17
591.885	19.12
592.305	19.09
592.726	19.07
593.147	19.04
593.567	19.01
593.987	18.98
594.408	18.95
594.828	18.91
595.248	18.87
595.669	18.85
596.089	18.81
596.509	18.79
596.929	18.77
597.349	18.73
597.769	18.7
598.189	18.67
598.608	18.66
599.028	18.63
599.448	18.61
599.867	18.57
600.287	18.54
600.706	18.51
601.126	18.49
601.545	18.46
601.965	18.45
602.384	18.41
602.803	18.38
603.222	18.34
603.641	18.3
604.061	18.28
604.48	18.25
604.898	18.22
605.317	18.19
605.736	18.16
606.155	18.13
606.574	18.08
606.992	18.06
607.411	18.01
607.829	17.95
608.248	17.9
608.666	17.86
609.085	17.81
609.503	17.76
609.921	17.72
610.339	17.66
610.758	17.6
611.176	17.53
611.594	17.48
612.012	17.44
612.43	17.4
612.847	17.36
613.265	17.3
613.683	17.27
614.101	17.22
614.518	17.16
614.936	17.12
615.353	17.05
615.771	17.02
616.188	16.98
616.606	16.94
617.023	16.9
617.44	16.88
617.857	16.84
618.274	16.79
618.691	16.75
619.108	16.72
619.525	16.67
619.942	16.65
620.359	16.62
620.776	16.57
621.192	16.54
621.609	16.52
622.026	16.48
622.442	16.45
622.859	16.43
623.275	16.41
623.691	16.4
624.108	16.39
624.524	16.38
624.94	16.38
625.356	16.38
625.772	16.36
626.188	16.35
626.604	16.34
627.02	16.31
627.436	16.31
627.852	16.29
628.268	16.27
628.683	16.25
629.099	16.23
629.514	16.2
629.93	16.19
630.345	16.16
630.761	16.13
631.176	16.09
631.591	16.07
632.007	16.01
632.422	15.95
632.837	15.89
633.252	15.83
633.667	15.76
634.082	15.67
634.497	15.57
634.911	15.47
635.326	15.35
635.741	15.24
636.155	15.12
636.57	15.01
636.984	14.9
637.399	14.77
637.813	14.63
638.228	14.49
638.642	14.35
639.056	14.21
639.47	14.09
639.884	13.96
640.298	13.82
640.712	13.69
641.126	13.56
641.54	13.42
641.954	13.29
642.368	13.17
642.781	13.06
643.195	12.94
643.609	12.84
644.022	12.74
644.436	12.64
644.849	12.54
645.262	12.44
645.676	12.35
646.089	12.28
646.502	12.21
646.915	12.15
647.328	12.09
647.741	12.04
648.154	11.98
648.567	11.93
648.98	11.89
649.393	11.86
649.805	11.84
650.218	11.81
650.631	11.79
651.043	11.76
651.456	11.73
651.868	11.7
652.28	11.68
652.693	11.66
653.105	11.63
653.517	11.62
653.929	11.59
654.341	11.57
654.753	11.54
655.165	11.51
655.577	11.48
655.989	11.44
656.401	11.42
656.813	11.39
657.224	11.34
657.636	11.28
658.047	11.23
658.459	11.18
658.87	11.12
659.282	11.05
659.693	11
660.104	10.92
660.515	10.86
660.926	10.8
661.338	10.72
661.749	10.66
662.159	10.6
662.57	10.55
662.981	10.5
663.392	10.44
663.803	10.39
664.213	10.33
664.624	10.29
665.035	10.25
665.445	10.21
665.855	10.18
666.266	10.15
666.676	10.12
667.086	10.08
667.497	10.04
667.907	10.03
668.317	10.01
668.727	9.98
669.137	9.96
669.547	9.94
669.956	9.92
670.366	9.91
670.776	9.91
671.186	9.9
671.595	9.9
672.005	9.91
672.414	9.91
672.824	9.9
673.233	9.92
673.642	9.93
674.052	9.95
674.461	9.97
674.87	9.98
675.279	10.01
675.688	10.04
676.097	10.06
676.506	10.09
676.915	10.13
677.323	10.18
677.732	10.22
678.141	10.27
678.549	10.33
678.958	10.39
679.366	10.46
679.775	10.53
680.183	10.61
680.592	10.71
681	10.82
681.408	10.93
681.816	11.05
682.224	11.19
682.632	11.33
683.04	11.48
683.448	11.64
683.856	11.83
684.264	12.04
684.671	12.26
685.079	12.51
685.487	12.77
685.894	13.07
686.302	13.4
686.709	13.76
687.116	14.14
687.524	14.56
687.931	15.01
688.338	15.47
688.745	15.97
689.152	16.48
689.559	17.03
689.966	17.6
690.373	18.18
690.78	18.79
691.187	19.41
691.593	20.06
692	20.72
692.407	21.37
692.813	22.07
693.22	22.76
693.626	23.46
694.032	24.16
694.439	24.87
694.845	25.6
695.251	26.32
695.657	27.04
696.063	27.77
696.469	28.49
696.875	29.21
697.281	29.9
697.687	30.6
698.093	31.32
698.498	32
698.904	32.69
699.31	33.34
699.715	34.02
700.12	34.69
700.526	35.34
700.931	35.98
701.337	36.62
701.742	37.26
702.147	37.9
702.552	38.5
702.957	39.08
703.362	39.66
703.767	40.22
704.172	40.75
704.577	41.27
704.981	41.8
705.386	42.32
705.791	42.84
706.195	43.36
706.6	43.88
707.004	44.35
707.408	44.85
707.813	45.34
708.217	45.82
708.621	46.33
709.025	46.78
709.43	47.22
709.834	47.68
710.237	48.1
710.641	48.47
711.045	48.86
711.449	49.27
711.853	49.68
712.256	50.05
712.66	50.4
713.064	50.72
713.467	51.05
713.87	51.36
714.274	51.6
714.677	51.89
715.08	52.17
715.484	52.44
715.887	52.71
716.29	52.97
716.693	53.26
717.096	53.56
717.499	53.87
717.901	54.21
718.304	54.54
718.707	54.9
719.109	55.24
719.512	55.53
719.915	55.83
720.317	56.09
720.719	56.32
721.122	56.57
721.524	56.8
721.926	57.01
722.328	57.23
722.731	57.4
723.133	57.62
723.535	57.84
723.937	58.06
724.338	58.25
724.74	58.44
725.142	58.7
725.544	58.86
725.945	59.06
726.347	59.22
726.748	59.37
727.15	59.54
727.551	59.67
727.952	59.82
728.354	59.98
728.755	60.15
729.156	60.34
729.557	60.45
729.958	60.59
730.359	60.74
730.76	60.9
731.161	61.04
731.562	61.18
731.962	61.29
732.363	61.41
732.763	61.52
733.164	61.6
733.564	61.67
733.965	61.75
734.365	61.87
734.766	61.92
735.166	61.99
735.566	62.06
735.966	62.12
736.366	62.19
736.766	62.22
737.166	62.27
737.566	62.31
737.966	62.35
738.365	62.41
738.765	62.46
739.165	62.52
739.564	62.58
739.964	62.6
740.363	62.63
740.763	62.67
741.162	62.7
741.561	62.72
741.96	62.77
742.36	62.81
742.759	62.84
743.158	62.84
743.557	62.85
743.955	62.88
744.354	62.96
744.753	63.02
745.152	63.08
745.55	63.15
745.949	63.2
746.348	63.25
746.746	63.27
747.144	63.33
747.543	63.37
747.941	63.42
748.339	63.41
748.737	63.4
749.136	63.39
749.534	63.37
749.932	63.35
750.33	63.35
750.727	63.38
751.125	63.4
751.523	63.37
751.921	63.36
752.318	63.34
752.716	63.33
753.113	63.31
753.511	63.32
753.908	63.34
754.305	63.29
754.703	63.17
755.1	62.98
755.497	62.69
755.894	62.35
756.291	61.98
756.688	61.58
757.085	61.25
757.482	60.91
757.878	60.59
758.275	60.25
758.672	59.95
759.068	59.75
759.465	59.57
759.861	59.56
760.258	59.63
760.654	59.74
761.05	59.88
761.447	60.04
761.843	60.19
762.239	60.32
762.635	60.5
763.031	60.74
763.427	60.95
763.822	61.2
764.218	61.41
764.614	61.64
765.01	61.85
765.405	62.04
765.801	62.16
766.196	62.33
766.592	62.44
766.987	62.56
767.382	62.62
767.778	62.66
768.173	62.72
768.568	62.73
768.963	62.74
769.358	62.77
769.753	62.77
770.148	62.81
770.542	62.78
770.937	62.8
771.332	62.78
771.726	62.76
772.121	62.75
772.515	62.73
772.91	62.73
773.304	62.74
773.699	62.73
774.093	62.7
774.487	62.71
774.881	62.73
775.275	62.69
775.669	62.68
776.063	62.68
776.457	62.69
776.851	62.68
777.245	62.66
777.638	62.64
778.032	62.61
778.425	62.64
778.819	62.59
779.212	62.58
779.606	62.59
779.999	62.57
780.392	62.58
780.786	62.56
781.179	62.56
781.572	62.57
781.965	62.58
782.358	62.57
782.751	62.53
783.143	62.52
783.536	62.47
783.929	62.43
784.322	62.42
784.714	62.4
785.107	62.39
785.499	62.35
785.891	62.3
786.284	62.27
786.676	62.25
787.068	62.23
787.46	62.2
787.852	62.17
788.245	62.18
788.636	62.16
789.028	62.1
789.42	62.04
789.812	61.98
790.204	61.96
790.595	61.92
790.987	61.9
791.378	61.88
791.77	61.88
792.161	61.86
792.553	61.81
792.944	61.77
793.335	61.78
793.726	61.79
794.117	61.78
794.508	61.76
794.899	61.75
795.29	61.7
795.681	61.67
796.072	61.63
796.463	61.62
796.853	61.6
797.244	61.57
797.634	61.54
798.025	61.54
798.415	61.53
798.806	61.49
799.196	61.45
799.586	61.44
799.976	61.43
800.366	61.41
800.756	61.4
801.146	61.41
801.536	61.43
801.926	61.41
802.316	61.34
802.706	61.33
803.095	61.31
803.485	61.29
803.874	61.25
804.264	61.2
804.653	61.18
805.043	61.12
805.432	61.06
805.821	61.01
806.21	60.99
806.599	60.94
806.988	60.9
807.377	60.85
807.766	60.84
808.155	60.79
808.544	60.74
808.933	60.69
809.321	60.66
809.71	60.61
810.098	60.54
810.487	60.43
810.875	60.36
811.264	60.28
811.652	60.24
812.04	60.12
812.428	60.09
812.816	60.02
813.204	59.98
813.592	59.9
813.98	59.85
814.368	59.78
814.756	59.74
815.144	59.71
815.531	59.67
815.919	59.64
816.306	59.64
816.694	59.58
817.081	59.59
817.469	59.55
817.856	59.53
818.243	59.48
818.63	59.44
819.017	59.42
819.404	59.36
819.791	59.31
820.178	59.29
820.565	59.23
820.952	59.2
821.339	59.14
821.725	59.09
822.112	59.07
822.498	59.08
822.885	59.07
823.271	59.01
823.657	58.99
824.044	58.98
824.43	58.94
824.816	58.91
825.202	58.85
825.588	58.81
825.974	58.75
826.36	58.69
826.746	58.63
827.132	58.6
827.517	58.59
827.903	58.57
828.289	58.51
828.674	58.46
829.06	58.41
829.445	58.37
829.83	58.34
830.216	58.28
830.601	58.24
830.986	58.2
831.371	58.12
831.756	58.09
832.141	58.05
832.526	58.02
832.911	57.98
833.295	57.95
833.68	57.92
834.065	57.89
834.449	57.86
834.834	57.82
835.218	57.79
835.603	57.75
835.987	57.7
836.371	57.65
836.755	57.6
837.139	57.52
837.524	57.5
837.908	57.49
838.291	57.45
838.675	57.43
839.059	57.4
839.443	57.35
839.827	57.33
840.21	57.29
840.594	57.26
840.977	57.23
841.361	57.24
841.744	57.16
842.127	57.09
842.511	57.06
842.894	57.02
843.277	56.98
843.66	56.92
844.043	56.89
844.426	56.88
844.809	56.87
845.191	56.85
845.574	56.79
845.957	56.8
846.339	56.8
846.722	56.77
847.104	56.76
847.487	56.74
847.869	56.76
848.252	56.76
848.634	56.74
849.016	56.73
849.398	56.73
849.78	56.7
850.162	56.67
850.544	56.64
850.926	56.61
851.307	56.6
851.689	56.59
852.071	56.58
852.452	56.57
852.834	56.55
853.215	56.51
853.597	56.48
853.978	56.5
854.359	56.5
854.741	56.52
855.122	56.51
855.503	56.5
855.884	56.48
856.265	56.45
856.646	56.42
857.026	56.42
857.407	56.43
857.788	56.41
858.169	56.39
858.549	56.38
858.93	56.35
859.31	56.35
859.69	56.36
860.071	56.37
860.451	56.37
860.831	56.38
861.211	56.35
861.591	56.29
861.971	56.27
862.351	56.27
862.731	56.26
863.111	56.23
863.491	56.22
863.87	56.16
864.25	56.13
864.629	56.11
865.009	56.1
865.388	56.09
865.768	56.11
866.147	56.11
866.526	56.1
866.905	56.1
867.284	56.11
867.663	56.1
868.042	56.12
868.421	56.13
868.8	56.13
869.179	56.1
869.558	56.07
869.936	56.05
870.315	56.02
870.693	56.01
871.072	56.01
871.45	56.01
871.828	55.99
872.207	55.96
872.585	55.94
872.963	55.95
873.341	55.93
873.719	55.95
874.097	55.96
874.475	55.98
874.853	55.98
875.23	55.98
875.608	55.96
875.986	55.98
876.363	56.02
876.741	56.01
877.118	55.99
877.495	56.01
877.873	56.01
878.25	56.01
878.627	56.03
879.004	56.02
879.381	56.02
879.758	56
880.135	56
880.512	55.94
880.889	55.94
881.265	55.95
881.642	55.97
882.019	55.95
882.395	55.94
882.772	55.91
883.148	55.87
883.524	55.84
883.901	55.82
884.277	55.77
884.653	55.75
885.029	55.71
885.405	55.66
885.781	55.62
886.157	55.58
886.532	55.57
886.908	55.55
887.284	55.53
887.659	55.49
888.035	55.46
888.411	55.46
888.786	55.47
889.161	55.48
889.537	55.45
889.912	55.42
890.287	55.39
890.662	55.32
891.037	55.28
891.412	55.26
891.787	55.22
892.162	55.19
892.536	55.14
892.911	55.07
893.286	55.01
893.66	54.98
894.035	54.93
894.409	54.89
894.784	54.88
895.158	54.85
895.532	54.82
895.906	54.8
896.281	54.77
896.655	54.75
897.029	54.77
897.402	54.75
897.776	54.75
898.15	54.76
898.524	54.79
898.898	54.78
899.271	54.78
899.645	54.8
900.018	54.85
900.392	54.87
900.765	54.9
901.138	54.91
901.511	54.95
901.884	54.96
902.258	54.99
902.631	55
903.003	55.04
903.376	55.07
903.749	55.06
904.122	55.06
904.495	55.07
904.867	55.09
905.24	55.09
905.612	55.12
905.985	55.11
906.357	55.09
906.729	55.09
907.102	55.08
907.474	55.09
907.846	55.13
908.218	55.12
908.59	55.15
908.962	55.12
909.334	55.15
909.705	55.13
910.077	55.17
910.449	55.2
910.82	55.24
911.192	55.24
911.563	55.22
911.935	55.18
912.306	55.21
912.677	55.23
913.048	55.25
913.419	55.23
913.79	55.22
914.161	55.24
914.532	55.24
914.903	55.22
915.274	55.23
915.645	55.26
916.015	55.28
916.386	55.28
916.756	55.28
917.127	55.31
917.497	55.32
917.868	55.33
918.238	55.32
918.608	55.33
918.978	55.35
919.348	55.37
919.718	55.34
920.088	55.35
920.458	55.35
920.828	55.31
921.198	55.28
921.567	55.3
921.937	55.32
922.306	55.29
922.676	55.28
923.045	55.21
923.415	55.16
923.784	55.23
924.153	55.23
924.522	55.24
924.891	55.25
925.26	55.25
925.629	55.25
925.998	55.24
926.367	55.24
926.736	55.21
927.104	55.27
927.473	55.27
927.842	55.17
928.21	55.16
928.578	55.12
928.947	55.11
929.315	55.06
929.683	54.96
930.051	54.89
930.42	54.84
930.788	54.79
931.156	54.7
931.523	54.64
931.891	54.64
932.259	54.58
932.627	54.49
932.994	54.44
933.362	54.37
933.729	54.38
934.097	54.33
934.464	54.27
934.831	54.23
935.199	54.22
935.566	54.23
935.933	54.14
936.3	54.08
936.667	54.11
937.034	54.09
937.401	54.15
937.767	54.14
938.134	54.12
938.501	54.17
938.867	54.18
939.234	54.14
939.6	54.16
939.967	54.23
940.333	54.28
940.699	54.3
941.065	54.27
941.431	54.22
941.798	54.19
942.163	54.23
942.529	54.27
942.895	54.3
943.261	54.34
943.627	54.35
943.992	54.33
944.358	54.29
944.723	54.23
945.089	54.16
945.454	54.2
945.82	54.21
946.185	54.25
946.55	54.15
946.915	54.09
947.28	54.06
947.645	54.03
948.01	54.05
948.375	54.06
948.74	54.05
949.104	54.13
949.469	54.05
949.834	53.99
950.198	53.9
950.562	53.91
950.927	53.9
951.291	53.86
951.655	53.8
952.02	53.79
952.384	53.75
952.748	53.67
953.112	53.59
953.476	53.53
953.839	53.49
954.203	53.48
954.567	53.43
954.931	53.39
955.294	53.36
955.658	53.39
956.021	53.33
956.385	53.29
956.748	53.29
957.111	53.3
957.474	53.33
957.837	53.31
958.2	53.25
958.563	53.21
958.926	53.21
959.289	53.2
959.652	53.14
960.015	53.14
960.377	53.13
960.74	53.14
961.102	53.12
961.465	53.14
961.827	53.1
962.189	53.2
962.552	53.22
962.914	53.25
963.276	53.27
963.638	53.28
964	53.27
964.362	53.32
964.724	53.32
965.085	53.31
965.447	53.28
965.809	53.38
966.17	53.33
966.532	53.39
966.893	53.4
967.255	53.36
967.616	53.39
967.977	53.43
968.338	53.44
968.699	53.46
969.061	53.52
969.421	53.59
969.782	53.61
970.143	53.64
970.504	53.66
970.865	53.71
971.225	53.7
971.586	53.73
971.946	53.73
972.307	53.68
972.667	53.7
973.027	53.7
973.388	53.65
973.748	53.7
974.108	53.75
974.468	53.71
974.828	53.67
975.188	53.75
975.548	53.75
975.907	53.75
976.267	53.85
976.627	53.87
976.986	53.9
977.346	53.93
977.705	53.87
978.064	53.86
978.424	53.89
978.783	53.91
979.142	53.89
979.501	53.91
979.86	53.97
980.219	53.98
980.578	54.02
980.937	54.02
981.296	54.01
981.654	54.02
982.013	54
982.371	54.05
982.73	54.08
983.088	54.13
983.447	54.05
983.805	54.08
984.163	54.02
984.521	53.99
984.879	53.97
985.237	54.02
985.595	54.11
985.953	54.13
986.311	54.06
986.669	54.04
987.026	54.06
987.384	54.17
987.741	54.09
988.099	54.23
988.456	54.32
988.814	54.36
989.171	54.35
989.528	54.36
989.885	54.32
990.242	54.46
990.599	54.56
990.956	54.6
991.313	54.71
991.67	54.77
992.027	54.76
992.383	54.77
992.74	54.97
993.096	55.02
993.453	55.04
993.809	55.12
994.165	55.15
994.522	55.18
994.878	55.27
995.234	55.22
995.59	55.24
995.946	55.26
996.302	55.32
996.658	55.35
997.013	55.4
997.369	55.48
997.725	55.59
998.08	55.71
998.436	55.7
998.791	55.75
999.147	55.78
999.502	55.95
999.857	56.03
1000.212	56.03
1000.567	55.95
1000.922	55.99
1001.277	55.95
1001.632	55.96
1001.987	55.83
1002.342	55.88
1002.696	55.82
1003.051	55.94
1003.406	55.93
1003.76	55.96
1004.114	55.94
1004.469	56.09
1004.823	56.42
1005.177	56.55
1005.531	56.76
1005.885	56.85
1006.239	56.87
1006.593	57.06
1006.947	57.03
1007.301	57.08
1007.655	57.1
1008.008	57.19
1008.362	57.24
1008.715	57.05
1009.069	57.16
1009.422	57.18
1009.776	57.24
1010.129	57.35
1010.482	57.21
1010.835	57.54
1011.188	57.61
1011.541	57.78
1011.894	57.96
1012.247	58.05
1012.6	58.19
1012.952	58.2
1013.305	58.24
1013.657	58.26
1014.01	58.46
1014.362	58.56
1014.715	58.48
1015.067	58.58
1015.419	58.52
1015.771	58.39
1016.123	58.33
1016.475	58.5
1016.827	58.58
1017.179	58.62
1017.531	58.79
1017.883	58.69
1018.234	58.92
1018.586	58.97
1018.938	59.18
1019.289	59.34
1019.64	59.47
1019.992	59.5
1020.343	59.27
1020.694	59.23
1021.045	59.21
1021.396	59.42
1021.747	59.63
1022.098	59.8
1022.449	59.79
1022.8	59.71
1023.151	59.6
1023.501	59.68
1023.852	59.78
1024.202	59.93
1024.553	59.99
1024.903	60.21
1025.253	60.37
1025.604	60.35
1025.954	60.11
1026.304	60.2
1026.654	60.16
1027.004	60.46
1027.354	60.4
1027.703	60.42
1028.053	60.7
1028.403	60.66
1028.753	60.27
1029.102	60.28
1029.452	60.46
1029.801	60.89
1030.15	60.99
1030.499	60.98
897.758	990.92
901.051	994.34
904.343	993.55
907.636	1008.17
910.928	983.62
914.22	981.59
917.511	966.21
920.803	928.92
924.094	923.95
927.384	902.21
930.675	867.51
933.965	863
937.255	814.98
940.544	782.5
943.834	749.68
947.123	742.1
950.411	698.89
953.7	687.41
956.988	648.7
960.276	625.03
963.563	616.06
966.851	592.34
970.138	586.76
973.424	568.25
976.711	574.21
979.997	544.3
983.283	542.07
986.568	532.75
989.853	516.92
993.138	507.45
996.423	488.33
999.708	475.49
1002.992	470.3
1006.275	452.08
1009.559	448.53
1012.842	431.09
1016.125	420.32
1019.408	412
1022.69	409.19
1025.972	400.73
1029.254	391.8
1032.536	385.77
1035.817	378.84
1039.098	374.26
1042.379	366.1
1045.659	362.1
1048.939	353.9
1052.219	348.14
1055.498	343.89
1058.778	334.86
1062.057	328.92
1065.335	325.7
1068.614	323.04
1071.892	318.9
1075.17	310.16
1078.447	305.94
1081.724	303.51
1085.001	299.97
1088.278	295.05
1091.554	288.99
1094.83	289.52
1098.106	287.07
1101.382	284.4
1104.657	281.59
1107.932	277.3
1111.206	278.53
1114.481	271.42
1117.755	269.34
1121.029	267.9
1124.302	266.42
1127.575	262.69
1130.848	258.95
1134.121	256.08
1137.393	254.89
1140.665	249.72
1143.937	247.65
1147.208	245.91
1150.48	245.26
1153.75	241.95
1157.021	238.76
1160.291	238.97
1163.561	236.15
1166.831	235.71
1170.101	234.04
1173.37	234
1176.639	234.49
1179.907	232.63
1183.176	229.86
1186.444	229.99
1189.711	229.55
1192.979	229.37
1196.246	227.49
1199.513	227.93
1202.78	226.76
1206.046	226.86
1209.312	224.04
1212.578	224.19
1215.843	225.86
1219.108	225.09
1222.373	228.83
1225.638	230.31
1228.902	233.23
1232.166	233.62
1235.43	234.92
1238.693	238.68
1241.956	240.02
1245.219	244.11
1248.482	244.29
1251.744	244.42
1255.006	246.03
1258.268	239.09
1261.529	237.68
1264.79	236.19
1268.051	235.48
1271.312	232.64
1274.572	229.58
1277.832	228.21
1281.092	224.16
1284.351	222.86
1287.61	223.03
1290.869	218.29
1294.128	218.41
1297.386	217.52
1300.644	214.92
1303.902	215.92
1307.159	215.08
1310.416	214.81
1313.673	213.39
1316.93	215.66
1320.186	215.01
1323.442	214.93
1326.697	219.2
1329.953	219.63
1333.208	219.69
1336.463	222.78
1339.717	221.98
1342.972	224.84
1346.226	225.63
1349.479	226.47
1352.733	227.17
1355.986	228.47
1359.238	227.77
1362.491	227.77
1365.743	229.03
1368.995	230.99
1372.247	227.67
1375.498	227.37
1378.749	227.52
1382	224.7
1385.251	225.06
1388.501	222.58
1391.751	221.6
1395	221.35
1398.25	219.22
1401.499	216.09
1404.748	213.59
1407.996	212.34
1411.244	211.29
1414.492	209.77
1417.74	206.81
1420.987	203.55
1424.234	203.26
1427.481	200.9
1430.728	199.94
1433.974	198.16
1437.22	197.22
1440.465	196.5
1443.711	194.41
1446.956	193.05
1450.201	190.94
1453.445	190.13
1456.689	189.23
1459.933	186.21
1463.177	184.51
1466.42	182.1
1469.663	179.78
1472.906	178.51
1476.148	174.24
1479.391	173.06
1482.633	171.46
1485.874	168.76
1489.115	167.55
1492.356	166.01
1495.597	165.67
1498.838	163.44
1502.078	162.49
1505.318	162.33
1508.557	162.05
1511.797	162.11
1515.036	160.42
1518.274	159.85
1521.513	159.2
1524.751	159.11
1527.989	158.92
1531.227	158.19
1534.464	158.85
1537.701	158.33
1540.938	157.72
1544.174	156.48
1547.41	156.82
1550.646	156.59
1553.882	156.6
1557.117	155.25
1560.352	154.43
1563.587	154.03
1566.821	153.16
1570.055	152.22
1573.289	150.65
1576.523	150.53
1579.756	149.61
1582.989	148.58
1586.222	148.48
1589.454	149.04
1592.686	149.84
1595.918	149.23
1599.15	148.56
1602.381	149.22
1605.612	148.94
1608.843	149.07
1612.073	149.61
1615.303	150.37
1618.533	150.74
1621.762	150.92
1624.992	150.59
1628.221	150.22
1631.449	150.25
1634.678	150.43
1637.906	150.86
1641.134	150.58
1644.361	150.74
1647.588	150.7
1650.815	150.33
1654.042	149.78
1657.269	150.11
1660.495	149.86
1663.72	149.9
1666.946	150.22
1670.171	150.51
1673.396	150.42
1676.621	150.46
1679.845	151.38
1683.069	151.34
1686.293	152
1689.517	153.18
1692.74	153.11
1695.963	153.41
1699.185	154.64
1702.408	154.82
1705.63	154.92
1708.852	155.11
1712.073	155.48
1715.294	155.41
1718.515	156.14
1721.736	156.09
1724.956	155.93
1728.176	156.13
1731.396	157.11
1734.616	155.79
1737.835	156.61
1741.054	155.55
1744.272	155.99
1747.491	157.52
1750.709	158.07
1753.927	157.64
1757.144	157.34
1760.361	157.54
1763.578	157.02
1766.795	156.5
1770.011	158.43
1773.227	158.03
1776.443	159.74
1779.658	159.88
1782.874	159.04
1786.089	158.55
1789.303	159.25
1792.518	161.19
1795.732	161.04
1798.945	162.69
1802.159	162.91
1805.372	162.7
1808.585	165.3
1811.797	165.69
1815.01	166.4
1818.222	167.84
1821.434	169.66
1824.645	170.04
1827.856	172
1831.067	173.07
1834.278	173.53
1837.488	174.56
1840.698	175.5
1843.908	173.97
1847.117	174.49
1850.326	175.46
1853.535	174.42
1856.744	176.19
1859.952	176.38
1863.16	174.52
1866.368	173.15
1869.575	173.33
1872.782	171.07
1875.989	171.14
1879.196	170.06
1882.402	169.25
1885.608	168.99
1888.814	169.17
1892.019	168.57
1895.224	167.42
1898.429	167.43
1901.634	168.51
1904.838	169.11
1908.042	171.01
1911.246	170.56
1914.449	171.84
1917.652	172.41
1920.855	172.21
1924.058	172.58
1927.26	171.6
1930.462	172.5
1933.664	174.37
1936.865	172.42
1940.066	171.99
1943.267	170.7
1946.467	171.6
1949.668	172.13
1952.868	173.6
1956.067	174.21
1959.267	173.85
1962.466	174.81
1965.665	172.8
1968.863	173.79
1972.061	176.54
1975.259	178.36
1978.457	179.45
1981.654	179.98
1984.852	180.96
1988.048	180.32
1991.245	182.12
1994.441	183.67
1997.637	184.49
2000.833	189.95
2004.028	191.62
2007.223	193.03
2010.418	194.65
2013.613	198.01
2016.807	200.48
2020.001	202.92
2023.194	205.94
2026.388	210.18
2029.581	215.52
2032.774	217.82
2035.966	220.69
2039.158	221.17
2042.35	225.52
2045.542	226.77
2048.733	230.94
2051.924	234.56
2055.115	236.84
2058.306	237.95
2061.496	239.43
2064.686	240.15
2067.875	244.56
2071.065	245.62
2074.254	243.33
2077.442	247.23
2080.631	248.62
2083.819	250.61
2087.007	250.91
2090.195	255.04
2093.382	256.62
2096.569	255.59
2099.756	259.21
2102.942	259.96
2106.128	261.49
2109.314	269.4
2112.5	267.71
2115.685	272.3
2118.87	273.02
2122.055	277.58
2125.239	278.08
2128.424	282.07
2131.608	285.04
2134.791	288.75
2137.974	289.48
2141.157	291.71
2144.34	291.1
2147.523	296.18
2150.705	295.43
2153.887	298.04
2157.068	298.73
2160.25	297.64
2163.431	298.77
2166.611	302.06
2169.792	306.96
2172.972	310.91
2176.152	312.97
2179.331	316.98
2182.511	320.9
2185.69	324.81
2188.868	330.28
2192.047	331.55
2195.225	340.63
2198.403	349.81
2201.58	356.29
2204.758	363.06
2207.935	370.44
2211.111	378.95
2214.288	382.46
2217.464	383.73
2220.64	390.41
2223.815	396.17
2226.991	411.37
2230.166	412.07
2233.34	417.89
2236.515	424.42
2239.689	426.05
2242.863	427.99
2246.036	436.72
2249.209	434.38
2252.382	443.36
2255.555	452.8
2258.727	454.84
2261.9	458.1
2265.071	462.15
2268.243	471.3
2271.414	477.42
2274.585	486.35
2277.756	490.29
2280.926	495.58
2284.096	507.07
2287.266	515.3
2290.436	522.6
2293.605	534.15
2296.774	552.54
2299.942	567.63
2303.111	570.35
2306.279	581.62
2309.447	591.27
2312.614	607.34
2315.781	622.34
2318.948	651.16
2322.115	643.94
2325.281	678.83
2328.447	667.19
2331.613	688.58
2334.779	684.08
2337.944	711.5
2341.109	718.5
2344.274	736.73
2347.438	764.66
2350.602	767.13
2353.766	790.99
2356.929	803.74
2360.092	799.53
2363.255	855.51
2366.418	856.41
2369.58	872.14
2372.742	927.49
2375.904	950.33
2379.066	946.85
2382.227	925
2385.388	1002.21
2388.548	1003.8
2391.709	1014.41
2394.869	1123.79
2398.029	1081.56
2401.188	1112.15
2404.347	1107.95
2407.506	1086.16
2410.665	1121.1
2413.823	1187.96
2416.981	1260.15
2420.139	1220.01
2423.296	1204.61
2426.453	1265.39
2429.61	1218.99
2432.767	1267.01
2435.923	1253.87
2439.079	1375.26
2442.235	1402.87
2445.391	1383.01
2448.546	1370.99
2451.701	1334.89
2454.855	1331.64
2458.009	1415.05
2461.163	1464.72
2464.317	1517.42
2467.471	1554.91
2470.624	1557.62
2473.777	1509.95
2476.929	1462.47
2480.082	1420.85
2483.234	1405.81
2486.385	1478.21
2489.537	1487.26
2492.688	1540.22
2495.839	1499.6
2498.989	1464.1
2502.14	1474.41
2505.29	1488.28
2508.439	1507.73
2511.589	1511.52
2514.738	1646.63
2517.887	1611.25
2521.035	1696.62
2524.183	1707.98
2527.331	1719.81
2530.479	1706.19
2533.627	1722.9
