Data from C_3_DEC_VA_2N_Splice17_14-18-39-336.txt Node
Date: Sat Mar 07 14:18:39 EST 2020
User: sa697716
Spectrometer: NQ5500242
Trigger mode: 0
Integration Time (sec): 1.450000E-1
Scans to average: 20
Nonlinearity correction enabled: false
Boxcar width: 5
Storing dark spectrum: false
XAxis mode: Wavelengths
Number of Pixels in Spectrum: 512
>>>>>Begin Spectral Data<<<<<
187.83	135.65
188.298	148.72
188.766	112.74
189.233	96.45
189.701	91.28
190.169	104.49
190.636	113.88
191.104	24.73
191.571	67.11
192.039	242.18
192.506	151.38
192.974	200.22
193.441	357.35
193.908	101.77
194.375	59.26
194.842	26.46
195.31	83.66
195.777	184.61
196.244	52.31
196.711	71.7
197.177	75.46
197.644	76.43
198.111	75.91
198.578	75.77
199.045	76.22
199.511	76.41
199.978	76.5
200.445	76.57
200.911	76.52
201.378	77.03
201.844	76.97
202.31	76.46
202.777	76.2
203.243	76.25
203.709	75.93
204.176	75.34
204.642	74.75
205.108	74.16
205.574	73.5
206.04	72.93
206.506	71.97
206.972	71.29
207.438	70.49
207.903	69.19
208.369	67.4
208.835	65.85
209.301	64.04
209.766	62.13
210.232	60.24
210.697	58.37
211.163	56.42
211.628	54.9
212.094	53.25
212.559	51.91
213.024	50.66
213.49	49.45
213.955	48.11
214.42	47.13
214.885	45.61
215.35	43.8
215.815	41.22
216.28	38.1
216.745	34.52
217.21	30.94
217.675	27.68
218.14	24.77
218.604	22.27
219.069	20.16
219.534	18.27
219.998	16.81
220.463	15.54
220.927	14.47
221.392	13.65
221.856	12.97
222.32	12.41
222.785	11.87
223.249	11.44
223.713	11.03
224.177	10.7
224.642	10.4
225.106	10.08
225.57	9.8
226.034	9.54
226.497	9.3
226.961	9.07
227.425	8.88
227.889	8.69
228.353	8.48
228.816	8.31
229.28	8.12
229.744	7.96
230.207	7.82
230.671	7.68
231.134	7.54
231.597	7.43
232.061	7.31
232.524	7.18
232.987	7.08
233.45	6.99
233.914	6.89
234.377	6.8
234.84	6.71
235.303	6.63
235.766	6.56
236.229	6.5
236.691	6.43
237.154	6.36
237.617	6.3
238.08	6.23
238.542	6.17
239.005	6.12
239.468	6.06
239.93	6.01
240.393	5.96
240.855	5.89
241.317	5.83
241.78	5.78
242.242	5.72
242.704	5.67
243.166	5.61
243.629	5.57
244.091	5.51
244.553	5.45
245.015	5.4
245.477	5.35
245.939	5.32
246.4	5.27
246.862	5.22
247.324	5.18
247.786	5.12
248.247	5.08
248.709	5.02
249.17	4.97
249.632	4.94
250.093	4.91
250.555	4.87
251.016	4.83
251.477	4.79
251.939	4.76
252.4	4.73
252.861	4.7
253.322	4.67
253.783	4.65
254.244	4.64
254.705	4.6
255.166	4.57
255.627	4.54
256.088	4.52
256.549	4.5
257.009	4.48
257.47	4.45
257.931	4.43
258.391	4.39
258.852	4.36
259.312	4.33
259.773	4.3
260.233	4.27
260.694	4.24
261.154	4.21
261.614	4.18
262.074	4.15
262.534	4.11
262.994	4.09
263.455	4.07
263.915	4.04
264.374	4.02
264.834	4.01
265.294	3.99
265.754	3.98
266.214	3.96
266.673	3.94
267.133	3.93
267.593	3.93
268.052	3.91
268.512	3.91
268.971	3.9
269.431	3.89
269.89	3.88
270.349	3.87
270.809	3.86
271.268	3.86
271.727	3.86
272.186	3.85
272.645	3.85
273.104	3.85
273.563	3.85
274.022	3.84
274.481	3.84
274.94	3.84
275.399	3.83
275.857	3.83
276.316	3.83
276.775	3.83
277.233	3.83
277.692	3.82
278.15	3.82
278.609	3.82
279.067	3.83
279.525	3.83
279.984	3.82
280.442	3.82
280.9	3.83
281.358	3.82
281.816	3.83
282.274	3.82
282.732	3.83
283.19	3.82
283.648	3.82
284.106	3.82
284.564	3.82
285.021	3.83
285.479	3.83
285.937	3.82
286.394	3.82
286.852	3.81
287.309	3.82
287.767	3.81
288.224	3.81
288.682	3.79
289.139	3.78
289.596	3.77
290.053	3.75
290.511	3.73
290.968	3.72
291.425	3.71
291.882	3.7
292.339	3.68
292.796	3.66
293.252	3.65
293.709	3.64
294.166	3.63
294.623	3.63
295.079	3.62
295.536	3.62
295.992	3.61
296.449	3.6
296.905	3.58
297.362	3.57
297.818	3.56
298.274	3.56
298.731	3.55
299.187	3.54
299.643	3.53
300.099	3.53
300.555	3.53
301.011	3.52
301.467	3.52
301.923	3.51
302.379	3.52
302.835	3.52
303.291	3.52
303.746	3.51
304.202	3.52
304.658	3.52
305.113	3.52
305.569	3.51
306.024	3.52
306.479	3.52
306.935	3.52
307.39	3.52
307.845	3.52
308.301	3.53
308.756	3.54
309.211	3.54
309.666	3.55
310.121	3.56
310.576	3.56
311.031	3.56
311.486	3.57
311.94	3.58
312.395	3.58
312.85	3.58
313.305	3.58
313.759	3.59
314.214	3.59
314.668	3.58
315.123	3.59
315.577	3.59
316.032	3.6
316.486	3.6
316.94	3.59
317.394	3.59
317.849	3.57
318.303	3.57
318.757	3.55
319.211	3.54
319.665	3.53
320.119	3.51
320.572	3.49
321.026	3.48
321.48	3.47
321.934	3.46
322.387	3.45
322.841	3.45
323.295	3.45
323.748	3.45
324.202	3.44
324.655	3.44
325.108	3.44
325.562	3.44
326.015	3.45
326.468	3.45
326.921	3.45
327.374	3.46
327.827	3.45
328.28	3.45
328.733	3.45
329.186	3.45
329.639	3.45
330.092	3.46
330.545	3.46
330.997	3.45
331.45	3.46
331.903	3.47
332.355	3.48
332.808	3.48
333.26	3.49
333.713	3.5
334.165	3.5
334.617	3.51
335.069	3.51
335.522	3.52
335.974	3.53
336.426	3.53
336.878	3.53
337.33	3.53
337.782	3.54
338.234	3.54
338.686	3.54
339.137	3.54
339.589	3.53
340.041	3.53
340.493	3.52
340.944	3.5
341.396	3.5
341.847	3.48
342.299	3.46
342.75	3.44
343.201	3.42
343.653	3.41
344.104	3.38
344.555	3.37
345.006	3.36
345.457	3.35
345.908	3.34
346.359	3.33
346.81	3.33
347.261	3.33
347.712	3.32
348.163	3.31
348.613	3.32
349.064	3.32
349.515	3.32
349.965	3.33
350.416	3.32
350.866	3.32
351.317	3.31
351.767	3.32
352.217	3.32
352.668	3.31
353.118	3.32
353.568	3.32
354.018	3.32
354.468	3.33
354.918	3.33
355.368	3.34
355.818	3.35
356.268	3.35
356.718	3.36
357.168	3.36
357.617	3.36
358.067	3.35
358.517	3.36
358.966	3.36
359.416	3.36
359.865	3.36
360.315	3.36
360.764	3.36
361.213	3.36
361.663	3.35
362.112	3.35
362.561	3.36
363.01	3.36
363.459	3.34
363.908	3.34
364.357	3.34
364.806	3.33
365.255	3.33
365.703	3.33
366.152	3.34
366.601	3.35
367.05	3.36
367.498	3.36
367.947	3.37
368.395	3.37
368.844	3.38
369.292	3.38
369.74	3.38
370.189	3.39
370.637	3.39
371.085	3.37
371.533	3.37
371.981	3.37
372.429	3.36
372.877	3.37
373.325	3.37
373.773	3.35
374.221	3.36
374.669	3.35
375.116	3.35
375.564	3.35
376.012	3.36
376.459	3.36
376.907	3.36
377.354	3.37
377.801	3.38
378.249	3.38
378.696	3.39
379.143	3.4
379.591	3.41
380.038	3.42
380.485	3.42
380.932	3.43
381.379	3.44
381.826	3.45
382.273	3.46
382.72	3.46
383.166	3.47
383.613	3.48
384.06	3.48
384.506	3.49
384.953	3.5
385.4	3.52
385.846	3.54
386.292	3.55
386.739	3.57
387.185	3.59
387.631	3.62
388.078	3.63
388.524	3.65
388.97	3.67
389.416	3.7
389.862	3.72
390.308	3.75
390.754	3.77
391.2	3.81
391.645	3.84
392.091	3.87
392.537	3.91
392.983	3.95
393.428	3.98
393.874	4.02
394.319	4.05
394.765	4.07
395.21	4.1
395.655	4.13
396.101	4.16
396.546	4.18
396.991	4.22
397.436	4.25
397.881	4.3
398.326	4.34
398.771	4.39
399.216	4.43
399.661	4.48
400.106	4.51
400.551	4.54
400.995	4.55
401.44	4.57
401.885	4.59
402.329	4.61
402.774	4.61
403.218	4.64
403.663	4.65
404.107	4.67
404.551	4.68
404.995	4.7
405.44	4.72
405.884	4.75
406.328	4.78
406.772	4.8
407.216	4.83
407.66	4.85
408.104	4.86
408.547	4.88
408.991	4.9
409.435	4.9
409.879	4.92
410.322	4.95
410.766	4.97
411.209	5
411.653	5.03
412.096	5.04
412.54	5.06
412.983	5.08
413.426	5.12
413.869	5.14
414.312	5.18
414.756	5.2
415.199	5.21
415.642	5.23
416.085	5.24
416.527	5.25
416.97	5.24
417.413	5.25
417.856	5.25
418.298	5.23
418.741	5.23
419.184	5.22
419.626	5.22
420.069	5.23
420.511	5.22
420.953	5.22
421.396	5.22
421.838	5.23
422.28	5.23
422.722	5.26
423.164	5.27
423.606	5.28
424.048	5.28
424.49	5.29
424.932	5.28
425.374	5.27
425.816	5.25
426.258	5.23
426.699	5.21
427.141	5.19
427.582	5.18
428.024	5.18
428.465	5.19
428.907	5.18
429.348	5.16
429.789	5.15
430.231	5.16
430.672	5.18
431.113	5.21
431.554	5.23
431.995	5.25
432.436	5.25
432.877	5.23
433.318	5.24
433.759	5.26
434.2	5.3
434.64	5.33
435.081	5.33
435.522	5.35
435.962	5.37
436.403	5.41
436.843	5.43
437.284	5.43
437.724	5.45
438.164	5.46
438.604	5.47
439.045	5.48
439.485	5.49
439.925	5.51
440.365	5.54
440.805	5.55
441.245	5.56
441.685	5.6
442.125	5.65
442.564	5.69
443.004	5.71
443.444	5.75
443.883	5.78
444.323	5.81
444.762	5.86
445.202	5.87
445.641	5.92
446.081	5.95
446.52	5.99
446.959	6.03
447.398	6.08
447.837	6.13
448.276	6.15
448.716	6.19
449.154	6.24
449.593	6.27
450.032	6.31
450.471	6.33
450.91	6.34
451.349	6.35
451.787	6.35
452.226	6.35
452.664	6.35
453.103	6.36
453.541	6.36
453.98	6.35
454.418	6.34
454.856	6.32
455.295	6.3
455.733	6.28
456.171	6.27
456.609	6.26
457.047	6.24
457.485	6.22
457.923	6.2
458.361	6.19
458.798	6.18
459.236	6.17
459.674	6.16
460.111	6.15
460.549	6.16
460.987	6.16
461.424	6.16
461.862	6.17
462.299	6.18
462.736	6.16
463.173	6.15
463.611	6.15
464.048	6.15
464.485	6.14
464.922	6.14
465.359	6.14
465.796	6.13
466.233	6.13
466.67	6.13
467.106	6.13
467.543	6.14
467.98	6.14
468.416	6.15
468.853	6.16
469.29	6.17
469.726	6.18
470.162	6.18
470.599	6.19
471.035	6.19
471.471	6.18
471.907	6.17
472.344	6.19
472.78	6.2
473.216	6.19
473.652	6.19
474.088	6.17
474.523	6.18
474.959	6.19
475.395	6.17
475.831	6.17
476.266	6.18
476.702	6.19
477.138	6.18
477.573	6.18
478.008	6.17
478.444	6.16
478.879	6.18
479.314	6.17
479.75	6.15
480.185	6.15
480.62	6.14
481.055	6.14
481.49	6.13
481.925	6.13
482.36	6.13
482.795	6.14
483.229	6.16
483.664	6.17
484.099	6.18
484.534	6.2
484.968	6.22
485.403	6.24
485.837	6.27
486.271	6.3
486.706	6.33
487.14	6.36
487.574	6.39
488.009	6.43
488.443	6.47
488.877	6.53
489.311	6.58
489.745	6.65
490.179	6.71
490.613	6.78
491.046	6.85
491.48	6.93
491.914	7
492.348	7.09
492.781	7.18
493.215	7.27
493.648	7.37
494.082	7.47
494.515	7.57
494.948	7.68
495.382	7.79
495.815	7.9
496.248	8.03
496.681	8.17
497.114	8.3
497.547	8.44
497.98	8.58
498.413	8.72
498.846	8.87
499.279	9.02
499.711	9.18
500.144	9.35
500.577	9.53
501.009	9.7
501.442	9.88
501.874	10.07
502.306	10.25
502.739	10.45
503.171	10.66
503.603	10.87
504.036	11.09
504.468	11.3
504.9	11.51
505.332	11.74
505.764	11.97
506.196	12.2
506.627	12.44
507.059	12.69
507.491	12.93
507.923	13.18
508.354	13.46
508.786	13.73
509.217	13.99
509.649	14.27
510.08	14.54
510.512	14.83
510.943	15.11
511.374	15.39
511.805	15.67
512.237	15.96
512.668	16.25
513.099	16.52
513.53	16.81
513.961	17.1
514.391	17.38
514.822	17.68
515.253	17.95
515.684	18.24
516.114	18.52
516.545	18.81
516.975	19.08
517.406	19.35
517.836	19.62
518.267	19.9
518.697	20.16
519.127	20.41
519.558	20.65
519.988	20.91
520.418	21.14
520.848	21.38
521.278	21.61
521.708	21.94
522.138	22.16
522.567	22.37
522.997	22.55
523.427	22.76
523.857	22.96
524.286	23.14
524.716	23.31
525.145	23.49
525.575	23.67
526.004	23.84
526.433	23.89
526.863	24.04
527.292	24.2
527.721	24.34
528.15	24.47
528.579	24.59
529.008	24.73
529.437	24.84
529.866	24.96
530.295	25.05
530.724	25.15
531.152	25.24
531.581	25.34
532.01	25.41
532.438	25.49
532.867	25.57
533.295	25.64
533.723	25.68
534.152	25.75
534.58	25.8
535.008	25.83
535.436	25.88
535.865	25.94
536.293	25.98
536.721	26.01
537.149	26.05
537.576	26.07
538.004	26.11
538.432	26.14
538.86	26.17
539.287	26.19
539.715	26.24
540.143	26.24
540.57	26.24
540.998	26.25
541.425	26.26
541.852	26.28
542.28	26.31
542.707	26.31
543.134	26.34
543.561	26.37
543.988	26.39
544.415	26.4
544.842	26.42
545.269	26.46
545.696	26.49
546.123	26.53
546.549	26.56
546.976	26.57
547.403	26.6
547.829	26.62
548.256	26.63
548.682	26.66
549.108	26.68
549.535	26.71
549.961	26.73
550.387	26.74
550.813	26.75
551.24	26.75
551.666	26.75
552.092	26.76
552.518	26.76
552.943	26.74
553.369	26.73
553.795	26.72
554.221	26.71
554.646	26.68
555.072	26.67
555.498	26.65
555.923	26.62
556.349	26.6
556.774	26.57
557.199	26.53
557.625	26.51
558.05	26.46
558.475	26.41
558.9	26.37
559.325	26.32
559.75	26.24
560.175	26.17
560.6	26.09
561.025	26.02
561.449	25.94
561.874	25.88
562.299	25.8
562.723	25.72
563.148	25.61
563.572	25.5
563.997	25.4
564.421	25.3
564.846	25.2
565.27	25.1
565.694	24.99
566.118	24.88
566.542	24.75
566.966	24.62
567.39	24.51
567.814	24.39
568.238	24.26
568.662	24.15
569.086	24.03
569.509	23.91
569.933	23.79
570.357	23.65
570.78	23.51
571.204	23.39
571.627	23.28
572.05	23.16
572.474	23.06
572.897	22.96
573.32	22.85
573.743	22.75
574.166	22.65
574.589	22.55
575.012	22.46
575.435	22.37
575.858	22.3
576.281	22.21
576.704	22.13
577.126	22.05
577.549	21.98
577.972	21.9
578.394	21.81
578.817	21.74
579.239	21.67
579.661	21.6
580.084	21.53
580.506	21.45
580.928	21.38
581.35	21.31
581.772	21.23
582.194	21.17
582.616	21.12
583.038	21.07
583.46	20.99
583.882	20.93
584.303	20.86
584.725	20.8
585.147	20.75
585.568	20.7
585.99	20.64
586.411	20.59
586.833	20.55
587.254	20.48
587.675	20.42
588.096	20.38
588.518	20.35
588.939	20.31
589.36	20.28
589.781	20.23
590.202	20.2
590.623	20.17
591.043	20.13
591.464	20.08
591.885	20.05
592.305	20.02
592.726	19.99
593.147	19.94
593.567	19.89
593.987	19.85
594.408	19.82
594.828	19.78
595.248	19.74
595.669	19.72
596.089	19.69
596.509	19.67
596.929	19.63
597.349	19.59
597.769	19.57
598.189	19.54
598.608	19.52
599.028	19.48
599.448	19.45
599.867	19.41
600.287	19.37
600.706	19.32
601.126	19.27
601.545	19.23
601.965	19.18
602.384	19.14
602.803	19.12
603.222	19.06
603.641	19.02
604.061	18.97
604.48	18.91
604.898	18.85
605.317	18.8
605.736	18.75
606.155	18.7
606.574	18.63
606.992	18.55
607.411	18.49
607.829	18.39
608.248	18.31
608.666	18.23
609.085	18.18
609.503	18.13
609.921	18.06
610.339	18
610.758	17.93
611.176	17.86
611.594	17.8
612.012	17.72
612.43	17.69
612.847	17.63
613.265	17.57
613.683	17.5
614.101	17.43
614.518	17.35
614.936	17.28
615.353	17.21
615.771	17.16
616.188	17.1
616.606	17.06
617.023	17
617.44	16.97
617.857	16.92
618.274	16.86
618.691	16.81
619.108	16.77
619.525	16.74
619.942	16.71
620.359	16.67
620.776	16.64
621.192	16.6
621.609	16.58
622.026	16.54
622.442	16.52
622.859	16.5
623.275	16.49
623.691	16.46
624.108	16.44
624.524	16.42
624.94	16.41
625.356	16.39
625.772	16.37
626.188	16.36
626.604	16.35
627.02	16.34
627.436	16.32
627.852	16.31
628.268	16.29
628.683	16.28
629.099	16.28
629.514	16.24
629.93	16.22
630.345	16.2
630.761	16.14
631.176	16.11
631.591	16.05
632.007	16
632.422	15.94
632.837	15.87
633.252	15.79
633.667	15.69
634.082	15.59
634.497	15.49
634.911	15.38
635.326	15.26
635.741	15.14
636.155	15.01
636.57	14.89
636.984	14.75
637.399	14.6
637.813	14.45
638.228	14.32
638.642	14.16
639.056	14
639.47	13.85
639.884	13.69
640.298	13.51
640.712	13.34
641.126	13.17
641.54	13
641.954	12.84
642.368	12.66
642.781	12.5
643.195	12.34
643.609	12.18
644.022	12.02
644.436	11.88
644.849	11.74
645.262	11.6
645.676	11.48
646.089	11.36
646.502	11.25
646.915	11.16
647.328	11.06
647.741	10.98
648.154	10.91
648.567	10.84
648.98	10.77
649.393	10.72
649.805	10.67
650.218	10.62
650.631	10.58
651.043	10.54
651.456	10.49
651.868	10.44
652.28	10.39
652.693	10.33
653.105	10.28
653.517	10.23
653.929	10.17
654.341	10.09
654.753	10.02
655.165	9.95
655.577	9.88
655.989	9.81
656.401	9.72
656.813	9.63
657.224	9.53
657.636	9.42
658.047	9.33
658.459	9.2
658.87	9.1
659.282	8.98
659.693	8.85
660.104	8.71
660.515	8.58
660.926	8.46
661.338	8.34
661.749	8.22
662.159	8.09
662.57	7.98
662.981	7.87
663.392	7.74
663.803	7.64
664.213	7.53
664.624	7.43
665.035	7.34
665.445	7.25
665.855	7.15
666.266	7.07
666.676	7
667.086	6.92
667.497	6.86
667.907	6.81
668.317	6.76
668.727	6.7
669.137	6.67
669.547	6.63
669.956	6.59
670.366	6.57
670.776	6.55
671.186	6.52
671.595	6.51
672.005	6.49
672.414	6.48
672.824	6.47
673.233	6.48
673.642	6.49
674.052	6.49
674.461	6.5
674.87	6.51
675.279	6.55
675.688	6.58
676.097	6.63
676.506	6.67
676.915	6.72
677.323	6.78
677.732	6.83
678.141	6.9
678.549	6.98
678.958	7.08
679.366	7.19
679.775	7.3
680.183	7.44
680.592	7.59
681	7.75
681.408	7.95
681.816	8.17
682.224	8.41
682.632	8.67
683.04	8.96
683.448	9.26
683.856	9.6
684.264	9.96
684.671	10.33
685.079	10.73
685.487	11.16
685.894	11.61
686.302	12.07
686.709	12.56
687.116	13.07
687.524	13.6
687.931	14.16
688.338	14.72
688.745	15.3
689.152	15.89
689.559	16.49
689.966	17.08
690.373	17.69
690.78	18.3
691.187	18.92
691.593	19.52
692	20.11
692.407	20.68
692.813	21.26
693.22	21.84
693.626	22.4
694.032	22.96
694.439	23.52
694.845	24.06
695.251	24.59
695.657	25.1
696.063	25.6
696.469	26.09
696.875	26.59
697.281	27.05
697.687	27.5
698.093	27.95
698.498	28.37
698.904	28.78
699.31	29.17
699.715	29.55
700.12	29.93
700.526	30.3
700.931	30.65
701.337	30.97
701.742	31.29
702.147	31.61
702.552	31.93
702.957	32.21
703.362	32.5
703.767	32.77
704.172	33.04
704.577	33.3
704.981	33.55
705.386	33.79
705.791	34.03
706.195	34.28
706.6	34.5
707.004	34.71
707.408	34.93
707.813	35.14
708.217	35.34
708.621	35.55
709.025	35.74
709.43	35.92
709.834	36.12
710.237	36.3
710.641	36.47
711.045	36.66
711.449	36.84
711.853	37.03
712.256	37.18
712.66	37.34
713.064	37.48
713.467	37.62
713.87	37.77
714.274	37.89
714.677	38.02
715.08	38.13
715.484	38.26
715.887	38.38
716.29	38.5
716.693	38.62
717.096	38.75
717.499	38.89
717.901	39.02
718.304	39.13
718.707	39.27
719.109	39.4
719.512	39.53
719.915	39.63
720.317	39.72
720.719	39.81
721.122	39.91
721.524	39.99
721.926	40.06
722.328	40.15
722.731	40.24
723.133	40.3
723.535	40.37
723.937	40.43
724.338	40.5
724.74	40.56
725.142	40.66
725.544	40.71
725.945	40.79
726.347	40.85
726.748	40.93
727.15	40.98
727.551	41.03
727.952	41.07
728.354	41.15
728.755	41.17
729.156	41.22
729.557	41.26
729.958	41.3
730.359	41.32
730.76	41.35
731.161	41.34
731.562	41.39
731.962	41.4
732.363	41.45
732.763	41.46
733.164	41.52
733.564	41.57
733.965	41.57
734.365	41.6
734.766	41.64
735.166	41.67
735.566	41.72
735.966	41.74
736.366	41.78
736.766	41.8
737.166	41.82
737.566	41.83
737.966	41.83
738.365	41.85
738.765	41.91
739.165	41.92
739.564	41.94
739.964	41.95
740.363	41.95
740.763	41.97
741.162	41.98
741.561	41.98
741.96	41.99
742.36	42.01
742.759	42.01
743.158	41.99
743.557	41.98
743.955	41.97
744.354	41.98
744.753	42
745.152	42.03
745.55	42.03
745.949	42.05
746.348	42.1
746.746	42.08
747.144	42.11
747.543	42.14
747.941	42.18
748.339	42.19
748.737	42.2
749.136	42.2
749.534	42.18
749.932	42.21
750.33	42.21
750.727	42.19
751.125	42.2
751.523	42.19
751.921	42.17
752.318	42.17
752.716	42.16
753.113	42.17
753.511	42.17
753.908	42.16
754.305	42.14
754.703	42.13
755.1	42.14
755.497	42.13
755.894	42.11
756.291	42.08
756.688	42.05
757.085	42.05
757.482	42.02
757.878	42.01
758.275	42
758.672	41.97
759.068	41.98
759.465	41.97
759.861	41.97
760.258	41.98
760.654	42
761.05	42
761.447	42.01
761.843	42
762.239	41.99
762.635	42
763.031	42.02
763.427	42.01
763.822	42.02
764.218	42.02
764.614	42
765.01	42
765.405	41.99
765.801	41.99
766.196	42.02
766.592	42.02
766.987	42.02
767.382	42.02
767.778	42.03
768.173	42.02
768.568	42.02
768.963	42.03
769.358	42.04
769.753	42.05
770.148	42.06
770.542	42.04
770.937	42.07
771.332	42.07
771.726	42.07
772.121	42.06
772.515	42.07
772.91	42.08
773.304	42.09
773.699	42.1
774.093	42.08
774.487	42.07
774.881	42.08
775.275	42.04
775.669	42.04
776.063	42.03
776.457	42.02
776.851	42.02
777.245	41.99
777.638	41.99
778.032	42
778.425	42.05
778.819	42.04
779.212	42.05
779.606	42.09
779.999	42.08
780.392	42.11
780.786	42.13
781.179	42.13
781.572	42.16
781.965	42.18
782.358	42.17
782.751	42.15
783.143	42.18
783.536	42.18
783.929	42.19
784.322	42.22
784.714	42.22
785.107	42.25
785.499	42.26
785.891	42.27
786.284	42.29
786.676	42.29
787.068	42.28
787.46	42.27
787.852	42.29
788.245	42.3
788.636	42.28
789.028	42.3
789.42	42.28
789.812	42.28
790.204	42.29
790.595	42.3
790.987	42.32
791.378	42.37
791.77	42.41
792.161	42.4
792.553	42.42
792.944	42.46
793.335	42.48
793.726	42.48
794.117	42.48
794.508	42.48
794.899	42.46
795.29	42.44
795.681	42.42
796.072	42.45
796.463	42.47
796.853	42.45
797.244	42.44
797.634	42.43
798.025	42.47
798.415	42.48
798.806	42.48
799.196	42.49
799.586	42.5
799.976	42.54
800.366	42.53
800.756	42.53
801.146	42.56
801.536	42.57
801.926	42.57
802.316	42.56
802.706	42.59
803.095	42.63
803.485	42.65
803.874	42.69
804.264	42.69
804.653	42.69
805.043	42.69
805.432	42.7
805.821	42.7
806.21	42.74
806.599	42.75
806.988	42.74
807.377	42.74
807.766	42.74
808.155	42.72
808.544	42.73
808.933	42.75
809.321	42.77
809.71	42.78
810.098	42.78
810.487	42.75
810.875	42.77
811.264	42.78
811.652	42.79
812.04	42.81
812.428	42.84
812.816	42.85
813.204	42.83
813.592	42.82
813.98	42.85
814.368	42.88
814.756	42.91
815.144	42.91
815.531	42.9
815.919	42.9
816.306	42.9
816.694	42.89
817.081	42.89
817.469	42.9
817.856	42.92
818.243	42.9
818.63	42.88
819.017	42.86
819.404	42.85
819.791	42.88
820.178	42.89
820.565	42.87
820.952	42.87
821.339	42.86
821.725	42.88
822.112	42.88
822.498	42.9
822.885	42.92
823.271	42.92
823.657	42.9
824.044	42.88
824.43	42.91
824.816	42.89
825.202	42.87
825.588	42.87
825.974	42.86
826.36	42.84
826.746	42.82
827.132	42.82
827.517	42.83
827.903	42.86
828.289	42.85
828.674	42.83
829.06	42.86
829.445	42.84
829.83	42.83
830.216	42.81
830.601	42.81
830.986	42.78
831.371	42.76
831.756	42.77
832.141	42.74
832.526	42.72
832.911	42.7
833.295	42.69
833.68	42.7
834.065	42.69
834.449	42.67
834.834	42.67
835.218	42.68
835.603	42.67
835.987	42.63
836.371	42.62
836.755	42.59
837.139	42.57
837.524	42.55
837.908	42.55
838.291	42.55
838.675	42.56
839.059	42.55
839.443	42.52
839.827	42.51
840.21	42.51
840.594	42.51
840.977	42.53
841.361	42.54
841.744	42.52
842.127	42.49
842.511	42.48
842.894	42.46
843.277	42.43
843.66	42.43
844.043	42.45
844.426	42.44
844.809	42.44
845.191	42.44
845.574	42.44
845.957	42.46
846.339	42.47
846.722	42.48
847.104	42.51
847.487	42.54
847.869	42.54
848.252	42.52
848.634	42.51
849.016	42.52
849.398	42.53
849.78	42.52
850.162	42.51
850.544	42.51
850.926	42.51
851.307	42.49
851.689	42.48
852.071	42.49
852.452	42.5
852.834	42.52
853.215	42.53
853.597	42.53
853.978	42.54
854.359	42.54
854.741	42.55
855.122	42.56
855.503	42.57
855.884	42.56
856.265	42.57
856.646	42.54
857.026	42.54
857.407	42.56
857.788	42.53
858.169	42.55
858.549	42.55
858.93	42.54
859.31	42.53
859.69	42.52
860.071	42.54
860.451	42.54
860.831	42.56
861.211	42.55
861.591	42.52
861.971	42.55
862.351	42.55
862.731	42.57
863.111	42.57
863.491	42.58
863.87	42.58
864.25	42.56
864.629	42.57
865.009	42.58
865.388	42.56
865.768	42.57
866.147	42.56
866.526	42.54
866.905	42.53
867.284	42.54
867.663	42.55
868.042	42.57
868.421	42.6
868.8	42.6
869.179	42.6
869.558	42.61
869.936	42.61
870.315	42.61
870.693	42.62
871.072	42.62
871.45	42.61
871.828	42.61
872.207	42.62
872.585	42.59
872.963	42.62
873.341	42.64
873.719	42.66
874.097	42.64
874.475	42.65
874.853	42.66
875.23	42.71
875.608	42.71
875.986	42.73
876.363	42.73
876.741	42.76
877.118	42.75
877.495	42.74
877.873	42.75
878.25	42.8
878.627	42.81
879.004	42.81
879.381	42.78
879.758	42.76
880.135	42.73
880.512	42.71
880.889	42.69
881.265	42.66
881.642	42.65
882.019	42.64
882.395	42.6
882.772	42.59
883.148	42.56
883.524	42.54
883.901	42.55
884.277	42.53
884.653	42.53
885.029	42.51
885.405	42.52
885.781	42.51
886.157	42.49
886.532	42.5
886.908	42.49
887.284	42.49
887.659	42.46
888.035	42.45
888.411	42.46
888.786	42.45
889.161	42.44
889.537	42.44
889.912	42.43
890.287	42.42
890.662	42.39
891.037	42.4
891.412	42.38
891.787	42.39
892.162	42.4
892.536	42.38
892.911	42.37
893.286	42.36
893.66	42.33
894.035	42.31
894.409	42.3
894.784	42.29
895.158	42.28
895.532	42.29
895.906	42.28
896.281	42.24
896.655	42.22
897.029	42.22
897.402	42.2
897.776	42.24
898.15	42.24
898.524	42.25
898.898	42.26
899.271	42.24
899.645	42.25
900.018	42.24
900.392	42.27
900.765	42.3
901.138	42.28
901.511	42.31
901.884	42.31
902.258	42.31
902.631	42.33
903.003	42.35
903.376	42.39
903.749	42.4
904.122	42.45
904.495	42.47
904.867	42.5
905.24	42.53
905.612	42.54
905.985	42.52
906.357	42.53
906.729	42.53
907.102	42.52
907.474	42.53
907.846	42.52
908.218	42.49
908.59	42.5
908.962	42.48
909.334	42.5
909.705	42.52
910.077	42.54
910.449	42.56
910.82	42.55
911.192	42.57
911.563	42.54
911.935	42.53
912.306	42.56
912.677	42.57
913.048	42.57
913.419	42.55
913.79	42.56
914.161	42.56
914.532	42.54
914.903	42.56
915.274	42.55
915.645	42.58
916.015	42.57
916.386	42.59
916.756	42.58
917.127	42.6
917.497	42.63
917.868	42.63
918.238	42.6
918.608	42.63
918.978	42.63
919.348	42.65
919.718	42.63
920.088	42.64
920.458	42.61
920.828	42.6
921.198	42.59
921.567	42.57
921.937	42.59
922.306	42.6
922.676	42.61
923.045	42.62
923.415	42.6
923.784	42.62
924.153	42.63
924.522	42.65
924.891	42.64
925.26	42.65
925.629	42.67
925.998	42.66
926.367	42.63
926.736	42.61
927.104	42.62
927.473	42.62
927.842	42.58
928.21	42.61
928.578	42.6
928.947	42.62
929.315	42.58
929.683	42.52
930.051	42.48
930.42	42.5
930.788	42.46
931.156	42.41
931.523	42.38
931.891	42.43
932.259	42.37
932.627	42.36
932.994	42.35
933.362	42.34
933.729	42.35
934.097	42.36
934.464	42.37
934.831	42.36
935.199	42.39
935.566	42.44
935.933	42.4
936.3	42.42
936.667	42.38
937.034	42.4
937.401	42.45
937.767	42.48
938.134	42.5
938.501	42.56
938.867	42.64
939.234	42.7
939.6	42.75
939.967	42.83
940.333	42.86
940.699	42.98
941.065	42.99
941.431	43.07
941.798	43.09
942.163	43.18
942.529	43.24
942.895	43.3
943.261	43.35
943.627	43.35
943.992	43.38
944.358	43.46
944.723	43.45
945.089	43.46
945.454	43.49
945.82	43.52
946.185	43.47
946.55	43.4
946.915	43.34
947.28	43.31
947.645	43.33
948.01	43.29
948.375	43.27
948.74	43.28
949.104	43.28
949.469	43.23
949.834	43.19
950.198	43.17
950.562	43.18
950.927	43.12
951.291	43.05
951.655	42.99
952.02	42.95
952.384	42.89
952.748	42.82
953.112	42.73
953.476	42.62
953.839	42.57
954.203	42.52
954.567	42.42
954.931	42.38
955.294	42.36
955.658	42.4
956.021	42.36
956.385	42.3
956.748	42.28
957.111	42.26
957.474	42.32
957.837	42.28
958.2	42.25
958.563	42.27
958.926	42.3
959.289	42.33
959.652	42.25
960.015	42.26
960.377	42.33
960.74	42.35
961.102	42.39
961.465	42.4
961.827	42.43
962.189	42.48
962.552	42.48
962.914	42.43
963.276	42.42
963.638	42.42
964	42.4
964.362	42.33
964.724	42.28
965.085	42.21
965.447	42.18
965.809	42.16
966.17	42.15
966.532	42.14
966.893	42.15
967.255	42.08
967.616	42.08
967.977	42.08
968.338	42.06
968.699	42.07
969.061	42.12
969.421	42.11
969.782	42.1
970.143	42.07
970.504	42.05
970.865	42.1
971.225	42.07
971.586	42.06
971.946	42.04
972.307	42.08
972.667	42.08
973.027	42.07
973.388	42.04
973.748	42.03
974.108	42.02
974.468	41.99
974.828	41.97
975.188	42.03
975.548	42
975.907	42.03
976.267	42
976.627	42.02
976.986	41.96
977.346	41.96
977.705	41.97
978.064	41.99
978.424	42.04
978.783	42.01
979.142	42
979.501	42.04
979.86	42.08
980.219	42.09
980.578	42.12
980.937	42.15
981.296	42.19
981.654	42.18
982.013	42.26
982.371	42.28
982.73	42.29
983.088	42.31
983.447	42.29
983.805	42.3
984.163	42.3
984.521	42.33
984.879	42.35
985.237	42.39
985.595	42.43
985.953	42.39
986.311	42.39
986.669	42.42
987.026	42.37
987.384	42.49
987.741	42.42
988.099	42.48
988.456	42.49
988.814	42.48
989.171	42.46
989.528	42.47
989.885	42.53
990.242	42.61
990.599	42.69
990.956	42.81
991.313	42.77
991.67	42.81
992.027	42.87
992.383	42.86
992.74	43.04
993.096	43.08
993.453	43.11
993.809	43.04
994.165	43.07
994.522	43.07
994.878	43.12
995.234	43.14
995.59	43.22
995.946	43.22
996.302	43.31
996.658	43.23
997.013	43.26
997.369	43.19
997.725	43.34
998.08	43.45
998.436	43.48
998.791	43.53
999.147	43.56
999.502	43.57
999.857	43.68
1000.212	43.6
1000.567	43.63
1000.922	43.76
1001.277	43.98
1001.632	43.85
1001.987	43.75
1002.342	43.8
1002.696	43.84
1003.051	43.94
1003.406	44.2
1003.76	44.22
1004.114	44.29
1004.469	44.44
1004.823	44.68
1005.177	44.69
1005.531	44.89
1005.885	45.01
1006.239	44.96
1006.593	45.16
1006.947	45.13
1007.301	44.94
1007.655	44.95
1008.008	45.08
1008.362	45.08
1008.715	44.92
1009.069	45.02
1009.422	45.03
1009.776	45.06
1010.129	45.3
1010.482	45.14
1010.835	45.38
1011.188	45.66
1011.541	45.79
1011.894	45.81
1012.247	45.84
1012.6	46
1012.952	45.96
1013.305	46.06
1013.657	46.19
1014.01	46.17
1014.362	46.27
1014.715	46.37
1015.067	46.35
1015.419	46.45
1015.771	46.6
1016.123	46.72
1016.475	46.85
1016.827	47.07
1017.179	47.16
1017.531	47.17
1017.883	47.36
1018.234	47.45
1018.586	47.46
1018.938	47.7
1019.289	47.64
1019.64	47.69
1019.992	47.77
1020.343	47.82
1020.694	47.94
1021.045	48.08
1021.396	48.41
1021.747	48.6
1022.098	48.79
1022.449	48.82
1022.8	48.82
1023.151	49.04
1023.501	49.27
1023.852	49.49
1024.202	49.38
1024.553	49.42
1024.903	49.42
1025.253	49.55
1025.604	49.53
1025.954	49.53
1026.304	49.75
1026.654	50.05
1027.004	50.16
1027.354	50.36
1027.703	50.42
1028.053	50.83
1028.403	51.21
1028.753	51.38
1029.102	51.57
1029.452	51.86
1029.801	52.34
1030.15	52.48
1030.499	52.34
897.758	956.06
901.051	961.67
904.343	962.66
907.636	976.66
910.928	949.71
914.22	948.33
917.511	935.11
920.803	896.65
924.094	893.17
927.384	869.6
930.675	837.47
933.965	833.78
937.255	783.4
940.544	751.06
943.834	718.72
947.123	713.27
950.411	671.1
953.7	658.89
956.988	622.89
960.276	598.19
963.563	589.35
966.851	566.23
970.138	561.17
973.424	544.96
976.711	547.57
979.997	518.97
983.283	515.11
986.568	505.29
989.853	489.87
993.138	480.61
996.423	463.72
999.708	450.91
1002.992	445.58
1006.275	426.04
1009.559	423.16
1012.842	407.4
1016.125	397.09
1019.408	389.74
1022.69	385.71
1025.972	377.2
1029.254	368.18
1032.536	360.85
1035.817	354.57
1039.098	350.99
1042.379	344.88
1045.659	339.86
1048.939	331.74
1052.219	325.33
1055.498	322.29
1058.778	313.34
1062.057	307.57
1065.335	304.48
1068.614	301.66
1071.892	298.01
1075.17	288.41
1078.447	282.91
1081.724	280.92
1085.001	278.72
1088.278	274.79
1091.554	268.23
1094.83	269.89
1098.106	266.84
1101.382	264.49
1104.657	261.86
1107.932	258.01
1111.206	259.91
1114.481	253.77
1117.755	252.21
1121.029	250.02
1124.302	247.69
1127.575	244.63
1130.848	241.09
1134.121	239
1137.393	238.17
1140.665	233.21
1143.937	231.1
1147.208	229.11
1150.48	228.23
1153.75	223.9
1157.021	220.75
1160.291	221.98
1163.561	218.36
1166.831	217.95
1170.101	216.28
1173.37	215.7
1176.639	216.41
1179.907	214.49
1183.176	212.76
1186.444	212.41
1189.711	212.72
1192.979	212.98
1196.246	210.57
1199.513	211.81
1202.78	210.37
1206.046	210.12
1209.312	208.43
1212.578	208.34
1215.843	209.63
1219.108	208.95
1222.373	212.8
1225.638	213.81
1228.902	216.24
1232.166	216.76
1235.43	217.37
1238.693	221.42
1241.956	222.97
1245.219	225.18
1248.482	225.78
1251.744	226.37
1255.006	226.26
1258.268	221.44
1261.529	220.11
1264.79	219.34
1268.051	217.4
1271.312	215.31
1274.572	211.89
1277.832	210.12
1281.092	207.58
1284.351	205.86
1287.61	205.88
1290.869	202.4
1294.128	201.02
1297.386	201.18
1300.644	198.14
1303.902	200.09
1307.159	199.75
1310.416	199.94
1313.673	198.91
1316.93	201
1320.186	200.71
1323.442	201.18
1326.697	204.29
1329.953	205.76
1333.208	205.74
1336.463	209.32
1339.717	208.79
1342.972	211.94
1346.226	212.74
1349.479	213.84
1352.733	214.11
1355.986	216.54
1359.238	215.85
1362.491	217.11
1365.743	218.86
1368.995	219.57
1372.247	217.79
1375.498	218.32
1378.749	217.87
1382	217.21
1385.251	217.84
1388.501	216.39
1391.751	215.6
1395	215
1398.25	213.28
1401.499	210.84
1404.748	210.61
1407.996	208.28
1411.244	207.2
1414.492	206.07
1417.74	203.06
1420.987	200.35
1424.234	200.19
1427.481	198.1
1430.728	198.03
1433.974	195.71
1437.22	194.52
1440.465	193.39
1443.711	192.68
1446.956	191.09
1450.201	189.35
1453.445	188.01
1456.689	187.04
1459.933	183.97
1463.177	182.47
1466.42	179.97
1469.663	178.47
1472.906	176.97
1476.148	172.92
1479.391	171.44
1482.633	170.11
1485.874	167.6
1489.115	166.53
1492.356	164.36
1495.597	164.53
1498.838	161.82
1502.078	160.58
1505.318	160.02
1508.557	160.26
1511.797	160.27
1515.036	158.09
1518.274	157.8
1521.513	156.8
1524.751	156.23
1527.989	155.99
1531.227	154.89
1534.464	155.52
1537.701	155.27
1540.938	154.59
1544.174	152.47
1547.41	152.41
1550.646	152.08
1553.882	151.56
1557.117	149.99
1560.352	149.49
1563.587	149.11
1566.821	148.08
1570.055	147.39
1573.289	144.99
1576.523	145.11
1579.756	144.6
1582.989	143.26
1586.222	143.14
1589.454	143.44
1592.686	143.74
1595.918	143.18
1599.15	142.69
1602.381	143.36
1605.612	142.5
1608.843	143.71
1612.073	143.23
1615.303	143.61
1618.533	144.35
1621.762	144.36
1624.992	143.84
1628.221	143.71
1631.449	143.49
1634.678	143.48
1637.906	143.92
1641.134	143.99
1644.361	143.59
1647.588	144.27
1650.815	143.93
1654.042	143.27
1657.269	144.11
1660.495	144
1663.72	143.97
1666.946	144.36
1670.171	144.85
1673.396	144.39
1676.621	144.2
1679.845	145.09
1683.069	145.24
1686.293	145.76
1689.517	146.13
1692.74	145.75
1695.963	146.3
1699.185	147.38
1702.408	147.7
1705.63	148.06
1708.852	148.42
1712.073	148.93
1715.294	148.76
1718.515	149.57
1721.736	149.38
1724.956	150.49
1728.176	150.58
1731.396	151.21
1734.616	150.65
1737.835	151.49
1741.054	150.33
1744.272	150.5
1747.491	151.98
1750.709	152.38
1753.927	152.09
1757.144	151.87
1760.361	151.67
1763.578	152.48
1766.795	152.32
1770.011	153.9
1773.227	153.27
1776.443	155.42
1779.658	155.93
1782.874	155.3
1786.089	155.2
1789.303	155.72
1792.518	157.74
1795.732	157.78
1798.945	158.39
1802.159	158.86
1805.372	158.56
1808.585	161.55
1811.797	161.69
1815.01	162.85
1818.222	164.34
1821.434	166.87
1824.645	167.04
1827.856	169.18
1831.067	170.36
1834.278	170.9
1837.488	172.24
1840.698	173.51
1843.908	171.88
1847.117	172.76
1850.326	173.75
1853.535	172.21
1856.744	173.96
1859.952	173.92
1863.16	172.87
1866.368	171.84
1869.575	172.58
1872.782	170.09
1875.989	169.09
1879.196	169.2
1882.402	168.39
1885.608	167.52
1888.814	168.27
1892.019	167.44
1895.224	166.68
1898.429	165.88
1901.634	166.69
1904.838	166.97
1908.042	168.01
1911.246	168.54
1914.449	168.37
1917.652	167.59
1920.855	167.85
1924.058	168.25
1927.26	166.99
1930.462	167.8
1933.664	169.58
1936.865	168.25
1940.066	167.41
1943.267	166.94
1946.467	167.57
1949.668	168.2
1952.868	171.08
1956.067	171.73
1959.267	171.54
1962.466	172.12
1965.665	170.67
1968.863	171.51
1972.061	174.91
1975.259	176.39
1978.457	177.61
1981.654	178.85
1984.852	179.59
1988.048	178.41
1991.245	180.15
1994.441	182.45
1997.637	183.99
2000.833	188.43
2004.028	190.54
2007.223	190.57
2010.418	192.64
2013.613	196.33
2016.807	198.04
2020.001	199.94
2023.194	203.84
2026.388	207.9
2029.581	212.8
2032.774	214.41
2035.966	218.29
2039.158	218.7
2042.35	222.44
2045.542	224.13
2048.733	227.36
2051.924	230.4
2055.115	233.84
2058.306	233.87
2061.496	235.59
2064.686	236.36
2067.875	240.63
2071.065	242.05
2074.254	240.68
2077.442	245.27
2080.631	245.85
2083.819	247.94
2087.007	249.41
2090.195	252.94
2093.382	254.81
2096.569	254.16
2099.756	256.28
2102.942	257.08
2106.128	258.64
2109.314	264.92
2112.5	263.13
2115.685	268.91
2118.87	269.1
2122.055	273.57
2125.239	274.05
2128.424	278.21
2131.608	279.93
2134.791	284.67
2137.974	285.65
2141.157	286.78
2144.34	287.33
2147.523	292.09
2150.705	290.51
2153.887	294.25
2157.068	294.86
2160.25	293.11
2163.431	295.36
2166.611	298.88
2169.792	304.08
2172.972	307.31
2176.152	310.69
2179.331	314.62
2182.511	318.92
2185.69	322.39
2188.868	329.49
2192.047	329.46
2195.225	339.95
2198.403	345.34
2201.58	351.86
2204.758	359.21
2207.935	366.43
2211.111	372.35
2214.288	375.3
2217.464	376.63
2220.64	382.03
2223.815	386.01
2226.991	401.7
2230.166	402.34
2233.34	408.55
2236.515	416.78
2239.689	415.53
2242.863	419.07
2246.036	429.02
2249.209	427.07
2252.382	435.99
2255.555	448.02
2258.727	449.66
2261.9	453.25
2265.071	456.87
2268.243	465.83
2271.414	471.06
2274.585	480.47
2277.756	483.52
2280.926	488.62
2284.096	501.29
2287.266	509.45
2290.436	514.68
2293.605	525.59
2296.774	542.76
2299.942	556.54
2303.111	560.01
2306.279	568.96
2309.447	579.68
2312.614	594.44
2315.781	608.55
2318.948	637.78
2322.115	629.05
2325.281	663.2
2328.447	652.94
2331.613	675.7
2334.779	672.8
2337.944	700.04
2341.109	708.99
2344.274	728
2347.438	753.49
2350.602	756.87
2353.766	774.73
2356.929	789.15
2360.092	787.13
2363.255	839.43
2366.418	838.46
2369.58	852.33
2372.742	907.76
2375.904	931.03
2379.066	923.89
2382.227	910.74
2385.388	981.44
2388.548	984.15
2391.709	993.08
2394.869	1099.88
2398.029	1058.33
2401.188	1086.54
2404.347	1082.89
2407.506	1061.24
2410.665	1092.42
2413.823	1153.22
2416.981	1215.34
2420.139	1187.34
2423.296	1172.27
2426.453	1226.02
2429.61	1184.66
2432.767	1235.68
2435.923	1223.94
2439.079	1340.6
2442.235	1363.72
2445.391	1349.96
2448.546	1341.57
2451.701	1304.58
2454.855	1292.88
2458.009	1384.27
2461.163	1439.29
2464.317	1482.92
2467.471	1515.67
2470.624	1516.72
2473.777	1476.31
2476.929	1430.47
2480.082	1389.47
2483.234	1380.85
2486.385	1452.54
2489.537	1460.2
2492.688	1500.37
2495.839	1464.75
2498.989	1431.05
2502.14	1438.79
2505.29	1451.93
2508.439	1470.31
2511.589	1472
2514.738	1604.03
2517.887	1565.94
2521.035	1641.22
2524.183	1670.13
2527.331	1680.64
2530.479	1661.72
2533.627	1678.64
