Data from C_3_DIV_WI_4N_Splice17_13-51-24-678.txt Node
Date: Sat Mar 07 13:51:24 EST 2020
User: sa697716
Spectrometer: NQ5500242
Trigger mode: 0
Integration Time (sec): 1.450000E-1
Scans to average: 20
Nonlinearity correction enabled: false
Boxcar width: 5
Storing dark spectrum: false
XAxis mode: Wavelengths
Number of Pixels in Spectrum: 512
>>>>>Begin Spectral Data<<<<<
187.83	247.03
188.298	285.86
188.766	255.52
189.233	202.49
189.701	214.33
190.169	243.92
190.636	267.68
191.104	393.41
191.571	247.13
192.039	123.39
192.506	-348.58
192.974	21.19
193.441	216.16
193.908	135.53
194.375	59.79
194.842	10.79
195.31	9.99
195.777	-97.5
196.244	44.04
196.711	41.96
197.177	43.18
197.644	42.65
198.111	42.49
198.578	42.45
199.045	42.73
199.511	43.01
199.978	43.22
200.445	43.35
200.911	43.43
201.378	43.23
201.844	43.32
202.31	43.31
202.777	43.12
203.243	43.11
203.709	43.02
204.176	42.32
204.642	42.02
205.108	41.81
205.574	41.52
206.04	40.85
206.506	40.43
206.972	40.2
207.438	39.81
207.903	39.2
208.369	38.35
208.835	37.47
209.301	37.01
209.766	35.61
210.232	34.67
210.697	33.73
211.163	32.95
211.628	32.26
212.094	31.35
212.559	30.65
213.024	30.01
213.49	29.54
213.955	28.92
214.42	28.07
214.885	27.55
215.35	26.65
215.815	25.56
216.28	23.88
216.745	22
217.21	20.09
217.675	18.26
218.14	16.79
218.604	15.5
219.069	14.34
219.534	13.46
219.998	12.65
220.463	11.96
220.927	11.31
221.392	10.91
221.856	10.52
222.32	10.21
222.785	9.94
223.249	9.66
223.713	9.42
224.177	9.24
224.642	9.06
225.106	8.89
225.57	8.71
226.034	8.57
226.497	8.42
226.961	8.29
227.425	8.18
227.889	8.05
228.353	7.93
228.816	7.81
229.28	7.69
229.744	7.57
230.207	7.46
230.671	7.35
231.134	7.24
231.597	7.15
232.061	7.04
232.524	6.94
232.987	6.86
233.45	6.79
233.914	6.7
234.377	6.61
234.84	6.54
235.303	6.47
235.766	6.42
236.229	6.34
236.691	6.28
237.154	6.22
237.617	6.17
238.08	6.11
238.542	6.04
239.005	5.99
239.468	5.93
239.93	5.88
240.393	5.82
240.855	5.76
241.317	5.7
241.78	5.64
242.242	5.57
242.704	5.53
243.166	5.48
243.629	5.44
244.091	5.38
244.553	5.34
245.015	5.29
245.477	5.23
245.939	5.19
246.4	5.15
246.862	5.1
247.324	5.06
247.786	5.01
248.247	4.95
248.709	4.9
249.17	4.85
249.632	4.82
250.093	4.78
250.555	4.74
251.016	4.7
251.477	4.65
251.939	4.62
252.4	4.58
252.861	4.55
253.322	4.52
253.783	4.48
254.244	4.46
254.705	4.41
255.166	4.38
255.627	4.35
256.088	4.32
256.549	4.3
257.009	4.27
257.47	4.24
257.931	4.2
258.391	4.16
258.852	4.13
259.312	4.1
259.773	4.07
260.233	4.04
260.694	4.02
261.154	3.98
261.614	3.95
262.074	3.91
262.534	3.88
262.994	3.86
263.455	3.84
263.915	3.81
264.374	3.78
264.834	3.76
265.294	3.73
265.754	3.7
266.214	3.68
266.673	3.66
267.133	3.65
267.593	3.63
268.052	3.62
268.512	3.6
268.971	3.59
269.431	3.58
269.89	3.57
270.349	3.56
270.809	3.55
271.268	3.54
271.727	3.53
272.186	3.51
272.645	3.51
273.104	3.49
273.563	3.49
274.022	3.47
274.481	3.46
274.94	3.46
275.399	3.44
275.857	3.43
276.316	3.42
276.775	3.41
277.233	3.41
277.692	3.4
278.15	3.39
278.609	3.38
279.067	3.38
279.525	3.37
279.984	3.37
280.442	3.36
280.9	3.36
281.358	3.36
281.816	3.36
282.274	3.35
282.732	3.34
283.19	3.33
283.648	3.33
284.106	3.32
284.564	3.31
285.021	3.31
285.479	3.3
285.937	3.29
286.394	3.28
286.852	3.26
287.309	3.26
287.767	3.25
288.224	3.23
288.682	3.21
289.139	3.2
289.596	3.18
290.053	3.16
290.511	3.13
290.968	3.12
291.425	3.1
291.882	3.09
292.339	3.06
292.796	3.05
293.252	3.04
293.709	3.03
294.166	3.02
294.623	3.01
295.079	3
295.536	3
295.992	2.99
296.449	2.99
296.905	2.98
297.362	2.98
297.818	2.97
298.274	2.97
298.731	2.95
299.187	2.94
299.643	2.93
300.099	2.93
300.555	2.92
301.011	2.91
301.467	2.9
301.923	2.88
302.379	2.88
302.835	2.88
303.291	2.87
303.746	2.87
304.202	2.87
304.658	2.87
305.113	2.87
305.569	2.86
306.024	2.86
306.479	2.86
306.935	2.86
307.39	2.85
307.845	2.85
308.301	2.86
308.756	2.85
309.211	2.85
309.666	2.85
310.121	2.85
310.576	2.84
311.031	2.84
311.486	2.84
311.94	2.84
312.395	2.84
312.85	2.84
313.305	2.84
313.759	2.84
314.214	2.83
314.668	2.83
315.123	2.83
315.577	2.82
316.032	2.82
316.486	2.81
316.94	2.81
317.394	2.81
317.849	2.79
318.303	2.77
318.757	2.75
319.211	2.75
319.665	2.74
320.119	2.72
320.572	2.71
321.026	2.7
321.48	2.7
321.934	2.68
322.387	2.67
322.841	2.67
323.295	2.67
323.748	2.67
324.202	2.67
324.655	2.67
325.108	2.67
325.562	2.68
326.015	2.68
326.468	2.67
326.921	2.67
327.374	2.67
327.827	2.68
328.28	2.67
328.733	2.67
329.186	2.67
329.639	2.67
330.092	2.67
330.545	2.66
330.997	2.66
331.45	2.67
331.903	2.68
332.355	2.69
332.808	2.68
333.26	2.68
333.713	2.69
334.165	2.69
334.617	2.69
335.069	2.68
335.522	2.69
335.974	2.69
336.426	2.68
336.878	2.67
337.33	2.66
337.782	2.66
338.234	2.68
338.686	2.67
339.137	2.68
339.589	2.67
340.041	2.67
340.493	2.66
340.944	2.64
341.396	2.64
341.847	2.63
342.299	2.62
342.75	2.61
343.201	2.59
343.653	2.58
344.104	2.56
344.555	2.55
345.006	2.54
345.457	2.55
345.908	2.55
346.359	2.55
346.81	2.55
347.261	2.55
347.712	2.54
348.163	2.54
348.613	2.54
349.064	2.54
349.515	2.54
349.965	2.54
350.416	2.53
350.866	2.53
351.317	2.52
351.767	2.51
352.217	2.51
352.668	2.51
353.118	2.52
353.568	2.51
354.018	2.52
354.468	2.52
354.918	2.53
355.368	2.54
355.818	2.54
356.268	2.55
356.718	2.56
357.168	2.56
357.617	2.56
358.067	2.56
358.517	2.57
358.966	2.57
359.416	2.58
359.865	2.58
360.315	2.58
360.764	2.59
361.213	2.6
361.663	2.59
362.112	2.6
362.561	2.61
363.01	2.62
363.459	2.6
363.908	2.61
364.357	2.62
364.806	2.61
365.255	2.62
365.703	2.64
366.152	2.65
366.601	2.66
367.05	2.67
367.498	2.68
367.947	2.69
368.395	2.72
368.844	2.73
369.292	2.73
369.74	2.76
370.189	2.76
370.637	2.76
371.085	2.76
371.533	2.78
371.981	2.79
372.429	2.81
372.877	2.82
373.325	2.84
373.773	2.85
374.221	2.88
374.669	2.89
375.116	2.91
375.564	2.94
376.012	2.97
376.459	2.99
376.907	3.02
377.354	3.03
377.801	3.06
378.249	3.08
378.696	3.1
379.143	3.12
379.591	3.15
380.038	3.17
380.485	3.18
380.932	3.2
381.379	3.23
381.826	3.25
382.273	3.27
382.72	3.28
383.166	3.29
383.613	3.32
384.06	3.34
384.506	3.36
384.953	3.38
385.4	3.41
385.846	3.44
386.292	3.45
386.739	3.48
387.185	3.5
387.631	3.53
388.078	3.56
388.524	3.58
388.97	3.61
389.416	3.64
389.862	3.67
390.308	3.71
390.754	3.75
391.2	3.77
391.645	3.8
392.091	3.83
392.537	3.86
392.983	3.88
393.428	3.92
393.874	3.95
394.319	3.98
394.765	4.01
395.21	4.01
395.655	4.03
396.101	4.06
396.546	4.08
396.991	4.1
397.436	4.11
397.881	4.14
398.326	4.16
398.771	4.19
399.216	4.19
399.661	4.21
400.106	4.24
400.551	4.25
400.995	4.25
401.44	4.25
401.885	4.26
402.329	4.28
402.774	4.3
403.218	4.32
403.663	4.33
404.107	4.34
404.551	4.35
404.995	4.35
405.44	4.35
405.884	4.37
406.328	4.38
406.772	4.38
407.216	4.38
407.66	4.38
408.104	4.36
408.547	4.36
408.991	4.37
409.435	4.38
409.879	4.39
410.322	4.4
410.766	4.42
411.209	4.44
411.653	4.46
412.096	4.47
412.54	4.48
412.983	4.5
413.426	4.54
413.869	4.55
414.312	4.56
414.756	4.57
415.199	4.59
415.642	4.6
416.085	4.61
416.527	4.61
416.97	4.6
417.413	4.6
417.856	4.6
418.298	4.59
418.741	4.58
419.184	4.57
419.626	4.57
420.069	4.57
420.511	4.56
420.953	4.56
421.396	4.56
421.838	4.58
422.28	4.59
422.722	4.61
423.164	4.61
423.606	4.63
424.048	4.64
424.49	4.64
424.932	4.63
425.374	4.62
425.816	4.6
426.258	4.6
426.699	4.58
427.141	4.59
427.582	4.6
428.024	4.61
428.465	4.62
428.907	4.61
429.348	4.6
429.789	4.63
430.231	4.65
430.672	4.68
431.113	4.71
431.554	4.73
431.995	4.74
432.436	4.74
432.877	4.75
433.318	4.78
433.759	4.81
434.2	4.85
434.64	4.85
435.081	4.87
435.522	4.88
435.962	4.9
436.403	4.93
436.843	4.95
437.284	4.95
437.724	4.96
438.164	4.93
438.604	4.94
439.045	4.93
439.485	4.95
439.925	4.95
440.365	4.96
440.805	4.96
441.245	4.98
441.685	5.01
442.125	5.05
442.564	5.07
443.004	5.1
443.444	5.13
443.883	5.16
444.323	5.16
444.762	5.19
445.202	5.19
445.641	5.23
446.081	5.23
446.52	5.24
446.959	5.26
447.398	5.29
447.837	5.32
448.276	5.33
448.716	5.34
449.154	5.39
449.593	5.41
450.032	5.44
450.471	5.43
450.91	5.44
451.349	5.45
451.787	5.45
452.226	5.44
452.664	5.44
453.103	5.46
453.541	5.48
453.98	5.49
454.418	5.48
454.856	5.48
455.295	5.48
455.733	5.47
456.171	5.47
456.609	5.47
457.047	5.46
457.485	5.48
457.923	5.47
458.361	5.46
458.798	5.45
459.236	5.47
459.674	5.46
460.111	5.46
460.549	5.47
460.987	5.47
461.424	5.48
461.862	5.48
462.299	5.48
462.736	5.48
463.173	5.48
463.611	5.48
464.048	5.47
464.485	5.47
464.922	5.47
465.359	5.48
465.796	5.5
466.233	5.5
466.67	5.51
467.106	5.51
467.543	5.5
467.98	5.5
468.416	5.49
468.853	5.5
469.29	5.5
469.726	5.5
470.162	5.49
470.599	5.45
471.035	5.45
471.471	5.45
471.907	5.43
472.344	5.44
472.78	5.45
473.216	5.45
473.652	5.45
474.088	5.44
474.523	5.44
474.959	5.45
475.395	5.45
475.831	5.44
476.266	5.43
476.702	5.42
477.138	5.42
477.573	5.41
478.008	5.41
478.444	5.41
478.879	5.42
479.314	5.43
479.75	5.42
480.185	5.41
480.62	5.41
481.055	5.42
481.49	5.42
481.925	5.43
482.36	5.44
482.795	5.43
483.229	5.43
483.664	5.44
484.099	5.42
484.534	5.43
484.968	5.45
485.403	5.45
485.837	5.47
486.271	5.49
486.706	5.49
487.14	5.49
487.574	5.51
488.009	5.53
488.443	5.53
488.877	5.57
489.311	5.59
489.745	5.61
490.179	5.64
490.613	5.67
491.046	5.7
491.48	5.73
491.914	5.78
492.348	5.82
492.781	5.86
493.215	5.91
493.648	5.96
494.082	6
494.515	6.05
494.948	6.1
495.382	6.16
495.815	6.22
496.248	6.29
496.681	6.35
497.114	6.42
497.547	6.49
497.98	6.57
498.413	6.65
498.846	6.75
499.279	6.83
499.711	6.92
500.144	7.02
500.577	7.12
501.009	7.22
501.442	7.34
501.874	7.46
502.306	7.58
502.739	7.72
503.171	7.84
503.603	7.97
504.036	8.11
504.468	8.26
504.9	8.4
505.332	8.56
505.764	8.73
506.196	8.88
506.627	9.07
507.059	9.25
507.491	9.42
507.923	9.61
508.354	9.82
508.786	10.04
509.217	10.25
509.649	10.48
510.08	10.7
510.512	10.92
510.943	11.15
511.374	11.38
511.805	11.62
512.237	11.86
512.668	12.12
513.099	12.35
513.53	12.61
513.961	12.86
514.391	13.12
514.822	13.39
515.253	13.67
515.684	13.93
516.114	14.2
516.545	14.47
516.975	14.75
517.406	15.03
517.836	15.31
518.267	15.6
518.697	15.86
519.127	16.12
519.558	16.4
519.988	16.66
520.418	16.93
520.848	17.19
521.278	17.44
521.708	17.92
522.138	18.17
522.567	18.42
522.997	18.65
523.427	18.9
523.857	19.15
524.286	19.34
524.716	19.56
525.145	19.78
525.575	20
526.004	20.22
526.433	20.19
526.863	20.37
527.292	20.55
527.721	20.72
528.15	20.89
528.579	21.04
529.008	21.23
529.437	21.37
529.866	21.51
530.295	21.64
530.724	21.76
531.152	21.89
531.581	22.01
532.01	22.14
532.438	22.24
532.867	22.35
533.295	22.44
533.723	22.53
534.152	22.62
534.58	22.69
535.008	22.76
535.436	22.84
535.865	22.9
536.293	22.95
536.721	23
537.149	23.05
537.576	23.09
538.004	23.15
538.432	23.19
538.86	23.23
539.287	23.25
539.715	23.3
540.143	23.31
540.57	23.34
540.998	23.36
541.425	23.39
541.852	23.41
542.28	23.44
542.707	23.47
543.134	23.48
543.561	23.52
543.988	23.55
544.415	23.57
544.842	23.61
545.269	23.64
545.696	23.67
546.123	23.69
546.549	23.71
546.976	23.73
547.403	23.73
547.829	23.75
548.256	23.76
548.682	23.77
549.108	23.79
549.535	23.8
549.961	23.82
550.387	23.83
550.813	23.84
551.24	23.84
551.666	23.82
552.092	23.84
552.518	23.83
552.943	23.83
553.369	23.81
553.795	23.79
554.221	23.76
554.646	23.72
555.072	23.69
555.498	23.64
555.923	23.61
556.349	23.56
556.774	23.48
557.199	23.42
557.625	23.36
558.05	23.29
558.475	23.21
558.9	23.14
559.325	23.07
559.75	23
560.175	22.92
560.6	22.82
561.025	22.72
561.449	22.63
561.874	22.52
562.299	22.41
562.723	22.29
563.148	22.17
563.572	22.03
563.997	21.9
564.421	21.75
564.846	21.63
565.27	21.49
565.694	21.35
566.118	21.21
566.542	21.08
566.966	20.92
567.39	20.78
567.814	20.63
568.238	20.5
568.662	20.35
569.086	20.21
569.509	20.06
569.933	19.91
570.357	19.78
570.78	19.64
571.204	19.5
571.627	19.37
572.05	19.24
572.474	19.14
572.897	19.02
573.32	18.9
573.743	18.79
574.166	18.67
574.589	18.55
575.012	18.44
575.435	18.33
575.858	18.22
576.281	18.11
576.704	18.01
577.126	17.9
577.549	17.78
577.972	17.68
578.394	17.57
578.817	17.49
579.239	17.41
579.661	17.32
580.084	17.24
580.506	17.16
580.928	17.08
581.35	17
581.772	16.91
582.194	16.85
582.616	16.78
583.038	16.72
583.46	16.63
583.882	16.57
584.303	16.5
584.725	16.43
585.147	16.38
585.568	16.31
585.99	16.24
586.411	16.19
586.833	16.13
587.254	16.06
587.675	16
588.096	15.96
588.518	15.9
588.939	15.86
589.36	15.79
589.781	15.73
590.202	15.71
590.623	15.68
591.043	15.63
591.464	15.6
591.885	15.57
592.305	15.54
592.726	15.51
593.147	15.48
593.567	15.44
593.987	15.39
594.408	15.36
594.828	15.31
595.248	15.28
595.669	15.25
596.089	15.21
596.509	15.18
596.929	15.14
597.349	15.1
597.769	15.06
598.189	15.03
598.608	15.01
599.028	14.97
599.448	14.94
599.867	14.89
600.287	14.86
600.706	14.82
601.126	14.78
601.545	14.74
601.965	14.71
602.384	14.66
602.803	14.6
603.222	14.55
603.641	14.5
604.061	14.45
604.48	14.38
604.898	14.31
605.317	14.25
605.736	14.18
606.155	14.13
606.574	14.05
606.992	13.99
607.411	13.91
607.829	13.82
608.248	13.74
608.666	13.65
609.085	13.6
609.503	13.54
609.921	13.46
610.339	13.39
610.758	13.31
611.176	13.22
611.594	13.16
612.012	13.09
612.43	13.03
612.847	12.96
613.265	12.89
613.683	12.81
614.101	12.74
614.518	12.66
614.936	12.58
615.353	12.51
615.771	12.45
616.188	12.38
616.606	12.33
617.023	12.27
617.44	12.23
617.857	12.18
618.274	12.12
618.691	12.07
619.108	12.03
619.525	11.99
619.942	11.95
620.359	11.92
620.776	11.89
621.192	11.84
621.609	11.81
622.026	11.78
622.442	11.76
622.859	11.74
623.275	11.71
623.691	11.68
624.108	11.67
624.524	11.65
624.94	11.64
625.356	11.62
625.772	11.62
626.188	11.6
626.604	11.58
627.02	11.56
627.436	11.55
627.852	11.55
628.268	11.54
628.683	11.52
629.099	11.51
629.514	11.49
629.93	11.47
630.345	11.46
630.761	11.43
631.176	11.41
631.591	11.38
632.007	11.35
632.422	11.31
632.837	11.27
633.252	11.22
633.667	11.16
634.082	11.1
634.497	11.05
634.911	10.98
635.326	10.92
635.741	10.84
636.155	10.75
636.57	10.67
636.984	10.59
637.399	10.49
637.813	10.4
638.228	10.3
638.642	10.2
639.056	10.08
639.47	9.99
639.884	9.9
640.298	9.79
640.712	9.7
641.126	9.59
641.54	9.47
641.954	9.36
642.368	9.27
642.781	9.18
643.195	9.08
643.609	8.98
644.022	8.87
644.436	8.76
644.849	8.67
645.262	8.57
645.676	8.48
646.089	8.4
646.502	8.33
646.915	8.25
647.328	8.18
647.741	8.13
648.154	8.07
648.567	8.02
648.98	7.97
649.393	7.93
649.805	7.89
650.218	7.86
650.631	7.82
651.043	7.78
651.456	7.74
651.868	7.69
652.28	7.65
652.693	7.61
653.105	7.57
653.517	7.53
653.929	7.47
654.341	7.42
654.753	7.37
655.165	7.32
655.577	7.25
655.989	7.18
656.401	7.11
656.813	7.04
657.224	6.97
657.636	6.88
658.047	6.81
658.459	6.74
658.87	6.66
659.282	6.57
659.693	6.49
660.104	6.41
660.515	6.33
660.926	6.26
661.338	6.18
661.749	6.1
662.159	6.03
662.57	5.97
662.981	5.9
663.392	5.84
663.803	5.79
664.213	5.74
664.624	5.68
665.035	5.64
665.445	5.61
665.855	5.57
666.266	5.54
666.676	5.53
667.086	5.49
667.497	5.47
667.907	5.45
668.317	5.42
668.727	5.42
669.137	5.4
669.547	5.39
669.956	5.39
670.366	5.38
670.776	5.37
671.186	5.36
671.595	5.35
672.005	5.35
672.414	5.36
672.824	5.37
673.233	5.37
673.642	5.39
674.052	5.4
674.461	5.41
674.87	5.44
675.279	5.46
675.688	5.48
676.097	5.51
676.506	5.55
676.915	5.58
677.323	5.62
677.732	5.65
678.141	5.69
678.549	5.73
678.958	5.77
679.366	5.83
679.775	5.88
680.183	5.95
680.592	6.02
681	6.09
681.408	6.16
681.816	6.25
682.224	6.35
682.632	6.46
683.04	6.57
683.448	6.7
683.856	6.83
684.264	6.98
684.671	7.14
685.079	7.33
685.487	7.53
685.894	7.75
686.302	7.99
686.709	8.25
687.116	8.54
687.524	8.85
687.931	9.18
688.338	9.54
688.745	9.91
689.152	10.29
689.559	10.7
689.966	11.14
690.373	11.59
690.78	12.06
691.187	12.53
691.593	13.01
692	13.51
692.407	14.03
692.813	14.56
693.22	15.1
693.626	15.64
694.032	16.18
694.439	16.72
694.845	17.29
695.251	17.85
695.657	18.4
696.063	18.95
696.469	19.51
696.875	20.07
697.281	20.62
697.687	21.18
698.093	21.73
698.498	22.27
698.904	22.8
699.31	23.31
699.715	23.83
700.12	24.35
700.526	24.85
700.931	25.35
701.337	25.84
701.742	26.3
702.147	26.75
702.552	27.22
702.957	27.66
703.362	28.11
703.767	28.55
704.172	28.97
704.577	29.38
704.981	29.81
705.386	30.22
705.791	30.6
706.195	31.01
706.6	31.4
707.004	31.77
707.408	32.16
707.813	32.54
708.217	32.92
708.621	33.3
709.025	33.65
709.43	33.97
709.834	34.32
710.237	34.67
710.641	34.99
711.045	35.31
711.449	35.64
711.853	35.96
712.256	36.26
712.66	36.55
713.064	36.85
713.467	37.16
713.87	37.46
714.274	37.73
714.677	38.01
715.08	38.3
715.484	38.58
715.887	38.86
716.29	39.1
716.693	39.36
717.096	39.62
717.499	39.85
717.901	40.08
718.304	40.33
718.707	40.56
719.109	40.8
719.512	41
719.915	41.23
720.317	41.42
720.719	41.58
721.122	41.75
721.524	41.93
721.926	42.12
722.328	42.32
722.731	42.48
723.133	42.64
723.535	42.81
723.937	42.96
724.338	43.11
724.74	43.28
725.142	43.62
725.544	43.79
725.945	43.97
726.347	44.06
726.748	44.18
727.15	44.32
727.551	44.48
727.952	44.56
728.354	44.68
728.755	44.8
729.156	44.88
729.557	44.81
729.958	44.87
730.359	44.95
730.76	45.06
731.161	45.15
731.562	45.24
731.962	45.27
732.363	45.37
732.763	45.45
733.164	45.5
733.564	45.58
733.965	45.67
734.365	45.78
734.766	45.82
735.166	45.9
735.566	45.95
735.966	46.01
736.366	46.08
736.766	46.12
737.166	46.19
737.566	46.25
737.966	46.27
738.365	46.32
738.765	46.38
739.165	46.42
739.564	46.44
739.964	46.47
740.363	46.49
740.763	46.52
741.162	46.55
741.561	46.55
741.96	46.55
742.36	46.61
742.759	46.63
743.158	46.62
743.557	46.63
743.955	46.67
744.354	46.69
744.753	46.74
745.152	46.78
745.55	46.82
745.949	46.87
746.348	46.9
746.746	46.91
747.144	46.93
747.543	46.96
747.941	47
748.339	46.99
748.737	47
749.136	46.99
749.534	46.95
749.932	46.95
750.33	46.96
750.727	46.97
751.125	46.97
751.523	46.97
751.921	46.97
752.318	46.98
752.716	46.99
753.113	47
753.511	47.02
753.908	47.09
754.305	47.11
754.703	47.09
755.1	47.1
755.497	47.11
755.894	47.12
756.291	47.12
756.688	47.11
757.085	47.12
757.482	47.14
757.878	47.13
758.275	47.11
758.672	47.1
759.068	47.13
759.465	47.15
759.861	47.16
760.258	47.16
760.654	47.17
761.05	47.18
761.447	47.19
761.843	47.17
762.239	47.16
762.635	47.14
763.031	47.14
763.427	47.13
763.822	47.12
764.218	47.13
764.614	47.14
765.01	47.12
765.405	47.09
765.801	47.07
766.196	47.08
766.592	47.1
766.987	47.11
767.382	47.09
767.778	47.1
768.173	47.09
768.568	47.07
768.963	47.06
769.358	47.07
769.753	47.09
770.148	47.1
770.542	47.1
770.937	47.1
771.332	47.08
771.726	47.11
772.121	47.11
772.515	47.1
772.91	47.1
773.304	47.12
773.699	47.12
774.093	47.12
774.487	47.1
774.881	47.12
775.275	47.11
775.669	47.1
776.063	47.07
776.457	47.05
776.851	47.05
777.245	47.04
777.638	47.03
778.032	47.04
778.425	47.07
778.819	47.08
779.212	47.09
779.606	47.11
779.999	47.12
780.392	47.14
780.786	47.16
781.179	47.18
781.572	47.22
781.965	47.22
782.358	47.23
782.751	47.21
783.143	47.21
783.536	47.18
783.929	47.17
784.322	47.19
784.714	47.2
785.107	47.21
785.499	47.19
785.891	47.17
786.284	47.18
786.676	47.17
787.068	47.17
787.46	47.18
787.852	47.18
788.245	47.18
788.636	47.14
789.028	47.14
789.42	47.12
789.812	47.12
790.204	47.13
790.595	47.14
790.987	47.14
791.378	47.16
791.77	47.16
792.161	47.16
792.553	47.17
792.944	47.17
793.335	47.15
793.726	47.16
794.117	47.14
794.508	47.11
794.899	47.08
795.29	47.07
795.681	47.05
796.072	47.04
796.463	47.11
796.853	47.1
797.244	47.12
797.634	47.13
798.025	47.16
798.415	47.16
798.806	47.17
799.196	47.19
799.586	47.21
799.976	47.23
800.366	47.24
800.756	47.21
801.146	47.22
801.536	47.23
801.926	47.23
802.316	47.23
802.706	47.27
803.095	47.29
803.485	47.29
803.874	47.27
804.264	47.28
804.653	47.29
805.043	47.28
805.432	47.28
805.821	47.27
806.21	47.32
806.599	47.33
806.988	47.31
807.377	47.3
807.766	47.28
808.155	47.27
808.544	47.29
808.933	47.3
809.321	47.29
809.71	47.3
810.098	47.3
810.487	47.26
810.875	47.25
811.264	47.24
811.652	47.26
812.04	47.28
812.428	47.35
812.816	47.32
813.204	47.3
813.592	47.29
813.98	47.29
814.368	47.32
814.756	47.32
815.144	47.31
815.531	47.3
815.919	47.3
816.306	47.3
816.694	47.25
817.081	47.25
817.469	47.26
817.856	47.26
818.243	47.23
818.63	47.19
819.017	47.2
819.404	47.21
819.791	47.2
820.178	47.21
820.565	47.18
820.952	47.2
821.339	47.19
821.725	47.19
822.112	47.2
822.498	47.25
822.885	47.25
823.271	47.26
823.657	47.21
824.044	47.23
824.43	47.24
824.816	47.27
825.202	47.26
825.588	47.26
825.974	47.26
826.36	47.26
826.746	47.24
827.132	47.25
827.517	47.24
827.903	47.26
828.289	47.27
828.674	47.24
829.06	47.21
829.445	47.2
829.83	47.18
830.216	47.16
830.601	47.15
830.986	47.12
831.371	47.09
831.756	47.07
832.141	47.08
832.526	47.06
832.911	47.04
833.295	47.05
833.68	47.06
834.065	47.07
834.449	47.06
834.834	47.04
835.218	47.06
835.603	47.07
835.987	47.07
836.371	47.05
836.755	47.03
837.139	47.03
837.524	47.01
837.908	46.99
838.291	46.99
838.675	46.98
839.059	46.97
839.443	46.95
839.827	46.9
840.21	46.9
840.594	46.91
840.977	46.89
841.361	46.89
841.744	46.87
842.127	46.86
842.511	46.84
842.894	46.83
843.277	46.81
843.66	46.78
844.043	46.79
844.426	46.77
844.809	46.76
845.191	46.77
845.574	46.76
845.957	46.77
846.339	46.77
846.722	46.79
847.104	46.8
847.487	46.79
847.869	46.82
848.252	46.81
848.634	46.84
849.016	46.85
849.398	46.84
849.78	46.85
850.162	46.84
850.544	46.84
850.926	46.83
851.307	46.82
851.689	46.84
852.071	46.84
852.452	46.84
852.834	46.82
853.215	46.82
853.597	46.81
853.978	46.79
854.359	46.81
854.741	46.82
855.122	46.81
855.503	46.81
855.884	46.82
856.265	46.83
856.646	46.82
857.026	46.84
857.407	46.83
857.788	46.84
858.169	46.87
858.549	46.86
858.93	46.86
859.31	46.87
859.69	46.87
860.071	46.88
860.451	46.87
860.831	46.86
861.211	46.84
861.591	46.84
861.971	46.82
862.351	46.82
862.731	46.83
863.111	46.8
863.491	46.78
863.87	46.76
864.25	46.73
864.629	46.75
865.009	46.78
865.388	46.79
865.768	46.77
866.147	46.78
866.526	46.78
866.905	46.78
867.284	46.79
867.663	46.8
868.042	46.81
868.421	46.85
868.8	46.83
869.179	46.82
869.558	46.82
869.936	46.82
870.315	46.81
870.693	46.82
871.072	46.81
871.45	46.81
871.828	46.81
872.207	46.83
872.585	46.79
872.963	46.79
873.341	46.79
873.719	46.78
874.097	46.78
874.475	46.78
874.853	46.74
875.23	46.75
875.608	46.74
875.986	46.73
876.363	46.73
876.741	46.73
877.118	46.72
877.495	46.74
877.873	46.75
878.25	46.75
878.627	46.75
879.004	46.76
879.381	46.76
879.758	46.75
880.135	46.74
880.512	46.72
880.889	46.73
881.265	46.73
881.642	46.69
882.019	46.67
882.395	46.65
882.772	46.65
883.148	46.66
883.524	46.65
883.901	46.64
884.277	46.64
884.653	46.65
885.029	46.64
885.405	46.65
885.781	46.64
886.157	46.65
886.532	46.65
886.908	46.63
887.284	46.63
887.659	46.61
888.035	46.59
888.411	46.56
888.786	46.54
889.161	46.53
889.537	46.5
889.912	46.48
890.287	46.47
890.662	46.45
891.037	46.44
891.412	46.41
891.787	46.4
892.162	46.41
892.536	46.4
892.911	46.39
893.286	46.37
893.66	46.39
894.035	46.4
894.409	46.39
894.784	46.4
895.158	46.41
895.532	46.42
895.906	46.42
896.281	46.41
896.655	46.44
897.029	46.47
897.402	46.48
897.776	46.49
898.15	46.49
898.524	46.5
898.898	46.5
899.271	46.5
899.645	46.49
900.018	46.51
900.392	46.53
900.765	46.53
901.138	46.51
901.511	46.52
901.884	46.52
902.258	46.53
902.631	46.52
903.003	46.52
903.376	46.54
903.749	46.53
904.122	46.53
904.495	46.54
904.867	46.55
905.24	46.58
905.612	46.58
905.985	46.57
906.357	46.58
906.729	46.61
907.102	46.61
907.474	46.62
907.846	46.64
908.218	46.62
908.59	46.64
908.962	46.64
909.334	46.61
909.705	46.61
910.077	46.64
910.449	46.65
910.82	46.65
911.192	46.66
911.563	46.66
911.935	46.65
912.306	46.67
912.677	46.67
913.048	46.68
913.419	46.67
913.79	46.68
914.161	46.67
914.532	46.68
914.903	46.64
915.274	46.64
915.645	46.66
916.015	46.68
916.386	46.68
916.756	46.67
917.127	46.69
917.497	46.7
917.868	46.69
918.238	46.68
918.608	46.68
918.978	46.67
919.348	46.71
919.718	46.7
920.088	46.69
920.458	46.7
920.828	46.71
921.198	46.66
921.567	46.67
921.937	46.66
922.306	46.64
922.676	46.62
923.045	46.64
923.415	46.6
923.784	46.57
924.153	46.6
924.522	46.6
924.891	46.58
925.26	46.57
925.629	46.58
925.998	46.6
926.367	46.6
926.736	46.62
927.104	46.61
927.473	46.59
927.842	46.58
928.21	46.59
928.578	46.57
928.947	46.62
929.315	46.62
929.683	46.6
930.051	46.57
930.42	46.59
930.788	46.54
931.156	46.54
931.523	46.57
931.891	46.64
932.259	46.62
932.627	46.62
932.994	46.57
933.362	46.59
933.729	46.61
934.097	46.66
934.464	46.67
934.831	46.7
935.199	46.73
935.566	46.74
935.933	46.67
936.3	46.68
936.667	46.68
937.034	46.73
937.401	46.73
937.767	46.79
938.134	46.72
938.501	46.71
938.867	46.74
939.234	46.75
939.6	46.69
939.967	46.73
940.333	46.71
940.699	46.74
941.065	46.63
941.431	46.58
941.798	46.47
942.163	46.45
942.529	46.41
942.895	46.35
943.261	46.31
943.627	46.3
943.992	46.3
944.358	46.24
944.723	46.17
945.089	46.12
945.454	46.15
945.82	46.15
946.185	46.17
946.55	46.15
946.915	46.12
947.28	46.09
947.645	46.1
948.01	46.04
948.375	46.05
948.74	46.06
949.104	46.13
949.469	46.05
949.834	46.01
950.198	46.02
950.562	45.98
950.927	45.96
951.291	45.92
951.655	45.84
952.02	45.82
952.384	45.79
952.748	45.77
953.112	45.76
953.476	45.74
953.839	45.68
954.203	45.69
954.567	45.68
954.931	45.65
955.294	45.65
955.658	45.72
956.021	45.74
956.385	45.69
956.748	45.65
957.111	45.55
957.474	45.59
957.837	45.59
958.2	45.55
958.563	45.51
958.926	45.56
959.289	45.59
959.652	45.54
960.015	45.55
960.377	45.55
960.74	45.6
961.102	45.66
961.465	45.71
961.827	45.87
962.189	45.88
962.552	45.89
962.914	45.89
963.276	45.87
963.638	45.87
964	45.83
964.362	45.88
964.724	45.88
965.085	45.89
965.447	45.85
965.809	45.78
966.17	45.75
966.532	45.74
966.893	45.76
967.255	45.77
967.616	45.78
967.977	45.8
968.338	45.79
968.699	45.8
969.061	45.74
969.421	45.74
969.782	45.74
970.143	45.75
970.504	45.83
970.865	45.84
971.225	45.83
971.586	45.86
971.946	45.87
972.307	45.86
972.667	45.84
973.027	45.92
973.388	45.96
973.748	45.92
974.108	46.04
974.468	46
974.828	46.03
975.188	46.06
975.548	46.02
975.907	46.04
976.267	46.05
976.627	46.11
976.986	46.03
977.346	45.94
977.705	45.97
978.064	45.89
978.424	45.92
978.783	45.87
979.142	45.85
979.501	45.92
979.86	45.93
980.219	45.94
980.578	45.88
980.937	45.9
981.296	45.92
981.654	45.91
982.013	45.9
982.371	45.93
982.73	45.92
983.088	45.91
983.447	45.85
983.805	45.87
984.163	45.8
984.521	45.79
984.879	45.83
985.237	45.89
985.595	45.96
985.953	45.96
986.311	45.87
986.669	45.89
987.026	45.91
987.384	45.95
987.741	45.89
988.099	45.95
988.456	46.01
988.814	46.07
989.171	46.06
989.528	46.03
989.885	46.05
990.242	46.11
990.599	46.24
990.956	46.28
991.313	46.33
991.67	46.4
992.027	46.59
992.383	46.67
992.74	46.73
993.096	46.78
993.453	46.82
993.809	46.86
994.165	46.88
994.522	46.82
994.878	46.79
995.234	46.75
995.59	46.68
995.946	46.58
996.302	46.54
996.658	46.54
997.013	46.54
997.369	46.55
997.725	46.61
998.08	46.71
998.436	46.66
998.791	46.7
999.147	46.77
999.502	46.88
999.857	46.77
1000.212	46.78
1000.567	46.85
1000.922	46.78
1001.277	46.81
1001.632	46.69
1001.987	46.57
1002.342	46.55
1002.696	46.53
1003.051	46.72
1003.406	46.8
1003.76	46.9
1004.114	46.78
1004.469	46.74
1004.823	47.13
1005.177	47.1
1005.531	47.23
1005.885	47.26
1006.239	47.32
1006.593	47.52
1006.947	47.32
1007.301	47.2
1007.655	47.21
1008.008	47.35
1008.362	47.46
1008.715	47.05
1009.069	47.07
1009.422	46.95
1009.776	46.98
1010.129	46.99
1010.482	46.79
1010.835	46.91
1011.188	47.03
1011.541	47.06
1011.894	47.12
1012.247	47.04
1012.6	47.18
1012.952	47.13
1013.305	47.28
1013.657	47.36
1014.01	47.44
1014.362	47.51
1014.715	47.64
1015.067	47.55
1015.419	47.47
1015.771	47.33
1016.123	47.22
1016.475	47.32
1016.827	47.43
1017.179	47.33
1017.531	47.42
1017.883	47.28
1018.234	47.5
1018.586	47.4
1018.938	47.78
1019.289	47.92
1019.64	48.1
1019.992	48.1
1020.343	48.12
1020.694	48.29
1021.045	48.34
1021.396	48.18
1021.747	48.4
1022.098	48.19
1022.449	48.25
1022.8	48.17
1023.151	48.32
1023.501	48.38
1023.852	48.7
1024.202	48.48
1024.553	48.29
1024.903	48.3
1025.253	48.58
1025.604	48.69
1025.954	48.55
1026.304	48.44
1026.654	48.38
1027.004	48
1027.354	47.78
1027.703	47.39
1028.053	47.67
1028.403	47.96
1028.753	47.82
1029.102	47.81
1029.452	47.78
1029.801	48.13
1030.15	48.1
1030.499	47.9
897.758	1865.58
901.051	1866.54
904.343	1860.24
907.636	1897.26
910.928	1847.78
914.22	1842.15
917.511	1817.87
920.803	1734.59
924.094	1727.89
927.384	1689.65
930.675	1617.57
933.965	1604.92
937.255	1515.22
940.544	1453.38
943.834	1379.17
947.123	1365.57
950.411	1286.87
953.7	1258.17
956.988	1188.52
960.276	1138.97
963.563	1122.42
966.851	1080.99
970.138	1071.94
973.424	1035.5
976.711	1041.94
979.997	988.95
983.283	985.5
986.568	963.59
989.853	930.39
993.138	917.61
996.423	881.34
999.708	856.45
1002.992	848.08
1006.275	809.29
1009.559	800.65
1012.842	772.85
1016.125	750.55
1019.408	736.42
1022.69	726.76
1025.972	716.05
1029.254	695.88
1032.536	684.7
1035.817	668.43
1039.098	659.12
1042.379	643.66
1045.659	638.5
1048.939	620.86
1052.219	609.54
1055.498	598.45
1058.778	585.34
1062.057	568.98
1065.335	562.91
1068.614	555.62
1071.892	550.83
1075.17	532.49
1078.447	522.58
1081.724	518.6
1085.001	514.64
1088.278	503.85
1091.554	494.75
1094.83	493.99
1098.106	491.99
1101.382	487.12
1104.657	483.45
1107.932	475.12
1111.206	478.1
1114.481	466.35
1117.755	461.26
1121.029	457.91
1124.302	458.56
1127.575	448.47
1130.848	443.08
1134.121	437.63
1137.393	436.32
1140.665	427.1
1143.937	425.15
1147.208	419.6
1150.48	420.12
1153.75	414.15
1157.021	407.35
1160.291	407.1
1163.561	402.52
1166.831	402.56
1170.101	400.42
1173.37	397.76
1176.639	398.74
1179.907	394.57
1183.176	391.81
1186.444	391.28
1189.711	390.51
1192.979	389.42
1196.246	385.99
1199.513	388.35
1202.78	385.56
1206.046	385.43
1209.312	381.83
1212.578	382.23
1215.843	385.53
1219.108	381.69
1222.373	390.15
1225.638	393.45
1228.902	400.43
1232.166	400.69
1235.43	403.46
1238.693	409.5
1241.956	411.04
1245.219	418.97
1248.482	418.07
1251.744	418.1
1255.006	420.48
1258.268	408.96
1261.529	404.53
1264.79	400.6
1268.051	398.48
1271.312	394.24
1274.572	388.25
1277.832	384.48
1281.092	377.67
1284.351	375.36
1287.61	374.67
1290.869	369.23
1294.128	366.81
1297.386	366.82
1300.644	362.77
1303.902	364.1
1307.159	361.63
1310.416	362.76
1313.673	362.67
1316.93	365.84
1320.186	365.85
1323.442	367.39
1326.697	374.7
1329.953	374.69
1333.208	377.16
1336.463	381.5
1339.717	382.16
1342.972	385.88
1346.226	389.32
1349.479	389.34
1352.733	392.25
1355.986	394.05
1359.238	393.81
1362.491	396.19
1365.743	401.18
1368.995	399.77
1372.247	398.82
1375.498	399.34
1378.749	404.51
1382	398.26
1385.251	401.81
1388.501	397.99
1391.751	401.43
1395	399.71
1398.25	396.53
1401.499	394.41
1404.748	395.39
1407.996	392
1411.244	389.77
1414.492	387.94
1417.74	386.59
1420.987	378.7
1424.234	380.49
1427.481	373.6
1430.728	373.95
1433.974	368.96
1437.22	366.32
1440.465	365.11
1443.711	363.02
1446.956	361.19
1450.201	355.57
1453.445	351.89
1456.689	351.65
1459.933	344.87
1463.177	342.94
1466.42	336.85
1469.663	333.96
1472.906	331.97
1476.148	323.1
1479.391	318.27
1482.633	314.57
1485.874	310.31
1489.115	308.45
1492.356	303.63
1495.597	302.99
1498.838	297.7
1502.078	295.72
1505.318	293.88
1508.557	293.8
1511.797	293.94
1515.036	291.84
1518.274	291.43
1521.513	288.3
1524.751	287.62
1527.989	287.3
1531.227	285.65
1534.464	287.08
1537.701	284.48
1540.938	283.6
1544.174	279.59
1547.41	278.34
1550.646	277.51
1553.882	277.31
1557.117	273.74
1560.352	271.55
1563.587	270.96
1566.821	269.1
1570.055	265.45
1573.289	263.55
1576.523	263.06
1579.756	261.09
1582.989	260.1
1586.222	259.7
1589.454	257.9
1592.686	260
1595.918	258.88
1599.15	257.78
1602.381	257.51
1605.612	257.71
1608.843	259.29
1612.073	258.55
1615.303	260.05
1618.533	259.95
1621.762	258.7
1624.992	259.42
1628.221	258.9
1631.449	258.83
1634.678	258.57
1637.906	260.23
1641.134	259.84
1644.361	258.99
1647.588	260.58
1650.815	259.02
1654.042	257.5
1657.269	260.02
1660.495	259.57
1663.72	257.79
1666.946	258.9
1670.171	259.12
1673.396	258.4
1676.621	259.06
1679.845	258.69
1683.069	258.54
1686.293	260.3
1689.517	262.09
1692.74	261.31
1695.963	262.73
1699.185	266.52
1702.408	266.66
1705.63	267.34
1708.852	268.7
1712.073	269.34
1715.294	270.37
1718.515	271.15
1721.736	271.16
1724.956	271.39
1728.176	271.21
1731.396	273.49
1734.616	272.3
1737.835	273.14
1741.054	271.43
1744.272	272.52
1747.491	274.54
1750.709	275.34
1753.927	275.62
1757.144	274.43
1760.361	276.83
1763.578	277.25
1766.795	276.33
1770.011	278.08
1773.227	278.62
1776.443	282.33
1779.658	283.7
1782.874	283.19
1786.089	284.21
1789.303	285.35
1792.518	288.95
1795.732	287.81
1798.945	291.61
1802.159	291.48
1805.372	292.86
1808.585	297.92
1811.797	298.7
1815.01	298.67
1818.222	301.09
1821.434	303.09
1824.645	304.53
1827.856	310.11
1831.067	313.67
1834.278	310.34
1837.488	313.55
1840.698	316
1843.908	312.26
1847.117	314.98
1850.326	317.13
1853.535	316.06
1856.744	321.5
1859.952	320.98
1863.16	319.94
1866.368	316.89
1869.575	323.98
1872.782	318.59
1875.989	316.94
1879.196	316.7
1882.402	315.08
1885.608	316.8
1888.814	318.69
1892.019	317.43
1895.224	317.03
1898.429	315.3
1901.634	318.74
1904.838	317.93
1908.042	322.2
1911.246	324.32
1914.449	326.49
1917.652	326.33
1920.855	325.53
1924.058	324.55
1927.26	323.53
1930.462	325.47
1933.664	328.82
1936.865	325.99
1940.066	326.51
1943.267	324.31
1946.467	323.51
1949.668	325.98
1952.868	330.12
1956.067	329.73
1959.267	329.97
1962.466	331.31
1965.665	329.24
1968.863	329.52
1972.061	333.33
1975.259	336.68
1978.457	339.49
1981.654	342
1984.852	342.75
1988.048	341.34
1991.245	344.35
1994.441	349.7
1997.637	351.24
2000.833	357.92
2004.028	363.16
2007.223	364.9
2010.418	368.26
2013.613	373.79
2016.807	378.18
2020.001	380.6
2023.194	386.38
2026.388	395.44
2029.581	402.55
2032.774	407.51
2035.966	415.21
2039.158	416.36
2042.35	425.44
2045.542	426.77
2048.733	433.63
2051.924	439.6
2055.115	447.37
2058.306	447.85
2061.496	453.2
2064.686	453.44
2067.875	460.79
2071.065	462.12
2074.254	459.2
2077.442	463.77
2080.631	466.77
2083.819	471.46
2087.007	470.57
2090.195	476.25
2093.382	480.98
2096.569	476.52
2099.756	485.19
2102.942	485.44
2106.128	491.55
2109.314	503.45
2112.5	501.96
2115.685	512.67
2118.87	513.44
2122.055	524.07
2125.239	527.75
2128.424	534.72
2131.608	538.34
2134.791	544.86
2137.974	547.64
2141.157	549.14
2144.34	549.4
2147.523	558.5
2150.705	553.62
2153.887	557.97
2157.068	560.08
2160.25	555.47
2163.431	556.22
2166.611	563.15
2169.792	574.35
2172.972	582.29
2176.152	583.21
2179.331	592.07
2182.511	602.99
2185.69	611.11
2188.868	624.46
2192.047	625.2
2195.225	641.93
2198.403	660.56
2201.58	671.92
2204.758	684.05
2207.935	697.09
2211.111	712.13
2214.288	719.99
2217.464	721.46
2220.64	730.66
2223.815	742.27
2226.991	772.76
2230.166	776.47
2233.34	788.7
2236.515	801.44
2239.689	801.81
2242.863	807.09
2246.036	831.34
2249.209	821.17
2252.382	835.15
2255.555	861.62
2258.727	862.7
2261.9	867.49
2265.071	874.19
2268.243	889.32
2271.414	900.43
2274.585	922.21
2277.756	930.16
2280.926	935.83
2284.096	961.01
2287.266	982.29
2290.436	988.95
2293.605	1013.59
2296.774	1048.14
2299.942	1080.51
2303.111	1086.78
2306.279	1114.07
2309.447	1127.95
2312.614	1156.67
2315.781	1190.72
2318.948	1245.94
2322.115	1225.85
2325.281	1291.76
2328.447	1263.47
2331.613	1313.79
2334.779	1298.88
2337.944	1354.39
2341.109	1368.05
2344.274	1402.18
2347.438	1458.26
2350.602	1456.94
2353.766	1500.03
2356.929	1522.08
2360.092	1509.82
2363.255	1626.55
2366.418	1616.1
2369.58	1652.58
2372.742	1748.95
2375.904	1792.73
2379.066	1784.33
2382.227	1744.64
2385.388	1890.43
2388.548	1895.62
2391.709	1923.7
2394.869	2149.47
2398.029	2042.5
2401.188	2106.72
2404.347	2093.16
2407.506	2067.88
2410.665	2124.2
2413.823	2256.31
2416.981	2388.24
2420.139	2307.82
2423.296	2281.74
2426.453	2381.32
2429.61	2288.72
2432.767	2406.22
2435.923	2384.57
2439.079	2596.44
2442.235	2630.43
2445.391	2601.67
2448.546	2586.03
2451.701	2514.5
2454.855	2517.95
2458.009	2668.74
2461.163	2775.64
2464.317	2877.98
2467.471	2949.27
2470.624	2942.36
2473.777	2875.14
2476.929	2800.14
2480.082	2729.01
2483.234	2687.11
2486.385	2819.86
2489.537	2830.64
2492.688	2945.26
2495.839	2849.68
2498.989	2793.44
2502.14	2811.53
2505.29	2850.49
2508.439	2894.46
2511.589	2885.18
2514.738	3137.69
2517.887	3075.24
2521.035	3248.34
2524.183	3269.85
2527.331	3291.02
2530.479	3293.03
2533.627	3310.34
