Data from C_3_DIV_IL_4N_Splice17_14-15-10-921.txt Node
Date: Sat Mar 07 14:15:10 EST 2020
User: sa697716
Spectrometer: NQ5500242
Trigger mode: 0
Integration Time (sec): 1.450000E-1
Scans to average: 20
Nonlinearity correction enabled: false
Boxcar width: 5
Storing dark spectrum: false
XAxis mode: Wavelengths
Number of Pixels in Spectrum: 512
>>>>>Begin Spectral Data<<<<<
187.83	89
188.298	101.02
188.766	84.74
189.233	63.4
189.701	70.24
190.169	77.13
190.636	70.62
191.104	63.65
191.571	-174.93
192.039	-72.27
192.506	-178.99
192.974	77.34
193.441	208.93
193.908	96.06
194.375	13.38
194.842	9.39
195.31	10.72
195.777	-96.34
196.244	59.04
196.711	59.48
197.177	63.12
197.644	63.19
198.111	63.54
198.578	63.44
199.045	64.45
199.511	64.74
199.978	64.98
200.445	65.08
200.911	65.16
201.378	65.14
201.844	65.11
202.31	64.8
202.777	65.15
203.243	65.26
203.709	64.95
204.176	64.17
204.642	63.94
205.108	63.54
205.574	63.28
206.04	62.95
206.506	62.47
206.972	62.59
207.438	62.22
207.903	61.32
208.369	60.33
208.835	59.26
209.301	58.04
209.766	56.41
210.232	55.11
210.697	53.62
211.163	52.59
211.628	51.47
212.094	49.97
212.559	48.73
213.024	47.59
213.49	46.43
213.955	45.62
214.42	44.76
214.885	43.6
215.35	42.02
215.815	40.16
216.28	37.53
216.745	34.92
217.21	32.34
217.675	29.93
218.14	27.8
218.604	25.99
219.069	24.43
219.534	23.15
219.998	22.09
220.463	21.19
220.927	20.35
221.392	19.71
221.856	19.1
222.32	18.64
222.785	18.23
223.249	17.87
223.713	17.51
224.177	17.2
224.642	16.87
225.106	16.57
225.57	16.28
226.034	16.03
226.497	15.79
226.961	15.58
227.425	15.34
227.889	15.12
228.353	14.9
228.816	14.69
229.28	14.45
229.744	14.25
230.207	14.06
230.671	13.88
231.134	13.71
231.597	13.56
232.061	13.39
232.524	13.25
232.987	13.09
233.45	12.96
233.914	12.81
234.377	12.69
234.84	12.56
235.303	12.44
235.766	12.33
236.229	12.21
236.691	12.08
237.154	11.97
237.617	11.86
238.08	11.77
238.542	11.66
239.005	11.56
239.468	11.45
239.93	11.36
240.393	11.28
240.855	11.17
241.317	11.07
241.78	10.97
242.242	10.87
242.704	10.78
243.166	10.68
243.629	10.59
244.091	10.5
244.553	10.41
245.015	10.32
245.477	10.23
245.939	10.15
246.4	10.07
246.862	9.98
247.324	9.91
247.786	9.82
248.247	9.74
248.709	9.66
249.17	9.59
249.632	9.52
250.093	9.46
250.555	9.4
251.016	9.34
251.477	9.27
251.939	9.23
252.4	9.17
252.861	9.13
253.322	9.08
253.783	9.05
254.244	9
254.705	8.95
255.166	8.9
255.627	8.85
256.088	8.81
256.549	8.76
257.009	8.71
257.47	8.66
257.931	8.6
258.391	8.54
258.852	8.49
259.312	8.44
259.773	8.39
260.233	8.35
260.694	8.3
261.154	8.25
261.614	8.2
262.074	8.15
262.534	8.12
262.994	8.08
263.455	8.05
263.915	8.02
264.374	7.98
264.834	7.95
265.294	7.91
265.754	7.88
266.214	7.86
266.673	7.84
267.133	7.82
267.593	7.8
268.052	7.77
268.512	7.75
268.971	7.73
269.431	7.72
269.89	7.7
270.349	7.68
270.809	7.66
271.268	7.64
271.727	7.62
272.186	7.6
272.645	7.58
273.104	7.56
273.563	7.55
274.022	7.53
274.481	7.52
274.94	7.5
275.399	7.49
275.857	7.47
276.316	7.44
276.775	7.42
277.233	7.41
277.692	7.39
278.15	7.37
278.609	7.34
279.067	7.32
279.525	7.31
279.984	7.28
280.442	7.26
280.9	7.25
281.358	7.23
281.816	7.22
282.274	7.2
282.732	7.18
283.19	7.16
283.648	7.14
284.106	7.13
284.564	7.11
285.021	7.1
285.479	7.1
285.937	7.08
286.394	7.07
286.852	7.05
287.309	7.04
287.767	7.02
288.224	7.01
288.682	6.99
289.139	6.97
289.596	6.95
290.053	6.92
290.511	6.89
290.968	6.87
291.425	6.83
291.882	6.81
292.339	6.79
292.796	6.76
293.252	6.75
293.709	6.72
294.166	6.7
294.623	6.68
295.079	6.66
295.536	6.63
295.992	6.61
296.449	6.59
296.905	6.57
297.362	6.55
297.818	6.53
298.274	6.52
298.731	6.5
299.187	6.48
299.643	6.46
300.099	6.45
300.555	6.43
301.011	6.42
301.467	6.41
301.923	6.4
302.379	6.38
302.835	6.38
303.291	6.36
303.746	6.35
304.202	6.34
304.658	6.33
305.113	6.32
305.569	6.3
306.024	6.28
306.479	6.27
306.935	6.25
307.39	6.25
307.845	6.24
308.301	6.23
308.756	6.23
309.211	6.22
309.666	6.22
310.121	6.21
310.576	6.22
311.031	6.22
311.486	6.23
311.94	6.23
312.395	6.22
312.85	6.21
313.305	6.2
313.759	6.2
314.214	6.2
314.668	6.18
315.123	6.18
315.577	6.17
316.032	6.15
316.486	6.12
316.94	6.1
317.394	6.09
317.849	6.07
318.303	6.05
318.757	6.02
319.211	6.01
319.665	5.99
320.119	5.97
320.572	5.96
321.026	5.95
321.48	5.94
321.934	5.93
322.387	5.91
322.841	5.9
323.295	5.88
323.748	5.87
324.202	5.85
324.655	5.83
325.108	5.82
325.562	5.81
326.015	5.79
326.468	5.77
326.921	5.75
327.374	5.74
327.827	5.73
328.28	5.72
328.733	5.71
329.186	5.71
329.639	5.72
330.092	5.71
330.545	5.7
330.997	5.7
331.45	5.7
331.903	5.71
332.355	5.71
332.808	5.72
333.26	5.71
333.713	5.71
334.165	5.7
334.617	5.71
335.069	5.7
335.522	5.7
335.974	5.71
336.426	5.71
336.878	5.7
337.33	5.7
337.782	5.71
338.234	5.71
338.686	5.7
339.137	5.71
339.589	5.7
340.041	5.69
340.493	5.68
340.944	5.66
341.396	5.65
341.847	5.63
342.299	5.61
342.75	5.6
343.201	5.57
343.653	5.56
344.104	5.53
344.555	5.51
345.006	5.49
345.457	5.48
345.908	5.46
346.359	5.44
346.81	5.43
347.261	5.42
347.712	5.4
348.163	5.39
348.613	5.39
349.064	5.38
349.515	5.38
349.965	5.37
350.416	5.36
350.866	5.35
351.317	5.34
351.767	5.34
352.217	5.33
352.668	5.33
353.118	5.33
353.568	5.32
354.018	5.33
354.468	5.33
354.918	5.32
355.368	5.33
355.818	5.34
356.268	5.34
356.718	5.34
357.168	5.34
357.617	5.33
358.067	5.33
358.517	5.33
358.966	5.33
359.416	5.33
359.865	5.33
360.315	5.33
360.764	5.33
361.213	5.32
361.663	5.31
362.112	5.32
362.561	5.33
363.01	5.34
363.459	5.33
363.908	5.33
364.357	5.33
364.806	5.33
365.255	5.34
365.703	5.34
366.152	5.35
366.601	5.36
367.05	5.36
367.498	5.36
367.947	5.35
368.395	5.37
368.844	5.37
369.292	5.37
369.74	5.38
370.189	5.39
370.637	5.39
371.085	5.4
371.533	5.4
371.981	5.41
372.429	5.43
372.877	5.45
373.325	5.46
373.773	5.48
374.221	5.48
374.669	5.49
375.116	5.51
375.564	5.52
376.012	5.53
376.459	5.56
376.907	5.58
377.354	5.59
377.801	5.6
378.249	5.62
378.696	5.64
379.143	5.68
379.591	5.7
380.038	5.72
380.485	5.74
380.932	5.77
381.379	5.79
381.826	5.82
382.273	5.85
382.72	5.87
383.166	5.9
383.613	5.93
384.06	5.94
384.506	5.97
384.953	6
385.4	6.02
385.846	6.05
386.292	6.09
386.739	6.12
387.185	6.15
387.631	6.18
388.078	6.21
388.524	6.24
388.97	6.27
389.416	6.3
389.862	6.35
390.308	6.38
390.754	6.41
391.2	6.45
391.645	6.48
392.091	6.52
392.537	6.56
392.983	6.59
393.428	6.64
393.874	6.67
394.319	6.7
394.765	6.71
395.21	6.73
395.655	6.77
396.101	6.79
396.546	6.82
396.991	6.85
397.436	6.88
397.881	6.93
398.326	6.96
398.771	7.01
399.216	7.05
399.661	7.11
400.106	7.15
400.551	7.16
400.995	7.19
401.44	7.21
401.885	7.22
402.329	7.23
402.774	7.25
403.218	7.27
403.663	7.28
404.107	7.3
404.551	7.32
404.995	7.33
405.44	7.35
405.884	7.38
406.328	7.41
406.772	7.42
407.216	7.46
407.66	7.47
408.104	7.48
408.547	7.49
408.991	7.5
409.435	7.51
409.879	7.52
410.322	7.54
410.766	7.54
411.209	7.57
411.653	7.6
412.096	7.61
412.54	7.62
412.983	7.63
413.426	7.66
413.869	7.69
414.312	7.72
414.756	7.76
415.199	7.77
415.642	7.8
416.085	7.81
416.527	7.81
416.97	7.82
417.413	7.83
417.856	7.83
418.298	7.82
418.741	7.82
419.184	7.82
419.626	7.81
420.069	7.82
420.511	7.83
420.953	7.82
421.396	7.83
421.838	7.84
422.28	7.86
422.722	7.89
423.164	7.91
423.606	7.91
424.048	7.92
424.49	7.94
424.932	7.95
425.374	7.92
425.816	7.91
426.258	7.89
426.699	7.86
427.141	7.83
427.582	7.81
428.024	7.8
428.465	7.81
428.907	7.79
429.348	7.76
429.789	7.74
430.231	7.75
430.672	7.75
431.113	7.76
431.554	7.79
431.995	7.8
432.436	7.8
432.877	7.8
433.318	7.8
433.759	7.81
434.2	7.82
434.64	7.83
435.081	7.83
435.522	7.85
435.962	7.86
436.403	7.88
436.843	7.88
437.284	7.89
437.724	7.89
438.164	7.89
438.604	7.9
439.045	7.91
439.485	7.92
439.925	7.92
440.365	7.92
440.805	7.92
441.245	7.93
441.685	7.95
442.125	7.96
442.564	7.97
443.004	7.98
443.444	7.99
443.883	7.99
444.323	7.99
444.762	8
445.202	8.02
445.641	8.04
446.081	8.05
446.52	8.03
446.959	8.07
447.398	8.1
447.837	8.11
448.276	8.12
448.716	8.14
449.154	8.16
449.593	8.19
450.032	8.19
450.471	8.2
450.91	8.19
451.349	8.2
451.787	8.18
452.226	8.18
452.664	8.18
453.103	8.16
453.541	8.16
453.98	8.15
454.418	8.12
454.856	8.1
455.295	8.06
455.733	8.03
456.171	8.02
456.609	8
457.047	7.96
457.485	7.94
457.923	7.93
458.361	7.9
458.798	7.88
459.236	7.87
459.674	7.86
460.111	7.86
460.549	7.85
460.987	7.85
461.424	7.85
461.862	7.85
462.299	7.85
462.736	7.84
463.173	7.84
463.611	7.84
464.048	7.84
464.485	7.84
464.922	7.83
465.359	7.83
465.796	7.82
466.233	7.83
466.67	7.84
467.106	7.84
467.543	7.83
467.98	7.82
468.416	7.82
468.853	7.82
469.29	7.83
469.726	7.85
470.162	7.86
470.599	7.88
471.035	7.88
471.471	7.87
471.907	7.88
472.344	7.9
472.78	7.91
473.216	7.91
473.652	7.92
474.088	7.92
474.523	7.91
474.959	7.92
475.395	7.91
475.831	7.9
476.266	7.9
476.702	7.89
477.138	7.86
477.573	7.85
478.008	7.85
478.444	7.84
478.879	7.83
479.314	7.82
479.75	7.81
480.185	7.8
480.62	7.8
481.055	7.78
481.49	7.78
481.925	7.78
482.36	7.78
482.795	7.77
483.229	7.77
483.664	7.76
484.099	7.75
484.534	7.75
484.968	7.74
485.403	7.74
485.837	7.75
486.271	7.75
486.706	7.75
487.14	7.75
487.574	7.77
488.009	7.77
488.443	7.78
488.877	7.79
489.311	7.81
489.745	7.82
490.179	7.85
490.613	7.87
491.046	7.89
491.48	7.91
491.914	7.95
492.348	7.98
492.781	8.02
493.215	8.06
493.648	8.09
494.082	8.13
494.515	8.16
494.948	8.21
495.382	8.25
495.815	8.3
496.248	8.35
496.681	8.41
497.114	8.46
497.547	8.51
497.98	8.57
498.413	8.63
498.846	8.7
499.279	8.78
499.711	8.84
500.144	8.93
500.577	9.01
501.009	9.09
501.442	9.17
501.874	9.26
502.306	9.35
502.739	9.46
503.171	9.57
503.603	9.67
504.036	9.79
504.468	9.89
504.9	10.01
505.332	10.12
505.764	10.26
506.196	10.4
506.627	10.53
507.059	10.67
507.491	10.81
507.923	10.97
508.354	11.14
508.786	11.3
509.217	11.48
509.649	11.67
510.08	11.86
510.512	12.04
510.943	12.22
511.374	12.42
511.805	12.62
512.237	12.82
512.668	13.02
513.099	13.22
513.53	13.42
513.961	13.63
514.391	13.84
514.822	14.06
515.253	14.26
515.684	14.48
516.114	14.71
516.545	14.93
516.975	15.17
517.406	15.4
517.836	15.63
518.267	15.87
518.697	16.09
519.127	16.32
519.558	16.53
519.988	16.76
520.418	16.99
520.848	17.21
521.278	17.43
521.708	17.65
522.138	17.86
522.567	18.06
522.997	18.24
523.427	18.45
523.857	18.64
524.286	18.83
524.716	19.03
525.145	19.2
525.575	19.36
526.004	19.53
526.433	19.67
526.863	19.83
527.292	19.98
527.721	20.13
528.15	20.27
528.579	20.41
529.008	20.54
529.437	20.65
529.866	20.77
530.295	20.91
530.724	21.03
531.152	21.13
531.581	21.23
532.01	21.33
532.438	21.42
532.867	21.51
533.295	21.57
533.723	21.65
534.152	21.72
534.58	21.79
535.008	21.81
535.436	21.86
535.865	21.91
536.293	21.95
536.721	21.98
537.149	22.03
537.576	22.05
538.004	22.09
538.432	22.11
538.86	22.15
539.287	22.17
539.715	22.22
540.143	22.23
540.57	22.24
540.998	22.28
541.425	22.31
541.852	22.33
542.28	22.36
542.707	22.38
543.134	22.4
543.561	22.42
543.988	22.45
544.415	22.46
544.842	22.49
545.269	22.54
545.696	22.56
546.123	22.59
546.549	22.62
546.976	22.64
547.403	22.66
547.829	22.68
548.256	22.7
548.682	22.71
549.108	22.75
549.535	22.77
549.961	22.78
550.387	22.78
550.813	22.78
551.24	22.78
551.666	22.78
552.092	22.77
552.518	22.78
552.943	22.77
553.369	22.76
553.795	22.74
554.221	22.7
554.646	22.68
555.072	22.66
555.498	22.62
555.923	22.58
556.349	22.55
556.774	22.51
557.199	22.46
557.625	22.43
558.05	22.39
558.475	22.33
558.9	22.29
559.325	22.25
559.75	22.19
560.175	22.12
560.6	22.05
561.025	21.96
561.449	21.88
561.874	21.79
562.299	21.69
562.723	21.58
563.148	21.49
563.572	21.35
563.997	21.24
564.421	21.12
564.846	21.01
565.27	20.9
565.694	20.79
566.118	20.66
566.542	20.55
566.966	20.42
567.39	20.3
567.814	20.17
568.238	20.04
568.662	19.91
569.086	19.79
569.509	19.66
569.933	19.53
570.357	19.4
570.78	19.27
571.204	19.13
571.627	19.01
572.05	18.88
572.474	18.77
572.897	18.67
573.32	18.56
573.743	18.45
574.166	18.37
574.589	18.27
575.012	18.19
575.435	18.1
575.858	18.03
576.281	17.95
576.704	17.87
577.126	17.8
577.549	17.73
577.972	17.67
578.394	17.6
578.817	17.52
579.239	17.45
579.661	17.38
580.084	17.31
580.506	17.25
580.928	17.18
581.35	17.13
581.772	17.06
582.194	17
582.616	16.94
583.038	16.88
583.46	16.82
583.882	16.77
584.303	16.7
584.725	16.65
585.147	16.6
585.568	16.56
585.99	16.51
586.411	16.46
586.833	16.41
587.254	16.35
587.675	16.3
588.096	16.25
588.518	16.22
588.939	16.2
589.36	16.17
589.781	16.14
590.202	16.1
590.623	16.08
591.043	16.06
591.464	16.04
591.885	16.01
592.305	16
592.726	15.99
593.147	15.95
593.567	15.92
593.987	15.9
594.408	15.86
594.828	15.84
595.248	15.81
595.669	15.79
596.089	15.76
596.509	15.74
596.929	15.71
597.349	15.66
597.769	15.65
598.189	15.62
598.608	15.6
599.028	15.58
599.448	15.54
599.867	15.5
600.287	15.45
600.706	15.42
601.126	15.38
601.545	15.34
601.965	15.32
602.384	15.26
602.803	15.21
603.222	15.16
603.641	15.11
604.061	15.07
604.48	15.01
604.898	14.96
605.317	14.92
605.736	14.87
606.155	14.8
606.574	14.74
606.992	14.68
607.411	14.62
607.829	14.55
608.248	14.47
608.666	14.41
609.085	14.35
609.503	14.3
609.921	14.23
610.339	14.17
610.758	14.11
611.176	14.05
611.594	13.98
612.012	13.92
612.43	13.88
612.847	13.84
613.265	13.77
613.683	13.72
614.101	13.66
614.518	13.6
614.936	13.54
615.353	13.49
615.771	13.43
616.188	13.39
616.606	13.35
617.023	13.3
617.44	13.27
617.857	13.22
618.274	13.17
618.691	13.12
619.108	13.09
619.525	13.05
619.942	13.01
620.359	12.98
620.776	12.95
621.192	12.92
621.609	12.9
622.026	12.86
622.442	12.85
622.859	12.84
623.275	12.82
623.691	12.79
624.108	12.78
624.524	12.77
624.94	12.76
625.356	12.75
625.772	12.73
626.188	12.72
626.604	12.71
627.02	12.69
627.436	12.68
627.852	12.67
628.268	12.66
628.683	12.64
629.099	12.63
629.514	12.62
629.93	12.6
630.345	12.58
630.761	12.55
631.176	12.53
631.591	12.5
632.007	12.47
632.422	12.44
632.837	12.42
633.252	12.38
633.667	12.34
634.082	12.29
634.497	12.25
634.911	12.19
635.326	12.13
635.741	12.08
636.155	12.02
636.57	11.95
636.984	11.89
637.399	11.81
637.813	11.74
638.228	11.66
638.642	11.57
639.056	11.49
639.47	11.41
639.884	11.33
640.298	11.25
640.712	11.18
641.126	11.09
641.54	11.01
641.954	10.93
642.368	10.86
642.781	10.78
643.195	10.72
643.609	10.64
644.022	10.57
644.436	10.5
644.849	10.43
645.262	10.36
645.676	10.3
646.089	10.23
646.502	10.18
646.915	10.12
647.328	10.08
647.741	10.04
648.154	10
648.567	9.96
648.98	9.92
649.393	9.89
649.805	9.87
650.218	9.84
650.631	9.81
651.043	9.78
651.456	9.75
651.868	9.71
652.28	9.68
652.693	9.64
653.105	9.6
653.517	9.57
653.929	9.53
654.341	9.47
654.753	9.43
655.165	9.38
655.577	9.33
655.989	9.28
656.401	9.22
656.813	9.17
657.224	9.11
657.636	9.05
658.047	8.99
658.459	8.93
658.87	8.88
659.282	8.8
659.693	8.73
660.104	8.67
660.515	8.6
660.926	8.53
661.338	8.47
661.749	8.41
662.159	8.36
662.57	8.32
662.981	8.25
663.392	8.2
663.803	8.17
664.213	8.13
664.624	8.09
665.035	8.06
665.445	8.02
665.855	8
666.266	7.97
666.676	7.94
667.086	7.9
667.497	7.89
667.907	7.86
668.317	7.82
668.727	7.8
669.137	7.79
669.547	7.77
669.956	7.77
670.366	7.76
670.776	7.75
671.186	7.74
671.595	7.73
672.005	7.73
672.414	7.74
672.824	7.75
673.233	7.76
673.642	7.78
674.052	7.78
674.461	7.79
674.87	7.8
675.279	7.82
675.688	7.85
676.097	7.88
676.506	7.91
676.915	7.92
677.323	7.96
677.732	7.98
678.141	8.01
678.549	8.05
678.958	8.08
679.366	8.12
679.775	8.17
680.183	8.22
680.592	8.27
681	8.35
681.408	8.42
681.816	8.51
682.224	8.6
682.632	8.71
683.04	8.81
683.448	8.92
683.856	9.05
684.264	9.18
684.671	9.33
685.079	9.48
685.487	9.66
685.894	9.85
686.302	10.06
686.709	10.28
687.116	10.51
687.524	10.77
687.931	11.05
688.338	11.35
688.745	11.67
689.152	12
689.559	12.36
689.966	12.72
690.373	13.08
690.78	13.46
691.187	13.85
691.593	14.26
692	14.68
692.407	15.1
692.813	15.53
693.22	15.95
693.626	16.4
694.032	16.84
694.439	17.28
694.845	17.75
695.251	18.21
695.657	18.66
696.063	19.11
696.469	19.56
696.875	20.02
697.281	20.47
697.687	20.92
698.093	21.34
698.498	21.76
698.904	22.19
699.31	22.61
699.715	23.03
700.12	23.45
700.526	23.87
700.931	24.28
701.337	24.68
701.742	25.08
702.147	25.46
702.552	25.86
702.957	26.23
703.362	26.61
703.767	26.96
704.172	27.31
704.577	27.67
704.981	28.03
705.386	28.37
705.791	28.7
706.195	29.01
706.6	29.35
707.004	29.68
707.408	30.01
707.813	30.34
708.217	30.65
708.621	30.96
709.025	31.24
709.43	31.49
709.834	31.79
710.237	32.08
710.641	32.37
711.045	32.63
711.449	32.89
711.853	33.18
712.256	33.42
712.66	33.69
713.064	33.93
713.467	34.19
713.87	34.46
714.274	34.69
714.677	34.92
715.08	35.15
715.484	35.4
715.887	35.64
716.29	35.83
716.693	36.08
717.096	36.28
717.499	36.51
717.901	36.73
718.304	36.94
718.707	37.14
719.109	37.36
719.512	37.56
719.915	37.74
720.317	37.91
720.719	38.08
721.122	38.24
721.524	38.41
721.926	38.58
722.328	38.74
722.731	38.88
723.133	39.06
723.535	39.2
723.937	39.35
724.338	39.49
724.74	39.64
725.142	39.8
725.544	39.96
725.945	40.09
726.347	40.17
726.748	40.29
727.15	40.4
727.551	40.49
727.952	40.59
728.354	40.71
728.755	40.79
729.156	40.87
729.557	40.95
729.958	41.02
730.359	41.11
730.76	41.23
731.161	41.28
731.562	41.38
731.962	41.44
732.363	41.53
732.763	41.57
733.164	41.64
733.564	41.71
733.965	41.76
734.365	41.83
734.766	41.89
735.166	41.95
735.566	42.02
735.966	42.05
736.366	42.12
736.766	42.16
737.166	42.21
737.566	42.25
737.966	42.29
738.365	42.34
738.765	42.35
739.165	42.39
739.564	42.42
739.964	42.45
740.363	42.48
740.763	42.49
741.162	42.51
741.561	42.53
741.96	42.54
742.36	42.59
742.759	42.6
743.158	42.64
743.557	42.65
743.955	42.67
744.354	42.71
744.753	42.77
745.152	42.84
745.55	42.87
745.949	42.91
746.348	42.97
746.746	42.97
747.144	43
747.543	43.01
747.941	43.04
748.339	43.05
748.737	43.05
749.136	43.04
749.534	43
749.932	43.01
750.33	43.03
750.727	43.03
751.125	43.04
751.523	43.05
751.921	43.04
752.318	43.03
752.716	43.04
753.113	43.06
753.511	43.05
753.908	43.09
754.305	43.1
754.703	43.06
755.1	43.03
755.497	43.01
755.894	42.99
756.291	42.98
756.688	42.94
757.085	42.93
757.482	42.89
757.878	42.88
758.275	42.82
758.672	42.78
759.068	42.79
759.465	42.77
759.861	42.76
760.258	42.75
760.654	42.74
761.05	42.76
761.447	42.76
761.843	42.76
762.239	42.77
762.635	42.79
763.031	42.79
763.427	42.76
763.822	42.78
764.218	42.79
764.614	42.8
765.01	42.81
765.405	42.82
765.801	42.82
766.196	42.85
766.592	42.84
766.987	42.85
767.382	42.82
767.778	42.86
768.173	42.88
768.568	42.87
768.963	42.88
769.358	42.91
769.753	42.9
770.148	42.9
770.542	42.87
770.937	42.89
771.332	42.89
771.726	42.94
772.121	42.93
772.515	42.93
772.91	42.93
773.304	42.95
773.699	42.95
774.093	42.95
774.487	42.95
774.881	42.98
775.275	42.97
775.669	42.98
776.063	42.96
776.457	42.95
776.851	42.94
777.245	42.92
777.638	42.92
778.032	42.92
778.425	42.93
778.819	42.93
779.212	42.93
779.606	42.94
779.999	42.94
780.392	42.97
780.786	42.98
781.179	43.01
781.572	43.04
781.965	43.03
782.358	43.03
782.751	43.03
783.143	43.03
783.536	43.02
783.929	43.02
784.322	43.05
784.714	43.05
785.107	43.04
785.499	43.04
785.891	43.02
786.284	43.04
786.676	43.06
787.068	43.06
787.46	43.06
787.852	43.07
788.245	43.08
788.636	43.06
789.028	43.06
789.42	43.07
789.812	43.06
790.204	43.06
790.595	43.07
790.987	43.07
791.378	43.07
791.77	43.09
792.161	43.07
792.553	43.09
792.944	43.07
793.335	43.09
793.726	43.1
794.117	43.11
794.508	43.1
794.899	43.12
795.29	43.12
795.681	43.11
796.072	43.11
796.463	43.13
796.853	43.09
797.244	43.11
797.634	43.12
798.025	43.15
798.415	43.17
798.806	43.2
799.196	43.2
799.586	43.18
799.976	43.2
800.366	43.21
800.756	43.21
801.146	43.26
801.536	43.28
801.926	43.27
802.316	43.26
802.706	43.27
803.095	43.28
803.485	43.24
803.874	43.26
804.264	43.25
804.653	43.26
805.043	43.29
805.432	43.26
805.821	43.27
806.21	43.27
806.599	43.25
806.988	43.23
807.377	43.23
807.766	43.25
808.155	43.25
808.544	43.25
808.933	43.23
809.321	43.21
809.71	43.23
810.098	43.23
810.487	43.22
810.875	43.25
811.264	43.24
811.652	43.24
812.04	43.25
812.428	43.29
812.816	43.29
813.204	43.3
813.592	43.29
813.98	43.28
814.368	43.28
814.756	43.28
815.144	43.27
815.531	43.28
815.919	43.3
816.306	43.31
816.694	43.29
817.081	43.33
817.469	43.34
817.856	43.34
818.243	43.35
818.63	43.34
819.017	43.34
819.404	43.33
819.791	43.32
820.178	43.3
820.565	43.27
820.952	43.27
821.339	43.25
821.725	43.25
822.112	43.29
822.498	43.29
822.885	43.31
823.271	43.3
823.657	43.27
824.044	43.28
824.43	43.29
824.816	43.29
825.202	43.27
825.588	43.25
825.974	43.25
826.36	43.22
826.746	43.2
827.132	43.19
827.517	43.18
827.903	43.21
828.289	43.21
828.674	43.19
829.06	43.17
829.445	43.16
829.83	43.17
830.216	43.14
830.601	43.13
830.986	43.1
831.371	43.07
831.756	43.08
832.141	43.05
832.526	43.02
832.911	43.01
833.295	43.01
833.68	43
834.065	42.95
834.449	42.95
834.834	42.94
835.218	42.93
835.603	42.92
835.987	42.9
836.371	42.89
836.755	42.87
837.139	42.84
837.524	42.82
837.908	42.84
838.291	42.85
838.675	42.83
839.059	42.83
839.443	42.8
839.827	42.81
840.21	42.79
840.594	42.79
840.977	42.79
841.361	42.8
841.744	42.75
842.127	42.7
842.511	42.69
842.894	42.68
843.277	42.64
843.66	42.65
844.043	42.65
844.426	42.65
844.809	42.65
845.191	42.65
845.574	42.65
845.957	42.69
846.339	42.71
846.722	42.7
847.104	42.72
847.487	42.72
847.869	42.73
848.252	42.71
848.634	42.73
849.016	42.72
849.398	42.73
849.78	42.74
850.162	42.72
850.544	42.72
850.926	42.71
851.307	42.69
851.689	42.7
852.071	42.7
852.452	42.7
852.834	42.7
853.215	42.71
853.597	42.7
853.978	42.68
854.359	42.7
854.741	42.69
855.122	42.7
855.503	42.69
855.884	42.67
856.265	42.67
856.646	42.65
857.026	42.66
857.407	42.68
857.788	42.68
858.169	42.69
858.549	42.68
858.93	42.7
859.31	42.7
859.69	42.71
860.071	42.76
860.451	42.76
860.831	42.8
861.211	42.77
861.591	42.76
861.971	42.76
862.351	42.78
862.731	42.79
863.111	42.78
863.491	42.77
863.87	42.77
864.25	42.73
864.629	42.74
865.009	42.72
865.388	42.72
865.768	42.7
866.147	42.69
866.526	42.66
866.905	42.64
867.284	42.67
867.663	42.69
868.042	42.7
868.421	42.72
868.8	42.73
869.179	42.74
869.558	42.73
869.936	42.75
870.315	42.77
870.693	42.79
871.072	42.82
871.45	42.8
871.828	42.8
872.207	42.78
872.585	42.77
872.963	42.77
873.341	42.76
873.719	42.77
874.097	42.77
874.475	42.77
874.853	42.77
875.23	42.78
875.608	42.79
875.986	42.81
876.363	42.81
876.741	42.81
877.118	42.83
877.495	42.83
877.873	42.86
878.25	42.85
878.627	42.86
879.004	42.86
879.381	42.85
879.758	42.84
880.135	42.83
880.512	42.82
880.889	42.83
881.265	42.8
881.642	42.81
882.019	42.81
882.395	42.81
882.772	42.78
883.148	42.77
883.524	42.74
883.901	42.75
884.277	42.71
884.653	42.69
885.029	42.66
885.405	42.64
885.781	42.62
886.157	42.6
886.532	42.59
886.908	42.57
887.284	42.57
887.659	42.55
888.035	42.51
888.411	42.5
888.786	42.52
889.161	42.53
889.537	42.52
889.912	42.54
890.287	42.53
890.662	42.5
891.037	42.52
891.412	42.49
891.787	42.47
892.162	42.49
892.536	42.48
892.911	42.46
893.286	42.44
893.66	42.44
894.035	42.4
894.409	42.39
894.784	42.38
895.158	42.37
895.532	42.39
895.906	42.41
896.281	42.39
896.655	42.39
897.029	42.41
897.402	42.4
897.776	42.43
898.15	42.44
898.524	42.45
898.898	42.45
899.271	42.45
899.645	42.44
900.018	42.45
900.392	42.45
900.765	42.47
901.138	42.47
901.511	42.48
901.884	42.47
902.258	42.47
902.631	42.49
903.003	42.51
903.376	42.49
903.749	42.48
904.122	42.48
904.495	42.5
904.867	42.5
905.24	42.5
905.612	42.52
905.985	42.52
906.357	42.51
906.729	42.51
907.102	42.51
907.474	42.55
907.846	42.57
908.218	42.58
908.59	42.58
908.962	42.6
909.334	42.62
909.705	42.59
910.077	42.62
910.449	42.64
910.82	42.67
911.192	42.66
911.563	42.66
911.935	42.67
912.306	42.68
912.677	42.69
913.048	42.69
913.419	42.64
913.79	42.67
914.161	42.68
914.532	42.69
914.903	42.69
915.274	42.68
915.645	42.67
916.015	42.67
916.386	42.66
916.756	42.66
917.127	42.65
917.497	42.7
917.868	42.71
918.238	42.69
918.608	42.7
918.978	42.69
919.348	42.72
919.718	42.73
920.088	42.73
920.458	42.74
920.828	42.72
921.198	42.71
921.567	42.73
921.937	42.74
922.306	42.74
922.676	42.74
923.045	42.73
923.415	42.72
923.784	42.73
924.153	42.73
924.522	42.74
924.891	42.76
925.26	42.77
925.629	42.75
925.998	42.73
926.367	42.7
926.736	42.69
927.104	42.7
927.473	42.66
927.842	42.61
928.21	42.63
928.578	42.61
928.947	42.61
929.315	42.58
929.683	42.54
930.051	42.53
930.42	42.54
930.788	42.52
931.156	42.48
931.523	42.5
931.891	42.53
932.259	42.51
932.627	42.48
932.994	42.44
933.362	42.42
933.729	42.44
934.097	42.41
934.464	42.42
934.831	42.39
935.199	42.4
935.566	42.39
935.933	42.31
936.3	42.3
936.667	42.34
937.034	42.34
937.401	42.37
937.767	42.38
938.134	42.41
938.501	42.43
938.867	42.51
939.234	42.56
939.6	42.63
939.967	42.75
940.333	42.84
940.699	42.92
941.065	43
941.431	43.07
941.798	43.11
942.163	43.2
942.529	43.21
942.895	43.24
943.261	43.21
943.627	43.23
943.992	43.3
944.358	43.22
944.723	43.22
945.089	43.13
945.454	43.13
945.82	43.14
946.185	43.09
946.55	43.08
946.915	43.08
947.28	43.1
947.645	43.06
948.01	43.01
948.375	43.02
948.74	42.99
949.104	43.06
949.469	43.05
949.834	42.96
950.198	42.96
950.562	42.91
950.927	42.86
951.291	42.75
951.655	42.69
952.02	42.66
952.384	42.6
952.748	42.55
953.112	42.5
953.476	42.44
953.839	42.45
954.203	42.35
954.567	42.31
954.931	42.26
955.294	42.3
955.658	42.31
956.021	42.27
956.385	42.25
956.748	42.21
957.111	42.21
957.474	42.24
957.837	42.19
958.2	42.21
958.563	42.21
958.926	42.2
959.289	42.19
959.652	42.16
960.015	42.14
960.377	42.16
960.74	42.16
961.102	42.11
961.465	42.1
961.827	42.12
962.189	42.14
962.552	42.09
962.914	42.07
963.276	42.08
963.638	42.11
964	42.1
964.362	42.08
964.724	42.05
965.085	42.05
965.447	42.01
965.809	41.98
966.17	41.95
966.532	41.95
966.893	41.96
967.255	41.96
967.616	41.92
967.977	41.91
968.338	41.91
968.699	41.91
969.061	41.91
969.421	41.9
969.782	41.94
970.143	41.92
970.504	41.89
970.865	41.93
971.225	41.91
971.586	41.86
971.946	41.88
972.307	41.86
972.667	41.9
973.027	41.94
973.388	41.97
973.748	41.93
974.108	42.04
974.468	42.08
974.828	42.07
975.188	42.08
975.548	42.15
975.907	42.18
976.267	42.18
976.627	42.13
976.986	42.05
977.346	41.98
977.705	41.97
978.064	41.9
978.424	41.91
978.783	41.84
979.142	41.81
979.501	41.76
979.86	41.75
980.219	41.78
980.578	41.86
980.937	41.89
981.296	41.91
981.654	41.92
982.013	41.94
982.371	41.94
982.73	42
983.088	42.04
983.447	42.05
983.805	42.08
984.163	42.12
984.521	42.09
984.879	42.11
985.237	42.11
985.595	42.17
985.953	42.16
986.311	42.16
986.669	42.19
987.026	42.18
987.384	42.19
987.741	42.19
988.099	42.2
988.456	42.16
988.814	42.23
989.171	42.26
989.528	42.23
989.885	42.29
990.242	42.32
990.599	42.38
990.956	42.41
991.313	42.47
991.67	42.47
992.027	42.53
992.383	42.64
992.74	42.69
993.096	42.75
993.453	42.72
993.809	42.76
994.165	42.8
994.522	42.79
994.878	42.81
995.234	42.81
995.59	42.76
995.946	42.77
996.302	42.73
996.658	42.79
997.013	42.78
997.369	42.78
997.725	42.81
998.08	42.85
998.436	42.93
998.791	43.04
999.147	43.06
999.502	43.17
999.857	43.12
1000.212	43.06
1000.567	43.06
1000.922	43.15
1001.277	43.27
1001.632	43.23
1001.987	43.17
1002.342	43.04
1002.696	42.98
1003.051	43.1
1003.406	43.23
1003.76	43.23
1004.114	43.32
1004.469	43.38
1004.823	43.64
1005.177	43.68
1005.531	43.86
1005.885	44.07
1006.239	44.17
1006.593	44.36
1006.947	44.33
1007.301	44.18
1007.655	44.14
1008.008	44.28
1008.362	44.37
1008.715	44.13
1009.069	44.29
1009.422	44.26
1009.776	44.24
1010.129	44.26
1010.482	44.28
1010.835	44.33
1011.188	44.61
1011.541	44.88
1011.894	45.04
1012.247	45.06
1012.6	45.16
1012.952	45.08
1013.305	45.15
1013.657	45.23
1014.01	45.42
1014.362	45.35
1014.715	45.55
1015.067	45.59
1015.419	45.77
1015.771	45.75
1016.123	45.7
1016.475	45.82
1016.827	45.97
1017.179	45.9
1017.531	45.85
1017.883	46
1018.234	46.14
1018.586	46.15
1018.938	46.15
1019.289	46.01
1019.64	46.09
1019.992	46.05
1020.343	46.04
1020.694	45.96
1021.045	46.27
1021.396	46.38
1021.747	46.49
1022.098	46.58
1022.449	46.5
1022.8	46.64
1023.151	46.94
1023.501	47
1023.852	47.4
1024.202	47.38
1024.553	47.66
1024.903	47.56
1025.253	47.99
1025.604	47.94
1025.954	47.76
1026.304	48.01
1026.654	48.05
1027.004	48.02
1027.354	47.99
1027.703	48
1028.053	48.24
1028.403	48.17
1028.753	48.09
1029.102	48.11
1029.452	48.28
1029.801	48.84
1030.15	48.88
1030.499	48.85
897.758	972.12
901.051	977.91
904.343	977.53
907.636	990.99
910.928	964.93
914.22	964.09
917.511	950.53
920.803	914.25
924.094	910.15
927.384	888.41
930.675	854.51
933.965	849.11
937.255	800.49
940.544	769.2
943.834	734.48
947.123	727.6
950.411	687.08
953.7	674.11
956.988	635.85
960.276	612.95
963.563	604.5
966.851	579.74
970.138	575.96
973.424	559.17
976.711	560.43
979.997	535.5
983.283	533.89
986.568	521.95
989.853	506.58
993.138	497.8
996.423	478.52
999.708	464.75
1002.992	460.6
1006.275	443.21
1009.559	437.93
1012.842	422.94
1016.125	410.49
1019.408	401.89
1022.69	398.43
1025.972	390.46
1029.254	381.83
1032.536	375.85
1035.817	368.09
1039.098	364.08
1042.379	355.53
1045.659	351.66
1048.939	344.1
1052.219	337.35
1055.498	333.14
1058.778	324.82
1062.057	319.21
1065.335	315.36
1068.614	311.94
1071.892	309.8
1075.17	300.77
1078.447	295.37
1081.724	293.12
1085.001	290.95
1088.278	286.41
1091.554	281.29
1094.83	280.8
1098.106	278.46
1101.382	276.07
1104.657	273.73
1107.932	269.36
1111.206	270.13
1114.481	262.92
1117.755	261.71
1121.029	259.3
1124.302	258.8
1127.575	254.36
1130.848	252.03
1134.121	248.61
1137.393	247.73
1140.665	243.11
1143.937	240.6
1147.208	240.25
1150.48	240.36
1153.75	235.96
1157.021	233.34
1160.291	233.14
1163.561	230.49
1166.831	229.9
1170.101	228.75
1173.37	228.49
1176.639	228.95
1179.907	227.68
1183.176	224.6
1186.444	224.15
1189.711	224.66
1192.979	223.36
1196.246	221.54
1199.513	223.15
1202.78	222.5
1206.046	222
1209.312	219.1
1212.578	219.19
1215.843	220.11
1219.108	219.65
1222.373	224.18
1225.638	225.1
1228.902	228.63
1232.166	228.38
1235.43	228.95
1238.693	231.98
1241.956	233.72
1245.219	237.36
1248.482	238.21
1251.744	238.34
1255.006	239.27
1258.268	233.03
1261.529	231.56
1264.79	230.4
1268.051	229.52
1271.312	227.13
1274.572	224.38
1277.832	222.55
1281.092	219.19
1284.351	217.52
1287.61	218.12
1290.869	213.58
1294.128	213.04
1297.386	212.95
1300.644	210.54
1303.902	211.57
1307.159	210.43
1310.416	210.75
1313.673	209.61
1316.93	211.52
1320.186	210.76
1323.442	210.98
1326.697	214.81
1329.953	215.8
1333.208	216.21
1336.463	219.04
1339.717	219.3
1342.972	221.79
1346.226	222.67
1349.479	224.03
1352.733	224.93
1355.986	227.22
1359.238	226.44
1362.491	226.94
1365.743	228.68
1368.995	228.78
1372.247	227.66
1375.498	227.74
1378.749	228.9
1382	226.32
1385.251	226.44
1388.501	225.14
1391.751	224.15
1395	223.49
1398.25	221.99
1401.499	219.42
1404.748	219
1407.996	215.77
1411.244	214.43
1414.492	213
1417.74	210.9
1420.987	207.86
1424.234	206.89
1427.481	204.53
1430.728	204.02
1433.974	201.94
1437.22	200.92
1440.465	200.02
1443.711	198.55
1446.956	198.01
1450.201	195.54
1453.445	193.6
1456.689	192.57
1459.933	190.61
1463.177	188.39
1466.42	186.12
1469.663	183.96
1472.906	182.7
1476.148	177.98
1479.391	176.55
1482.633	174.69
1485.874	172.65
1489.115	171.91
1492.356	170.22
1495.597	169.18
1498.838	167.93
1502.078	166.6
1505.318	166.34
1508.557	166.2
1511.797	166.93
1515.036	165.74
1518.274	164.68
1521.513	164.15
1524.751	163.68
1527.989	163.83
1531.227	163.22
1534.464	163.52
1537.701	163.59
1540.938	162.92
1544.174	161.24
1547.41	161.19
1550.646	161
1553.882	161.47
1557.117	159.05
1560.352	158.84
1563.587	158.23
1566.821	157.24
1570.055	156.46
1573.289	154.59
1576.523	154.82
1579.756	153.95
1582.989	152.71
1586.222	152.4
1589.454	152.01
1592.686	153.41
1595.918	152.67
1599.15	152.32
1602.381	152.5
1605.612	151.83
1608.843	152.74
1612.073	152.71
1615.303	153.4
1618.533	154.05
1621.762	153.39
1624.992	153.8
1628.221	153.29
1631.449	152.88
1634.678	152.98
1637.906	153.86
1641.134	153.9
1644.361	153.3
1647.588	153.69
1650.815	153.4
1654.042	152.72
1657.269	153.9
1660.495	153.44
1663.72	152.94
1666.946	153.84
1670.171	154.31
1673.396	153.94
1676.621	153.66
1679.845	154.27
1683.069	154.6
1686.293	155.3
1689.517	156.15
1692.74	156.02
1695.963	156.44
1699.185	158.26
1702.408	158.48
1705.63	158.51
1708.852	159.01
1712.073	159.62
1715.294	159.77
1718.515	160.11
1721.736	159.89
1724.956	160.48
1728.176	160.52
1731.396	161.74
1734.616	160.58
1737.835	160.91
1741.054	159.88
1744.272	160
1747.491	161.37
1750.709	162.09
1753.927	161.64
1757.144	161.61
1760.361	161.37
1763.578	161.84
1766.795	161.28
1770.011	162.85
1773.227	163.07
1776.443	164.94
1779.658	165.4
1782.874	165.23
1786.089	165.03
1789.303	165.95
1792.518	167.2
1795.732	167.52
1798.945	168.6
1802.159	168.71
1805.372	168.98
1808.585	171.03
1811.797	171.57
1815.01	172.06
1818.222	172.9
1821.434	175.3
1824.645	175.23
1827.856	177.62
1831.067	179.2
1834.278	179.28
1837.488	180.46
1840.698	181.25
1843.908	179.74
1847.117	180.18
1850.326	181.32
1853.535	179.98
1856.744	181.55
1859.952	181.69
1863.16	180.15
1866.368	178.69
1869.575	178.92
1872.782	176.45
1875.989	175.34
1879.196	174.8
1882.402	173.67
1885.608	172.84
1888.814	173.26
1892.019	171.88
1895.224	170.83
1898.429	170.37
1901.634	170.55
1904.838	170.97
1908.042	172.12
1911.246	172.61
1914.449	173.07
1917.652	173.06
1920.855	173.1
1924.058	173.34
1927.26	172.3
1930.462	172.64
1933.664	174.71
1936.865	172.81
1940.066	172.43
1943.267	171.68
1946.467	172.01
1949.668	172.74
1952.868	174.65
1956.067	175.74
1959.267	175.1
1962.466	175.78
1965.665	174.96
1968.863	175.5
1972.061	179.57
1975.259	180.59
1978.457	182
1981.654	183.18
1984.852	183.91
1988.048	183.36
1991.245	184.77
1994.441	187.45
1997.637	189.39
2000.833	193.9
2004.028	195.63
2007.223	196.22
2010.418	198.77
2013.613	202.11
2016.807	204.55
2020.001	205.74
2023.194	208.71
2026.388	214.23
2029.581	218.63
2032.774	219.74
2035.966	223.29
2039.158	224.6
2042.35	227.58
2045.542	229.76
2048.733	233.46
2051.924	236.69
2055.115	240.31
2058.306	241.43
2061.496	241.95
2064.686	242.93
2067.875	247.97
2071.065	249.08
2074.254	246.59
2077.442	251.37
2080.631	251.85
2083.819	254.1
2087.007	255.03
2090.195	259.09
2093.382	261.63
2096.569	260.7
2099.756	264.11
2102.942	264.36
2106.128	265.83
2109.314	273.66
2112.5	272.07
2115.685	277.52
2118.87	277.96
2122.055	283.52
2125.239	284.37
2128.424	287.25
2131.608	289.77
2134.791	294.62
2137.974	295.82
2141.157	296.8
2144.34	296.88
2147.523	301.43
2150.705	299.91
2153.887	303.38
2157.068	303.2
2160.25	301.64
2163.431	303.56
2166.611	306.46
2169.792	310.37
2172.972	314.39
2176.152	316.83
2179.331	320.29
2182.511	324.98
2185.69	328.54
2188.868	333.83
2192.047	334.75
2195.225	344.26
2198.403	351.84
2201.58	357.61
2204.758	365.62
2207.935	370.49
2211.111	380.25
2214.288	384.15
2217.464	385.07
2220.64	390.34
2223.815	394.85
2226.991	411.37
2230.166	411.96
2233.34	417.58
2236.515	424.72
2239.689	424.97
2242.863	429.78
2246.036	437.35
2249.209	435.13
2252.382	442.31
2255.555	456.13
2258.727	458.45
2261.9	459.74
2265.071	463.98
2268.243	473.29
2271.414	478.65
2274.585	487.75
2277.756	489.78
2280.926	493.89
2284.096	506.33
2287.266	517.55
2290.436	520.84
2293.605	531.59
2296.774	548.56
2299.942	565.51
2303.111	567.73
2306.279	579.94
2309.447	590.52
2312.614	606.67
2315.781	623.37
2318.948	650.35
2322.115	639.88
2325.281	676.35
2328.447	663.65
2331.613	686.48
2334.779	679.97
2337.944	707.52
2341.109	714.8
2344.274	732.54
2347.438	758.43
2350.602	759.25
2353.766	782.86
2356.929	795.59
2360.092	788.08
2363.255	844.98
2366.418	845.09
2369.58	860.07
2372.742	913.73
2375.904	938.13
2379.066	929.97
2382.227	913.72
2385.388	988.15
2388.548	985.72
2391.709	1000.34
2394.869	1111.91
2398.029	1066.94
2401.188	1099.57
2404.347	1089.78
2407.506	1070.67
2410.665	1098.35
2413.823	1167.8
2416.981	1234.9
2420.139	1201.15
2423.296	1186.59
2426.453	1242.38
2429.61	1199.78
2432.767	1247.56
2435.923	1232.47
2439.079	1350.05
2442.235	1371.59
2445.391	1364.15
2448.546	1345.87
2451.701	1312.61
2454.855	1307.71
2458.009	1392.33
2461.163	1441.14
2464.317	1484.93
2467.471	1527.67
2470.624	1530.95
2473.777	1490.99
2476.929	1447.52
2480.082	1399.06
2483.234	1389.88
2486.385	1454.46
2489.537	1463.29
2492.688	1515.13
2495.839	1475.83
2498.989	1444.26
2502.14	1447.82
2505.29	1462.67
2508.439	1485.25
2511.589	1487.41
2514.738	1626.28
2517.887	1589.86
2521.035	1675.88
2524.183	1691.21
2527.331	1701.07
2530.479	1687.9
2533.627	1703.89
