Data from C_3_DEC_ON_6N_Splice17_14-23-59-280.txt Node
Date: Sat Mar 07 14:23:59 EST 2020
User: sa697716
Spectrometer: NQ5500242
Trigger mode: 0
Integration Time (sec): 1.450000E-1
Scans to average: 20
Nonlinearity correction enabled: false
Boxcar width: 5
Storing dark spectrum: false
XAxis mode: Wavelengths
Number of Pixels in Spectrum: 512
>>>>>Begin Spectral Data<<<<<
187.83	133.08
188.298	162.29
188.766	133.4
189.233	123.17
189.701	120.16
190.169	151.26
190.636	181.69
191.104	196.64
191.571	351.26
192.039	394.19
192.506	272.02
192.974	65.83
193.441	288.89
193.908	107.72
194.375	106.91
194.842	50.42
195.31	119.25
195.777	154.07
196.244	60.85
196.711	69.08
197.177	70.36
197.644	69.56
198.111	69.37
198.578	69.23
199.045	69.82
199.511	70.12
199.978	70.27
200.445	70.2
200.911	70.53
201.378	70.56
201.844	70.25
202.31	69.62
202.777	69.61
203.243	69.36
203.709	68.89
204.176	68.05
204.642	67.2
205.108	66.64
205.574	66.25
206.04	65.38
206.506	64.89
206.972	64.92
207.438	64.44
207.903	63.41
208.369	62.05
208.835	60.64
209.301	59.43
209.766	57.73
210.232	56.17
210.697	54.5
211.163	52.9
211.628	51.32
212.094	49.83
212.559	48.41
213.024	47.25
213.49	46.15
213.955	45.1
214.42	43.95
214.885	42.74
215.35	40.99
215.815	38.38
216.28	35.54
216.745	32.35
217.21	28.93
217.675	25.97
218.14	23.22
218.604	20.96
219.069	19.03
219.534	17.37
219.998	15.99
220.463	14.94
220.927	14.09
221.392	13.33
221.856	12.71
222.32	12.2
222.785	11.75
223.249	11.37
223.713	11.02
224.177	10.71
224.642	10.44
225.106	10.17
225.57	9.89
226.034	9.65
226.497	9.45
226.961	9.23
227.425	9.04
227.889	8.87
228.353	8.69
228.816	8.5
229.28	8.34
229.744	8.19
230.207	8.04
230.671	7.89
231.134	7.77
231.597	7.65
232.061	7.53
232.524	7.41
232.987	7.3
233.45	7.2
233.914	7.1
234.377	7
234.84	6.91
235.303	6.84
235.766	6.76
236.229	6.68
236.691	6.59
237.154	6.52
237.617	6.47
238.08	6.4
238.542	6.34
239.005	6.29
239.468	6.23
239.93	6.17
240.393	6.12
240.855	6.05
241.317	6
241.78	5.94
242.242	5.88
242.704	5.84
243.166	5.78
243.629	5.73
244.091	5.66
244.553	5.62
245.015	5.57
245.477	5.52
245.939	5.48
246.4	5.42
246.862	5.37
247.324	5.33
247.786	5.28
248.247	5.22
248.709	5.17
249.17	5.11
249.632	5.07
250.093	5.04
250.555	4.99
251.016	4.95
251.477	4.91
251.939	4.88
252.4	4.84
252.861	4.81
253.322	4.78
253.783	4.77
254.244	4.75
254.705	4.72
255.166	4.69
255.627	4.66
256.088	4.64
256.549	4.63
257.009	4.59
257.47	4.56
257.931	4.53
258.391	4.5
258.852	4.45
259.312	4.41
259.773	4.39
260.233	4.35
260.694	4.32
261.154	4.28
261.614	4.24
262.074	4.21
262.534	4.17
262.994	4.15
263.455	4.12
263.915	4.1
264.374	4.08
264.834	4.05
265.294	4.03
265.754	4.01
266.214	3.99
266.673	3.97
267.133	3.96
267.593	3.95
268.052	3.93
268.512	3.92
268.971	3.91
269.431	3.9
269.89	3.88
270.349	3.87
270.809	3.85
271.268	3.85
271.727	3.84
272.186	3.84
272.645	3.83
273.104	3.82
273.563	3.81
274.022	3.8
274.481	3.8
274.94	3.79
275.399	3.79
275.857	3.79
276.316	3.78
276.775	3.77
277.233	3.76
277.692	3.75
278.15	3.75
278.609	3.75
279.067	3.74
279.525	3.74
279.984	3.73
280.442	3.73
280.9	3.73
281.358	3.73
281.816	3.73
282.274	3.73
282.732	3.73
283.19	3.72
283.648	3.71
284.106	3.71
284.564	3.71
285.021	3.72
285.479	3.72
285.937	3.72
286.394	3.72
286.852	3.71
287.309	3.7
287.767	3.69
288.224	3.69
288.682	3.68
289.139	3.66
289.596	3.65
290.053	3.62
290.511	3.61
290.968	3.59
291.425	3.57
291.882	3.56
292.339	3.55
292.796	3.54
293.252	3.53
293.709	3.52
294.166	3.51
294.623	3.5
295.079	3.5
295.536	3.49
295.992	3.49
296.449	3.48
296.905	3.48
297.362	3.47
297.818	3.46
298.274	3.46
298.731	3.45
299.187	3.44
299.643	3.44
300.099	3.44
300.555	3.43
301.011	3.42
301.467	3.42
301.923	3.41
302.379	3.41
302.835	3.42
303.291	3.41
303.746	3.41
304.202	3.42
304.658	3.42
305.113	3.42
305.569	3.43
306.024	3.43
306.479	3.43
306.935	3.43
307.39	3.44
307.845	3.45
308.301	3.45
308.756	3.46
309.211	3.47
309.666	3.48
310.121	3.48
310.576	3.49
311.031	3.49
311.486	3.5
311.94	3.51
312.395	3.51
312.85	3.52
313.305	3.52
313.759	3.52
314.214	3.52
314.668	3.51
315.123	3.51
315.577	3.5
316.032	3.5
316.486	3.5
316.94	3.49
317.394	3.49
317.849	3.48
318.303	3.47
318.757	3.46
319.211	3.45
319.665	3.44
320.119	3.43
320.572	3.41
321.026	3.4
321.48	3.39
321.934	3.38
322.387	3.37
322.841	3.37
323.295	3.37
323.748	3.37
324.202	3.37
324.655	3.38
325.108	3.38
325.562	3.39
326.015	3.39
326.468	3.39
326.921	3.39
327.374	3.39
327.827	3.39
328.28	3.39
328.733	3.39
329.186	3.39
329.639	3.39
330.092	3.39
330.545	3.39
330.997	3.39
331.45	3.4
331.903	3.41
332.355	3.42
332.808	3.43
333.26	3.43
333.713	3.44
334.165	3.44
334.617	3.45
335.069	3.46
335.522	3.47
335.974	3.48
336.426	3.47
336.878	3.47
337.33	3.47
337.782	3.47
338.234	3.47
338.686	3.47
339.137	3.48
339.589	3.47
340.041	3.47
340.493	3.47
340.944	3.45
341.396	3.44
341.847	3.43
342.299	3.41
342.75	3.4
343.201	3.39
343.653	3.37
344.104	3.35
344.555	3.34
345.006	3.32
345.457	3.32
345.908	3.31
346.359	3.3
346.81	3.3
347.261	3.3
347.712	3.3
348.163	3.29
348.613	3.29
349.064	3.29
349.515	3.3
349.965	3.3
350.416	3.29
350.866	3.3
351.317	3.3
351.767	3.31
352.217	3.31
352.668	3.31
353.118	3.32
353.568	3.32
354.018	3.33
354.468	3.34
354.918	3.34
355.368	3.36
355.818	3.36
356.268	3.37
356.718	3.36
357.168	3.36
357.617	3.36
358.067	3.36
358.517	3.37
358.966	3.37
359.416	3.37
359.865	3.37
360.315	3.38
360.764	3.38
361.213	3.38
361.663	3.38
362.112	3.39
362.561	3.4
363.01	3.4
363.459	3.39
363.908	3.39
364.357	3.4
364.806	3.4
365.255	3.4
365.703	3.41
366.152	3.42
366.601	3.43
367.05	3.44
367.498	3.44
367.947	3.46
368.395	3.47
368.844	3.48
369.292	3.48
369.74	3.49
370.189	3.5
370.637	3.49
371.085	3.5
371.533	3.51
371.981	3.51
372.429	3.52
372.877	3.53
373.325	3.54
373.773	3.55
374.221	3.55
374.669	3.55
375.116	3.55
375.564	3.55
376.012	3.57
376.459	3.57
376.907	3.59
377.354	3.59
377.801	3.6
378.249	3.62
378.696	3.62
379.143	3.64
379.591	3.65
380.038	3.67
380.485	3.68
380.932	3.69
381.379	3.69
381.826	3.7
382.273	3.7
382.72	3.7
383.166	3.7
383.613	3.72
384.06	3.72
384.506	3.73
384.953	3.74
385.4	3.76
385.846	3.79
386.292	3.81
386.739	3.82
387.185	3.85
387.631	3.88
388.078	3.9
388.524	3.91
388.97	3.93
389.416	3.95
389.862	3.97
390.308	3.99
390.754	4.01
391.2	4.03
391.645	4.05
392.091	4.08
392.537	4.1
392.983	4.12
393.428	4.15
393.874	4.17
394.319	4.18
394.765	4.19
395.21	4.19
395.655	4.2
396.101	4.22
396.546	4.22
396.991	4.24
397.436	4.26
397.881	4.28
398.326	4.3
398.771	4.34
399.216	4.35
399.661	4.38
400.106	4.41
400.551	4.42
400.995	4.43
401.44	4.45
401.885	4.44
402.329	4.46
402.774	4.46
403.218	4.49
403.663	4.5
404.107	4.51
404.551	4.51
404.995	4.52
405.44	4.53
405.884	4.54
406.328	4.56
406.772	4.56
407.216	4.56
407.66	4.57
408.104	4.56
408.547	4.56
408.991	4.56
409.435	4.57
409.879	4.58
410.322	4.59
410.766	4.6
411.209	4.61
411.653	4.63
412.096	4.65
412.54	4.66
412.983	4.67
413.426	4.7
413.869	4.73
414.312	4.75
414.756	4.77
415.199	4.79
415.642	4.8
416.085	4.81
416.527	4.81
416.97	4.8
417.413	4.8
417.856	4.8
418.298	4.78
418.741	4.78
419.184	4.77
419.626	4.76
420.069	4.76
420.511	4.76
420.953	4.76
421.396	4.76
421.838	4.77
422.28	4.79
422.722	4.81
423.164	4.82
423.606	4.82
424.048	4.83
424.49	4.84
424.932	4.84
425.374	4.83
425.816	4.8
426.258	4.79
426.699	4.77
427.141	4.76
427.582	4.77
428.024	4.76
428.465	4.76
428.907	4.77
429.348	4.76
429.789	4.75
430.231	4.78
430.672	4.81
431.113	4.84
431.554	4.86
431.995	4.88
432.436	4.87
432.877	4.88
433.318	4.9
433.759	4.92
434.2	4.96
434.64	4.99
435.081	4.98
435.522	5
435.962	5.01
436.403	5.04
436.843	5.07
437.284	5.08
437.724	5.09
438.164	5.08
438.604	5.1
439.045	5.08
439.485	5.09
439.925	5.1
440.365	5.1
440.805	5.09
441.245	5.09
441.685	5.08
442.125	5.1
442.564	5.12
443.004	5.12
443.444	5.11
443.883	5.14
444.323	5.14
444.762	5.15
445.202	5.16
445.641	5.19
446.081	5.22
446.52	5.24
446.959	5.26
447.398	5.28
447.837	5.3
448.276	5.32
448.716	5.33
449.154	5.37
449.593	5.38
450.032	5.38
450.471	5.37
450.91	5.35
451.349	5.34
451.787	5.31
452.226	5.3
452.664	5.3
453.103	5.28
453.541	5.26
453.98	5.23
454.418	5.21
454.856	5.18
455.295	5.17
455.733	5.16
456.171	5.14
456.609	5.12
457.047	5.09
457.485	5.07
457.923	5.06
458.361	5.05
458.798	5.05
459.236	5.04
459.674	5.05
460.111	5.03
460.549	5.03
460.987	5.03
461.424	5.04
461.862	5.04
462.299	5.05
462.736	5.04
463.173	5.05
463.611	5.03
464.048	5.04
464.485	5.04
464.922	5.05
465.359	5.06
465.796	5.06
466.233	5.06
466.67	5.07
467.106	5.08
467.543	5.09
467.98	5.09
468.416	5.1
468.853	5.1
469.29	5.11
469.726	5.11
470.162	5.11
470.599	5.11
471.035	5.1
471.471	5.09
471.907	5.09
472.344	5.09
472.78	5.08
473.216	5.07
473.652	5.08
474.088	5.06
474.523	5.05
474.959	5.04
475.395	5.02
475.831	5.02
476.266	5.02
476.702	5
477.138	4.99
477.573	4.99
478.008	4.98
478.444	4.96
478.879	4.95
479.314	4.94
479.75	4.93
480.185	4.91
480.62	4.89
481.055	4.89
481.49	4.88
481.925	4.87
482.36	4.85
482.795	4.83
483.229	4.83
483.664	4.83
484.099	4.82
484.534	4.81
484.968	4.82
485.403	4.82
485.837	4.82
486.271	4.83
486.706	4.83
487.14	4.84
487.574	4.85
488.009	4.86
488.443	4.87
488.877	4.89
489.311	4.9
489.745	4.93
490.179	4.95
490.613	4.96
491.046	4.98
491.48	5
491.914	5.03
492.348	5.05
492.781	5.08
493.215	5.11
493.648	5.15
494.082	5.18
494.515	5.21
494.948	5.25
495.382	5.29
495.815	5.34
496.248	5.39
496.681	5.45
497.114	5.5
497.547	5.56
497.98	5.62
498.413	5.67
498.846	5.74
499.279	5.81
499.711	5.88
500.144	5.96
500.577	6.03
501.009	6.11
501.442	6.19
501.874	6.29
502.306	6.38
502.739	6.48
503.171	6.59
503.603	6.7
504.036	6.83
504.468	6.95
504.9	7.06
505.332	7.18
505.764	7.31
506.196	7.45
506.627	7.6
507.059	7.74
507.491	7.89
507.923	8.04
508.354	8.21
508.786	8.38
509.217	8.56
509.649	8.75
510.08	8.94
510.512	9.13
510.943	9.33
511.374	9.52
511.805	9.73
512.237	9.94
512.668	10.16
513.099	10.37
513.53	10.6
513.961	10.82
514.391	11.04
514.822	11.27
515.253	11.5
515.684	11.73
516.114	11.97
516.545	12.2
516.975	12.45
517.406	12.68
517.836	12.91
518.267	13.15
518.697	13.39
519.127	13.61
519.558	13.85
519.988	14.09
520.418	14.33
520.848	14.58
521.278	14.82
521.708	15.14
522.138	15.37
522.567	15.58
522.997	15.79
523.427	16.01
523.857	16.22
524.286	16.43
524.716	16.62
525.145	16.81
525.575	17
526.004	17.17
526.433	17.24
526.863	17.41
527.292	17.58
527.721	17.73
528.15	17.87
528.579	18.01
529.008	18.16
529.437	18.28
529.866	18.41
530.295	18.53
530.724	18.64
531.152	18.76
531.581	18.88
532.01	18.97
532.438	19.07
532.867	19.16
533.295	19.25
533.723	19.32
534.152	19.4
534.58	19.46
535.008	19.52
535.436	19.59
535.865	19.64
536.293	19.68
536.721	19.75
537.149	19.79
537.576	19.84
538.004	19.88
538.432	19.92
538.86	19.96
539.287	19.99
539.715	20.03
540.143	20.04
540.57	20.09
540.998	20.11
541.425	20.13
541.852	20.16
542.28	20.19
542.707	20.22
543.134	20.24
543.561	20.28
543.988	20.32
544.415	20.34
544.842	20.37
545.269	20.4
545.696	20.42
546.123	20.44
546.549	20.46
546.976	20.5
547.403	20.53
547.829	20.54
548.256	20.55
548.682	20.57
549.108	20.6
549.535	20.63
549.961	20.64
550.387	20.65
550.813	20.67
551.24	20.68
551.666	20.68
552.092	20.67
552.518	20.69
552.943	20.7
553.369	20.7
553.795	20.68
554.221	20.66
554.646	20.65
555.072	20.62
555.498	20.6
555.923	20.56
556.349	20.52
556.774	20.49
557.199	20.43
557.625	20.37
558.05	20.32
558.475	20.26
558.9	20.2
559.325	20.13
559.75	20.05
560.175	19.96
560.6	19.88
561.025	19.8
561.449	19.72
561.874	19.61
562.299	19.51
562.723	19.4
563.148	19.28
563.572	19.14
563.997	19
564.421	18.88
564.846	18.78
565.27	18.65
565.694	18.52
566.118	18.37
566.542	18.24
566.966	18.1
567.39	17.95
567.814	17.81
568.238	17.68
568.662	17.54
569.086	17.39
569.509	17.25
569.933	17.11
570.357	16.96
570.78	16.82
571.204	16.69
571.627	16.57
572.05	16.45
572.474	16.35
572.897	16.24
573.32	16.13
573.743	16.03
574.166	15.93
574.589	15.83
575.012	15.74
575.435	15.65
575.858	15.57
576.281	15.47
576.704	15.39
577.126	15.3
577.549	15.21
577.972	15.14
578.394	15.06
578.817	14.98
579.239	14.91
579.661	14.84
580.084	14.77
580.506	14.7
580.928	14.63
581.35	14.56
581.772	14.49
582.194	14.44
582.616	14.39
583.038	14.32
583.46	14.25
583.882	14.19
584.303	14.13
584.725	14.08
585.147	14.02
585.568	13.97
585.99	13.92
586.411	13.87
586.833	13.8
587.254	13.74
587.675	13.71
588.096	13.66
588.518	13.62
588.939	13.58
589.36	13.54
589.781	13.5
590.202	13.47
590.623	13.44
591.043	13.39
591.464	13.36
591.885	13.31
592.305	13.27
592.726	13.25
593.147	13.21
593.567	13.16
593.987	13.12
594.408	13.09
594.828	13.06
595.248	13.02
595.669	13
596.089	12.96
596.509	12.94
596.929	12.91
597.349	12.86
597.769	12.83
598.189	12.79
598.608	12.76
599.028	12.74
599.448	12.7
599.867	12.66
600.287	12.62
600.706	12.58
601.126	12.54
601.545	12.5
601.965	12.46
602.384	12.42
602.803	12.38
603.222	12.32
603.641	12.27
604.061	12.23
604.48	12.16
604.898	12.1
605.317	12.05
605.736	12
606.155	11.95
606.574	11.89
606.992	11.84
607.411	11.79
607.829	11.72
608.248	11.66
608.666	11.6
609.085	11.55
609.503	11.51
609.921	11.46
610.339	11.4
610.758	11.35
611.176	11.29
611.594	11.23
612.012	11.17
612.43	11.13
612.847	11.08
613.265	11.02
613.683	10.96
614.101	10.91
614.518	10.85
614.936	10.79
615.353	10.74
615.771	10.69
616.188	10.63
616.606	10.59
617.023	10.54
617.44	10.5
617.857	10.47
618.274	10.43
618.691	10.38
619.108	10.35
619.525	10.33
619.942	10.3
620.359	10.26
620.776	10.25
621.192	10.21
621.609	10.19
622.026	10.17
622.442	10.16
622.859	10.14
623.275	10.12
623.691	10.11
624.108	10.08
624.524	10.07
624.94	10.06
625.356	10.06
625.772	10.05
626.188	10.04
626.604	10.03
627.02	10.02
627.436	10
627.852	10
628.268	9.98
628.683	9.97
629.099	9.97
629.514	9.94
629.93	9.92
630.345	9.89
630.761	9.85
631.176	9.82
631.591	9.79
632.007	9.75
632.422	9.7
632.837	9.66
633.252	9.61
633.667	9.55
634.082	9.48
634.497	9.41
634.911	9.33
635.326	9.26
635.741	9.19
636.155	9.1
636.57	9.01
636.984	8.92
637.399	8.81
637.813	8.72
638.228	8.61
638.642	8.49
639.056	8.39
639.47	8.29
639.884	8.19
640.298	8.07
640.712	7.97
641.126	7.86
641.54	7.75
641.954	7.65
642.368	7.56
642.781	7.47
643.195	7.39
643.609	7.31
644.022	7.22
644.436	7.14
644.849	7.07
645.262	7
645.676	6.94
646.089	6.88
646.502	6.82
646.915	6.78
647.328	6.73
647.741	6.69
648.154	6.64
648.567	6.61
648.98	6.58
649.393	6.54
649.805	6.52
650.218	6.49
650.631	6.47
651.043	6.45
651.456	6.42
651.868	6.4
652.28	6.37
652.693	6.35
653.105	6.33
653.517	6.3
653.929	6.29
654.341	6.25
654.753	6.22
655.165	6.2
655.577	6.16
655.989	6.12
656.401	6.08
656.813	6.04
657.224	6
657.636	5.95
658.047	5.91
658.459	5.86
658.87	5.81
659.282	5.77
659.693	5.72
660.104	5.66
660.515	5.6
660.926	5.56
661.338	5.52
661.749	5.48
662.159	5.43
662.57	5.38
662.981	5.35
663.392	5.31
663.803	5.27
664.213	5.23
664.624	5.21
665.035	5.18
665.445	5.15
665.855	5.13
666.266	5.11
666.676	5.09
667.086	5.07
667.497	5.04
667.907	5.03
668.317	5.01
668.727	5
669.137	4.99
669.547	4.98
669.956	4.98
670.366	4.98
670.776	4.97
671.186	4.98
671.595	4.98
672.005	4.99
672.414	5.01
672.824	5.02
673.233	5.05
673.642	5.07
674.052	5.09
674.461	5.11
674.87	5.14
675.279	5.17
675.688	5.2
676.097	5.23
676.506	5.26
676.915	5.29
677.323	5.33
677.732	5.37
678.141	5.4
678.549	5.44
678.958	5.48
679.366	5.52
679.775	5.57
680.183	5.61
680.592	5.68
681	5.75
681.408	5.83
681.816	5.91
682.224	6
682.632	6.11
683.04	6.23
683.448	6.35
683.856	6.48
684.264	6.63
684.671	6.8
685.079	6.98
685.487	7.18
685.894	7.4
686.302	7.65
686.709	7.9
687.116	8.18
687.524	8.48
687.931	8.82
688.338	9.17
688.745	9.55
689.152	9.94
689.559	10.35
689.966	10.77
690.373	11.22
690.78	11.68
691.187	12.16
691.593	12.66
692	13.15
692.407	13.65
692.813	14.17
693.22	14.68
693.626	15.21
694.032	15.75
694.439	16.28
694.845	16.83
695.251	17.36
695.657	17.89
696.063	18.43
696.469	18.98
696.875	19.52
697.281	20.04
697.687	20.59
698.093	21.11
698.498	21.62
698.904	22.12
699.31	22.61
699.715	23.1
700.12	23.59
700.526	24.05
700.931	24.53
701.337	24.99
701.742	25.44
702.147	25.87
702.552	26.31
702.957	26.72
703.362	27.14
703.767	27.55
704.172	27.97
704.577	28.36
704.981	28.77
705.386	29.15
705.791	29.52
706.195	29.9
706.6	30.26
707.004	30.62
707.408	31
707.813	31.36
708.217	31.69
708.621	32.05
709.025	32.39
709.43	32.68
709.834	33
710.237	33.32
710.641	33.64
711.045	33.94
711.449	34.25
711.853	34.55
712.256	34.85
712.66	35.15
713.064	35.42
713.467	35.69
713.87	35.98
714.274	36.26
714.677	36.51
715.08	36.75
715.484	37.01
715.887	37.27
716.29	37.51
716.693	37.73
717.096	37.97
717.499	38.19
717.901	38.43
718.304	38.66
718.707	38.89
719.109	39.09
719.512	39.32
719.915	39.53
720.317	39.71
720.719	39.88
721.122	40.09
721.524	40.26
721.926	40.46
722.328	40.63
722.731	40.78
723.133	40.97
723.535	41.13
723.937	41.28
724.338	41.43
724.74	41.6
725.142	41.77
725.544	41.91
725.945	42.07
726.347	42.19
726.748	42.33
727.15	42.45
727.551	42.57
727.952	42.68
728.354	42.79
728.755	42.91
729.156	42.99
729.557	43.07
729.958	43.16
730.359	43.26
730.76	43.37
731.161	43.45
731.562	43.56
731.962	43.63
732.363	43.71
732.763	43.79
733.164	43.84
733.564	43.92
733.965	43.98
734.365	44.05
734.766	44.09
735.166	44.12
735.566	44.17
735.966	44.21
736.366	44.25
736.766	44.29
737.166	44.36
737.566	44.43
737.966	44.5
738.365	44.54
738.765	44.58
739.165	44.62
739.564	44.68
739.964	44.7
740.363	44.71
740.763	44.76
741.162	44.8
741.561	44.79
741.96	44.82
742.36	44.85
742.759	44.89
743.158	44.91
743.557	44.91
743.955	44.96
744.354	45.01
744.753	45.06
745.152	45.12
745.55	45.16
745.949	45.21
746.348	45.25
746.746	45.26
747.144	45.28
747.543	45.31
747.941	45.36
748.339	45.34
748.737	45.37
749.136	45.39
749.534	45.39
749.932	45.39
750.33	45.39
750.727	45.38
751.125	45.39
751.523	45.4
751.921	45.42
752.318	45.42
752.716	45.43
753.113	45.4
753.511	45.38
753.908	45.4
754.305	45.39
754.703	45.38
755.1	45.4
755.497	45.39
755.894	45.35
756.291	45.35
756.688	45.32
757.085	45.31
757.482	45.3
757.878	45.31
758.275	45.3
758.672	45.29
759.068	45.32
759.465	45.3
759.861	45.3
760.258	45.31
760.654	45.29
761.05	45.29
761.447	45.29
761.843	45.29
762.239	45.28
762.635	45.24
763.031	45.23
763.427	45.21
763.822	45.21
764.218	45.22
764.614	45.22
765.01	45.22
765.405	45.22
765.801	45.2
766.196	45.21
766.592	45.21
766.987	45.22
767.382	45.21
767.778	45.22
768.173	45.22
768.568	45.2
768.963	45.21
769.358	45.22
769.753	45.22
770.148	45.23
770.542	45.22
770.937	45.26
771.332	45.24
771.726	45.26
772.121	45.24
772.515	45.25
772.91	45.26
773.304	45.29
773.699	45.29
774.093	45.3
774.487	45.32
774.881	45.34
775.275	45.3
775.669	45.3
776.063	45.29
776.457	45.3
776.851	45.27
777.245	45.26
777.638	45.25
778.032	45.26
778.425	45.29
778.819	45.29
779.212	45.29
779.606	45.3
779.999	45.32
780.392	45.36
780.786	45.37
781.179	45.41
781.572	45.44
781.965	45.48
782.358	45.51
782.751	45.48
783.143	45.52
783.536	45.51
783.929	45.54
784.322	45.58
784.714	45.56
785.107	45.6
785.499	45.6
785.891	45.58
786.284	45.56
786.676	45.53
787.068	45.52
787.46	45.5
787.852	45.5
788.245	45.5
788.636	45.5
789.028	45.51
789.42	45.48
789.812	45.47
790.204	45.5
790.595	45.53
790.987	45.54
791.378	45.58
791.77	45.58
792.161	45.61
792.553	45.62
792.944	45.61
793.335	45.63
793.726	45.64
794.117	45.63
794.508	45.61
794.899	45.6
795.29	45.6
795.681	45.62
796.072	45.61
796.463	45.61
796.853	45.61
797.244	45.6
797.634	45.6
798.025	45.65
798.415	45.67
798.806	45.65
799.196	45.66
799.586	45.67
799.976	45.68
800.366	45.7
800.756	45.74
801.146	45.76
801.536	45.79
801.926	45.79
802.316	45.78
802.706	45.81
803.095	45.87
803.485	45.88
803.874	45.89
804.264	45.89
804.653	45.93
805.043	45.91
805.432	45.93
805.821	45.95
806.21	45.97
806.599	45.98
806.988	46
807.377	45.99
807.766	45.99
808.155	45.99
808.544	45.99
808.933	45.98
809.321	46
809.71	46.01
810.098	46
810.487	46
810.875	45.99
811.264	45.98
811.652	46
812.04	46.03
812.428	46.11
812.816	46.11
813.204	46.08
813.592	46.07
813.98	46.1
814.368	46.12
814.756	46.13
815.144	46.13
815.531	46.16
815.919	46.17
816.306	46.16
816.694	46.13
817.081	46.12
817.469	46.16
817.856	46.17
818.243	46.14
818.63	46.15
819.017	46.14
819.404	46.15
819.791	46.14
820.178	46.13
820.565	46.12
820.952	46.12
821.339	46.12
821.725	46.12
822.112	46.14
822.498	46.16
822.885	46.16
823.271	46.16
823.657	46.12
824.044	46.14
824.43	46.13
824.816	46.12
825.202	46.09
825.588	46.09
825.974	46.08
826.36	46.05
826.746	46.01
827.132	46.01
827.517	46.01
827.903	46.03
828.289	46.01
828.674	46
829.06	45.99
829.445	45.99
829.83	46
830.216	45.96
830.601	45.96
830.986	45.93
831.371	45.91
831.756	45.91
832.141	45.89
832.526	45.88
832.911	45.86
833.295	45.85
833.68	45.83
834.065	45.8
834.449	45.8
834.834	45.8
835.218	45.81
835.603	45.78
835.987	45.75
836.371	45.73
836.755	45.68
837.139	45.68
837.524	45.66
837.908	45.66
838.291	45.69
838.675	45.7
839.059	45.65
839.443	45.63
839.827	45.61
840.21	45.61
840.594	45.62
840.977	45.63
841.361	45.63
841.744	45.6
842.127	45.57
842.511	45.51
842.894	45.47
843.277	45.47
843.66	45.45
844.043	45.48
844.426	45.47
844.809	45.46
845.191	45.48
845.574	45.46
845.957	45.47
846.339	45.48
846.722	45.5
847.104	45.52
847.487	45.53
847.869	45.54
848.252	45.51
848.634	45.52
849.016	45.51
849.398	45.49
849.78	45.5
850.162	45.48
850.544	45.49
850.926	45.49
851.307	45.48
851.689	45.49
852.071	45.5
852.452	45.53
852.834	45.53
853.215	45.53
853.597	45.56
853.978	45.57
854.359	45.59
854.741	45.56
855.122	45.55
855.503	45.54
855.884	45.52
856.265	45.53
856.646	45.52
857.026	45.53
857.407	45.54
857.788	45.52
858.169	45.52
858.549	45.53
858.93	45.55
859.31	45.57
859.69	45.59
860.071	45.62
860.451	45.61
860.831	45.6
861.211	45.57
861.591	45.57
861.971	45.57
862.351	45.58
862.731	45.59
863.111	45.58
863.491	45.57
863.87	45.56
864.25	45.54
864.629	45.55
865.009	45.58
865.388	45.59
865.768	45.6
866.147	45.6
866.526	45.57
866.905	45.57
867.284	45.58
867.663	45.58
868.042	45.6
868.421	45.6
868.8	45.62
869.179	45.59
869.558	45.58
869.936	45.56
870.315	45.55
870.693	45.57
871.072	45.56
871.45	45.56
871.828	45.56
872.207	45.56
872.585	45.53
872.963	45.51
873.341	45.5
873.719	45.5
874.097	45.51
874.475	45.52
874.853	45.5
875.23	45.52
875.608	45.53
875.986	45.54
876.363	45.55
876.741	45.57
877.118	45.6
877.495	45.62
877.873	45.63
878.25	45.66
878.627	45.67
879.004	45.67
879.381	45.67
879.758	45.65
880.135	45.64
880.512	45.62
880.889	45.6
881.265	45.57
881.642	45.57
882.019	45.56
882.395	45.56
882.772	45.54
883.148	45.53
883.524	45.53
883.901	45.52
884.277	45.49
884.653	45.47
885.029	45.46
885.405	45.46
885.781	45.45
886.157	45.43
886.532	45.4
886.908	45.4
887.284	45.39
887.659	45.34
888.035	45.33
888.411	45.33
888.786	45.33
889.161	45.35
889.537	45.34
889.912	45.32
890.287	45.33
890.662	45.29
891.037	45.28
891.412	45.25
891.787	45.26
892.162	45.24
892.536	45.23
892.911	45.2
893.286	45.17
893.66	45.15
894.035	45.14
894.409	45.11
894.784	45.13
895.158	45.11
895.532	45.13
895.906	45.11
896.281	45.11
896.655	45.1
897.029	45.12
897.402	45.12
897.776	45.13
898.15	45.14
898.524	45.15
898.898	45.12
899.271	45.14
899.645	45.15
900.018	45.16
900.392	45.18
900.765	45.19
901.138	45.2
901.511	45.21
901.884	45.22
902.258	45.24
902.631	45.25
903.003	45.3
903.376	45.27
903.749	45.27
904.122	45.31
904.495	45.33
904.867	45.37
905.24	45.38
905.612	45.4
905.985	45.37
906.357	45.35
906.729	45.35
907.102	45.32
907.474	45.38
907.846	45.38
908.218	45.37
908.59	45.38
908.962	45.37
909.334	45.36
909.705	45.33
910.077	45.37
910.449	45.4
910.82	45.42
911.192	45.41
911.563	45.39
911.935	45.38
912.306	45.36
912.677	45.37
913.048	45.37
913.419	45.35
913.79	45.38
914.161	45.37
914.532	45.37
914.903	45.4
915.274	45.42
915.645	45.43
916.015	45.46
916.386	45.48
916.756	45.47
917.127	45.5
917.497	45.51
917.868	45.52
918.238	45.52
918.608	45.56
918.978	45.56
919.348	45.6
919.718	45.58
920.088	45.56
920.458	45.57
920.828	45.56
921.198	45.5
921.567	45.53
921.937	45.53
922.306	45.52
922.676	45.5
923.045	45.46
923.415	45.42
923.784	45.42
924.153	45.45
924.522	45.42
924.891	45.46
925.26	45.48
925.629	45.49
925.998	45.5
926.367	45.5
926.736	45.49
927.104	45.51
927.473	45.48
927.842	45.47
928.21	45.49
928.578	45.49
928.947	45.46
929.315	45.45
929.683	45.41
930.051	45.37
930.42	45.37
930.788	45.32
931.156	45.28
931.523	45.26
931.891	45.3
932.259	45.28
932.627	45.25
932.994	45.24
933.362	45.22
933.729	45.22
934.097	45.21
934.464	45.18
934.831	45.2
935.199	45.21
935.566	45.24
935.933	45.21
936.3	45.14
936.667	45.18
937.034	45.23
937.401	45.28
937.767	45.27
938.134	45.34
938.501	45.41
938.867	45.5
939.234	45.54
939.6	45.62
939.967	45.66
940.333	45.73
940.699	45.8
941.065	45.77
941.431	45.78
941.798	45.83
942.163	45.8
942.529	45.83
942.895	45.86
943.261	45.86
943.627	45.86
943.992	45.89
944.358	45.9
944.723	45.88
945.089	45.89
945.454	45.91
945.82	45.91
946.185	45.98
946.55	45.92
946.915	45.85
947.28	45.85
947.645	45.8
948.01	45.75
948.375	45.79
948.74	45.75
949.104	45.75
949.469	45.73
949.834	45.72
950.198	45.67
950.562	45.68
950.927	45.64
951.291	45.59
951.655	45.55
952.02	45.54
952.384	45.47
952.748	45.42
953.112	45.39
953.476	45.34
953.839	45.3
954.203	45.26
954.567	45.2
954.931	45.18
955.294	45.15
955.658	45.21
956.021	45.15
956.385	45.14
956.748	45.12
957.111	45.04
957.474	45.05
957.837	44.96
958.2	44.91
958.563	44.9
958.926	44.88
959.289	44.91
959.652	44.8
960.015	44.8
960.377	44.74
960.74	44.76
961.102	44.79
961.465	44.76
961.827	44.8
962.189	44.81
962.552	44.82
962.914	44.83
963.276	44.83
963.638	44.85
964	44.85
964.362	44.9
964.724	44.87
965.085	44.8
965.447	44.8
965.809	44.8
966.17	44.79
966.532	44.78
966.893	44.76
967.255	44.73
967.616	44.73
967.977	44.73
968.338	44.69
968.699	44.68
969.061	44.7
969.421	44.7
969.782	44.69
970.143	44.7
970.504	44.65
970.865	44.7
971.225	44.65
971.586	44.63
971.946	44.6
972.307	44.65
972.667	44.64
973.027	44.7
973.388	44.73
973.748	44.77
974.108	44.85
974.468	44.85
974.828	44.82
975.188	44.82
975.548	44.83
975.907	44.86
976.267	44.87
976.627	44.89
976.986	44.84
977.346	44.76
977.705	44.75
978.064	44.73
978.424	44.76
978.783	44.74
979.142	44.77
979.501	44.77
979.86	44.78
980.219	44.79
980.578	44.87
980.937	44.93
981.296	44.93
981.654	44.96
982.013	44.94
982.371	44.9
982.73	44.96
983.088	44.97
983.447	44.93
983.805	44.92
984.163	44.92
984.521	44.88
984.879	44.83
985.237	44.92
985.595	44.95
985.953	45
986.311	45.05
986.669	45.02
987.026	45.04
987.384	45.17
987.741	45.2
988.099	45.2
988.456	45.18
988.814	45.26
989.171	45.25
989.528	45.28
989.885	45.2
990.242	45.27
990.599	45.37
990.956	45.4
991.313	45.38
991.67	45.37
992.027	45.55
992.383	45.61
992.74	45.72
993.096	45.73
993.453	45.69
993.809	45.76
994.165	45.79
994.522	45.85
994.878	45.96
995.234	46.02
995.59	46.04
995.946	45.94
996.302	45.93
996.658	45.93
997.013	46.07
997.369	46.13
997.725	46.16
998.08	46.23
998.436	46.15
998.791	46.12
999.147	46.06
999.502	46.1
999.857	46.15
1000.212	46.22
1000.567	46.19
1000.922	46.15
1001.277	46.15
1001.632	46.15
1001.987	46.2
1002.342	46.17
1002.696	46.21
1003.051	46.34
1003.406	46.52
1003.76	46.58
1004.114	46.47
1004.469	46.62
1004.823	46.95
1005.177	47.1
1005.531	47.13
1005.885	47.09
1006.239	47.35
1006.593	47.55
1006.947	47.59
1007.301	47.48
1007.655	47.48
1008.008	47.69
1008.362	47.65
1008.715	47.39
1009.069	47.45
1009.422	47.5
1009.776	47.59
1010.129	47.6
1010.482	47.5
1010.835	47.66
1011.188	47.79
1011.541	47.9
1011.894	48.02
1012.247	48.13
1012.6	48.25
1012.952	48.19
1013.305	48.42
1013.657	48.52
1014.01	48.52
1014.362	48.67
1014.715	48.6
1015.067	48.59
1015.419	48.77
1015.771	48.74
1016.123	48.75
1016.475	48.82
1016.827	48.99
1017.179	48.92
1017.531	48.97
1017.883	49.13
1018.234	49.12
1018.586	49.47
1018.938	49.73
1019.289	49.75
1019.64	49.81
1019.992	49.93
1020.343	49.92
1020.694	49.98
1021.045	50.19
1021.396	50.26
1021.747	50.35
1022.098	50.45
1022.449	50.35
1022.8	50.47
1023.151	50.51
1023.501	50.67
1023.852	50.93
1024.202	51.1
1024.553	51.16
1024.903	51.09
1025.253	51.22
1025.604	51.31
1025.954	51.28
1026.304	51.46
1026.654	51.43
1027.004	51.53
1027.354	51.54
1027.703	51.28
1028.053	51.38
1028.403	51.57
1028.753	51.62
1029.102	51.98
1029.452	52.22
1029.801	52.7
1030.15	52.62
1030.499	52.67
897.758	954.22
901.051	956.37
904.343	957.79
907.636	974.5
910.928	947.25
914.22	945.64
917.511	932.17
920.803	889.06
924.094	888.34
927.384	866.13
930.675	833.1
933.965	829.14
937.255	778.99
940.544	746.74
943.834	715.68
947.123	710.37
950.411	668.53
953.7	657.96
956.988	621.99
960.276	595.92
963.563	588.14
966.851	565.88
970.138	562.19
973.424	547.58
976.711	548.75
979.997	519.69
983.283	516.34
986.568	506.84
989.853	492.59
993.138	483.43
996.423	466.84
999.708	452.57
1002.992	447.56
1006.275	429.13
1009.559	426.05
1012.842	411.68
1016.125	400.34
1019.408	392.42
1022.69	389.8
1025.972	380.18
1029.254	371.57
1032.536	363.67
1035.817	359.25
1039.098	354.94
1042.379	347.48
1045.659	343.83
1048.939	335.14
1052.219	329.77
1055.498	326.41
1058.778	317.32
1062.057	312.44
1065.335	309.6
1068.614	306.48
1071.892	302.19
1075.17	293.33
1078.447	288
1081.724	285.25
1085.001	283.47
1088.278	278.18
1091.554	273.27
1094.83	273.96
1098.106	271.49
1101.382	268.25
1104.657	266.52
1107.932	262.98
1111.206	264.37
1114.481	258.74
1117.755	256.68
1121.029	254.4
1124.302	253.72
1127.575	249.09
1130.848	245.71
1134.121	242.88
1137.393	242.82
1140.665	237.99
1143.937	235.3
1147.208	234.43
1150.48	233.21
1153.75	230.22
1157.021	228.33
1160.291	228
1163.561	225.04
1166.831	225.09
1170.101	223.57
1173.37	223.5
1176.639	224.12
1179.907	222.41
1183.176	219.22
1186.444	218.96
1189.711	218.86
1192.979	218.12
1196.246	217.18
1199.513	217.79
1202.78	216.35
1206.046	216.09
1209.312	213.43
1212.578	213.84
1215.843	214.79
1219.108	214.71
1222.373	218.25
1225.638	219.15
1228.902	221.13
1232.166	221.59
1235.43	223.16
1238.693	226.52
1241.956	228.34
1245.219	230.7
1248.482	231.06
1251.744	231.64
1255.006	231.95
1258.268	227.28
1261.529	226.05
1264.79	225.35
1268.051	222.87
1271.312	220.6
1274.572	217.55
1277.832	216.05
1281.092	213.66
1284.351	211.42
1287.61	211.43
1290.869	208.23
1294.128	206.85
1297.386	206.23
1300.644	204.02
1303.902	205.15
1307.159	205.33
1310.416	204.75
1313.673	203.23
1316.93	205.11
1320.186	204.85
1323.442	204.78
1326.697	207.68
1329.953	209.39
1333.208	209.75
1336.463	212.16
1339.717	212.42
1342.972	214.54
1346.226	216.44
1349.479	217.48
1352.733	218.01
1355.986	220.16
1359.238	219.93
1362.491	220.12
1365.743	221.72
1368.995	222.08
1372.247	220.73
1375.498	220.37
1378.749	219.48
1382	217.93
1385.251	218.23
1388.501	216.2
1391.751	214.97
1395	214.2
1398.25	212.49
1401.499	210.34
1404.748	209.86
1407.996	207.35
1411.244	206.67
1414.492	205.74
1417.74	202.68
1420.987	199.64
1424.234	199.12
1427.481	197.49
1430.728	197.24
1433.974	195.75
1437.22	193.32
1440.465	192.62
1443.711	190.96
1446.956	189.42
1450.201	187.19
1453.445	185.51
1456.689	184.52
1459.933	181.62
1463.177	179.54
1466.42	177.68
1469.663	175.41
1472.906	174.45
1476.148	169.53
1479.391	168.6
1482.633	167.34
1485.874	165.65
1489.115	164.47
1492.356	162.59
1495.597	162.59
1498.838	160.46
1502.078	159.04
1505.318	158.6
1508.557	158.63
1511.797	159.12
1515.036	156.71
1518.274	156.77
1521.513	155.78
1524.751	155.68
1527.989	155.64
1531.227	154.8
1534.464	155.12
1537.701	155.38
1540.938	154.81
1544.174	152.81
1547.41	153.16
1550.646	153.18
1553.882	152.63
1557.117	151.01
1560.352	150.5
1563.587	150.23
1566.821	149.35
1570.055	148.85
1573.289	146.38
1576.523	146.94
1579.756	146.34
1582.989	145.39
1586.222	145.28
1589.454	144.18
1592.686	145.33
1595.918	144.99
1599.15	144.48
1602.381	145.15
1605.612	144.5
1608.843	145.15
1612.073	145.2
1615.303	145.79
1618.533	145.97
1621.762	146.04
1624.992	147.38
1628.221	146.72
1631.449	145.75
1634.678	146.59
1637.906	146.8
1641.134	146.74
1644.361	146.79
1647.588	146.8
1650.815	146.34
1654.042	146.22
1657.269	147.17
1660.495	146.73
1663.72	146.89
1666.946	147.67
1670.171	147.41
1673.396	147.63
1676.621	147.46
1679.845	148.11
1683.069	148.73
1686.293	149.3
1689.517	149.76
1692.74	149.26
1695.963	149.81
1699.185	150.76
1702.408	150.76
1705.63	150.95
1708.852	151.15
1712.073	151.66
1715.294	151.73
1718.515	152.2
1721.736	151.97
1724.956	152.89
1728.176	152.84
1731.396	153.48
1734.616	152.89
1737.835	153.8
1741.054	153.02
1744.272	153.19
1747.491	154.59
1750.709	155.26
1753.927	154.74
1757.144	154.78
1760.361	154.56
1763.578	154.91
1766.795	154.51
1770.011	155.79
1773.227	155.52
1776.443	157.55
1779.658	157.97
1782.874	157.2
1786.089	156.65
1789.303	157.22
1792.518	159.03
1795.732	158.53
1798.945	159.86
1802.159	160.28
1805.372	160.14
1808.585	162.94
1811.797	163.05
1815.01	163.49
1818.222	164.9
1821.434	167.9
1824.645	167.86
1827.856	169.65
1831.067	170.74
1834.278	171.21
1837.488	172.63
1840.698	173.65
1843.908	171.98
1847.117	171.82
1850.326	173.34
1853.535	171.93
1856.744	172.64
1859.952	172.67
1863.16	171.47
1866.368	170.68
1869.575	170.99
1872.782	168.14
1875.989	167.77
1879.196	167.42
1882.402	166.51
1885.608	165.56
1888.814	166.14
1892.019	164.88
1895.224	164.12
1898.429	163.36
1901.634	163.83
1904.838	163.05
1908.042	164.44
1911.246	164.17
1914.449	164.18
1917.652	164.78
1920.855	164.72
1924.058	165.07
1927.26	163.96
1930.462	164.75
1933.664	165.82
1936.865	164.21
1940.066	164.71
1943.267	163.55
1946.467	164.28
1949.668	164.74
1952.868	166.47
1956.067	167.27
1959.267	167.44
1962.466	168.29
1965.665	166.81
1968.863	168.26
1972.061	171.68
1975.259	172.68
1978.457	174.23
1981.654	175.41
1984.852	176.07
1988.048	175.42
1991.245	177.08
1994.441	178.14
1997.637	180.37
2000.833	184.59
2004.028	185.7
2007.223	185.63
2010.418	187.77
2013.613	191.76
2016.807	193.31
2020.001	194.8
2023.194	199.21
2026.388	203.22
2029.581	208.26
2032.774	208.82
2035.966	212.58
2039.158	213.84
2042.35	218.62
2045.542	219.25
2048.733	222.43
2051.924	226.19
2055.115	230.51
2058.306	229.97
2061.496	231.59
2064.686	232.03
2067.875	237.1
2071.065	238.14
2074.254	236.22
2077.442	240.24
2080.631	242.16
2083.819	243.6
2087.007	243.49
2090.195	246.87
2093.382	249.31
2096.569	248.52
2099.756	252.02
2102.942	252.48
2106.128	253.69
2109.314	261.48
2112.5	259.47
2115.685	266.55
2118.87	267.46
2122.055	272.23
2125.239	273.03
2128.424	276.15
2131.608	277.8
2134.791	282.65
2137.974	283.4
2141.157	284.94
2144.34	284.65
2147.523	291.77
2150.705	288.27
2153.887	290.9
2157.068	291.67
2160.25	289.26
2163.431	291.04
2166.611	294.38
2169.792	298.89
2172.972	301.86
2176.152	305.21
2179.331	309.03
2182.511	310.37
2185.69	313.74
2188.868	320.2
2192.047	320.71
2195.225	331.04
2198.403	339.21
2201.58	346.15
2204.758	353.51
2207.935	359.88
2211.111	366.99
2214.288	370.71
2217.464	372.11
2220.64	379.5
2223.815	383.16
2226.991	399.36
2230.166	399.99
2233.34	403.92
2236.515	411.83
2239.689	411.77
2242.863	414.21
2246.036	422.51
2249.209	420.21
2252.382	430.24
2255.555	441.58
2258.727	443.99
2261.9	446.71
2265.071	450.17
2268.243	459.24
2271.414	463.38
2274.585	471.89
2277.756	477.21
2280.926	482.16
2284.096	495.81
2287.266	503.19
2290.436	506.45
2293.605	517.84
2296.774	533.2
2299.942	549.48
2303.111	553.48
2306.279	562.88
2309.447	572.56
2312.614	588.88
2315.781	603.54
2318.948	628.05
2322.115	618.76
2325.281	655.04
2328.447	643.17
2331.613	667.64
2334.779	660.58
2337.944	691.67
2341.109	700.99
2344.274	718.91
2347.438	743.64
2350.602	745.65
2353.766	767.52
2356.929	780.73
2360.092	775.34
2363.255	828.9
2366.418	826.98
2369.58	841.32
2372.742	893.46
2375.904	915.22
2379.066	908.93
2382.227	887.77
2385.388	964.27
2388.548	966.27
2391.709	976.98
2394.869	1086.7
2398.029	1044.77
2401.188	1074.02
2404.347	1068.17
2407.506	1042.61
2410.665	1075.93
2413.823	1137.74
2416.981	1206.84
2420.139	1168.6
2423.296	1155.04
2426.453	1209.32
2429.61	1164.14
2432.767	1214.96
2435.923	1203.42
2439.079	1319.65
2442.235	1344.1
2445.391	1326.86
2448.546	1315.89
2451.701	1278.97
2454.855	1273.49
2458.009	1357.93
2461.163	1407.7
2464.317	1455.42
2467.471	1492.28
2470.624	1496.54
2473.777	1455.78
2476.929	1409.41
2480.082	1368.78
2483.234	1358.91
2486.385	1437.56
2489.537	1445.39
2492.688	1490.15
2495.839	1454.86
2498.989	1421.99
2502.14	1424.13
2505.29	1433.08
2508.439	1455.45
2511.589	1455.99
2514.738	1588.82
2517.887	1554
2521.035	1628.33
2524.183	1646.89
2527.331	1657.77
2530.479	1642.07
2533.627	1653.8
