Data from C_3_DIV_PA_2N_Splice17_14-12-55-867.txt Node
Date: Sat Mar 07 14:12:55 EST 2020
User: sa697716
Spectrometer: NQ5500242
Trigger mode: 0
Integration Time (sec): 1.450000E-1
Scans to average: 20
Nonlinearity correction enabled: false
Boxcar width: 5
Storing dark spectrum: false
XAxis mode: Wavelengths
Number of Pixels in Spectrum: 512
>>>>>Begin Spectral Data<<<<<
187.83	57.85
188.298	57.85
188.766	35.85
189.233	43.75
189.701	43.2
190.169	51.41
190.636	39.95
191.104	-10.6
191.571	-28.99
192.039	71.99
192.506	10.93
192.974	156.82
193.441	145.19
193.908	11.46
194.375	61.69
194.842	60
195.31	95.9
195.777	-40.24
196.244	55.76
196.711	69.72
197.177	73.42
197.644	72.53
198.111	72.15
198.578	72.25
199.045	72.62
199.511	72.33
199.978	72.23
200.445	72.55
200.911	72.49
201.378	72.7
201.844	72.43
202.31	71.89
202.777	71.88
203.243	72.09
203.709	71.71
204.176	71.53
204.642	71.29
205.108	71.24
205.574	70.48
206.04	70.3
206.506	69.61
206.972	69.29
207.438	68.78
207.903	67.87
208.369	66.59
208.835	65.39
209.301	63.98
209.766	62.42
210.232	60.73
210.697	59.46
211.163	58.25
211.628	56.97
212.094	55.92
212.559	54.68
213.024	53.76
213.49	52.84
213.955	52.11
214.42	51.33
214.885	50.37
215.35	49.19
215.815	47.38
216.28	44.94
216.745	42.39
217.21	39.66
217.675	37.05
218.14	34.7
218.604	32.58
219.069	30.76
219.534	29.15
219.998	27.88
220.463	26.77
220.927	25.8
221.392	25.04
221.856	24.36
222.32	23.73
222.785	23.24
223.249	22.76
223.713	22.31
224.177	21.93
224.642	21.59
225.106	21.2
225.57	20.85
226.034	20.51
226.497	20.18
226.961	19.85
227.425	19.55
227.889	19.26
228.353	18.96
228.816	18.68
229.28	18.4
229.744	18.12
230.207	17.87
230.671	17.61
231.134	17.38
231.597	17.14
232.061	16.92
232.524	16.7
232.987	16.47
233.45	16.27
233.914	16.07
234.377	15.88
234.84	15.69
235.303	15.51
235.766	15.34
236.229	15.18
236.691	15.02
237.154	14.87
237.617	14.74
238.08	14.6
238.542	14.46
239.005	14.34
239.468	14.2
239.93	14.07
240.393	13.95
240.855	13.8
241.317	13.66
241.78	13.52
242.242	13.37
242.704	13.23
243.166	13.09
243.629	12.96
244.091	12.82
244.553	12.69
245.015	12.55
245.477	12.41
245.939	12.29
246.4	12.17
246.862	12.05
247.324	11.94
247.786	11.81
248.247	11.67
248.709	11.54
249.17	11.41
249.632	11.29
250.093	11.17
250.555	11.03
251.016	10.91
251.477	10.78
251.939	10.66
252.4	10.55
252.861	10.44
253.322	10.35
253.783	10.25
254.244	10.16
254.705	10.06
255.166	9.98
255.627	9.91
256.088	9.84
256.549	9.77
257.009	9.7
257.47	9.62
257.931	9.52
258.391	9.42
258.852	9.34
259.312	9.26
259.773	9.18
260.233	9.09
260.694	9.01
261.154	8.91
261.614	8.82
262.074	8.74
262.534	8.67
262.994	8.61
263.455	8.55
263.915	8.49
264.374	8.43
264.834	8.37
265.294	8.31
265.754	8.26
266.214	8.21
266.673	8.17
267.133	8.13
267.593	8.08
268.052	8.04
268.512	8
268.971	7.97
269.431	7.93
269.89	7.9
270.349	7.88
270.809	7.85
271.268	7.82
271.727	7.79
272.186	7.76
272.645	7.75
273.104	7.72
273.563	7.69
274.022	7.67
274.481	7.65
274.94	7.62
275.399	7.59
275.857	7.58
276.316	7.55
276.775	7.53
277.233	7.51
277.692	7.47
278.15	7.45
278.609	7.43
279.067	7.41
279.525	7.39
279.984	7.37
280.442	7.35
280.9	7.34
281.358	7.32
281.816	7.31
282.274	7.29
282.732	7.29
283.19	7.28
283.648	7.27
284.106	7.26
284.564	7.26
285.021	7.26
285.479	7.26
285.937	7.27
286.394	7.27
286.852	7.26
287.309	7.25
287.767	7.23
288.224	7.2
288.682	7.17
289.139	7.13
289.596	7.09
290.053	7.03
290.511	6.99
290.968	6.94
291.425	6.88
291.882	6.84
292.339	6.8
292.796	6.77
293.252	6.74
293.709	6.71
294.166	6.69
294.623	6.67
295.079	6.66
295.536	6.65
295.992	6.63
296.449	6.63
296.905	6.61
297.362	6.59
297.818	6.57
298.274	6.56
298.731	6.54
299.187	6.52
299.643	6.5
300.099	6.48
300.555	6.46
301.011	6.44
301.467	6.42
301.923	6.4
302.379	6.39
302.835	6.39
303.291	6.37
303.746	6.37
304.202	6.36
304.658	6.35
305.113	6.35
305.569	6.34
306.024	6.33
306.479	6.33
306.935	6.32
307.39	6.32
307.845	6.31
308.301	6.31
308.756	6.3
309.211	6.3
309.666	6.31
310.121	6.31
310.576	6.31
311.031	6.32
311.486	6.32
311.94	6.33
312.395	6.32
312.85	6.32
313.305	6.33
313.759	6.33
314.214	6.32
314.668	6.31
315.123	6.3
315.577	6.29
316.032	6.29
316.486	6.27
316.94	6.26
317.394	6.25
317.849	6.23
318.303	6.2
318.757	6.18
319.211	6.16
319.665	6.13
320.119	6.11
320.572	6.08
321.026	6.06
321.48	6.04
321.934	6.02
322.387	5.99
322.841	5.99
323.295	5.98
323.748	5.97
324.202	5.96
324.655	5.96
325.108	5.96
325.562	5.96
326.015	5.95
326.468	5.94
326.921	5.94
327.374	5.94
327.827	5.93
328.28	5.92
328.733	5.92
329.186	5.91
329.639	5.91
330.092	5.9
330.545	5.9
330.997	5.89
331.45	5.9
331.903	5.91
332.355	5.92
332.808	5.92
333.26	5.93
333.713	5.92
334.165	5.93
334.617	5.95
335.069	5.94
335.522	5.96
335.974	5.97
336.426	5.97
336.878	5.96
337.33	5.97
337.782	5.97
338.234	5.98
338.686	5.98
339.137	5.98
339.589	5.96
340.041	5.96
340.493	5.95
340.944	5.93
341.396	5.91
341.847	5.89
342.299	5.87
342.75	5.84
343.201	5.81
343.653	5.78
344.104	5.75
344.555	5.73
345.006	5.71
345.457	5.69
345.908	5.67
346.359	5.66
346.81	5.65
347.261	5.64
347.712	5.63
348.163	5.62
348.613	5.63
349.064	5.63
349.515	5.63
349.965	5.63
350.416	5.62
350.866	5.61
351.317	5.6
351.767	5.61
352.217	5.61
352.668	5.62
353.118	5.63
353.568	5.62
354.018	5.63
354.468	5.63
354.918	5.64
355.368	5.66
355.818	5.68
356.268	5.68
356.718	5.68
357.168	5.68
357.617	5.68
358.067	5.69
358.517	5.72
358.966	5.72
359.416	5.73
359.865	5.73
360.315	5.73
360.764	5.73
361.213	5.74
361.663	5.74
362.112	5.75
362.561	5.76
363.01	5.76
363.459	5.74
363.908	5.74
364.357	5.75
364.806	5.75
365.255	5.75
365.703	5.76
366.152	5.77
366.601	5.78
367.05	5.78
367.498	5.79
367.947	5.8
368.395	5.82
368.844	5.83
369.292	5.84
369.74	5.84
370.189	5.85
370.637	5.86
371.085	5.86
371.533	5.86
371.981	5.87
372.429	5.87
372.877	5.88
373.325	5.88
373.773	5.88
374.221	5.89
374.669	5.89
375.116	5.89
375.564	5.9
376.012	5.91
376.459	5.91
376.907	5.93
377.354	5.94
377.801	5.95
378.249	5.96
378.696	5.97
379.143	5.99
379.591	6
380.038	6
380.485	6.02
380.932	6.02
381.379	6.04
381.826	6.05
382.273	6.06
382.72	6.07
383.166	6.07
383.613	6.08
384.06	6.07
384.506	6.09
384.953	6.11
385.4	6.12
385.846	6.15
386.292	6.17
386.739	6.18
387.185	6.2
387.631	6.23
388.078	6.25
388.524	6.27
388.97	6.29
389.416	6.32
389.862	6.34
390.308	6.37
390.754	6.41
391.2	6.44
391.645	6.47
392.091	6.5
392.537	6.55
392.983	6.59
393.428	6.63
393.874	6.68
394.319	6.71
394.765	6.74
395.21	6.76
395.655	6.8
396.101	6.84
396.546	6.87
396.991	6.92
397.436	6.95
397.881	7
398.326	7.05
398.771	7.09
399.216	7.14
399.661	7.19
400.106	7.24
400.551	7.27
400.995	7.3
401.44	7.32
401.885	7.35
402.329	7.39
402.774	7.42
403.218	7.47
403.663	7.51
404.107	7.55
404.551	7.6
404.995	7.65
405.44	7.69
405.884	7.74
406.328	7.79
406.772	7.83
407.216	7.89
407.66	7.92
408.104	7.95
408.547	7.99
408.991	8.03
409.435	8.07
409.879	8.11
410.322	8.16
410.766	8.21
411.209	8.27
411.653	8.34
412.096	8.37
412.54	8.43
412.983	8.49
413.426	8.56
413.869	8.61
414.312	8.67
414.756	8.75
415.199	8.8
415.642	8.85
416.085	8.91
416.527	8.93
416.97	8.96
417.413	8.98
417.856	8.98
418.298	8.99
418.741	9.01
419.184	9.03
419.626	9.04
420.069	9.07
420.511	9.08
420.953	9.08
421.396	9.12
421.838	9.15
422.28	9.2
422.722	9.26
423.164	9.3
423.606	9.33
424.048	9.35
424.49	9.38
424.932	9.41
425.374	9.42
425.816	9.41
426.258	9.4
426.699	9.39
427.141	9.39
427.582	9.4
428.024	9.43
428.465	9.45
428.907	9.47
429.348	9.49
429.789	9.5
430.231	9.54
430.672	9.61
431.113	9.68
431.554	9.74
431.995	9.8
432.436	9.82
432.877	9.85
433.318	9.89
433.759	9.94
434.2	9.99
434.64	10.03
435.081	10.06
435.522	10.1
435.962	10.13
436.403	10.18
436.843	10.2
437.284	10.23
437.724	10.24
438.164	10.25
438.604	10.27
439.045	10.28
439.485	10.29
439.925	10.3
440.365	10.32
440.805	10.33
441.245	10.34
441.685	10.37
442.125	10.4
442.564	10.43
443.004	10.45
443.444	10.48
443.883	10.52
444.323	10.54
444.762	10.58
445.202	10.58
445.641	10.62
446.081	10.66
446.52	10.67
446.959	10.71
447.398	10.75
447.837	10.78
448.276	10.8
448.716	10.81
449.154	10.86
449.593	10.88
450.032	10.89
450.471	10.89
450.91	10.89
451.349	10.91
451.787	10.9
452.226	10.88
452.664	10.88
453.103	10.85
453.541	10.83
453.98	10.81
454.418	10.78
454.856	10.77
455.295	10.75
455.733	10.7
456.171	10.67
456.609	10.65
457.047	10.63
457.485	10.6
457.923	10.59
458.361	10.56
458.798	10.55
459.236	10.53
459.674	10.51
460.111	10.5
460.549	10.5
460.987	10.49
461.424	10.49
461.862	10.48
462.299	10.49
462.736	10.48
463.173	10.48
463.611	10.47
464.048	10.48
464.485	10.47
464.922	10.48
465.359	10.49
465.796	10.49
466.233	10.5
466.67	10.5
467.106	10.5
467.543	10.48
467.98	10.48
468.416	10.47
468.853	10.47
469.29	10.47
469.726	10.46
470.162	10.45
470.599	10.45
471.035	10.43
471.471	10.43
471.907	10.41
472.344	10.43
472.78	10.43
473.216	10.41
473.652	10.4
474.088	10.39
474.523	10.38
474.959	10.38
475.395	10.36
475.831	10.36
476.266	10.37
476.702	10.36
477.138	10.35
477.573	10.35
478.008	10.35
478.444	10.34
478.879	10.35
479.314	10.34
479.75	10.33
480.185	10.33
480.62	10.32
481.055	10.3
481.49	10.3
481.925	10.29
482.36	10.27
482.795	10.26
483.229	10.26
483.664	10.26
484.099	10.25
484.534	10.25
484.968	10.24
485.403	10.24
485.837	10.25
486.271	10.26
486.706	10.28
487.14	10.28
487.574	10.3
488.009	10.3
488.443	10.3
488.877	10.32
489.311	10.34
489.745	10.36
490.179	10.38
490.613	10.4
491.046	10.42
491.48	10.45
491.914	10.48
492.348	10.52
492.781	10.57
493.215	10.61
493.648	10.66
494.082	10.7
494.515	10.74
494.948	10.78
495.382	10.83
495.815	10.88
496.248	10.93
496.681	10.99
497.114	11.04
497.547	11.09
497.98	11.14
498.413	11.2
498.846	11.28
499.279	11.34
499.711	11.42
500.144	11.5
500.577	11.58
501.009	11.66
501.442	11.74
501.874	11.83
502.306	11.94
502.739	12.04
503.171	12.15
503.603	12.26
504.036	12.39
504.468	12.51
504.9	12.62
505.332	12.75
505.764	12.9
506.196	13.04
506.627	13.2
507.059	13.35
507.491	13.49
507.923	13.66
508.354	13.83
508.786	13.99
509.217	14.16
509.649	14.35
510.08	14.54
510.512	14.72
510.943	14.9
511.374	15.09
511.805	15.31
512.237	15.52
512.668	15.73
513.099	15.94
513.53	16.15
513.961	16.37
514.391	16.6
514.822	16.82
515.253	17.05
515.684	17.28
516.114	17.52
516.545	17.73
516.975	17.96
517.406	18.19
517.836	18.41
518.267	18.65
518.697	18.87
519.127	19.09
519.558	19.33
519.988	19.55
520.418	19.77
520.848	19.99
521.278	20.21
521.708	20.44
522.138	20.66
522.567	20.87
522.997	21.08
523.427	21.3
523.857	21.51
524.286	21.7
524.716	21.9
525.145	22.09
525.575	22.27
526.004	22.45
526.433	22.61
526.863	22.79
527.292	22.96
527.721	23.1
528.15	23.23
528.579	23.37
529.008	23.52
529.437	23.66
529.866	23.79
530.295	23.92
530.724	24.05
531.152	24.16
531.581	24.26
532.01	24.37
532.438	24.48
532.867	24.58
533.295	24.67
533.723	24.74
534.152	24.81
534.58	24.88
535.008	24.92
535.436	24.98
535.865	25.04
536.293	25.09
536.721	25.13
537.149	25.19
537.576	25.25
538.004	25.3
538.432	25.34
538.86	25.38
539.287	25.41
539.715	25.46
540.143	25.49
540.57	25.53
540.998	25.56
541.425	25.61
541.852	25.62
542.28	25.65
542.707	25.67
543.134	25.69
543.561	25.72
543.988	25.75
544.415	25.79
544.842	25.83
545.269	25.87
545.696	25.92
546.123	25.95
546.549	26
546.976	26.04
547.403	26.08
547.829	26.12
548.256	26.18
548.682	26.22
549.108	26.25
549.535	26.29
549.961	26.31
550.387	26.32
550.813	26.33
551.24	26.34
551.666	26.35
552.092	26.36
552.518	26.38
552.943	26.38
553.369	26.37
553.795	26.36
554.221	26.35
554.646	26.32
555.072	26.31
555.498	26.29
555.923	26.27
556.349	26.23
556.774	26.2
557.199	26.14
557.625	26.09
558.05	26.05
558.475	26.01
558.9	25.95
559.325	25.9
559.75	25.83
560.175	25.76
560.6	25.68
561.025	25.6
561.449	25.52
561.874	25.41
562.299	25.32
562.723	25.2
563.148	25.08
563.572	24.96
563.997	24.83
564.421	24.71
564.846	24.58
565.27	24.45
565.694	24.32
566.118	24.19
566.542	24.06
566.966	23.91
567.39	23.77
567.814	23.64
568.238	23.5
568.662	23.37
569.086	23.24
569.509	23.11
569.933	22.96
570.357	22.82
570.78	22.66
571.204	22.54
571.627	22.41
572.05	22.29
572.474	22.18
572.897	22.08
573.32	21.96
573.743	21.84
574.166	21.73
574.589	21.64
575.012	21.55
575.435	21.47
575.858	21.39
576.281	21.31
576.704	21.24
577.126	21.16
577.549	21.07
577.972	21
578.394	20.94
578.817	20.88
579.239	20.81
579.661	20.74
580.084	20.67
580.506	20.61
580.928	20.54
581.35	20.49
581.772	20.42
582.194	20.37
582.616	20.32
583.038	20.25
583.46	20.19
583.882	20.14
584.303	20.08
584.725	20.04
585.147	19.99
585.568	19.94
585.99	19.89
586.411	19.84
586.833	19.8
587.254	19.74
587.675	19.7
588.096	19.66
588.518	19.62
588.939	19.59
589.36	19.55
589.781	19.51
590.202	19.47
590.623	19.43
591.043	19.38
591.464	19.36
591.885	19.33
592.305	19.3
592.726	19.27
593.147	19.24
593.567	19.2
593.987	19.17
594.408	19.14
594.828	19.11
595.248	19.09
595.669	19.06
596.089	19.01
596.509	18.98
596.929	18.94
597.349	18.91
597.769	18.88
598.189	18.85
598.608	18.82
599.028	18.79
599.448	18.76
599.867	18.72
600.287	18.71
600.706	18.69
601.126	18.66
601.545	18.65
601.965	18.63
602.384	18.61
602.803	18.58
603.222	18.54
603.641	18.52
604.061	18.5
604.48	18.46
604.898	18.41
605.317	18.37
605.736	18.34
606.155	18.29
606.574	18.23
606.992	18.18
607.411	18.14
607.829	18.07
608.248	18.03
608.666	17.97
609.085	17.93
609.503	17.89
609.921	17.83
610.339	17.78
610.758	17.76
611.176	17.7
611.594	17.65
612.012	17.59
612.43	17.55
612.847	17.5
613.265	17.45
613.683	17.4
614.101	17.35
614.518	17.3
614.936	17.25
615.353	17.17
615.771	17.14
616.188	17.09
616.606	17.05
617.023	17.02
617.44	16.98
617.857	16.95
618.274	16.91
618.691	16.86
619.108	16.84
619.525	16.8
619.942	16.78
620.359	16.75
620.776	16.72
621.192	16.7
621.609	16.67
622.026	16.64
622.442	16.61
622.859	16.59
623.275	16.58
623.691	16.56
624.108	16.54
624.524	16.54
624.94	16.53
625.356	16.52
625.772	16.5
626.188	16.48
626.604	16.47
627.02	16.46
627.436	16.45
627.852	16.43
628.268	16.41
628.683	16.4
629.099	16.37
629.514	16.34
629.93	16.31
630.345	16.29
630.761	16.26
631.176	16.22
631.591	16.18
632.007	16.12
632.422	16.06
632.837	15.99
633.252	15.93
633.667	15.85
634.082	15.76
634.497	15.68
634.911	15.58
635.326	15.48
635.741	15.37
636.155	15.26
636.57	15.13
636.984	15.02
637.399	14.88
637.813	14.76
638.228	14.62
638.642	14.49
639.056	14.34
639.47	14.22
639.884	14.08
640.298	13.94
640.712	13.8
641.126	13.68
641.54	13.55
641.954	13.42
642.368	13.28
642.781	13.15
643.195	13.05
643.609	12.96
644.022	12.85
644.436	12.76
644.849	12.66
645.262	12.58
645.676	12.49
646.089	12.42
646.502	12.36
646.915	12.3
647.328	12.26
647.741	12.2
648.154	12.15
648.567	12.1
648.98	12.06
649.393	12.03
649.805	12.01
650.218	11.99
650.631	11.96
651.043	11.94
651.456	11.92
651.868	11.88
652.28	11.86
652.693	11.82
653.105	11.81
653.517	11.78
653.929	11.74
654.341	11.71
654.753	11.68
655.165	11.65
655.577	11.61
655.989	11.58
656.401	11.55
656.813	11.51
657.224	11.47
657.636	11.4
658.047	11.36
658.459	11.31
658.87	11.26
659.282	11.19
659.693	11.13
660.104	11.07
660.515	11.01
660.926	10.94
661.338	10.88
661.749	10.81
662.159	10.76
662.57	10.7
662.981	10.65
663.392	10.59
663.803	10.54
664.213	10.48
664.624	10.44
665.035	10.4
665.445	10.36
665.855	10.32
666.266	10.29
666.676	10.26
667.086	10.22
667.497	10.19
667.907	10.17
668.317	10.15
668.727	10.13
669.137	10.1
669.547	10.09
669.956	10.08
670.366	10.08
670.776	10.06
671.186	10.06
671.595	10.05
672.005	10.05
672.414	10.06
672.824	10.06
673.233	10.07
673.642	10.09
674.052	10.09
674.461	10.1
674.87	10.11
675.279	10.13
675.688	10.16
676.097	10.2
676.506	10.24
676.915	10.27
677.323	10.31
677.732	10.35
678.141	10.41
678.549	10.48
678.958	10.54
679.366	10.62
679.775	10.69
680.183	10.77
680.592	10.87
681	10.97
681.408	11.09
681.816	11.21
682.224	11.36
682.632	11.49
683.04	11.64
683.448	11.8
683.856	11.98
684.264	12.2
684.671	12.44
685.079	12.68
685.487	12.95
685.894	13.25
686.302	13.58
686.709	13.92
687.116	14.31
687.524	14.73
687.931	15.18
688.338	15.65
688.745	16.14
689.152	16.65
689.559	17.19
689.966	17.75
690.373	18.34
690.78	18.94
691.187	19.56
691.593	20.19
692	20.84
692.407	21.49
692.813	22.18
693.22	22.87
693.626	23.56
694.032	24.27
694.439	24.98
694.845	25.69
695.251	26.41
695.657	27.13
696.063	27.84
696.469	28.55
696.875	29.29
697.281	29.99
697.687	30.7
698.093	31.38
698.498	32.06
698.904	32.74
699.31	33.39
699.715	34.07
700.12	34.73
700.526	35.39
700.931	36.04
701.337	36.65
701.742	37.26
702.147	37.87
702.552	38.51
702.957	39.08
703.362	39.67
703.767	40.24
704.172	40.77
704.577	41.31
704.981	41.85
705.386	42.38
705.791	42.9
706.195	43.43
706.6	43.94
707.004	44.4
707.408	44.91
707.813	45.39
708.217	45.86
708.621	46.36
709.025	46.81
709.43	47.24
709.834	47.68
710.237	48.11
710.641	48.51
711.045	48.9
711.449	49.33
711.853	49.72
712.256	50.08
712.66	50.44
713.064	50.76
713.467	51.08
713.87	51.39
714.274	51.66
714.677	51.95
715.08	52.22
715.484	52.5
715.887	52.77
716.29	53.02
716.693	53.32
717.096	53.62
717.499	53.96
717.901	54.3
718.304	54.62
718.707	54.96
719.109	55.29
719.512	55.59
719.915	55.88
720.317	56.13
720.719	56.35
721.122	56.6
721.524	56.82
721.926	57.03
722.328	57.25
722.731	57.44
723.133	57.63
723.535	57.83
723.937	58.02
724.338	58.21
724.74	58.43
725.142	58.67
725.544	58.85
725.945	59.06
726.347	59.2
726.748	59.35
727.15	59.51
727.551	59.67
727.952	59.81
728.354	59.98
728.755	60.14
729.156	60.27
729.557	60.4
729.958	60.51
730.359	60.64
730.76	60.8
731.161	60.92
731.562	61.06
731.962	61.14
732.363	61.25
732.763	61.34
733.164	61.44
733.564	61.56
733.965	61.62
734.365	61.75
734.766	61.8
735.166	61.85
735.566	61.92
735.966	62
736.366	62.07
736.766	62.11
737.166	62.17
737.566	62.21
737.966	62.27
738.365	62.33
738.765	62.39
739.165	62.44
739.564	62.47
739.964	62.51
740.363	62.51
740.763	62.57
741.162	62.62
741.561	62.65
741.96	62.68
742.36	62.7
742.759	62.74
743.158	62.74
743.557	62.77
743.955	62.84
744.354	62.88
744.753	62.98
745.152	63.04
745.55	63.1
745.949	63.15
746.348	63.21
746.746	63.25
747.144	63.28
747.543	63.32
747.941	63.36
748.339	63.36
748.737	63.36
749.136	63.35
749.534	63.32
749.932	63.33
750.33	63.3
750.727	63.31
751.125	63.31
751.523	63.29
751.921	63.27
752.318	63.24
752.716	63.23
753.113	63.25
753.511	63.22
753.908	63.25
754.305	63.17
754.703	63.1
755.1	62.91
755.497	62.61
755.894	62.29
756.291	61.93
756.688	61.52
757.085	61.17
757.482	60.82
757.878	60.51
758.275	60.18
758.672	59.89
759.068	59.65
759.465	59.48
759.861	59.44
760.258	59.53
760.654	59.64
761.05	59.82
761.447	59.99
761.843	60.13
762.239	60.27
762.635	60.44
763.031	60.68
763.427	60.86
763.822	61.1
764.218	61.37
764.614	61.57
765.01	61.76
765.405	61.92
765.801	62.04
766.196	62.19
766.592	62.3
766.987	62.4
767.382	62.48
767.778	62.58
768.173	62.62
768.568	62.62
768.963	62.64
769.358	62.68
769.753	62.69
770.148	62.69
770.542	62.7
770.937	62.67
771.332	62.65
771.726	62.64
772.121	62.62
772.515	62.64
772.91	62.63
773.304	62.64
773.699	62.63
774.093	62.62
774.487	62.64
774.881	62.64
775.275	62.65
775.669	62.65
776.063	62.64
776.457	62.61
776.851	62.58
777.245	62.54
777.638	62.52
778.032	62.51
778.425	62.53
778.819	62.49
779.212	62.5
779.606	62.5
779.999	62.5
780.392	62.49
780.786	62.49
781.179	62.5
781.572	62.54
781.965	62.54
782.358	62.52
782.751	62.48
783.143	62.52
783.536	62.47
783.929	62.46
784.322	62.47
784.714	62.43
785.107	62.45
785.499	62.4
785.891	62.36
786.284	62.35
786.676	62.35
787.068	62.32
787.46	62.27
787.852	62.29
788.245	62.26
788.636	62.22
789.028	62.23
789.42	62.17
789.812	62.18
790.204	62.16
790.595	62.1
790.987	62.07
791.378	62.08
791.77	62.05
792.161	62.01
792.553	61.97
792.944	61.92
793.335	61.89
793.726	61.88
794.117	61.84
794.508	61.8
794.899	61.79
795.29	61.76
795.681	61.68
796.072	61.66
796.463	61.62
796.853	61.59
797.244	61.6
797.634	61.56
798.025	61.56
798.415	61.52
798.806	61.47
799.196	61.45
799.586	61.42
799.976	61.41
800.366	61.38
800.756	61.37
801.146	61.38
801.536	61.35
801.926	61.31
802.316	61.3
802.706	61.29
803.095	61.29
803.485	61.26
803.874	61.23
804.264	61.19
804.653	61.15
805.043	61.12
805.432	61.06
805.821	61
806.21	60.95
806.599	60.89
806.988	60.82
807.377	60.75
807.766	60.71
808.155	60.66
808.544	60.65
808.933	60.59
809.321	60.52
809.71	60.48
810.098	60.45
810.487	60.37
810.875	60.32
811.264	60.29
811.652	60.24
812.04	60.2
812.428	60.2
812.816	60.12
813.204	60.06
813.592	59.99
813.98	59.93
814.368	59.88
814.756	59.86
815.144	59.82
815.531	59.77
815.919	59.75
816.306	59.74
816.694	59.68
817.081	59.64
817.469	59.64
817.856	59.63
818.243	59.59
818.63	59.55
819.017	59.52
819.404	59.46
819.791	59.44
820.178	59.41
820.565	59.31
820.952	59.28
821.339	59.25
821.725	59.22
822.112	59.19
822.498	59.2
822.885	59.2
823.271	59.15
823.657	59.08
824.044	59.05
824.43	59.01
824.816	58.99
825.202	58.93
825.588	58.87
825.974	58.79
826.36	58.73
826.746	58.68
827.132	58.61
827.517	58.61
827.903	58.61
828.289	58.57
828.674	58.51
829.06	58.44
829.445	58.38
829.83	58.34
830.216	58.31
830.601	58.28
830.986	58.21
831.371	58.17
831.756	58.13
832.141	58.05
832.526	58.01
832.911	57.96
833.295	57.94
833.68	57.94
834.065	57.91
834.449	57.87
834.834	57.82
835.218	57.78
835.603	57.74
835.987	57.67
836.371	57.64
836.755	57.59
837.139	57.56
837.524	57.53
837.908	57.49
838.291	57.46
838.675	57.43
839.059	57.41
839.443	57.38
839.827	57.33
840.21	57.3
840.594	57.29
840.977	57.26
841.361	57.23
841.744	57.18
842.127	57.14
842.511	57.1
842.894	57.06
843.277	57.01
843.66	56.97
844.043	56.97
844.426	56.94
844.809	56.91
845.191	56.89
845.574	56.86
845.957	56.85
846.339	56.82
846.722	56.81
847.104	56.82
847.487	56.81
847.869	56.79
848.252	56.77
848.634	56.77
849.016	56.76
849.398	56.74
849.78	56.71
850.162	56.69
850.544	56.67
850.926	56.64
851.307	56.62
851.689	56.62
852.071	56.61
852.452	56.59
852.834	56.58
853.215	56.53
853.597	56.53
853.978	56.5
854.359	56.5
854.741	56.51
855.122	56.51
855.503	56.48
855.884	56.46
856.265	56.46
856.646	56.44
857.026	56.45
857.407	56.48
857.788	56.46
858.169	56.51
858.549	56.5
858.93	56.51
859.31	56.49
859.69	56.5
860.071	56.52
860.451	56.49
860.831	56.49
861.211	56.45
861.591	56.41
861.971	56.39
862.351	56.36
862.731	56.34
863.111	56.28
863.491	56.26
863.87	56.22
864.25	56.2
864.629	56.19
865.009	56.2
865.388	56.18
865.768	56.2
866.147	56.21
866.526	56.18
866.905	56.18
867.284	56.21
867.663	56.21
868.042	56.21
868.421	56.2
868.8	56.18
869.179	56.17
869.558	56.16
869.936	56.11
870.315	56.09
870.693	56.09
871.072	56.08
871.45	56.05
871.828	56.05
872.207	56.06
872.585	56.04
872.963	56.03
873.341	56.01
873.719	56.01
874.097	56
874.475	56
874.853	55.98
875.23	55.98
875.608	55.95
875.986	55.96
876.363	55.96
876.741	55.97
877.118	55.97
877.495	55.98
877.873	55.99
878.25	56.02
878.627	56.01
879.004	56
879.381	55.99
879.758	55.98
880.135	55.96
880.512	55.92
880.889	55.9
881.265	55.88
881.642	55.85
882.019	55.85
882.395	55.82
882.772	55.8
883.148	55.78
883.524	55.75
883.901	55.74
884.277	55.71
884.653	55.66
885.029	55.63
885.405	55.61
885.781	55.6
886.157	55.57
886.532	55.56
886.908	55.54
887.284	55.53
887.659	55.5
888.035	55.49
888.411	55.47
888.786	55.47
889.161	55.46
889.537	55.44
889.912	55.4
890.287	55.37
890.662	55.31
891.037	55.27
891.412	55.22
891.787	55.18
892.162	55.13
892.536	55.08
892.911	55.04
893.286	55
893.66	54.96
894.035	54.92
894.409	54.85
894.784	54.85
895.158	54.83
895.532	54.83
895.906	54.82
896.281	54.79
896.655	54.79
897.029	54.8
897.402	54.76
897.776	54.77
898.15	54.78
898.524	54.8
898.898	54.78
899.271	54.8
899.645	54.8
900.018	54.85
900.392	54.91
900.765	54.94
901.138	54.94
901.511	54.99
901.884	55.01
902.258	55.04
902.631	55.06
903.003	55.09
903.376	55.07
903.749	55.07
904.122	55.07
904.495	55.07
904.867	55.07
905.24	55.09
905.612	55.11
905.985	55.09
906.357	55.08
906.729	55.12
907.102	55.12
907.474	55.14
907.846	55.16
908.218	55.14
908.59	55.15
908.962	55.14
909.334	55.14
909.705	55.12
910.077	55.15
910.449	55.16
910.82	55.14
911.192	55.16
911.563	55.13
911.935	55.14
912.306	55.15
912.677	55.15
913.048	55.17
913.419	55.15
913.79	55.18
914.161	55.2
914.532	55.22
914.903	55.27
915.274	55.28
915.645	55.28
916.015	55.28
916.386	55.27
916.756	55.26
917.127	55.27
917.497	55.28
917.868	55.28
918.238	55.28
918.608	55.27
918.978	55.23
919.348	55.22
919.718	55.24
920.088	55.24
920.458	55.26
920.828	55.27
921.198	55.23
921.567	55.25
921.937	55.27
922.306	55.26
922.676	55.27
923.045	55.25
923.415	55.24
923.784	55.22
924.153	55.22
924.522	55.24
924.891	55.23
925.26	55.27
925.629	55.26
925.998	55.25
926.367	55.27
926.736	55.23
927.104	55.26
927.473	55.23
927.842	55.17
928.21	55.17
928.578	55.1
928.947	55.08
929.315	54.99
929.683	54.93
930.051	54.85
930.42	54.73
930.788	54.64
931.156	54.55
931.523	54.5
931.891	54.52
932.259	54.47
932.627	54.41
932.994	54.34
933.362	54.28
933.729	54.27
934.097	54.24
934.464	54.25
934.831	54.27
935.199	54.25
935.566	54.21
935.933	54.11
936.3	54.07
936.667	54.05
937.034	54.06
937.401	54.11
937.767	54.12
938.134	54.14
938.501	54.13
938.867	54.18
939.234	54.18
939.6	54.18
939.967	54.24
940.333	54.25
940.699	54.29
941.065	54.31
941.431	54.29
941.798	54.22
942.163	54.2
942.529	54.27
942.895	54.23
943.261	54.22
943.627	54.25
943.992	54.26
944.358	54.26
944.723	54.23
945.089	54.21
945.454	54.23
945.82	54.26
946.185	54.24
946.55	54.16
946.915	54.13
947.28	54.14
947.645	54.17
948.01	54.16
948.375	54.09
948.74	54.07
949.104	54.04
949.469	53.98
949.834	53.9
950.198	53.84
950.562	53.83
950.927	53.77
951.291	53.69
951.655	53.56
952.02	53.55
952.384	53.55
952.748	53.51
953.112	53.47
953.476	53.41
953.839	53.38
954.203	53.35
954.567	53.25
954.931	53.25
955.294	53.18
955.658	53.28
956.021	53.24
956.385	53.18
956.748	53.16
957.111	53.13
957.474	53.15
957.837	53.14
958.2	53.16
958.563	53.19
958.926	53.23
959.289	53.27
959.652	53.2
960.015	53.13
960.377	53.13
960.74	53.2
961.102	53.18
961.465	53.21
961.827	53.25
962.189	53.28
962.552	53.26
962.914	53.24
963.276	53.3
963.638	53.3
964	53.38
964.362	53.38
964.724	53.35
965.085	53.4
965.447	53.39
965.809	53.37
966.17	53.37
966.532	53.38
966.893	53.39
967.255	53.4
967.616	53.46
967.977	53.48
968.338	53.49
968.699	53.48
969.061	53.44
969.421	53.45
969.782	53.49
970.143	53.47
970.504	53.5
970.865	53.54
971.225	53.52
971.586	53.47
971.946	53.48
972.307	53.5
972.667	53.53
973.027	53.63
973.388	53.63
973.748	53.67
974.108	53.78
974.468	53.79
974.828	53.84
975.188	53.89
975.548	53.91
975.907	53.93
976.267	53.97
976.627	53.99
976.986	53.95
977.346	53.95
977.705	53.93
978.064	53.88
978.424	53.94
978.783	53.88
979.142	53.81
979.501	53.82
979.86	53.86
980.219	53.85
980.578	53.88
980.937	53.91
981.296	53.89
981.654	53.92
982.013	53.99
982.371	54.01
982.73	54.08
983.088	54.13
983.447	54.15
983.805	54.15
984.163	54.17
984.521	54.2
984.879	54.17
985.237	54.24
985.595	54.26
985.953	54.26
986.311	54.23
986.669	54.2
987.026	54.28
987.384	54.34
987.741	54.29
988.099	54.39
988.456	54.38
988.814	54.49
989.171	54.57
989.528	54.64
989.885	54.69
990.242	54.7
990.599	54.84
990.956	54.91
991.313	54.93
991.67	55.01
992.027	55.05
992.383	55.21
992.74	55.28
993.096	55.21
993.453	55.21
993.809	55.19
994.165	55.3
994.522	55.24
994.878	55.24
995.234	55.27
995.59	55.26
995.946	55.26
996.302	55.19
996.658	55.33
997.013	55.44
997.369	55.54
997.725	55.58
998.08	55.68
998.436	55.85
998.791	55.88
999.147	55.9
999.502	56.08
999.857	56.1
1000.212	56.2
1000.567	56.1
1000.922	56.1
1001.277	56.15
1001.632	56.15
1001.987	56.01
1002.342	55.92
1002.696	55.96
1003.051	56.1
1003.406	56.22
1003.76	56.34
1004.114	56.22
1004.469	56.38
1004.823	56.63
1005.177	56.63
1005.531	56.79
1005.885	56.91
1006.239	57.07
1006.593	57.16
1006.947	57.3
1007.301	57.15
1007.655	57
1008.008	57.15
1008.362	57.15
1008.715	57.05
1009.069	57.21
1009.422	57.27
1009.776	57.33
1010.129	57.39
1010.482	57.45
1010.835	57.55
1011.188	57.72
1011.541	57.94
1011.894	57.99
1012.247	58.06
1012.6	58.26
1012.952	58.25
1013.305	58.32
1013.657	58.36
1014.01	58.57
1014.362	58.66
1014.715	58.56
1015.067	58.65
1015.419	58.77
1015.771	58.72
1016.123	58.78
1016.475	58.72
1016.827	58.84
1017.179	58.94
1017.531	59.22
1017.883	59.22
1018.234	59.23
1018.586	59.27
1018.938	59.44
1019.289	59.43
1019.64	59.5
1019.992	59.56
1020.343	59.73
1020.694	59.76
1021.045	59.55
1021.396	59.48
1021.747	59.47
1022.098	59.61
1022.449	59.69
1022.8	59.64
1023.151	59.84
1023.501	60.07
1023.852	60.25
1024.202	60.11
1024.553	60.24
1024.903	60.34
1025.253	60.51
1025.604	60.54
1025.954	60.29
1026.304	60.41
1026.654	60.4
1027.004	60.28
1027.354	60.44
1027.703	60.31
1028.053	60.53
1028.403	60.45
1028.753	60.4
1029.102	60.4
1029.452	60.35
1029.801	60.68
1030.15	60.61
1030.499	60.62
897.758	993.45
901.051	1000.45
904.343	997.52
907.636	1013.49
910.928	988.24
914.22	986.5
917.511	968.49
920.803	934.19
924.094	928.41
927.384	907.24
930.675	872.69
933.965	866.1
937.255	817.16
940.544	786.41
943.834	750.71
947.123	742.74
950.411	700.77
953.7	688.66
956.988	651.19
960.276	626.2
963.563	616.55
966.851	593.52
970.138	588.98
973.424	569.76
976.711	574.93
979.997	545.62
983.283	543.91
986.568	533.35
989.853	519.19
993.138	509.21
996.423	490.13
999.708	477.94
1002.992	472.83
1006.275	454.72
1009.559	451.01
1012.842	432.05
1016.125	422.67
1019.408	414.15
1022.69	411.71
1025.972	401.01
1029.254	392.68
1032.536	386.98
1035.817	379.66
1039.098	375.62
1042.379	366.35
1045.659	362.02
1048.939	355.43
1052.219	347.75
1055.498	344.93
1058.778	334.85
1062.057	329.28
1065.335	325.86
1068.614	322.5
1071.892	319.36
1075.17	309.15
1078.447	305.23
1081.724	303.05
1085.001	300.36
1088.278	295.91
1091.554	288.82
1094.83	289.7
1098.106	287.3
1101.382	284.48
1104.657	282.04
1107.932	277.63
1111.206	279.65
1114.481	272.2
1117.755	270.12
1121.029	267.82
1124.302	266.51
1127.575	262.32
1130.848	258.88
1134.121	256.12
1137.393	255.18
1140.665	249.58
1143.937	247.08
1147.208	245.6
1150.48	245.09
1153.75	241.42
1157.021	238.55
1160.291	238.89
1163.561	236.34
1166.831	235.47
1170.101	233.73
1173.37	233.43
1176.639	234.44
1179.907	233.01
1183.176	230.06
1186.444	229.85
1189.711	230.13
1192.979	229.09
1196.246	227.44
1199.513	228.45
1202.78	227.46
1206.046	227.48
1209.312	224.91
1212.578	225.11
1215.843	226.09
1219.108	225.15
1222.373	229.2
1225.638	230.5
1228.902	233.84
1232.166	234.01
1235.43	234.98
1238.693	238.56
1241.956	240.3
1245.219	244.18
1248.482	244.41
1251.744	244.76
1255.006	246.03
1258.268	239.62
1261.529	237.83
1264.79	237.19
1268.051	235.81
1271.312	232.98
1274.572	230.32
1277.832	228.24
1281.092	224.14
1284.351	222.69
1287.61	222.82
1290.869	218.48
1294.128	218.19
1297.386	217.77
1300.644	214.32
1303.902	215.9
1307.159	214.41
1310.416	214.23
1313.673	213.17
1316.93	215.31
1320.186	214.56
1323.442	214.48
1326.697	218.86
1329.953	219.3
1333.208	219.25
1336.463	222.48
1339.717	221.72
1342.972	224.82
1346.226	225.78
1349.479	226.79
1352.733	227.55
1355.986	229
1359.238	228.52
1362.491	228.64
1365.743	229.87
1368.995	230.65
1372.247	228.45
1375.498	228.28
1378.749	228.54
1382	225.34
1385.251	225.87
1388.501	223.13
1391.751	221.96
1395	221.29
1398.25	219.13
1401.499	216.29
1404.748	215.02
1407.996	212.9
1411.244	211.87
1414.492	210.4
1417.74	207.47
1420.987	203.89
1424.234	204.35
1427.481	202.03
1430.728	201.43
1433.974	199.82
1437.22	198.9
1440.465	197.83
1443.711	195.79
1446.956	194.63
1450.201	192.48
1453.445	191.5
1456.689	190.65
1459.933	187.23
1463.177	185.37
1466.42	182.05
1469.663	179.9
1472.906	178.6
1476.148	174.52
1479.391	172.8
1482.633	171.28
1485.874	168.69
1489.115	167.61
1492.356	165.61
1495.597	165.47
1498.838	163.57
1502.078	163.18
1505.318	162.53
1508.557	162.3
1511.797	162.12
1515.036	160.87
1518.274	159.8
1521.513	158.8
1524.751	158.75
1527.989	159.44
1531.227	158.49
1534.464	159.1
1537.701	158.47
1540.938	157.91
1544.174	156.22
1547.41	156.54
1550.646	156.25
1553.882	156.42
1557.117	155.2
1560.352	154.49
1563.587	153.65
1566.821	152.93
1570.055	151.97
1573.289	150.58
1576.523	150.79
1579.756	149.89
1582.989	148.82
1586.222	148.84
1589.454	148.38
1592.686	149.7
1595.918	148.85
1599.15	148.21
1602.381	148.74
1605.612	148.44
1608.843	148.68
1612.073	148.61
1615.303	149.83
1618.533	150.1
1621.762	149.89
1624.992	150.77
1628.221	150
1631.449	149.99
1634.678	150.17
1637.906	151.28
1641.134	150.64
1644.361	150.67
1647.588	151.26
1650.815	150.68
1654.042	150.13
1657.269	151.13
1660.495	150.61
1663.72	150.4
1666.946	150.69
1670.171	151.16
1673.396	150.13
1676.621	150.65
1679.845	151.56
1683.069	151.46
1686.293	152.19
1689.517	153.21
1692.74	152.87
1695.963	153.42
1699.185	154.48
1702.408	155.13
1705.63	155.18
1708.852	155.67
1712.073	155.99
1715.294	155.94
1718.515	156.16
1721.736	156.02
1724.956	156.49
1728.176	156.63
1731.396	157.32
1734.616	156.58
1737.835	157.01
1741.054	156
1744.272	156.39
1747.491	157.92
1750.709	157.95
1753.927	158.02
1757.144	157.42
1760.361	157.38
1763.578	157.06
1766.795	156.55
1770.011	158.62
1773.227	157.9
1776.443	159.62
1779.658	159.84
1782.874	159.02
1786.089	159.12
1789.303	159.6
1792.518	161.71
1795.732	161.26
1798.945	162.85
1802.159	163.19
1805.372	162.53
1808.585	165.59
1811.797	165.96
1815.01	166.48
1818.222	167.76
1821.434	170.47
1824.645	170.39
1827.856	172.62
1831.067	174.07
1834.278	173.88
1837.488	175.19
1840.698	176.28
1843.908	175.01
1847.117	175.21
1850.326	176.47
1853.535	174.95
1856.744	175.63
1859.952	176.35
1863.16	174.54
1866.368	173.11
1869.575	173.4
1872.782	170.31
1875.989	170.24
1879.196	169.16
1882.402	168.68
1885.608	168.27
1888.814	168.95
1892.019	168.23
1895.224	167.15
1898.429	167.13
1901.634	167.96
1904.838	168.91
1908.042	170.99
1911.246	170.76
1914.449	172.09
1917.652	172.66
1920.855	172.39
1924.058	172.35
1927.26	171.74
1930.462	172.39
1933.664	174.2
1936.865	173.14
1940.066	172.33
1943.267	171.65
1946.467	171.98
1949.668	172.61
1952.868	174.15
1956.067	174.95
1959.267	174.9
1962.466	175.49
1965.665	174.46
1968.863	175.08
1972.061	177.4
1975.259	179.06
1978.457	180.7
1981.654	182.03
1984.852	182.6
1988.048	181.93
1991.245	183.59
1994.441	185.41
1997.637	186.75
2000.833	191.07
2004.028	192.59
2007.223	193.31
2010.418	195.79
2013.613	198.93
2016.807	200.8
2020.001	203.57
2023.194	205.56
2026.388	209.85
2029.581	215.04
2032.774	217.11
2035.966	220
2039.158	221.12
2042.35	225.82
2045.542	226.44
2048.733	229.74
2051.924	233.41
2055.115	235.18
2058.306	237.22
2061.496	238.92
2064.686	239.28
2067.875	243.63
2071.065	245.04
2074.254	243.16
2077.442	247.07
2080.631	248.29
2083.819	250.28
2087.007	251.13
2090.195	254.64
2093.382	256.84
2096.569	255.84
2099.756	259.7
2102.942	260.08
2106.128	261.77
2109.314	269.32
2112.5	267.88
2115.685	273.81
2118.87	274.61
2122.055	279.41
2125.239	281.41
2128.424	284.46
2131.608	286.89
2134.791	290.13
2137.974	291.45
2141.157	292.9
2144.34	292.41
2147.523	297.9
2150.705	296.38
2153.887	299.25
2157.068	299.45
2160.25	297.36
2163.431	298.88
2166.611	302.18
2169.792	308.12
2172.972	311.31
2176.152	315.2
2179.331	318.69
2182.511	322.26
2185.69	326.25
2188.868	331.76
2192.047	333.38
2195.225	343.24
2198.403	351.64
2201.58	358.12
2204.758	365
2207.935	371.99
2211.111	378.05
2214.288	382.3
2217.464	383.94
2220.64	389.63
2223.815	394.76
2226.991	409.04
2230.166	409.5
2233.34	415.76
2236.515	423.46
2239.689	424.42
2242.863	427.04
2246.036	437.29
2249.209	434.58
2252.382	442.85
2255.555	454.48
2258.727	457.08
2261.9	461.3
2265.071	465.62
2268.243	474.3
2271.414	479.6
2274.585	488.46
2277.756	493.4
2280.926	498.43
2284.096	509.18
2287.266	517.73
2290.436	524.69
2293.605	535.66
2296.774	554.24
2299.942	569.32
2303.111	572.3
2306.279	583.79
2309.447	593.61
2312.614	607.43
2315.781	623.12
2318.948	655.24
2322.115	647.55
2325.281	683.59
2328.447	670.83
2331.613	692.17
2334.779	687.71
2337.944	717.37
2341.109	724.15
2344.274	742.56
2347.438	771.04
2350.602	771.24
2353.766	794.08
2356.929	806.29
2360.092	799.42
2363.255	857.75
2366.418	856.75
2369.58	875.44
2372.742	926.03
2375.904	950.77
2379.066	947.34
2382.227	927.45
2385.388	1007.38
2388.548	1008.44
2391.709	1019.48
2394.869	1133.93
2398.029	1087.91
2401.188	1118.19
2404.347	1111.25
2407.506	1094.4
2410.665	1124.38
2413.823	1192.61
2416.981	1266.49
2420.139	1221.42
2423.296	1205.95
2426.453	1266.5
2429.61	1220.1
2432.767	1271.16
2435.923	1259.03
2439.079	1379.82
2442.235	1401.37
2445.391	1389.74
2448.546	1372.26
2451.701	1334.68
2454.855	1337.17
2458.009	1422.01
2461.163	1474.83
2464.317	1524.59
2467.471	1561.05
2470.624	1563.33
2473.777	1518.72
2476.929	1478.09
2480.082	1429.69
2483.234	1418.62
2486.385	1490.96
2489.537	1498.06
2492.688	1548.98
2495.839	1505.14
2498.989	1469.79
2502.14	1480.8
2505.29	1494.05
2508.439	1513.77
2511.589	1513.63
2514.738	1659.18
2517.887	1621.62
2521.035	1709.26
2524.183	1719.44
2527.331	1732.6
2530.479	1721.56
2533.627	1737.61
