Data from C_3_HIR_WI_4N_Splice17_14-05-20-209.txt Node
Date: Sat Mar 07 14:05:20 EST 2020
User: sa697716
Spectrometer: NQ5500242
Trigger mode: 0
Integration Time (sec): 1.450000E-1
Scans to average: 20
Nonlinearity correction enabled: false
Boxcar width: 5
Storing dark spectrum: false
XAxis mode: Wavelengths
Number of Pixels in Spectrum: 512
>>>>>Begin Spectral Data<<<<<
187.83	133.55
188.298	143.46
188.766	115.33
189.233	99.14
189.701	84.54
190.169	95.42
190.636	69.97
191.104	13.23
191.571	-182.32
192.039	-314.41
192.506	-349.73
192.974	280.21
193.441	366.13
193.908	112.37
194.375	79.16
194.842	-26.71
195.31	-23.85
195.777	-134.51
196.244	45.93
196.711	56.08
197.177	58.19
197.644	57.66
198.111	57.23
198.578	57.26
199.045	57.83
199.511	57.89
199.978	58.3
200.445	58.49
200.911	58.35
201.378	58.25
201.844	58.24
202.31	57.69
202.777	57.73
203.243	57.68
203.709	57.35
204.176	57.02
204.642	56.4
205.108	56.21
205.574	55.59
206.04	55.1
206.506	54.49
206.972	54.18
207.438	53.88
207.903	53.24
208.369	52.31
208.835	51.58
209.301	50.3
209.766	49.03
210.232	47.48
210.697	46.25
211.163	44.97
211.628	44.04
212.094	42.72
212.559	41.57
213.024	40.45
213.49	39.33
213.955	38.26
214.42	37.41
214.885	36.41
215.35	35.08
215.815	33.34
216.28	31.11
216.745	28.55
217.21	26.06
217.675	23.73
218.14	21.77
218.604	20.03
219.069	18.51
219.534	17.23
219.998	16.26
220.463	15.4
220.927	14.64
221.392	14.07
221.856	13.63
222.32	13.2
222.785	12.87
223.249	12.55
223.713	12.27
224.177	12.04
224.642	11.82
225.106	11.55
225.57	11.3
226.034	11.12
226.497	10.92
226.961	10.74
227.425	10.6
227.889	10.44
228.353	10.27
228.816	10.1
229.28	9.94
229.744	9.8
230.207	9.68
230.671	9.56
231.134	9.44
231.597	9.35
232.061	9.22
232.524	9.1
232.987	8.98
233.45	8.91
233.914	8.82
234.377	8.73
234.84	8.64
235.303	8.58
235.766	8.51
236.229	8.43
236.691	8.36
237.154	8.29
237.617	8.23
238.08	8.16
238.542	8.08
239.005	8.02
239.468	7.96
239.93	7.91
240.393	7.85
240.855	7.78
241.317	7.71
241.78	7.64
242.242	7.57
242.704	7.52
243.166	7.46
243.629	7.4
244.091	7.34
244.553	7.27
245.015	7.22
245.477	7.15
245.939	7.09
246.4	7.04
246.862	6.99
247.324	6.94
247.786	6.88
248.247	6.83
248.709	6.77
249.17	6.72
249.632	6.69
250.093	6.64
250.555	6.6
251.016	6.56
251.477	6.52
251.939	6.48
252.4	6.44
252.861	6.41
253.322	6.38
253.783	6.35
254.244	6.33
254.705	6.3
255.166	6.26
255.627	6.22
256.088	6.2
256.549	6.18
257.009	6.14
257.47	6.12
257.931	6.08
258.391	6.04
258.852	5.99
259.312	5.95
259.773	5.91
260.233	5.87
260.694	5.84
261.154	5.8
261.614	5.77
262.074	5.73
262.534	5.69
262.994	5.66
263.455	5.64
263.915	5.62
264.374	5.59
264.834	5.57
265.294	5.55
265.754	5.54
266.214	5.51
266.673	5.49
267.133	5.47
267.593	5.46
268.052	5.44
268.512	5.43
268.971	5.41
269.431	5.4
269.89	5.38
270.349	5.36
270.809	5.34
271.268	5.32
271.727	5.31
272.186	5.3
272.645	5.29
273.104	5.27
273.563	5.25
274.022	5.25
274.481	5.24
274.94	5.23
275.399	5.21
275.857	5.21
276.316	5.2
276.775	5.18
277.233	5.17
277.692	5.16
278.15	5.15
278.609	5.14
279.067	5.12
279.525	5.11
279.984	5.1
280.442	5.09
280.9	5.09
281.358	5.07
281.816	5.08
282.274	5.07
282.732	5.06
283.19	5.06
283.648	5.05
284.106	5.04
284.564	5.03
285.021	5.03
285.479	5.02
285.937	5
286.394	5
286.852	4.98
287.309	4.97
287.767	4.96
288.224	4.95
288.682	4.93
289.139	4.92
289.596	4.92
290.053	4.89
290.511	4.87
290.968	4.86
291.425	4.84
291.882	4.83
292.339	4.81
292.796	4.79
293.252	4.78
293.709	4.77
294.166	4.75
294.623	4.74
295.079	4.74
295.536	4.73
295.992	4.72
296.449	4.71
296.905	4.7
297.362	4.69
297.818	4.68
298.274	4.67
298.731	4.67
299.187	4.65
299.643	4.64
300.099	4.63
300.555	4.62
301.011	4.61
301.467	4.6
301.923	4.6
302.379	4.59
302.835	4.59
303.291	4.59
303.746	4.58
304.202	4.58
304.658	4.57
305.113	4.57
305.569	4.56
306.024	4.56
306.479	4.56
306.935	4.55
307.39	4.56
307.845	4.56
308.301	4.56
308.756	4.57
309.211	4.57
309.666	4.56
310.121	4.56
310.576	4.57
311.031	4.57
311.486	4.57
311.94	4.56
312.395	4.56
312.85	4.56
313.305	4.55
313.759	4.55
314.214	4.54
314.668	4.54
315.123	4.54
315.577	4.52
316.032	4.52
316.486	4.51
316.94	4.5
317.394	4.49
317.849	4.47
318.303	4.46
318.757	4.45
319.211	4.43
319.665	4.42
320.119	4.4
320.572	4.39
321.026	4.38
321.48	4.37
321.934	4.36
322.387	4.35
322.841	4.34
323.295	4.34
323.748	4.33
324.202	4.33
324.655	4.32
325.108	4.32
325.562	4.32
326.015	4.31
326.468	4.31
326.921	4.3
327.374	4.3
327.827	4.3
328.28	4.29
328.733	4.3
329.186	4.29
329.639	4.29
330.092	4.29
330.545	4.29
330.997	4.28
331.45	4.28
331.903	4.28
332.355	4.28
332.808	4.28
333.26	4.28
333.713	4.28
334.165	4.27
334.617	4.27
335.069	4.26
335.522	4.27
335.974	4.28
336.426	4.27
336.878	4.26
337.33	4.26
337.782	4.26
338.234	4.26
338.686	4.26
339.137	4.26
339.589	4.25
340.041	4.25
340.493	4.24
340.944	4.21
341.396	4.2
341.847	4.19
342.299	4.17
342.75	4.16
343.201	4.15
343.653	4.13
344.104	4.11
344.555	4.1
345.006	4.08
345.457	4.07
345.908	4.06
346.359	4.06
346.81	4.04
347.261	4.04
347.712	4.03
348.163	4.01
348.613	4.01
349.064	4.01
349.515	4.01
349.965	4
350.416	3.99
350.866	3.99
351.317	3.99
351.767	4
352.217	3.99
352.668	3.99
353.118	3.99
353.568	3.99
354.018	3.99
354.468	3.99
354.918	3.99
355.368	3.99
355.818	4
356.268	4
356.718	4
357.168	4
357.617	4
358.067	3.99
358.517	4.01
358.966	4.01
359.416	4
359.865	4
360.315	4
360.764	4.01
361.213	4.01
361.663	4.01
362.112	4.02
362.561	4.03
363.01	4.04
363.459	4.02
363.908	4.02
364.357	4.03
364.806	4.03
365.255	4.05
365.703	4.06
366.152	4.07
366.601	4.08
367.05	4.09
367.498	4.1
367.947	4.11
368.395	4.13
368.844	4.16
369.292	4.17
369.74	4.19
370.189	4.2
370.637	4.2
371.085	4.21
371.533	4.22
371.981	4.24
372.429	4.26
372.877	4.29
373.325	4.31
373.773	4.32
374.221	4.33
374.669	4.36
375.116	4.37
375.564	4.38
376.012	4.41
376.459	4.43
376.907	4.46
377.354	4.47
377.801	4.49
378.249	4.52
378.696	4.55
379.143	4.58
379.591	4.6
380.038	4.63
380.485	4.67
380.932	4.7
381.379	4.73
381.826	4.77
382.273	4.8
382.72	4.82
383.166	4.85
383.613	4.88
384.06	4.9
384.506	4.93
384.953	4.96
385.4	4.98
385.846	5.01
386.292	5.04
386.739	5.07
387.185	5.09
387.631	5.13
388.078	5.16
388.524	5.19
388.97	5.22
389.416	5.25
389.862	5.28
390.308	5.32
390.754	5.37
391.2	5.4
391.645	5.43
392.091	5.47
392.537	5.51
392.983	5.54
393.428	5.57
393.874	5.6
394.319	5.63
394.765	5.66
395.21	5.67
395.655	5.68
396.101	5.71
396.546	5.73
396.991	5.75
397.436	5.76
397.881	5.79
398.326	5.81
398.771	5.83
399.216	5.86
399.661	5.88
400.106	5.9
400.551	5.91
400.995	5.91
401.44	5.92
401.885	5.93
402.329	5.94
402.774	5.94
403.218	5.96
403.663	5.97
404.107	5.96
404.551	5.96
404.995	5.96
405.44	5.97
405.884	5.99
406.328	6
406.772	5.99
407.216	6
407.66	6.01
408.104	5.99
408.547	5.99
408.991	6.01
409.435	6
409.879	6
410.322	6.01
410.766	6.01
411.209	6.02
411.653	6.04
412.096	6.04
412.54	6.05
412.983	6.05
413.426	6.09
413.869	6.11
414.312	6.14
414.756	6.15
415.199	6.15
415.642	6.15
416.085	6.16
416.527	6.16
416.97	6.16
417.413	6.15
417.856	6.15
418.298	6.12
418.741	6.1
419.184	6.08
419.626	6.07
420.069	6.07
420.511	6.07
420.953	6.05
421.396	6.05
421.838	6.05
422.28	6.04
422.722	6.06
423.164	6.05
423.606	6.06
424.048	6.06
424.49	6.06
424.932	6.06
425.374	6.03
425.816	6
426.258	5.99
426.699	5.97
427.141	5.96
427.582	5.96
428.024	5.97
428.465	5.97
428.907	5.96
429.348	5.94
429.789	5.94
430.231	5.95
430.672	5.97
431.113	5.98
431.554	5.99
431.995	5.98
432.436	5.97
432.877	5.96
433.318	5.95
433.759	5.98
434.2	5.99
434.64	6
435.081	6.01
435.522	6.04
435.962	6.05
436.403	6.08
436.843	6.1
437.284	6.11
437.724	6.11
438.164	6.13
438.604	6.12
439.045	6.14
439.485	6.14
439.925	6.15
440.365	6.16
440.805	6.17
441.245	6.18
441.685	6.21
442.125	6.23
442.564	6.25
443.004	6.26
443.444	6.29
443.883	6.31
444.323	6.32
444.762	6.35
445.202	6.36
445.641	6.37
446.081	6.4
446.52	6.41
446.959	6.44
447.398	6.48
447.837	6.51
448.276	6.54
448.716	6.57
449.154	6.6
449.593	6.61
450.032	6.62
450.471	6.62
450.91	6.62
451.349	6.64
451.787	6.63
452.226	6.63
452.664	6.63
453.103	6.62
453.541	6.61
453.98	6.63
454.418	6.61
454.856	6.61
455.295	6.61
455.733	6.57
456.171	6.57
456.609	6.57
457.047	6.54
457.485	6.53
457.923	6.52
458.361	6.5
458.798	6.48
459.236	6.47
459.674	6.46
460.111	6.46
460.549	6.48
460.987	6.47
461.424	6.48
461.862	6.49
462.299	6.5
462.736	6.49
463.173	6.49
463.611	6.5
464.048	6.5
464.485	6.51
464.922	6.5
465.359	6.51
465.796	6.51
466.233	6.5
466.67	6.49
467.106	6.5
467.543	6.51
467.98	6.51
468.416	6.52
468.853	6.53
469.29	6.54
469.726	6.55
470.162	6.54
470.599	6.54
471.035	6.53
471.471	6.54
471.907	6.53
472.344	6.53
472.78	6.52
473.216	6.5
473.652	6.5
474.088	6.48
474.523	6.48
474.959	6.49
475.395	6.48
475.831	6.49
476.266	6.49
476.702	6.48
477.138	6.48
477.573	6.48
478.008	6.49
478.444	6.48
478.879	6.49
479.314	6.48
479.75	6.49
480.185	6.48
480.62	6.48
481.055	6.47
481.49	6.47
481.925	6.46
482.36	6.46
482.795	6.46
483.229	6.45
483.664	6.46
484.099	6.47
484.534	6.45
484.968	6.47
485.403	6.47
485.837	6.49
486.271	6.51
486.706	6.53
487.14	6.54
487.574	6.57
488.009	6.6
488.443	6.62
488.877	6.65
489.311	6.69
489.745	6.72
490.179	6.77
490.613	6.82
491.046	6.85
491.48	6.9
491.914	6.96
492.348	7.02
492.781	7.07
493.215	7.14
493.648	7.2
494.082	7.26
494.515	7.33
494.948	7.39
495.382	7.46
495.815	7.54
496.248	7.62
496.681	7.72
497.114	7.8
497.547	7.9
497.98	7.99
498.413	8.1
498.846	8.21
499.279	8.32
499.711	8.44
500.144	8.57
500.577	8.7
501.009	8.84
501.442	8.96
501.874	9.1
502.306	9.24
502.739	9.41
503.171	9.56
503.603	9.71
504.036	9.89
504.468	10.06
504.9	10.22
505.332	10.39
505.764	10.59
506.196	10.78
506.627	10.98
507.059	11.19
507.491	11.39
507.923	11.61
508.354	11.84
508.786	12.08
509.217	12.33
509.649	12.59
510.08	12.84
510.512	13.09
510.943	13.35
511.374	13.61
511.805	13.87
512.237	14.13
512.668	14.41
513.099	14.69
513.53	14.96
513.961	15.22
514.391	15.5
514.822	15.8
515.253	16.09
515.684	16.38
516.114	16.68
516.545	16.97
516.975	17.26
517.406	17.54
517.836	17.82
518.267	18.12
518.697	18.4
519.127	18.66
519.558	18.95
519.988	19.21
520.418	19.49
520.848	19.74
521.278	20.01
521.708	20.4
522.138	20.66
522.567	20.92
522.997	21.16
523.427	21.4
523.857	21.64
524.286	21.84
524.716	22.08
525.145	22.3
525.575	22.53
526.004	22.74
526.433	22.81
526.863	22.99
527.292	23.19
527.721	23.36
528.15	23.53
528.579	23.68
529.008	23.86
529.437	24
529.866	24.12
530.295	24.26
530.724	24.37
531.152	24.5
531.581	24.62
532.01	24.72
532.438	24.83
532.867	24.94
533.295	25.04
533.723	25.12
534.152	25.2
534.58	25.29
535.008	25.35
535.436	25.42
535.865	25.46
536.293	25.51
536.721	25.55
537.149	25.59
537.576	25.63
538.004	25.69
538.432	25.72
538.86	25.77
539.287	25.79
539.715	25.83
540.143	25.87
540.57	25.92
540.998	25.95
541.425	26
541.852	26.03
542.28	26.06
542.707	26.08
543.134	26.09
543.561	26.12
543.988	26.16
544.415	26.18
544.842	26.2
545.269	26.23
545.696	26.26
546.123	26.28
546.549	26.31
546.976	26.35
547.403	26.38
547.829	26.4
548.256	26.44
548.682	26.45
549.108	26.49
549.535	26.51
549.961	26.53
550.387	26.54
550.813	26.55
551.24	26.56
551.666	26.56
552.092	26.55
552.518	26.55
552.943	26.54
553.369	26.54
553.795	26.51
554.221	26.49
554.646	26.45
555.072	26.44
555.498	26.4
555.923	26.35
556.349	26.29
556.774	26.24
557.199	26.19
557.625	26.13
558.05	26.07
558.475	26
558.9	25.94
559.325	25.88
559.75	25.79
560.175	25.71
560.6	25.63
561.025	25.57
561.449	25.47
561.874	25.38
562.299	25.27
562.723	25.15
563.148	25.03
563.572	24.91
563.997	24.78
564.421	24.65
564.846	24.52
565.27	24.39
565.694	24.23
566.118	24.09
566.542	23.95
566.966	23.8
567.39	23.66
567.814	23.51
568.238	23.36
568.662	23.22
569.086	23.08
569.509	22.93
569.933	22.78
570.357	22.63
570.78	22.5
571.204	22.36
571.627	22.23
572.05	22.09
572.474	21.97
572.897	21.84
573.32	21.71
573.743	21.58
574.166	21.46
574.589	21.34
575.012	21.23
575.435	21.1
575.858	20.98
576.281	20.86
576.704	20.75
577.126	20.63
577.549	20.53
577.972	20.42
578.394	20.33
578.817	20.26
579.239	20.19
579.661	20.12
580.084	20.03
580.506	19.97
580.928	19.9
581.35	19.82
581.772	19.75
582.194	19.68
582.616	19.63
583.038	19.56
583.46	19.48
583.882	19.41
584.303	19.33
584.725	19.26
585.147	19.2
585.568	19.14
585.99	19.09
586.411	19.04
586.833	18.98
587.254	18.92
587.675	18.86
588.096	18.8
588.518	18.73
588.939	18.69
589.36	18.65
589.781	18.59
590.202	18.56
590.623	18.51
591.043	18.46
591.464	18.42
591.885	18.37
592.305	18.34
592.726	18.3
593.147	18.29
593.567	18.25
593.987	18.22
594.408	18.19
594.828	18.14
595.248	18.11
595.669	18.09
596.089	18.07
596.509	18.04
596.929	18
597.349	17.97
597.769	17.94
598.189	17.9
598.608	17.86
599.028	17.83
599.448	17.79
599.867	17.74
600.287	17.7
600.706	17.66
601.126	17.62
601.545	17.58
601.965	17.54
602.384	17.49
602.803	17.44
603.222	17.37
603.641	17.31
604.061	17.25
604.48	17.19
604.898	17.11
605.317	17.05
605.736	16.98
606.155	16.91
606.574	16.83
606.992	16.74
607.411	16.66
607.829	16.56
608.248	16.49
608.666	16.4
609.085	16.34
609.503	16.26
609.921	16.18
610.339	16.1
610.758	16.02
611.176	15.93
611.594	15.86
612.012	15.79
612.43	15.73
612.847	15.65
613.265	15.58
613.683	15.5
614.101	15.43
614.518	15.35
614.936	15.28
615.353	15.2
615.771	15.14
616.188	15.08
616.606	15.02
617.023	14.96
617.44	14.91
617.857	14.85
618.274	14.79
618.691	14.74
619.108	14.69
619.525	14.64
619.942	14.61
620.359	14.57
620.776	14.52
621.192	14.5
621.609	14.46
622.026	14.42
622.442	14.41
622.859	14.39
623.275	14.37
623.691	14.34
624.108	14.33
624.524	14.31
624.94	14.29
625.356	14.27
625.772	14.25
626.188	14.24
626.604	14.23
627.02	14.21
627.436	14.2
627.852	14.18
628.268	14.18
628.683	14.17
629.099	14.14
629.514	14.13
629.93	14.12
630.345	14.11
630.761	14.07
631.176	14.02
631.591	13.99
632.007	13.95
632.422	13.91
632.837	13.85
633.252	13.77
633.667	13.72
634.082	13.64
634.497	13.57
634.911	13.47
635.326	13.4
635.741	13.32
636.155	13.23
636.57	13.13
636.984	13.02
637.399	12.92
637.813	12.81
638.228	12.69
638.642	12.58
639.056	12.44
639.47	12.34
639.884	12.22
640.298	12.1
640.712	11.97
641.126	11.85
641.54	11.72
641.954	11.6
642.368	11.48
642.781	11.36
643.195	11.24
643.609	11.12
644.022	11
644.436	10.89
644.849	10.77
645.262	10.67
645.676	10.57
646.089	10.48
646.502	10.41
646.915	10.34
647.328	10.27
647.741	10.21
648.154	10.15
648.567	10.09
648.98	10.02
649.393	9.99
649.805	9.94
650.218	9.88
650.631	9.83
651.043	9.77
651.456	9.73
651.868	9.67
652.28	9.62
652.693	9.58
653.105	9.54
653.517	9.49
653.929	9.42
654.341	9.35
654.753	9.28
655.165	9.21
655.577	9.13
655.989	9.06
656.401	8.98
656.813	8.91
657.224	8.81
657.636	8.72
658.047	8.61
658.459	8.52
658.87	8.42
659.282	8.31
659.693	8.21
660.104	8.1
660.515	8
660.926	7.9
661.338	7.8
661.749	7.7
662.159	7.6
662.57	7.53
662.981	7.45
663.392	7.37
663.803	7.3
664.213	7.23
664.624	7.16
665.035	7.09
665.445	7.04
665.855	6.98
666.266	6.94
666.676	6.9
667.086	6.84
667.497	6.8
667.907	6.76
668.317	6.73
668.727	6.71
669.137	6.7
669.547	6.68
669.956	6.65
670.366	6.64
670.776	6.63
671.186	6.62
671.595	6.62
672.005	6.61
672.414	6.62
672.824	6.63
673.233	6.64
673.642	6.65
674.052	6.66
674.461	6.67
674.87	6.69
675.279	6.71
675.688	6.73
676.097	6.77
676.506	6.8
676.915	6.84
677.323	6.88
677.732	6.91
678.141	6.95
678.549	7
678.958	7.06
679.366	7.13
679.775	7.19
680.183	7.28
680.592	7.38
681	7.48
681.408	7.59
681.816	7.71
682.224	7.86
682.632	8.01
683.04	8.18
683.448	8.37
683.856	8.57
684.264	8.79
684.671	9.03
685.079	9.28
685.487	9.57
685.894	9.88
686.302	10.23
686.709	10.58
687.116	10.96
687.524	11.36
687.931	11.78
688.338	12.22
688.745	12.7
689.152	13.16
689.559	13.66
689.966	14.17
690.373	14.7
690.78	15.22
691.187	15.75
691.593	16.31
692	16.87
692.407	17.43
692.813	18
693.22	18.55
693.626	19.12
694.032	19.7
694.439	20.25
694.845	20.82
695.251	21.38
695.657	21.94
696.063	22.5
696.469	23.05
696.875	23.61
697.281	24.16
697.687	24.71
698.093	25.25
698.498	25.77
698.904	26.3
699.31	26.79
699.715	27.27
700.12	27.76
700.526	28.22
700.931	28.67
701.337	29.09
701.742	29.5
702.147	29.91
702.552	30.33
702.957	30.73
703.362	31.11
703.767	31.47
704.172	31.86
704.577	32.23
704.981	32.6
705.386	32.95
705.791	33.31
706.195	33.67
706.6	34.02
707.004	34.34
707.408	34.69
707.813	35.04
708.217	35.38
708.621	35.7
709.025	36.01
709.43	36.29
709.834	36.61
710.237	36.89
710.641	37.18
711.045	37.44
711.449	37.74
711.853	38
712.256	38.24
712.66	38.5
713.064	38.73
713.467	38.98
713.87	39.26
714.274	39.49
714.677	39.71
715.08	39.94
715.484	40.19
715.887	40.42
716.29	40.61
716.693	40.84
717.096	41.04
717.499	41.26
717.901	41.47
718.304	41.66
718.707	41.86
719.109	42.05
719.512	42.23
719.915	42.39
720.317	42.53
720.719	42.7
721.122	42.85
721.524	43
721.926	43.15
722.328	43.29
722.731	43.43
723.133	43.57
723.535	43.7
723.937	43.85
724.338	44
724.74	44.14
725.142	44.33
725.544	44.43
725.945	44.58
726.347	44.65
726.748	44.77
727.15	44.87
727.551	44.97
727.952	45.08
728.354	45.16
728.755	45.22
729.156	45.31
729.557	45.33
729.958	45.4
730.359	45.47
730.76	45.58
731.161	45.64
731.562	45.73
731.962	45.78
732.363	45.86
732.763	45.93
733.164	46
733.564	46.07
733.965	46.14
734.365	46.23
734.766	46.29
735.166	46.37
735.566	46.42
735.966	46.47
736.366	46.51
736.766	46.53
737.166	46.58
737.566	46.63
737.966	46.65
738.365	46.68
738.765	46.69
739.165	46.73
739.564	46.74
739.964	46.76
740.363	46.79
740.763	46.83
741.162	46.85
741.561	46.86
741.96	46.87
742.36	46.89
742.759	46.91
743.158	46.95
743.557	46.94
743.955	46.97
744.354	47
744.753	47.02
745.152	47.06
745.55	47.1
745.949	47.15
746.348	47.19
746.746	47.21
747.144	47.24
747.543	47.24
747.941	47.29
748.339	47.3
748.737	47.3
749.136	47.32
749.534	47.29
749.932	47.31
750.33	47.29
750.727	47.29
751.125	47.3
751.523	47.28
751.921	47.29
752.318	47.27
752.716	47.27
753.113	47.26
753.511	47.26
753.908	47.28
754.305	47.26
754.703	47.25
755.1	47.25
755.497	47.24
755.894	47.22
756.291	47.23
756.688	47.2
757.085	47.19
757.482	47.18
757.878	47.17
758.275	47.16
758.672	47.16
759.068	47.16
759.465	47.16
759.861	47.16
760.258	47.15
760.654	47.14
761.05	47.15
761.447	47.16
761.843	47.17
762.239	47.16
762.635	47.15
763.031	47.14
763.427	47.12
763.822	47.14
764.218	47.14
764.614	47.17
765.01	47.15
765.405	47.14
765.801	47.11
766.196	47.11
766.592	47.13
766.987	47.14
767.382	47.14
767.778	47.14
768.173	47.14
768.568	47.12
768.963	47.11
769.358	47.15
769.753	47.18
770.148	47.17
770.542	47.18
770.937	47.17
771.332	47.17
771.726	47.18
772.121	47.19
772.515	47.19
772.91	47.19
773.304	47.22
773.699	47.21
774.093	47.22
774.487	47.23
774.881	47.24
775.275	47.24
775.669	47.21
776.063	47.23
776.457	47.26
776.851	47.22
777.245	47.23
777.638	47.2
778.032	47.22
778.425	47.23
778.819	47.23
779.212	47.24
779.606	47.26
779.999	47.28
780.392	47.3
780.786	47.26
781.179	47.31
781.572	47.34
781.965	47.36
782.358	47.35
782.751	47.33
783.143	47.34
783.536	47.35
783.929	47.35
784.322	47.35
784.714	47.35
785.107	47.38
785.499	47.38
785.891	47.36
786.284	47.36
786.676	47.38
787.068	47.4
787.46	47.43
787.852	47.42
788.245	47.41
788.636	47.4
789.028	47.4
789.42	47.39
789.812	47.39
790.204	47.42
790.595	47.44
790.987	47.44
791.378	47.43
791.77	47.41
792.161	47.43
792.553	47.44
792.944	47.45
793.335	47.46
793.726	47.47
794.117	47.46
794.508	47.44
794.899	47.43
795.29	47.43
795.681	47.41
796.072	47.45
796.463	47.44
796.853	47.44
797.244	47.45
797.634	47.5
798.025	47.52
798.415	47.55
798.806	47.55
799.196	47.56
799.586	47.55
799.976	47.58
800.366	47.56
800.756	47.57
801.146	47.61
801.536	47.63
801.926	47.59
802.316	47.59
802.706	47.58
803.095	47.61
803.485	47.63
803.874	47.63
804.264	47.62
804.653	47.66
805.043	47.67
805.432	47.67
805.821	47.65
806.21	47.65
806.599	47.64
806.988	47.66
807.377	47.66
807.766	47.68
808.155	47.71
808.544	47.73
808.933	47.7
809.321	47.71
809.71	47.71
810.098	47.75
810.487	47.77
810.875	47.78
811.264	47.78
811.652	47.78
812.04	47.77
812.428	47.79
812.816	47.81
813.204	47.83
813.592	47.82
813.98	47.84
814.368	47.83
814.756	47.84
815.144	47.85
815.531	47.85
815.919	47.87
816.306	47.89
816.694	47.87
817.081	47.88
817.469	47.89
817.856	47.88
818.243	47.86
818.63	47.84
819.017	47.83
819.404	47.81
819.791	47.82
820.178	47.84
820.565	47.83
820.952	47.8
821.339	47.81
821.725	47.8
822.112	47.83
822.498	47.85
822.885	47.88
823.271	47.88
823.657	47.85
824.044	47.86
824.43	47.85
824.816	47.84
825.202	47.87
825.588	47.87
825.974	47.85
826.36	47.83
826.746	47.81
827.132	47.8
827.517	47.81
827.903	47.84
828.289	47.84
828.674	47.83
829.06	47.8
829.445	47.78
829.83	47.75
830.216	47.77
830.601	47.76
830.986	47.77
831.371	47.75
831.756	47.75
832.141	47.75
832.526	47.74
832.911	47.73
833.295	47.73
833.68	47.72
834.065	47.71
834.449	47.68
834.834	47.68
835.218	47.68
835.603	47.67
835.987	47.63
836.371	47.6
836.755	47.57
837.139	47.54
837.524	47.56
837.908	47.57
838.291	47.6
838.675	47.59
839.059	47.58
839.443	47.56
839.827	47.54
840.21	47.54
840.594	47.54
840.977	47.54
841.361	47.57
841.744	47.51
842.127	47.49
842.511	47.48
842.894	47.46
843.277	47.45
843.66	47.45
844.043	47.47
844.426	47.48
844.809	47.49
845.191	47.52
845.574	47.51
845.957	47.54
846.339	47.56
846.722	47.55
847.104	47.56
847.487	47.54
847.869	47.54
848.252	47.55
848.634	47.55
849.016	47.53
849.398	47.53
849.78	47.51
850.162	47.47
850.544	47.49
850.926	47.48
851.307	47.49
851.689	47.52
852.071	47.53
852.452	47.53
852.834	47.53
853.215	47.53
853.597	47.51
853.978	47.51
854.359	47.56
854.741	47.53
855.122	47.53
855.503	47.52
855.884	47.48
856.265	47.45
856.646	47.43
857.026	47.45
857.407	47.49
857.788	47.48
858.169	47.51
858.549	47.49
858.93	47.5
859.31	47.49
859.69	47.52
860.071	47.57
860.451	47.59
860.831	47.61
861.211	47.58
861.591	47.55
861.971	47.54
862.351	47.54
862.731	47.56
863.111	47.55
863.491	47.56
863.87	47.55
864.25	47.51
864.629	47.51
865.009	47.5
865.388	47.5
865.768	47.51
866.147	47.52
866.526	47.51
866.905	47.52
867.284	47.54
867.663	47.53
868.042	47.53
868.421	47.56
868.8	47.55
869.179	47.56
869.558	47.54
869.936	47.52
870.315	47.52
870.693	47.53
871.072	47.52
871.45	47.52
871.828	47.54
872.207	47.55
872.585	47.54
872.963	47.55
873.341	47.54
873.719	47.55
874.097	47.57
874.475	47.57
874.853	47.56
875.23	47.56
875.608	47.56
875.986	47.57
876.363	47.57
876.741	47.58
877.118	47.59
877.495	47.59
877.873	47.6
878.25	47.63
878.627	47.64
879.004	47.63
879.381	47.65
879.758	47.66
880.135	47.66
880.512	47.64
880.889	47.63
881.265	47.62
881.642	47.62
882.019	47.64
882.395	47.61
882.772	47.59
883.148	47.58
883.524	47.57
883.901	47.58
884.277	47.55
884.653	47.53
885.029	47.51
885.405	47.5
885.781	47.5
886.157	47.48
886.532	47.48
886.908	47.46
887.284	47.46
887.659	47.42
888.035	47.38
888.411	47.38
888.786	47.38
889.161	47.39
889.537	47.38
889.912	47.37
890.287	47.35
890.662	47.32
891.037	47.32
891.412	47.29
891.787	47.28
892.162	47.28
892.536	47.26
892.911	47.26
893.286	47.25
893.66	47.24
894.035	47.25
894.409	47.24
894.784	47.25
895.158	47.25
895.532	47.28
895.906	47.3
896.281	47.3
896.655	47.29
897.029	47.3
897.402	47.29
897.776	47.29
898.15	47.29
898.524	47.32
898.898	47.32
899.271	47.33
899.645	47.33
900.018	47.32
900.392	47.32
900.765	47.34
901.138	47.31
901.511	47.33
901.884	47.35
902.258	47.35
902.631	47.35
903.003	47.35
903.376	47.36
903.749	47.35
904.122	47.37
904.495	47.4
904.867	47.4
905.24	47.44
905.612	47.45
905.985	47.43
906.357	47.44
906.729	47.42
907.102	47.43
907.474	47.44
907.846	47.45
908.218	47.44
908.59	47.46
908.962	47.47
909.334	47.47
909.705	47.48
910.077	47.52
910.449	47.48
910.82	47.49
911.192	47.48
911.563	47.45
911.935	47.45
912.306	47.47
912.677	47.47
913.048	47.49
913.419	47.47
913.79	47.47
914.161	47.46
914.532	47.5
914.903	47.5
915.274	47.52
915.645	47.57
916.015	47.59
916.386	47.59
916.756	47.59
917.127	47.59
917.497	47.61
917.868	47.61
918.238	47.59
918.608	47.62
918.978	47.64
919.348	47.65
919.718	47.63
920.088	47.64
920.458	47.65
920.828	47.64
921.198	47.63
921.567	47.64
921.937	47.67
922.306	47.69
922.676	47.66
923.045	47.62
923.415	47.6
923.784	47.59
924.153	47.6
924.522	47.6
924.891	47.6
925.26	47.59
925.629	47.61
925.998	47.58
926.367	47.57
926.736	47.58
927.104	47.59
927.473	47.58
927.842	47.58
928.21	47.57
928.578	47.55
928.947	47.56
929.315	47.56
929.683	47.53
930.051	47.48
930.42	47.47
930.788	47.47
931.156	47.43
931.523	47.44
931.891	47.46
932.259	47.45
932.627	47.42
932.994	47.37
933.362	47.33
933.729	47.32
934.097	47.33
934.464	47.31
934.831	47.3
935.199	47.32
935.566	47.31
935.933	47.25
936.3	47.24
936.667	47.26
937.034	47.31
937.401	47.36
937.767	47.39
938.134	47.41
938.501	47.47
938.867	47.51
939.234	47.57
939.6	47.62
939.967	47.71
940.333	47.71
940.699	47.8
941.065	47.79
941.431	47.83
941.798	47.82
942.163	47.86
942.529	47.85
942.895	47.83
943.261	47.84
943.627	47.8
943.992	47.81
944.358	47.89
944.723	47.84
945.089	47.81
945.454	47.79
945.82	47.82
946.185	47.85
946.55	47.78
946.915	47.77
947.28	47.75
947.645	47.78
948.01	47.75
948.375	47.71
948.74	47.71
949.104	47.74
949.469	47.73
949.834	47.64
950.198	47.56
950.562	47.56
950.927	47.55
951.291	47.46
951.655	47.43
952.02	47.42
952.384	47.32
952.748	47.28
953.112	47.26
953.476	47.24
953.839	47.22
954.203	47.24
954.567	47.23
954.931	47.19
955.294	47.2
955.658	47.24
956.021	47.23
956.385	47.21
956.748	47.19
957.111	47.13
957.474	47.13
957.837	47.15
958.2	47.13
958.563	47.13
958.926	47.13
959.289	47.1
959.652	47.05
960.015	47
960.377	47.04
960.74	47.05
961.102	47.05
961.465	47.04
961.827	47.06
962.189	47.07
962.552	47.03
962.914	47.01
963.276	47.08
963.638	47.09
964	47.09
964.362	47.05
964.724	47.02
965.085	47
965.447	47.01
965.809	46.97
966.17	46.95
966.532	47.03
966.893	47.04
967.255	47
967.616	46.98
967.977	46.99
968.338	46.99
968.699	47.03
969.061	47.01
969.421	46.96
969.782	46.98
970.143	46.96
970.504	46.94
970.865	46.94
971.225	46.91
971.586	46.92
971.946	46.91
972.307	46.9
972.667	46.84
973.027	46.89
973.388	46.94
973.748	46.92
974.108	46.93
974.468	46.86
974.828	46.88
975.188	46.9
975.548	46.9
975.907	46.94
976.267	46.99
976.627	47.02
976.986	47.04
977.346	46.96
977.705	46.91
978.064	46.94
978.424	47.02
978.783	46.95
979.142	47
979.501	47.01
979.86	46.97
980.219	47
980.578	47.01
980.937	46.96
981.296	47.01
981.654	47.01
982.013	46.99
982.371	47
982.73	47.03
983.088	47
983.447	46.97
983.805	47.03
984.163	46.98
984.521	46.97
984.879	46.98
985.237	46.96
985.595	47.05
985.953	47.06
986.311	46.96
986.669	47.03
987.026	46.97
987.384	47.03
987.741	46.97
988.099	47.01
988.456	47.03
988.814	47.09
989.171	47.14
989.528	47.13
989.885	47.13
990.242	47.24
990.599	47.24
990.956	47.32
991.313	47.29
991.67	47.36
992.027	47.41
992.383	47.43
992.74	47.42
993.096	47.47
993.453	47.5
993.809	47.52
994.165	47.5
994.522	47.56
994.878	47.62
995.234	47.65
995.59	47.7
995.946	47.72
996.302	47.72
996.658	47.79
997.013	47.88
997.369	47.91
997.725	47.92
998.08	48
998.436	47.99
998.791	48.02
999.147	48.09
999.502	48.04
999.857	48.08
1000.212	48.07
1000.567	48.1
1000.922	48.01
1001.277	48.08
1001.632	48.11
1001.987	48.06
1002.342	47.99
1002.696	47.94
1003.051	47.98
1003.406	48.02
1003.76	47.97
1004.114	48.04
1004.469	48.08
1004.823	48.43
1005.177	48.42
1005.531	48.47
1005.885	48.53
1006.239	48.6
1006.593	48.7
1006.947	48.72
1007.301	48.79
1007.655	48.79
1008.008	48.85
1008.362	48.86
1008.715	48.67
1009.069	48.71
1009.422	48.78
1009.776	48.85
1010.129	48.95
1010.482	48.9
1010.835	48.95
1011.188	49.04
1011.541	49.1
1011.894	49.07
1012.247	48.98
1012.6	48.98
1012.952	48.94
1013.305	48.98
1013.657	49.09
1014.01	49.1
1014.362	49.03
1014.715	48.95
1015.067	48.92
1015.419	49.06
1015.771	49.04
1016.123	49.14
1016.475	49.19
1016.827	49.36
1017.179	49.41
1017.531	49.43
1017.883	49.47
1018.234	49.8
1018.586	50.1
1018.938	50.3
1019.289	50.33
1019.64	50.51
1019.992	50.67
1020.343	50.66
1020.694	50.71
1021.045	50.64
1021.396	50.6
1021.747	50.61
1022.098	50.55
1022.449	50.27
1022.8	50.45
1023.151	50.44
1023.501	50.46
1023.852	50.55
1024.202	50.7
1024.553	50.64
1024.903	51.03
1025.253	51.22
1025.604	51.29
1025.954	51.35
1026.304	51.67
1026.654	51.47
1027.004	51.46
1027.354	51.42
1027.703	51.29
1028.053	51.14
1028.403	51.16
1028.753	50.84
1029.102	51.12
1029.452	51.5
1029.801	51.86
1030.15	51.87
1030.499	51.78
897.758	1282.65
901.051	1286.01
904.343	1285.98
907.636	1309.06
910.928	1275.18
914.22	1273.53
917.511	1255.01
920.803	1204.08
924.094	1199.74
927.384	1170.58
930.675	1119.58
933.965	1115.22
937.255	1050.37
940.544	1006.58
943.834	959.49
947.123	950.38
950.411	894.18
953.7	877.35
956.988	830.64
960.276	794.73
963.563	779.19
966.851	752.92
970.138	745.48
973.424	722.09
976.711	726.62
979.997	689.78
983.283	686.61
986.568	672.58
989.853	652.19
993.138	638.59
996.423	616.91
999.708	601.84
1002.992	594.97
1006.275	569.51
1009.559	564.95
1012.842	544.15
1016.125	530.15
1019.408	519.22
1022.69	513.72
1025.972	502.66
1029.254	492.18
1032.536	482.57
1035.817	472.11
1039.098	467.25
1042.379	456.02
1045.659	450.34
1048.939	439.83
1052.219	430.86
1055.498	425.88
1058.778	415.14
1062.057	406.08
1065.335	400.37
1068.614	396.31
1071.892	392.32
1075.17	379.47
1078.447	372.91
1081.724	370.55
1085.001	366.98
1088.278	360.19
1091.554	352.41
1094.83	352.59
1098.106	350.58
1101.382	347.44
1104.657	344.28
1107.932	339.46
1111.206	340.73
1114.481	332.76
1117.755	329.73
1121.029	327.54
1124.302	326.25
1127.575	320.77
1130.848	316.85
1134.121	313.17
1137.393	311.59
1140.665	306.41
1143.937	303.99
1147.208	301.96
1150.48	301.47
1153.75	297.11
1157.021	293.27
1160.291	293.58
1163.561	289.23
1166.831	289.82
1170.101	287.69
1173.37	286.92
1176.639	286.85
1179.907	284.37
1183.176	281.27
1186.444	281
1189.711	280.73
1192.979	279.69
1196.246	277.67
1199.513	279.55
1202.78	277.69
1206.046	277.75
1209.312	275.1
1212.578	275.55
1215.843	277.4
1219.108	276.5
1222.373	282
1225.638	283.98
1228.902	288.08
1232.166	287.83
1235.43	289.83
1238.693	293.61
1241.956	295.2
1245.219	300
1248.482	299.84
1251.744	300.13
1255.006	301
1258.268	293.29
1261.529	290.5
1264.79	288.82
1268.051	287.53
1271.312	284.02
1274.572	280.17
1277.832	277.37
1281.092	273.13
1284.351	270.96
1287.61	270.79
1290.869	266.13
1294.128	265.06
1297.386	265.58
1300.644	261.88
1303.902	263.15
1307.159	262.68
1310.416	262.9
1313.673	262
1316.93	265
1320.186	264.5
1323.442	265.41
1326.697	270.56
1329.953	270.72
1333.208	271.64
1336.463	275.56
1339.717	275.74
1342.972	278.55
1346.226	280.75
1349.479	281.96
1352.733	282.91
1355.986	284.71
1359.238	284.38
1362.491	285.39
1365.743	288.84
1368.995	288.69
1372.247	287.19
1375.498	287.25
1378.749	289.14
1382	286.7
1385.251	288.07
1388.501	285.65
1391.751	287.79
1395	285.97
1398.25	283.56
1401.499	281.87
1404.748	281.44
1407.996	279.99
1411.244	278.64
1414.492	276.99
1417.74	273.48
1420.987	269
1424.234	269.71
1427.481	265.27
1430.728	265.61
1433.974	262.94
1437.22	261.67
1440.465	260.53
1443.711	257.68
1446.956	256.58
1450.201	253.52
1453.445	251.96
1456.689	251.07
1459.933	246.63
1463.177	244.49
1466.42	241.38
1469.663	238.78
1472.906	236.8
1476.148	230.72
1479.391	228.25
1482.633	225.88
1485.874	223
1489.115	221.47
1492.356	218.99
1495.597	218.36
1498.838	215.54
1502.078	213.67
1505.318	212.61
1508.557	212.36
1511.797	212.8
1515.036	211.15
1518.274	210.55
1521.513	208.2
1524.751	208.06
1527.989	207.53
1531.227	206.62
1534.464	207.12
1537.701	205.96
1540.938	205.35
1544.174	202.59
1547.41	202.61
1550.646	201.62
1553.882	201.66
1557.117	199.64
1560.352	198.43
1563.587	197.85
1566.821	196.7
1570.055	194.58
1573.289	193.12
1576.523	193.01
1579.756	191.84
1582.989	190.17
1586.222	190.23
1589.454	188.95
1592.686	190.34
1595.918	189.03
1599.15	188.46
1602.381	188.59
1605.612	188.59
1608.843	188.95
1612.073	188.78
1615.303	189.92
1618.533	190.43
1621.762	189.96
1624.992	190.66
1628.221	190.06
1631.449	190.34
1634.678	189.83
1637.906	191.19
1641.134	191.02
1644.361	190.73
1647.588	191.58
1650.815	190.6
1654.042	189.91
1657.269	191.06
1660.495	190.72
1663.72	190.45
1666.946	190.81
1670.171	191.55
1673.396	190.62
1676.621	190.85
1679.845	191.31
1683.069	191.26
1686.293	192.42
1689.517	193.49
1692.74	193.38
1695.963	194.58
1699.185	196.41
1702.408	196.27
1705.63	197.08
1708.852	197.59
1712.073	198.56
1715.294	198.97
1718.515	199.79
1721.736	199.48
1724.956	200.1
1728.176	200.23
1731.396	201.15
1734.616	200.05
1737.835	201.37
1741.054	200.26
1744.272	200.87
1747.491	202.13
1750.709	202.51
1753.927	202.32
1757.144	201.64
1760.361	202.17
1763.578	203.03
1766.795	202.36
1770.011	204.16
1773.227	204.35
1776.443	206.06
1779.658	207.15
1782.874	206.25
1786.089	207.1
1789.303	207.8
1792.518	210.95
1795.732	210.08
1798.945	212.02
1802.159	212.38
1805.372	212.42
1808.585	215.65
1811.797	216.16
1815.01	216.64
1818.222	218.78
1821.434	221.04
1824.645	221.11
1827.856	223.92
1831.067	226.85
1834.278	226.07
1837.488	227.38
1840.698	229.19
1843.908	227.18
1847.117	228.8
1850.326	230.08
1853.535	229.22
1856.744	231.46
1859.952	232.08
1863.16	230.89
1866.368	228.05
1869.575	230.26
1872.782	227.49
1875.989	226.47
1879.196	225.57
1882.402	223.94
1885.608	224.21
1888.814	224.32
1892.019	222.9
1895.224	221.86
1898.429	221.72
1901.634	223.46
1904.838	222.97
1908.042	224.81
1911.246	226.11
1914.449	227.23
1917.652	227.9
1920.855	227.25
1924.058	227.18
1927.26	226.38
1930.462	227.48
1933.664	228.95
1936.865	226.83
1940.066	226.97
1943.267	225.71
1946.467	225.38
1949.668	226.68
1952.868	228.83
1956.067	229.28
1959.267	229.5
1962.466	230.77
1965.665	228.72
1968.863	229.56
1972.061	233.84
1975.259	234.95
1978.457	237.26
1981.654	238.93
1984.852	239.21
1988.048	238.43
1991.245	241.57
1994.441	244.71
1997.637	245.18
2000.833	251.52
2004.028	254.8
2007.223	256.24
2010.418	259.56
2013.613	263.67
2016.807	266.75
2020.001	269.69
2023.194	273.6
2026.388	278.96
2029.581	284.55
2032.774	288.28
2035.966	293.07
2039.158	293.09
2042.35	297.88
2045.542	300.31
2048.733	305.29
2051.924	308.73
2055.115	313.63
2058.306	314.74
2061.496	316.75
2064.686	317.55
2067.875	323.71
2071.065	324.64
2074.254	322.7
2077.442	327.95
2080.631	328.39
2083.819	331.34
2087.007	332.53
2090.195	335.26
2093.382	338.76
2096.569	337.39
2099.756	342.31
2102.942	342.74
2106.128	345.56
2109.314	355.36
2112.5	352.89
2115.685	360.47
2118.87	360.82
2122.055	369.32
2125.239	371.93
2128.424	375.69
2131.608	379.07
2134.791	383.48
2137.974	385.52
2141.157	387.22
2144.34	386.28
2147.523	392.78
2150.705	390.38
2153.887	394.54
2157.068	393.42
2160.25	390.89
2163.431	392.72
2166.611	397.37
2169.792	405.42
2172.972	409.61
2176.152	412.19
2179.331	418.11
2182.511	424.72
2185.69	429.96
2188.868	438.14
2192.047	439.49
2195.225	453.18
2198.403	464.19
2201.58	470.93
2204.758	480.79
2207.935	489.77
2211.111	499.8
2214.288	504.19
2217.464	505.34
2220.64	512.77
2223.815	519.3
2226.991	540.09
2230.166	540.97
2233.34	550.16
2236.515	561.16
2239.689	559.07
2242.863	563.28
2246.036	578.51
2249.209	574.81
2252.382	584.35
2255.555	602.33
2258.727	604.55
2261.9	608.83
2265.071	613.23
2268.243	623.73
2271.414	630.68
2274.585	645.6
2277.756	650.59
2280.926	654.23
2284.096	669.92
2287.266	685.12
2290.436	688.86
2293.605	702.68
2296.774	722.52
2299.942	746.02
2303.111	750.43
2306.279	765.61
2309.447	776.78
2312.614	797.94
2315.781	818.99
2318.948	860.02
2322.115	844.24
2325.281	894.21
2328.447	876.38
2331.613	910.51
2334.779	900.19
2337.944	939.11
2341.109	947.99
2344.274	969.97
2347.438	1004.85
2350.602	1006.6
2353.766	1035
2356.929	1052.25
2360.092	1044.33
2363.255	1122.55
2366.418	1119.79
2369.58	1143.73
2372.742	1212.15
2375.904	1242.75
2379.066	1239.69
2382.227	1214.02
2385.388	1316.17
2388.548	1315.58
2391.709	1332.5
2394.869	1483.1
2398.029	1416.05
2401.188	1455.77
2404.347	1445.37
2407.506	1422.04
2410.665	1464.85
2413.823	1551.95
2416.981	1643.92
2420.139	1592.34
2423.296	1574.54
2426.453	1647.43
2429.61	1578.07
2432.767	1653.02
2435.923	1638.21
2439.079	1797.56
2442.235	1819.23
2445.391	1800.44
2448.546	1785.35
2451.701	1740.56
2454.855	1734.57
2458.009	1843.84
2461.163	1910.19
2464.317	1985.15
2467.471	2036.3
2470.624	2039.57
2473.777	1980.42
2476.929	1923.35
2480.082	1873.56
2483.234	1854.47
2486.385	1943.6
2489.537	1953.01
2492.688	2019.92
2495.839	1970.2
2498.989	1929.73
2502.14	1936.6
2505.29	1953.12
2508.439	1979.21
2511.589	1983.87
2514.738	2153.44
2517.887	2107.18
2521.035	2225.41
2524.183	2242.49
2527.331	2262.81
2530.479	2249.4
2533.627	2260.11
