Data from C_3_HIR_WI_4N_Splice17_14-05-40-991.txt Node
Date: Sat Mar 07 14:05:40 EST 2020
User: sa697716
Spectrometer: NQ5500242
Trigger mode: 0
Integration Time (sec): 1.450000E-1
Scans to average: 20
Nonlinearity correction enabled: false
Boxcar width: 5
Storing dark spectrum: false
XAxis mode: Wavelengths
Number of Pixels in Spectrum: 512
>>>>>Begin Spectral Data<<<<<
187.83	68.93
188.298	72.38
188.766	46.78
189.233	53.34
189.701	49.67
190.169	53.05
190.636	14.92
191.104	-64.22
191.571	-239.12
192.039	-99.93
192.506	-449.05
192.974	180.9
193.441	239.16
193.908	46.25
194.375	28.7
194.842	18.64
195.31	59.93
195.777	-21.42
196.244	54.2
196.711	51.35
197.177	53.18
197.644	50.35
198.111	50.58
198.578	51.24
199.045	51.8
199.511	51.92
199.978	51.44
200.445	51.58
200.911	51.78
201.378	51.83
201.844	52.07
202.31	51.67
202.777	52.08
203.243	52.37
203.709	52.13
204.176	51.45
204.642	51.53
205.108	51.92
205.574	51.38
206.04	50.68
206.506	49.91
206.972	49.47
207.438	48.91
207.903	48.28
208.369	46.94
208.835	45.59
209.301	44.59
209.766	42.73
210.232	41.07
210.697	39.84
211.163	38.84
211.628	38.08
212.094	36.93
212.559	36.08
213.024	35.11
213.49	34.29
213.955	33.49
214.42	32.65
214.885	31.79
215.35	30.59
215.815	28.94
216.28	26.84
216.745	24.47
217.21	22.06
217.675	19.88
218.14	17.93
218.604	16.27
219.069	14.86
219.534	13.68
219.998	12.72
220.463	11.91
220.927	11.17
221.392	10.62
221.856	10.14
222.32	9.75
222.785	9.4
223.249	9.09
223.713	8.82
224.177	8.6
224.642	8.4
225.106	8.19
225.57	7.97
226.034	7.84
226.497	7.68
226.961	7.51
227.425	7.35
227.889	7.21
228.353	7.08
228.816	6.94
229.28	6.8
229.744	6.67
230.207	6.55
230.671	6.45
231.134	6.32
231.597	6.24
232.061	6.15
232.524	6.07
232.987	5.98
233.45	5.9
233.914	5.84
234.377	5.75
234.84	5.69
235.303	5.64
235.766	5.57
236.229	5.53
236.691	5.45
237.154	5.41
237.617	5.36
238.08	5.3
238.542	5.24
239.005	5.2
239.468	5.16
239.93	5.11
240.393	5.06
240.855	5.01
241.317	4.96
241.78	4.9
242.242	4.83
242.704	4.8
243.166	4.76
243.629	4.72
244.091	4.67
244.553	4.62
245.015	4.57
245.477	4.52
245.939	4.48
246.4	4.45
246.862	4.41
247.324	4.38
247.786	4.33
248.247	4.29
248.709	4.25
249.17	4.21
249.632	4.19
250.093	4.16
250.555	4.13
251.016	4.1
251.477	4.07
251.939	4.04
252.4	4.02
252.861	3.99
253.322	3.96
253.783	3.94
254.244	3.92
254.705	3.88
255.166	3.84
255.627	3.81
256.088	3.79
256.549	3.77
257.009	3.74
257.47	3.7
257.931	3.67
258.391	3.63
258.852	3.6
259.312	3.58
259.773	3.55
260.233	3.53
260.694	3.51
261.154	3.48
261.614	3.45
262.074	3.41
262.534	3.39
262.994	3.37
263.455	3.35
263.915	3.33
264.374	3.31
264.834	3.29
265.294	3.26
265.754	3.25
266.214	3.24
266.673	3.22
267.133	3.2
267.593	3.19
268.052	3.17
268.512	3.16
268.971	3.15
269.431	3.14
269.89	3.13
270.349	3.12
270.809	3.11
271.268	3.1
271.727	3.1
272.186	3.09
272.645	3.08
273.104	3.07
273.563	3.06
274.022	3.05
274.481	3.04
274.94	3.04
275.399	3.03
275.857	3.02
276.316	3.01
276.775	3.01
277.233	3.01
277.692	3
278.15	3
278.609	2.99
279.067	2.99
279.525	2.99
279.984	2.98
280.442	2.98
280.9	2.98
281.358	2.97
281.816	2.97
282.274	2.97
282.732	2.96
283.19	2.96
283.648	2.95
284.106	2.95
284.564	2.94
285.021	2.94
285.479	2.93
285.937	2.92
286.394	2.93
286.852	2.91
287.309	2.92
287.767	2.9
288.224	2.89
288.682	2.89
289.139	2.87
289.596	2.86
290.053	2.85
290.511	2.84
290.968	2.83
291.425	2.81
291.882	2.8
292.339	2.78
292.796	2.77
293.252	2.76
293.709	2.75
294.166	2.75
294.623	2.74
295.079	2.73
295.536	2.72
295.992	2.71
296.449	2.71
296.905	2.71
297.362	2.7
297.818	2.7
298.274	2.7
298.731	2.69
299.187	2.68
299.643	2.68
300.099	2.68
300.555	2.67
301.011	2.67
301.467	2.66
301.923	2.65
302.379	2.65
302.835	2.65
303.291	2.64
303.746	2.64
304.202	2.64
304.658	2.63
305.113	2.63
305.569	2.64
306.024	2.64
306.479	2.64
306.935	2.64
307.39	2.64
307.845	2.65
308.301	2.65
308.756	2.65
309.211	2.65
309.666	2.66
310.121	2.67
310.576	2.67
311.031	2.67
311.486	2.67
311.94	2.68
312.395	2.68
312.85	2.67
313.305	2.67
313.759	2.68
314.214	2.68
314.668	2.66
315.123	2.66
315.577	2.66
316.032	2.66
316.486	2.66
316.94	2.66
317.394	2.65
317.849	2.64
318.303	2.63
318.757	2.62
319.211	2.62
319.665	2.61
320.119	2.59
320.572	2.58
321.026	2.58
321.48	2.57
321.934	2.56
322.387	2.55
322.841	2.55
323.295	2.55
323.748	2.54
324.202	2.54
324.655	2.54
325.108	2.54
325.562	2.54
326.015	2.54
326.468	2.54
326.921	2.54
327.374	2.53
327.827	2.54
328.28	2.54
328.733	2.54
329.186	2.54
329.639	2.54
330.092	2.54
330.545	2.54
330.997	2.55
331.45	2.55
331.903	2.56
332.355	2.57
332.808	2.57
333.26	2.57
333.713	2.56
334.165	2.56
334.617	2.57
335.069	2.57
335.522	2.57
335.974	2.57
336.426	2.57
336.878	2.56
337.33	2.56
337.782	2.56
338.234	2.56
338.686	2.57
339.137	2.58
339.589	2.57
340.041	2.56
340.493	2.56
340.944	2.55
341.396	2.55
341.847	2.55
342.299	2.54
342.75	2.52
343.201	2.51
343.653	2.5
344.104	2.48
344.555	2.47
345.006	2.46
345.457	2.46
345.908	2.44
346.359	2.44
346.81	2.43
347.261	2.43
347.712	2.43
348.163	2.43
348.613	2.43
349.064	2.43
349.515	2.43
349.965	2.43
350.416	2.42
350.866	2.42
351.317	2.42
351.767	2.42
352.217	2.42
352.668	2.42
353.118	2.42
353.568	2.42
354.018	2.42
354.468	2.43
354.918	2.42
355.368	2.44
355.818	2.44
356.268	2.44
356.718	2.44
357.168	2.43
357.617	2.44
358.067	2.44
358.517	2.45
358.966	2.45
359.416	2.45
359.865	2.45
360.315	2.45
360.764	2.46
361.213	2.45
361.663	2.45
362.112	2.47
362.561	2.48
363.01	2.49
363.459	2.49
363.908	2.49
364.357	2.5
364.806	2.51
365.255	2.52
365.703	2.53
366.152	2.56
366.601	2.57
367.05	2.58
367.498	2.58
367.947	2.59
368.395	2.62
368.844	2.63
369.292	2.64
369.74	2.65
370.189	2.66
370.637	2.67
371.085	2.68
371.533	2.69
371.981	2.71
372.429	2.73
372.877	2.74
373.325	2.76
373.773	2.78
374.221	2.8
374.669	2.81
375.116	2.83
375.564	2.85
376.012	2.87
376.459	2.88
376.907	2.91
377.354	2.93
377.801	2.96
378.249	2.98
378.696	2.99
379.143	3.02
379.591	3.05
380.038	3.07
380.485	3.1
380.932	3.12
381.379	3.16
381.826	3.18
382.273	3.21
382.72	3.21
383.166	3.24
383.613	3.26
384.06	3.29
384.506	3.31
384.953	3.34
385.4	3.36
385.846	3.4
386.292	3.43
386.739	3.45
387.185	3.48
387.631	3.52
388.078	3.55
388.524	3.59
388.97	3.62
389.416	3.65
389.862	3.68
390.308	3.72
390.754	3.75
391.2	3.78
391.645	3.82
392.091	3.85
392.537	3.89
392.983	3.91
393.428	3.95
393.874	3.99
394.319	4.03
394.765	4.05
395.21	4.07
395.655	4.1
396.101	4.12
396.546	4.14
396.991	4.17
397.436	4.19
397.881	4.23
398.326	4.26
398.771	4.29
399.216	4.31
399.661	4.34
400.106	4.37
400.551	4.39
400.995	4.4
401.44	4.43
401.885	4.44
402.329	4.47
402.774	4.48
403.218	4.5
403.663	4.52
404.107	4.53
404.551	4.55
404.995	4.56
405.44	4.58
405.884	4.6
406.328	4.61
406.772	4.61
407.216	4.62
407.66	4.63
408.104	4.63
408.547	4.64
408.991	4.65
409.435	4.67
409.879	4.68
410.322	4.7
410.766	4.72
411.209	4.75
411.653	4.77
412.096	4.79
412.54	4.81
412.983	4.81
413.426	4.84
413.869	4.86
414.312	4.89
414.756	4.91
415.199	4.91
415.642	4.93
416.085	4.92
416.527	4.93
416.97	4.92
417.413	4.92
417.856	4.93
418.298	4.92
418.741	4.91
419.184	4.9
419.626	4.9
420.069	4.91
420.511	4.91
420.953	4.91
421.396	4.92
421.838	4.93
422.28	4.93
422.722	4.96
423.164	4.98
423.606	4.99
424.048	5.01
424.49	5.01
424.932	5
425.374	4.98
425.816	4.96
426.258	4.93
426.699	4.92
427.141	4.91
427.582	4.88
428.024	4.87
428.465	4.88
428.907	4.87
429.348	4.86
429.789	4.85
430.231	4.88
430.672	4.9
431.113	4.94
431.554	4.97
431.995	4.98
432.436	5
432.877	5.01
433.318	5.02
433.759	5.02
434.2	5.05
434.64	5.07
435.081	5.07
435.522	5.07
435.962	5.08
436.403	5.1
436.843	5.12
437.284	5.13
437.724	5.13
438.164	5.14
438.604	5.15
439.045	5.15
439.485	5.15
439.925	5.16
440.365	5.19
440.805	5.2
441.245	5.22
441.685	5.23
442.125	5.25
442.564	5.27
443.004	5.3
443.444	5.32
443.883	5.34
444.323	5.35
444.762	5.37
445.202	5.37
445.641	5.4
446.081	5.42
446.52	5.44
446.959	5.47
447.398	5.5
447.837	5.51
448.276	5.52
448.716	5.54
449.154	5.59
449.593	5.61
450.032	5.63
450.471	5.62
450.91	5.62
451.349	5.65
451.787	5.64
452.226	5.62
452.664	5.62
453.103	5.61
453.541	5.61
453.98	5.61
454.418	5.59
454.856	5.58
455.295	5.58
455.733	5.57
456.171	5.55
456.609	5.53
457.047	5.53
457.485	5.52
457.923	5.52
458.361	5.49
458.798	5.48
459.236	5.47
459.674	5.46
460.111	5.43
460.549	5.44
460.987	5.44
461.424	5.44
461.862	5.43
462.299	5.44
462.736	5.43
463.173	5.44
463.611	5.44
464.048	5.45
464.485	5.46
464.922	5.48
465.359	5.49
465.796	5.5
466.233	5.5
466.67	5.51
467.106	5.52
467.543	5.53
467.98	5.53
468.416	5.53
468.853	5.53
469.29	5.53
469.726	5.53
470.162	5.53
470.599	5.54
471.035	5.54
471.471	5.53
471.907	5.53
472.344	5.52
472.78	5.54
473.216	5.53
473.652	5.53
474.088	5.52
474.523	5.52
474.959	5.52
475.395	5.49
475.831	5.48
476.266	5.49
476.702	5.48
477.138	5.48
477.573	5.47
478.008	5.47
478.444	5.47
478.879	5.48
479.314	5.47
479.75	5.47
480.185	5.47
480.62	5.47
481.055	5.46
481.49	5.45
481.925	5.45
482.36	5.45
482.795	5.44
483.229	5.45
483.664	5.44
484.099	5.44
484.534	5.44
484.968	5.45
485.403	5.46
485.837	5.48
486.271	5.5
486.706	5.5
487.14	5.52
487.574	5.54
488.009	5.56
488.443	5.59
488.877	5.61
489.311	5.64
489.745	5.67
490.179	5.7
490.613	5.74
491.046	5.77
491.48	5.82
491.914	5.86
492.348	5.89
492.781	5.94
493.215	6
493.648	6.06
494.082	6.12
494.515	6.17
494.948	6.22
495.382	6.27
495.815	6.35
496.248	6.42
496.681	6.5
497.114	6.58
497.547	6.65
497.98	6.72
498.413	6.8
498.846	6.88
499.279	6.98
499.711	7.07
500.144	7.18
500.577	7.27
501.009	7.38
501.442	7.49
501.874	7.61
502.306	7.73
502.739	7.86
503.171	8
503.603	8.14
504.036	8.29
504.468	8.44
504.9	8.57
505.332	8.73
505.764	8.89
506.196	9.06
506.627	9.23
507.059	9.4
507.491	9.57
507.923	9.75
508.354	9.93
508.786	10.12
509.217	10.31
509.649	10.51
510.08	10.71
510.512	10.92
510.943	11.13
511.374	11.33
511.805	11.55
512.237	11.77
512.668	11.98
513.099	12.2
513.53	12.42
513.961	12.64
514.391	12.89
514.822	13.12
515.253	13.34
515.684	13.57
516.114	13.8
516.545	14.04
516.975	14.28
517.406	14.52
517.836	14.75
518.267	14.99
518.697	15.22
519.127	15.44
519.558	15.66
519.988	15.9
520.418	16.12
520.848	16.35
521.278	16.55
521.708	16.89
522.138	17.09
522.567	17.29
522.997	17.48
523.427	17.67
523.857	17.86
524.286	18.03
524.716	18.2
525.145	18.36
525.575	18.52
526.004	18.69
526.433	18.72
526.863	18.87
527.292	19.03
527.721	19.16
528.15	19.3
528.579	19.43
529.008	19.57
529.437	19.69
529.866	19.8
530.295	19.91
530.724	20.01
531.152	20.12
531.581	20.21
532.01	20.3
532.438	20.39
532.867	20.46
533.295	20.53
533.723	20.58
534.152	20.64
534.58	20.71
535.008	20.75
535.436	20.8
535.865	20.83
536.293	20.87
536.721	20.89
537.149	20.93
537.576	20.95
538.004	20.99
538.432	21.02
538.86	21.04
539.287	21.07
539.715	21.11
540.143	21.13
540.57	21.15
540.998	21.16
541.425	21.18
541.852	21.2
542.28	21.24
542.707	21.25
543.134	21.28
543.561	21.3
543.988	21.31
544.415	21.33
544.842	21.34
545.269	21.37
545.696	21.41
546.123	21.42
546.549	21.44
546.976	21.46
547.403	21.48
547.829	21.49
548.256	21.52
548.682	21.54
549.108	21.55
549.535	21.58
549.961	21.59
550.387	21.58
550.813	21.59
551.24	21.6
551.666	21.61
552.092	21.62
552.518	21.64
552.943	21.63
553.369	21.62
553.795	21.59
554.221	21.58
554.646	21.55
555.072	21.54
555.498	21.5
555.923	21.46
556.349	21.41
556.774	21.36
557.199	21.31
557.625	21.26
558.05	21.21
558.475	21.18
558.9	21.13
559.325	21.08
559.75	21.02
560.175	20.97
560.6	20.9
561.025	20.84
561.449	20.76
561.874	20.67
562.299	20.59
562.723	20.51
563.148	20.4
563.572	20.29
563.997	20.18
564.421	20.06
564.846	19.95
565.27	19.84
565.694	19.73
566.118	19.62
566.542	19.5
566.966	19.37
567.39	19.25
567.814	19.13
568.238	19.01
568.662	18.89
569.086	18.77
569.509	18.67
569.933	18.55
570.357	18.43
570.78	18.31
571.204	18.2
571.627	18.1
572.05	17.98
572.474	17.9
572.897	17.8
573.32	17.7
573.743	17.6
574.166	17.52
574.589	17.42
575.012	17.32
575.435	17.24
575.858	17.16
576.281	17.07
576.704	16.99
577.126	16.9
577.549	16.81
577.972	16.74
578.394	16.66
578.817	16.57
579.239	16.52
579.661	16.47
580.084	16.4
580.506	16.34
580.928	16.27
581.35	16.21
581.772	16.15
582.194	16.1
582.616	16.04
583.038	15.98
583.46	15.92
583.882	15.86
584.303	15.8
584.725	15.75
585.147	15.68
585.568	15.63
585.99	15.58
586.411	15.53
586.833	15.47
587.254	15.43
587.675	15.39
588.096	15.35
588.518	15.31
588.939	15.28
589.36	15.24
589.781	15.21
590.202	15.18
590.623	15.15
591.043	15.11
591.464	15.09
591.885	15.06
592.305	15.02
592.726	15
593.147	14.97
593.567	14.94
593.987	14.91
594.408	14.88
594.828	14.84
595.248	14.83
595.669	14.82
596.089	14.79
596.509	14.77
596.929	14.75
597.349	14.7
597.769	14.69
598.189	14.65
598.608	14.63
599.028	14.61
599.448	14.57
599.867	14.53
600.287	14.49
600.706	14.45
601.126	14.41
601.545	14.36
601.965	14.33
602.384	14.28
602.803	14.24
603.222	14.19
603.641	14.15
604.061	14.1
604.48	14.06
604.898	14.01
605.317	13.95
605.736	13.9
606.155	13.85
606.574	13.78
606.992	13.71
607.411	13.65
607.829	13.56
608.248	13.49
608.666	13.43
609.085	13.35
609.503	13.3
609.921	13.24
610.339	13.17
610.758	13.12
611.176	13.05
611.594	12.99
612.012	12.93
612.43	12.88
612.847	12.82
613.265	12.75
613.683	12.7
614.101	12.63
614.518	12.56
614.936	12.49
615.353	12.42
615.771	12.37
616.188	12.32
616.606	12.28
617.023	12.23
617.44	12.18
617.857	12.14
618.274	12.08
618.691	12.04
619.108	12.01
619.525	11.98
619.942	11.96
620.359	11.93
620.776	11.89
621.192	11.86
621.609	11.84
622.026	11.81
622.442	11.79
622.859	11.77
623.275	11.74
623.691	11.72
624.108	11.71
624.524	11.69
624.94	11.67
625.356	11.65
625.772	11.64
626.188	11.63
626.604	11.62
627.02	11.62
627.436	11.6
627.852	11.6
628.268	11.58
628.683	11.57
629.099	11.56
629.514	11.54
629.93	11.54
630.345	11.5
630.761	11.47
631.176	11.45
631.591	11.4
632.007	11.38
632.422	11.34
632.837	11.29
633.252	11.23
633.667	11.18
634.082	11.12
634.497	11.06
634.911	11
635.326	10.95
635.741	10.88
636.155	10.82
636.57	10.74
636.984	10.67
637.399	10.6
637.813	10.51
638.228	10.43
638.642	10.33
639.056	10.23
639.47	10.14
639.884	10.03
640.298	9.93
640.712	9.83
641.126	9.72
641.54	9.61
641.954	9.5
642.368	9.4
642.781	9.3
643.195	9.21
643.609	9.11
644.022	9.01
644.436	8.92
644.849	8.83
645.262	8.74
645.676	8.67
646.089	8.6
646.502	8.52
646.915	8.46
647.328	8.4
647.741	8.33
648.154	8.27
648.567	8.22
648.98	8.18
649.393	8.14
649.805	8.1
650.218	8.06
650.631	8.03
651.043	7.98
651.456	7.94
651.868	7.89
652.28	7.85
652.693	7.81
653.105	7.76
653.517	7.72
653.929	7.68
654.341	7.62
654.753	7.56
655.165	7.5
655.577	7.44
655.989	7.38
656.401	7.32
656.813	7.25
657.224	7.19
657.636	7.11
658.047	7.04
658.459	6.96
658.87	6.89
659.282	6.8
659.693	6.73
660.104	6.65
660.515	6.57
660.926	6.48
661.338	6.41
661.749	6.33
662.159	6.25
662.57	6.19
662.981	6.12
663.392	6.05
663.803	5.99
664.213	5.93
664.624	5.87
665.035	5.82
665.445	5.77
665.855	5.72
666.266	5.68
666.676	5.65
667.086	5.6
667.497	5.57
667.907	5.54
668.317	5.51
668.727	5.49
669.137	5.47
669.547	5.45
669.956	5.44
670.366	5.44
670.776	5.42
671.186	5.42
671.595	5.42
672.005	5.41
672.414	5.41
672.824	5.41
673.233	5.42
673.642	5.43
674.052	5.43
674.461	5.45
674.87	5.45
675.279	5.47
675.688	5.48
676.097	5.51
676.506	5.55
676.915	5.58
677.323	5.62
677.732	5.66
678.141	5.7
678.549	5.74
678.958	5.8
679.366	5.87
679.775	5.93
680.183	6
680.592	6.08
681	6.17
681.408	6.25
681.816	6.36
682.224	6.47
682.632	6.6
683.04	6.74
683.448	6.87
683.856	7.02
684.264	7.19
684.671	7.38
685.079	7.59
685.487	7.81
685.894	8.05
686.302	8.31
686.709	8.59
687.116	8.88
687.524	9.21
687.931	9.56
688.338	9.92
688.745	10.3
689.152	10.67
689.559	11.07
689.966	11.48
690.373	11.9
690.78	12.33
691.187	12.76
691.593	13.21
692	13.65
692.407	14.08
692.813	14.54
693.22	14.99
693.626	15.46
694.032	15.91
694.439	16.35
694.845	16.82
695.251	17.27
695.657	17.72
696.063	18.17
696.469	18.61
696.875	19.05
697.281	19.46
697.687	19.89
698.093	20.31
698.498	20.71
698.904	21.13
699.31	21.5
699.715	21.89
700.12	22.28
700.526	22.65
700.931	23.02
701.337	23.37
701.742	23.72
702.147	24.05
702.552	24.4
702.957	24.72
703.362	25.06
703.767	25.37
704.172	25.67
704.577	25.95
704.981	26.22
705.386	26.5
705.791	26.79
706.195	27.06
706.6	27.33
707.004	27.58
707.408	27.85
707.813	28.11
708.217	28.36
708.621	28.61
709.025	28.85
709.43	29.1
709.834	29.36
710.237	29.59
710.641	29.82
711.045	30.04
711.449	30.26
711.853	30.49
712.256	30.68
712.66	30.89
713.064	31.08
713.467	31.27
713.87	31.48
714.274	31.66
714.677	31.85
715.08	32
715.484	32.18
715.887	32.35
716.29	32.49
716.693	32.67
717.096	32.85
717.499	33.03
717.901	33.2
718.304	33.35
718.707	33.49
719.109	33.66
719.512	33.83
719.915	33.98
720.317	34.13
720.719	34.25
721.122	34.37
721.524	34.47
721.926	34.58
722.328	34.7
722.731	34.82
723.133	34.94
723.535	35.03
723.937	35.14
724.338	35.23
724.74	35.33
725.142	35.5
725.544	35.58
725.945	35.7
726.347	35.78
726.748	35.88
727.15	35.95
727.551	36.01
727.952	36.09
728.354	36.16
728.755	36.22
729.156	36.27
729.557	36.29
729.958	36.35
730.359	36.39
730.76	36.48
731.161	36.53
731.562	36.61
731.962	36.66
732.363	36.72
732.763	36.79
733.164	36.84
733.564	36.9
733.965	36.94
734.365	37
734.766	37.05
735.166	37.09
735.566	37.15
735.966	37.17
736.366	37.21
736.766	37.24
737.166	37.29
737.566	37.32
737.966	37.34
738.365	37.37
738.765	37.39
739.165	37.41
739.564	37.45
739.964	37.46
740.363	37.47
740.763	37.5
741.162	37.52
741.561	37.54
741.96	37.57
742.36	37.61
742.759	37.62
743.158	37.63
743.557	37.66
743.955	37.68
744.354	37.7
744.753	37.75
745.152	37.79
745.55	37.81
745.949	37.83
746.348	37.84
746.746	37.85
747.144	37.89
747.543	37.94
747.941	37.94
748.339	37.93
748.737	37.93
749.136	37.91
749.534	37.88
749.932	37.89
750.33	37.88
750.727	37.88
751.125	37.86
751.523	37.85
751.921	37.85
752.318	37.85
752.716	37.86
753.113	37.85
753.511	37.88
753.908	37.89
754.305	37.9
754.703	37.89
755.1	37.89
755.497	37.89
755.894	37.86
756.291	37.83
756.688	37.8
757.085	37.8
757.482	37.77
757.878	37.74
758.275	37.73
758.672	37.7
759.068	37.7
759.465	37.69
759.861	37.68
760.258	37.7
760.654	37.7
761.05	37.72
761.447	37.7
761.843	37.72
762.239	37.72
762.635	37.72
763.031	37.73
763.427	37.72
763.822	37.74
764.218	37.76
764.614	37.77
765.01	37.76
765.405	37.76
765.801	37.76
766.196	37.77
766.592	37.76
766.987	37.79
767.382	37.79
767.778	37.82
768.173	37.8
768.568	37.8
768.963	37.8
769.358	37.83
769.753	37.81
770.148	37.82
770.542	37.84
770.937	37.85
771.332	37.82
771.726	37.81
772.121	37.8
772.515	37.8
772.91	37.81
773.304	37.82
773.699	37.8
774.093	37.81
774.487	37.8
774.881	37.79
775.275	37.8
775.669	37.8
776.063	37.81
776.457	37.83
776.851	37.83
777.245	37.8
777.638	37.8
778.032	37.81
778.425	37.84
778.819	37.85
779.212	37.85
779.606	37.85
779.999	37.85
780.392	37.87
780.786	37.84
781.179	37.83
781.572	37.89
781.965	37.89
782.358	37.91
782.751	37.9
783.143	37.93
783.536	37.95
783.929	37.94
784.322	37.97
784.714	37.96
785.107	37.99
785.499	38
785.891	37.99
786.284	37.99
786.676	37.99
787.068	38.01
787.46	38.01
787.852	38.01
788.245	38.02
788.636	38.01
789.028	38.02
789.42	38
789.812	38.03
790.204	38.01
790.595	38.03
790.987	38.05
791.378	38.05
791.77	38.07
792.161	38.06
792.553	38.05
792.944	38.04
793.335	38.06
793.726	38.09
794.117	38.1
794.508	38.08
794.899	38.08
795.29	38.06
795.681	38.05
796.072	38.04
796.463	38.07
796.853	38.08
797.244	38.09
797.634	38.09
798.025	38.11
798.415	38.1
798.806	38.12
799.196	38.11
799.586	38.12
799.976	38.15
800.366	38.16
800.756	38.15
801.146	38.17
801.536	38.19
801.926	38.19
802.316	38.18
802.706	38.18
803.095	38.18
803.485	38.21
803.874	38.23
804.264	38.23
804.653	38.23
805.043	38.24
805.432	38.23
805.821	38.23
806.21	38.26
806.599	38.25
806.988	38.24
807.377	38.25
807.766	38.27
808.155	38.26
808.544	38.26
808.933	38.28
809.321	38.29
809.71	38.29
810.098	38.33
810.487	38.31
810.875	38.34
811.264	38.35
811.652	38.36
812.04	38.37
812.428	38.39
812.816	38.4
813.204	38.41
813.592	38.41
813.98	38.43
814.368	38.45
814.756	38.46
815.144	38.44
815.531	38.47
815.919	38.49
816.306	38.5
816.694	38.49
817.081	38.49
817.469	38.49
817.856	38.46
818.243	38.45
818.63	38.43
819.017	38.43
819.404	38.45
819.791	38.43
820.178	38.42
820.565	38.39
820.952	38.39
821.339	38.4
821.725	38.41
822.112	38.46
822.498	38.48
822.885	38.48
823.271	38.47
823.657	38.43
824.044	38.42
824.43	38.42
824.816	38.45
825.202	38.45
825.588	38.44
825.974	38.4
826.36	38.38
826.746	38.37
827.132	38.36
827.517	38.38
827.903	38.4
828.289	38.41
828.674	38.41
829.06	38.38
829.445	38.36
829.83	38.36
830.216	38.37
830.601	38.35
830.986	38.35
831.371	38.35
831.756	38.33
832.141	38.33
832.526	38.32
832.911	38.31
833.295	38.31
833.68	38.31
834.065	38.3
834.449	38.29
834.834	38.3
835.218	38.28
835.603	38.27
835.987	38.25
836.371	38.23
836.755	38.2
837.139	38.17
837.524	38.16
837.908	38.18
838.291	38.2
838.675	38.19
839.059	38.19
839.443	38.17
839.827	38.19
840.21	38.2
840.594	38.2
840.977	38.21
841.361	38.21
841.744	38.2
842.127	38.17
842.511	38.13
842.894	38.13
843.277	38.11
843.66	38.09
844.043	38.07
844.426	38.06
844.809	38.07
845.191	38.1
845.574	38.12
845.957	38.12
846.339	38.12
846.722	38.13
847.104	38.11
847.487	38.11
847.869	38.12
848.252	38.12
848.634	38.11
849.016	38.13
849.398	38.11
849.78	38.09
850.162	38.08
850.544	38.1
850.926	38.12
851.307	38.15
851.689	38.16
852.071	38.19
852.452	38.2
852.834	38.23
853.215	38.21
853.597	38.22
853.978	38.22
854.359	38.22
854.741	38.17
855.122	38.16
855.503	38.17
855.884	38.15
856.265	38.15
856.646	38.16
857.026	38.17
857.407	38.17
857.788	38.16
858.169	38.2
858.549	38.2
858.93	38.23
859.31	38.26
859.69	38.26
860.071	38.3
860.451	38.29
860.831	38.29
861.211	38.26
861.591	38.25
861.971	38.26
862.351	38.26
862.731	38.28
863.111	38.27
863.491	38.25
863.87	38.22
864.25	38.21
864.629	38.23
865.009	38.23
865.388	38.24
865.768	38.25
866.147	38.23
866.526	38.2
866.905	38.19
867.284	38.21
867.663	38.21
868.042	38.23
868.421	38.23
868.8	38.23
869.179	38.22
869.558	38.21
869.936	38.21
870.315	38.21
870.693	38.21
871.072	38.23
871.45	38.23
871.828	38.24
872.207	38.26
872.585	38.24
872.963	38.23
873.341	38.23
873.719	38.24
874.097	38.25
874.475	38.27
874.853	38.29
875.23	38.31
875.608	38.3
875.986	38.31
876.363	38.31
876.741	38.32
877.118	38.33
877.495	38.33
877.873	38.33
878.25	38.36
878.627	38.36
879.004	38.34
879.381	38.33
879.758	38.31
880.135	38.3
880.512	38.25
880.889	38.24
881.265	38.23
881.642	38.23
882.019	38.24
882.395	38.22
882.772	38.22
883.148	38.24
883.524	38.23
883.901	38.25
884.277	38.23
884.653	38.23
885.029	38.22
885.405	38.21
885.781	38.21
886.157	38.23
886.532	38.23
886.908	38.21
887.284	38.2
887.659	38.17
888.035	38.16
888.411	38.17
888.786	38.2
889.161	38.21
889.537	38.21
889.912	38.2
890.287	38.17
890.662	38.14
891.037	38.14
891.412	38.13
891.787	38.11
892.162	38.11
892.536	38.12
892.911	38.1
893.286	38.07
893.66	38.05
894.035	38.04
894.409	38.03
894.784	38.03
895.158	38.02
895.532	38.02
895.906	38.02
896.281	38.01
896.655	37.97
897.029	37.96
897.402	37.96
897.776	37.97
898.15	38
898.524	38.01
898.898	38
899.271	38.02
899.645	38.03
900.018	38.05
900.392	38.08
900.765	38.11
901.138	38.1
901.511	38.12
901.884	38.13
902.258	38.12
902.631	38.12
903.003	38.15
903.376	38.12
903.749	38.11
904.122	38.12
904.495	38.13
904.867	38.13
905.24	38.16
905.612	38.19
905.985	38.18
906.357	38.18
906.729	38.18
907.102	38.17
907.474	38.18
907.846	38.18
908.218	38.18
908.59	38.18
908.962	38.17
909.334	38.16
909.705	38.17
910.077	38.18
910.449	38.18
910.82	38.18
911.192	38.17
911.563	38.17
911.935	38.16
912.306	38.17
912.677	38.18
913.048	38.23
913.419	38.21
913.79	38.21
914.161	38.23
914.532	38.24
914.903	38.25
915.274	38.25
915.645	38.28
916.015	38.29
916.386	38.28
916.756	38.26
917.127	38.21
917.497	38.23
917.868	38.23
918.238	38.19
918.608	38.21
918.978	38.23
919.348	38.26
919.718	38.25
920.088	38.24
920.458	38.26
920.828	38.26
921.198	38.26
921.567	38.28
921.937	38.28
922.306	38.28
922.676	38.28
923.045	38.27
923.415	38.24
923.784	38.26
924.153	38.27
924.522	38.26
924.891	38.28
925.26	38.29
925.629	38.28
925.998	38.26
926.367	38.28
926.736	38.25
927.104	38.25
927.473	38.25
927.842	38.23
928.21	38.27
928.578	38.26
928.947	38.26
929.315	38.26
929.683	38.23
930.051	38.23
930.42	38.2
930.788	38.2
931.156	38.19
931.523	38.19
931.891	38.18
932.259	38.15
932.627	38.16
932.994	38.16
933.362	38.13
933.729	38.17
934.097	38.16
934.464	38.2
934.831	38.21
935.199	38.22
935.566	38.24
935.933	38.16
936.3	38.16
936.667	38.13
937.034	38.14
937.401	38.15
937.767	38.17
938.134	38.2
938.501	38.18
938.867	38.26
939.234	38.26
939.6	38.28
939.967	38.41
940.333	38.45
940.699	38.51
941.065	38.54
941.431	38.6
941.798	38.58
942.163	38.58
942.529	38.6
942.895	38.58
943.261	38.6
943.627	38.61
943.992	38.65
944.358	38.67
944.723	38.64
945.089	38.62
945.454	38.58
945.82	38.56
946.185	38.6
946.55	38.53
946.915	38.53
947.28	38.49
947.645	38.47
948.01	38.4
948.375	38.33
948.74	38.37
949.104	38.38
949.469	38.39
949.834	38.37
950.198	38.33
950.562	38.31
950.927	38.26
951.291	38.21
951.655	38.16
952.02	38.16
952.384	38.13
952.748	38.06
953.112	38.02
953.476	37.97
953.839	37.96
954.203	37.94
954.567	37.94
954.931	37.93
955.294	37.92
955.658	37.94
956.021	37.9
956.385	37.88
956.748	37.86
957.111	37.83
957.474	37.82
957.837	37.79
958.2	37.76
958.563	37.7
958.926	37.67
959.289	37.69
959.652	37.67
960.015	37.69
960.377	37.71
960.74	37.74
961.102	37.73
961.465	37.76
961.827	37.78
962.189	37.81
962.552	37.85
962.914	37.85
963.276	37.85
963.638	37.83
964	37.79
964.362	37.76
964.724	37.74
965.085	37.75
965.447	37.75
965.809	37.72
966.17	37.66
966.532	37.63
966.893	37.68
967.255	37.7
967.616	37.68
967.977	37.74
968.338	37.76
968.699	37.72
969.061	37.7
969.421	37.66
969.782	37.67
970.143	37.7
970.504	37.73
970.865	37.73
971.225	37.65
971.586	37.66
971.946	37.63
972.307	37.62
972.667	37.64
973.027	37.66
973.388	37.66
973.748	37.66
974.108	37.71
974.468	37.7
974.828	37.71
975.188	37.74
975.548	37.75
975.907	37.77
976.267	37.74
976.627	37.76
976.986	37.74
977.346	37.69
977.705	37.71
978.064	37.7
978.424	37.74
978.783	37.7
979.142	37.75
979.501	37.77
979.86	37.82
980.219	37.88
980.578	37.93
980.937	37.92
981.296	37.98
981.654	38.01
982.013	38.02
982.371	37.94
982.73	38.01
983.088	37.98
983.447	37.93
983.805	37.94
984.163	37.92
984.521	37.91
984.879	37.94
985.237	37.95
985.595	37.93
985.953	37.84
986.311	37.86
986.669	37.81
987.026	37.86
987.384	37.97
987.741	37.91
988.099	37.9
988.456	37.87
988.814	37.87
989.171	37.89
989.528	37.94
989.885	38
990.242	38.05
990.599	38.09
990.956	38.14
991.313	38.05
991.67	38.14
992.027	38.28
992.383	38.34
992.74	38.42
993.096	38.43
993.453	38.37
993.809	38.4
994.165	38.48
994.522	38.49
994.878	38.4
995.234	38.43
995.59	38.38
995.946	38.41
996.302	38.41
996.658	38.47
997.013	38.48
997.369	38.57
997.725	38.66
998.08	38.73
998.436	38.77
998.791	38.92
999.147	38.95
999.502	39.07
999.857	38.99
1000.212	38.96
1000.567	38.91
1000.922	38.98
1001.277	39.02
1001.632	38.89
1001.987	38.81
1002.342	38.78
1002.696	38.76
1003.051	38.98
1003.406	39.02
1003.76	39.03
1004.114	39.02
1004.469	39.1
1004.823	39.28
1005.177	39.3
1005.531	39.43
1005.885	39.41
1006.239	39.45
1006.593	39.59
1006.947	39.46
1007.301	39.44
1007.655	39.4
1008.008	39.59
1008.362	39.55
1008.715	39.48
1009.069	39.5
1009.422	39.45
1009.776	39.62
1010.129	39.74
1010.482	39.74
1010.835	39.84
1011.188	39.78
1011.541	39.92
1011.894	39.89
1012.247	40.02
1012.6	40.04
1012.952	40.09
1013.305	40.12
1013.657	40.24
1014.01	40.28
1014.362	40.16
1014.715	40.15
1015.067	40.22
1015.419	40.24
1015.771	40.39
1016.123	40.41
1016.475	40.45
1016.827	40.36
1017.179	40.66
1017.531	40.68
1017.883	40.69
1018.234	40.88
1018.586	41.04
1018.938	41.33
1019.289	41.29
1019.64	41.27
1019.992	41.32
1020.343	41.38
1020.694	41.74
1021.045	41.68
1021.396	41.72
1021.747	42.11
1022.098	42.07
1022.449	41.96
1022.8	41.96
1023.151	42.31
1023.501	42.52
1023.852	42.73
1024.202	42.55
1024.553	42.3
1024.903	42.46
1025.253	42.55
1025.604	42.18
1025.954	42.03
1026.304	42.13
1026.654	42.08
1027.004	41.95
1027.354	41.86
1027.703	41.58
1028.053	41.87
1028.403	42.19
1028.753	41.99
1029.102	42.18
1029.452	42.53
1029.801	43.08
1030.15	43.18
1030.499	43.18
897.758	1283.52
901.051	1286.85
904.343	1287.56
907.636	1309.2
910.928	1274.58
914.22	1271.79
917.511	1253.13
920.803	1201.66
924.094	1194.01
927.384	1164.58
930.675	1117.4
933.965	1110.8
937.255	1043.43
940.544	1000.07
943.834	955.15
947.123	946.69
950.411	889.17
953.7	870.36
956.988	824.35
960.276	789.2
963.563	775.67
966.851	747
970.138	740.3
973.424	718.52
976.711	722.45
979.997	686.23
983.283	682.21
986.568	669.67
989.853	649.32
993.138	636.86
996.423	614.33
999.708	597.08
1002.992	590.23
1006.275	565.68
1009.559	561.07
1012.842	538.95
1016.125	523.25
1019.408	513.13
1022.69	507.31
1025.972	496.99
1029.254	485.04
1032.536	476.66
1035.817	466.63
1039.098	461.37
1042.379	449.59
1045.659	444.33
1048.939	433.93
1052.219	425.36
1055.498	420.75
1058.778	409.92
1062.057	400.59
1065.335	395.38
1068.614	390.3
1071.892	386.42
1075.17	374.67
1078.447	368.55
1081.724	364.71
1085.001	362.4
1088.278	355.19
1091.554	347.66
1094.83	347.37
1098.106	345.35
1101.382	342.05
1104.657	339.38
1107.932	334.15
1111.206	334.5
1114.481	327.25
1117.755	324.46
1121.029	320.92
1124.302	319.61
1127.575	314.4
1130.848	310.79
1134.121	307.18
1137.393	305.6
1140.665	299.53
1143.937	297.21
1147.208	295.53
1150.48	293.8
1153.75	289.87
1157.021	286.51
1160.291	286.82
1163.561	281.83
1166.831	282.86
1170.101	280.47
1173.37	279.86
1176.639	280.53
1179.907	278.09
1183.176	274.8
1186.444	274.46
1189.711	274.11
1192.979	273.75
1196.246	271.86
1199.513	273.34
1202.78	271.45
1206.046	271.27
1209.312	268.77
1212.578	268.97
1215.843	270.91
1219.108	270.21
1222.373	275.61
1225.638	277.92
1228.902	281.17
1232.166	281.72
1235.43	283.35
1238.693	287.11
1241.956	288.69
1245.219	293.28
1248.482	293.54
1251.744	293.6
1255.006	294.51
1258.268	287.8
1261.529	285.04
1264.79	283.09
1268.051	281.25
1271.312	277.78
1274.572	273.92
1277.832	271.15
1281.092	267.05
1284.351	264.78
1287.61	264.73
1290.869	260.02
1294.128	258.29
1297.386	258.85
1300.644	255.59
1303.902	257.2
1307.159	256.16
1310.416	256.29
1313.673	255.82
1316.93	258.75
1320.186	257.95
1323.442	258.86
1326.697	263.63
1329.953	264.77
1333.208	265.08
1336.463	269.34
1339.717	269.2
1342.972	272.58
1346.226	275.12
1349.479	276.09
1352.733	276.78
1355.986	279.04
1359.238	278.62
1362.491	279.69
1365.743	282.12
1368.995	282.44
1372.247	280.76
1375.498	281.27
1378.749	283.27
1382	280.31
1385.251	281.18
1388.501	279.27
1391.751	280.98
1395	279.89
1398.25	277.66
1401.499	276.03
1404.748	275.88
1407.996	274.68
1411.244	272.73
1414.492	271.71
1417.74	267.69
1420.987	264.05
1424.234	264.71
1427.481	260.69
1430.728	260.37
1433.974	257.63
1437.22	255.85
1440.465	254.82
1443.711	252.06
1446.956	250.65
1450.201	246.79
1453.445	246.02
1456.689	244.82
1459.933	240.55
1463.177	238.37
1466.42	235.25
1469.663	233.21
1472.906	231.22
1476.148	225.42
1479.391	222.36
1482.633	220.32
1485.874	217.73
1489.115	215.97
1492.356	213.46
1495.597	212.76
1498.838	209.54
1502.078	207.88
1505.318	206.47
1508.557	206.56
1511.797	206.51
1515.036	204.91
1518.274	204.45
1521.513	202.47
1524.751	202.49
1527.989	201.77
1531.227	200.53
1534.464	201.4
1537.701	199.97
1540.938	199.44
1544.174	196.71
1547.41	196.75
1550.646	196.05
1553.882	195.46
1557.117	193.31
1560.352	192.25
1563.587	191.56
1566.821	190.52
1570.055	189.06
1573.289	187.44
1576.523	187.24
1579.756	185.71
1582.989	184.09
1586.222	184.08
1589.454	183.2
1592.686	184.29
1595.918	182.77
1599.15	182.29
1602.381	182.7
1605.612	181.97
1608.843	182.98
1612.073	182.37
1615.303	183.58
1618.533	183.86
1621.762	183.53
1624.992	184.06
1628.221	183.64
1631.449	183.81
1634.678	183.59
1637.906	184.55
1641.134	184.4
1644.361	183.7
1647.588	184.57
1650.815	183.79
1654.042	183.2
1657.269	184.54
1660.495	184.19
1663.72	183.68
1666.946	184.39
1670.171	184.86
1673.396	183.98
1676.621	184.24
1679.845	184.95
1683.069	185.47
1686.293	186.42
1689.517	187.3
1692.74	186.74
1695.963	187.83
1699.185	189.97
1702.408	189.74
1705.63	190.46
1708.852	191.41
1712.073	191.75
1715.294	192.03
1718.515	192.49
1721.736	192.4
1724.956	193.35
1728.176	193.48
1731.396	194.88
1734.616	193.91
1737.835	194.96
1741.054	193.79
1744.272	193.99
1747.491	195.82
1750.709	196.05
1753.927	195.91
1757.144	195.64
1760.361	195.97
1763.578	196.86
1766.795	196.02
1770.011	197.67
1773.227	197.73
1776.443	199.89
1779.658	200.94
1782.874	199.67
1786.089	200.82
1789.303	201.71
1792.518	204.05
1795.732	203.64
1798.945	205.37
1802.159	205.63
1805.372	205.78
1808.585	209.01
1811.797	209.28
1815.01	209.94
1818.222	212.26
1821.434	214.43
1824.645	214.82
1827.856	218.23
1831.067	220.3
1834.278	219.83
1837.488	221.39
1840.698	222.95
1843.908	221.21
1847.117	222.53
1850.326	224.2
1853.535	223.37
1856.744	225.69
1859.952	225.78
1863.16	223.94
1866.368	222.36
1869.575	224.6
1872.782	221.7
1875.989	221.69
1879.196	220.93
1882.402	219.85
1885.608	219.66
1888.814	220.15
1892.019	219.34
1895.224	218.7
1898.429	219.1
1901.634	220.92
1904.838	220.53
1908.042	223.08
1911.246	223.61
1914.449	224.95
1917.652	225.42
1920.855	224.98
1924.058	225.09
1927.26	224.15
1930.462	225.31
1933.664	226.75
1936.865	224.46
1940.066	224.14
1943.267	222.85
1946.467	222.87
1949.668	224.12
1952.868	226.66
1956.067	227.41
1959.267	227.25
1962.466	228.13
1965.665	226.26
1968.863	227.27
1972.061	230.63
1975.259	232.83
1978.457	234.43
1981.654	236.06
1984.852	236.42
1988.048	235.61
1991.245	238.05
1994.441	240.94
1997.637	242.77
2000.833	247.96
2004.028	251.14
2007.223	252.52
2010.418	255.36
2013.613	260.56
2016.807	263.16
2020.001	266.47
2023.194	270.06
2026.388	276.28
2029.581	281.6
2032.774	283.67
2035.966	289.5
2039.158	289.68
2042.35	294.6
2045.542	296.44
2048.733	300.68
2051.924	304.28
2055.115	308.85
2058.306	310.21
2061.496	311.9
2064.686	313.43
2067.875	319.46
2071.065	320.53
2074.254	318.2
2077.442	324.05
2080.631	324.96
2083.819	327.65
2087.007	328.7
2090.195	332.05
2093.382	335.2
2096.569	333.85
2099.756	337.99
2102.942	339.06
2106.128	341.18
2109.314	351.32
2112.5	348.64
2115.685	356.12
2118.87	356.43
2122.055	364.31
2125.239	366.21
2128.424	370.02
2131.608	373.7
2134.791	378.74
2137.974	381.14
2141.157	382.49
2144.34	381.38
2147.523	387.39
2150.705	384.82
2153.887	388.84
2157.068	388.74
2160.25	385.02
2163.431	387.15
2166.611	390.92
2169.792	398.28
2172.972	402.16
2176.152	405.48
2179.331	411.59
2182.511	418.69
2185.69	423.65
2188.868	431.54
2192.047	432.66
2195.225	446.32
2198.403	456.72
2201.58	464.84
2204.758	475.18
2207.935	482.86
2211.111	493.46
2214.288	497.96
2217.464	498.88
2220.64	506.64
2223.815	513.84
2226.991	535.58
2230.166	536.75
2233.34	546.19
2236.515	555.39
2239.689	554.32
2242.863	558.87
2246.036	573.44
2249.209	568.36
2252.382	579.05
2255.555	596.77
2258.727	599.07
2261.9	601.8
2265.071	607.49
2268.243	617.59
2271.414	625.09
2274.585	639.24
2277.756	645.63
2280.926	648
2284.096	665.26
2287.266	678.63
2290.436	681.84
2293.605	697.87
2296.774	718.79
2299.942	741.69
2303.111	745.96
2306.279	762.93
2309.447	772.55
2312.614	793.16
2315.781	815.75
2318.948	853.88
2322.115	840.8
2325.281	891.04
2328.447	870.76
2331.613	905.52
2334.779	894.92
2337.944	934.01
2341.109	941.78
2344.274	967.49
2347.438	1001.86
2350.602	1004.85
2353.766	1035.39
2356.929	1050.59
2360.092	1043.37
2363.255	1121.78
2366.418	1118.41
2369.58	1139.24
2372.742	1210.17
2375.904	1241.1
2379.066	1234.56
2382.227	1208.76
2385.388	1309.02
2388.548	1308.26
2391.709	1327.83
2394.869	1477.23
2398.029	1410.15
2401.188	1450.7
2404.347	1444.11
2407.506	1418.72
2410.665	1457.19
2413.823	1549.19
2416.981	1642.03
2420.139	1592.81
2423.296	1573.02
2426.453	1642.69
2429.61	1578.61
2432.767	1655.35
2435.923	1638.42
2439.079	1796.54
2442.235	1820.47
2445.391	1806.13
2448.546	1784.55
2451.701	1738.13
2454.855	1730.82
2458.009	1841.92
2461.163	1912.39
2464.317	1983.18
2467.471	2031.09
2470.624	2033.56
2473.777	1979.47
2476.929	1924.12
2480.082	1871.4
2483.234	1855.35
2486.385	1946.73
2489.537	1957.49
2492.688	2025.69
2495.839	1977.18
2498.989	1932.94
2502.14	1940.96
2505.29	1960.23
2508.439	1986.66
2511.589	1985.91
2514.738	2160.14
2517.887	2116.23
2521.035	2235.31
2524.183	2249.03
2527.331	2266.22
2530.479	2247.81
2533.627	2263.27
