Data from C_3_DEC_CT_2N_Splice17_13-55-11-527.txt Node
Date: Sat Mar 07 13:55:11 EST 2020
User: sa697716
Spectrometer: NQ5500242
Trigger mode: 0
Integration Time (sec): 1.450000E-1
Scans to average: 20
Nonlinearity correction enabled: false
Boxcar width: 5
Storing dark spectrum: false
XAxis mode: Wavelengths
Number of Pixels in Spectrum: 512
>>>>>Begin Spectral Data<<<<<
187.83	182.38
188.298	205.55
188.766	164.96
189.233	135.05
189.701	149.38
190.169	171.16
190.636	203.88
191.104	283.99
191.571	348.02
192.039	68.26
192.506	27.61
192.974	27.81
193.441	240.83
193.908	56.76
194.375	26.9
194.842	24.47
195.31	70.63
195.777	133.16
196.244	51.5
196.711	50.7
197.177	52.83
197.644	51.82
198.111	51.93
198.578	52.24
199.045	52.36
199.511	52.6
199.978	52.47
200.445	52.6
200.911	52.74
201.378	52.94
201.844	53.29
202.31	53.2
202.777	53.28
203.243	53.35
203.709	52.78
204.176	52.21
204.642	51.9
205.108	51.9
205.574	51.65
206.04	50.83
206.506	50.13
206.972	49.65
207.438	49.21
207.903	48.46
208.369	47.13
208.835	46.36
209.301	45.82
209.766	44.28
210.232	43.08
210.697	41.73
211.163	41.01
211.628	39.99
212.094	38.96
212.559	38.21
213.024	37.4
213.49	36.83
213.955	35.88
214.42	34.83
214.885	34.15
215.35	32.99
215.815	31.37
216.28	29.14
216.745	26.73
217.21	24.44
217.675	22.12
218.14	20.07
218.604	18.3
219.069	16.83
219.534	15.66
219.998	14.62
220.463	13.77
220.927	13
221.392	12.42
221.856	11.94
222.32	11.48
222.785	11.13
223.249	10.81
223.713	10.54
224.177	10.33
224.642	10.1
225.106	9.86
225.57	9.61
226.034	9.44
226.497	9.26
226.961	9.09
227.425	8.93
227.889	8.77
228.353	8.63
228.816	8.48
229.28	8.31
229.744	8.15
230.207	8.02
230.671	7.88
231.134	7.74
231.597	7.63
232.061	7.51
232.524	7.39
232.987	7.26
233.45	7.16
233.914	7.06
234.377	6.95
234.84	6.86
235.303	6.79
235.766	6.72
236.229	6.64
236.691	6.56
237.154	6.47
237.617	6.41
238.08	6.33
238.542	6.25
239.005	6.19
239.468	6.12
239.93	6.07
240.393	6
240.855	5.92
241.317	5.86
241.78	5.79
242.242	5.73
242.704	5.67
243.166	5.62
243.629	5.58
244.091	5.52
244.553	5.46
245.015	5.4
245.477	5.34
245.939	5.29
246.4	5.24
246.862	5.19
247.324	5.13
247.786	5.07
248.247	5.02
248.709	4.95
249.17	4.89
249.632	4.86
250.093	4.81
250.555	4.77
251.016	4.72
251.477	4.68
251.939	4.63
252.4	4.6
252.861	4.55
253.322	4.51
253.783	4.48
254.244	4.45
254.705	4.4
255.166	4.36
255.627	4.32
256.088	4.29
256.549	4.26
257.009	4.22
257.47	4.2
257.931	4.16
258.391	4.12
258.852	4.08
259.312	4.04
259.773	4.01
260.233	3.98
260.694	3.95
261.154	3.9
261.614	3.87
262.074	3.83
262.534	3.8
262.994	3.77
263.455	3.75
263.915	3.73
264.374	3.7
264.834	3.68
265.294	3.65
265.754	3.63
266.214	3.62
266.673	3.6
267.133	3.58
267.593	3.56
268.052	3.54
268.512	3.53
268.971	3.51
269.431	3.5
269.89	3.49
270.349	3.47
270.809	3.46
271.268	3.45
271.727	3.44
272.186	3.43
272.645	3.42
273.104	3.41
273.563	3.4
274.022	3.38
274.481	3.37
274.94	3.37
275.399	3.36
275.857	3.35
276.316	3.34
276.775	3.33
277.233	3.32
277.692	3.31
278.15	3.31
278.609	3.31
279.067	3.3
279.525	3.3
279.984	3.29
280.442	3.29
280.9	3.29
281.358	3.29
281.816	3.29
282.274	3.28
282.732	3.29
283.19	3.28
283.648	3.28
284.106	3.28
284.564	3.27
285.021	3.28
285.479	3.27
285.937	3.26
286.394	3.25
286.852	3.25
287.309	3.24
287.767	3.22
288.224	3.21
288.682	3.19
289.139	3.18
289.596	3.16
290.053	3.13
290.511	3.11
290.968	3.1
291.425	3.08
291.882	3.06
292.339	3.05
292.796	3.03
293.252	3.02
293.709	3.01
294.166	3.01
294.623	3
295.079	3
295.536	2.99
295.992	2.99
296.449	2.98
296.905	2.99
297.362	2.98
297.818	2.97
298.274	2.96
298.731	2.96
299.187	2.95
299.643	2.94
300.099	2.93
300.555	2.93
301.011	2.91
301.467	2.91
301.923	2.9
302.379	2.9
302.835	2.9
303.291	2.9
303.746	2.9
304.202	2.9
304.658	2.91
305.113	2.9
305.569	2.91
306.024	2.91
306.479	2.9
306.935	2.91
307.39	2.91
307.845	2.91
308.301	2.91
308.756	2.92
309.211	2.92
309.666	2.92
310.121	2.93
310.576	2.93
311.031	2.94
311.486	2.95
311.94	2.95
312.395	2.95
312.85	2.96
313.305	2.95
313.759	2.96
314.214	2.95
314.668	2.95
315.123	2.95
315.577	2.95
316.032	2.95
316.486	2.93
316.94	2.93
317.394	2.92
317.849	2.91
318.303	2.89
318.757	2.88
319.211	2.86
319.665	2.85
320.119	2.83
320.572	2.82
321.026	2.81
321.48	2.8
321.934	2.78
322.387	2.78
322.841	2.77
323.295	2.77
323.748	2.78
324.202	2.78
324.655	2.77
325.108	2.78
325.562	2.78
326.015	2.77
326.468	2.77
326.921	2.78
327.374	2.77
327.827	2.78
328.28	2.77
328.733	2.77
329.186	2.77
329.639	2.77
330.092	2.76
330.545	2.77
330.997	2.77
331.45	2.78
331.903	2.79
332.355	2.81
332.808	2.81
333.26	2.82
333.713	2.82
334.165	2.82
334.617	2.83
335.069	2.83
335.522	2.84
335.974	2.84
336.426	2.84
336.878	2.83
337.33	2.82
337.782	2.82
338.234	2.82
338.686	2.82
339.137	2.83
339.589	2.82
340.041	2.82
340.493	2.8
340.944	2.79
341.396	2.78
341.847	2.77
342.299	2.75
342.75	2.74
343.201	2.72
343.653	2.71
344.104	2.69
344.555	2.68
345.006	2.66
345.457	2.66
345.908	2.66
346.359	2.66
346.81	2.65
347.261	2.65
347.712	2.65
348.163	2.64
348.613	2.64
349.064	2.64
349.515	2.64
349.965	2.64
350.416	2.63
350.866	2.63
351.317	2.62
351.767	2.62
352.217	2.62
352.668	2.62
353.118	2.63
353.568	2.62
354.018	2.62
354.468	2.63
354.918	2.64
355.368	2.64
355.818	2.65
356.268	2.65
356.718	2.65
357.168	2.65
357.617	2.65
358.067	2.64
358.517	2.65
358.966	2.66
359.416	2.66
359.865	2.66
360.315	2.66
360.764	2.66
361.213	2.65
361.663	2.65
362.112	2.65
362.561	2.65
363.01	2.65
363.459	2.64
363.908	2.63
364.357	2.63
364.806	2.62
365.255	2.62
365.703	2.63
366.152	2.63
366.601	2.64
367.05	2.65
367.498	2.64
367.947	2.65
368.395	2.65
368.844	2.66
369.292	2.67
369.74	2.67
370.189	2.67
370.637	2.66
371.085	2.65
371.533	2.64
371.981	2.64
372.429	2.64
372.877	2.64
373.325	2.64
373.773	2.63
374.221	2.62
374.669	2.62
375.116	2.61
375.564	2.61
376.012	2.61
376.459	2.61
376.907	2.6
377.354	2.6
377.801	2.61
378.249	2.6
378.696	2.6
379.143	2.6
379.591	2.6
380.038	2.61
380.485	2.61
380.932	2.6
381.379	2.61
381.826	2.61
382.273	2.61
382.72	2.6
383.166	2.6
383.613	2.6
384.06	2.6
384.506	2.6
384.953	2.59
385.4	2.59
385.846	2.61
386.292	2.6
386.739	2.59
387.185	2.59
387.631	2.6
388.078	2.61
388.524	2.61
388.97	2.6
389.416	2.61
389.862	2.63
390.308	2.64
390.754	2.64
391.2	2.66
391.645	2.68
392.091	2.71
392.537	2.72
392.983	2.73
393.428	2.75
393.874	2.77
394.319	2.79
394.765	2.8
395.21	2.8
395.655	2.82
396.101	2.84
396.546	2.84
396.991	2.85
397.436	2.87
397.881	2.89
398.326	2.91
398.771	2.93
399.216	2.94
399.661	2.95
400.106	2.97
400.551	2.98
400.995	2.98
401.44	2.98
401.885	2.99
402.329	3
402.774	3.01
403.218	3.04
403.663	3.06
404.107	3.08
404.551	3.09
404.995	3.1
405.44	3.11
405.884	3.13
406.328	3.15
406.772	3.16
407.216	3.17
407.66	3.18
408.104	3.18
408.547	3.19
408.991	3.21
409.435	3.23
409.879	3.25
410.322	3.28
410.766	3.31
411.209	3.33
411.653	3.36
412.096	3.39
412.54	3.42
412.983	3.45
413.426	3.5
413.869	3.5
414.312	3.53
414.756	3.55
415.199	3.56
415.642	3.58
416.085	3.6
416.527	3.6
416.97	3.6
417.413	3.6
417.856	3.59
418.298	3.57
418.741	3.58
419.184	3.57
419.626	3.58
420.069	3.59
420.511	3.59
420.953	3.59
421.396	3.6
421.838	3.62
422.28	3.64
422.722	3.67
423.164	3.68
423.606	3.69
424.048	3.7
424.49	3.7
424.932	3.71
425.374	3.7
425.816	3.69
426.258	3.67
426.699	3.66
427.141	3.66
427.582	3.67
428.024	3.7
428.465	3.71
428.907	3.72
429.348	3.71
429.789	3.71
430.231	3.74
430.672	3.78
431.113	3.82
431.554	3.84
431.995	3.86
432.436	3.86
432.877	3.86
433.318	3.88
433.759	3.92
434.2	3.96
434.64	3.98
435.081	3.98
435.522	3.99
435.962	4
436.403	4.03
436.843	4.04
437.284	4.04
437.724	4.04
438.164	4.04
438.604	4.03
439.045	4.02
439.485	4.04
439.925	4.04
440.365	4.04
440.805	4.04
441.245	4.04
441.685	4.05
442.125	4.07
442.564	4.08
443.004	4.09
443.444	4.1
443.883	4.1
444.323	4.08
444.762	4.08
445.202	4.09
445.641	4.1
446.081	4.09
446.52	4.09
446.959	4.1
447.398	4.12
447.837	4.12
448.276	4.12
448.716	4.13
449.154	4.15
449.593	4.17
450.032	4.16
450.471	4.14
450.91	4.13
451.349	4.14
451.787	4.11
452.226	4.09
452.664	4.09
453.103	4.08
453.541	4.06
453.98	4.05
454.418	4.01
454.856	4.01
455.295	4
455.733	3.98
456.171	3.96
456.609	3.95
457.047	3.94
457.485	3.92
457.923	3.93
458.361	3.91
458.798	3.91
459.236	3.92
459.674	3.91
460.111	3.91
460.549	3.93
460.987	3.93
461.424	3.94
461.862	3.94
462.299	3.95
462.736	3.95
463.173	3.96
463.611	3.96
464.048	3.97
464.485	3.98
464.922	3.99
465.359	3.99
465.796	4.01
466.233	4.01
466.67	4.02
467.106	4.03
467.543	4.03
467.98	4.02
468.416	4.02
468.853	4.01
469.29	4
469.726	4
470.162	3.99
470.599	3.97
471.035	3.95
471.471	3.94
471.907	3.92
472.344	3.92
472.78	3.94
473.216	3.92
473.652	3.92
474.088	3.9
474.523	3.89
474.959	3.87
475.395	3.86
475.831	3.85
476.266	3.84
476.702	3.83
477.138	3.81
477.573	3.79
478.008	3.79
478.444	3.77
478.879	3.77
479.314	3.76
479.75	3.76
480.185	3.74
480.62	3.73
481.055	3.71
481.49	3.71
481.925	3.7
482.36	3.7
482.795	3.69
483.229	3.68
483.664	3.67
484.099	3.65
484.534	3.64
484.968	3.64
485.403	3.63
485.837	3.64
486.271	3.63
486.706	3.62
487.14	3.62
487.574	3.62
488.009	3.63
488.443	3.62
488.877	3.64
489.311	3.65
489.745	3.65
490.179	3.67
490.613	3.68
491.046	3.69
491.48	3.7
491.914	3.71
492.348	3.72
492.781	3.74
493.215	3.76
493.648	3.77
494.082	3.79
494.515	3.81
494.948	3.82
495.382	3.84
495.815	3.87
496.248	3.89
496.681	3.92
497.114	3.94
497.547	3.98
497.98	4.01
498.413	4.04
498.846	4.08
499.279	4.12
499.711	4.16
500.144	4.2
500.577	4.25
501.009	4.3
501.442	4.35
501.874	4.41
502.306	4.45
502.739	4.52
503.171	4.58
503.603	4.65
504.036	4.72
504.468	4.79
504.9	4.86
505.332	4.94
505.764	5.03
506.196	5.12
506.627	5.22
507.059	5.32
507.491	5.41
507.923	5.52
508.354	5.64
508.786	5.77
509.217	5.9
509.649	6.04
510.08	6.18
510.512	6.33
510.943	6.48
511.374	6.62
511.805	6.8
512.237	6.97
512.668	7.14
513.099	7.31
513.53	7.49
513.961	7.69
514.391	7.89
514.822	8.1
515.253	8.3
515.684	8.52
516.114	8.75
516.545	8.97
516.975	9.2
517.406	9.44
517.836	9.67
518.267	9.93
518.697	10.15
519.127	10.37
519.558	10.61
519.988	10.85
520.418	11.08
520.848	11.32
521.278	11.54
521.708	11.96
522.138	12.19
522.567	12.41
522.997	12.62
523.427	12.85
523.857	13.07
524.286	13.28
524.716	13.49
525.145	13.7
525.575	13.91
526.004	14.13
526.433	14.14
526.863	14.33
527.292	14.52
527.721	14.72
528.15	14.88
528.579	15.06
529.008	15.23
529.437	15.37
529.866	15.51
530.295	15.65
530.724	15.78
531.152	15.92
531.581	16.04
532.01	16.16
532.438	16.26
532.867	16.37
533.295	16.47
533.723	16.55
534.152	16.63
534.58	16.74
535.008	16.8
535.436	16.88
535.865	16.94
536.293	17
536.721	17.07
537.149	17.13
537.576	17.19
538.004	17.24
538.432	17.3
538.86	17.36
539.287	17.38
539.715	17.42
540.143	17.45
540.57	17.49
540.998	17.52
541.425	17.56
541.852	17.58
542.28	17.61
542.707	17.64
543.134	17.68
543.561	17.71
543.988	17.77
544.415	17.8
544.842	17.82
545.269	17.87
545.696	17.9
546.123	17.93
546.549	17.97
546.976	18.01
547.403	18.03
547.829	18.05
548.256	18.07
548.682	18.08
549.108	18.13
549.535	18.16
549.961	18.16
550.387	18.17
550.813	18.18
551.24	18.18
551.666	18.16
552.092	18.16
552.518	18.15
552.943	18.13
553.369	18.12
553.795	18.07
554.221	18.03
554.646	17.99
555.072	17.94
555.498	17.86
555.923	17.79
556.349	17.75
556.774	17.67
557.199	17.59
557.625	17.5
558.05	17.41
558.475	17.31
558.9	17.22
559.325	17.13
559.75	17.03
560.175	16.94
560.6	16.84
561.025	16.71
561.449	16.61
561.874	16.49
562.299	16.36
562.723	16.23
563.148	16.08
563.572	15.94
563.997	15.78
564.421	15.62
564.846	15.45
565.27	15.3
565.694	15.15
566.118	14.97
566.542	14.81
566.966	14.64
567.39	14.47
567.814	14.32
568.238	14.17
568.662	14.02
569.086	13.85
569.509	13.71
569.933	13.55
570.357	13.39
570.78	13.24
571.204	13.09
571.627	12.96
572.05	12.82
572.474	12.7
572.897	12.56
573.32	12.43
573.743	12.31
574.166	12.2
574.589	12.08
575.012	11.98
575.435	11.89
575.858	11.79
576.281	11.68
576.704	11.58
577.126	11.48
577.549	11.39
577.972	11.3
578.394	11.21
578.817	11.13
579.239	11.05
579.661	10.97
580.084	10.89
580.506	10.83
580.928	10.75
581.35	10.69
581.772	10.62
582.194	10.55
582.616	10.49
583.038	10.44
583.46	10.37
583.882	10.31
584.303	10.24
584.725	10.17
585.147	10.13
585.568	10.09
585.99	10.03
586.411	9.98
586.833	9.94
587.254	9.88
587.675	9.82
588.096	9.77
588.518	9.73
588.939	9.69
589.36	9.66
589.781	9.6
590.202	9.57
590.623	9.53
591.043	9.49
591.464	9.45
591.885	9.41
592.305	9.38
592.726	9.37
593.147	9.33
593.567	9.3
593.987	9.28
594.408	9.25
594.828	9.21
595.248	9.19
595.669	9.17
596.089	9.14
596.509	9.11
596.929	9.08
597.349	9.04
597.769	9.02
598.189	8.98
598.608	8.94
599.028	8.91
599.448	8.88
599.867	8.83
600.287	8.79
600.706	8.75
601.126	8.72
601.545	8.69
601.965	8.66
602.384	8.61
602.803	8.57
603.222	8.53
603.641	8.47
604.061	8.43
604.48	8.39
604.898	8.32
605.317	8.27
605.736	8.22
606.155	8.17
606.574	8.1
606.992	8.04
607.411	7.98
607.829	7.89
608.248	7.83
608.666	7.77
609.085	7.72
609.503	7.67
609.921	7.61
610.339	7.55
610.758	7.5
611.176	7.44
611.594	7.4
612.012	7.34
612.43	7.31
612.847	7.26
613.265	7.21
613.683	7.15
614.101	7.09
614.518	7.05
614.936	7
615.353	6.95
615.771	6.9
616.188	6.84
616.606	6.82
617.023	6.77
617.44	6.75
617.857	6.71
618.274	6.67
618.691	6.62
619.108	6.59
619.525	6.56
619.942	6.54
620.359	6.52
620.776	6.5
621.192	6.47
621.609	6.45
622.026	6.43
622.442	6.41
622.859	6.4
623.275	6.39
623.691	6.37
624.108	6.37
624.524	6.36
624.94	6.35
625.356	6.34
625.772	6.33
626.188	6.32
626.604	6.31
627.02	6.3
627.436	6.3
627.852	6.3
628.268	6.29
628.683	6.28
629.099	6.28
629.514	6.28
629.93	6.28
630.345	6.27
630.761	6.25
631.176	6.24
631.591	6.22
632.007	6.2
632.422	6.17
632.837	6.15
633.252	6.11
633.667	6.08
634.082	6.03
634.497	5.99
634.911	5.95
635.326	5.91
635.741	5.87
636.155	5.82
636.57	5.78
636.984	5.74
637.399	5.69
637.813	5.64
638.228	5.58
638.642	5.52
639.056	5.45
639.47	5.4
639.884	5.34
640.298	5.28
640.712	5.22
641.126	5.16
641.54	5.1
641.954	5.03
642.368	4.97
642.781	4.92
643.195	4.87
643.609	4.83
644.022	4.77
644.436	4.74
644.849	4.68
645.262	4.63
645.676	4.58
646.089	4.54
646.502	4.51
646.915	4.49
647.328	4.46
647.741	4.43
648.154	4.39
648.567	4.38
648.98	4.35
649.393	4.33
649.805	4.32
650.218	4.31
650.631	4.3
651.043	4.28
651.456	4.27
651.868	4.25
652.28	4.23
652.693	4.21
653.105	4.2
653.517	4.18
653.929	4.16
654.341	4.14
654.753	4.11
655.165	4.08
655.577	4.06
655.989	4.03
656.401	4
656.813	3.98
657.224	3.95
657.636	3.91
658.047	3.89
658.459	3.86
658.87	3.83
659.282	3.81
659.693	3.78
660.104	3.75
660.515	3.72
660.926	3.68
661.338	3.67
661.749	3.64
662.159	3.63
662.57	3.61
662.981	3.59
663.392	3.58
663.803	3.56
664.213	3.54
664.624	3.53
665.035	3.53
665.445	3.53
665.855	3.53
666.266	3.53
666.676	3.53
667.086	3.52
667.497	3.52
667.907	3.53
668.317	3.54
668.727	3.54
669.137	3.55
669.547	3.56
669.956	3.56
670.366	3.56
670.776	3.55
671.186	3.57
671.595	3.59
672.005	3.59
672.414	3.6
672.824	3.6
673.233	3.62
673.642	3.63
674.052	3.64
674.461	3.66
674.87	3.68
675.279	3.7
675.688	3.72
676.097	3.74
676.506	3.77
676.915	3.79
677.323	3.81
677.732	3.83
678.141	3.86
678.549	3.87
678.958	3.9
679.366	3.94
679.775	3.96
680.183	3.98
680.592	4.01
681	4.05
681.408	4.08
681.816	4.12
682.224	4.16
682.632	4.21
683.04	4.26
683.448	4.31
683.856	4.36
684.264	4.42
684.671	4.49
685.079	4.56
685.487	4.64
685.894	4.75
686.302	4.86
686.709	4.99
687.116	5.13
687.524	5.28
687.931	5.45
688.338	5.64
688.745	5.84
689.152	6.07
689.559	6.33
689.966	6.61
690.373	6.91
690.78	7.23
691.187	7.57
691.593	7.93
692	8.32
692.407	8.73
692.813	9.16
693.22	9.62
693.626	10.09
694.032	10.58
694.439	11.08
694.845	11.6
695.251	12.14
695.657	12.7
696.063	13.27
696.469	13.87
696.875	14.47
697.281	15.08
697.687	15.71
698.093	16.33
698.498	16.95
698.904	17.58
699.31	18.21
699.715	18.87
700.12	19.5
700.526	20.13
700.931	20.77
701.337	21.4
701.742	22.03
702.147	22.67
702.552	23.31
702.957	23.93
703.362	24.57
703.767	25.19
704.172	25.79
704.577	26.42
704.981	27.05
705.386	27.66
705.791	28.28
706.195	28.9
706.6	29.52
707.004	30.12
707.408	30.73
707.813	31.34
708.217	31.93
708.621	32.56
709.025	33.13
709.43	33.69
709.834	34.27
710.237	34.84
710.641	35.4
711.045	35.95
711.449	36.51
711.853	37.08
712.256	37.61
712.66	38.15
713.064	38.66
713.467	39.2
713.87	39.72
714.274	40.23
714.677	40.75
715.08	41.27
715.484	41.78
715.887	42.31
716.29	42.78
716.693	43.3
717.096	43.79
717.499	44.27
717.901	44.73
718.304	45.22
718.707	45.69
719.109	46.13
719.512	46.57
719.915	47.02
720.317	47.4
720.719	47.79
721.122	48.18
721.524	48.59
721.926	49.02
722.328	49.42
722.731	49.8
723.133	50.21
723.535	50.58
723.937	50.96
724.338	51.29
724.74	51.65
725.142	52.13
725.544	52.46
725.945	52.8
726.347	53.06
726.748	53.35
727.15	53.63
727.551	53.9
727.952	54.16
728.354	54.41
728.755	54.68
729.156	54.92
729.557	55.04
729.958	55.25
730.359	55.46
730.76	55.71
731.161	55.93
731.562	56.15
731.962	56.31
732.363	56.52
732.763	56.7
733.164	56.85
733.564	57.02
733.965	57.16
734.365	57.34
734.766	57.5
735.166	57.64
735.566	57.79
735.966	57.96
736.366	58.11
736.766	58.22
737.166	58.36
737.566	58.51
737.966	58.63
738.365	58.78
738.765	58.89
739.165	59
739.564	59.12
739.964	59.2
740.363	59.25
740.763	59.37
741.162	59.46
741.561	59.53
741.96	59.57
742.36	59.65
742.759	59.72
743.158	59.77
743.557	59.81
743.955	59.87
744.354	59.95
744.753	60.03
745.152	60.12
745.55	60.21
745.949	60.28
746.348	60.36
746.746	60.42
747.144	60.5
747.543	60.54
747.941	60.61
748.339	60.62
748.737	60.63
749.136	60.64
749.534	60.62
749.932	60.62
750.33	60.6
750.727	60.64
751.125	60.66
751.523	60.65
751.921	60.7
752.318	60.74
752.716	60.79
753.113	60.85
753.511	60.9
753.908	60.97
754.305	60.98
754.703	61.03
755.1	61.03
755.497	61.04
755.894	61.08
756.291	61.07
756.688	61.05
757.085	61.06
757.482	61.08
757.878	61.09
758.275	61.07
758.672	61.1
759.068	61.13
759.465	61.17
759.861	61.19
760.258	61.19
760.654	61.21
761.05	61.25
761.447	61.26
761.843	61.25
762.239	61.24
762.635	61.25
763.031	61.25
763.427	61.23
763.822	61.25
764.218	61.27
764.614	61.28
765.01	61.26
765.405	61.26
765.801	61.21
766.196	61.21
766.592	61.23
766.987	61.22
767.382	61.22
767.778	61.22
768.173	61.2
768.568	61.16
768.963	61.18
769.358	61.22
769.753	61.21
770.148	61.26
770.542	61.28
770.937	61.29
771.332	61.3
771.726	61.3
772.121	61.33
772.515	61.34
772.91	61.38
773.304	61.4
773.699	61.38
774.093	61.36
774.487	61.34
774.881	61.34
775.275	61.3
775.669	61.27
776.063	61.29
776.457	61.29
776.851	61.28
777.245	61.24
777.638	61.21
778.032	61.22
778.425	61.27
778.819	61.29
779.212	61.29
779.606	61.32
779.999	61.34
780.392	61.36
780.786	61.37
781.179	61.4
781.572	61.45
781.965	61.47
782.358	61.46
782.751	61.45
783.143	61.46
783.536	61.45
783.929	61.41
784.322	61.42
784.714	61.44
785.107	61.44
785.499	61.41
785.891	61.39
786.284	61.42
786.676	61.43
787.068	61.43
787.46	61.47
787.852	61.48
788.245	61.54
788.636	61.5
789.028	61.51
789.42	61.49
789.812	61.55
790.204	61.59
790.595	61.58
790.987	61.59
791.378	61.59
791.77	61.56
792.161	61.56
792.553	61.58
792.944	61.61
793.335	61.62
793.726	61.65
794.117	61.6
794.508	61.57
794.899	61.58
795.29	61.58
795.681	61.57
796.072	61.58
796.463	61.63
796.853	61.59
797.244	61.58
797.634	61.55
798.025	61.55
798.415	61.58
798.806	61.6
799.196	61.58
799.586	61.61
799.976	61.64
800.366	61.64
800.756	61.64
801.146	61.68
801.536	61.72
801.926	61.71
802.316	61.73
802.706	61.74
803.095	61.76
803.485	61.8
803.874	61.78
804.264	61.78
804.653	61.82
805.043	61.82
805.432	61.83
805.821	61.84
806.21	61.88
806.599	61.87
806.988	61.87
807.377	61.85
807.766	61.83
808.155	61.81
808.544	61.86
808.933	61.82
809.321	61.83
809.71	61.83
810.098	61.82
810.487	61.85
810.875	61.87
811.264	61.86
811.652	61.92
812.04	61.95
812.428	62.01
812.816	61.99
813.204	62.03
813.592	62.01
813.98	62.03
814.368	62.05
814.756	62.03
815.144	62.01
815.531	62
815.919	61.97
816.306	61.97
816.694	61.93
817.081	61.94
817.469	61.92
817.856	61.94
818.243	61.9
818.63	61.88
819.017	61.86
819.404	61.88
819.791	61.88
820.178	61.9
820.565	61.86
820.952	61.87
821.339	61.85
821.725	61.85
822.112	61.85
822.498	61.87
822.885	61.89
823.271	61.91
823.657	61.87
824.044	61.87
824.43	61.88
824.816	61.87
825.202	61.87
825.588	61.86
825.974	61.84
826.36	61.84
826.746	61.82
827.132	61.79
827.517	61.78
827.903	61.82
828.289	61.82
828.674	61.82
829.06	61.79
829.445	61.78
829.83	61.78
830.216	61.76
830.601	61.75
830.986	61.73
831.371	61.73
831.756	61.74
832.141	61.69
832.526	61.67
832.911	61.64
833.295	61.66
833.68	61.65
834.065	61.65
834.449	61.63
834.834	61.61
835.218	61.59
835.603	61.58
835.987	61.56
836.371	61.54
836.755	61.53
837.139	61.51
837.524	61.5
837.908	61.5
838.291	61.51
838.675	61.52
839.059	61.52
839.443	61.51
839.827	61.5
840.21	61.48
840.594	61.5
840.977	61.5
841.361	61.52
841.744	61.49
842.127	61.45
842.511	61.4
842.894	61.38
843.277	61.34
843.66	61.32
844.043	61.32
844.426	61.31
844.809	61.29
845.191	61.29
845.574	61.25
845.957	61.24
846.339	61.26
846.722	61.28
847.104	61.29
847.487	61.31
847.869	61.31
848.252	61.3
848.634	61.31
849.016	61.31
849.398	61.3
849.78	61.3
850.162	61.33
850.544	61.31
850.926	61.29
851.307	61.31
851.689	61.31
852.071	61.32
852.452	61.32
852.834	61.31
853.215	61.3
853.597	61.31
853.978	61.32
854.359	61.3
854.741	61.32
855.122	61.34
855.503	61.28
855.884	61.28
856.265	61.27
856.646	61.27
857.026	61.28
857.407	61.3
857.788	61.3
858.169	61.33
858.549	61.32
858.93	61.33
859.31	61.35
859.69	61.38
860.071	61.4
860.451	61.43
860.831	61.43
861.211	61.39
861.591	61.38
861.971	61.38
862.351	61.38
862.731	61.4
863.111	61.38
863.491	61.36
863.87	61.35
864.25	61.32
864.629	61.28
865.009	61.27
865.388	61.29
865.768	61.3
866.147	61.29
866.526	61.27
866.905	61.26
867.284	61.26
867.663	61.23
868.042	61.24
868.421	61.25
868.8	61.28
869.179	61.3
869.558	61.3
869.936	61.26
870.315	61.27
870.693	61.28
871.072	61.29
871.45	61.3
871.828	61.33
872.207	61.33
872.585	61.31
872.963	61.32
873.341	61.28
873.719	61.28
874.097	61.29
874.475	61.29
874.853	61.3
875.23	61.31
875.608	61.3
875.986	61.33
876.363	61.31
876.741	61.31
877.118	61.3
877.495	61.33
877.873	61.33
878.25	61.38
878.627	61.38
879.004	61.4
879.381	61.38
879.758	61.34
880.135	61.32
880.512	61.31
880.889	61.32
881.265	61.31
881.642	61.31
882.019	61.31
882.395	61.25
882.772	61.23
883.148	61.18
883.524	61.17
883.901	61.18
884.277	61.15
884.653	61.14
885.029	61.14
885.405	61.13
885.781	61.12
886.157	61.12
886.532	61.15
886.908	61.15
887.284	61.16
887.659	61.12
888.035	61.11
888.411	61.11
888.786	61.1
889.161	61.1
889.537	61.08
889.912	61.07
890.287	61.05
890.662	61.02
891.037	61.01
891.412	60.98
891.787	60.96
892.162	60.96
892.536	60.95
892.911	60.93
893.286	60.93
893.66	60.94
894.035	60.93
894.409	60.92
894.784	60.94
895.158	60.92
895.532	60.94
895.906	60.96
896.281	60.97
896.655	60.96
897.029	60.97
897.402	60.95
897.776	60.92
898.15	60.92
898.524	60.92
898.898	60.91
899.271	60.93
899.645	60.94
900.018	60.96
900.392	60.97
900.765	60.99
901.138	61
901.511	61
901.884	61.05
902.258	61.08
902.631	61.11
903.003	61.14
903.376	61.14
903.749	61.14
904.122	61.14
904.495	61.14
904.867	61.16
905.24	61.18
905.612	61.22
905.985	61.21
906.357	61.18
906.729	61.19
907.102	61.17
907.474	61.21
907.846	61.22
908.218	61.21
908.59	61.23
908.962	61.22
909.334	61.22
909.705	61.21
910.077	61.24
910.449	61.27
910.82	61.28
911.192	61.28
911.563	61.24
911.935	61.24
912.306	61.24
912.677	61.27
913.048	61.31
913.419	61.31
913.79	61.32
914.161	61.3
914.532	61.29
914.903	61.28
915.274	61.28
915.645	61.32
916.015	61.34
916.386	61.34
916.756	61.36
917.127	61.35
917.497	61.36
917.868	61.36
918.238	61.36
918.608	61.39
918.978	61.39
919.348	61.44
919.718	61.45
920.088	61.46
920.458	61.49
920.828	61.44
921.198	61.42
921.567	61.43
921.937	61.45
922.306	61.46
922.676	61.47
923.045	61.5
923.415	61.47
923.784	61.44
924.153	61.46
924.522	61.47
924.891	61.48
925.26	61.51
925.629	61.5
925.998	61.49
926.367	61.5
926.736	61.53
927.104	61.54
927.473	61.51
927.842	61.49
928.21	61.47
928.578	61.42
928.947	61.45
929.315	61.38
929.683	61.39
930.051	61.37
930.42	61.34
930.788	61.25
931.156	61.16
931.523	61.14
931.891	61.15
932.259	61.14
932.627	61.15
932.994	61.1
933.362	61.12
933.729	61.08
934.097	61.05
934.464	61.06
934.831	61.04
935.199	61.04
935.566	61.07
935.933	61.02
936.3	60.97
936.667	60.92
937.034	60.92
937.401	60.89
937.767	60.89
938.134	60.89
938.501	60.88
938.867	60.93
939.234	60.94
939.6	60.9
939.967	60.89
940.333	60.85
940.699	60.89
941.065	60.84
941.431	60.88
941.798	60.77
942.163	60.75
942.529	60.68
942.895	60.61
943.261	60.58
943.627	60.55
943.992	60.59
944.358	60.62
944.723	60.54
945.089	60.49
945.454	60.46
945.82	60.51
946.185	60.51
946.55	60.41
946.915	60.41
947.28	60.38
947.645	60.38
948.01	60.36
948.375	60.3
948.74	60.32
949.104	60.33
949.469	60.24
949.834	60.18
950.198	60.18
950.562	60.19
950.927	60.21
951.291	60.13
951.655	60.06
952.02	60.08
952.384	60.08
952.748	60.08
953.112	60.07
953.476	60.06
953.839	60
954.203	60
954.567	60.02
954.931	59.95
955.294	60.01
955.658	60.09
956.021	60.06
956.385	60.02
956.748	60.03
957.111	60.02
957.474	60.09
957.837	60.11
958.2	60.03
958.563	60.06
958.926	60.07
959.289	60.07
959.652	60.05
960.015	60.06
960.377	60.08
960.74	60.05
961.102	60.08
961.465	60.12
961.827	60.18
962.189	60.24
962.552	60.22
962.914	60.27
963.276	60.33
963.638	60.36
964	60.34
964.362	60.39
964.724	60.39
965.085	60.36
965.447	60.29
965.809	60.28
966.17	60.28
966.532	60.26
966.893	60.28
967.255	60.28
967.616	60.29
967.977	60.29
968.338	60.23
968.699	60.27
969.061	60.25
969.421	60.25
969.782	60.23
970.143	60.26
970.504	60.36
970.865	60.41
971.225	60.39
971.586	60.42
971.946	60.38
972.307	60.43
972.667	60.38
973.027	60.46
973.388	60.51
973.748	60.6
974.108	60.63
974.468	60.55
974.828	60.55
975.188	60.51
975.548	60.41
975.907	60.52
976.267	60.53
976.627	60.58
976.986	60.54
977.346	60.51
977.705	60.47
978.064	60.45
978.424	60.48
978.783	60.39
979.142	60.45
979.501	60.53
979.86	60.51
980.219	60.51
980.578	60.51
980.937	60.51
981.296	60.52
981.654	60.47
982.013	60.49
982.371	60.5
982.73	60.51
983.088	60.44
983.447	60.4
983.805	60.42
984.163	60.33
984.521	60.38
984.879	60.39
985.237	60.31
985.595	60.48
985.953	60.47
986.311	60.38
986.669	60.39
987.026	60.44
987.384	60.43
987.741	60.36
988.099	60.55
988.456	60.53
988.814	60.57
989.171	60.61
989.528	60.58
989.885	60.56
990.242	60.69
990.599	60.78
990.956	60.85
991.313	60.88
991.67	60.9
992.027	60.97
992.383	60.96
992.74	61.06
993.096	61.09
993.453	60.97
993.809	60.93
994.165	60.91
994.522	60.92
994.878	60.94
995.234	60.91
995.59	60.97
995.946	60.89
996.302	60.91
996.658	60.82
997.013	60.83
997.369	60.95
997.725	61.06
998.08	61.08
998.436	61.12
998.791	61.14
999.147	61.2
999.502	61.24
999.857	61.2
1000.212	61.16
1000.567	61.2
1000.922	61.25
1001.277	61.21
1001.632	61.15
1001.987	61.19
1002.342	61.06
1002.696	61.02
1003.051	61.19
1003.406	61.25
1003.76	61.23
1004.114	61.3
1004.469	61.37
1004.823	61.62
1005.177	61.62
1005.531	61.7
1005.885	61.66
1006.239	61.76
1006.593	61.82
1006.947	61.83
1007.301	61.7
1007.655	61.79
1008.008	61.87
1008.362	61.81
1008.715	61.54
1009.069	61.6
1009.422	61.53
1009.776	61.57
1010.129	61.58
1010.482	61.51
1010.835	61.46
1011.188	61.55
1011.541	61.61
1011.894	61.58
1012.247	61.61
1012.6	61.66
1012.952	61.73
1013.305	61.84
1013.657	61.92
1014.01	62.06
1014.362	62.11
1014.715	62.19
1015.067	62.17
1015.419	62.25
1015.771	62.26
1016.123	62.44
1016.475	62.59
1016.827	62.55
1017.179	62.6
1017.531	62.59
1017.883	62.35
1018.234	62.25
1018.586	62.32
1018.938	62.59
1019.289	62.48
1019.64	62.41
1019.992	62.25
1020.343	62.09
1020.694	62.14
1021.045	62.03
1021.396	62.06
1021.747	62.34
1022.098	62.47
1022.449	62.13
1022.8	61.89
1023.151	61.98
1023.501	62.25
1023.852	62.17
1024.202	62.07
1024.553	61.93
1024.903	62.2
1025.253	62.4
1025.604	62.45
1025.954	62.28
1026.304	62.44
1026.654	62.58
1027.004	62.15
1027.354	61.87
1027.703	61.91
1028.053	61.99
1028.403	62.13
1028.753	61.66
1029.102	61.65
1029.452	61.57
1029.801	61.92
1030.15	61.89
1030.499	61.62
897.758	1686.01
901.051	1698.2
904.343	1693.38
907.636	1723.2
910.928	1679.42
914.22	1677.63
917.511	1654.19
920.803	1585.97
924.094	1576.78
927.384	1540.39
930.675	1477.15
933.965	1467.56
937.255	1378.66
940.544	1323.26
943.834	1258.28
947.123	1245.36
950.411	1171.02
953.7	1146.22
956.988	1085.29
960.276	1040.46
963.563	1024.26
966.851	986.34
970.138	980.29
973.424	949.08
976.711	954.54
979.997	908.26
983.283	905.58
986.568	887.03
989.853	857.62
993.138	843.18
996.423	811.11
999.708	789.09
1002.992	781.5
1006.275	743.91
1009.559	737.13
1012.842	711.58
1016.125	691.42
1019.408	677.31
1022.69	669.15
1025.972	657.76
1029.254	640.64
1032.536	629.77
1035.817	616.34
1039.098	608.46
1042.379	596.16
1045.659	589.92
1048.939	573.96
1052.219	563.79
1055.498	555.11
1058.778	543.03
1062.057	529.04
1065.335	523.76
1068.614	517.61
1071.892	512.31
1075.17	495.2
1078.447	485.25
1081.724	482.37
1085.001	479.36
1088.278	469.41
1091.554	460.4
1094.83	459.06
1098.106	458.19
1101.382	452.96
1104.657	449.5
1107.932	442.08
1111.206	445.55
1114.481	434.84
1117.755	430.49
1121.029	427.49
1124.302	427.2
1127.575	418.54
1130.848	414.09
1134.121	408.79
1137.393	408.09
1140.665	399.69
1143.937	397.66
1147.208	393.14
1150.48	393.67
1153.75	387.23
1157.021	381.17
1160.291	381.3
1163.561	377.39
1166.831	377.59
1170.101	375
1173.37	371.89
1176.639	372.9
1179.907	369.56
1183.176	365.82
1186.444	365.24
1189.711	365.8
1192.979	364.41
1196.246	361.27
1199.513	363.61
1202.78	360.7
1206.046	360.43
1209.312	358.24
1212.578	358.62
1215.843	361.62
1219.108	359.24
1222.373	366.44
1225.638	369.52
1228.902	375.86
1232.166	375.19
1235.43	377.84
1238.693	383.23
1241.956	384.99
1245.219	392
1248.482	391.1
1251.744	390.59
1255.006	392.43
1258.268	382.62
1261.529	378.08
1264.79	374.59
1268.051	373.93
1271.312	369.03
1274.572	363.77
1277.832	360.8
1281.092	354.72
1284.351	352.56
1287.61	352.18
1290.869	346.66
1294.128	344.78
1297.386	344.89
1300.644	340.4
1303.902	341.96
1307.159	339.75
1310.416	340.41
1313.673	340.18
1316.93	342.6
1320.186	343.27
1323.442	344.21
1326.697	350.53
1329.953	350.78
1333.208	352.75
1336.463	357.72
1339.717	357.4
1342.972	362.43
1346.226	365.12
1349.479	364.97
1352.733	367.75
1355.986	368.36
1359.238	368.42
1362.491	371.14
1365.743	375.01
1368.995	373.9
1372.247	372.27
1375.498	372.81
1378.749	375.81
1382	370.89
1385.251	372.99
1388.501	369.9
1391.751	372.56
1395	370.33
1398.25	366.7
1401.499	365.48
1404.748	365.02
1407.996	361.98
1411.244	360.03
1414.492	358.06
1417.74	355.24
1420.987	348.8
1424.234	350.23
1427.481	343.22
1430.728	343.63
1433.974	339.16
1437.22	335.57
1440.465	334.81
1443.711	332.3
1446.956	330.91
1450.201	325.6
1453.445	322.92
1456.689	322.55
1459.933	315.73
1463.177	314.84
1466.42	309.58
1469.663	307.34
1472.906	305.63
1476.148	297.66
1479.391	293.73
1482.633	290.19
1485.874	286.58
1489.115	285.15
1492.356	281.45
1495.597	280.8
1498.838	276.28
1502.078	274.35
1505.318	272.65
1508.557	272.65
1511.797	273.19
1515.036	271.19
1518.274	270.18
1521.513	267.56
1524.751	267.21
1527.989	266.53
1531.227	265.23
1534.464	266.25
1537.701	264.81
1540.938	263.93
1544.174	260.29
1547.41	259.54
1550.646	258.68
1553.882	259.1
1557.117	256.41
1560.352	254.33
1563.587	253.62
1566.821	251.92
1570.055	248.91
1573.289	247.31
1576.523	247.2
1579.756	245.42
1582.989	244.34
1586.222	244.26
1589.454	242.57
1592.686	244.1
1595.918	243.33
1599.15	242.37
1602.381	242.95
1605.612	243.08
1608.843	244.05
1612.073	243.18
1615.303	244.74
1618.533	244.46
1621.762	243.29
1624.992	243.52
1628.221	243.28
1631.449	242.83
1634.678	242.8
1637.906	243.25
1641.134	243.4
1644.361	242.39
1647.588	243.68
1650.815	242.08
1654.042	241.21
1657.269	243.5
1660.495	243.37
1663.72	241.58
1666.946	242.83
1670.171	242.95
1673.396	242.36
1676.621	241.81
1679.845	242.25
1683.069	241.73
1686.293	244.2
1689.517	244.99
1692.74	244.2
1695.963	245.73
1699.185	249.12
1702.408	249.02
1705.63	249.74
1708.852	251.35
1712.073	252.4
1715.294	252.7
1718.515	254.58
1721.736	253.88
1724.956	254.51
1728.176	254.41
1731.396	256.18
1734.616	255.15
1737.835	256.3
1741.054	254.37
1744.272	254.73
1747.491	257.18
1750.709	257.89
1753.927	257.19
1757.144	256.09
1760.361	258.02
1763.578	258.34
1766.795	257.51
1770.011	259
1773.227	259.19
1776.443	262.79
1779.658	264.33
1782.874	262.82
1786.089	264.06
1789.303	265.14
1792.518	268.13
1795.732	267.39
1798.945	270.47
1802.159	271.09
1805.372	271.92
1808.585	276.23
1811.797	277.06
1815.01	276.92
1818.222	279.75
1821.434	281.03
1824.645	282.84
1827.856	287.69
1831.067	290.39
1834.278	288.25
1837.488	290.13
1840.698	292.59
1843.908	289.69
1847.117	291.63
1850.326	293.58
1853.535	292.15
1856.744	297.12
1859.952	295.94
1863.16	294.88
1866.368	292.46
1869.575	297.6
1872.782	292.69
1875.989	290.61
1879.196	289.7
1882.402	288.21
1885.608	289.5
1888.814	290.52
1892.019	289.13
1895.224	288.29
1898.429	286.02
1901.634	288.62
1904.838	287.54
1908.042	291.33
1911.246	292.99
1914.449	294.79
1917.652	294.72
1920.855	294.02
1924.058	293.62
1927.26	292.3
1930.462	294.69
1933.664	298.12
1936.865	295.22
1940.066	295.81
1943.267	293.41
1946.467	293.84
1949.668	295.56
1952.868	298.76
1956.067	298.63
1959.267	299.79
1962.466	300.71
1965.665	297.69
1968.863	298.9
1972.061	302.76
1975.259	305.69
1978.457	308.11
1981.654	309.64
1984.852	310.53
1988.048	309.48
1991.245	312.89
1994.441	316.08
1997.637	318.44
2000.833	325.04
2004.028	328.93
2007.223	330.76
2010.418	334.02
2013.613	339.24
2016.807	343.8
2020.001	346.57
2023.194	351.55
2026.388	359.5
2029.581	365.99
2032.774	370.33
2035.966	376.77
2039.158	378.04
2042.35	386.57
2045.542	387.43
2048.733	395.09
2051.924	399.24
2055.115	405.93
2058.306	406.99
2061.496	410.87
2064.686	411.7
2067.875	418.83
2071.065	420.85
2074.254	418.38
2077.442	422.57
2080.631	425.46
2083.819	428.7
2087.007	428.96
2090.195	433.29
2093.382	437.25
2096.569	433.6
2099.756	442.28
2102.942	441.95
2106.128	446.84
2109.314	458.54
2112.5	456.45
2115.685	466.4
2118.87	466.85
2122.055	477.19
2125.239	481.46
2128.424	487.94
2131.608	491.19
2134.791	495.76
2137.974	498.78
2141.157	500.31
2144.34	499.79
2147.523	508.65
2150.705	504.79
2153.887	508.64
2157.068	509.67
2160.25	505.62
2163.431	506.55
2166.611	512.2
2169.792	523.42
2172.972	528.76
2176.152	531.34
2179.331	539.04
2182.511	547.41
2185.69	554.24
2188.868	566.75
2192.047	567.97
2195.225	583.26
2198.403	599.33
2201.58	611.22
2204.758	621.45
2207.935	633.59
2211.111	647.84
2214.288	654.16
2217.464	656.24
2220.64	665.1
2223.815	674.69
2226.991	701.19
2230.166	703.72
2233.34	715.54
2236.515	727.29
2239.689	727.63
2242.863	731.94
2246.036	752.37
2249.209	743.23
2252.382	756.41
2255.555	780.64
2258.727	782.18
2261.9	787.33
2265.071	794.49
2268.243	805.86
2271.414	816.03
2274.585	835.21
2277.756	843.23
2280.926	848.05
2284.096	870.65
2287.266	888.68
2290.436	895.34
2293.605	918.22
2296.774	947.95
2299.942	975.37
2303.111	982.31
2306.279	1004.67
2309.447	1016.83
2312.614	1042.64
2315.781	1070.43
2318.948	1125.68
2322.115	1107.46
2325.281	1166.73
2328.447	1140.16
2331.613	1184.78
2334.779	1173.21
2337.944	1224.79
2341.109	1236.17
2344.274	1270.82
2347.438	1319.32
2350.602	1321.24
2353.766	1355.66
2356.929	1378.49
2360.092	1365.61
2363.255	1470.47
2366.418	1463.86
2369.58	1499.58
2372.742	1584.88
2375.904	1623.8
2379.066	1614.97
2382.227	1585.39
2385.388	1715.53
2388.548	1717.63
2391.709	1736.57
2394.869	1940.38
2398.029	1852.2
2401.188	1907.6
2404.347	1890.06
2407.506	1867.11
2410.665	1923.51
2413.823	2041.29
2416.981	2157.42
2420.139	2086.5
2423.296	2060.34
2426.453	2159.54
2429.61	2082.01
2432.767	2179.32
2435.923	2160.96
2439.079	2352.97
2442.235	2387.1
2445.391	2362.31
2448.546	2342.78
2451.701	2275.72
2454.855	2276.3
2458.009	2420.52
2461.163	2504.94
2464.317	2588.94
2467.471	2657.89
2470.624	2656.08
2473.777	2601.96
2476.929	2525.97
2480.082	2457.85
2483.234	2427.33
2486.385	2546.49
2489.537	2560.15
2492.688	2657.53
2495.839	2586.53
2498.989	2533.05
2502.14	2543.42
2505.29	2571.52
2508.439	2603.09
2511.589	2604.03
2514.738	2835.87
2517.887	2781.48
2521.035	2934.95
2524.183	2957.04
2527.331	2979.6
2530.479	2971.41
2533.627	2989.41
