Data from C_3_HIR_IL_4N_Splice17_14-27-15-181.txt Node
Date: Sat Mar 07 14:27:15 EST 2020
User: sa697716
Spectrometer: NQ5500242
Trigger mode: 0
Integration Time (sec): 1.450000E-1
Scans to average: 20
Nonlinearity correction enabled: false
Boxcar width: 5
Storing dark spectrum: false
XAxis mode: Wavelengths
Number of Pixels in Spectrum: 512
>>>>>Begin Spectral Data<<<<<
187.83	71.18
188.298	74.57
188.766	52.88
189.233	65.23
189.701	44.86
190.169	63.84
190.636	33.93
191.104	-77.98
191.571	-306.41
192.039	-151.24
192.506	-177.86
192.974	136.39
193.441	142.24
193.908	56.31
194.375	98.24
194.842	-10.26
195.31	42.28
195.777	-130.49
196.244	51.57
196.711	63.32
197.177	66.94
197.644	67.21
198.111	67.14
198.578	67.52
199.045	67.68
199.511	67.8
199.978	68.23
200.445	68.62
200.911	69.01
201.378	68.65
201.844	68.55
202.31	68.44
202.777	68.43
203.243	68.41
203.709	68.16
204.176	67.62
204.642	66.96
205.108	66.74
205.574	66.17
206.04	65.29
206.506	65.08
206.972	64.62
207.438	63.95
207.903	62.86
208.369	61.62
208.835	60.21
209.301	58.58
209.766	56.9
210.232	55.27
210.697	53.39
211.163	51.83
211.628	50.34
212.094	49.02
212.559	47.93
213.024	46.71
213.49	45.5
213.955	44.33
214.42	43.49
214.885	42.12
215.35	40.32
215.815	37.93
216.28	35.22
216.745	32.11
217.21	28.96
217.675	26.05
218.14	23.54
218.604	21.37
219.069	19.6
219.534	18.03
219.998	16.82
220.463	15.75
220.927	14.89
221.392	14.2
221.856	13.63
222.32	13.14
222.785	12.68
223.249	12.31
223.713	11.96
224.177	11.64
224.642	11.37
225.106	11.07
225.57	10.83
226.034	10.59
226.497	10.38
226.961	10.16
227.425	9.97
227.889	9.79
228.353	9.61
228.816	9.44
229.28	9.28
229.744	9.13
230.207	8.99
230.671	8.84
231.134	8.73
231.597	8.63
232.061	8.51
232.524	8.4
232.987	8.29
233.45	8.21
233.914	8.12
234.377	8.02
234.84	7.92
235.303	7.86
235.766	7.8
236.229	7.71
236.691	7.61
237.154	7.54
237.617	7.47
238.08	7.4
238.542	7.33
239.005	7.27
239.468	7.24
239.93	7.18
240.393	7.11
240.855	7.04
241.317	6.98
241.78	6.92
242.242	6.85
242.704	6.8
243.166	6.76
243.629	6.71
244.091	6.64
244.553	6.57
245.015	6.52
245.477	6.48
245.939	6.43
246.4	6.39
246.862	6.35
247.324	6.3
247.786	6.25
248.247	6.19
248.709	6.13
249.17	6.09
249.632	6.05
250.093	6.01
250.555	5.96
251.016	5.92
251.477	5.88
251.939	5.84
252.4	5.82
252.861	5.78
253.322	5.76
253.783	5.74
254.244	5.73
254.705	5.69
255.166	5.66
255.627	5.64
256.088	5.62
256.549	5.59
257.009	5.56
257.47	5.53
257.931	5.5
258.391	5.46
258.852	5.43
259.312	5.39
259.773	5.36
260.233	5.33
260.694	5.3
261.154	5.27
261.614	5.25
262.074	5.22
262.534	5.2
262.994	5.18
263.455	5.16
263.915	5.14
264.374	5.12
264.834	5.1
265.294	5.08
265.754	5.07
266.214	5.05
266.673	5.04
267.133	5.03
267.593	5.02
268.052	5.01
268.512	5
268.971	4.98
269.431	4.97
269.89	4.97
270.349	4.96
270.809	4.95
271.268	4.94
271.727	4.93
272.186	4.92
272.645	4.91
273.104	4.91
273.563	4.91
274.022	4.91
274.481	4.9
274.94	4.89
275.399	4.89
275.857	4.89
276.316	4.88
276.775	4.88
277.233	4.88
277.692	4.87
278.15	4.86
278.609	4.86
279.067	4.85
279.525	4.86
279.984	4.85
280.442	4.85
280.9	4.84
281.358	4.84
281.816	4.84
282.274	4.85
282.732	4.84
283.19	4.84
283.648	4.83
284.106	4.83
284.564	4.82
285.021	4.83
285.479	4.83
285.937	4.82
286.394	4.82
286.852	4.81
287.309	4.8
287.767	4.79
288.224	4.78
288.682	4.77
289.139	4.76
289.596	4.75
290.053	4.73
290.511	4.71
290.968	4.7
291.425	4.68
291.882	4.67
292.339	4.65
292.796	4.64
293.252	4.64
293.709	4.63
294.166	4.62
294.623	4.61
295.079	4.6
295.536	4.6
295.992	4.59
296.449	4.59
296.905	4.59
297.362	4.58
297.818	4.57
298.274	4.57
298.731	4.56
299.187	4.55
299.643	4.54
300.099	4.54
300.555	4.53
301.011	4.52
301.467	4.52
301.923	4.51
302.379	4.5
302.835	4.5
303.291	4.5
303.746	4.5
304.202	4.51
304.658	4.51
305.113	4.51
305.569	4.51
306.024	4.52
306.479	4.52
306.935	4.51
307.39	4.52
307.845	4.53
308.301	4.53
308.756	4.53
309.211	4.53
309.666	4.53
310.121	4.53
310.576	4.54
311.031	4.54
311.486	4.55
311.94	4.56
312.395	4.55
312.85	4.55
313.305	4.54
313.759	4.55
314.214	4.55
314.668	4.54
315.123	4.54
315.577	4.54
316.032	4.53
316.486	4.53
316.94	4.53
317.394	4.52
317.849	4.51
318.303	4.51
318.757	4.49
319.211	4.49
319.665	4.48
320.119	4.47
320.572	4.46
321.026	4.45
321.48	4.44
321.934	4.43
322.387	4.42
322.841	4.42
323.295	4.42
323.748	4.42
324.202	4.41
324.655	4.4
325.108	4.41
325.562	4.41
326.015	4.41
326.468	4.41
326.921	4.41
327.374	4.41
327.827	4.42
328.28	4.42
328.733	4.42
329.186	4.42
329.639	4.44
330.092	4.44
330.545	4.44
330.997	4.43
331.45	4.44
331.903	4.45
332.355	4.45
332.808	4.45
333.26	4.46
333.713	4.46
334.165	4.46
334.617	4.47
335.069	4.48
335.522	4.48
335.974	4.5
336.426	4.49
336.878	4.48
337.33	4.49
337.782	4.49
338.234	4.5
338.686	4.5
339.137	4.51
339.589	4.5
340.041	4.5
340.493	4.49
340.944	4.47
341.396	4.47
341.847	4.46
342.299	4.44
342.75	4.42
343.201	4.41
343.653	4.39
344.104	4.37
344.555	4.36
345.006	4.34
345.457	4.33
345.908	4.33
346.359	4.33
346.81	4.33
347.261	4.33
347.712	4.32
348.163	4.31
348.613	4.32
349.064	4.32
349.515	4.32
349.965	4.32
350.416	4.32
350.866	4.32
351.317	4.32
351.767	4.32
352.217	4.33
352.668	4.34
353.118	4.35
353.568	4.33
354.018	4.34
354.468	4.35
354.918	4.34
355.368	4.34
355.818	4.35
356.268	4.35
356.718	4.35
357.168	4.34
357.617	4.34
358.067	4.35
358.517	4.36
358.966	4.36
359.416	4.37
359.865	4.37
360.315	4.37
360.764	4.37
361.213	4.37
361.663	4.37
362.112	4.38
362.561	4.37
363.01	4.37
363.459	4.36
363.908	4.35
364.357	4.35
364.806	4.35
365.255	4.36
365.703	4.37
366.152	4.38
366.601	4.38
367.05	4.39
367.498	4.39
367.947	4.39
368.395	4.4
368.844	4.4
369.292	4.4
369.74	4.4
370.189	4.4
370.637	4.4
371.085	4.4
371.533	4.4
371.981	4.4
372.429	4.4
372.877	4.4
373.325	4.41
373.773	4.41
374.221	4.42
374.669	4.42
375.116	4.41
375.564	4.41
376.012	4.42
376.459	4.42
376.907	4.43
377.354	4.44
377.801	4.44
378.249	4.45
378.696	4.46
379.143	4.47
379.591	4.49
380.038	4.49
380.485	4.51
380.932	4.52
381.379	4.53
381.826	4.53
382.273	4.54
382.72	4.54
383.166	4.56
383.613	4.57
384.06	4.57
384.506	4.58
384.953	4.6
385.4	4.62
385.846	4.64
386.292	4.65
386.739	4.68
387.185	4.69
387.631	4.72
388.078	4.73
388.524	4.75
388.97	4.77
389.416	4.8
389.862	4.82
390.308	4.86
390.754	4.89
391.2	4.93
391.645	4.95
392.091	5
392.537	5.04
392.983	5.08
393.428	5.12
393.874	5.17
394.319	5.22
394.765	5.27
395.21	5.31
395.655	5.35
396.101	5.41
396.546	5.46
396.991	5.53
397.436	5.59
397.881	5.65
398.326	5.72
398.771	5.79
399.216	5.85
399.661	5.91
400.106	5.96
400.551	6.01
400.995	6.04
401.44	6.07
401.885	6.09
402.329	6.14
402.774	6.17
403.218	6.22
403.663	6.26
404.107	6.3
404.551	6.34
404.995	6.38
405.44	6.42
405.884	6.47
406.328	6.53
406.772	6.58
407.216	6.64
407.66	6.68
408.104	6.72
408.547	6.76
408.991	6.79
409.435	6.82
409.879	6.87
410.322	6.94
410.766	6.99
411.209	7.04
411.653	7.1
412.096	7.15
412.54	7.2
412.983	7.24
413.426	7.3
413.869	7.36
414.312	7.43
414.756	7.49
415.199	7.51
415.642	7.55
416.085	7.58
416.527	7.6
416.97	7.6
417.413	7.61
417.856	7.61
418.298	7.6
418.741	7.61
419.184	7.62
419.626	7.62
420.069	7.65
420.511	7.67
420.953	7.69
421.396	7.73
421.838	7.78
422.28	7.82
422.722	7.87
423.164	7.91
423.606	7.94
424.048	7.96
424.49	7.97
424.932	7.95
425.374	7.91
425.816	7.83
426.258	7.77
426.699	7.73
427.141	7.72
427.582	7.76
428.024	7.8
428.465	7.85
428.907	7.88
429.348	7.91
429.789	7.97
430.231	8.07
430.672	8.22
431.113	8.37
431.554	8.48
431.995	8.58
432.436	8.65
432.877	8.7
433.318	8.74
433.759	8.81
434.2	8.9
434.64	8.99
435.081	9.06
435.522	9.13
435.962	9.17
436.403	9.24
436.843	9.28
437.284	9.32
437.724	9.37
438.164	9.42
438.604	9.48
439.045	9.54
439.485	9.6
439.925	9.64
440.365	9.68
440.805	9.7
441.245	9.73
441.685	9.78
442.125	9.82
442.564	9.87
443.004	9.92
443.444	9.97
443.883	10.02
444.323	10.05
444.762	10.11
445.202	10.16
445.641	10.23
446.081	10.33
446.52	10.37
446.959	10.47
447.398	10.52
447.837	10.54
448.276	10.55
448.716	10.54
449.154	10.58
449.593	10.59
450.032	10.59
450.471	10.58
450.91	10.54
451.349	10.54
451.787	10.49
452.226	10.46
452.664	10.45
453.103	10.43
453.541	10.43
453.98	10.4
454.418	10.35
454.856	10.32
455.295	10.29
455.733	10.23
456.171	10.19
456.609	10.19
457.047	10.15
457.485	10.13
457.923	10.13
458.361	10.12
458.798	10.13
459.236	10.14
459.674	10.15
460.111	10.16
460.549	10.2
460.987	10.22
461.424	10.24
461.862	10.27
462.299	10.29
462.736	10.31
463.173	10.35
463.611	10.38
464.048	10.45
464.485	10.5
464.922	10.57
465.359	10.62
465.796	10.68
466.233	10.74
466.67	10.8
467.106	10.9
467.543	10.97
467.98	11.06
468.416	11.13
468.853	11.18
469.29	11.25
469.726	11.3
470.162	11.36
470.599	11.42
471.035	11.46
471.471	11.48
471.907	11.49
472.344	11.52
472.78	11.54
473.216	11.55
473.652	11.58
474.088	11.59
474.523	11.61
474.959	11.61
475.395	11.61
475.831	11.62
476.266	11.64
476.702	11.64
477.138	11.64
477.573	11.62
478.008	11.6
478.444	11.57
478.879	11.54
479.314	11.48
479.75	11.44
480.185	11.37
480.62	11.28
481.055	11.16
481.49	11.03
481.925	10.89
482.36	10.76
482.795	10.65
483.229	10.57
483.664	10.5
484.099	10.45
484.534	10.4
484.968	10.37
485.403	10.37
485.837	10.41
486.271	10.48
486.706	10.52
487.14	10.55
487.574	10.56
488.009	10.57
488.443	10.58
488.877	10.6
489.311	10.61
489.745	10.63
490.179	10.65
490.613	10.67
491.046	10.69
491.48	10.72
491.914	10.77
492.348	10.83
492.781	10.9
493.215	10.95
493.648	10.99
494.082	11.03
494.515	11.07
494.948	11.11
495.382	11.13
495.815	11.18
496.248	11.22
496.681	11.25
497.114	11.27
497.547	11.29
497.98	11.35
498.413	11.41
498.846	11.48
499.279	11.54
499.711	11.6
500.144	11.69
500.577	11.78
501.009	11.89
501.442	12.03
501.874	12.17
502.306	12.31
502.739	12.45
503.171	12.57
503.603	12.7
504.036	12.84
504.468	12.99
504.9	13.13
505.332	13.27
505.764	13.42
506.196	13.56
506.627	13.72
507.059	13.89
507.491	14.06
507.923	14.25
508.354	14.45
508.786	14.63
509.217	14.81
509.649	15
510.08	15.19
510.512	15.39
510.943	15.6
511.374	15.78
511.805	15.94
512.237	16.08
512.668	16.22
513.099	16.37
513.53	16.54
513.961	16.73
514.391	16.94
514.822	17.19
515.253	17.45
515.684	17.72
516.114	18.02
516.545	18.36
516.975	18.76
517.406	19.15
517.836	19.54
518.267	19.93
518.697	20.3
519.127	20.68
519.558	21.08
519.988	21.44
520.418	21.8
520.848	22.15
521.278	22.47
521.708	22.83
522.138	23.05
522.567	23.27
522.997	23.52
523.427	23.8
523.857	24.07
524.286	24.34
524.716	24.62
525.145	24.87
525.575	25.14
526.004	25.42
526.433	25.66
526.863	26.02
527.292	26.36
527.721	26.64
528.15	26.86
528.579	27.04
529.008	27.2
529.437	27.34
529.866	27.49
530.295	27.64
530.724	27.8
531.152	27.93
531.581	28.07
532.01	28.2
532.438	28.34
532.867	28.5
533.295	28.64
533.723	28.79
534.152	28.91
534.58	29.02
535.008	29.07
535.436	29.1
535.865	29.11
536.293	29.12
536.721	29.15
537.149	29.21
537.576	29.27
538.004	29.36
538.432	29.41
538.86	29.49
539.287	29.56
539.715	29.69
540.143	29.83
540.57	29.98
540.998	30.14
541.425	30.28
541.852	30.41
542.28	30.55
542.707	30.65
543.134	30.77
543.561	30.9
543.988	31.01
544.415	31.11
544.842	31.21
545.269	31.34
545.696	31.44
546.123	31.55
546.549	31.66
546.976	31.78
547.403	31.9
547.829	32.01
548.256	32.12
548.682	32.2
549.108	32.29
549.535	32.39
549.961	32.46
550.387	32.54
550.813	32.62
551.24	32.69
551.666	32.72
552.092	32.74
552.518	32.74
552.943	32.73
553.369	32.72
553.795	32.68
554.221	32.6
554.646	32.49
555.072	32.39
555.498	32.26
555.923	32.16
556.349	32.06
556.774	32
557.199	31.9
557.625	31.8
558.05	31.72
558.475	31.64
558.9	31.58
559.325	31.52
559.75	31.43
560.175	31.35
560.6	31.21
561.025	31.05
561.449	30.86
561.874	30.68
562.299	30.5
562.723	30.33
563.148	30.12
563.572	29.9
563.997	29.68
564.421	29.44
564.846	29.21
565.27	28.97
565.694	28.75
566.118	28.51
566.542	28.28
566.966	28.04
567.39	27.81
567.814	27.61
568.238	27.41
568.662	27.24
569.086	27.07
569.509	26.93
569.933	26.79
570.357	26.64
570.78	26.49
571.204	26.34
571.627	26.22
572.05	26.07
572.474	25.95
572.897	25.79
573.32	25.64
573.743	25.49
574.166	25.31
574.589	25.16
575.012	25.04
575.435	24.93
575.858	24.85
576.281	24.76
576.704	24.68
577.126	24.59
577.549	24.52
577.972	24.46
578.394	24.4
578.817	24.37
579.239	24.33
579.661	24.29
580.084	24.24
580.506	24.17
580.928	24.08
581.35	23.99
581.772	23.87
582.194	23.77
582.616	23.68
583.038	23.59
583.46	23.47
583.882	23.33
584.303	23.14
584.725	22.95
585.147	22.76
585.568	22.61
585.99	22.46
586.411	22.34
586.833	22.24
587.254	22.11
587.675	22
588.096	21.92
588.518	21.85
588.939	21.84
589.36	21.83
589.781	21.82
590.202	21.79
590.623	21.76
591.043	21.69
591.464	21.63
591.885	21.57
592.305	21.51
592.726	21.45
593.147	21.38
593.567	21.29
593.987	21.22
594.408	21.14
594.828	21.07
595.248	20.99
595.669	20.94
596.089	20.84
596.509	20.75
596.929	20.66
597.349	20.54
597.769	20.43
598.189	20.34
598.608	20.26
599.028	20.2
599.448	20.14
599.867	20.08
600.287	20.01
600.706	19.95
601.126	19.88
601.545	19.81
601.965	19.76
602.384	19.7
602.803	19.63
603.222	19.54
603.641	19.44
604.061	19.34
604.48	19.22
604.898	19.1
605.317	18.99
605.736	18.88
606.155	18.76
606.574	18.65
606.992	18.52
607.411	18.41
607.829	18.28
608.248	18.16
608.666	18.04
609.085	17.93
609.503	17.82
609.921	17.71
610.339	17.6
610.758	17.5
611.176	17.39
611.594	17.29
612.012	17.17
612.43	17.07
612.847	16.96
613.265	16.87
613.683	16.78
614.101	16.71
614.518	16.63
614.936	16.56
615.353	16.47
615.771	16.42
616.188	16.35
616.606	16.31
617.023	16.27
617.44	16.24
617.857	16.17
618.274	16.1
618.691	16.01
619.108	15.95
619.525	15.87
619.942	15.8
620.359	15.72
620.776	15.65
621.192	15.58
621.609	15.5
622.026	15.44
622.442	15.4
622.859	15.34
623.275	15.29
623.691	15.24
624.108	15.19
624.524	15.15
624.94	15.1
625.356	15.06
625.772	15.01
626.188	14.97
626.604	14.93
627.02	14.88
627.436	14.85
627.852	14.81
628.268	14.8
628.683	14.78
629.099	14.76
629.514	14.74
629.93	14.73
630.345	14.72
630.761	14.7
631.176	14.69
631.591	14.66
632.007	14.63
632.422	14.62
632.837	14.59
633.252	14.56
633.667	14.52
634.082	14.49
634.497	14.44
634.911	14.39
635.326	14.34
635.741	14.27
636.155	14.22
636.57	14.14
636.984	14.06
637.399	13.98
637.813	13.9
638.228	13.81
638.642	13.71
639.056	13.62
639.47	13.54
639.884	13.46
640.298	13.39
640.712	13.31
641.126	13.23
641.54	13.14
641.954	13.06
642.368	12.98
642.781	12.89
643.195	12.81
643.609	12.74
644.022	12.66
644.436	12.58
644.849	12.5
645.262	12.41
645.676	12.34
646.089	12.29
646.502	12.24
646.915	12.2
647.328	12.16
647.741	12.11
648.154	12.08
648.567	12.05
648.98	12.02
649.393	12
649.805	12
650.218	11.95
650.631	11.92
651.043	11.86
651.456	11.77
651.868	11.66
652.28	11.56
652.693	11.46
653.105	11.39
653.517	11.32
653.929	11.25
654.341	11.19
654.753	11.16
655.165	11.12
655.577	11.1
655.989	11.1
656.401	11.13
656.813	11.16
657.224	11.17
657.636	11.15
658.047	11.13
658.459	11.09
658.87	11.03
659.282	10.97
659.693	10.9
660.104	10.83
660.515	10.77
660.926	10.71
661.338	10.63
661.749	10.57
662.159	10.5
662.57	10.45
662.981	10.38
663.392	10.33
663.803	10.27
664.213	10.23
664.624	10.18
665.035	10.13
665.445	10.09
665.855	10.05
666.266	10
666.676	9.96
667.086	9.91
667.497	9.86
667.907	9.82
668.317	9.78
668.727	9.74
669.137	9.72
669.547	9.7
669.956	9.67
670.366	9.64
670.776	9.61
671.186	9.6
671.595	9.6
672.005	9.59
672.414	9.59
672.824	9.59
673.233	9.59
673.642	9.59
674.052	9.58
674.461	9.58
674.87	9.59
675.279	9.6
675.688	9.61
676.097	9.61
676.506	9.62
676.915	9.64
677.323	9.66
677.732	9.68
678.141	9.71
678.549	9.74
678.958	9.77
679.366	9.81
679.775	9.84
680.183	9.88
680.592	9.94
681	9.99
681.408	10.05
681.816	10.09
682.224	10.11
682.632	10.11
683.04	10.1
683.448	10.1
683.856	10.11
684.264	10.16
684.671	10.21
685.079	10.27
685.487	10.37
685.894	10.48
686.302	10.62
686.709	10.81
687.116	11.07
687.524	11.36
687.931	11.67
688.338	12
688.745	12.34
689.152	12.7
689.559	13.08
689.966	13.47
690.373	13.87
690.78	14.3
691.187	14.73
691.593	15.18
692	15.65
692.407	16.11
692.813	16.6
693.22	17.09
693.626	17.59
694.032	18.1
694.439	18.61
694.845	19.15
695.251	19.66
695.657	20.18
696.063	20.7
696.469	21.21
696.875	21.74
697.281	22.25
697.687	22.76
698.093	23.28
698.498	23.78
698.904	24.3
699.31	24.82
699.715	25.36
700.12	25.9
700.526	26.42
700.931	26.96
701.337	27.5
701.742	28.02
702.147	28.55
702.552	29.09
702.957	29.58
703.362	30.09
703.767	30.57
704.172	31.05
704.577	31.54
704.981	32.01
705.386	32.47
705.791	32.92
706.195	33.39
706.6	33.85
707.004	34.28
707.408	34.75
707.813	35.2
708.217	35.66
708.621	36.09
709.025	36.5
709.43	36.93
709.834	37.35
710.237	37.75
710.641	38.15
711.045	38.54
711.449	38.92
711.853	39.31
712.256	39.63
712.66	39.91
713.064	40.15
713.467	40.37
713.87	40.56
714.274	40.69
714.677	40.86
715.08	40.98
715.484	41.11
715.887	41.27
716.29	41.42
716.693	41.66
717.096	41.97
717.499	42.36
717.901	42.76
718.304	43.17
718.707	43.62
719.109	44.02
719.512	44.44
719.915	44.82
720.317	45.17
720.719	45.49
721.122	45.76
721.524	46
721.926	46.22
722.328	46.43
722.731	46.63
723.133	46.84
723.535	47.07
723.937	47.29
724.338	47.51
724.74	47.73
725.142	47.96
725.544	48.18
725.945	48.4
726.347	48.57
726.748	48.76
727.15	48.96
727.551	49.19
727.952	49.4
728.354	49.64
728.755	49.89
729.156	50.14
729.557	50.36
729.958	50.6
730.359	50.82
730.76	51.08
731.161	51.27
731.562	51.48
731.962	51.62
732.363	51.78
732.763	51.91
733.164	52.02
733.564	52.13
733.965	52.22
734.365	52.29
734.766	52.35
735.166	52.39
735.566	52.46
735.966	52.5
736.366	52.57
736.766	52.59
737.166	52.63
737.566	52.65
737.966	52.67
738.365	52.72
738.765	52.79
739.165	52.85
739.564	52.92
739.964	52.96
740.363	53
740.763	53.04
741.162	53.1
741.561	53.15
741.96	53.21
742.36	53.3
742.759	53.33
743.158	53.36
743.557	53.38
743.955	53.42
744.354	53.46
744.753	53.49
745.152	53.52
745.55	53.56
745.949	53.57
746.348	53.59
746.746	53.56
747.144	53.57
747.543	53.57
747.941	53.57
748.339	53.54
748.737	53.54
749.136	53.5
749.534	53.47
749.932	53.46
750.33	53.45
750.727	53.43
751.125	53.43
751.523	53.4
751.921	53.38
752.318	53.36
752.716	53.3
753.113	53.26
753.511	53.24
753.908	53.21
754.305	53.12
754.703	52.87
755.1	52.43
755.497	51.74
755.894	50.85
756.291	49.82
756.688	48.76
757.085	47.83
757.482	46.92
757.878	46.07
758.275	45.22
758.672	44.38
759.068	43.7
759.465	43.22
759.861	43.08
760.258	43.19
760.654	43.52
761.05	43.93
761.447	44.31
761.843	44.71
762.239	45.12
762.635	45.61
763.031	46.19
763.427	46.81
763.822	47.46
764.218	48.07
764.614	48.65
765.01	49.17
765.405	49.65
765.801	50.06
766.196	50.45
766.592	50.75
766.987	50.99
767.382	51.15
767.778	51.27
768.173	51.37
768.568	51.44
768.963	51.49
769.358	51.53
769.753	51.55
770.148	51.58
770.542	51.55
770.937	51.54
771.332	51.54
771.726	51.53
772.121	51.5
772.515	51.47
772.91	51.45
773.304	51.42
773.699	51.39
774.093	51.34
774.487	51.31
774.881	51.28
775.275	51.24
775.669	51.17
776.063	51.13
776.457	51.1
776.851	51.04
777.245	50.99
777.638	50.94
778.032	50.91
778.425	50.9
778.819	50.85
779.212	50.79
779.606	50.74
779.999	50.69
780.392	50.66
780.786	50.64
781.179	50.62
781.572	50.6
781.965	50.57
782.358	50.51
782.751	50.45
783.143	50.4
783.536	50.35
783.929	50.3
784.322	50.26
784.714	50.2
785.107	50.13
785.499	50.05
785.891	49.98
786.284	49.93
786.676	49.85
787.068	49.76
787.46	49.68
787.852	49.62
788.245	49.55
788.636	49.46
789.028	49.38
789.42	49.28
789.812	49.23
790.204	49.15
790.595	49.03
790.987	48.97
791.378	48.93
791.77	48.89
792.161	48.83
792.553	48.75
792.944	48.7
793.335	48.68
793.726	48.65
794.117	48.57
794.508	48.54
794.899	48.51
795.29	48.48
795.681	48.37
796.072	48.29
796.463	48.21
796.853	48.16
797.244	48.09
797.634	48.02
798.025	47.97
798.415	47.89
798.806	47.81
799.196	47.71
799.586	47.66
799.976	47.64
800.366	47.59
800.756	47.56
801.146	47.51
801.536	47.45
801.926	47.39
802.316	47.31
802.706	47.31
803.095	47.27
803.485	47.22
803.874	47.13
804.264	47.04
804.653	46.97
805.043	46.9
805.432	46.81
805.821	46.74
806.21	46.66
806.599	46.59
806.988	46.46
807.377	46.35
807.766	46.25
808.155	46.13
808.544	46.05
808.933	45.93
809.321	45.82
809.71	45.69
810.098	45.54
810.487	45.39
810.875	45.23
811.264	45.06
811.652	44.91
812.04	44.75
812.428	44.64
812.816	44.47
813.204	44.31
813.592	44.15
813.98	44.02
814.368	43.91
814.756	43.83
815.144	43.73
815.531	43.68
815.919	43.62
816.306	43.62
816.694	43.57
817.081	43.57
817.469	43.57
817.856	43.53
818.243	43.46
818.63	43.39
819.017	43.3
819.404	43.25
819.791	43.18
820.178	43.13
820.565	43.02
820.952	42.96
821.339	42.86
821.725	42.79
822.112	42.76
822.498	42.78
822.885	42.77
823.271	42.74
823.657	42.66
824.044	42.62
824.43	42.55
824.816	42.5
825.202	42.42
825.588	42.35
825.974	42.27
826.36	42.2
826.746	42.1
827.132	42.06
827.517	42.04
827.903	42.03
828.289	41.96
828.674	41.91
829.06	41.86
829.445	41.81
829.83	41.76
830.216	41.71
830.601	41.68
830.986	41.64
831.371	41.56
831.756	41.51
832.141	41.45
832.526	41.43
832.911	41.39
833.295	41.36
833.68	41.33
834.065	41.32
834.449	41.29
834.834	41.25
835.218	41.21
835.603	41.16
835.987	41.1
836.371	41.06
836.755	41
837.139	40.96
837.524	40.93
837.908	40.91
838.291	40.87
838.675	40.84
839.059	40.8
839.443	40.75
839.827	40.7
840.21	40.66
840.594	40.64
840.977	40.61
841.361	40.58
841.744	40.52
842.127	40.46
842.511	40.41
842.894	40.37
843.277	40.34
843.66	40.33
844.043	40.32
844.426	40.3
844.809	40.27
845.191	40.23
845.574	40.19
845.957	40.17
846.339	40.13
846.722	40.1
847.104	40.08
847.487	40.04
847.869	39.99
848.252	39.96
848.634	39.93
849.016	39.92
849.398	39.89
849.78	39.85
850.162	39.8
850.544	39.77
850.926	39.75
851.307	39.7
851.689	39.67
852.071	39.68
852.452	39.66
852.834	39.63
853.215	39.6
853.597	39.59
853.978	39.6
854.359	39.61
854.741	39.62
855.122	39.63
855.503	39.63
855.884	39.62
856.265	39.61
856.646	39.59
857.026	39.62
857.407	39.6
857.788	39.58
858.169	39.58
858.549	39.57
858.93	39.54
859.31	39.53
859.69	39.53
860.071	39.53
860.451	39.5
860.831	39.48
861.211	39.43
861.591	39.4
861.971	39.36
862.351	39.33
862.731	39.3
863.111	39.27
863.491	39.24
863.87	39.2
864.25	39.14
864.629	39.12
865.009	39.11
865.388	39.07
865.768	39.08
866.147	39.08
866.526	39.06
866.905	39.05
867.284	39.05
867.663	39.03
868.042	39.04
868.421	39.06
868.8	39.05
869.179	39.03
869.558	39.04
869.936	39.02
870.315	39.01
870.693	39
871.072	38.97
871.45	38.97
871.828	38.96
872.207	38.95
872.585	38.91
872.963	38.89
873.341	38.88
873.719	38.89
874.097	38.88
874.475	38.87
874.853	38.86
875.23	38.89
875.608	38.9
875.986	38.9
876.363	38.89
876.741	38.89
877.118	38.89
877.495	38.89
877.873	38.89
878.25	38.89
878.627	38.88
879.004	38.87
879.381	38.85
879.758	38.8
880.135	38.77
880.512	38.77
880.889	38.76
881.265	38.73
881.642	38.73
882.019	38.7
882.395	38.67
882.772	38.65
883.148	38.63
883.524	38.62
883.901	38.61
884.277	38.58
884.653	38.56
885.029	38.57
885.405	38.55
885.781	38.51
886.157	38.49
886.532	38.49
886.908	38.47
887.284	38.46
887.659	38.41
888.035	38.38
888.411	38.36
888.786	38.34
889.161	38.31
889.537	38.28
889.912	38.26
890.287	38.25
890.662	38.2
891.037	38.19
891.412	38.15
891.787	38.12
892.162	38.09
892.536	38.05
892.911	38.03
893.286	37.98
893.66	37.94
894.035	37.91
894.409	37.84
894.784	37.8
895.158	37.75
895.532	37.73
895.906	37.7
896.281	37.66
896.655	37.63
897.029	37.6
897.402	37.57
897.776	37.56
898.15	37.57
898.524	37.59
898.898	37.6
899.271	37.6
899.645	37.63
900.018	37.65
900.392	37.68
900.765	37.72
901.138	37.73
901.511	37.76
901.884	37.8
902.258	37.8
902.631	37.8
903.003	37.83
903.376	37.83
903.749	37.82
904.122	37.8
904.495	37.81
904.867	37.8
905.24	37.81
905.612	37.82
905.985	37.78
906.357	37.78
906.729	37.79
907.102	37.77
907.474	37.76
907.846	37.75
908.218	37.76
908.59	37.77
908.962	37.76
909.334	37.77
909.705	37.76
910.077	37.77
910.449	37.77
910.82	37.78
911.192	37.78
911.563	37.79
911.935	37.8
912.306	37.8
912.677	37.78
913.048	37.8
913.419	37.77
913.79	37.78
914.161	37.79
914.532	37.78
914.903	37.76
915.274	37.75
915.645	37.75
916.015	37.78
916.386	37.79
916.756	37.79
917.127	37.82
917.497	37.83
917.868	37.81
918.238	37.81
918.608	37.87
918.978	37.87
919.348	37.9
919.718	37.89
920.088	37.87
920.458	37.83
920.828	37.82
921.198	37.74
921.567	37.74
921.937	37.79
922.306	37.78
922.676	37.76
923.045	37.78
923.415	37.76
923.784	37.75
924.153	37.76
924.522	37.8
924.891	37.8
925.26	37.85
925.629	37.85
925.998	37.82
926.367	37.82
926.736	37.78
927.104	37.74
927.473	37.69
927.842	37.65
928.21	37.62
928.578	37.53
928.947	37.51
929.315	37.43
929.683	37.4
930.051	37.33
930.42	37.24
930.788	37.17
931.156	37.09
931.523	37.07
931.891	37.07
932.259	37.04
932.627	37.05
932.994	37
933.362	36.96
933.729	36.94
934.097	36.96
934.464	36.99
934.831	37.01
935.199	37.02
935.566	37.02
935.933	37.02
936.3	37.02
936.667	37.02
937.034	37.08
937.401	37.15
937.767	37.19
938.134	37.18
938.501	37.24
938.867	37.34
939.234	37.42
939.6	37.5
939.967	37.55
940.333	37.59
940.699	37.7
941.065	37.7
941.431	37.77
941.798	37.76
942.163	37.79
942.529	37.78
942.895	37.76
943.261	37.77
943.627	37.77
943.992	37.76
944.358	37.79
944.723	37.74
945.089	37.7
945.454	37.7
945.82	37.73
946.185	37.72
946.55	37.72
946.915	37.7
947.28	37.64
947.645	37.6
948.01	37.61
948.375	37.57
948.74	37.58
949.104	37.62
949.469	37.61
949.834	37.55
950.198	37.54
950.562	37.47
950.927	37.44
951.291	37.44
951.655	37.41
952.02	37.33
952.384	37.28
952.748	37.2
953.112	37.13
953.476	37
953.839	36.96
954.203	36.93
954.567	36.93
954.931	36.89
955.294	36.88
955.658	36.85
956.021	36.83
956.385	36.82
956.748	36.82
957.111	36.77
957.474	36.83
957.837	36.77
958.2	36.77
958.563	36.76
958.926	36.77
959.289	36.74
959.652	36.71
960.015	36.72
960.377	36.67
960.74	36.75
961.102	36.82
961.465	36.84
961.827	36.9
962.189	36.86
962.552	36.83
962.914	36.82
963.276	36.8
963.638	36.85
964	36.84
964.362	36.88
964.724	36.82
965.085	36.78
965.447	36.74
965.809	36.74
966.17	36.79
966.532	36.86
966.893	36.92
967.255	36.9
967.616	36.9
967.977	36.93
968.338	36.91
968.699	36.86
969.061	36.86
969.421	36.91
969.782	36.93
970.143	36.89
970.504	36.86
970.865	36.88
971.225	36.91
971.586	36.92
971.946	36.93
972.307	36.96
972.667	37.03
973.027	37.08
973.388	37.07
973.748	37.04
974.108	37.09
974.468	37.09
974.828	37.03
975.188	37.07
975.548	37.02
975.907	37.03
976.267	37.06
976.627	37
976.986	36.94
977.346	36.89
977.705	36.91
978.064	36.91
978.424	36.97
978.783	36.96
979.142	36.91
979.501	36.94
979.86	36.96
980.219	36.98
980.578	37.06
980.937	37.09
981.296	37.15
981.654	37.2
982.013	37.23
982.371	37.24
982.73	37.3
983.088	37.36
983.447	37.4
983.805	37.39
984.163	37.39
984.521	37.39
984.879	37.38
985.237	37.38
985.595	37.4
985.953	37.34
986.311	37.32
986.669	37.32
987.026	37.35
987.384	37.37
987.741	37.35
988.099	37.39
988.456	37.39
988.814	37.45
989.171	37.48
989.528	37.53
989.885	37.58
990.242	37.59
990.599	37.63
990.956	37.69
991.313	37.71
991.67	37.82
992.027	37.94
992.383	38.02
992.74	38.08
993.096	38.05
993.453	38.05
993.809	38.08
994.165	38.15
994.522	38.19
994.878	38.22
995.234	38.27
995.59	38.34
995.946	38.26
996.302	38.33
996.658	38.44
997.013	38.54
997.369	38.55
997.725	38.6
998.08	38.7
998.436	38.74
998.791	38.77
999.147	38.78
999.502	38.79
999.857	38.81
1000.212	38.71
1000.567	38.76
1000.922	38.84
1001.277	38.9
1001.632	38.92
1001.987	38.99
1002.342	38.99
1002.696	39.02
1003.051	39.09
1003.406	39.2
1003.76	39.28
1004.114	39.4
1004.469	39.38
1004.823	39.63
1005.177	39.71
1005.531	39.96
1005.885	39.95
1006.239	39.98
1006.593	40.16
1006.947	40.24
1007.301	40.21
1007.655	40.19
1008.008	40.21
1008.362	40.32
1008.715	40.18
1009.069	40.27
1009.422	40.16
1009.776	40.27
1010.129	40.39
1010.482	40.28
1010.835	40.29
1011.188	40.45
1011.541	40.69
1011.894	40.85
1012.247	40.82
1012.6	40.91
1012.952	40.78
1013.305	40.91
1013.657	40.98
1014.01	40.99
1014.362	41.16
1014.715	41.22
1015.067	41.22
1015.419	41.35
1015.771	41.42
1016.123	41.49
1016.475	41.5
1016.827	41.84
1017.179	41.92
1017.531	42.03
1017.883	42.25
1018.234	42.32
1018.586	42.47
1018.938	42.56
1019.289	42.62
1019.64	42.72
1019.992	42.81
1020.343	42.88
1020.694	43
1021.045	42.97
1021.396	42.94
1021.747	43.1
1022.098	43.36
1022.449	43.46
1022.8	43.64
1023.151	43.57
1023.501	43.64
1023.852	43.95
1024.202	44.09
1024.553	44.02
1024.903	44.35
1025.253	44.62
1025.604	44.54
1025.954	44.32
1026.304	44.49
1026.654	44.49
1027.004	44.47
1027.354	44.57
1027.703	44.7
1028.053	44.71
1028.403	45.03
1028.753	45.13
1029.102	45.06
1029.452	45
1029.801	45.11
1030.15	45.07
1030.499	45.08
897.758	987.96
901.051	998.89
904.343	994
907.636	1016.73
910.928	985.59
914.22	986.77
917.511	972.4
920.803	930.51
924.094	926.89
927.384	905.78
930.675	874.12
933.965	869.19
937.255	813.77
940.544	783.85
943.834	747.74
947.123	743.11
950.411	699.43
953.7	686.36
956.988	648.66
960.276	623.83
963.563	614.44
966.851	589.65
970.138	586.7
973.424	572.08
976.711	574.11
979.997	543.03
983.283	540.51
986.568	529.14
989.853	514.42
993.138	505.15
996.423	486.57
999.708	473.48
1002.992	468.73
1006.275	447.86
1009.559	443.77
1012.842	427.24
1016.125	417.61
1019.408	409.21
1022.69	406.52
1025.972	396.56
1029.254	387.24
1032.536	380.37
1035.817	375.29
1039.098	370.15
1042.379	363.36
1045.659	359.15
1048.939	350.5
1052.219	344.31
1055.498	339.3
1058.778	329.89
1062.057	325.21
1065.335	322.67
1068.614	319.32
1071.892	314.8
1075.17	305.91
1078.447	299.62
1081.724	297.23
1085.001	295.6
1088.278	289.54
1091.554	284.6
1094.83	285.86
1098.106	282.06
1101.382	279.73
1104.657	277.05
1107.932	272.74
1111.206	273.72
1114.481	268.27
1117.755	266.46
1121.029	263.97
1124.302	263.12
1127.575	259.85
1130.848	255.48
1134.121	253.63
1137.393	251.78
1140.665	247.82
1143.937	245.15
1147.208	245.05
1150.48	243.76
1153.75	240.41
1157.021	237.49
1160.291	237.62
1163.561	234.75
1166.831	234.37
1170.101	232.68
1173.37	232.36
1176.639	232.34
1179.907	231.13
1183.176	227.19
1186.444	227.12
1189.711	226.64
1192.979	226.04
1196.246	224.9
1199.513	224.78
1202.78	224.35
1206.046	223.85
1209.312	221.89
1212.578	222.44
1215.843	223.68
1219.108	223.17
1222.373	227.07
1225.638	227.77
1228.902	230.69
1232.166	230.73
1235.43	232.31
1238.693	234.7
1241.956	237.05
1245.219	239.86
1248.482	239.92
1251.744	240.12
1255.006	240.19
1258.268	235.38
1261.529	234.35
1264.79	233.65
1268.051	231.63
1271.312	229.17
1274.572	226.58
1277.832	224.24
1281.092	221.08
1284.351	219.25
1287.61	219.16
1290.869	216.25
1294.128	214.58
1297.386	214.66
1300.644	211.75
1303.902	212.96
1307.159	213.22
1310.416	212.53
1313.673	211.91
1316.93	214.08
1320.186	213.56
1323.442	213.79
1326.697	216.5
1329.953	218.04
1333.208	218.02
1336.463	220.98
1339.717	220.74
1342.972	222.58
1346.226	224.87
1349.479	225.02
1352.733	225.34
1355.986	227.76
1359.238	227.35
1362.491	228.23
1365.743	229.98
1368.995	230.78
1372.247	230.41
1375.498	230.88
1378.749	231.28
1382	228.84
1385.251	229.52
1388.501	228.05
1391.751	227.07
1395	226.44
1398.25	224.83
1401.499	222.78
1404.748	221.45
1407.996	218.86
1411.244	217.42
1414.492	215.67
1417.74	212.99
1420.987	210.58
1424.234	209.8
1427.481	207.29
1430.728	207.08
1433.974	205.1
1437.22	202.51
1440.465	202.28
1443.711	199.7
1446.956	198.2
1450.201	196.16
1453.445	194.57
1456.689	193.13
1459.933	189.4
1463.177	188.48
1466.42	185.82
1469.663	183.8
1472.906	182.79
1476.148	177.86
1479.391	176.57
1482.633	175.16
1485.874	173.01
1489.115	171.72
1492.356	169.56
1495.597	170.04
1498.838	167.56
1502.078	166.3
1505.318	165.69
1508.557	166.03
1511.797	166.23
1515.036	164
1518.274	164.35
1521.513	163.49
1524.751	163.28
1527.989	163.01
1531.227	162.17
1534.464	162.16
1537.701	162.04
1540.938	161.2
1544.174	159.19
1547.41	159.76
1550.646	159.56
1553.882	158.74
1557.117	157.31
1560.352	156.43
1563.587	156.54
1566.821	155.66
1570.055	154.78
1573.289	153.55
1576.523	154.24
1579.756	152.86
1582.989	152.01
1586.222	152.46
1589.454	152.15
1592.686	152.62
1595.918	152.59
1599.15	151.99
1602.381	152.21
1605.612	151.95
1608.843	151.75
1612.073	151.81
1615.303	152.84
1618.533	152.51
1621.762	151.98
1624.992	152.29
1628.221	152.15
1631.449	151.18
1634.678	151.15
1637.906	152.29
1641.134	152.09
1644.361	152.04
1647.588	152
1650.815	151.68
1654.042	151.3
1657.269	152.31
1660.495	152.2
1663.72	151.98
1666.946	153.06
1670.171	153.64
1673.396	153.42
1676.621	152.88
1679.845	153.76
1683.069	153.96
1686.293	154.48
1689.517	155.51
1692.74	155.06
1695.963	155.17
1699.185	156.57
1702.408	156.84
1705.63	156.85
1708.852	157.08
1712.073	158.09
1715.294	157.85
1718.515	158.9
1721.736	158.95
1724.956	159.18
1728.176	159.41
1731.396	160.45
1734.616	159.19
1737.835	159.59
1741.054	159.21
1744.272	158.95
1747.491	160.48
1750.709	160.68
1753.927	159.84
1757.144	159.95
1760.361	159.7
1763.578	160.49
1766.795	160.07
1770.011	162.37
1773.227	161.68
1776.443	163.21
1779.658	163.97
1782.874	163.55
1786.089	163.9
1789.303	164.38
1792.518	166.13
1795.732	166.31
1798.945	167.21
1802.159	167.35
1805.372	166.7
1808.585	169.81
1811.797	170.14
1815.01	170.81
1818.222	171.88
1821.434	174.19
1824.645	174.65
1827.856	176.96
1831.067	178.3
1834.278	178.52
1837.488	179.98
1840.698	181.6
1843.908	180.18
1847.117	180.48
1850.326	181.24
1853.535	179.96
1856.744	181.9
1859.952	181.81
1863.16	179.95
1866.368	178.34
1869.575	178.78
1872.782	176.72
1875.989	175.63
1879.196	175.03
1882.402	174.05
1885.608	173.75
1888.814	174.09
1892.019	172.84
1895.224	171.58
1898.429	171.43
1901.634	172.38
1904.838	172.58
1908.042	173.22
1911.246	173.01
1914.449	173.27
1917.652	174.32
1920.855	173.6
1924.058	174.66
1927.26	173.41
1930.462	174.61
1933.664	175.61
1936.865	173.68
1940.066	173.22
1943.267	173.14
1946.467	173.53
1949.668	173.63
1952.868	175.61
1956.067	176.69
1959.267	175.54
1962.466	176.09
1965.665	174.93
1968.863	175.96
1972.061	180.19
1975.259	181.31
1978.457	181.74
1981.654	183.61
1984.852	184.83
1988.048	183.01
1991.245	185.07
1994.441	186.89
1997.637	188.86
2000.833	192.63
2004.028	194.53
2007.223	194.48
2010.418	196.6
2013.613	200.81
2016.807	202.65
2020.001	204.25
2023.194	208.76
2026.388	212.84
2029.581	217.73
2032.774	219.55
2035.966	222.91
2039.158	224.01
2042.35	227.99
2045.542	229.9
2048.733	232.9
2051.924	236.78
2055.115	240.85
2058.306	240.33
2061.496	242.65
2064.686	243.17
2067.875	246.9
2071.065	248.64
2074.254	247.02
2077.442	252.12
2080.631	252.12
2083.819	254.55
2087.007	254.42
2090.195	258.62
2093.382	261.38
2096.569	259.9
2099.756	264.39
2102.942	265.57
2106.128	267.16
2109.314	274.68
2112.5	271.87
2115.685	279.11
2118.87	280.05
2122.055	285.2
2125.239	285.64
2128.424	288.86
2131.608	291.38
2134.791	296.39
2137.974	297.18
2141.157	298.64
2144.34	298.21
2147.523	304.08
2150.705	301.9
2153.887	304.65
2157.068	305.52
2160.25	303.73
2163.431	304.4
2166.611	308.31
2169.792	311.42
2172.972	315.16
2176.152	319.27
2179.331	323.01
2182.511	325.95
2185.69	329.46
2188.868	337.01
2192.047	337.26
2195.225	346.71
2198.403	354.97
2201.58	363.36
2204.758	370.05
2207.935	375.58
2211.111	381.81
2214.288	386.5
2217.464	388.46
2220.64	395.49
2223.815	397.74
2226.991	414.53
2230.166	415.51
2233.34	421.46
2236.515	426.48
2239.689	429.66
2242.863	433.09
2246.036	442.69
2249.209	438.18
2252.382	446.26
2255.555	458.39
2258.727	461.09
2261.9	465.57
2265.071	469.35
2268.243	480.08
2271.414	485.05
2274.585	492.79
2277.756	498.02
2280.926	502.63
2284.096	518.07
2287.266	528.63
2290.436	532.44
2293.605	544.72
2296.774	558.54
2299.942	576.39
2303.111	578.43
2306.279	589.71
2309.447	599.18
2312.614	614.92
2315.781	631.55
2318.948	658.02
2322.115	648.32
2325.281	685.36
2328.447	674.41
2331.613	699.97
2334.779	692.15
2337.944	720.01
2341.109	727.29
2344.274	746.59
2347.438	774.71
2350.602	777.56
2353.766	802.03
2356.929	815.03
2360.092	809.07
2363.255	862.37
2366.418	860.99
2369.58	878.35
2372.742	937.5
2375.904	960.22
2379.066	956.09
2382.227	934.16
2385.388	1008.32
2388.548	1006.05
2391.709	1019.91
2394.869	1135.43
2398.029	1091.83
2401.188	1121.62
2404.347	1116.89
2407.506	1094.77
2410.665	1128.82
2413.823	1192.97
2416.981	1263.94
2420.139	1228.15
2423.296	1212.5
2426.453	1267.17
2429.61	1214.79
2432.767	1264.78
2435.923	1251.55
2439.079	1374.41
2442.235	1398.58
2445.391	1383.98
2448.546	1371.97
2451.701	1333.3
2454.855	1327.99
2458.009	1419.78
2461.163	1467.47
2464.317	1523.99
2467.471	1564.48
2470.624	1566.37
2473.777	1521.86
2476.929	1475.78
2480.082	1432.79
2483.234	1422.07
2486.385	1492.99
2489.537	1500.47
2492.688	1552.65
2495.839	1521.76
2498.989	1486.6
2502.14	1490.24
2505.29	1506.23
2508.439	1524.11
2511.589	1521.12
2514.738	1665.89
2517.887	1628.82
2521.035	1715.86
2524.183	1734.93
2527.331	1740.54
2530.479	1722.56
2533.627	1737.15
