Data from C_3_HIR_IL_4N_Splice17_14-27-47-860.txt Node
Date: Sat Mar 07 14:27:47 EST 2020
User: sa697716
Spectrometer: NQ5500242
Trigger mode: 0
Integration Time (sec): 1.450000E-1
Scans to average: 20
Nonlinearity correction enabled: false
Boxcar width: 5
Storing dark spectrum: false
XAxis mode: Wavelengths
Number of Pixels in Spectrum: 512
>>>>>Begin Spectral Data<<<<<
187.83	97.54
188.298	109
188.766	81.98
189.233	76.56
189.701	70.9
190.169	108.1
190.636	97.81
191.104	139.68
191.571	269.3
192.039	129.26
192.506	27.38
192.974	43.31
193.441	-38.96
193.908	-84.88
194.375	25.53
194.842	-18.76
195.31	110.12
195.777	151.1
196.244	78.42
196.711	76.18
197.177	76.59
197.644	76.23
198.111	75.76
198.578	75.93
199.045	76.73
199.511	76.02
199.978	76.09
200.445	75.68
200.911	75.58
201.378	75.71
201.844	75.57
202.31	75.25
202.777	74.92
203.243	74.96
203.709	74.77
204.176	73.81
204.642	73.23
205.108	72.7
205.574	72.44
206.04	71.87
206.506	71.2
206.972	70.82
207.438	69.98
207.903	69
208.369	67.4
208.835	65.87
209.301	64.33
209.766	62.63
210.232	60.76
210.697	58.96
211.163	57.22
211.628	55.78
212.094	54.14
212.559	52.85
213.024	51.56
213.49	50.35
213.955	49.17
214.42	48.12
214.885	46.58
215.35	44.73
215.815	42.19
216.28	39.04
216.745	35.64
217.21	32.1
217.675	28.93
218.14	26.1
218.604	23.57
219.069	21.49
219.534	19.7
219.998	18.33
220.463	17.14
220.927	16.09
221.392	15.32
221.856	14.61
222.32	14.06
222.785	13.53
223.249	13.1
223.713	12.75
224.177	12.42
224.642	12.1
225.106	11.75
225.57	11.45
226.034	11.18
226.497	10.94
226.961	10.7
227.425	10.48
227.889	10.28
228.353	10.06
228.816	9.85
229.28	9.66
229.744	9.49
230.207	9.33
230.671	9.17
231.134	9.03
231.597	8.88
232.061	8.75
232.524	8.62
232.987	8.48
233.45	8.38
233.914	8.25
234.377	8.13
234.84	8.02
235.303	7.93
235.766	7.86
236.229	7.77
236.691	7.68
237.154	7.61
237.617	7.53
238.08	7.45
238.542	7.38
239.005	7.33
239.468	7.26
239.93	7.2
240.393	7.13
240.855	7.04
241.317	6.98
241.78	6.91
242.242	6.84
242.704	6.78
243.166	6.73
243.629	6.68
244.091	6.61
244.553	6.54
245.015	6.48
245.477	6.42
245.939	6.38
246.4	6.32
246.862	6.27
247.324	6.22
247.786	6.16
248.247	6.1
248.709	6.04
249.17	5.97
249.632	5.94
250.093	5.9
250.555	5.84
251.016	5.79
251.477	5.75
251.939	5.7
252.4	5.67
252.861	5.62
253.322	5.6
253.783	5.57
254.244	5.55
254.705	5.5
255.166	5.47
255.627	5.44
256.088	5.42
256.549	5.38
257.009	5.36
257.47	5.32
257.931	5.27
258.391	5.22
258.852	5.17
259.312	5.13
259.773	5.1
260.233	5.06
260.694	5.02
261.154	4.98
261.614	4.94
262.074	4.89
262.534	4.86
262.994	4.83
263.455	4.8
263.915	4.78
264.374	4.74
264.834	4.71
265.294	4.69
265.754	4.66
266.214	4.64
266.673	4.62
267.133	4.6
267.593	4.58
268.052	4.56
268.512	4.54
268.971	4.53
269.431	4.52
269.89	4.5
270.349	4.48
270.809	4.47
271.268	4.46
271.727	4.45
272.186	4.44
272.645	4.43
273.104	4.42
273.563	4.4
274.022	4.39
274.481	4.38
274.94	4.37
275.399	4.36
275.857	4.36
276.316	4.34
276.775	4.33
277.233	4.33
277.692	4.32
278.15	4.31
278.609	4.31
279.067	4.31
279.525	4.31
279.984	4.3
280.442	4.3
280.9	4.29
281.358	4.3
281.816	4.3
282.274	4.29
282.732	4.29
283.19	4.29
283.648	4.28
284.106	4.28
284.564	4.27
285.021	4.28
285.479	4.27
285.937	4.27
286.394	4.27
286.852	4.26
287.309	4.25
287.767	4.23
288.224	4.22
288.682	4.22
289.139	4.2
289.596	4.19
290.053	4.17
290.511	4.16
290.968	4.14
291.425	4.11
291.882	4.1
292.339	4.09
292.796	4.08
293.252	4.07
293.709	4.05
294.166	4.04
294.623	4.03
295.079	4.02
295.536	4.02
295.992	4.01
296.449	4.01
296.905	4
297.362	3.99
297.818	3.98
298.274	3.97
298.731	3.97
299.187	3.97
299.643	3.96
300.099	3.95
300.555	3.94
301.011	3.94
301.467	3.94
301.923	3.93
302.379	3.93
302.835	3.93
303.291	3.93
303.746	3.93
304.202	3.93
304.658	3.94
305.113	3.94
305.569	3.94
306.024	3.94
306.479	3.94
306.935	3.94
307.39	3.95
307.845	3.96
308.301	3.96
308.756	3.97
309.211	3.97
309.666	3.98
310.121	3.99
310.576	3.99
311.031	4
311.486	4.01
311.94	4.03
312.395	4.02
312.85	4.02
313.305	4.03
313.759	4.04
314.214	4.03
314.668	4.02
315.123	4.03
315.577	4.02
316.032	4.02
316.486	4.02
316.94	4.02
317.394	4.01
317.849	3.99
318.303	3.98
318.757	3.96
319.211	3.96
319.665	3.95
320.119	3.93
320.572	3.92
321.026	3.9
321.48	3.89
321.934	3.88
322.387	3.88
322.841	3.88
323.295	3.88
323.748	3.88
324.202	3.88
324.655	3.87
325.108	3.88
325.562	3.89
326.015	3.89
326.468	3.89
326.921	3.89
327.374	3.89
327.827	3.89
328.28	3.88
328.733	3.89
329.186	3.89
329.639	3.89
330.092	3.9
330.545	3.89
330.997	3.9
331.45	3.91
331.903	3.92
332.355	3.94
332.808	3.94
333.26	3.95
333.713	3.95
334.165	3.96
334.617	3.96
335.069	3.97
335.522	3.98
335.974	3.99
336.426	3.99
336.878	4
337.33	3.99
337.782	4
338.234	4
338.686	4
339.137	4.01
339.589	4
340.041	4
340.493	3.98
340.944	3.97
341.396	3.95
341.847	3.94
342.299	3.92
342.75	3.9
343.201	3.89
343.653	3.88
344.104	3.85
344.555	3.84
345.006	3.83
345.457	3.82
345.908	3.81
346.359	3.8
346.81	3.79
347.261	3.78
347.712	3.78
348.163	3.77
348.613	3.77
349.064	3.77
349.515	3.77
349.965	3.77
350.416	3.76
350.866	3.76
351.317	3.75
351.767	3.76
352.217	3.77
352.668	3.77
353.118	3.77
353.568	3.77
354.018	3.77
354.468	3.78
354.918	3.78
355.368	3.8
355.818	3.8
356.268	3.81
356.718	3.81
357.168	3.82
357.617	3.82
358.067	3.82
358.517	3.83
358.966	3.83
359.416	3.83
359.865	3.83
360.315	3.83
360.764	3.84
361.213	3.83
361.663	3.84
362.112	3.84
362.561	3.85
363.01	3.86
363.459	3.84
363.908	3.83
364.357	3.83
364.806	3.83
365.255	3.83
365.703	3.84
366.152	3.85
366.601	3.85
367.05	3.85
367.498	3.85
367.947	3.87
368.395	3.89
368.844	3.9
369.292	3.91
369.74	3.92
370.189	3.92
370.637	3.92
371.085	3.92
371.533	3.92
371.981	3.93
372.429	3.93
372.877	3.94
373.325	3.94
373.773	3.94
374.221	3.94
374.669	3.95
375.116	3.96
375.564	3.96
376.012	3.98
376.459	4
376.907	4.02
377.354	4.04
377.801	4.05
378.249	4.08
378.696	4.09
379.143	4.11
379.591	4.13
380.038	4.15
380.485	4.17
380.932	4.19
381.379	4.21
381.826	4.23
382.273	4.24
382.72	4.25
383.166	4.26
383.613	4.28
384.06	4.3
384.506	4.31
384.953	4.33
385.4	4.35
385.846	4.38
386.292	4.4
386.739	4.43
387.185	4.44
387.631	4.47
388.078	4.5
388.524	4.51
388.97	4.54
389.416	4.56
389.862	4.59
390.308	4.62
390.754	4.65
391.2	4.68
391.645	4.72
392.091	4.76
392.537	4.79
392.983	4.83
393.428	4.86
393.874	4.89
394.319	4.92
394.765	4.94
395.21	4.96
395.655	4.99
396.101	5.01
396.546	5.03
396.991	5.06
397.436	5.08
397.881	5.11
398.326	5.15
398.771	5.17
399.216	5.21
399.661	5.25
400.106	5.28
400.551	5.28
400.995	5.29
401.44	5.3
401.885	5.31
402.329	5.34
402.774	5.36
403.218	5.38
403.663	5.42
404.107	5.44
404.551	5.45
404.995	5.47
405.44	5.48
405.884	5.51
406.328	5.54
406.772	5.56
407.216	5.58
407.66	5.6
408.104	5.6
408.547	5.6
408.991	5.61
409.435	5.62
409.879	5.64
410.322	5.67
410.766	5.69
411.209	5.71
411.653	5.73
412.096	5.74
412.54	5.75
412.983	5.78
413.426	5.82
413.869	5.84
414.312	5.88
414.756	5.91
415.199	5.93
415.642	5.95
416.085	5.97
416.527	5.97
416.97	5.97
417.413	5.98
417.856	5.98
418.298	5.97
418.741	5.96
419.184	5.95
419.626	5.94
420.069	5.96
420.511	5.95
420.953	5.96
421.396	5.98
421.838	5.99
422.28	6.01
422.722	6.04
423.164	6.07
423.606	6.09
424.048	6.1
424.49	6.11
424.932	6.1
425.374	6.08
425.816	6.06
426.258	6.05
426.699	6.03
427.141	6.02
427.582	6.01
428.024	6.02
428.465	6.03
428.907	6.03
429.348	6.03
429.789	6.04
430.231	6.07
430.672	6.11
431.113	6.14
431.554	6.16
431.995	6.18
432.436	6.2
432.877	6.21
433.318	6.23
433.759	6.26
434.2	6.29
434.64	6.32
435.081	6.33
435.522	6.35
435.962	6.37
436.403	6.4
436.843	6.42
437.284	6.41
437.724	6.42
438.164	6.41
438.604	6.43
439.045	6.43
439.485	6.46
439.925	6.47
440.365	6.46
440.805	6.45
441.245	6.46
441.685	6.47
442.125	6.49
442.564	6.5
443.004	6.51
443.444	6.5
443.883	6.5
444.323	6.47
444.762	6.48
445.202	6.49
445.641	6.5
446.081	6.52
446.52	6.53
446.959	6.55
447.398	6.57
447.837	6.58
448.276	6.6
448.716	6.62
449.154	6.65
449.593	6.66
450.032	6.65
450.471	6.64
450.91	6.61
451.349	6.6
451.787	6.58
452.226	6.56
452.664	6.55
453.103	6.52
453.541	6.5
453.98	6.48
454.418	6.45
454.856	6.43
455.295	6.42
455.733	6.38
456.171	6.37
456.609	6.35
457.047	6.32
457.485	6.29
457.923	6.27
458.361	6.25
458.798	6.23
459.236	6.21
459.674	6.2
460.111	6.19
460.549	6.21
460.987	6.19
461.424	6.19
461.862	6.2
462.299	6.21
462.736	6.21
463.173	6.21
463.611	6.21
464.048	6.22
464.485	6.23
464.922	6.22
465.359	6.22
465.796	6.22
466.233	6.22
466.67	6.22
467.106	6.23
467.543	6.24
467.98	6.23
468.416	6.23
468.853	6.22
469.29	6.22
469.726	6.22
470.162	6.22
470.599	6.22
471.035	6.22
471.471	6.21
471.907	6.2
472.344	6.19
472.78	6.19
473.216	6.18
473.652	6.18
474.088	6.17
474.523	6.16
474.959	6.15
475.395	6.13
475.831	6.11
476.266	6.1
476.702	6.08
477.138	6.07
477.573	6.06
478.008	6.05
478.444	6.03
478.879	6.02
479.314	5.99
479.75	5.98
480.185	5.97
480.62	5.95
481.055	5.94
481.49	5.92
481.925	5.9
482.36	5.89
482.795	5.87
483.229	5.86
483.664	5.85
484.099	5.84
484.534	5.82
484.968	5.82
485.403	5.81
485.837	5.8
486.271	5.8
486.706	5.78
487.14	5.77
487.574	5.76
488.009	5.76
488.443	5.76
488.877	5.75
489.311	5.76
489.745	5.75
490.179	5.76
490.613	5.77
491.046	5.77
491.48	5.79
491.914	5.8
492.348	5.82
492.781	5.83
493.215	5.84
493.648	5.87
494.082	5.87
494.515	5.89
494.948	5.9
495.382	5.91
495.815	5.93
496.248	5.95
496.681	5.97
497.114	5.99
497.547	6.01
497.98	6.03
498.413	6.04
498.846	6.08
499.279	6.11
499.711	6.15
500.144	6.19
500.577	6.23
501.009	6.28
501.442	6.31
501.874	6.37
502.306	6.42
502.739	6.49
503.171	6.56
503.603	6.62
504.036	6.69
504.468	6.76
504.9	6.82
505.332	6.89
505.764	6.98
506.196	7.06
506.627	7.15
507.059	7.24
507.491	7.33
507.923	7.44
508.354	7.55
508.786	7.66
509.217	7.78
509.649	7.9
510.08	8.04
510.512	8.17
510.943	8.31
511.374	8.45
511.805	8.6
512.237	8.76
512.668	8.91
513.099	9.08
513.53	9.24
513.961	9.42
514.391	9.61
514.822	9.79
515.253	9.97
515.684	10.16
516.114	10.36
516.545	10.56
516.975	10.76
517.406	10.96
517.836	11.17
518.267	11.38
518.697	11.58
519.127	11.78
519.558	11.99
519.988	12.21
520.418	12.41
520.848	12.61
521.278	12.83
521.708	13.15
522.138	13.35
522.567	13.55
522.997	13.76
523.427	13.96
523.857	14.16
524.286	14.34
524.716	14.53
525.145	14.71
525.575	14.9
526.004	15.08
526.433	15.14
526.863	15.32
527.292	15.49
527.721	15.64
528.15	15.79
528.579	15.93
529.008	16.08
529.437	16.21
529.866	16.34
530.295	16.45
530.724	16.57
531.152	16.67
531.581	16.78
532.01	16.88
532.438	16.97
532.867	17.07
533.295	17.17
533.723	17.25
534.152	17.32
534.58	17.4
535.008	17.46
535.436	17.52
535.865	17.57
536.293	17.62
536.721	17.65
537.149	17.7
537.576	17.73
538.004	17.76
538.432	17.8
538.86	17.84
539.287	17.86
539.715	17.89
540.143	17.93
540.57	17.95
540.998	17.98
541.425	18.02
541.852	18.05
542.28	18.08
542.707	18.12
543.134	18.15
543.561	18.18
543.988	18.22
544.415	18.23
544.842	18.26
545.269	18.3
545.696	18.33
546.123	18.36
546.549	18.39
546.976	18.41
547.403	18.43
547.829	18.46
548.256	18.49
548.682	18.51
549.108	18.56
549.535	18.58
549.961	18.58
550.387	18.59
550.813	18.6
551.24	18.61
551.666	18.6
552.092	18.61
552.518	18.6
552.943	18.59
553.369	18.58
553.795	18.55
554.221	18.56
554.646	18.54
555.072	18.52
555.498	18.47
555.923	18.44
556.349	18.39
556.774	18.35
557.199	18.29
557.625	18.23
558.05	18.17
558.475	18.11
558.9	18.02
559.325	17.94
559.75	17.85
560.175	17.77
560.6	17.67
561.025	17.59
561.449	17.48
561.874	17.37
562.299	17.26
562.723	17.14
563.148	17
563.572	16.86
563.997	16.73
564.421	16.58
564.846	16.46
565.27	16.32
565.694	16.19
566.118	16.05
566.542	15.89
566.966	15.75
567.39	15.61
567.814	15.46
568.238	15.32
568.662	15.18
569.086	15.06
569.509	14.93
569.933	14.8
570.357	14.65
570.78	14.52
571.204	14.4
571.627	14.28
572.05	14.16
572.474	14.06
572.897	13.97
573.32	13.86
573.743	13.75
574.166	13.63
574.589	13.53
575.012	13.44
575.435	13.36
575.858	13.27
576.281	13.18
576.704	13.11
577.126	13.03
577.549	12.95
577.972	12.87
578.394	12.8
578.817	12.74
579.239	12.67
579.661	12.61
580.084	12.54
580.506	12.5
580.928	12.44
581.35	12.37
581.772	12.3
582.194	12.25
582.616	12.2
583.038	12.14
583.46	12.08
583.882	12.03
584.303	11.97
584.725	11.91
585.147	11.85
585.568	11.81
585.99	11.77
586.411	11.73
586.833	11.69
587.254	11.64
587.675	11.59
588.096	11.55
588.518	11.51
588.939	11.48
589.36	11.45
589.781	11.42
590.202	11.39
590.623	11.34
591.043	11.31
591.464	11.28
591.885	11.25
592.305	11.22
592.726	11.2
593.147	11.17
593.567	11.14
593.987	11.11
594.408	11.07
594.828	11.03
595.248	11.02
595.669	11
596.089	10.98
596.509	10.95
596.929	10.93
597.349	10.9
597.769	10.87
598.189	10.84
598.608	10.81
599.028	10.79
599.448	10.75
599.867	10.7
600.287	10.67
600.706	10.63
601.126	10.6
601.545	10.58
601.965	10.55
602.384	10.51
602.803	10.47
603.222	10.43
603.641	10.4
604.061	10.37
604.48	10.33
604.898	10.28
605.317	10.23
605.736	10.19
606.155	10.14
606.574	10.09
606.992	10.05
607.411	10.01
607.829	9.94
608.248	9.88
608.666	9.83
609.085	9.78
609.503	9.74
609.921	9.69
610.339	9.65
610.758	9.59
611.176	9.54
611.594	9.48
612.012	9.42
612.43	9.4
612.847	9.36
613.265	9.31
613.683	9.27
614.101	9.22
614.518	9.18
614.936	9.12
615.353	9.08
615.771	9.03
616.188	9
616.606	8.98
617.023	8.95
617.44	8.92
617.857	8.88
618.274	8.84
618.691	8.8
619.108	8.77
619.525	8.75
619.942	8.72
620.359	8.7
620.776	8.67
621.192	8.64
621.609	8.61
622.026	8.58
622.442	8.56
622.859	8.55
623.275	8.53
623.691	8.52
624.108	8.51
624.524	8.49
624.94	8.48
625.356	8.48
625.772	8.47
626.188	8.47
626.604	8.46
627.02	8.45
627.436	8.45
627.852	8.44
628.268	8.44
628.683	8.43
629.099	8.43
629.514	8.42
629.93	8.41
630.345	8.4
630.761	8.38
631.176	8.36
631.591	8.34
632.007	8.32
632.422	8.3
632.837	8.26
633.252	8.23
633.667	8.19
634.082	8.14
634.497	8.09
634.911	8.04
635.326	8
635.741	7.94
636.155	7.89
636.57	7.84
636.984	7.78
637.399	7.73
637.813	7.66
638.228	7.6
638.642	7.53
639.056	7.46
639.47	7.4
639.884	7.34
640.298	7.28
640.712	7.23
641.126	7.17
641.54	7.11
641.954	7.05
642.368	7
642.781	6.95
643.195	6.91
643.609	6.87
644.022	6.83
644.436	6.79
644.849	6.75
645.262	6.71
645.676	6.67
646.089	6.64
646.502	6.61
646.915	6.59
647.328	6.57
647.741	6.54
648.154	6.52
648.567	6.49
648.98	6.46
649.393	6.44
649.805	6.42
650.218	6.41
650.631	6.39
651.043	6.37
651.456	6.36
651.868	6.34
652.28	6.32
652.693	6.3
653.105	6.29
653.517	6.28
653.929	6.26
654.341	6.23
654.753	6.21
655.165	6.19
655.577	6.17
655.989	6.15
656.401	6.13
656.813	6.12
657.224	6.08
657.636	6.05
658.047	6.03
658.459	6.02
658.87	6
659.282	5.97
659.693	5.94
660.104	5.92
660.515	5.89
660.926	5.87
661.338	5.84
661.749	5.83
662.159	5.82
662.57	5.8
662.981	5.78
663.392	5.77
663.803	5.76
664.213	5.74
664.624	5.73
665.035	5.73
665.445	5.72
665.855	5.73
666.266	5.73
666.676	5.73
667.086	5.72
667.497	5.72
667.907	5.73
668.317	5.73
668.727	5.74
669.137	5.75
669.547	5.75
669.956	5.77
670.366	5.76
670.776	5.76
671.186	5.77
671.595	5.78
672.005	5.79
672.414	5.81
672.824	5.81
673.233	5.83
673.642	5.84
674.052	5.85
674.461	5.86
674.87	5.89
675.279	5.92
675.688	5.94
676.097	5.97
676.506	6
676.915	6.02
677.323	6.05
677.732	6.07
678.141	6.1
678.549	6.12
678.958	6.15
679.366	6.18
679.775	6.21
680.183	6.23
680.592	6.27
681	6.29
681.408	6.33
681.816	6.37
682.224	6.42
682.632	6.46
683.04	6.52
683.448	6.58
683.856	6.63
684.264	6.69
684.671	6.76
685.079	6.84
685.487	6.94
685.894	7.04
686.302	7.15
686.709	7.28
687.116	7.42
687.524	7.59
687.931	7.77
688.338	7.97
688.745	8.19
689.152	8.42
689.559	8.69
689.966	8.97
690.373	9.26
690.78	9.6
691.187	9.93
691.593	10.27
692	10.63
692.407	11.02
692.813	11.42
693.22	11.84
693.626	12.28
694.032	12.72
694.439	13.17
694.845	13.65
695.251	14.13
695.657	14.6
696.063	15.11
696.469	15.63
696.875	16.15
697.281	16.67
697.687	17.19
698.093	17.71
698.498	18.23
698.904	18.78
699.31	19.3
699.715	19.82
700.12	20.35
700.526	20.89
700.931	21.44
701.337	21.95
701.742	22.48
702.147	23.02
702.552	23.55
702.957	24.07
703.362	24.59
703.767	25.1
704.172	25.62
704.577	26.14
704.981	26.64
705.386	27.11
705.791	27.61
706.195	28.11
706.6	28.59
707.004	29.07
707.408	29.56
707.813	30.05
708.217	30.51
708.621	31
709.025	31.46
709.43	31.92
709.834	32.39
710.237	32.85
710.641	33.3
711.045	33.73
711.449	34.18
711.853	34.63
712.256	35.06
712.66	35.51
713.064	35.92
713.467	36.34
713.87	36.75
714.274	37.14
714.677	37.58
715.08	37.97
715.484	38.38
715.887	38.8
716.29	39.18
716.693	39.6
717.096	39.97
717.499	40.36
717.901	40.76
718.304	41.15
718.707	41.53
719.109	41.88
719.512	42.25
719.915	42.61
720.317	42.93
720.719	43.24
721.122	43.54
721.524	43.86
721.926	44.16
722.328	44.46
722.731	44.75
723.133	45.03
723.535	45.32
723.937	45.59
724.338	45.86
724.74	46.12
725.142	46.42
725.544	46.68
725.945	46.94
726.347	47.14
726.748	47.38
727.15	47.6
727.551	47.82
727.952	48
728.354	48.19
728.755	48.38
729.156	48.56
729.557	48.7
729.958	48.87
730.359	49.02
730.76	49.22
731.161	49.38
731.562	49.58
731.962	49.71
732.363	49.88
732.763	50.04
733.164	50.17
733.564	50.35
733.965	50.51
734.365	50.62
734.766	50.74
735.166	50.86
735.566	50.97
735.966	51.06
736.366	51.17
736.766	51.24
737.166	51.35
737.566	51.44
737.966	51.51
738.365	51.61
738.765	51.72
739.165	51.81
739.564	51.89
739.964	51.93
740.363	51.96
740.763	52.03
741.162	52.1
741.561	52.14
741.96	52.2
742.36	52.24
742.759	52.25
743.158	52.28
743.557	52.31
743.955	52.36
744.354	52.45
744.753	52.55
745.152	52.63
745.55	52.7
745.949	52.77
746.348	52.82
746.746	52.87
747.144	52.94
747.543	52.98
747.941	53.06
748.339	53.1
748.737	53.12
749.136	53.14
749.534	53.17
749.932	53.19
750.33	53.21
750.727	53.25
751.125	53.27
751.523	53.28
751.921	53.31
752.318	53.3
752.716	53.3
753.113	53.32
753.511	53.34
753.908	53.36
754.305	53.37
754.703	53.36
755.1	53.37
755.497	53.37
755.894	53.39
756.291	53.39
756.688	53.36
757.085	53.38
757.482	53.36
757.878	53.33
758.275	53.31
758.672	53.3
759.068	53.33
759.465	53.3
759.861	53.31
760.258	53.3
760.654	53.3
761.05	53.34
761.447	53.31
761.843	53.3
762.239	53.33
762.635	53.34
763.031	53.34
763.427	53.32
763.822	53.35
764.218	53.33
764.614	53.35
765.01	53.32
765.405	53.31
765.801	53.29
766.196	53.32
766.592	53.3
766.987	53.28
767.382	53.27
767.778	53.26
768.173	53.27
768.568	53.25
768.963	53.23
769.358	53.27
769.753	53.29
770.148	53.33
770.542	53.35
770.937	53.37
771.332	53.36
771.726	53.39
772.121	53.41
772.515	53.42
772.91	53.47
773.304	53.51
773.699	53.51
774.093	53.47
774.487	53.46
774.881	53.47
775.275	53.47
775.669	53.44
776.063	53.41
776.457	53.39
776.851	53.33
777.245	53.28
777.638	53.26
778.032	53.24
778.425	53.31
778.819	53.34
779.212	53.34
779.606	53.33
779.999	53.35
780.392	53.38
780.786	53.4
781.179	53.48
781.572	53.53
781.965	53.53
782.358	53.56
782.751	53.53
783.143	53.51
783.536	53.49
783.929	53.5
784.322	53.56
784.714	53.58
785.107	53.6
785.499	53.58
785.891	53.57
786.284	53.61
786.676	53.63
787.068	53.62
787.46	53.64
787.852	53.67
788.245	53.7
788.636	53.67
789.028	53.67
789.42	53.67
789.812	53.71
790.204	53.7
790.595	53.68
790.987	53.68
791.378	53.72
791.77	53.76
792.161	53.76
792.553	53.77
792.944	53.79
793.335	53.83
793.726	53.85
794.117	53.82
794.508	53.86
794.899	53.88
795.29	53.88
795.681	53.89
796.072	53.87
796.463	53.88
796.853	53.86
797.244	53.87
797.634	53.85
798.025	53.86
798.415	53.88
798.806	53.87
799.196	53.86
799.586	53.91
799.976	53.92
800.366	53.93
800.756	53.95
801.146	53.98
801.536	54
801.926	54.02
802.316	54.03
802.706	54.07
803.095	54.09
803.485	54.12
803.874	54.09
804.264	54.1
804.653	54.08
805.043	54.08
805.432	54.08
805.821	54.08
806.21	54.08
806.599	54.11
806.988	54.1
807.377	54.11
807.766	54.12
808.155	54.14
808.544	54.16
808.933	54.21
809.321	54.25
809.71	54.26
810.098	54.28
810.487	54.27
810.875	54.28
811.264	54.27
811.652	54.29
812.04	54.29
812.428	54.32
812.816	54.31
813.204	54.3
813.592	54.27
813.98	54.29
814.368	54.3
814.756	54.31
815.144	54.3
815.531	54.33
815.919	54.36
816.306	54.38
816.694	54.38
817.081	54.4
817.469	54.43
817.856	54.44
818.243	54.43
818.63	54.43
819.017	54.45
819.404	54.44
819.791	54.44
820.178	54.4
820.565	54.38
820.952	54.33
821.339	54.34
821.725	54.32
822.112	54.34
822.498	54.36
822.885	54.36
823.271	54.33
823.657	54.3
824.044	54.31
824.43	54.33
824.816	54.33
825.202	54.35
825.588	54.31
825.974	54.28
826.36	54.26
826.746	54.24
827.132	54.21
827.517	54.23
827.903	54.25
828.289	54.25
828.674	54.21
829.06	54.19
829.445	54.16
829.83	54.13
830.216	54.12
830.601	54.08
830.986	54.05
831.371	54.03
831.756	54.01
832.141	53.98
832.526	53.95
832.911	53.93
833.295	53.92
833.68	53.93
834.065	53.92
834.449	53.91
834.834	53.92
835.218	53.91
835.603	53.91
835.987	53.88
836.371	53.84
836.755	53.82
837.139	53.81
837.524	53.81
837.908	53.81
838.291	53.83
838.675	53.8
839.059	53.77
839.443	53.77
839.827	53.74
840.21	53.73
840.594	53.73
840.977	53.7
841.361	53.67
841.744	53.61
842.127	53.58
842.511	53.54
842.894	53.51
843.277	53.49
843.66	53.45
844.043	53.45
844.426	53.44
844.809	53.43
845.191	53.46
845.574	53.45
845.957	53.48
846.339	53.47
846.722	53.45
847.104	53.47
847.487	53.48
847.869	53.46
848.252	53.45
848.634	53.46
849.016	53.49
849.398	53.48
849.78	53.5
850.162	53.49
850.544	53.51
850.926	53.54
851.307	53.53
851.689	53.53
852.071	53.54
852.452	53.56
852.834	53.55
853.215	53.53
853.597	53.54
853.978	53.55
854.359	53.55
854.741	53.54
855.122	53.54
855.503	53.56
855.884	53.54
856.265	53.56
856.646	53.56
857.026	53.59
857.407	53.6
857.788	53.6
858.169	53.61
858.549	53.6
858.93	53.62
859.31	53.62
859.69	53.63
860.071	53.67
860.451	53.67
860.831	53.68
861.211	53.64
861.591	53.62
861.971	53.61
862.351	53.6
862.731	53.61
863.111	53.6
863.491	53.6
863.87	53.57
864.25	53.54
864.629	53.55
865.009	53.54
865.388	53.54
865.768	53.56
866.147	53.57
866.526	53.56
866.905	53.59
867.284	53.58
867.663	53.58
868.042	53.59
868.421	53.61
868.8	53.61
869.179	53.62
869.558	53.64
869.936	53.61
870.315	53.6
870.693	53.61
871.072	53.61
871.45	53.64
871.828	53.64
872.207	53.66
872.585	53.64
872.963	53.64
873.341	53.62
873.719	53.6
874.097	53.62
874.475	53.63
874.853	53.64
875.23	53.66
875.608	53.62
875.986	53.63
876.363	53.62
876.741	53.63
877.118	53.64
877.495	53.65
877.873	53.7
878.25	53.72
878.627	53.73
879.004	53.7
879.381	53.7
879.758	53.71
880.135	53.71
880.512	53.7
880.889	53.69
881.265	53.68
881.642	53.68
882.019	53.64
882.395	53.61
882.772	53.6
883.148	53.59
883.524	53.57
883.901	53.55
884.277	53.49
884.653	53.46
885.029	53.42
885.405	53.42
885.781	53.4
886.157	53.4
886.532	53.4
886.908	53.35
887.284	53.31
887.659	53.27
888.035	53.23
888.411	53.23
888.786	53.23
889.161	53.25
889.537	53.23
889.912	53.2
890.287	53.17
890.662	53.15
891.037	53.18
891.412	53.18
891.787	53.17
892.162	53.17
892.536	53.18
892.911	53.15
893.286	53.13
893.66	53.12
894.035	53.12
894.409	53.09
894.784	53.07
895.158	53.03
895.532	53.03
895.906	53.03
896.281	53.01
896.655	52.98
897.029	52.99
897.402	52.97
897.776	52.95
898.15	52.97
898.524	53
898.898	53
899.271	53.03
899.645	53.05
900.018	53.07
900.392	53.09
900.765	53.11
901.138	53.13
901.511	53.17
901.884	53.21
902.258	53.22
902.631	53.23
903.003	53.28
903.376	53.28
903.749	53.27
904.122	53.28
904.495	53.28
904.867	53.32
905.24	53.33
905.612	53.34
905.985	53.33
906.357	53.31
906.729	53.34
907.102	53.32
907.474	53.32
907.846	53.34
908.218	53.35
908.59	53.37
908.962	53.34
909.334	53.33
909.705	53.31
910.077	53.33
910.449	53.34
910.82	53.32
911.192	53.33
911.563	53.32
911.935	53.3
912.306	53.34
912.677	53.33
913.048	53.37
913.419	53.37
913.79	53.4
914.161	53.41
914.532	53.4
914.903	53.43
915.274	53.46
915.645	53.49
916.015	53.53
916.386	53.5
916.756	53.52
917.127	53.53
917.497	53.54
917.868	53.56
918.238	53.56
918.608	53.6
918.978	53.59
919.348	53.62
919.718	53.62
920.088	53.6
920.458	53.62
920.828	53.59
921.198	53.57
921.567	53.6
921.937	53.63
922.306	53.62
922.676	53.62
923.045	53.62
923.415	53.57
923.784	53.58
924.153	53.62
924.522	53.64
924.891	53.68
925.26	53.7
925.629	53.69
925.998	53.66
926.367	53.68
926.736	53.67
927.104	53.69
927.473	53.69
927.842	53.63
928.21	53.64
928.578	53.57
928.947	53.58
929.315	53.54
929.683	53.49
930.051	53.44
930.42	53.42
930.788	53.38
931.156	53.28
931.523	53.25
931.891	53.29
932.259	53.25
932.627	53.25
932.994	53.2
933.362	53.18
933.729	53.18
934.097	53.19
934.464	53.19
934.831	53.19
935.199	53.24
935.566	53.23
935.933	53.24
936.3	53.24
936.667	53.26
937.034	53.28
937.401	53.33
937.767	53.34
938.134	53.35
938.501	53.37
938.867	53.45
939.234	53.51
939.6	53.55
939.967	53.56
940.333	53.57
940.699	53.62
941.065	53.62
941.431	53.62
941.798	53.66
942.163	53.69
942.529	53.69
942.895	53.72
943.261	53.74
943.627	53.73
943.992	53.72
944.358	53.71
944.723	53.73
945.089	53.74
945.454	53.7
945.82	53.7
946.185	53.75
946.55	53.76
946.915	53.76
947.28	53.78
947.645	53.78
948.01	53.8
948.375	53.8
948.74	53.77
949.104	53.79
949.469	53.77
949.834	53.74
950.198	53.62
950.562	53.53
950.927	53.5
951.291	53.37
951.655	53.31
952.02	53.26
952.384	53.21
952.748	53.18
953.112	53.1
953.476	53.05
953.839	52.93
954.203	52.94
954.567	52.93
954.931	52.86
955.294	52.86
955.658	52.91
956.021	52.89
956.385	52.81
956.748	52.77
957.111	52.77
957.474	52.79
957.837	52.84
958.2	52.81
958.563	52.8
958.926	52.84
959.289	52.82
959.652	52.74
960.015	52.69
960.377	52.68
960.74	52.72
961.102	52.71
961.465	52.7
961.827	52.7
962.189	52.69
962.552	52.66
962.914	52.53
963.276	52.6
963.638	52.62
964	52.65
964.362	52.71
964.724	52.63
965.085	52.61
965.447	52.61
965.809	52.6
966.17	52.57
966.532	52.57
966.893	52.66
967.255	52.63
967.616	52.59
967.977	52.59
968.338	52.61
968.699	52.67
969.061	52.65
969.421	52.67
969.782	52.67
970.143	52.69
970.504	52.69
970.865	52.68
971.225	52.66
971.586	52.69
971.946	52.7
972.307	52.63
972.667	52.58
973.027	52.62
973.388	52.61
973.748	52.64
974.108	52.72
974.468	52.72
974.828	52.79
975.188	52.8
975.548	52.81
975.907	52.8
976.267	52.89
976.627	52.92
976.986	52.88
977.346	52.89
977.705	52.85
978.064	52.79
978.424	52.86
978.783	52.84
979.142	52.83
979.501	52.86
979.86	52.88
980.219	52.85
980.578	52.88
980.937	52.9
981.296	52.88
981.654	52.89
982.013	52.89
982.371	52.86
982.73	52.79
983.088	52.78
983.447	52.84
983.805	52.88
984.163	52.84
984.521	52.81
984.879	52.83
985.237	52.85
985.595	52.97
985.953	53.02
986.311	53.03
986.669	53.08
987.026	53.09
987.384	53.05
987.741	53
988.099	53.18
988.456	53.25
988.814	53.35
989.171	53.36
989.528	53.3
989.885	53.31
990.242	53.34
990.599	53.41
990.956	53.51
991.313	53.57
991.67	53.62
992.027	53.6
992.383	53.69
992.74	53.71
993.096	53.86
993.453	53.94
993.809	54
994.165	54.06
994.522	54.07
994.878	54.07
995.234	54.06
995.59	54.12
995.946	54.09
996.302	54.07
996.658	54.12
997.013	54.04
997.369	54.07
997.725	54.14
998.08	54.12
998.436	54.19
998.791	54.26
999.147	54.25
999.502	54.32
999.857	54.39
1000.212	54.38
1000.567	54.38
1000.922	54.44
1001.277	54.42
1001.632	54.37
1001.987	54.37
1002.342	54.32
1002.696	54.34
1003.051	54.56
1003.406	54.63
1003.76	54.74
1004.114	54.75
1004.469	54.8
1004.823	55.15
1005.177	55.22
1005.531	55.31
1005.885	55.46
1006.239	55.59
1006.593	55.6
1006.947	55.54
1007.301	55.43
1007.655	55.42
1008.008	55.49
1008.362	55.55
1008.715	55.24
1009.069	55.31
1009.422	55.27
1009.776	55.42
1010.129	55.56
1010.482	55.7
1010.835	55.81
1011.188	55.96
1011.541	56.02
1011.894	56.16
1012.247	56.26
1012.6	56.44
1012.952	56.44
1013.305	56.65
1013.657	56.58
1014.01	56.5
1014.362	56.6
1014.715	56.69
1015.067	56.82
1015.419	56.88
1015.771	56.73
1016.123	56.79
1016.475	57.03
1016.827	57.29
1017.179	57.48
1017.531	57.56
1017.883	57.83
1018.234	58.02
1018.586	58.04
1018.938	58.03
1019.289	57.95
1019.64	58.08
1019.992	58.38
1020.343	58.27
1020.694	58.23
1021.045	58.15
1021.396	58.29
1021.747	58.49
1022.098	58.28
1022.449	58.32
1022.8	58.52
1023.151	58.64
1023.501	59.11
1023.852	58.91
1024.202	58.84
1024.553	58.87
1024.903	59.03
1025.253	59.21
1025.604	58.93
1025.954	58.89
1026.304	58.9
1026.654	59.1
1027.004	59.28
1027.354	59.18
1027.703	59.22
1028.053	59.47
1028.403	59.68
1028.753	59.44
1029.102	59.37
1029.452	59.49
1029.801	59.74
1030.15	59.83
1030.499	59.6
897.758	1005.04
901.051	1011.87
904.343	1009.05
907.636	1026.49
910.928	995.93
914.22	998.44
917.511	985.84
920.803	944.69
924.094	939.87
927.384	919.82
930.675	887.79
933.965	883.51
937.255	828.11
940.544	796.81
943.834	760.36
947.123	757.11
950.411	710.56
953.7	696.4
956.988	659.83
960.276	633.05
963.563	625.1
966.851	598.35
970.138	595.11
973.424	580.1
976.711	582.4
979.997	554.43
983.283	550.34
986.568	539.82
989.853	525.62
993.138	513.79
996.423	497.4
999.708	483.42
1002.992	479.02
1006.275	455.74
1009.559	452.91
1012.842	436.57
1016.125	425.25
1019.408	417.03
1022.69	414.27
1025.972	404.27
1029.254	394.9
1032.536	387.2
1035.817	381.69
1039.098	377.39
1042.379	371.61
1045.659	366.51
1048.939	358.31
1052.219	351.75
1055.498	347.98
1058.778	338.64
1062.057	332.73
1065.335	330.46
1068.614	325.85
1071.892	321.98
1075.17	312.27
1078.447	306.89
1081.724	304.8
1085.001	302.68
1088.278	296.5
1091.554	290.05
1094.83	291.83
1098.106	288.97
1101.382	285.84
1104.657	285.03
1107.932	280.17
1111.206	282.31
1114.481	275.15
1117.755	273.48
1121.029	271.01
1124.302	270.78
1127.575	268.05
1130.848	263.62
1134.121	261.09
1137.393	260.1
1140.665	255.32
1143.937	253.08
1147.208	251.51
1150.48	251.24
1153.75	247.21
1157.021	243.72
1160.291	243.85
1163.561	239.93
1166.831	239.56
1170.101	237.91
1173.37	237.34
1176.639	237.28
1179.907	235.88
1183.176	232.32
1186.444	232.05
1189.711	232.17
1192.979	231.93
1196.246	231.07
1199.513	231.06
1202.78	230.66
1206.046	230
1209.312	228.13
1212.578	228.31
1215.843	229.36
1219.108	229.02
1222.373	233.22
1225.638	234.12
1228.902	237.19
1232.166	236.3
1235.43	238.01
1238.693	240.79
1241.956	243.18
1245.219	246.5
1248.482	246.64
1251.744	247.1
1255.006	246.96
1258.268	242.46
1261.529	240.96
1264.79	239.86
1268.051	237.83
1271.312	236.44
1274.572	233.18
1277.832	231.4
1281.092	227.19
1284.351	225.55
1287.61	225.4
1290.869	222.55
1294.128	220.53
1297.386	220.1
1300.644	217.9
1303.902	219.38
1307.159	218.32
1310.416	218.14
1313.673	217.23
1316.93	219.66
1320.186	219.49
1323.442	219.59
1326.697	222.86
1329.953	223.47
1333.208	224.13
1336.463	226.8
1339.717	227.01
1342.972	228.5
1346.226	230.49
1349.479	230.8
1352.733	231.4
1355.986	232.87
1359.238	232.88
1362.491	233.12
1365.743	235.47
1368.995	235.52
1372.247	233.62
1375.498	233.89
1378.749	235.17
1382	232.48
1385.251	232.84
1388.501	231.36
1391.751	230.63
1395	229.82
1398.25	228.08
1401.499	225.53
1404.748	224.6
1407.996	222.35
1411.244	220.94
1414.492	219.39
1417.74	217.18
1420.987	213.14
1424.234	212.81
1427.481	210.55
1430.728	209.9
1433.974	207.7
1437.22	206.11
1440.465	205.64
1443.711	203.27
1446.956	201.93
1450.201	199.88
1453.445	197.99
1456.689	198.12
1459.933	193.94
1463.177	192.55
1466.42	189.46
1469.663	187.84
1472.906	186.51
1476.148	182.08
1479.391	180.58
1482.633	179.24
1485.874	176.99
1489.115	175.55
1492.356	173.43
1495.597	173.92
1498.838	171.2
1502.078	170.4
1505.318	169.67
1508.557	169.87
1511.797	169.64
1515.036	168.01
1518.274	167.76
1521.513	166.79
1524.751	166.66
1527.989	166.62
1531.227	165.77
1534.464	166.61
1537.701	166.57
1540.938	165.87
1544.174	163.73
1547.41	164.52
1550.646	164.1
1553.882	163.94
1557.117	162.02
1560.352	160.96
1563.587	160.91
1566.821	160
1570.055	159.02
1573.289	157.22
1576.523	157.68
1579.756	156.89
1582.989	155.79
1586.222	155.68
1589.454	155.73
1592.686	157.01
1595.918	156.99
1599.15	156.31
1602.381	156.53
1605.612	156.12
1608.843	156.25
1612.073	156.3
1615.303	157.09
1618.533	157.46
1621.762	157.24
1624.992	157.19
1628.221	156.72
1631.449	156.29
1634.678	156.13
1637.906	157.48
1641.134	157.13
1644.361	157.47
1647.588	157.42
1650.815	157
1654.042	156.52
1657.269	157.37
1660.495	157.01
1663.72	157.29
1666.946	157.63
1670.171	158.11
1673.396	157.67
1676.621	157.61
1679.845	158.38
1683.069	158.73
1686.293	159.36
1689.517	159.76
1692.74	159.93
1695.963	160.33
1699.185	161.14
1702.408	161.49
1705.63	161.91
1708.852	162.34
1712.073	162.68
1715.294	162.46
1718.515	163.49
1721.736	163.35
1724.956	163.77
1728.176	163.78
1731.396	164.65
1734.616	163.9
1737.835	164.51
1741.054	163.67
1744.272	163.33
1747.491	165.35
1750.709	165.14
1753.927	164.52
1757.144	164.25
1760.361	164.3
1763.578	165.09
1766.795	164.47
1770.011	166.71
1773.227	166.09
1776.443	167.56
1779.658	168.4
1782.874	167.91
1786.089	167.91
1789.303	168.35
1792.518	170.68
1795.732	170.3
1798.945	171.22
1802.159	171.76
1805.372	170.79
1808.585	173.98
1811.797	174.53
1815.01	174.71
1818.222	175.36
1821.434	178.53
1824.645	178.59
1827.856	180.59
1831.067	182.34
1834.278	182.2
1837.488	183.3
1840.698	184.67
1843.908	183.06
1847.117	183.87
1850.326	184.69
1853.535	183.48
1856.744	184.75
1859.952	184.72
1863.16	183.02
1866.368	181.07
1869.575	181.97
1872.782	179.05
1875.989	178.38
1879.196	177.32
1882.402	175.69
1885.608	175.63
1888.814	176.06
1892.019	175.11
1895.224	173.88
1898.429	172.91
1901.634	174.14
1904.838	173.89
1908.042	175.37
1911.246	174.68
1914.449	175.45
1917.652	175.52
1920.855	175.22
1924.058	175.46
1927.26	174.08
1930.462	174.85
1933.664	176.78
1936.865	174.82
1940.066	174.21
1943.267	173.47
1946.467	173.84
1949.668	174.61
1952.868	176.93
1956.067	177.68
1959.267	177.47
1962.466	177.88
1965.665	177.64
1968.863	177.81
1972.061	181.47
1975.259	183.35
1978.457	184.36
1981.654	186.17
1984.852	186.85
1988.048	185.97
1991.245	187.33
1994.441	189.13
1997.637	191.31
2000.833	194.54
2004.028	196.93
2007.223	197.63
2010.418	199.24
2013.613	203.83
2016.807	205.5
2020.001	207.21
2023.194	210.89
2026.388	215.54
2029.581	221.09
2032.774	222.78
2035.966	226.63
2039.158	227.79
2042.35	231.51
2045.542	232.79
2048.733	235.84
2051.924	239.74
2055.115	244.24
2058.306	244.84
2061.496	246.85
2064.686	246.09
2067.875	250.42
2071.065	251.68
2074.254	250.35
2077.442	255.02
2080.631	256.5
2083.819	258.51
2087.007	258.3
2090.195	262.55
2093.382	264.79
2096.569	263.63
2099.756	268.5
2102.942	269.25
2106.128	270.71
2109.314	277.57
2112.5	275.43
2115.685	282.35
2118.87	283.12
2122.055	288.83
2125.239	288.62
2128.424	291.15
2131.608	294.54
2134.791	300.01
2137.974	300.17
2141.157	302.87
2144.34	303.1
2147.523	309.1
2150.705	306.43
2153.887	309.7
2157.068	310.9
2160.25	308.21
2163.431	310.72
2166.611	313.85
2169.792	317.67
2172.972	322.09
2176.152	324.6
2179.331	328.35
2182.511	331.64
2185.69	335.51
2188.868	341.93
2192.047	343.02
2195.225	353.14
2198.403	360.38
2201.58	366.91
2204.758	374.04
2207.935	381.07
2211.111	389
2214.288	393.72
2217.464	395.45
2220.64	402.07
2223.815	406.09
2226.991	421.37
2230.166	422.51
2233.34	429.83
2236.515	437.94
2239.689	437.89
2242.863	440.09
2246.036	448.88
2249.209	445.57
2252.382	454.36
2255.555	465.61
2258.727	468.67
2261.9	473.31
2265.071	477.68
2268.243	488.29
2271.414	491.56
2274.585	501.85
2277.756	507.25
2280.926	512.27
2284.096	525.84
2287.266	535.89
2290.436	542.33
2293.605	552.26
2296.774	567.03
2299.942	584.68
2303.111	584.9
2306.279	598.27
2309.447	607.57
2312.614	624.15
2315.781	640.52
2318.948	668.19
2322.115	658.34
2325.281	696.27
2328.447	685.81
2331.613	709.94
2334.779	702.36
2337.944	733.42
2341.109	740.69
2344.274	760.2
2347.438	788.41
2350.602	789.82
2353.766	817.28
2356.929	829.66
2360.092	820.61
2363.255	877.54
2366.418	879.08
2369.58	897.23
2372.742	951.57
2375.904	975.52
2379.066	970.42
2382.227	948.2
2385.388	1026.96
2388.548	1021.5
2391.709	1035.03
2394.869	1154.22
2398.029	1108.33
2401.188	1141.72
2404.347	1130.04
2407.506	1113.12
2410.665	1145.24
2413.823	1212.32
2416.981	1283.74
2420.139	1244.04
2423.296	1228.53
2426.453	1284.33
2429.61	1233.1
2432.767	1285.31
2435.923	1267.24
2439.079	1396.34
2442.235	1414.91
2445.391	1400.73
2448.546	1388.06
2451.701	1353.14
2454.855	1350.46
2458.009	1442.56
2461.163	1492.36
2464.317	1546.76
2467.471	1589.95
2470.624	1592.96
2473.777	1549.78
2476.929	1501.06
2480.082	1459.12
2483.234	1446.62
2486.385	1517.73
2489.537	1521.91
2492.688	1573.23
2495.839	1540.48
2498.989	1503.76
2502.14	1504.62
2505.29	1518.8
2508.439	1539.85
2511.589	1542.02
2514.738	1683.76
2517.887	1646.9
2521.035	1730.93
2524.183	1758.61
2527.331	1766.51
2530.479	1749.82
2533.627	1767.13
