Data from C_3_DEC_ON_6N_Splice17_14-24-05-217.txt Node
Date: Sat Mar 07 14:24:05 EST 2020
User: sa697716
Spectrometer: NQ5500242
Trigger mode: 0
Integration Time (sec): 1.450000E-1
Scans to average: 20
Nonlinearity correction enabled: false
Boxcar width: 5
Storing dark spectrum: false
XAxis mode: Wavelengths
Number of Pixels in Spectrum: 512
>>>>>Begin Spectral Data<<<<<
187.83	121.14
188.298	126.08
188.766	104.7
189.233	97.26
189.701	97.96
190.169	109.96
190.636	130.39
191.104	144.93
191.571	95.99
192.039	62.39
192.506	-65.69
192.974	132.63
193.441	185.65
193.908	62.67
194.375	39.28
194.842	25.05
195.31	77.43
195.777	156.59
196.244	62.97
196.711	68.22
197.177	71.38
197.644	70.97
198.111	70.39
198.578	70.78
199.045	71.5
199.511	71.65
199.978	71.69
200.445	71.55
200.911	71.68
201.378	71.87
201.844	71.7
202.31	71.5
202.777	71.65
203.243	71.95
203.709	71.7
204.176	70.97
204.642	70.35
205.108	69.89
205.574	69.37
206.04	68.64
206.506	68.29
206.972	68.08
207.438	67.51
207.903	66.71
208.369	65.12
208.835	63.68
209.301	62.14
209.766	60.53
210.232	58.92
210.697	57.36
211.163	56.03
211.628	54.49
212.094	53.04
212.559	51.5
213.024	50.09
213.49	48.99
213.955	47.64
214.42	46.71
214.885	45.2
215.35	43.39
215.815	40.85
216.28	37.88
216.745	34.65
217.21	31.43
217.675	28.45
218.14	25.85
218.604	23.61
219.069	21.68
219.534	20.06
219.998	18.81
220.463	17.75
220.927	16.8
221.392	16.04
221.856	15.42
222.32	14.9
222.785	14.47
223.249	14.04
223.713	13.67
224.177	13.38
224.642	13.08
225.106	12.76
225.57	12.47
226.034	12.25
226.497	12.03
226.961	11.79
227.425	11.55
227.889	11.34
228.353	11.14
228.816	10.94
229.28	10.75
229.744	10.58
230.207	10.42
230.671	10.26
231.134	10.1
231.597	9.97
232.061	9.82
232.524	9.69
232.987	9.55
233.45	9.43
233.914	9.3
234.377	9.18
234.84	9.06
235.303	8.98
235.766	8.88
236.229	8.79
236.691	8.68
237.154	8.6
237.617	8.52
238.08	8.44
238.542	8.36
239.005	8.3
239.468	8.23
239.93	8.15
240.393	8.08
240.855	7.99
241.317	7.91
241.78	7.85
242.242	7.76
242.704	7.69
243.166	7.62
243.629	7.55
244.091	7.47
244.553	7.39
245.015	7.32
245.477	7.25
245.939	7.19
246.4	7.12
246.862	7.06
247.324	7
247.786	6.94
248.247	6.87
248.709	6.81
249.17	6.74
249.632	6.7
250.093	6.65
250.555	6.59
251.016	6.54
251.477	6.49
251.939	6.45
252.4	6.41
252.861	6.37
253.322	6.34
253.783	6.3
254.244	6.27
254.705	6.23
255.166	6.19
255.627	6.16
256.088	6.12
256.549	6.09
257.009	6.04
257.47	6.01
257.931	5.97
258.391	5.92
258.852	5.87
259.312	5.83
259.773	5.8
260.233	5.76
260.694	5.72
261.154	5.68
261.614	5.64
262.074	5.6
262.534	5.56
262.994	5.53
263.455	5.5
263.915	5.47
264.374	5.44
264.834	5.42
265.294	5.39
265.754	5.37
266.214	5.35
266.673	5.32
267.133	5.31
267.593	5.29
268.052	5.27
268.512	5.25
268.971	5.25
269.431	5.23
269.89	5.21
270.349	5.2
270.809	5.18
271.268	5.16
271.727	5.15
272.186	5.14
272.645	5.13
273.104	5.12
273.563	5.11
274.022	5.09
274.481	5.08
274.94	5.08
275.399	5.06
275.857	5.06
276.316	5.05
276.775	5.05
277.233	5.04
277.692	5.03
278.15	5.03
278.609	5.02
279.067	5.01
279.525	5.01
279.984	5
280.442	4.99
280.9	4.99
281.358	4.98
281.816	4.98
282.274	4.98
282.732	4.97
283.19	4.97
283.648	4.96
284.106	4.96
284.564	4.95
285.021	4.95
285.479	4.95
285.937	4.95
286.394	4.95
286.852	4.94
287.309	4.94
287.767	4.93
288.224	4.92
288.682	4.91
289.139	4.89
289.596	4.87
290.053	4.85
290.511	4.82
290.968	4.81
291.425	4.79
291.882	4.77
292.339	4.75
292.796	4.74
293.252	4.73
293.709	4.72
294.166	4.71
294.623	4.7
295.079	4.69
295.536	4.69
295.992	4.68
296.449	4.67
296.905	4.66
297.362	4.65
297.818	4.65
298.274	4.64
298.731	4.63
299.187	4.61
299.643	4.6
300.099	4.6
300.555	4.58
301.011	4.57
301.467	4.56
301.923	4.56
302.379	4.56
302.835	4.55
303.291	4.54
303.746	4.55
304.202	4.56
304.658	4.56
305.113	4.56
305.569	4.56
306.024	4.55
306.479	4.56
306.935	4.55
307.39	4.56
307.845	4.55
308.301	4.56
308.756	4.56
309.211	4.56
309.666	4.57
310.121	4.57
310.576	4.58
311.031	4.59
311.486	4.6
311.94	4.62
312.395	4.62
312.85	4.63
313.305	4.63
313.759	4.63
314.214	4.63
314.668	4.62
315.123	4.62
315.577	4.62
316.032	4.61
316.486	4.61
316.94	4.6
317.394	4.58
317.849	4.56
318.303	4.54
318.757	4.52
319.211	4.51
319.665	4.5
320.119	4.49
320.572	4.49
321.026	4.48
321.48	4.46
321.934	4.45
322.387	4.45
322.841	4.44
323.295	4.45
323.748	4.44
324.202	4.44
324.655	4.44
325.108	4.44
325.562	4.43
326.015	4.43
326.468	4.42
326.921	4.42
327.374	4.42
327.827	4.42
328.28	4.42
328.733	4.42
329.186	4.42
329.639	4.43
330.092	4.43
330.545	4.42
330.997	4.42
331.45	4.43
331.903	4.44
332.355	4.45
332.808	4.45
333.26	4.45
333.713	4.45
334.165	4.45
334.617	4.46
335.069	4.46
335.522	4.47
335.974	4.48
336.426	4.48
336.878	4.48
337.33	4.48
337.782	4.49
338.234	4.5
338.686	4.51
339.137	4.52
339.589	4.51
340.041	4.5
340.493	4.49
340.944	4.48
341.396	4.46
341.847	4.44
342.299	4.43
342.75	4.41
343.201	4.38
343.653	4.36
344.104	4.34
344.555	4.34
345.006	4.32
345.457	4.31
345.908	4.3
346.359	4.29
346.81	4.29
347.261	4.28
347.712	4.27
348.163	4.27
348.613	4.27
349.064	4.27
349.515	4.27
349.965	4.27
350.416	4.27
350.866	4.27
351.317	4.28
351.767	4.29
352.217	4.29
352.668	4.29
353.118	4.29
353.568	4.28
354.018	4.29
354.468	4.3
354.918	4.3
355.368	4.3
355.818	4.3
356.268	4.3
356.718	4.3
357.168	4.29
357.617	4.3
358.067	4.3
358.517	4.33
358.966	4.32
359.416	4.32
359.865	4.32
360.315	4.33
360.764	4.33
361.213	4.33
361.663	4.32
362.112	4.34
362.561	4.35
363.01	4.35
363.459	4.33
363.908	4.33
364.357	4.34
364.806	4.34
365.255	4.34
365.703	4.34
366.152	4.36
366.601	4.37
367.05	4.37
367.498	4.36
367.947	4.37
368.395	4.39
368.844	4.39
369.292	4.4
369.74	4.4
370.189	4.41
370.637	4.41
371.085	4.41
371.533	4.41
371.981	4.41
372.429	4.42
372.877	4.42
373.325	4.42
373.773	4.43
374.221	4.44
374.669	4.45
375.116	4.44
375.564	4.45
376.012	4.46
376.459	4.46
376.907	4.48
377.354	4.48
377.801	4.49
378.249	4.5
378.696	4.5
379.143	4.51
379.591	4.52
380.038	4.53
380.485	4.55
380.932	4.56
381.379	4.56
381.826	4.57
382.273	4.57
382.72	4.57
383.166	4.58
383.613	4.6
384.06	4.6
384.506	4.6
384.953	4.62
385.4	4.63
385.846	4.65
386.292	4.66
386.739	4.67
387.185	4.69
387.631	4.72
388.078	4.73
388.524	4.74
388.97	4.76
389.416	4.77
389.862	4.79
390.308	4.81
390.754	4.82
391.2	4.85
391.645	4.88
392.091	4.9
392.537	4.92
392.983	4.94
393.428	4.96
393.874	4.98
394.319	5.01
394.765	5.02
395.21	5.03
395.655	5.05
396.101	5.07
396.546	5.08
396.991	5.09
397.436	5.1
397.881	5.13
398.326	5.16
398.771	5.17
399.216	5.2
399.661	5.23
400.106	5.24
400.551	5.25
400.995	5.25
401.44	5.25
401.885	5.25
402.329	5.26
402.774	5.26
403.218	5.27
403.663	5.29
404.107	5.3
404.551	5.31
404.995	5.33
405.44	5.34
405.884	5.36
406.328	5.39
406.772	5.4
407.216	5.42
407.66	5.42
408.104	5.42
408.547	5.42
408.991	5.43
409.435	5.43
409.879	5.44
410.322	5.46
410.766	5.47
411.209	5.48
411.653	5.5
412.096	5.51
412.54	5.52
412.983	5.53
413.426	5.56
413.869	5.57
414.312	5.61
414.756	5.64
415.199	5.65
415.642	5.66
416.085	5.67
416.527	5.67
416.97	5.66
417.413	5.67
417.856	5.66
418.298	5.64
418.741	5.63
419.184	5.61
419.626	5.6
420.069	5.6
420.511	5.6
420.953	5.6
421.396	5.61
421.838	5.63
422.28	5.64
422.722	5.68
423.164	5.69
423.606	5.71
424.048	5.72
424.49	5.74
424.932	5.75
425.374	5.75
425.816	5.73
426.258	5.73
426.699	5.71
427.141	5.7
427.582	5.69
428.024	5.7
428.465	5.71
428.907	5.72
429.348	5.71
429.789	5.7
430.231	5.71
430.672	5.72
431.113	5.74
431.554	5.78
431.995	5.81
432.436	5.81
432.877	5.82
433.318	5.84
433.759	5.86
434.2	5.89
434.64	5.92
435.081	5.94
435.522	5.98
435.962	5.99
436.403	6.02
436.843	6.04
437.284	6.04
437.724	6.06
438.164	6.06
438.604	6.07
439.045	6.06
439.485	6.07
439.925	6.07
440.365	6.06
440.805	6.06
441.245	6.07
441.685	6.09
442.125	6.11
442.564	6.12
443.004	6.13
443.444	6.15
443.883	6.18
444.323	6.18
444.762	6.2
445.202	6.21
445.641	6.23
446.081	6.24
446.52	6.22
446.959	6.24
447.398	6.25
447.837	6.25
448.276	6.24
448.716	6.26
449.154	6.29
449.593	6.3
450.032	6.31
450.471	6.31
450.91	6.3
451.349	6.32
451.787	6.3
452.226	6.3
452.664	6.3
453.103	6.28
453.541	6.28
453.98	6.26
454.418	6.23
454.856	6.21
455.295	6.18
455.733	6.15
456.171	6.14
456.609	6.13
457.047	6.1
457.485	6.08
457.923	6.08
458.361	6.06
458.798	6.05
459.236	6.04
459.674	6.04
460.111	6.04
460.549	6.06
460.987	6.05
461.424	6.06
461.862	6.06
462.299	6.07
462.736	6.06
463.173	6.07
463.611	6.06
464.048	6.06
464.485	6.06
464.922	6.06
465.359	6.06
465.796	6.05
466.233	6.05
466.67	6.05
467.106	6.06
467.543	6.06
467.98	6.06
468.416	6.06
468.853	6.05
469.29	6.06
469.726	6.07
470.162	6.08
470.599	6.1
471.035	6.09
471.471	6.09
471.907	6.07
472.344	6.08
472.78	6.08
473.216	6.07
473.652	6.08
474.088	6.06
474.523	6.06
474.959	6.05
475.395	6.02
475.831	6.01
476.266	6.01
476.702	6
477.138	5.99
477.573	5.98
478.008	5.98
478.444	5.96
478.879	5.95
479.314	5.93
479.75	5.92
480.185	5.92
480.62	5.9
481.055	5.89
481.49	5.88
481.925	5.87
482.36	5.87
482.795	5.85
483.229	5.85
483.664	5.84
484.099	5.84
484.534	5.83
484.968	5.83
485.403	5.84
485.837	5.84
486.271	5.84
486.706	5.84
487.14	5.85
487.574	5.85
488.009	5.86
488.443	5.85
488.877	5.87
489.311	5.89
489.745	5.9
490.179	5.91
490.613	5.94
491.046	5.96
491.48	5.99
491.914	6.01
492.348	6.03
492.781	6.07
493.215	6.12
493.648	6.15
494.082	6.19
494.515	6.22
494.948	6.26
495.382	6.29
495.815	6.34
496.248	6.39
496.681	6.44
497.114	6.5
497.547	6.55
497.98	6.6
498.413	6.66
498.846	6.73
499.279	6.81
499.711	6.88
500.144	6.97
500.577	7.05
501.009	7.13
501.442	7.22
501.874	7.32
502.306	7.42
502.739	7.53
503.171	7.64
503.603	7.75
504.036	7.86
504.468	7.99
504.9	8.11
505.332	8.24
505.764	8.38
506.196	8.52
506.627	8.67
507.059	8.82
507.491	8.97
507.923	9.13
508.354	9.31
508.786	9.5
509.217	9.67
509.649	9.86
510.08	10.05
510.512	10.25
510.943	10.45
511.374	10.66
511.805	10.88
512.237	11.1
512.668	11.32
513.099	11.56
513.53	11.77
513.961	12.01
514.391	12.25
514.822	12.5
515.253	12.75
515.684	13
516.114	13.26
516.545	13.5
516.975	13.75
517.406	14.02
517.836	14.26
518.267	14.53
518.697	14.78
519.127	15.03
519.558	15.27
519.988	15.53
520.418	15.78
520.848	16.02
521.278	16.27
521.708	16.62
522.138	16.86
522.567	17.09
522.997	17.32
523.427	17.55
523.857	17.76
524.286	17.98
524.716	18.19
525.145	18.38
525.575	18.59
526.004	18.78
526.433	18.87
526.863	19.04
527.292	19.22
527.721	19.39
528.15	19.55
528.579	19.7
529.008	19.84
529.437	19.98
529.866	20.1
530.295	20.23
530.724	20.36
531.152	20.48
531.581	20.58
532.01	20.7
532.438	20.79
532.867	20.89
533.295	20.98
533.723	21.07
534.152	21.15
534.58	21.24
535.008	21.3
535.436	21.37
535.865	21.4
536.293	21.47
536.721	21.51
537.149	21.56
537.576	21.6
538.004	21.65
538.432	21.68
538.86	21.71
539.287	21.73
539.715	21.77
540.143	21.79
540.57	21.84
540.998	21.86
541.425	21.89
541.852	21.92
542.28	21.97
542.707	21.99
543.134	22.02
543.561	22.06
543.988	22.1
544.415	22.12
544.842	22.16
545.269	22.18
545.696	22.21
546.123	22.23
546.549	22.26
546.976	22.28
547.403	22.31
547.829	22.35
548.256	22.39
548.682	22.4
549.108	22.43
549.535	22.46
549.961	22.48
550.387	22.49
550.813	22.51
551.24	22.51
551.666	22.52
552.092	22.52
552.518	22.51
552.943	22.5
553.369	22.5
553.795	22.47
554.221	22.44
554.646	22.41
555.072	22.4
555.498	22.36
555.923	22.33
556.349	22.29
556.774	22.23
557.199	22.19
557.625	22.14
558.05	22.08
558.475	22.02
558.9	21.95
559.325	21.9
559.75	21.81
560.175	21.73
560.6	21.63
561.025	21.54
561.449	21.44
561.874	21.33
562.299	21.21
562.723	21.11
563.148	20.99
563.572	20.86
563.997	20.73
564.421	20.59
564.846	20.45
565.27	20.32
565.694	20.18
566.118	20.04
566.542	19.9
566.966	19.76
567.39	19.59
567.814	19.45
568.238	19.3
568.662	19.14
569.086	18.99
569.509	18.85
569.933	18.7
570.357	18.56
570.78	18.41
571.204	18.26
571.627	18.12
572.05	17.99
572.474	17.87
572.897	17.74
573.32	17.64
573.743	17.53
574.166	17.41
574.589	17.3
575.012	17.2
575.435	17.11
575.858	17.02
576.281	16.93
576.704	16.84
577.126	16.75
577.549	16.67
577.972	16.58
578.394	16.5
578.817	16.41
579.239	16.35
579.661	16.28
580.084	16.2
580.506	16.13
580.928	16.05
581.35	16
581.772	15.92
582.194	15.86
582.616	15.8
583.038	15.73
583.46	15.66
583.882	15.59
584.303	15.52
584.725	15.46
585.147	15.4
585.568	15.36
585.99	15.29
586.411	15.25
586.833	15.18
587.254	15.11
587.675	15.07
588.096	15.04
588.518	14.99
588.939	14.95
589.36	14.89
589.781	14.85
590.202	14.8
590.623	14.75
591.043	14.7
591.464	14.66
591.885	14.63
592.305	14.6
592.726	14.57
593.147	14.53
593.567	14.51
593.987	14.49
594.408	14.45
594.828	14.41
595.248	14.39
595.669	14.35
596.089	14.32
596.509	14.29
596.929	14.24
597.349	14.2
597.769	14.16
598.189	14.12
598.608	14.08
599.028	14.05
599.448	14.01
599.867	13.97
600.287	13.93
600.706	13.89
601.126	13.85
601.545	13.82
601.965	13.78
602.384	13.74
602.803	13.7
603.222	13.64
603.641	13.59
604.061	13.55
604.48	13.5
604.898	13.44
605.317	13.39
605.736	13.33
606.155	13.27
606.574	13.21
606.992	13.16
607.411	13.1
607.829	13.02
608.248	12.95
608.666	12.88
609.085	12.83
609.503	12.77
609.921	12.72
610.339	12.65
610.758	12.6
611.176	12.54
611.594	12.49
612.012	12.43
612.43	12.39
612.847	12.34
613.265	12.28
613.683	12.22
614.101	12.16
614.518	12.1
614.936	12.05
615.353	11.99
615.771	11.93
616.188	11.87
616.606	11.82
617.023	11.78
617.44	11.73
617.857	11.69
618.274	11.65
618.691	11.6
619.108	11.56
619.525	11.52
619.942	11.49
620.359	11.45
620.776	11.43
621.192	11.39
621.609	11.36
622.026	11.33
622.442	11.3
622.859	11.28
623.275	11.26
623.691	11.25
624.108	11.24
624.524	11.22
624.94	11.2
625.356	11.18
625.772	11.17
626.188	11.17
626.604	11.17
627.02	11.16
627.436	11.16
627.852	11.14
628.268	11.13
628.683	11.12
629.099	11.1
629.514	11.09
629.93	11.09
630.345	11.07
630.761	11.03
631.176	10.99
631.591	10.95
632.007	10.9
632.422	10.86
632.837	10.8
633.252	10.74
633.667	10.67
634.082	10.59
634.497	10.51
634.911	10.44
635.326	10.35
635.741	10.27
636.155	10.18
636.57	10.08
636.984	9.99
637.399	9.9
637.813	9.79
638.228	9.69
638.642	9.59
639.056	9.48
639.47	9.38
639.884	9.28
640.298	9.17
640.712	9.06
641.126	8.96
641.54	8.85
641.954	8.73
642.368	8.64
642.781	8.54
643.195	8.45
643.609	8.36
644.022	8.26
644.436	8.18
644.849	8.1
645.262	8.03
645.676	7.95
646.089	7.89
646.502	7.83
646.915	7.79
647.328	7.75
647.741	7.69
648.154	7.65
648.567	7.62
648.98	7.59
649.393	7.57
649.805	7.55
650.218	7.52
650.631	7.5
651.043	7.47
651.456	7.45
651.868	7.43
652.28	7.41
652.693	7.39
653.105	7.37
653.517	7.34
653.929	7.31
654.341	7.26
654.753	7.23
655.165	7.19
655.577	7.16
655.989	7.12
656.401	7.07
656.813	7.03
657.224	6.97
657.636	6.91
658.047	6.86
658.459	6.8
658.87	6.76
659.282	6.71
659.693	6.66
660.104	6.61
660.515	6.55
660.926	6.51
661.338	6.45
661.749	6.41
662.159	6.36
662.57	6.32
662.981	6.29
663.392	6.24
663.803	6.2
664.213	6.16
664.624	6.13
665.035	6.1
665.445	6.07
665.855	6.05
666.266	6.04
666.676	6.04
667.086	6.01
667.497	5.99
667.907	5.98
668.317	5.97
668.727	5.97
669.137	5.97
669.547	5.96
669.956	5.96
670.366	5.97
670.776	5.96
671.186	5.96
671.595	5.97
672.005	5.97
672.414	5.99
672.824	6.01
673.233	6.03
673.642	6.04
674.052	6.06
674.461	6.08
674.87	6.1
675.279	6.13
675.688	6.16
676.097	6.19
676.506	6.23
676.915	6.26
677.323	6.29
677.732	6.33
678.141	6.38
678.549	6.43
678.958	6.48
679.366	6.54
679.775	6.59
680.183	6.65
680.592	6.72
681	6.79
681.408	6.88
681.816	6.97
682.224	7.07
682.632	7.18
683.04	7.29
683.448	7.42
683.856	7.55
684.264	7.69
684.671	7.87
685.079	8.05
685.487	8.26
685.894	8.47
686.302	8.72
686.709	8.99
687.116	9.28
687.524	9.6
687.931	9.93
688.338	10.3
688.745	10.68
689.152	11.08
689.559	11.52
689.966	11.97
690.373	12.43
690.78	12.91
691.187	13.4
691.593	13.92
692	14.44
692.407	14.97
692.813	15.51
693.22	16.07
693.626	16.63
694.032	17.21
694.439	17.76
694.845	18.34
695.251	18.92
695.657	19.49
696.063	20.06
696.469	20.64
696.875	21.21
697.281	21.79
697.687	22.34
698.093	22.89
698.498	23.42
698.904	23.99
699.31	24.53
699.715	25.06
700.12	25.58
700.526	26.1
700.931	26.61
701.337	27.12
701.742	27.6
702.147	28.09
702.552	28.57
702.957	29.04
703.362	29.48
703.767	29.91
704.172	30.34
704.577	30.77
704.981	31.19
705.386	31.59
705.791	31.99
706.195	32.4
706.6	32.8
707.004	33.22
707.408	33.6
707.813	33.98
708.217	34.37
708.621	34.75
709.025	35.09
709.43	35.44
709.834	35.8
710.237	36.13
710.641	36.44
711.045	36.75
711.449	37.04
711.853	37.37
712.256	37.69
712.66	37.98
713.064	38.27
713.467	38.57
713.87	38.87
714.274	39.14
714.677	39.44
715.08	39.74
715.484	40.02
715.887	40.3
716.29	40.54
716.693	40.79
717.096	41.05
717.499	41.3
717.901	41.56
718.304	41.78
718.707	42.03
719.109	42.25
719.512	42.47
719.915	42.68
720.317	42.88
720.719	43.08
721.122	43.3
721.524	43.51
721.926	43.7
722.328	43.89
722.731	44.09
723.133	44.29
723.535	44.46
723.937	44.62
724.338	44.79
724.74	44.97
725.142	45.16
725.544	45.29
725.945	45.4
726.347	45.53
726.748	45.65
727.15	45.77
727.551	45.9
727.952	46.02
728.354	46.15
728.755	46.25
729.156	46.35
729.557	46.44
729.958	46.55
730.359	46.68
730.76	46.79
731.161	46.9
731.562	46.99
731.962	47.04
732.363	47.15
732.763	47.22
733.164	47.31
733.564	47.38
733.965	47.46
734.365	47.54
734.766	47.6
735.166	47.67
735.566	47.72
735.966	47.79
736.366	47.86
736.766	47.88
737.166	47.93
737.566	48
737.966	48.06
738.365	48.12
738.765	48.17
739.165	48.21
739.564	48.25
739.964	48.31
740.363	48.34
740.763	48.35
741.162	48.4
741.561	48.44
741.96	48.44
742.36	48.48
742.759	48.47
743.158	48.5
743.557	48.53
743.955	48.56
744.354	48.61
744.753	48.67
745.152	48.73
745.55	48.77
745.949	48.81
746.348	48.87
746.746	48.89
747.144	48.94
747.543	48.97
747.941	49
748.339	49.02
748.737	49.01
749.136	48.98
749.534	48.99
749.932	48.99
750.33	48.98
750.727	49.01
751.125	49.02
751.523	49.02
751.921	49.04
752.318	49.04
752.716	49.04
753.113	49.05
753.511	49.09
753.908	49.12
754.305	49.11
754.703	49.12
755.1	49.1
755.497	49.09
755.894	49.08
756.291	49.05
756.688	49.05
757.085	49.04
757.482	49.02
757.878	48.99
758.275	48.96
758.672	48.95
759.068	48.95
759.465	48.94
759.861	48.93
760.258	48.95
760.654	48.96
761.05	48.96
761.447	48.97
761.843	48.96
762.239	48.98
762.635	48.98
763.031	48.99
763.427	48.97
763.822	48.96
764.218	48.97
764.614	48.95
765.01	48.92
765.405	48.91
765.801	48.89
766.196	48.92
766.592	48.92
766.987	48.94
767.382	48.92
767.778	48.95
768.173	48.98
768.568	48.98
768.963	48.97
769.358	49.01
769.753	49.02
770.148	49.04
770.542	49.02
770.937	49.04
771.332	49.01
771.726	49.02
772.121	49
772.515	49
772.91	48.98
773.304	49.02
773.699	49.01
774.093	49.01
774.487	49.01
774.881	49.03
775.275	48.99
775.669	48.99
776.063	48.99
776.457	49.01
776.851	49
777.245	49.01
777.638	49
778.032	49.03
778.425	49.05
778.819	49.05
779.212	49.05
779.606	49.1
779.999	49.12
780.392	49.17
780.786	49.16
781.179	49.19
781.572	49.23
781.965	49.27
782.358	49.29
782.751	49.27
783.143	49.28
783.536	49.3
783.929	49.29
784.322	49.34
784.714	49.35
785.107	49.37
785.499	49.37
785.891	49.37
786.284	49.36
786.676	49.35
787.068	49.36
787.46	49.39
787.852	49.39
788.245	49.41
788.636	49.41
789.028	49.4
789.42	49.41
789.812	49.42
790.204	49.46
790.595	49.48
790.987	49.5
791.378	49.55
791.77	49.55
792.161	49.57
792.553	49.58
792.944	49.57
793.335	49.59
793.726	49.59
794.117	49.59
794.508	49.55
794.899	49.55
795.29	49.55
795.681	49.5
796.072	49.51
796.463	49.49
796.853	49.51
797.244	49.5
797.634	49.5
798.025	49.53
798.415	49.55
798.806	49.55
799.196	49.53
799.586	49.53
799.976	49.59
800.366	49.62
800.756	49.64
801.146	49.65
801.536	49.69
801.926	49.69
802.316	49.71
802.706	49.73
803.095	49.77
803.485	49.8
803.874	49.82
804.264	49.83
804.653	49.83
805.043	49.86
805.432	49.88
805.821	49.89
806.21	49.91
806.599	49.9
806.988	49.91
807.377	49.92
807.766	49.93
808.155	49.93
808.544	49.95
808.933	49.95
809.321	49.95
809.71	49.94
810.098	49.95
810.487	49.92
810.875	49.95
811.264	49.97
811.652	50
812.04	50.01
812.428	50.07
812.816	50.08
813.204	50.1
813.592	50.11
813.98	50.17
814.368	50.19
814.756	50.23
815.144	50.23
815.531	50.2
815.919	50.2
816.306	50.21
816.694	50.18
817.081	50.19
817.469	50.2
817.856	50.22
818.243	50.2
818.63	50.2
819.017	50.21
819.404	50.21
819.791	50.24
820.178	50.25
820.565	50.25
820.952	50.29
821.339	50.25
821.725	50.24
822.112	50.24
822.498	50.24
822.885	50.25
823.271	50.22
823.657	50.2
824.044	50.18
824.43	50.16
824.816	50.15
825.202	50.11
825.588	50.14
825.974	50.13
826.36	50.12
826.746	50.11
827.132	50.08
827.517	50.1
827.903	50.13
828.289	50.13
828.674	50.12
829.06	50.11
829.445	50.11
829.83	50.1
830.216	50.08
830.601	50.07
830.986	50.06
831.371	50.05
831.756	50.03
832.141	50.01
832.526	49.99
832.911	49.98
833.295	49.96
833.68	49.96
834.065	49.92
834.449	49.92
834.834	49.89
835.218	49.88
835.603	49.87
835.987	49.85
836.371	49.83
836.755	49.78
837.139	49.77
837.524	49.77
837.908	49.76
838.291	49.76
838.675	49.75
839.059	49.75
839.443	49.7
839.827	49.7
840.21	49.68
840.594	49.69
840.977	49.69
841.361	49.7
841.744	49.66
842.127	49.63
842.511	49.59
842.894	49.6
843.277	49.57
843.66	49.57
844.043	49.56
844.426	49.56
844.809	49.57
845.191	49.59
845.574	49.57
845.957	49.57
846.339	49.58
846.722	49.6
847.104	49.6
847.487	49.62
847.869	49.64
848.252	49.65
848.634	49.65
849.016	49.64
849.398	49.66
849.78	49.67
850.162	49.67
850.544	49.68
850.926	49.68
851.307	49.66
851.689	49.66
852.071	49.68
852.452	49.66
852.834	49.67
853.215	49.64
853.597	49.65
853.978	49.64
854.359	49.67
854.741	49.67
855.122	49.68
855.503	49.69
855.884	49.69
856.265	49.68
856.646	49.71
857.026	49.72
857.407	49.76
857.788	49.75
858.169	49.78
858.549	49.78
858.93	49.78
859.31	49.81
859.69	49.81
860.071	49.83
860.451	49.85
860.831	49.84
861.211	49.83
861.591	49.8
861.971	49.8
862.351	49.81
862.731	49.82
863.111	49.82
863.491	49.8
863.87	49.81
864.25	49.75
864.629	49.78
865.009	49.79
865.388	49.77
865.768	49.78
866.147	49.78
866.526	49.75
866.905	49.73
867.284	49.73
867.663	49.71
868.042	49.73
868.421	49.76
868.8	49.74
869.179	49.74
869.558	49.74
869.936	49.74
870.315	49.73
870.693	49.74
871.072	49.74
871.45	49.75
871.828	49.78
872.207	49.78
872.585	49.77
872.963	49.78
873.341	49.76
873.719	49.77
874.097	49.78
874.475	49.79
874.853	49.8
875.23	49.84
875.608	49.81
875.986	49.82
876.363	49.8
876.741	49.81
877.118	49.81
877.495	49.83
877.873	49.84
878.25	49.86
878.627	49.86
879.004	49.86
879.381	49.88
879.758	49.89
880.135	49.87
880.512	49.86
880.889	49.86
881.265	49.84
881.642	49.85
882.019	49.83
882.395	49.81
882.772	49.79
883.148	49.77
883.524	49.72
883.901	49.72
884.277	49.69
884.653	49.69
885.029	49.7
885.405	49.71
885.781	49.68
886.157	49.68
886.532	49.68
886.908	49.67
887.284	49.67
887.659	49.65
888.035	49.61
888.411	49.6
888.786	49.59
889.161	49.56
889.537	49.53
889.912	49.51
890.287	49.48
890.662	49.44
891.037	49.44
891.412	49.41
891.787	49.4
892.162	49.4
892.536	49.38
892.911	49.36
893.286	49.35
893.66	49.33
894.035	49.34
894.409	49.33
894.784	49.35
895.158	49.34
895.532	49.34
895.906	49.33
896.281	49.34
896.655	49.33
897.029	49.35
897.402	49.33
897.776	49.34
898.15	49.34
898.524	49.37
898.898	49.36
899.271	49.35
899.645	49.37
900.018	49.4
900.392	49.4
900.765	49.41
901.138	49.41
901.511	49.44
901.884	49.47
902.258	49.5
902.631	49.5
903.003	49.5
903.376	49.5
903.749	49.5
904.122	49.54
904.495	49.57
904.867	49.61
905.24	49.66
905.612	49.67
905.985	49.65
906.357	49.63
906.729	49.64
907.102	49.67
907.474	49.69
907.846	49.71
908.218	49.7
908.59	49.71
908.962	49.72
909.334	49.69
909.705	49.71
910.077	49.74
910.449	49.76
910.82	49.76
911.192	49.76
911.563	49.75
911.935	49.74
912.306	49.74
912.677	49.74
913.048	49.73
913.419	49.72
913.79	49.7
914.161	49.7
914.532	49.69
914.903	49.7
915.274	49.7
915.645	49.72
916.015	49.73
916.386	49.74
916.756	49.73
917.127	49.73
917.497	49.77
917.868	49.79
918.238	49.76
918.608	49.81
918.978	49.79
919.348	49.82
919.718	49.81
920.088	49.84
920.458	49.83
920.828	49.83
921.198	49.83
921.567	49.81
921.937	49.82
922.306	49.83
922.676	49.81
923.045	49.8
923.415	49.76
923.784	49.77
924.153	49.78
924.522	49.79
924.891	49.79
925.26	49.82
925.629	49.84
925.998	49.8
926.367	49.8
926.736	49.76
927.104	49.79
927.473	49.8
927.842	49.73
928.21	49.7
928.578	49.67
928.947	49.65
929.315	49.6
929.683	49.56
930.051	49.56
930.42	49.57
930.788	49.54
931.156	49.5
931.523	49.48
931.891	49.53
932.259	49.5
932.627	49.48
932.994	49.44
933.362	49.43
933.729	49.45
934.097	49.41
934.464	49.41
934.831	49.42
935.199	49.41
935.566	49.39
935.933	49.41
936.3	49.4
936.667	49.44
937.034	49.46
937.401	49.45
937.767	49.46
938.134	49.49
938.501	49.48
938.867	49.56
939.234	49.58
939.6	49.65
939.967	49.67
940.333	49.71
940.699	49.8
941.065	49.87
941.431	49.97
941.798	50.02
942.163	50.05
942.529	50.1
942.895	50.12
943.261	50.18
943.627	50.21
943.992	50.22
944.358	50.28
944.723	50.18
945.089	50.17
945.454	50.17
945.82	50.21
946.185	50.28
946.55	50.24
946.915	50.22
947.28	50.22
947.645	50.25
948.01	50.2
948.375	50.15
948.74	50.17
949.104	50.16
949.469	50.14
949.834	50.1
950.198	50
950.562	50.01
950.927	49.95
951.291	49.84
951.655	49.73
952.02	49.73
952.384	49.66
952.748	49.59
953.112	49.51
953.476	49.46
953.839	49.34
954.203	49.31
954.567	49.22
954.931	49.18
955.294	49.15
955.658	49.18
956.021	49.12
956.385	49.1
956.748	49.11
957.111	49.09
957.474	49.06
957.837	49.06
958.2	49.02
958.563	49.01
958.926	49.04
959.289	49.08
959.652	49.01
960.015	48.99
960.377	49
960.74	49
961.102	48.99
961.465	49
961.827	49
962.189	49
962.552	49.01
962.914	48.98
963.276	48.95
963.638	48.99
964	48.99
964.362	48.92
964.724	48.89
965.085	48.85
965.447	48.8
965.809	48.8
966.17	48.8
966.532	48.77
966.893	48.77
967.255	48.76
967.616	48.75
967.977	48.78
968.338	48.82
968.699	48.84
969.061	48.9
969.421	48.9
969.782	48.91
970.143	48.91
970.504	48.94
970.865	48.96
971.225	48.88
971.586	48.87
971.946	48.79
972.307	48.8
972.667	48.8
973.027	48.83
973.388	48.88
973.748	48.88
974.108	48.92
974.468	48.93
974.828	48.96
975.188	49.06
975.548	49
975.907	49.11
976.267	49.11
976.627	49.03
976.986	48.91
977.346	48.84
977.705	48.83
978.064	48.81
978.424	48.82
978.783	48.68
979.142	48.66
979.501	48.71
979.86	48.69
980.219	48.72
980.578	48.81
980.937	48.9
981.296	48.9
981.654	48.9
982.013	48.95
982.371	48.95
982.73	49.1
983.088	49.13
983.447	49.08
983.805	49.1
984.163	49.02
984.521	49.01
984.879	48.97
985.237	49.07
985.595	49.14
985.953	49.09
986.311	49.05
986.669	49.03
987.026	49.03
987.384	49.07
987.741	49.02
988.099	49.09
988.456	49.12
988.814	49.16
989.171	49.18
989.528	49.16
989.885	49.19
990.242	49.2
990.599	49.3
990.956	49.36
991.313	49.46
991.67	49.52
992.027	49.59
992.383	49.6
992.74	49.72
993.096	49.66
993.453	49.69
993.809	49.65
994.165	49.71
994.522	49.62
994.878	49.64
995.234	49.64
995.59	49.69
995.946	49.76
996.302	49.8
996.658	49.83
997.013	49.91
997.369	49.94
997.725	49.99
998.08	50.03
998.436	50.09
998.791	50.17
999.147	50.18
999.502	50.24
999.857	50.17
1000.212	50.18
1000.567	50.25
1000.922	50.31
1001.277	50.35
1001.632	50.42
1001.987	50.51
1002.342	50.52
1002.696	50.49
1003.051	50.63
1003.406	50.76
1003.76	50.85
1004.114	50.84
1004.469	50.88
1004.823	51.06
1005.177	51.08
1005.531	51.18
1005.885	51.2
1006.239	51.25
1006.593	51.34
1006.947	51.31
1007.301	51.05
1007.655	50.92
1008.008	51.14
1008.362	51.16
1008.715	51.12
1009.069	51.3
1009.422	51.21
1009.776	51.37
1010.129	51.51
1010.482	51.55
1010.835	51.63
1011.188	51.85
1011.541	52.06
1011.894	52.15
1012.247	52.09
1012.6	52.2
1012.952	52.17
1013.305	52.43
1013.657	52.46
1014.01	52.6
1014.362	52.62
1014.715	52.79
1015.067	53.01
1015.419	53.04
1015.771	52.9
1016.123	53.09
1016.475	53.12
1016.827	53.3
1017.179	53.31
1017.531	53.18
1017.883	53.09
1018.234	53.19
1018.586	53.18
1018.938	53.2
1019.289	53.29
1019.64	53.42
1019.992	53.44
1020.343	53.43
1020.694	53.49
1021.045	53.39
1021.396	53.68
1021.747	53.89
1022.098	54.32
1022.449	54.4
1022.8	54.34
1023.151	54.59
1023.501	54.55
1023.852	54.58
1024.202	54.76
1024.553	54.72
1024.903	55.12
1025.253	55.13
1025.604	55.22
1025.954	54.67
1026.304	54.8
1026.654	54.91
1027.004	54.99
1027.354	55.36
1027.703	55.47
1028.053	55.63
1028.403	55.8
1028.753	55.65
1029.102	55.96
1029.452	56.07
1029.801	56.67
1030.15	56.76
1030.499	56.93
897.758	949.25
901.051	950.43
904.343	951.15
907.636	970.16
910.928	944.2
914.22	941.31
917.511	927.92
920.803	886.14
924.094	883.31
927.384	863.57
930.675	830.47
933.965	824.99
937.255	774.86
940.544	742.28
943.834	708.81
947.123	702.35
950.411	663.53
953.7	651.46
956.988	617.34
960.276	589.99
963.563	582.07
966.851	559.92
970.138	557.4
973.424	543.04
976.711	546.51
979.997	517.11
983.283	514.15
986.568	503.53
989.853	489.36
993.138	479.25
996.423	464.97
999.708	451.99
1002.992	446.8
1006.275	426.14
1009.559	424.14
1012.842	408.58
1016.125	398.71
1019.408	391.31
1022.69	386.65
1025.972	378.53
1029.254	370.06
1032.536	362.31
1035.817	356.69
1039.098	351.68
1042.379	345.29
1045.659	340.64
1048.939	332.54
1052.219	327.17
1055.498	322.46
1058.778	314.58
1062.057	309.26
1065.335	306.73
1068.614	303.69
1071.892	299.06
1075.17	291.06
1078.447	285.73
1081.724	283.51
1085.001	281.28
1088.278	276.42
1091.554	271.48
1094.83	272.85
1098.106	269.73
1101.382	266.62
1104.657	264.99
1107.932	260.85
1111.206	262.88
1114.481	256.94
1117.755	254.68
1121.029	252.77
1124.302	251.33
1127.575	247.41
1130.848	243.94
1134.121	241.6
1137.393	240.89
1140.665	236.08
1143.937	234.38
1147.208	232.69
1150.48	231.93
1153.75	229.05
1157.021	226.14
1160.291	226.23
1163.561	223.77
1166.831	223.49
1170.101	221.56
1173.37	221.66
1176.639	222.06
1179.907	220.33
1183.176	217.23
1186.444	217
1189.711	216.58
1192.979	216.68
1196.246	215.52
1199.513	216.11
1202.78	213.97
1206.046	214.18
1209.312	212.05
1212.578	212.05
1215.843	213.04
1219.108	212.91
1222.373	216.79
1225.638	217.86
1228.902	219.73
1232.166	219.84
1235.43	221.31
1238.693	225.24
1241.956	226.31
1245.219	228.35
1248.482	229.44
1251.744	229.93
1255.006	230.51
1258.268	225.29
1261.529	223.8
1264.79	223.34
1268.051	221.42
1271.312	218.64
1274.572	216.1
1277.832	214.86
1281.092	212.12
1284.351	209.8
1287.61	209.85
1290.869	206.77
1294.128	205.61
1297.386	204.63
1300.644	202.24
1303.902	203.74
1307.159	203.05
1310.416	202.45
1313.673	201.32
1316.93	203.59
1320.186	203.48
1323.442	203.27
1326.697	206.05
1329.953	207.09
1333.208	208.38
1336.463	210.68
1339.717	210.36
1342.972	213.52
1346.226	215.41
1349.479	216.36
1352.733	216.78
1355.986	218.6
1359.238	218.52
1362.491	218.62
1365.743	220.63
1368.995	220.29
1372.247	219.26
1375.498	219.16
1378.749	218.64
1382	216.59
1385.251	216.28
1388.501	214.38
1391.751	213.25
1395	212.41
1398.25	210.43
1401.499	208.35
1404.748	207.96
1407.996	205.61
1411.244	204.56
1414.492	203.52
1417.74	200.42
1420.987	197.97
1424.234	197.51
1427.481	195.56
1430.728	195.57
1433.974	194.21
1437.22	192.16
1440.465	191.73
1443.711	189.58
1446.956	188.54
1450.201	186.23
1453.445	184.72
1456.689	183.96
1459.933	180.9
1463.177	178.72
1466.42	177.02
1469.663	174.51
1472.906	173.54
1476.148	168.9
1479.391	167.53
1482.633	165.99
1485.874	164.29
1489.115	163.15
1492.356	161.53
1495.597	161.5
1498.838	159.98
1502.078	158.25
1505.318	158.14
1508.557	158.09
1511.797	158.43
1515.036	156.53
1518.274	156.31
1521.513	155.54
1524.751	155.17
1527.989	154.99
1531.227	154.26
1534.464	154.42
1537.701	154.44
1540.938	153.76
1544.174	151.7
1547.41	151.95
1550.646	152.03
1553.882	151.63
1557.117	149.77
1560.352	149.15
1563.587	148.67
1566.821	147.84
1570.055	147.2
1573.289	145.13
1576.523	145.65
1579.756	145.22
1582.989	144.12
1586.222	144.3
1589.454	143.14
1592.686	144.32
1595.918	143.98
1599.15	143.47
1602.381	143.94
1605.612	143.55
1608.843	144.21
1612.073	143.97
1615.303	144.48
1618.533	144.77
1621.762	144.83
1624.992	146.09
1628.221	145.54
1631.449	145.08
1634.678	145.81
1637.906	146.3
1641.134	145.93
1644.361	145.86
1647.588	146.34
1650.815	145.87
1654.042	145.5
1657.269	146.12
1660.495	145.89
1663.72	145.67
1666.946	146.49
1670.171	146.27
1673.396	146.42
1676.621	146.17
1679.845	146.76
1683.069	146.99
1686.293	147.74
1689.517	148.25
1692.74	147.8
1695.963	148.48
1699.185	149.76
1702.408	149.56
1705.63	149.63
1708.852	149.99
1712.073	150.54
1715.294	150.72
1718.515	151.01
1721.736	150.78
1724.956	151.51
1728.176	151.69
1731.396	152.18
1734.616	151.61
1737.835	152.46
1741.054	151.87
1744.272	151.76
1747.491	153.41
1750.709	153.53
1753.927	153.44
1757.144	153.4
1760.361	153.54
1763.578	153.59
1766.795	153.06
1770.011	154.63
1773.227	154.59
1776.443	156.26
1779.658	156.63
1782.874	156.32
1786.089	156.37
1789.303	156.79
1792.518	158.19
1795.732	157.83
1798.945	159.14
1802.159	159.97
1805.372	159.39
1808.585	161.94
1811.797	162.32
1815.01	162.98
1818.222	163.86
1821.434	166.45
1824.645	166.39
1827.856	168.64
1831.067	169.73
1834.278	170.21
1837.488	170.96
1840.698	172.41
1843.908	170.71
1847.117	170.82
1850.326	172.04
1853.535	170.91
1856.744	172.1
1859.952	172.06
1863.16	170.94
1866.368	169.86
1869.575	170.29
1872.782	167.79
1875.989	167.15
1879.196	166.94
1882.402	165.77
1885.608	164.99
1888.814	165.38
1892.019	164
1895.224	163.46
1898.429	162.72
1901.634	163.33
1904.838	162.71
1908.042	164.2
1911.246	164.25
1914.449	164.18
1917.652	164.8
1920.855	164.48
1924.058	164.88
1927.26	164.21
1930.462	165.03
1933.664	165.94
1936.865	164.55
1940.066	164.84
1943.267	163.37
1946.467	163.91
1949.668	164.28
1952.868	166.39
1956.067	167.54
1959.267	166.88
1962.466	167.56
1965.665	166.33
1968.863	167.88
1972.061	171.2
1975.259	172.31
1978.457	174.34
1981.654	174.95
1984.852	175.86
1988.048	175.02
1991.245	176.67
1994.441	178.06
1997.637	180.32
2000.833	184.08
2004.028	185.46
2007.223	185.61
2010.418	187.47
2013.613	191.38
2016.807	193.48
2020.001	194.61
2023.194	198.55
2026.388	202.72
2029.581	208.03
2032.774	208.28
2035.966	212.51
2039.158	213.31
2042.35	217.18
2045.542	219.28
2048.733	221.43
2051.924	225.71
2055.115	229.48
2058.306	229.35
2061.496	231.02
2064.686	230.27
2067.875	235.78
2071.065	236.53
2074.254	234.9
2077.442	239.37
2080.631	239.98
2083.819	242.42
2087.007	241.35
2090.195	245.01
2093.382	247.82
2096.569	246.54
2099.756	251.14
2102.942	251.16
2106.128	252.95
2109.314	260.1
2112.5	258.07
2115.685	265.25
2118.87	265.83
2122.055	271.11
2125.239	272.41
2128.424	274.94
2131.608	276.69
2134.791	281.76
2137.974	283
2141.157	283.72
2144.34	284.25
2147.523	290.02
2150.705	286.69
2153.887	289.54
2157.068	290.51
2160.25	287.81
2163.431	289.27
2166.611	292.52
2169.792	297.41
2172.972	299.25
2176.152	303.23
2179.331	306.82
2182.511	309.32
2185.69	313.18
2188.868	319.55
2192.047	318.72
2195.225	329.03
2198.403	337.88
2201.58	345.93
2204.758	351.3
2207.935	358.64
2211.111	365.41
2214.288	369.09
2217.464	370.59
2220.64	377.9
2223.815	381.39
2226.991	397.76
2230.166	398.04
2233.34	401.57
2236.515	409.01
2239.689	410.1
2242.863	412.16
2246.036	419.76
2249.209	417.84
2252.382	426.34
2255.555	438.29
2258.727	440.41
2261.9	445.13
2265.071	449.5
2268.243	458.06
2271.414	462.75
2274.585	471.33
2277.756	476.95
2280.926	481.96
2284.096	494.36
2287.266	504.1
2290.436	504.53
2293.605	517.03
2296.774	530.67
2299.942	546.21
2303.111	550.87
2306.279	558.29
2309.447	568.39
2312.614	582.54
2315.781	599
2318.948	624.43
2322.115	614.88
2325.281	650.91
2328.447	637.96
2331.613	664.73
2334.779	657.67
2337.944	688.23
2341.109	696.8
2344.274	713.69
2347.438	742.19
2350.602	740.88
2353.766	762.34
2356.929	775.83
2360.092	770.85
2363.255	823.69
2366.418	819.13
2369.58	834.92
2372.742	885.49
2375.904	907.77
2379.066	903.29
2382.227	883.13
2385.388	958.78
2388.548	959.15
2391.709	971.68
2394.869	1077.78
2398.029	1037.72
2401.188	1070.12
2404.347	1064.02
2407.506	1041.76
2410.665	1074.59
2413.823	1134.87
2416.981	1200.92
2420.139	1164.25
2423.296	1149.83
2426.453	1202.59
2429.61	1162.52
2432.767	1212.96
2435.923	1199.78
2439.079	1313.14
2442.235	1338.2
2445.391	1319.89
2448.546	1310.31
2451.701	1274.38
2454.855	1271.26
2458.009	1361.7
2461.163	1409.48
2464.317	1454.31
2467.471	1487.1
2470.624	1489.9
2473.777	1453.16
2476.929	1407.84
2480.082	1369.71
2483.234	1359.89
2486.385	1436.73
2489.537	1443.72
2492.688	1483.4
2495.839	1451.97
2498.989	1420.19
2502.14	1426.09
2505.29	1439
2508.439	1455.57
2511.589	1452.83
2514.738	1586.83
2517.887	1552.7
2521.035	1625.75
2524.183	1642.13
2527.331	1656.13
2530.479	1635.54
2533.627	1649.42
