Data from C_3_DIV_OH_2N_Splice17_13-47-58-212.txt Node
Date: Sat Mar 07 13:47:58 EST 2020
User: sa697716
Spectrometer: NQ5500242
Trigger mode: 0
Integration Time (sec): 1.450000E-1
Scans to average: 20
Nonlinearity correction enabled: false
Boxcar width: 5
Storing dark spectrum: false
XAxis mode: Wavelengths
Number of Pixels in Spectrum: 512
>>>>>Begin Spectral Data<<<<<
187.83	279.92
188.298	306.22
188.766	272.3
189.233	218.35
189.701	236.66
190.169	285.39
190.636	327.85
191.104	521.37
191.571	163.32
192.039	-15.07
192.506	-193.95
192.974	-11.83
193.441	39.32
193.908	21.07
194.375	42.33
194.842	11.71
195.31	78.73
195.777	301.03
196.244	63.05
196.711	37.86
197.177	38.48
197.644	37.06
198.111	38.27
198.578	38.18
199.045	38.43
199.511	38.03
199.978	37.99
200.445	38.21
200.911	37.72
201.378	37.92
201.844	38.11
202.31	37.99
202.777	38.23
203.243	37.97
203.709	37.79
204.176	37.02
204.642	36.99
205.108	36.98
205.574	36.83
206.04	36.43
206.506	35.86
206.972	35.87
207.438	35.58
207.903	35.09
208.369	34.2
208.835	33.88
209.301	33.61
209.766	32.62
210.232	31.94
210.697	30.99
211.163	30.58
211.628	29.85
212.094	29.01
212.559	28.5
213.024	28.03
213.49	27.41
213.955	26.51
214.42	25.8
214.885	25.21
215.35	24.3
215.815	23.21
216.28	21.41
216.745	19.71
217.21	18.07
217.675	16.52
218.14	15.28
218.604	14.23
219.069	13.39
219.534	12.67
219.998	12.04
220.463	11.54
220.927	11.06
221.392	10.81
221.856	10.56
222.32	10.32
222.785	10.13
223.249	9.94
223.713	9.78
224.177	9.64
224.642	9.51
225.106	9.33
225.57	9.18
226.034	9.08
226.497	8.96
226.961	8.86
227.425	8.74
227.889	8.65
228.353	8.55
228.816	8.45
229.28	8.34
229.744	8.25
230.207	8.18
230.671	8.09
231.134	8
231.597	7.93
232.061	7.84
232.524	7.77
232.987	7.69
233.45	7.64
233.914	7.57
234.377	7.51
234.84	7.44
235.303	7.39
235.766	7.33
236.229	7.27
236.691	7.2
237.154	7.14
237.617	7.09
238.08	7.03
238.542	6.95
239.005	6.91
239.468	6.86
239.93	6.81
240.393	6.76
240.855	6.7
241.317	6.64
241.78	6.59
242.242	6.53
242.704	6.5
243.166	6.45
243.629	6.41
244.091	6.36
244.553	6.31
245.015	6.25
245.477	6.19
245.939	6.16
246.4	6.12
246.862	6.06
247.324	6.02
247.786	5.96
248.247	5.92
248.709	5.86
249.17	5.81
249.632	5.79
250.093	5.76
250.555	5.72
251.016	5.68
251.477	5.64
251.939	5.62
252.4	5.59
252.861	5.56
253.322	5.53
253.783	5.5
254.244	5.47
254.705	5.43
255.166	5.4
255.627	5.37
256.088	5.35
256.549	5.32
257.009	5.28
257.47	5.24
257.931	5.21
258.391	5.18
258.852	5.15
259.312	5.11
259.773	5.09
260.233	5.07
260.694	5.04
261.154	5.01
261.614	4.99
262.074	4.96
262.534	4.94
262.994	4.92
263.455	4.9
263.915	4.89
264.374	4.87
264.834	4.85
265.294	4.83
265.754	4.81
266.214	4.8
266.673	4.78
267.133	4.77
267.593	4.76
268.052	4.76
268.512	4.75
268.971	4.74
269.431	4.74
269.89	4.72
270.349	4.72
270.809	4.71
271.268	4.71
271.727	4.7
272.186	4.69
272.645	4.69
273.104	4.67
273.563	4.67
274.022	4.65
274.481	4.65
274.94	4.65
275.399	4.63
275.857	4.62
276.316	4.61
276.775	4.6
277.233	4.59
277.692	4.58
278.15	4.58
278.609	4.57
279.067	4.57
279.525	4.56
279.984	4.55
280.442	4.55
280.9	4.54
281.358	4.54
281.816	4.54
282.274	4.54
282.732	4.52
283.19	4.51
283.648	4.5
284.106	4.48
284.564	4.47
285.021	4.47
285.479	4.46
285.937	4.44
286.394	4.43
286.852	4.42
287.309	4.4
287.767	4.39
288.224	4.38
288.682	4.37
289.139	4.36
289.596	4.34
290.053	4.32
290.511	4.31
290.968	4.3
291.425	4.28
291.882	4.28
292.339	4.27
292.796	4.26
293.252	4.25
293.709	4.24
294.166	4.23
294.623	4.23
295.079	4.22
295.536	4.22
295.992	4.21
296.449	4.2
296.905	4.2
297.362	4.19
297.818	4.18
298.274	4.18
298.731	4.18
299.187	4.16
299.643	4.15
300.099	4.15
300.555	4.14
301.011	4.14
301.467	4.14
301.923	4.12
302.379	4.12
302.835	4.12
303.291	4.11
303.746	4.1
304.202	4.1
304.658	4.11
305.113	4.11
305.569	4.1
306.024	4.1
306.479	4.08
306.935	4.08
307.39	4.07
307.845	4.07
308.301	4.07
308.756	4.07
309.211	4.06
309.666	4.05
310.121	4.06
310.576	4.05
311.031	4.05
311.486	4.05
311.94	4.05
312.395	4.05
312.85	4.04
313.305	4.04
313.759	4.04
314.214	4.05
314.668	4.04
315.123	4.03
315.577	4.03
316.032	4.03
316.486	4.02
316.94	4.02
317.394	4.01
317.849	4
318.303	3.99
318.757	3.98
319.211	3.97
319.665	3.95
320.119	3.95
320.572	3.93
321.026	3.93
321.48	3.91
321.934	3.9
322.387	3.88
322.841	3.88
323.295	3.88
323.748	3.87
324.202	3.87
324.655	3.87
325.108	3.87
325.562	3.87
326.015	3.87
326.468	3.88
326.921	3.88
327.374	3.88
327.827	3.89
328.28	3.88
328.733	3.88
329.186	3.88
329.639	3.88
330.092	3.87
330.545	3.87
330.997	3.86
331.45	3.87
331.903	3.87
332.355	3.88
332.808	3.88
333.26	3.87
333.713	3.87
334.165	3.86
334.617	3.86
335.069	3.85
335.522	3.84
335.974	3.85
336.426	3.84
336.878	3.83
337.33	3.82
337.782	3.81
338.234	3.82
338.686	3.82
339.137	3.82
339.589	3.81
340.041	3.81
340.493	3.81
340.944	3.8
341.396	3.79
341.847	3.78
342.299	3.77
342.75	3.77
343.201	3.74
343.653	3.74
344.104	3.72
344.555	3.71
345.006	3.7
345.457	3.7
345.908	3.69
346.359	3.69
346.81	3.69
347.261	3.68
347.712	3.68
348.163	3.68
348.613	3.69
349.064	3.7
349.515	3.7
349.965	3.7
350.416	3.69
350.866	3.69
351.317	3.68
351.767	3.68
352.217	3.69
352.668	3.69
353.118	3.7
353.568	3.68
354.018	3.69
354.468	3.71
354.918	3.72
355.368	3.73
355.818	3.74
356.268	3.74
356.718	3.75
357.168	3.75
357.617	3.76
358.067	3.76
358.517	3.78
358.966	3.78
359.416	3.79
359.865	3.8
360.315	3.81
360.764	3.82
361.213	3.84
361.663	3.84
362.112	3.86
362.561	3.88
363.01	3.9
363.459	3.9
363.908	3.92
364.357	3.93
364.806	3.94
365.255	3.97
365.703	3.99
366.152	4.02
366.601	4.06
367.05	4.07
367.498	4.09
367.947	4.12
368.395	4.15
368.844	4.19
369.292	4.21
369.74	4.25
370.189	4.27
370.637	4.3
371.085	4.32
371.533	4.35
371.981	4.39
372.429	4.44
372.877	4.47
373.325	4.51
373.773	4.55
374.221	4.6
374.669	4.64
375.116	4.68
375.564	4.73
376.012	4.78
376.459	4.84
376.907	4.9
377.354	4.95
377.801	5.01
378.249	5.07
378.696	5.14
379.143	5.2
379.591	5.26
380.038	5.33
380.485	5.4
380.932	5.46
381.379	5.52
381.826	5.58
382.273	5.64
382.72	5.69
383.166	5.76
383.613	5.83
384.06	5.89
384.506	5.95
384.953	6.01
385.4	6.08
385.846	6.15
386.292	6.21
386.739	6.28
387.185	6.34
387.631	6.41
388.078	6.47
388.524	6.53
388.97	6.6
389.416	6.67
389.862	6.74
390.308	6.81
390.754	6.87
391.2	6.93
391.645	6.99
392.091	7.07
392.537	7.13
392.983	7.2
393.428	7.27
393.874	7.31
394.319	7.37
394.765	7.42
395.21	7.46
395.655	7.5
396.101	7.55
396.546	7.59
396.991	7.62
397.436	7.65
397.881	7.7
398.326	7.73
398.771	7.78
399.216	7.79
399.661	7.82
400.106	7.84
400.551	7.87
400.995	7.87
401.44	7.88
401.885	7.9
402.329	7.92
402.774	7.93
403.218	7.96
403.663	7.96
404.107	7.96
404.551	7.96
404.995	7.95
405.44	7.93
405.884	7.94
406.328	7.95
406.772	7.94
407.216	7.92
407.66	7.9
408.104	7.86
408.547	7.86
408.991	7.87
409.435	7.85
409.879	7.86
410.322	7.86
410.766	7.87
411.209	7.87
411.653	7.87
412.096	7.89
412.54	7.9
412.983	7.91
413.426	7.94
413.869	7.94
414.312	7.97
414.756	7.96
415.199	7.97
415.642	7.97
416.085	7.96
416.527	7.94
416.97	7.92
417.413	7.91
417.856	7.9
418.298	7.87
418.741	7.86
419.184	7.85
419.626	7.85
420.069	7.85
420.511	7.85
420.953	7.85
421.396	7.87
421.838	7.85
422.28	7.85
422.722	7.85
423.164	7.84
423.606	7.83
424.048	7.81
424.49	7.79
424.932	7.74
425.374	7.7
425.816	7.66
426.258	7.62
426.699	7.61
427.141	7.6
427.582	7.59
428.024	7.6
428.465	7.57
428.907	7.56
429.348	7.54
429.789	7.56
430.231	7.58
430.672	7.59
431.113	7.61
431.554	7.61
431.995	7.59
432.436	7.6
432.877	7.6
433.318	7.63
433.759	7.65
434.2	7.68
434.64	7.68
435.081	7.69
435.522	7.71
435.962	7.72
436.403	7.76
436.843	7.77
437.284	7.76
437.724	7.77
438.164	7.77
438.604	7.79
439.045	7.81
439.485	7.84
439.925	7.88
440.365	7.9
440.805	7.92
441.245	7.96
441.685	8
442.125	8.06
442.564	8.1
443.004	8.13
443.444	8.17
443.883	8.22
444.323	8.24
444.762	8.27
445.202	8.31
445.641	8.37
446.081	8.41
446.52	8.47
446.959	8.53
447.398	8.6
447.837	8.66
448.276	8.71
448.716	8.77
449.154	8.86
449.593	8.93
450.032	8.97
450.471	9
450.91	9.02
451.349	9.07
451.787	9.08
452.226	9.1
452.664	9.12
453.103	9.14
453.541	9.15
453.98	9.16
454.418	9.16
454.856	9.18
455.295	9.2
455.733	9.19
456.171	9.18
456.609	9.2
457.047	9.19
457.485	9.2
457.923	9.2
458.361	9.2
458.798	9.2
459.236	9.19
459.674	9.18
460.111	9.18
460.549	9.19
460.987	9.2
461.424	9.2
461.862	9.21
462.299	9.22
462.736	9.23
463.173	9.23
463.611	9.24
464.048	9.26
464.485	9.27
464.922	9.26
465.359	9.26
465.796	9.3
466.233	9.31
466.67	9.32
467.106	9.33
467.543	9.32
467.98	9.3
468.416	9.28
468.853	9.28
469.29	9.29
469.726	9.31
470.162	9.31
470.599	9.28
471.035	9.27
471.471	9.26
471.907	9.25
472.344	9.27
472.78	9.3
473.216	9.31
473.652	9.31
474.088	9.29
474.523	9.3
474.959	9.31
475.395	9.32
475.831	9.33
476.266	9.35
476.702	9.35
477.138	9.36
477.573	9.37
478.008	9.38
478.444	9.4
478.879	9.43
479.314	9.44
479.75	9.45
480.185	9.45
480.62	9.45
481.055	9.46
481.49	9.47
481.925	9.49
482.36	9.52
482.795	9.54
483.229	9.56
483.664	9.58
484.099	9.59
484.534	9.61
484.968	9.66
485.403	9.69
485.837	9.73
486.271	9.77
486.706	9.8
487.14	9.83
487.574	9.87
488.009	9.93
488.443	9.99
488.877	10.06
489.311	10.13
489.745	10.2
490.179	10.28
490.613	10.37
491.046	10.45
491.48	10.54
491.914	10.63
492.348	10.73
492.781	10.83
493.215	10.93
493.648	11.03
494.082	11.14
494.515	11.24
494.948	11.36
495.382	11.46
495.815	11.57
496.248	11.7
496.681	11.84
497.114	11.98
497.547	12.11
497.98	12.26
498.413	12.42
498.846	12.57
499.279	12.73
499.711	12.89
500.144	13.08
500.577	13.27
501.009	13.45
501.442	13.63
501.874	13.82
502.306	14.01
502.739	14.23
503.171	14.42
503.603	14.63
504.036	14.85
504.468	15.06
504.9	15.28
505.332	15.5
505.764	15.74
506.196	15.98
506.627	16.22
507.059	16.47
507.491	16.69
507.923	16.96
508.354	17.23
508.786	17.49
509.217	17.76
509.649	18.01
510.08	18.27
510.512	18.55
510.943	18.82
511.374	19.09
511.805	19.37
512.237	19.63
512.668	19.89
513.099	20.15
513.53	20.43
513.961	20.7
514.391	20.99
514.822	21.29
515.253	21.57
515.684	21.83
516.114	22.11
516.545	22.38
516.975	22.66
517.406	22.93
517.836	23.19
518.267	23.46
518.697	23.71
519.127	23.95
519.558	24.17
519.988	24.41
520.418	24.65
520.848	24.87
521.278	25.08
521.708	25.44
522.138	25.63
522.567	25.84
522.997	26.03
523.427	26.21
523.857	26.39
524.286	26.56
524.716	26.73
525.145	26.9
525.575	27.06
526.004	27.22
526.433	27.23
526.863	27.38
527.292	27.54
527.721	27.67
528.15	27.83
528.579	27.94
529.008	28.07
529.437	28.18
529.866	28.28
530.295	28.38
530.724	28.48
531.152	28.59
531.581	28.69
532.01	28.78
532.438	28.86
532.867	28.93
533.295	29.01
533.723	29.08
534.152	29.16
534.58	29.24
535.008	29.28
535.436	29.34
535.865	29.39
536.293	29.44
536.721	29.48
537.149	29.52
537.576	29.56
538.004	29.6
538.432	29.65
538.86	29.68
539.287	29.7
539.715	29.76
540.143	29.79
540.57	29.82
540.998	29.84
541.425	29.87
541.852	29.9
542.28	29.94
542.707	29.96
543.134	29.97
543.561	30
543.988	30.03
544.415	30.04
544.842	30.06
545.269	30.09
545.696	30.14
546.123	30.15
546.549	30.19
546.976	30.21
547.403	30.25
547.829	30.27
548.256	30.29
548.682	30.3
549.108	30.33
549.535	30.38
549.961	30.39
550.387	30.39
550.813	30.41
551.24	30.41
551.666	30.42
552.092	30.42
552.518	30.44
552.943	30.44
553.369	30.45
553.795	30.43
554.221	30.42
554.646	30.41
555.072	30.41
555.498	30.39
555.923	30.35
556.349	30.32
556.774	30.29
557.199	30.25
557.625	30.23
558.05	30.19
558.475	30.17
558.9	30.14
559.325	30.1
559.75	30.05
560.175	30
560.6	29.94
561.025	29.9
561.449	29.86
561.874	29.8
562.299	29.72
562.723	29.64
563.148	29.56
563.572	29.46
563.997	29.38
564.421	29.28
564.846	29.21
565.27	29.13
565.694	29.04
566.118	28.94
566.542	28.86
566.966	28.77
567.39	28.68
567.814	28.58
568.238	28.5
568.662	28.41
569.086	28.34
569.509	28.25
569.933	28.17
570.357	28.08
570.78	27.98
571.204	27.9
571.627	27.82
572.05	27.73
572.474	27.67
572.897	27.59
573.32	27.5
573.743	27.41
574.166	27.33
574.589	27.23
575.012	27.15
575.435	27.08
575.858	27
576.281	26.93
576.704	26.87
577.126	26.78
577.549	26.7
577.972	26.64
578.394	26.56
578.817	26.51
579.239	26.46
579.661	26.41
580.084	26.34
580.506	26.29
580.928	26.22
581.35	26.16
581.772	26.09
582.194	26.04
582.616	25.98
583.038	25.93
583.46	25.85
583.882	25.79
584.303	25.71
584.725	25.66
585.147	25.62
585.568	25.58
585.99	25.52
586.411	25.48
586.833	25.43
587.254	25.38
587.675	25.34
588.096	25.29
588.518	25.24
588.939	25.21
589.36	25.16
589.781	25.1
590.202	25.07
590.623	25.04
591.043	25
591.464	24.97
591.885	24.92
592.305	24.89
592.726	24.88
593.147	24.86
593.567	24.83
593.987	24.79
594.408	24.76
594.828	24.71
595.248	24.69
595.669	24.68
596.089	24.65
596.509	24.63
596.929	24.62
597.349	24.57
597.769	24.54
598.189	24.5
598.608	24.48
599.028	24.47
599.448	24.46
599.867	24.41
600.287	24.38
600.706	24.34
601.126	24.31
601.545	24.27
601.965	24.25
602.384	24.21
602.803	24.18
603.222	24.14
603.641	24.08
604.061	24.03
604.48	23.98
604.898	23.91
605.317	23.88
605.736	23.83
606.155	23.77
606.574	23.69
606.992	23.63
607.411	23.57
607.829	23.47
608.248	23.4
608.666	23.34
609.085	23.28
609.503	23.22
609.921	23.13
610.339	23.05
610.758	22.97
611.176	22.89
611.594	22.81
612.012	22.74
612.43	22.68
612.847	22.62
613.265	22.55
613.683	22.47
614.101	22.42
614.518	22.35
614.936	22.29
615.353	22.22
615.771	22.17
616.188	22.1
616.606	22.04
617.023	21.99
617.44	21.92
617.857	21.85
618.274	21.79
618.691	21.72
619.108	21.67
619.525	21.62
619.942	21.58
620.359	21.54
620.776	21.5
621.192	21.46
621.609	21.44
622.026	21.41
622.442	21.38
622.859	21.35
623.275	21.33
623.691	21.32
624.108	21.3
624.524	21.28
624.94	21.26
625.356	21.24
625.772	21.21
626.188	21.19
626.604	21.18
627.02	21.16
627.436	21.16
627.852	21.13
628.268	21.11
628.683	21.09
629.099	21.08
629.514	21.05
629.93	21.04
630.345	21.03
630.761	20.98
631.176	20.94
631.591	20.93
632.007	20.88
632.422	20.84
632.837	20.79
633.252	20.74
633.667	20.68
634.082	20.61
634.497	20.54
634.911	20.47
635.326	20.41
635.741	20.34
636.155	20.23
636.57	20.16
636.984	20.06
637.399	19.95
637.813	19.84
638.228	19.71
638.642	19.59
639.056	19.43
639.47	19.29
639.884	19.15
640.298	19
640.712	18.86
641.126	18.7
641.54	18.55
641.954	18.39
642.368	18.24
642.781	18.11
643.195	17.96
643.609	17.81
644.022	17.66
644.436	17.51
644.849	17.37
645.262	17.22
645.676	17.09
646.089	16.96
646.502	16.85
646.915	16.74
647.328	16.63
647.741	16.53
648.154	16.44
648.567	16.37
648.98	16.29
649.393	16.2
649.805	16.14
650.218	16.06
650.631	16
651.043	15.93
651.456	15.86
651.868	15.77
652.28	15.7
652.693	15.64
653.105	15.55
653.517	15.46
653.929	15.38
654.341	15.29
654.753	15.18
655.165	15.07
655.577	14.97
655.989	14.85
656.401	14.72
656.813	14.59
657.224	14.43
657.636	14.27
658.047	14.13
658.459	13.97
658.87	13.79
659.282	13.63
659.693	13.47
660.104	13.28
660.515	13.11
660.926	12.93
661.338	12.75
661.749	12.58
662.159	12.41
662.57	12.25
662.981	12.08
663.392	11.92
663.803	11.78
664.213	11.62
664.624	11.46
665.035	11.32
665.445	11.19
665.855	11.06
666.266	10.95
666.676	10.83
667.086	10.69
667.497	10.6
667.907	10.5
668.317	10.41
668.727	10.33
669.137	10.26
669.547	10.19
669.956	10.12
670.366	10.06
670.776	10
671.186	9.96
671.595	9.92
672.005	9.87
672.414	9.85
672.824	9.81
673.233	9.79
673.642	9.77
674.052	9.76
674.461	9.75
674.87	9.74
675.279	9.75
675.688	9.76
676.097	9.78
676.506	9.8
676.915	9.83
677.323	9.88
677.732	9.91
678.141	9.97
678.549	10.04
678.958	10.13
679.366	10.24
679.775	10.36
680.183	10.52
680.592	10.69
681	10.87
681.408	11.07
681.816	11.3
682.224	11.56
682.632	11.83
683.04	12.12
683.448	12.44
683.856	12.77
684.264	13.14
684.671	13.51
685.079	13.93
685.487	14.38
685.894	14.86
686.302	15.35
686.709	15.86
687.116	16.39
687.524	16.93
687.931	17.5
688.338	18.08
688.745	18.65
689.152	19.23
689.559	19.85
689.966	20.45
690.373	21.04
690.78	21.61
691.187	22.18
691.593	22.75
692	23.32
692.407	23.87
692.813	24.44
693.22	24.97
693.626	25.5
694.032	26.01
694.439	26.5
694.845	27
695.251	27.49
695.657	27.95
696.063	28.42
696.469	28.86
696.875	29.31
697.281	29.71
697.687	30.11
698.093	30.51
698.498	30.88
698.904	31.24
699.31	31.59
699.715	31.94
700.12	32.28
700.526	32.61
700.931	32.92
701.337	33.21
701.742	33.47
702.147	33.75
702.552	34.04
702.957	34.28
703.362	34.52
703.767	34.73
704.172	34.97
704.577	35.19
704.981	35.4
705.386	35.6
705.791	35.78
706.195	35.98
706.6	36.16
707.004	36.33
707.408	36.52
707.813	36.7
708.217	36.87
708.621	37.03
709.025	37.16
709.43	37.29
709.834	37.44
710.237	37.59
710.641	37.73
711.045	37.88
711.449	38.02
711.853	38.19
712.256	38.31
712.66	38.43
713.064	38.54
713.467	38.69
713.87	38.82
714.274	38.93
714.677	39.07
715.08	39.18
715.484	39.3
715.887	39.41
716.29	39.48
716.693	39.59
717.096	39.69
717.499	39.77
717.901	39.87
718.304	39.95
718.707	40.04
719.109	40.13
719.512	40.21
719.915	40.29
720.317	40.34
720.719	40.38
721.122	40.43
721.524	40.5
721.926	40.6
722.328	40.66
722.731	40.73
723.133	40.8
723.535	40.84
723.937	40.9
724.338	40.94
724.74	41.02
725.142	41.28
725.544	41.34
725.945	41.47
726.347	41.48
726.748	41.52
727.15	41.54
727.551	41.59
727.952	41.61
728.354	41.64
728.755	41.67
729.156	41.68
729.557	41.51
729.958	41.53
730.359	41.49
730.76	41.54
731.161	41.57
731.562	41.63
731.962	41.63
732.363	41.69
732.763	41.72
733.164	41.73
733.564	41.76
733.965	41.8
734.365	41.84
734.766	41.87
735.166	41.9
735.566	41.93
735.966	41.97
736.366	42
736.766	42
737.166	42.03
737.566	42.05
737.966	42.06
738.365	42.09
738.765	42.13
739.165	42.14
739.564	42.16
739.964	42.15
740.363	42.11
740.763	42.12
741.162	42.16
741.561	42.15
741.96	42.17
742.36	42.2
742.759	42.2
743.158	42.18
743.557	42.17
743.955	42.17
744.354	42.18
744.753	42.25
745.152	42.28
745.55	42.28
745.949	42.28
746.348	42.27
746.746	42.25
747.144	42.26
747.543	42.24
747.941	42.24
748.339	42.22
748.737	42.21
749.136	42.17
749.534	42.13
749.932	42.11
750.33	42.13
750.727	42.14
751.125	42.16
751.523	42.15
751.921	42.19
752.318	42.22
752.716	42.24
753.113	42.26
753.511	42.28
753.908	42.31
754.305	42.36
754.703	42.36
755.1	42.38
755.497	42.42
755.894	42.41
756.291	42.42
756.688	42.4
757.085	42.42
757.482	42.44
757.878	42.46
758.275	42.49
758.672	42.47
759.068	42.51
759.465	42.47
759.861	42.45
760.258	42.49
760.654	42.5
761.05	42.52
761.447	42.54
761.843	42.52
762.239	42.52
762.635	42.49
763.031	42.48
763.427	42.43
763.822	42.46
764.218	42.47
764.614	42.47
765.01	42.45
765.405	42.45
765.801	42.4
766.196	42.4
766.592	42.38
766.987	42.38
767.382	42.38
767.778	42.38
768.173	42.4
768.568	42.38
768.963	42.36
769.358	42.37
769.753	42.36
770.148	42.4
770.542	42.4
770.937	42.43
771.332	42.45
771.726	42.44
772.121	42.46
772.515	42.44
772.91	42.43
773.304	42.45
773.699	42.44
774.093	42.43
774.487	42.41
774.881	42.43
775.275	42.41
775.669	42.39
776.063	42.4
776.457	42.41
776.851	42.39
777.245	42.39
777.638	42.39
778.032	42.41
778.425	42.47
778.819	42.49
779.212	42.5
779.606	42.51
779.999	42.53
780.392	42.55
780.786	42.55
781.179	42.6
781.572	42.64
781.965	42.64
782.358	42.65
782.751	42.6
783.143	42.58
783.536	42.57
783.929	42.56
784.322	42.58
784.714	42.58
785.107	42.6
785.499	42.57
785.891	42.56
786.284	42.56
786.676	42.57
787.068	42.6
787.46	42.61
787.852	42.6
788.245	42.61
788.636	42.59
789.028	42.59
789.42	42.56
789.812	42.58
790.204	42.6
790.595	42.58
790.987	42.56
791.378	42.56
791.77	42.56
792.161	42.57
792.553	42.58
792.944	42.6
793.335	42.61
793.726	42.61
794.117	42.61
794.508	42.58
794.899	42.61
795.29	42.6
795.681	42.57
796.072	42.56
796.463	42.65
796.853	42.64
797.244	42.63
797.634	42.64
798.025	42.67
798.415	42.68
798.806	42.68
799.196	42.68
799.586	42.72
799.976	42.75
800.366	42.77
800.756	42.7
801.146	42.71
801.536	42.72
801.926	42.72
802.316	42.71
802.706	42.71
803.095	42.74
803.485	42.75
803.874	42.74
804.264	42.75
804.653	42.77
805.043	42.79
805.432	42.78
805.821	42.78
806.21	42.81
806.599	42.81
806.988	42.83
807.377	42.83
807.766	42.84
808.155	42.83
808.544	42.83
808.933	42.82
809.321	42.8
809.71	42.81
810.098	42.82
810.487	42.79
810.875	42.81
811.264	42.79
811.652	42.81
812.04	42.79
812.428	42.83
812.816	42.81
813.204	42.82
813.592	42.82
813.98	42.82
814.368	42.83
814.756	42.83
815.144	42.81
815.531	42.83
815.919	42.81
816.306	42.82
816.694	42.79
817.081	42.8
817.469	42.82
817.856	42.82
818.243	42.81
818.63	42.79
819.017	42.78
819.404	42.77
819.791	42.76
820.178	42.75
820.565	42.74
820.952	42.76
821.339	42.78
821.725	42.76
822.112	42.79
822.498	42.81
822.885	42.83
823.271	42.85
823.657	42.86
824.044	42.86
824.43	42.88
824.816	42.91
825.202	42.89
825.588	42.87
825.974	42.88
826.36	42.86
826.746	42.87
827.132	42.87
827.517	42.9
827.903	42.9
828.289	42.95
828.674	42.95
829.06	42.93
829.445	42.93
829.83	42.93
830.216	42.9
830.601	42.91
830.986	42.9
831.371	42.89
831.756	42.89
832.141	42.88
832.526	42.86
832.911	42.85
833.295	42.86
833.68	42.86
834.065	42.84
834.449	42.84
834.834	42.84
835.218	42.85
835.603	42.85
835.987	42.82
836.371	42.82
836.755	42.79
837.139	42.76
837.524	42.74
837.908	42.76
838.291	42.79
838.675	42.8
839.059	42.81
839.443	42.78
839.827	42.76
840.21	42.73
840.594	42.75
840.977	42.76
841.361	42.79
841.744	42.77
842.127	42.73
842.511	42.71
842.894	42.71
843.277	42.7
843.66	42.67
844.043	42.71
844.426	42.72
844.809	42.71
845.191	42.72
845.574	42.73
845.957	42.74
846.339	42.77
846.722	42.77
847.104	42.79
847.487	42.76
847.869	42.78
848.252	42.76
848.634	42.77
849.016	42.76
849.398	42.75
849.78	42.74
850.162	42.74
850.544	42.74
850.926	42.74
851.307	42.73
851.689	42.75
852.071	42.76
852.452	42.75
852.834	42.76
853.215	42.76
853.597	42.78
853.978	42.78
854.359	42.8
854.741	42.77
855.122	42.76
855.503	42.77
855.884	42.76
856.265	42.77
856.646	42.77
857.026	42.78
857.407	42.79
857.788	42.76
858.169	42.76
858.549	42.75
858.93	42.76
859.31	42.78
859.69	42.79
860.071	42.81
860.451	42.81
860.831	42.83
861.211	42.81
861.591	42.78
861.971	42.79
862.351	42.81
862.731	42.81
863.111	42.8
863.491	42.8
863.87	42.8
864.25	42.78
864.629	42.78
865.009	42.77
865.388	42.79
865.768	42.82
866.147	42.82
866.526	42.8
866.905	42.82
867.284	42.83
867.663	42.81
868.042	42.8
868.421	42.81
868.8	42.83
869.179	42.84
869.558	42.83
869.936	42.81
870.315	42.8
870.693	42.81
871.072	42.82
871.45	42.81
871.828	42.83
872.207	42.85
872.585	42.84
872.963	42.84
873.341	42.82
873.719	42.85
874.097	42.84
874.475	42.86
874.853	42.86
875.23	42.87
875.608	42.87
875.986	42.88
876.363	42.86
876.741	42.88
877.118	42.87
877.495	42.9
877.873	42.9
878.25	42.94
878.627	42.95
879.004	42.94
879.381	42.92
879.758	42.9
880.135	42.91
880.512	42.9
880.889	42.89
881.265	42.87
881.642	42.84
882.019	42.83
882.395	42.8
882.772	42.79
883.148	42.79
883.524	42.79
883.901	42.8
884.277	42.76
884.653	42.74
885.029	42.75
885.405	42.76
885.781	42.74
886.157	42.73
886.532	42.73
886.908	42.7
887.284	42.71
887.659	42.69
888.035	42.66
888.411	42.67
888.786	42.7
889.161	42.71
889.537	42.7
889.912	42.71
890.287	42.71
890.662	42.7
891.037	42.71
891.412	42.7
891.787	42.69
892.162	42.69
892.536	42.69
892.911	42.68
893.286	42.66
893.66	42.67
894.035	42.68
894.409	42.66
894.784	42.67
895.158	42.66
895.532	42.67
895.906	42.7
896.281	42.72
896.655	42.73
897.029	42.74
897.402	42.74
897.776	42.74
898.15	42.75
898.524	42.79
898.898	42.8
899.271	42.83
899.645	42.83
900.018	42.81
900.392	42.8
900.765	42.81
901.138	42.8
901.511	42.79
901.884	42.8
902.258	42.79
902.631	42.79
903.003	42.8
903.376	42.77
903.749	42.75
904.122	42.75
904.495	42.78
904.867	42.77
905.24	42.77
905.612	42.79
905.985	42.77
906.357	42.76
906.729	42.75
907.102	42.74
907.474	42.78
907.846	42.81
908.218	42.83
908.59	42.83
908.962	42.85
909.334	42.86
909.705	42.84
910.077	42.85
910.449	42.87
910.82	42.86
911.192	42.86
911.563	42.87
911.935	42.84
912.306	42.83
912.677	42.82
913.048	42.83
913.419	42.8
913.79	42.81
914.161	42.81
914.532	42.8
914.903	42.82
915.274	42.8
915.645	42.81
916.015	42.8
916.386	42.82
916.756	42.82
917.127	42.84
917.497	42.86
917.868	42.89
918.238	42.89
918.608	42.92
918.978	42.9
919.348	42.92
919.718	42.89
920.088	42.94
920.458	42.93
920.828	42.92
921.198	42.88
921.567	42.85
921.937	42.87
922.306	42.85
922.676	42.82
923.045	42.85
923.415	42.86
923.784	42.86
924.153	42.88
924.522	42.89
924.891	42.9
925.26	42.96
925.629	42.99
925.998	42.99
926.367	43.03
926.736	43.03
927.104	43.02
927.473	43
927.842	42.97
928.21	42.97
928.578	42.94
928.947	42.94
929.315	42.9
929.683	42.91
930.051	42.87
930.42	42.85
930.788	42.85
931.156	42.81
931.523	42.83
931.891	42.93
932.259	42.95
932.627	42.99
932.994	43.02
933.362	43.03
933.729	43.05
934.097	43.05
934.464	43.11
934.831	43.15
935.199	43.21
935.566	43.23
935.933	43.13
936.3	43.1
936.667	43.08
937.034	43.14
937.401	43.18
937.767	43.15
938.134	43.17
938.501	43.13
938.867	43.11
939.234	43.06
939.6	43.02
939.967	43.03
940.333	42.99
940.699	42.96
941.065	42.77
941.431	42.73
941.798	42.69
942.163	42.66
942.529	42.6
942.895	42.54
943.261	42.53
943.627	42.48
943.992	42.48
944.358	42.46
944.723	42.43
945.089	42.39
945.454	42.31
945.82	42.3
946.185	42.25
946.55	42.17
946.915	42.13
947.28	42.11
947.645	42.18
948.01	42.19
948.375	42.18
948.74	42.18
949.104	42.27
949.469	42.27
949.834	42.2
950.198	42.23
950.562	42.25
950.927	42.19
951.291	42.17
951.655	42.1
952.02	42.01
952.384	41.94
952.748	41.93
953.112	41.93
953.476	41.86
953.839	41.85
954.203	41.86
954.567	41.89
954.931	41.88
955.294	41.87
955.658	41.86
956.021	41.89
956.385	41.91
956.748	41.91
957.111	41.84
957.474	41.87
957.837	41.89
958.2	41.87
958.563	41.85
958.926	41.87
959.289	41.91
959.652	41.97
960.015	41.95
960.377	41.96
960.74	41.95
961.102	41.97
961.465	42.02
961.827	42.15
962.189	42.18
962.552	42.16
962.914	42.17
963.276	42.2
963.638	42.13
964	42.16
964.362	42.21
964.724	42.19
965.085	42.16
965.447	42.12
965.809	42.02
966.17	41.97
966.532	41.94
966.893	41.96
967.255	41.89
967.616	41.93
967.977	41.96
968.338	41.87
968.699	41.91
969.061	41.97
969.421	41.97
969.782	41.96
970.143	41.97
970.504	42.07
970.865	42.08
971.225	42.1
971.586	42.07
971.946	42.01
972.307	42.06
972.667	42
973.027	42.03
973.388	42.05
973.748	42.08
974.108	42.12
974.468	42.07
974.828	42.12
975.188	42.15
975.548	42.14
975.907	42.17
976.267	42.17
976.627	42.24
976.986	42.16
977.346	42.11
977.705	42.06
978.064	42.06
978.424	42.05
978.783	41.97
979.142	42.01
979.501	42.04
979.86	42.07
980.219	42.06
980.578	42.08
980.937	42.1
981.296	42.07
981.654	42.06
982.013	42.04
982.371	42.09
982.73	42.14
983.088	42.1
983.447	42.09
983.805	42.05
984.163	42.03
984.521	41.96
984.879	41.93
985.237	41.98
985.595	42.11
985.953	42.09
986.311	42.09
986.669	42.01
987.026	42.02
987.384	42.01
987.741	41.99
988.099	42.07
988.456	42.06
988.814	42.14
989.171	42.15
989.528	42.13
989.885	42.12
990.242	42.07
990.599	42.19
990.956	42.13
991.313	42.07
991.67	42.14
992.027	42.25
992.383	42.29
992.74	42.41
993.096	42.39
993.453	42.28
993.809	42.33
994.165	42.41
994.522	42.42
994.878	42.48
995.234	42.52
995.59	42.44
995.946	42.28
996.302	42.33
996.658	42.23
997.013	42.24
997.369	42.36
997.725	42.34
998.08	42.34
998.436	42.27
998.791	42.33
999.147	42.4
999.502	42.61
999.857	42.52
1000.212	42.49
1000.567	42.5
1000.922	42.44
1001.277	42.38
1001.632	42.25
1001.987	42.27
1002.342	42.14
1002.696	42.06
1003.051	42.16
1003.406	42.16
1003.76	42.24
1004.114	42.2
1004.469	42.28
1004.823	42.61
1005.177	42.6
1005.531	42.69
1005.885	42.66
1006.239	42.89
1006.593	43.11
1006.947	43.02
1007.301	42.88
1007.655	42.9
1008.008	42.85
1008.362	42.85
1008.715	42.63
1009.069	42.7
1009.422	42.87
1009.776	42.83
1010.129	42.82
1010.482	42.61
1010.835	42.64
1011.188	42.58
1011.541	42.67
1011.894	42.85
1012.247	42.7
1012.6	42.84
1012.952	42.87
1013.305	42.83
1013.657	42.95
1014.01	42.92
1014.362	42.85
1014.715	43.08
1015.067	43.42
1015.419	43.52
1015.771	43.41
1016.123	43.6
1016.475	43.41
1016.827	43.33
1017.179	43.53
1017.531	43.53
1017.883	43.53
1018.234	43.88
1018.586	43.73
1018.938	43.97
1019.289	43.85
1019.64	43.82
1019.992	43.73
1020.343	43.63
1020.694	43.66
1021.045	43.41
1021.396	43.29
1021.747	43.36
1022.098	43.2
1022.449	43.09
1022.8	42.7
1023.151	42.72
1023.501	43
1023.852	42.96
1024.202	43.05
1024.553	43.07
1024.903	43.29
1025.253	43.69
1025.604	43.68
1025.954	43.25
1026.304	43.35
1026.654	43.28
1027.004	43.19
1027.354	43.01
1027.703	42.99
1028.053	42.95
1028.403	42.89
1028.753	42.44
1029.102	42.13
1029.452	42.11
1029.801	42.5
1030.15	42.32
1030.499	42.16
897.758	2070.24
901.051	2069.86
904.343	2060.2
907.636	2105.33
910.928	2048.91
914.22	2041.66
917.511	2010.3
920.803	1924.8
924.094	1914.5
927.384	1870.93
930.675	1782.02
933.965	1768.68
937.255	1670.37
940.544	1602.96
943.834	1518.03
947.123	1502.94
950.411	1415.27
953.7	1384.03
956.988	1305.92
960.276	1250.33
963.563	1229.9
966.851	1189.41
970.138	1180.54
973.424	1139.77
976.711	1147.95
979.997	1087.29
983.283	1083.91
986.568	1061.18
989.853	1025.23
993.138	1009.89
996.423	970.37
999.708	943.48
1002.992	934.69
1006.275	887.85
1009.559	879.29
1012.842	845.83
1016.125	822.14
1019.408	807.63
1022.69	795.62
1025.972	781.64
1029.254	760.76
1032.536	748.33
1035.817	731.14
1039.098	720.41
1042.379	704.63
1045.659	696.19
1048.939	680.3
1052.219	667.48
1055.498	653.13
1058.778	639.63
1062.057	622.13
1065.335	614.12
1068.614	605.85
1071.892	600.79
1075.17	579.04
1078.447	568.82
1081.724	565.2
1085.001	559.06
1088.278	547.46
1091.554	537.17
1094.83	535.77
1098.106	533.67
1101.382	528.67
1104.657	525.1
1107.932	515.72
1111.206	519.36
1114.481	505.25
1117.755	499.78
1121.029	496.62
1124.302	497.53
1127.575	486.91
1130.848	480.95
1134.121	475.51
1137.393	473.91
1140.665	462.85
1143.937	460.83
1147.208	455.44
1150.48	456.75
1153.75	449.91
1157.021	441.43
1160.291	440.77
1163.561	437.18
1166.831	435.93
1170.101	433.84
1173.37	430.33
1176.639	432.12
1179.907	426.73
1183.176	423.75
1186.444	422.86
1189.711	422.83
1192.979	422.7
1196.246	418.57
1199.513	419.72
1202.78	418.33
1206.046	417.46
1209.312	414.46
1212.578	414.95
1215.843	419.12
1219.108	415.28
1222.373	424.36
1225.638	427.96
1228.902	435.49
1232.166	434.74
1235.43	439.36
1238.693	445.3
1241.956	446.22
1245.219	455.34
1248.482	454.05
1251.744	453.95
1255.006	456.54
1258.268	444.28
1261.529	439.18
1264.79	433.85
1268.051	432.59
1271.312	426.81
1274.572	420.88
1277.832	417.14
1281.092	408.16
1284.351	405.52
1287.61	404.96
1290.869	398.75
1294.128	395.74
1297.386	395.71
1300.644	391.27
1303.902	393.15
1307.159	390.25
1310.416	391.52
1313.673	391.76
1316.93	396.22
1320.186	396.74
1323.442	398.46
1326.697	406.07
1329.953	406.96
1333.208	409.54
1336.463	414.58
1339.717	415.56
1342.972	420.35
1346.226	423.12
1349.479	423.32
1352.733	427.5
1355.986	428.09
1359.238	428.01
1362.491	431.17
1365.743	436.14
1368.995	435.8
1372.247	433.79
1375.498	434.59
1378.749	441.34
1382	435.49
1385.251	439.33
1388.501	434.15
1391.751	439.69
1395	436.28
1398.25	433.62
1401.499	432.11
1404.748	432.51
1407.996	429.52
1411.244	426.91
1414.492	425.03
1417.74	422.5
1420.987	414.65
1424.234	418.16
1427.481	409.22
1430.728	411.86
1433.974	405.62
1437.22	402.34
1440.465	401.16
1443.711	400.13
1446.956	398.45
1450.201	390.32
1453.445	387.23
1456.689	387.03
1459.933	379.26
1463.177	378.39
1466.42	370.14
1469.663	366.92
1472.906	365.07
1476.148	354.44
1479.391	348.96
1482.633	344.46
1485.874	340.65
1489.115	338.43
1492.356	331.62
1495.597	330.6
1498.838	325.07
1502.078	323.28
1505.318	320.91
1508.557	320.65
1511.797	321.34
1515.036	319.18
1518.274	318.65
1521.513	313.97
1524.751	313.33
1527.989	313.73
1531.227	311.97
1534.464	313.53
1537.701	310.06
1540.938	309.3
1544.174	304.5
1547.41	302.89
1550.646	301.49
1553.882	301.69
1557.117	298.65
1560.352	295.71
1563.587	294.55
1566.821	292.28
1570.055	287.77
1573.289	285.82
1576.523	285.47
1579.756	283.51
1582.989	281.64
1586.222	281.3
1589.454	278.23
1592.686	280.23
1595.918	279.61
1599.15	278.71
1602.381	278.46
1605.612	278.48
1608.843	280.52
1612.073	279.6
1615.303	280.89
1618.533	281.72
1621.762	280.33
1624.992	280.87
1628.221	280.74
1631.449	280.52
1634.678	279.12
1637.906	280.87
1641.134	280.8
1644.361	280
1647.588	281.11
1650.815	279.76
1654.042	277.62
1657.269	280.08
1660.495	280.34
1663.72	277.76
1666.946	279.24
1670.171	280.3
1673.396	279.61
1676.621	279.11
1679.845	278.93
1683.069	278.51
1686.293	280.8
1689.517	282.83
1692.74	282.17
1695.963	283.71
1699.185	288.29
1702.408	287.8
1705.63	288.92
1708.852	290.33
1712.073	291.24
1715.294	291.93
1718.515	293.11
1721.736	292.45
1724.956	293.29
1728.176	293.22
1731.396	295.82
1734.616	294.63
1737.835	295.74
1741.054	293.52
1744.272	294.58
1747.491	298.42
1750.709	298.73
1753.927	299.67
1757.144	298.57
1760.361	301.12
1763.578	300.82
1766.795	299.87
1770.011	301.8
1773.227	302.38
1776.443	306.64
1779.658	308.57
1782.874	306.62
1786.089	308.67
1789.303	309.72
1792.518	313.65
1795.732	312.55
1798.945	317.32
1802.159	317.23
1805.372	318.77
1808.585	324.72
1811.797	326.35
1815.01	325.56
1818.222	328.82
1821.434	330.22
1824.645	331.76
1827.856	337.61
1831.067	341.83
1834.278	338.24
1837.488	341.42
1840.698	344.44
1843.908	340.52
1847.117	342.61
1850.326	345.45
1853.535	344.48
1856.744	351.4
1859.952	350.83
1863.16	350.14
1866.368	346.97
1869.575	355.01
1872.782	348.95
1875.989	347.58
1879.196	346.96
1882.402	345.8
1885.608	347.92
1888.814	350.59
1892.019	349.8
1895.224	349.85
1898.429	346.9
1901.634	350.51
1904.838	349.99
1908.042	355.58
1911.246	357.9
1914.449	360.52
1917.652	360.3
1920.855	360
1924.058	358.42
1927.26	356.88
1930.462	359.73
1933.664	364.95
1936.865	361.49
1940.066	362.3
1943.267	359.28
1946.467	358.6
1949.668	361.59
1952.868	366.16
1956.067	365.18
1959.267	366.07
1962.466	367.16
1965.665	364.58
1968.863	365.16
1972.061	369.77
1975.259	372.72
1978.457	376.67
1981.654	378.83
1984.852	379.65
1988.048	377.98
1991.245	381.2
1994.441	387.01
1997.637	388.73
2000.833	395.94
2004.028	400.51
2007.223	403.47
2010.418	408.09
2013.613	414.04
2016.807	418.88
2020.001	421.22
2023.194	427.71
2026.388	437.54
2029.581	445.05
2032.774	450.62
2035.966	458.67
2039.158	460.93
2042.35	470.11
2045.542	471.03
2048.733	477.2
2051.924	483.67
2055.115	491.84
2058.306	492.34
2061.496	499.26
2064.686	498.88
2067.875	507.29
2071.065	508.91
2074.254	505.78
2077.442	510.48
2080.631	514.11
2083.819	520.53
2087.007	519.54
2090.195	526.04
2093.382	530.5
2096.569	524.62
2099.756	534.35
2102.942	534.68
2106.128	541.34
2109.314	554.54
2112.5	552.42
2115.685	563.21
2118.87	563.85
2122.055	577
2125.239	582.19
2128.424	590.29
2131.608	594.72
2134.791	601.95
2137.974	606.18
2141.157	607.79
2144.34	607.67
2147.523	617.67
2150.705	613.64
2153.887	618.3
2157.068	619.9
2160.25	612.49
2163.431	614.35
2166.611	620.7
2169.792	634.77
2172.972	640.28
2176.152	641.9
2179.331	652.36
2182.511	663.96
2185.69	672.78
2188.868	686.84
2192.047	688.86
2195.225	709.22
2198.403	727.33
2201.58	741.39
2204.758	753.01
2207.935	770.22
2211.111	785.64
2214.288	794.72
2217.464	796.99
2220.64	805.84
2223.815	818.72
2226.991	850.13
2230.166	853.99
2233.34	870.87
2236.515	883.79
2239.689	884.88
2242.863	889.6
2246.036	918.23
2249.209	906.48
2252.382	920.9
2255.555	952.34
2258.727	953.6
2261.9	959.36
2265.071	968.24
2268.243	981.88
2271.414	994.52
2274.585	1020.23
2277.756	1029.65
2280.926	1034.47
2284.096	1058.25
2287.266	1084.4
2290.436	1093.1
2293.605	1119.5
2296.774	1157.34
2299.942	1191.47
2303.111	1200.37
2306.279	1230.19
2309.447	1244.19
2312.614	1277.63
2315.781	1314.03
2318.948	1378.85
2322.115	1354.83
2325.281	1425.21
2328.447	1395.82
2331.613	1451.87
2334.779	1436.61
2337.944	1497.77
2341.109	1515.94
2344.274	1554.98
2347.438	1614.5
2350.602	1616.67
2353.766	1662.8
2356.929	1687.47
2360.092	1674.94
2363.255	1803.94
2366.418	1795.64
2369.58	1837.62
2372.742	1946.07
2375.904	1991.16
2379.066	1980.28
2382.227	1934.1
2385.388	2098.82
2388.548	2105.84
2391.709	2136.33
2394.869	2386.82
2398.029	2267.51
2401.188	2335.54
2404.347	2317.22
2407.506	2288.54
2410.665	2356.64
2413.823	2500.2
2416.981	2650.74
2420.139	2554.06
2423.296	2524.17
2426.453	2637.42
2429.61	2529.52
2432.767	2661.18
2435.923	2641.28
2439.079	2869.41
2442.235	2905.08
2445.391	2869.15
2448.546	2859.27
2451.701	2776.74
2454.855	2783.92
2458.009	2955.86
2461.163	3063.32
2464.317	3180.23
2467.471	3266.1
2470.624	3255.75
2473.777	3180.16
2476.929	3105.14
2480.082	3029.03
2483.234	2981.05
2486.385	3118.61
2489.537	3131.07
2492.688	3256.96
2495.839	3157.11
2498.989	3098.09
2502.14	3112.87
2505.29	3156.97
2508.439	3212.08
2511.589	3198.92
2514.738	3474.74
2517.887	3406.37
2521.035	3617.18
2524.183	3631.89
2527.331	3660.31
2530.479	3666.88
2533.627	3686.22
