Data from C_3_DIV_IL_4N_Splice17_14-14-56-079.txt Node
Date: Sat Mar 07 14:14:56 EST 2020
User: sa697716
Spectrometer: NQ5500242
Trigger mode: 0
Integration Time (sec): 1.450000E-1
Scans to average: 20
Nonlinearity correction enabled: false
Boxcar width: 5
Storing dark spectrum: false
XAxis mode: Wavelengths
Number of Pixels in Spectrum: 512
>>>>>Begin Spectral Data<<<<<
187.83	104.69
188.298	123.02
188.766	113.92
189.233	114.51
189.701	101.44
190.169	113.53
190.636	150.12
191.104	162.81
191.571	186.56
192.039	60.77
192.506	-44.5
192.974	186.73
193.441	265.97
193.908	151.1
194.375	162.4
194.842	80.88
195.31	50.71
195.777	83.39
196.244	54.41
196.711	58.66
197.177	60
197.644	61.69
198.111	60.74
198.578	60.99
199.045	61.93
199.511	61.95
199.978	62.06
200.445	62.37
200.911	62.56
201.378	62.6
201.844	62.61
202.31	62.52
202.777	62.41
203.243	62.69
203.709	62.64
204.176	61.77
204.642	61.12
205.108	61.1
205.574	60.75
206.04	60.18
206.506	59.58
206.972	59.41
207.438	58.58
207.903	57.52
208.369	56.47
208.835	55.13
209.301	54.28
209.766	53.03
210.232	51.54
210.697	50.03
211.163	48.96
211.628	47.79
212.094	46.23
212.559	45.27
213.024	44.24
213.49	43.18
213.955	42.34
214.42	41.25
214.885	40.28
215.35	38.7
215.815	36.86
216.28	34.38
216.745	31.83
217.21	29.43
217.675	27.1
218.14	25.05
218.604	23.27
219.069	21.71
219.534	20.38
219.998	19.3
220.463	18.43
220.927	17.65
221.392	17.04
221.856	16.53
222.32	16.11
222.785	15.7
223.249	15.32
223.713	15
224.177	14.72
224.642	14.47
225.106	14.17
225.57	13.9
226.034	13.68
226.497	13.45
226.961	13.23
227.425	13
227.889	12.81
228.353	12.62
228.816	12.43
229.28	12.25
229.744	12.08
230.207	11.92
230.671	11.77
231.134	11.62
231.597	11.48
232.061	11.35
232.524	11.22
232.987	11.1
233.45	10.98
233.914	10.87
234.377	10.75
234.84	10.63
235.303	10.54
235.766	10.46
236.229	10.35
236.691	10.26
237.154	10.16
237.617	10.07
238.08	9.98
238.542	9.88
239.005	9.8
239.468	9.71
239.93	9.64
240.393	9.55
240.855	9.45
241.317	9.37
241.78	9.29
242.242	9.2
242.704	9.13
243.166	9.06
243.629	8.99
244.091	8.92
244.553	8.84
245.015	8.76
245.477	8.68
245.939	8.63
246.4	8.56
246.862	8.49
247.324	8.43
247.786	8.37
248.247	8.3
248.709	8.23
249.17	8.16
249.632	8.1
250.093	8.05
250.555	8
251.016	7.95
251.477	7.89
251.939	7.85
252.4	7.8
252.861	7.75
253.322	7.71
253.783	7.68
254.244	7.64
254.705	7.6
255.166	7.56
255.627	7.52
256.088	7.48
256.549	7.45
257.009	7.41
257.47	7.38
257.931	7.33
258.391	7.29
258.852	7.24
259.312	7.2
259.773	7.16
260.233	7.12
260.694	7.08
261.154	7.03
261.614	7
262.074	6.96
262.534	6.91
262.994	6.88
263.455	6.85
263.915	6.82
264.374	6.8
264.834	6.78
265.294	6.75
265.754	6.74
266.214	6.72
266.673	6.7
267.133	6.68
267.593	6.67
268.052	6.66
268.512	6.65
268.971	6.63
269.431	6.62
269.89	6.6
270.349	6.59
270.809	6.57
271.268	6.56
271.727	6.54
272.186	6.52
272.645	6.51
273.104	6.49
273.563	6.47
274.022	6.45
274.481	6.43
274.94	6.42
275.399	6.4
275.857	6.39
276.316	6.37
276.775	6.36
277.233	6.35
277.692	6.33
278.15	6.31
278.609	6.31
279.067	6.3
279.525	6.29
279.984	6.27
280.442	6.25
280.9	6.24
281.358	6.22
281.816	6.21
282.274	6.2
282.732	6.18
283.19	6.17
283.648	6.15
284.106	6.13
284.564	6.12
285.021	6.11
285.479	6.1
285.937	6.09
286.394	6.09
286.852	6.08
287.309	6.06
287.767	6.04
288.224	6.02
288.682	6.01
289.139	5.99
289.596	5.97
290.053	5.95
290.511	5.93
290.968	5.9
291.425	5.87
291.882	5.85
292.339	5.83
292.796	5.82
293.252	5.8
293.709	5.78
294.166	5.76
294.623	5.75
295.079	5.73
295.536	5.72
295.992	5.7
296.449	5.68
296.905	5.67
297.362	5.66
297.818	5.64
298.274	5.62
298.731	5.61
299.187	5.58
299.643	5.57
300.099	5.56
300.555	5.54
301.011	5.54
301.467	5.53
301.923	5.51
302.379	5.49
302.835	5.49
303.291	5.47
303.746	5.46
304.202	5.46
304.658	5.46
305.113	5.44
305.569	5.43
306.024	5.43
306.479	5.42
306.935	5.42
307.39	5.42
307.845	5.41
308.301	5.42
308.756	5.41
309.211	5.41
309.666	5.41
310.121	5.41
310.576	5.41
311.031	5.41
311.486	5.4
311.94	5.4
312.395	5.4
312.85	5.39
313.305	5.38
313.759	5.38
314.214	5.38
314.668	5.36
315.123	5.35
315.577	5.35
316.032	5.34
316.486	5.34
316.94	5.33
317.394	5.31
317.849	5.29
318.303	5.28
318.757	5.27
319.211	5.26
319.665	5.25
320.119	5.23
320.572	5.21
321.026	5.21
321.48	5.19
321.934	5.16
322.387	5.15
322.841	5.14
323.295	5.13
323.748	5.11
324.202	5.1
324.655	5.08
325.108	5.07
325.562	5.07
326.015	5.06
326.468	5.05
326.921	5.05
327.374	5.04
327.827	5.04
328.28	5.03
328.733	5.03
329.186	5.02
329.639	5.03
330.092	5.02
330.545	5.02
330.997	5.01
331.45	5.02
331.903	5.02
332.355	5.03
332.808	5.03
333.26	5.03
333.713	5.03
334.165	5.03
334.617	5.03
335.069	5.03
335.522	5.02
335.974	5.02
336.426	5
336.878	5
337.33	4.99
337.782	4.99
338.234	5
338.686	4.99
339.137	4.99
339.589	4.97
340.041	4.97
340.493	4.96
340.944	4.94
341.396	4.95
341.847	4.93
342.299	4.91
342.75	4.89
343.201	4.88
343.653	4.86
344.104	4.84
344.555	4.83
345.006	4.81
345.457	4.8
345.908	4.8
346.359	4.79
346.81	4.78
347.261	4.77
347.712	4.76
348.163	4.75
348.613	4.75
349.064	4.74
349.515	4.73
349.965	4.74
350.416	4.72
350.866	4.71
351.317	4.69
351.767	4.69
352.217	4.69
352.668	4.68
353.118	4.68
353.568	4.67
354.018	4.67
354.468	4.68
354.918	4.67
355.368	4.68
355.818	4.69
356.268	4.69
356.718	4.69
357.168	4.69
357.617	4.7
358.067	4.7
358.517	4.71
358.966	4.71
359.416	4.72
359.865	4.73
360.315	4.72
360.764	4.73
361.213	4.71
361.663	4.72
362.112	4.72
362.561	4.73
363.01	4.73
363.459	4.71
363.908	4.71
364.357	4.71
364.806	4.7
365.255	4.71
365.703	4.72
366.152	4.73
366.601	4.74
367.05	4.74
367.498	4.74
367.947	4.74
368.395	4.76
368.844	4.76
369.292	4.76
369.74	4.77
370.189	4.78
370.637	4.78
371.085	4.78
371.533	4.8
371.981	4.82
372.429	4.83
372.877	4.85
373.325	4.86
373.773	4.88
374.221	4.9
374.669	4.91
375.116	4.92
375.564	4.93
376.012	4.95
376.459	4.95
376.907	4.97
377.354	4.99
377.801	5.01
378.249	5.02
378.696	5.04
379.143	5.06
379.591	5.09
380.038	5.1
380.485	5.12
380.932	5.15
381.379	5.18
381.826	5.21
382.273	5.23
382.72	5.25
383.166	5.27
383.613	5.29
384.06	5.31
384.506	5.33
384.953	5.36
385.4	5.4
385.846	5.44
386.292	5.46
386.739	5.48
387.185	5.51
387.631	5.54
388.078	5.58
388.524	5.6
388.97	5.63
389.416	5.67
389.862	5.7
390.308	5.73
390.754	5.76
391.2	5.8
391.645	5.84
392.091	5.87
392.537	5.91
392.983	5.95
393.428	6
393.874	6.03
394.319	6.08
394.765	6.1
395.21	6.12
395.655	6.14
396.101	6.17
396.546	6.2
396.991	6.23
397.436	6.26
397.881	6.3
398.326	6.33
398.771	6.37
399.216	6.4
399.661	6.44
400.106	6.49
400.551	6.52
400.995	6.55
401.44	6.58
401.885	6.6
402.329	6.62
402.774	6.64
403.218	6.67
403.663	6.7
404.107	6.72
404.551	6.74
404.995	6.75
405.44	6.76
405.884	6.78
406.328	6.8
406.772	6.82
407.216	6.84
407.66	6.87
408.104	6.86
408.547	6.86
408.991	6.88
409.435	6.89
409.879	6.9
410.322	6.94
410.766	6.96
411.209	6.99
411.653	7.01
412.096	7.03
412.54	7.05
412.983	7.07
413.426	7.12
413.869	7.14
414.312	7.18
414.756	7.21
415.199	7.23
415.642	7.25
416.085	7.27
416.527	7.29
416.97	7.29
417.413	7.31
417.856	7.31
418.298	7.31
418.741	7.31
419.184	7.31
419.626	7.3
420.069	7.31
420.511	7.32
420.953	7.33
421.396	7.33
421.838	7.32
422.28	7.32
422.722	7.36
423.164	7.36
423.606	7.37
424.048	7.37
424.49	7.38
424.932	7.38
425.374	7.38
425.816	7.35
426.258	7.34
426.699	7.33
427.141	7.31
427.582	7.29
428.024	7.29
428.465	7.3
428.907	7.3
429.348	7.28
429.789	7.26
430.231	7.27
430.672	7.29
431.113	7.31
431.554	7.34
431.995	7.35
432.436	7.36
432.877	7.36
433.318	7.36
433.759	7.37
434.2	7.41
434.64	7.42
435.081	7.42
435.522	7.42
435.962	7.42
436.403	7.44
436.843	7.45
437.284	7.44
437.724	7.44
438.164	7.44
438.604	7.44
439.045	7.42
439.485	7.43
439.925	7.44
440.365	7.44
440.805	7.45
441.245	7.45
441.685	7.48
442.125	7.51
442.564	7.53
443.004	7.53
443.444	7.54
443.883	7.56
444.323	7.56
444.762	7.58
445.202	7.59
445.641	7.62
446.081	7.63
446.52	7.62
446.959	7.63
447.398	7.65
447.837	7.68
448.276	7.69
448.716	7.7
449.154	7.73
449.593	7.75
450.032	7.76
450.471	7.75
450.91	7.75
451.349	7.75
451.787	7.75
452.226	7.74
452.664	7.74
453.103	7.74
453.541	7.72
453.98	7.73
454.418	7.7
454.856	7.7
455.295	7.67
455.733	7.64
456.171	7.64
456.609	7.62
457.047	7.59
457.485	7.57
457.923	7.56
458.361	7.54
458.798	7.52
459.236	7.52
459.674	7.5
460.111	7.5
460.549	7.5
460.987	7.5
461.424	7.5
461.862	7.5
462.299	7.51
462.736	7.5
463.173	7.5
463.611	7.49
464.048	7.48
464.485	7.48
464.922	7.48
465.359	7.49
465.796	7.47
466.233	7.47
466.67	7.47
467.106	7.48
467.543	7.47
467.98	7.48
468.416	7.48
468.853	7.48
469.29	7.48
469.726	7.49
470.162	7.49
470.599	7.5
471.035	7.5
471.471	7.5
471.907	7.49
472.344	7.5
472.78	7.51
473.216	7.51
473.652	7.52
474.088	7.51
474.523	7.51
474.959	7.51
475.395	7.5
475.831	7.51
476.266	7.52
476.702	7.51
477.138	7.52
477.573	7.51
478.008	7.51
478.444	7.5
478.879	7.51
479.314	7.49
479.75	7.48
480.185	7.46
480.62	7.45
481.055	7.44
481.49	7.43
481.925	7.42
482.36	7.4
482.795	7.39
483.229	7.39
483.664	7.38
484.099	7.38
484.534	7.38
484.968	7.39
485.403	7.39
485.837	7.38
486.271	7.39
486.706	7.4
487.14	7.4
487.574	7.41
488.009	7.42
488.443	7.42
488.877	7.43
489.311	7.45
489.745	7.46
490.179	7.48
490.613	7.51
491.046	7.52
491.48	7.55
491.914	7.58
492.348	7.62
492.781	7.65
493.215	7.69
493.648	7.73
494.082	7.76
494.515	7.79
494.948	7.82
495.382	7.86
495.815	7.91
496.248	7.95
496.681	7.98
497.114	8.03
497.547	8.08
497.98	8.13
498.413	8.18
498.846	8.25
499.279	8.32
499.711	8.38
500.144	8.46
500.577	8.54
501.009	8.61
501.442	8.69
501.874	8.78
502.306	8.86
502.739	8.96
503.171	9.07
503.603	9.16
504.036	9.27
504.468	9.37
504.9	9.47
505.332	9.59
505.764	9.7
506.196	9.82
506.627	9.94
507.059	10.06
507.491	10.19
507.923	10.32
508.354	10.48
508.786	10.62
509.217	10.77
509.649	10.93
510.08	11.09
510.512	11.25
510.943	11.42
511.374	11.6
511.805	11.78
512.237	11.95
512.668	12.13
513.099	12.29
513.53	12.46
513.961	12.65
514.391	12.83
514.822	13.03
515.253	13.22
515.684	13.4
516.114	13.6
516.545	13.79
516.975	14.01
517.406	14.22
517.836	14.42
518.267	14.63
518.697	14.83
519.127	15.03
519.558	15.22
519.988	15.44
520.418	15.64
520.848	15.83
521.278	16.02
521.708	16.23
522.138	16.41
522.567	16.57
522.997	16.74
523.427	16.92
523.857	17.09
524.286	17.25
524.716	17.39
525.145	17.55
525.575	17.7
526.004	17.84
526.433	17.97
526.863	18.11
527.292	18.26
527.721	18.4
528.15	18.52
528.579	18.63
529.008	18.75
529.437	18.86
529.866	18.96
530.295	19.06
530.724	19.16
531.152	19.24
531.581	19.33
532.01	19.41
532.438	19.49
532.867	19.57
533.295	19.64
533.723	19.7
534.152	19.77
534.58	19.84
535.008	19.88
535.436	19.94
535.865	19.99
536.293	20.02
536.721	20.06
537.149	20.09
537.576	20.12
538.004	20.16
538.432	20.18
538.86	20.21
539.287	20.22
539.715	20.26
540.143	20.26
540.57	20.28
540.998	20.29
541.425	20.31
541.852	20.32
542.28	20.33
542.707	20.35
543.134	20.36
543.561	20.39
543.988	20.41
544.415	20.42
544.842	20.42
545.269	20.45
545.696	20.48
546.123	20.5
546.549	20.54
546.976	20.56
547.403	20.58
547.829	20.61
548.256	20.64
548.682	20.66
549.108	20.69
549.535	20.75
549.961	20.75
550.387	20.77
550.813	20.79
551.24	20.8
551.666	20.82
552.092	20.82
552.518	20.83
552.943	20.82
553.369	20.81
553.795	20.79
554.221	20.76
554.646	20.75
555.072	20.73
555.498	20.7
555.923	20.67
556.349	20.61
556.774	20.57
557.199	20.52
557.625	20.48
558.05	20.43
558.475	20.38
558.9	20.34
559.325	20.29
559.75	20.24
560.175	20.18
560.6	20.11
561.025	20.05
561.449	19.98
561.874	19.91
562.299	19.83
562.723	19.75
563.148	19.67
563.572	19.57
563.997	19.47
564.421	19.36
564.846	19.26
565.27	19.15
565.694	19.07
566.118	18.95
566.542	18.85
566.966	18.74
567.39	18.62
567.814	18.49
568.238	18.37
568.662	18.25
569.086	18.14
569.509	18.03
569.933	17.92
570.357	17.79
570.78	17.68
571.204	17.56
571.627	17.45
572.05	17.34
572.474	17.25
572.897	17.17
573.32	17.08
573.743	17
574.166	16.91
574.589	16.82
575.012	16.73
575.435	16.65
575.858	16.57
576.281	16.5
576.704	16.44
577.126	16.38
577.549	16.3
577.972	16.24
578.394	16.17
578.817	16.11
579.239	16.07
579.661	16.02
580.084	15.99
580.506	15.94
580.928	15.9
581.35	15.85
581.772	15.78
582.194	15.73
582.616	15.68
583.038	15.63
583.46	15.58
583.882	15.52
584.303	15.47
584.725	15.42
585.147	15.36
585.568	15.31
585.99	15.27
586.411	15.23
586.833	15.19
587.254	15.14
587.675	15.1
588.096	15.06
588.518	15.03
588.939	15
589.36	14.97
589.781	14.96
590.202	14.92
590.623	14.89
591.043	14.86
591.464	14.84
591.885	14.83
592.305	14.8
592.726	14.78
593.147	14.75
593.567	14.73
593.987	14.71
594.408	14.67
594.828	14.65
595.248	14.64
595.669	14.62
596.089	14.59
596.509	14.56
596.929	14.55
597.349	14.53
597.769	14.52
598.189	14.48
598.608	14.47
599.028	14.45
599.448	14.43
599.867	14.39
600.287	14.36
600.706	14.33
601.126	14.29
601.545	14.25
601.965	14.22
602.384	14.17
602.803	14.12
603.222	14.08
603.641	14.03
604.061	13.98
604.48	13.94
604.898	13.88
605.317	13.84
605.736	13.79
606.155	13.75
606.574	13.7
606.992	13.65
607.411	13.61
607.829	13.52
608.248	13.45
608.666	13.4
609.085	13.35
609.503	13.31
609.921	13.25
610.339	13.2
610.758	13.14
611.176	13.08
611.594	13.03
612.012	12.97
612.43	12.94
612.847	12.9
613.265	12.85
613.683	12.79
614.101	12.74
614.518	12.69
614.936	12.64
615.353	12.58
615.771	12.54
616.188	12.49
616.606	12.45
617.023	12.4
617.44	12.36
617.857	12.33
618.274	12.3
618.691	12.26
619.108	12.23
619.525	12.19
619.942	12.16
620.359	12.12
620.776	12.1
621.192	12.06
621.609	12.06
622.026	12.04
622.442	12.01
622.859	11.98
623.275	11.96
623.691	11.94
624.108	11.93
624.524	11.91
624.94	11.91
625.356	11.9
625.772	11.9
626.188	11.88
626.604	11.86
627.02	11.84
627.436	11.85
627.852	11.84
628.268	11.83
628.683	11.81
629.099	11.81
629.514	11.79
629.93	11.78
630.345	11.77
630.761	11.74
631.176	11.71
631.591	11.69
632.007	11.66
632.422	11.64
632.837	11.6
633.252	11.55
633.667	11.51
634.082	11.46
634.497	11.41
634.911	11.36
635.326	11.32
635.741	11.26
636.155	11.21
636.57	11.15
636.984	11.1
637.399	11.04
637.813	10.99
638.228	10.92
638.642	10.85
639.056	10.78
639.47	10.72
639.884	10.65
640.298	10.59
640.712	10.51
641.126	10.44
641.54	10.37
641.954	10.3
642.368	10.23
642.781	10.17
643.195	10.11
643.609	10.05
644.022	9.98
644.436	9.92
644.849	9.85
645.262	9.79
645.676	9.73
646.089	9.67
646.502	9.63
646.915	9.58
647.328	9.53
647.741	9.49
648.154	9.45
648.567	9.41
648.98	9.37
649.393	9.35
649.805	9.33
650.218	9.3
650.631	9.28
651.043	9.26
651.456	9.23
651.868	9.2
652.28	9.16
652.693	9.14
653.105	9.11
653.517	9.07
653.929	9.04
654.341	8.98
654.753	8.95
655.165	8.91
655.577	8.85
655.989	8.81
656.401	8.77
656.813	8.72
657.224	8.67
657.636	8.6
658.047	8.55
658.459	8.49
658.87	8.45
659.282	8.38
659.693	8.31
660.104	8.24
660.515	8.17
660.926	8.12
661.338	8.05
661.749	8
662.159	7.94
662.57	7.9
662.981	7.85
663.392	7.79
663.803	7.75
664.213	7.71
664.624	7.68
665.035	7.65
665.445	7.61
665.855	7.58
666.266	7.57
666.676	7.55
667.086	7.52
667.497	7.5
667.907	7.48
668.317	7.46
668.727	7.45
669.137	7.43
669.547	7.41
669.956	7.4
670.366	7.4
670.776	7.38
671.186	7.37
671.595	7.37
672.005	7.36
672.414	7.37
672.824	7.37
673.233	7.39
673.642	7.41
674.052	7.42
674.461	7.43
674.87	7.44
675.279	7.47
675.688	7.5
676.097	7.52
676.506	7.54
676.915	7.57
677.323	7.6
677.732	7.62
678.141	7.64
678.549	7.67
678.958	7.7
679.366	7.75
679.775	7.79
680.183	7.84
680.592	7.9
681	7.96
681.408	8.03
681.816	8.09
682.224	8.19
682.632	8.29
683.04	8.39
683.448	8.51
683.856	8.62
684.264	8.74
684.671	8.88
685.079	9.03
685.487	9.19
685.894	9.38
686.302	9.57
686.709	9.76
687.116	9.97
687.524	10.2
687.931	10.44
688.338	10.71
688.745	10.97
689.152	11.26
689.559	11.57
689.966	11.88
690.373	12.2
690.78	12.54
691.187	12.89
691.593	13.26
692	13.63
692.407	13.99
692.813	14.37
693.22	14.76
693.626	15.15
694.032	15.55
694.439	15.96
694.845	16.36
695.251	16.76
695.657	17.15
696.063	17.53
696.469	17.93
696.875	18.34
697.281	18.74
697.687	19.13
698.093	19.51
698.498	19.88
698.904	20.24
699.31	20.6
699.715	20.95
700.12	21.32
700.526	21.68
700.931	22.03
701.337	22.38
701.742	22.7
702.147	23.04
702.552	23.39
702.957	23.71
703.362	24.03
703.767	24.34
704.172	24.66
704.577	24.98
704.981	25.29
705.386	25.59
705.791	25.88
706.195	26.18
706.6	26.48
707.004	26.74
707.408	27.03
707.813	27.3
708.217	27.56
708.621	27.84
709.025	28.09
709.43	28.34
709.834	28.59
710.237	28.84
710.641	29.07
711.045	29.3
711.449	29.55
711.853	29.81
712.256	30.03
712.66	30.26
713.064	30.45
713.467	30.67
713.87	30.87
714.274	31.07
714.677	31.25
715.08	31.45
715.484	31.66
715.887	31.86
716.29	32.03
716.693	32.24
717.096	32.45
717.499	32.66
717.901	32.84
718.304	33.05
718.707	33.25
719.109	33.46
719.512	33.64
719.915	33.81
720.317	33.96
720.719	34.11
721.122	34.25
721.524	34.41
721.926	34.57
722.328	34.73
722.731	34.87
723.133	35.01
723.535	35.13
723.937	35.26
724.338	35.38
724.74	35.49
725.142	35.64
725.544	35.75
725.945	35.87
726.347	35.97
726.748	36.06
727.15	36.16
727.551	36.24
727.952	36.32
728.354	36.41
728.755	36.51
729.156	36.61
729.557	36.68
729.958	36.77
730.359	36.85
730.76	36.92
731.161	37
731.562	37.07
731.962	37.12
732.363	37.19
732.763	37.26
733.164	37.31
733.564	37.36
733.965	37.4
734.365	37.45
734.766	37.46
735.166	37.52
735.566	37.57
735.966	37.62
736.366	37.68
736.766	37.72
737.166	37.76
737.566	37.81
737.966	37.84
738.365	37.87
738.765	37.91
739.165	37.95
739.564	37.99
739.964	38
740.363	38
740.763	38.01
741.162	38.05
741.561	38.06
741.96	38.06
742.36	38.1
742.759	38.11
743.158	38.14
743.557	38.17
743.955	38.19
744.354	38.2
744.753	38.24
745.152	38.29
745.55	38.3
745.949	38.35
746.348	38.39
746.746	38.41
747.144	38.45
747.543	38.46
747.941	38.49
748.339	38.48
748.737	38.51
749.136	38.53
749.534	38.52
749.932	38.53
750.33	38.52
750.727	38.51
751.125	38.5
751.523	38.5
751.921	38.5
752.318	38.48
752.716	38.48
753.113	38.48
753.511	38.48
753.908	38.49
754.305	38.46
754.703	38.44
755.1	38.41
755.497	38.39
755.894	38.34
756.291	38.31
756.688	38.28
757.085	38.26
757.482	38.23
757.878	38.2
758.275	38.15
758.672	38.15
759.068	38.15
759.465	38.15
759.861	38.15
760.258	38.16
760.654	38.15
761.05	38.15
761.447	38.15
761.843	38.15
762.239	38.14
762.635	38.17
763.031	38.16
763.427	38.15
763.822	38.17
764.218	38.19
764.614	38.22
765.01	38.22
765.405	38.24
765.801	38.24
766.196	38.25
766.592	38.26
766.987	38.26
767.382	38.28
767.778	38.3
768.173	38.31
768.568	38.31
768.963	38.29
769.358	38.32
769.753	38.31
770.148	38.32
770.542	38.31
770.937	38.32
771.332	38.32
771.726	38.3
772.121	38.3
772.515	38.28
772.91	38.25
773.304	38.27
773.699	38.26
774.093	38.23
774.487	38.22
774.881	38.22
775.275	38.22
775.669	38.19
776.063	38.19
776.457	38.19
776.851	38.19
777.245	38.17
777.638	38.14
778.032	38.15
778.425	38.19
778.819	38.19
779.212	38.19
779.606	38.22
779.999	38.23
780.392	38.24
780.786	38.22
781.179	38.24
781.572	38.28
781.965	38.29
782.358	38.3
782.751	38.29
783.143	38.29
783.536	38.3
783.929	38.27
784.322	38.28
784.714	38.3
785.107	38.33
785.499	38.31
785.891	38.3
786.284	38.32
786.676	38.31
787.068	38.32
787.46	38.35
787.852	38.36
788.245	38.35
788.636	38.35
789.028	38.33
789.42	38.33
789.812	38.35
790.204	38.37
790.595	38.37
790.987	38.36
791.378	38.35
791.77	38.33
792.161	38.31
792.553	38.33
792.944	38.32
793.335	38.33
793.726	38.33
794.117	38.33
794.508	38.31
794.899	38.29
795.29	38.3
795.681	38.29
796.072	38.32
796.463	38.32
796.853	38.32
797.244	38.33
797.634	38.32
798.025	38.36
798.415	38.35
798.806	38.36
799.196	38.4
799.586	38.41
799.976	38.43
800.366	38.43
800.756	38.43
801.146	38.45
801.536	38.45
801.926	38.44
802.316	38.42
802.706	38.42
803.095	38.44
803.485	38.42
803.874	38.41
804.264	38.4
804.653	38.4
805.043	38.39
805.432	38.37
805.821	38.38
806.21	38.37
806.599	38.37
806.988	38.38
807.377	38.36
807.766	38.36
808.155	38.33
808.544	38.35
808.933	38.35
809.321	38.36
809.71	38.36
810.098	38.36
810.487	38.35
810.875	38.35
811.264	38.33
811.652	38.35
812.04	38.36
812.428	38.41
812.816	38.38
813.204	38.37
813.592	38.36
813.98	38.35
814.368	38.34
814.756	38.34
815.144	38.35
815.531	38.35
815.919	38.36
816.306	38.36
816.694	38.33
817.081	38.35
817.469	38.36
817.856	38.35
818.243	38.36
818.63	38.35
819.017	38.34
819.404	38.3
819.791	38.3
820.178	38.28
820.565	38.28
820.952	38.27
821.339	38.25
821.725	38.25
822.112	38.26
822.498	38.26
822.885	38.29
823.271	38.29
823.657	38.29
824.044	38.29
824.43	38.32
824.816	38.3
825.202	38.29
825.588	38.29
825.974	38.28
826.36	38.26
826.746	38.23
827.132	38.21
827.517	38.21
827.903	38.22
828.289	38.21
828.674	38.17
829.06	38.14
829.445	38.13
829.83	38.12
830.216	38.09
830.601	38.06
830.986	38.05
831.371	38.03
831.756	38.01
832.141	37.99
832.526	38
832.911	37.98
833.295	37.97
833.68	37.96
834.065	37.94
834.449	37.93
834.834	37.92
835.218	37.91
835.603	37.9
835.987	37.89
836.371	37.87
836.755	37.83
837.139	37.81
837.524	37.8
837.908	37.81
838.291	37.81
838.675	37.8
839.059	37.79
839.443	37.76
839.827	37.75
840.21	37.74
840.594	37.74
840.977	37.73
841.361	37.73
841.744	37.71
842.127	37.67
842.511	37.64
842.894	37.62
843.277	37.62
843.66	37.63
844.043	37.63
844.426	37.6
844.809	37.59
845.191	37.59
845.574	37.6
845.957	37.6
846.339	37.6
846.722	37.62
847.104	37.64
847.487	37.63
847.869	37.65
848.252	37.64
848.634	37.65
849.016	37.65
849.398	37.65
849.78	37.63
850.162	37.63
850.544	37.63
850.926	37.62
851.307	37.61
851.689	37.63
852.071	37.61
852.452	37.6
852.834	37.6
853.215	37.58
853.597	37.59
853.978	37.6
854.359	37.6
854.741	37.6
855.122	37.6
855.503	37.6
855.884	37.57
856.265	37.56
856.646	37.57
857.026	37.58
857.407	37.59
857.788	37.56
858.169	37.56
858.549	37.56
858.93	37.55
859.31	37.57
859.69	37.57
860.071	37.61
860.451	37.62
860.831	37.62
861.211	37.63
861.591	37.61
861.971	37.62
862.351	37.62
862.731	37.63
863.111	37.61
863.491	37.61
863.87	37.61
864.25	37.58
864.629	37.57
865.009	37.57
865.388	37.54
865.768	37.55
866.147	37.55
866.526	37.54
866.905	37.56
867.284	37.57
867.663	37.57
868.042	37.57
868.421	37.58
868.8	37.58
869.179	37.59
869.558	37.61
869.936	37.59
870.315	37.56
870.693	37.56
871.072	37.55
871.45	37.55
871.828	37.53
872.207	37.52
872.585	37.5
872.963	37.51
873.341	37.5
873.719	37.49
874.097	37.48
874.475	37.5
874.853	37.5
875.23	37.48
875.608	37.45
875.986	37.47
876.363	37.48
876.741	37.49
877.118	37.47
877.495	37.48
877.873	37.48
878.25	37.51
878.627	37.52
879.004	37.55
879.381	37.56
879.758	37.57
880.135	37.56
880.512	37.58
880.889	37.58
881.265	37.56
881.642	37.56
882.019	37.58
882.395	37.58
882.772	37.56
883.148	37.53
883.524	37.51
883.901	37.5
884.277	37.48
884.653	37.45
885.029	37.42
885.405	37.42
885.781	37.39
886.157	37.38
886.532	37.36
886.908	37.35
887.284	37.33
887.659	37.33
888.035	37.33
888.411	37.31
888.786	37.33
889.161	37.33
889.537	37.32
889.912	37.33
890.287	37.31
890.662	37.29
891.037	37.28
891.412	37.26
891.787	37.23
892.162	37.23
892.536	37.22
892.911	37.19
893.286	37.17
893.66	37.15
894.035	37.11
894.409	37.09
894.784	37.1
895.158	37.09
895.532	37.09
895.906	37.08
896.281	37.06
896.655	37.05
897.029	37.06
897.402	37.05
897.776	37.06
898.15	37.09
898.524	37.1
898.898	37.1
899.271	37.11
899.645	37.11
900.018	37.13
900.392	37.14
900.765	37.14
901.138	37.13
901.511	37.14
901.884	37.16
902.258	37.15
902.631	37.15
903.003	37.16
903.376	37.16
903.749	37.15
904.122	37.17
904.495	37.2
904.867	37.22
905.24	37.24
905.612	37.28
905.985	37.25
906.357	37.27
906.729	37.28
907.102	37.29
907.474	37.3
907.846	37.31
908.218	37.29
908.59	37.3
908.962	37.31
909.334	37.3
909.705	37.28
910.077	37.31
910.449	37.29
910.82	37.28
911.192	37.28
911.563	37.26
911.935	37.29
912.306	37.3
912.677	37.3
913.048	37.31
913.419	37.31
913.79	37.3
914.161	37.28
914.532	37.3
914.903	37.31
915.274	37.31
915.645	37.32
916.015	37.31
916.386	37.32
916.756	37.32
917.127	37.34
917.497	37.36
917.868	37.37
918.238	37.38
918.608	37.41
918.978	37.38
919.348	37.4
919.718	37.41
920.088	37.42
920.458	37.41
920.828	37.4
921.198	37.37
921.567	37.36
921.937	37.38
922.306	37.38
922.676	37.38
923.045	37.42
923.415	37.4
923.784	37.39
924.153	37.4
924.522	37.43
924.891	37.45
925.26	37.47
925.629	37.48
925.998	37.45
926.367	37.49
926.736	37.49
927.104	37.49
927.473	37.48
927.842	37.47
928.21	37.46
928.578	37.42
928.947	37.44
929.315	37.4
929.683	37.38
930.051	37.36
930.42	37.33
930.788	37.29
931.156	37.27
931.523	37.27
931.891	37.31
932.259	37.3
932.627	37.32
932.994	37.27
933.362	37.28
933.729	37.28
934.097	37.32
934.464	37.32
934.831	37.31
935.199	37.34
935.566	37.34
935.933	37.27
936.3	37.3
936.667	37.28
937.034	37.31
937.401	37.36
937.767	37.36
938.134	37.35
938.501	37.39
938.867	37.45
939.234	37.47
939.6	37.53
939.967	37.59
940.333	37.56
940.699	37.65
941.065	37.68
941.431	37.72
941.798	37.75
942.163	37.81
942.529	37.81
942.895	37.87
943.261	37.86
943.627	37.85
943.992	37.87
944.358	37.88
944.723	37.86
945.089	37.81
945.454	37.81
945.82	37.8
946.185	37.79
946.55	37.81
946.915	37.75
947.28	37.79
947.645	37.77
948.01	37.76
948.375	37.8
948.74	37.76
949.104	37.79
949.469	37.75
949.834	37.77
950.198	37.74
950.562	37.66
950.927	37.6
951.291	37.53
951.655	37.51
952.02	37.47
952.384	37.41
952.748	37.4
953.112	37.31
953.476	37.26
953.839	37.21
954.203	37.16
954.567	37.14
954.931	37.17
955.294	37.17
955.658	37.16
956.021	37.14
956.385	37.15
956.748	37.1
957.111	37.1
957.474	37.1
957.837	37.05
958.2	37.08
958.563	37.12
958.926	37.11
959.289	37.12
959.652	37.09
960.015	37.08
960.377	37.04
960.74	37.1
961.102	37.12
961.465	37.15
961.827	37.18
962.189	37.16
962.552	37.1
962.914	37.07
963.276	37.05
963.638	37.07
964	37.01
964.362	37.04
964.724	36.98
965.085	36.96
965.447	36.93
965.809	36.93
966.17	36.93
966.532	36.94
966.893	36.96
967.255	36.95
967.616	36.93
967.977	36.97
968.338	36.94
968.699	36.9
969.061	36.92
969.421	36.94
969.782	36.94
970.143	36.92
970.504	36.94
970.865	36.97
971.225	36.93
971.586	36.91
971.946	36.9
972.307	36.9
972.667	36.97
973.027	36.96
973.388	36.95
973.748	36.97
974.108	37.05
974.468	37.03
974.828	37
975.188	37.07
975.548	37.09
975.907	37.16
976.267	37.23
976.627	37.26
976.986	37.28
977.346	37.26
977.705	37.24
978.064	37.21
978.424	37.26
978.783	37.25
979.142	37.23
979.501	37.22
979.86	37.21
980.219	37.15
980.578	37.14
980.937	37.16
981.296	37.15
981.654	37.15
982.013	37.2
982.371	37.21
982.73	37.23
983.088	37.3
983.447	37.3
983.805	37.31
984.163	37.33
984.521	37.34
984.879	37.3
985.237	37.35
985.595	37.37
985.953	37.3
986.311	37.26
986.669	37.29
987.026	37.29
987.384	37.4
987.741	37.39
988.099	37.49
988.456	37.41
988.814	37.48
989.171	37.51
989.528	37.55
989.885	37.58
990.242	37.64
990.599	37.68
990.956	37.68
991.313	37.64
991.67	37.66
992.027	37.7
992.383	37.89
992.74	37.91
993.096	37.92
993.453	37.94
993.809	38.03
994.165	38.1
994.522	38.1
994.878	38.2
995.234	38.23
995.59	38.26
995.946	38.3
996.302	38.25
996.658	38.27
997.013	38.32
997.369	38.42
997.725	38.49
998.08	38.48
998.436	38.54
998.791	38.52
999.147	38.53
999.502	38.64
999.857	38.64
1000.212	38.62
1000.567	38.74
1000.922	38.78
1001.277	38.7
1001.632	38.56
1001.987	38.57
1002.342	38.61
1002.696	38.67
1003.051	38.79
1003.406	38.89
1003.76	38.96
1004.114	39.08
1004.469	39.15
1004.823	39.42
1005.177	39.52
1005.531	39.74
1005.885	39.84
1006.239	39.81
1006.593	39.93
1006.947	39.97
1007.301	39.85
1007.655	39.83
1008.008	39.97
1008.362	39.91
1008.715	39.78
1009.069	39.97
1009.422	39.97
1009.776	40.01
1010.129	40.23
1010.482	40.22
1010.835	40.32
1011.188	40.54
1011.541	40.57
1011.894	40.57
1012.247	40.66
1012.6	40.71
1012.952	40.74
1013.305	40.77
1013.657	40.89
1014.01	40.92
1014.362	40.89
1014.715	40.93
1015.067	40.9
1015.419	41.04
1015.771	40.93
1016.123	40.99
1016.475	41.26
1016.827	41.37
1017.179	41.5
1017.531	41.55
1017.883	41.48
1018.234	41.81
1018.586	41.82
1018.938	42.04
1019.289	42.06
1019.64	42.4
1019.992	42.33
1020.343	42.06
1020.694	41.98
1021.045	41.99
1021.396	42.06
1021.747	42.27
1022.098	42.4
1022.449	42.6
1022.8	42.59
1023.151	42.74
1023.501	42.67
1023.852	43.12
1024.202	43.25
1024.553	43.45
1024.903	43.7
1025.253	43.79
1025.604	43.89
1025.954	43.57
1026.304	43.69
1026.654	43.78
1027.004	43.5
1027.354	43.61
1027.703	43.26
1028.053	43.6
1028.403	43.56
1028.753	43.35
1029.102	43.42
1029.452	43.33
1029.801	43.57
1030.15	43.43
1030.499	43.28
897.758	974.47
901.051	984.21
904.343	984.5
907.636	995.66
910.928	969.93
914.22	970.14
917.511	957.83
920.803	914.1
924.094	912.32
927.384	889.51
930.675	856.83
933.965	852.58
937.255	799.47
940.544	767.07
943.834	735.2
947.123	727.17
950.411	686.69
953.7	673.34
956.988	636.91
960.276	614.56
963.563	604.92
966.851	580.81
970.138	576.74
973.424	560.59
976.711	561.61
979.997	534.98
983.283	533.74
986.568	520.73
989.853	506.38
993.138	497.96
996.423	477.14
999.708	465.31
1002.992	460.38
1006.275	440.53
1009.559	436.91
1012.842	421.28
1016.125	409.78
1019.408	401.12
1022.69	397.67
1025.972	387.96
1029.254	378.75
1032.536	372.56
1035.817	365.26
1039.098	360.86
1042.379	353.26
1045.659	348.55
1048.939	341.43
1052.219	335.34
1055.498	331.67
1058.778	323.32
1062.057	318.5
1065.335	315.17
1068.614	311.49
1071.892	307.63
1075.17	299.71
1078.447	294.41
1081.724	292.43
1085.001	289.54
1088.278	284.27
1091.554	278.64
1094.83	278.65
1098.106	275.95
1101.382	273.46
1104.657	271.03
1107.932	267.03
1111.206	267.57
1114.481	261.37
1117.755	259.76
1121.029	257.65
1124.302	256.59
1127.575	252.62
1130.848	249.71
1134.121	247.35
1137.393	246.24
1140.665	241.72
1143.937	239.45
1147.208	238.98
1150.48	238.21
1153.75	234.26
1157.021	231.76
1160.291	231.71
1163.561	228.52
1166.831	228.07
1170.101	226.33
1173.37	226.54
1176.639	227.33
1179.907	225.2
1183.176	221.8
1186.444	222.46
1189.711	222.38
1192.979	221.58
1196.246	220.25
1199.513	221.84
1202.78	220.92
1206.046	220.27
1209.312	218.1
1212.578	217.93
1215.843	219.61
1219.108	218.94
1222.373	222.75
1225.638	224.11
1228.902	227.12
1232.166	226.83
1235.43	227.27
1238.693	230.61
1241.956	232.29
1245.219	234.71
1248.482	235.43
1251.744	235.66
1255.006	236.96
1258.268	231.21
1261.529	229.85
1264.79	228.9
1268.051	227.89
1271.312	225.56
1274.572	222.54
1277.832	220.81
1281.092	217.81
1284.351	216.51
1287.61	217.01
1290.869	212.17
1294.128	211.19
1297.386	210.8
1300.644	208.57
1303.902	209.41
1307.159	208.98
1310.416	209.11
1313.673	208.47
1316.93	210.33
1320.186	209.63
1323.442	209.66
1326.697	213.08
1329.953	214.33
1333.208	214.69
1336.463	217.1
1339.717	217.2
1342.972	220.04
1346.226	221.59
1349.479	222.21
1352.733	222.95
1355.986	224.7
1359.238	223.97
1362.491	225.49
1365.743	226.5
1368.995	227.33
1372.247	226.59
1375.498	226.74
1378.749	226.63
1382	223.94
1385.251	224.5
1388.501	223.24
1391.751	222.59
1395	222.27
1398.25	220.36
1401.499	218.33
1404.748	217.69
1407.996	214.76
1411.244	213.53
1414.492	211.96
1417.74	209.82
1420.987	206.85
1424.234	206.43
1427.481	203.72
1430.728	203.18
1433.974	201.55
1437.22	200.77
1440.465	199.33
1443.711	197.49
1446.956	196.79
1450.201	195
1453.445	193.4
1456.689	192.21
1459.933	189.33
1463.177	187.09
1466.42	185.12
1469.663	182.32
1472.906	180.81
1476.148	176.74
1479.391	175.36
1482.633	173.58
1485.874	171.6
1489.115	170.47
1492.356	168.98
1495.597	168.38
1498.838	167.46
1502.078	165.84
1505.318	165.77
1508.557	165.3
1511.797	165.57
1515.036	164.12
1518.274	163.48
1521.513	162.37
1524.751	161.92
1527.989	161.96
1531.227	161.04
1534.464	160.94
1537.701	161.32
1540.938	160.73
1544.174	159
1547.41	159.19
1550.646	158.95
1553.882	158.51
1557.117	156.69
1560.352	156.54
1563.587	155.66
1566.821	154.67
1570.055	154.37
1573.289	152.29
1576.523	152.6
1579.756	151.76
1582.989	150.46
1586.222	150.22
1589.454	150.15
1592.686	151.35
1595.918	150.14
1599.15	149.89
1602.381	150.67
1605.612	149.78
1608.843	150.21
1612.073	150.17
1615.303	151
1618.533	151.51
1621.762	151.16
1624.992	151.7
1628.221	151.11
1631.449	151.02
1634.678	151.33
1637.906	152.05
1641.134	151.9
1644.361	151.53
1647.588	151.53
1650.815	151.29
1654.042	150.66
1657.269	151.42
1660.495	150.99
1663.72	150.87
1666.946	151.91
1670.171	151.93
1673.396	151.88
1676.621	151.72
1679.845	152.09
1683.069	153.03
1686.293	153.52
1689.517	154.22
1692.74	154.4
1695.963	154.9
1699.185	156.27
1702.408	155.97
1705.63	156.14
1708.852	156.19
1712.073	157.26
1715.294	157.68
1718.515	157.88
1721.736	157.81
1724.956	158.5
1728.176	158.41
1731.396	159.41
1734.616	158.79
1737.835	159.61
1741.054	158.94
1744.272	159.28
1747.491	160.03
1750.709	160.98
1753.927	160.51
1757.144	159.68
1760.361	159.76
1763.578	160.37
1766.795	159.92
1770.011	161.19
1773.227	161.4
1776.443	162.82
1779.658	163
1782.874	162.93
1786.089	162.43
1789.303	163.05
1792.518	165.19
1795.732	165.17
1798.945	166.49
1802.159	166.7
1805.372	166.68
1808.585	168.77
1811.797	169.38
1815.01	170.37
1818.222	171.2
1821.434	174.6
1824.645	174.55
1827.856	177.25
1831.067	178.57
1834.278	178.48
1837.488	179.57
1840.698	180.48
1843.908	179.16
1847.117	179.46
1850.326	180.23
1853.535	179.27
1856.744	180.19
1859.952	180.92
1863.16	179.06
1866.368	178.09
1869.575	178.26
1872.782	175.61
1875.989	175.23
1879.196	174.34
1882.402	173.44
1885.608	172.91
1888.814	172.89
1892.019	171.78
1895.224	170.47
1898.429	170.11
1901.634	170.72
1904.838	170.77
1908.042	172.12
1911.246	172.15
1914.449	172.76
1917.652	173.32
1920.855	172.8
1924.058	172.96
1927.26	171.77
1930.462	172.36
1933.664	174.43
1936.865	172.28
1940.066	172.22
1943.267	171.95
1946.467	171.96
1949.668	172.7
1952.868	174.17
1956.067	175.32
1959.267	175.12
1962.466	175.7
1965.665	174.95
1968.863	175.29
1972.061	179.44
1975.259	181.06
1978.457	181.89
1981.654	183.53
1984.852	184.2
1988.048	183.52
1991.245	185.5
1994.441	188
1997.637	189.18
2000.833	193.71
2004.028	196.06
2007.223	196.02
2010.418	198.22
2013.613	201.86
2016.807	203.92
2020.001	205.58
2023.194	209.48
2026.388	213.46
2029.581	218.56
2032.774	220.36
2035.966	223.31
2039.158	224.12
2042.35	227.99
2045.542	229.59
2048.733	232.99
2051.924	237.18
2055.115	240.68
2058.306	240.97
2061.496	242.12
2064.686	243.62
2067.875	248.79
2071.065	250.3
2074.254	247.55
2077.442	252.58
2080.631	252.93
2083.819	255.28
2087.007	255.45
2090.195	259.06
2093.382	260.97
2096.569	260.41
2099.756	263.91
2102.942	263.79
2106.128	264.94
2109.314	273.12
2112.5	271
2115.685	276.96
2118.87	277.05
2122.055	281.93
2125.239	283.03
2128.424	287.16
2131.608	290.64
2134.791	294.38
2137.974	295.67
2141.157	296.34
2144.34	296.49
2147.523	301.76
2150.705	300.16
2153.887	303.97
2157.068	304.19
2160.25	302.03
2163.431	304.24
2166.611	306.61
2169.792	310.19
2172.972	314.5
2176.152	318.22
2179.331	321.07
2182.511	324.73
2185.69	328.18
2188.868	334.38
2192.047	334.68
2195.225	344.85
2198.403	351.82
2201.58	357.68
2204.758	365.81
2207.935	371.44
2211.111	379.79
2214.288	383.77
2217.464	384.68
2220.64	390.64
2223.815	394.51
2226.991	411.5
2230.166	411.69
2233.34	416.75
2236.515	424.44
2239.689	424.8
2242.863	428.05
2246.036	435.5
2249.209	433.67
2252.382	442.39
2255.555	455.19
2258.727	457.34
2261.9	459.91
2265.071	464.28
2268.243	472.82
2271.414	478.67
2274.585	487.41
2277.756	491.25
2280.926	496.65
2284.096	509.39
2287.266	518.85
2290.436	522.42
2293.605	533.52
2296.774	550.44
2299.942	565.27
2303.111	570.45
2306.279	581.44
2309.447	591.28
2312.614	607.29
2315.781	622.53
2318.948	651.33
2322.115	641.75
2325.281	677.85
2328.447	667.11
2331.613	689.03
2334.779	684.82
2337.944	712.67
2341.109	718.98
2344.274	737.31
2347.438	762.78
2350.602	767.36
2353.766	788.64
2356.929	800.96
2360.092	793.64
2363.255	848.46
2366.418	848.38
2369.58	864.42
2372.742	916.47
2375.904	942.08
2379.066	936.52
2382.227	918.93
2385.388	989.41
2388.548	988.22
2391.709	1002.25
2394.869	1113.85
2398.029	1074.11
2401.188	1103.07
2404.347	1098.78
2407.506	1077.44
2410.665	1105.44
2413.823	1175.03
2416.981	1241.85
2420.139	1210.42
2423.296	1194.73
2426.453	1249.82
2429.61	1207.47
2432.767	1252.04
2435.923	1240.19
2439.079	1354.22
2442.235	1381.61
2445.391	1372.11
2448.546	1353.52
2451.701	1317.07
2454.855	1308.99
2458.009	1399.11
2461.163	1454.09
2464.317	1496.78
2467.471	1536.48
2470.624	1543.59
2473.777	1498.94
2476.929	1449.08
2480.082	1402.78
2483.234	1393.62
2486.385	1467.22
2489.537	1477.34
2492.688	1527.88
2495.839	1482.99
2498.989	1453.48
2502.14	1455.99
2505.29	1467.22
2508.439	1490.54
2511.589	1494.38
2514.738	1633.52
2517.887	1593.75
2521.035	1681.23
2524.183	1689.37
2527.331	1697.62
2530.479	1684.82
2533.627	1700.56
