Data from C_3_DIV_IL_4N_Splice17_14-15-02-016.txt Node
Date: Sat Mar 07 14:15:02 EST 2020
User: sa697716
Spectrometer: NQ5500242
Trigger mode: 0
Integration Time (sec): 1.450000E-1
Scans to average: 20
Nonlinearity correction enabled: false
Boxcar width: 5
Storing dark spectrum: false
XAxis mode: Wavelengths
Number of Pixels in Spectrum: 512
>>>>>Begin Spectral Data<<<<<
187.83	145.53
188.298	158.76
188.766	118.54
189.233	103.12
189.701	103
190.169	138.78
190.636	154.95
191.104	136.99
191.571	114.31
192.039	-10.24
192.506	-50.12
192.974	288.89
193.441	383.11
193.908	69.76
194.375	41.87
194.842	-6.21
195.31	58.72
195.777	78.09
196.244	48.02
196.711	60.45
197.177	63.93
197.644	64.02
198.111	62.85
198.578	63.25
199.045	63.87
199.511	64.08
199.978	64.29
200.445	64.59
200.911	64.3
201.378	64.2
201.844	64.38
202.31	63.66
202.777	63.76
203.243	63.77
203.709	63.65
204.176	63.35
204.642	63.1
205.108	62.84
205.574	62.47
206.04	61.84
206.506	61.66
206.972	61.07
207.438	60.44
207.903	59.73
208.369	58.59
208.835	57.39
209.301	56.18
209.766	54.54
210.232	53.16
210.697	51.46
211.163	50.53
211.628	49.28
212.094	47.94
212.559	46.88
213.024	45.57
213.49	44.67
213.955	43.68
214.42	42.9
214.885	41.88
215.35	40.47
215.815	38.66
216.28	36.35
216.745	33.82
217.21	31.34
217.675	28.98
218.14	26.94
218.604	25.11
219.069	23.59
219.534	22.21
219.998	21.13
220.463	20.19
220.927	19.39
221.392	18.75
221.856	18.25
222.32	17.82
222.785	17.41
223.249	17.05
223.713	16.72
224.177	16.4
224.642	16.12
225.106	15.81
225.57	15.54
226.034	15.32
226.497	15.06
226.961	14.81
227.425	14.56
227.889	14.34
228.353	14.11
228.816	13.9
229.28	13.7
229.744	13.52
230.207	13.34
230.671	13.15
231.134	12.97
231.597	12.83
232.061	12.67
232.524	12.52
232.987	12.39
233.45	12.28
233.914	12.13
234.377	12
234.84	11.86
235.303	11.75
235.766	11.65
236.229	11.54
236.691	11.43
237.154	11.34
237.617	11.24
238.08	11.13
238.542	11.02
239.005	10.94
239.468	10.84
239.93	10.76
240.393	10.67
240.855	10.57
241.317	10.49
241.78	10.4
242.242	10.31
242.704	10.23
243.166	10.15
243.629	10.07
244.091	9.97
244.553	9.88
245.015	9.8
245.477	9.73
245.939	9.65
246.4	9.56
246.862	9.48
247.324	9.4
247.786	9.32
248.247	9.24
248.709	9.17
249.17	9.1
249.632	9.05
250.093	8.99
250.555	8.92
251.016	8.87
251.477	8.81
251.939	8.76
252.4	8.72
252.861	8.67
253.322	8.62
253.783	8.57
254.244	8.53
254.705	8.46
255.166	8.42
255.627	8.38
256.088	8.32
256.549	8.29
257.009	8.23
257.47	8.18
257.931	8.12
258.391	8.07
258.852	8.02
259.312	7.98
259.773	7.93
260.233	7.89
260.694	7.83
261.154	7.79
261.614	7.75
262.074	7.71
262.534	7.67
262.994	7.64
263.455	7.61
263.915	7.57
264.374	7.54
264.834	7.51
265.294	7.48
265.754	7.46
266.214	7.43
266.673	7.4
267.133	7.39
267.593	7.37
268.052	7.35
268.512	7.33
268.971	7.32
269.431	7.31
269.89	7.29
270.349	7.28
270.809	7.26
271.268	7.24
271.727	7.22
272.186	7.2
272.645	7.19
273.104	7.17
273.563	7.15
274.022	7.13
274.481	7.1
274.94	7.09
275.399	7.07
275.857	7.05
276.316	7.04
276.775	7.02
277.233	7
277.692	6.99
278.15	6.97
278.609	6.95
279.067	6.93
279.525	6.92
279.984	6.89
280.442	6.88
280.9	6.86
281.358	6.85
281.816	6.84
282.274	6.82
282.732	6.8
283.19	6.79
283.648	6.76
284.106	6.74
284.564	6.73
285.021	6.73
285.479	6.71
285.937	6.7
286.394	6.69
286.852	6.68
287.309	6.67
287.767	6.66
288.224	6.65
288.682	6.65
289.139	6.63
289.596	6.61
290.053	6.58
290.511	6.55
290.968	6.53
291.425	6.51
291.882	6.48
292.339	6.46
292.796	6.43
293.252	6.41
293.709	6.38
294.166	6.36
294.623	6.34
295.079	6.32
295.536	6.3
295.992	6.28
296.449	6.26
296.905	6.24
297.362	6.22
297.818	6.2
298.274	6.19
298.731	6.18
299.187	6.16
299.643	6.15
300.099	6.13
300.555	6.12
301.011	6.11
301.467	6.09
301.923	6.08
302.379	6.07
302.835	6.06
303.291	6.04
303.746	6.03
304.202	6.02
304.658	6.01
305.113	6
305.569	5.99
306.024	5.98
306.479	5.96
306.935	5.96
307.39	5.95
307.845	5.94
308.301	5.93
308.756	5.92
309.211	5.91
309.666	5.91
310.121	5.91
310.576	5.91
311.031	5.91
311.486	5.9
311.94	5.9
312.395	5.9
312.85	5.9
313.305	5.9
313.759	5.89
314.214	5.89
314.668	5.88
315.123	5.87
315.577	5.86
316.032	5.85
316.486	5.84
316.94	5.83
317.394	5.81
317.849	5.79
318.303	5.77
318.757	5.74
319.211	5.73
319.665	5.72
320.119	5.7
320.572	5.68
321.026	5.67
321.48	5.65
321.934	5.63
322.387	5.62
322.841	5.61
323.295	5.6
323.748	5.6
324.202	5.58
324.655	5.57
325.108	5.55
325.562	5.55
326.015	5.53
326.468	5.52
326.921	5.51
327.374	5.49
327.827	5.48
328.28	5.47
328.733	5.46
329.186	5.45
329.639	5.45
330.092	5.45
330.545	5.44
330.997	5.45
331.45	5.46
331.903	5.46
332.355	5.47
332.808	5.47
333.26	5.47
333.713	5.46
334.165	5.46
334.617	5.47
335.069	5.46
335.522	5.46
335.974	5.46
336.426	5.44
336.878	5.43
337.33	5.42
337.782	5.42
338.234	5.41
338.686	5.41
339.137	5.42
339.589	5.41
340.041	5.4
340.493	5.39
340.944	5.38
341.396	5.37
341.847	5.36
342.299	5.34
342.75	5.32
343.201	5.31
343.653	5.3
344.104	5.27
344.555	5.26
345.006	5.24
345.457	5.22
345.908	5.21
346.359	5.21
346.81	5.19
347.261	5.19
347.712	5.18
348.163	5.17
348.613	5.16
349.064	5.15
349.515	5.14
349.965	5.14
350.416	5.12
350.866	5.11
351.317	5.09
351.767	5.09
352.217	5.08
352.668	5.08
353.118	5.07
353.568	5.06
354.018	5.06
354.468	5.07
354.918	5.07
355.368	5.09
355.818	5.09
356.268	5.09
356.718	5.08
357.168	5.08
357.617	5.08
358.067	5.08
358.517	5.1
358.966	5.1
359.416	5.1
359.865	5.09
360.315	5.09
360.764	5.09
361.213	5.1
361.663	5.1
362.112	5.11
362.561	5.12
363.01	5.12
363.459	5.1
363.908	5.09
364.357	5.09
364.806	5.09
365.255	5.1
365.703	5.11
366.152	5.11
366.601	5.12
367.05	5.12
367.498	5.11
367.947	5.12
368.395	5.14
368.844	5.15
369.292	5.16
369.74	5.17
370.189	5.18
370.637	5.18
371.085	5.18
371.533	5.19
371.981	5.2
372.429	5.22
372.877	5.23
373.325	5.24
373.773	5.25
374.221	5.26
374.669	5.27
375.116	5.27
375.564	5.28
376.012	5.3
376.459	5.32
376.907	5.35
377.354	5.37
377.801	5.39
378.249	5.42
378.696	5.44
379.143	5.45
379.591	5.46
380.038	5.49
380.485	5.52
380.932	5.55
381.379	5.57
381.826	5.58
382.273	5.61
382.72	5.63
383.166	5.65
383.613	5.68
384.06	5.71
384.506	5.74
384.953	5.77
385.4	5.79
385.846	5.82
386.292	5.85
386.739	5.87
387.185	5.9
387.631	5.93
388.078	5.95
388.524	5.98
388.97	6.01
389.416	6.04
389.862	6.07
390.308	6.12
390.754	6.15
391.2	6.19
391.645	6.22
392.091	6.26
392.537	6.3
392.983	6.34
393.428	6.38
393.874	6.41
394.319	6.45
394.765	6.48
395.21	6.5
395.655	6.54
396.101	6.58
396.546	6.61
396.991	6.65
397.436	6.67
397.881	6.71
398.326	6.75
398.771	6.79
399.216	6.83
399.661	6.88
400.106	6.91
400.551	6.93
400.995	6.94
401.44	6.97
401.885	6.98
402.329	7
402.774	7.02
403.218	7.05
403.663	7.08
404.107	7.1
404.551	7.12
404.995	7.14
405.44	7.16
405.884	7.18
406.328	7.21
406.772	7.22
407.216	7.24
407.66	7.26
408.104	7.26
408.547	7.27
408.991	7.29
409.435	7.31
409.879	7.33
410.322	7.34
410.766	7.36
411.209	7.4
411.653	7.42
412.096	7.45
412.54	7.47
412.983	7.5
413.426	7.52
413.869	7.54
414.312	7.57
414.756	7.59
415.199	7.62
415.642	7.64
416.085	7.65
416.527	7.65
416.97	7.64
417.413	7.63
417.856	7.63
418.298	7.61
418.741	7.61
419.184	7.61
419.626	7.6
420.069	7.62
420.511	7.61
420.953	7.6
421.396	7.62
421.838	7.63
422.28	7.65
422.722	7.68
423.164	7.7
423.606	7.71
424.048	7.72
424.49	7.74
424.932	7.75
425.374	7.73
425.816	7.71
426.258	7.7
426.699	7.68
427.141	7.66
427.582	7.64
428.024	7.65
428.465	7.64
428.907	7.63
429.348	7.62
429.789	7.6
430.231	7.6
430.672	7.62
431.113	7.64
431.554	7.65
431.995	7.66
432.436	7.66
432.877	7.65
433.318	7.66
433.759	7.66
434.2	7.67
434.64	7.68
435.081	7.68
435.522	7.69
435.962	7.7
436.403	7.72
436.843	7.75
437.284	7.75
437.724	7.76
438.164	7.76
438.604	7.77
439.045	7.78
439.485	7.78
439.925	7.79
440.365	7.78
440.805	7.79
441.245	7.79
441.685	7.8
442.125	7.82
442.564	7.82
443.004	7.83
443.444	7.83
443.883	7.84
444.323	7.85
444.762	7.88
445.202	7.91
445.641	7.92
446.081	7.94
446.52	7.95
446.959	7.97
447.398	8
447.837	8.01
448.276	8.03
448.716	8.05
449.154	8.09
449.593	8.1
450.032	8.1
450.471	8.1
450.91	8.1
451.349	8.09
451.787	8.09
452.226	8.08
452.664	8.07
453.103	8.06
453.541	8.04
453.98	8.02
454.418	7.99
454.856	7.97
455.295	7.96
455.733	7.92
456.171	7.91
456.609	7.9
457.047	7.86
457.485	7.83
457.923	7.82
458.361	7.79
458.798	7.79
459.236	7.79
459.674	7.78
460.111	7.77
460.549	7.78
460.987	7.78
461.424	7.77
461.862	7.78
462.299	7.8
462.736	7.78
463.173	7.78
463.611	7.75
464.048	7.75
464.485	7.75
464.922	7.74
465.359	7.74
465.796	7.74
466.233	7.73
466.67	7.73
467.106	7.75
467.543	7.76
467.98	7.77
468.416	7.78
468.853	7.79
469.29	7.79
469.726	7.8
470.162	7.81
470.599	7.83
471.035	7.83
471.471	7.84
471.907	7.82
472.344	7.82
472.78	7.82
473.216	7.82
473.652	7.82
474.088	7.81
474.523	7.81
474.959	7.81
475.395	7.78
475.831	7.78
476.266	7.78
476.702	7.77
477.138	7.79
477.573	7.79
478.008	7.79
478.444	7.78
478.879	7.79
479.314	7.78
479.75	7.77
480.185	7.77
480.62	7.77
481.055	7.75
481.49	7.73
481.925	7.72
482.36	7.7
482.795	7.68
483.229	7.68
483.664	7.67
484.099	7.66
484.534	7.65
484.968	7.65
485.403	7.65
485.837	7.65
486.271	7.66
486.706	7.66
487.14	7.66
487.574	7.66
488.009	7.67
488.443	7.67
488.877	7.68
489.311	7.7
489.745	7.71
490.179	7.74
490.613	7.76
491.046	7.79
491.48	7.82
491.914	7.86
492.348	7.89
492.781	7.93
493.215	7.97
493.648	8.02
494.082	8.04
494.515	8.08
494.948	8.12
495.382	8.16
495.815	8.21
496.248	8.25
496.681	8.3
497.114	8.36
497.547	8.41
497.98	8.47
498.413	8.52
498.846	8.6
499.279	8.67
499.711	8.74
500.144	8.82
500.577	8.89
501.009	8.96
501.442	9.05
501.874	9.14
502.306	9.23
502.739	9.33
503.171	9.44
503.603	9.54
504.036	9.65
504.468	9.76
504.9	9.87
505.332	9.99
505.764	10.13
506.196	10.26
506.627	10.4
507.059	10.55
507.491	10.7
507.923	10.85
508.354	11.01
508.786	11.17
509.217	11.34
509.649	11.51
510.08	11.69
510.512	11.86
510.943	12.03
511.374	12.21
511.805	12.4
512.237	12.58
512.668	12.78
513.099	12.97
513.53	13.17
513.961	13.36
514.391	13.58
514.822	13.79
515.253	14.01
515.684	14.24
516.114	14.47
516.545	14.67
516.975	14.9
517.406	15.11
517.836	15.34
518.267	15.58
518.697	15.8
519.127	16.01
519.558	16.23
519.988	16.44
520.418	16.65
520.848	16.85
521.278	17.06
521.708	17.28
522.138	17.48
522.567	17.67
522.997	17.87
523.427	18.05
523.857	18.23
524.286	18.4
524.716	18.59
525.145	18.76
525.575	18.93
526.004	19.1
526.433	19.24
526.863	19.38
527.292	19.53
527.721	19.66
528.15	19.8
528.579	19.93
529.008	20.06
529.437	20.17
529.866	20.28
530.295	20.4
530.724	20.51
531.152	20.6
531.581	20.7
532.01	20.79
532.438	20.87
532.867	20.96
533.295	21.03
533.723	21.1
534.152	21.17
534.58	21.23
535.008	21.25
535.436	21.29
535.865	21.34
536.293	21.39
536.721	21.43
537.149	21.47
537.576	21.49
538.004	21.53
538.432	21.57
538.86	21.6
539.287	21.62
539.715	21.67
540.143	21.71
540.57	21.73
540.998	21.74
541.425	21.76
541.852	21.78
542.28	21.81
542.707	21.83
543.134	21.85
543.561	21.88
543.988	21.92
544.415	21.93
544.842	21.94
545.269	21.98
545.696	22.01
546.123	22.03
546.549	22.06
546.976	22.09
547.403	22.11
547.829	22.13
548.256	22.14
548.682	22.15
549.108	22.18
549.535	22.21
549.961	22.23
550.387	22.23
550.813	22.24
551.24	22.24
551.666	22.23
552.092	22.24
552.518	22.23
552.943	22.22
553.369	22.21
553.795	22.2
554.221	22.18
554.646	22.15
555.072	22.11
555.498	22.09
555.923	22.06
556.349	22.02
556.774	21.98
557.199	21.94
557.625	21.92
558.05	21.88
558.475	21.82
558.9	21.76
559.325	21.7
559.75	21.66
560.175	21.59
560.6	21.51
561.025	21.45
561.449	21.37
561.874	21.28
562.299	21.18
562.723	21.09
563.148	20.99
563.572	20.89
563.997	20.79
564.421	20.67
564.846	20.57
565.27	20.46
565.694	20.34
566.118	20.21
566.542	20.1
566.966	19.98
567.39	19.85
567.814	19.73
568.238	19.59
568.662	19.46
569.086	19.34
569.509	19.22
569.933	19.1
570.357	18.98
570.78	18.87
571.204	18.75
571.627	18.63
572.05	18.52
572.474	18.43
572.897	18.33
573.32	18.24
573.743	18.14
574.166	18.05
574.589	17.95
575.012	17.87
575.435	17.79
575.858	17.69
576.281	17.61
576.704	17.52
577.126	17.45
577.549	17.37
577.972	17.3
578.394	17.22
578.817	17.15
579.239	17.08
579.661	17.01
580.084	16.95
580.506	16.91
580.928	16.85
581.35	16.8
581.772	16.74
582.194	16.69
582.616	16.64
583.038	16.59
583.46	16.53
583.882	16.5
584.303	16.43
584.725	16.38
585.147	16.32
585.568	16.29
585.99	16.23
586.411	16.19
586.833	16.12
587.254	16.08
587.675	16.03
588.096	16
588.518	15.95
588.939	15.91
589.36	15.87
589.781	15.85
590.202	15.81
590.623	15.79
591.043	15.75
591.464	15.74
591.885	15.72
592.305	15.7
592.726	15.68
593.147	15.65
593.567	15.62
593.987	15.58
594.408	15.56
594.828	15.53
595.248	15.5
595.669	15.47
596.089	15.44
596.509	15.42
596.929	15.39
597.349	15.36
597.769	15.34
598.189	15.32
598.608	15.32
599.028	15.29
599.448	15.27
599.867	15.23
600.287	15.21
600.706	15.18
601.126	15.14
601.545	15.11
601.965	15.07
602.384	15.03
602.803	14.98
603.222	14.93
603.641	14.87
604.061	14.81
604.48	14.76
604.898	14.7
605.317	14.64
605.736	14.59
606.155	14.54
606.574	14.48
606.992	14.41
607.411	14.36
607.829	14.29
608.248	14.24
608.666	14.18
609.085	14.13
609.503	14.07
609.921	14.01
610.339	13.95
610.758	13.89
611.176	13.82
611.594	13.77
612.012	13.71
612.43	13.67
612.847	13.61
613.265	13.55
613.683	13.49
614.101	13.44
614.518	13.39
614.936	13.32
615.353	13.27
615.771	13.22
616.188	13.17
616.606	13.12
617.023	13.08
617.44	13.04
617.857	13.01
618.274	12.96
618.691	12.91
619.108	12.87
619.525	12.86
619.942	12.83
620.359	12.79
620.776	12.76
621.192	12.74
621.609	12.71
622.026	12.68
622.442	12.66
622.859	12.65
623.275	12.62
623.691	12.61
624.108	12.57
624.524	12.56
624.94	12.55
625.356	12.55
625.772	12.53
626.188	12.52
626.604	12.5
627.02	12.48
627.436	12.46
627.852	12.46
628.268	12.45
628.683	12.44
629.099	12.43
629.514	12.41
629.93	12.39
630.345	12.38
630.761	12.35
631.176	12.33
631.591	12.3
632.007	12.28
632.422	12.25
632.837	12.22
633.252	12.17
633.667	12.13
634.082	12.09
634.497	12.05
634.911	12
635.326	11.95
635.741	11.9
636.155	11.84
636.57	11.77
636.984	11.7
637.399	11.63
637.813	11.57
638.228	11.49
638.642	11.4
639.056	11.32
639.47	11.25
639.884	11.17
640.298	11.09
640.712	11.02
641.126	10.95
641.54	10.86
641.954	10.78
642.368	10.7
642.781	10.63
643.195	10.57
643.609	10.49
644.022	10.41
644.436	10.34
644.849	10.26
645.262	10.19
645.676	10.12
646.089	10.07
646.502	10.01
646.915	9.96
647.328	9.91
647.741	9.86
648.154	9.83
648.567	9.79
648.98	9.76
649.393	9.73
649.805	9.7
650.218	9.67
650.631	9.65
651.043	9.63
651.456	9.6
651.868	9.57
652.28	9.53
652.693	9.5
653.105	9.46
653.517	9.42
653.929	9.39
654.341	9.35
654.753	9.3
655.165	9.25
655.577	9.19
655.989	9.14
656.401	9.09
656.813	9.04
657.224	8.97
657.636	8.91
658.047	8.86
658.459	8.8
658.87	8.74
659.282	8.69
659.693	8.63
660.104	8.56
660.515	8.5
660.926	8.44
661.338	8.38
661.749	8.32
662.159	8.26
662.57	8.2
662.981	8.16
663.392	8.09
663.803	8.05
664.213	8.01
664.624	7.97
665.035	7.94
665.445	7.91
665.855	7.88
666.266	7.85
666.676	7.84
667.086	7.81
667.497	7.78
667.907	7.78
668.317	7.76
668.727	7.73
669.137	7.72
669.547	7.71
669.956	7.69
670.366	7.69
670.776	7.68
671.186	7.69
671.595	7.69
672.005	7.69
672.414	7.69
672.824	7.69
673.233	7.7
673.642	7.71
674.052	7.72
674.461	7.73
674.87	7.74
675.279	7.76
675.688	7.77
676.097	7.79
676.506	7.82
676.915	7.84
677.323	7.86
677.732	7.89
678.141	7.92
678.549	7.95
678.958	7.99
679.366	8.04
679.775	8.08
680.183	8.13
680.592	8.2
681	8.27
681.408	8.33
681.816	8.42
682.224	8.5
682.632	8.6
683.04	8.7
683.448	8.81
683.856	8.92
684.264	9.06
684.671	9.2
685.079	9.35
685.487	9.52
685.894	9.72
686.302	9.92
686.709	10.15
687.116	10.38
687.524	10.63
687.931	10.91
688.338	11.21
688.745	11.52
689.152	11.84
689.559	12.17
689.966	12.52
690.373	12.87
690.78	13.25
691.187	13.63
691.593	14.03
692	14.44
692.407	14.83
692.813	15.24
693.22	15.66
693.626	16.09
694.032	16.53
694.439	16.96
694.845	17.4
695.251	17.85
695.657	18.27
696.063	18.72
696.469	19.15
696.875	19.58
697.281	20.02
697.687	20.46
698.093	20.88
698.498	21.29
698.904	21.71
699.31	22.12
699.715	22.51
700.12	22.91
700.526	23.31
700.931	23.69
701.337	24.08
701.742	24.45
702.147	24.8
702.552	25.16
702.957	25.51
703.362	25.88
703.767	26.21
704.172	26.58
704.577	26.92
704.981	27.25
705.386	27.59
705.791	27.9
706.195	28.24
706.6	28.57
707.004	28.87
707.408	29.19
707.813	29.49
708.217	29.8
708.621	30.08
709.025	30.35
709.43	30.61
709.834	30.9
710.237	31.18
710.641	31.44
711.045	31.7
711.449	31.98
711.853	32.23
712.256	32.48
712.66	32.71
713.064	32.97
713.467	33.22
713.87	33.45
714.274	33.66
714.677	33.88
715.08	34.08
715.484	34.31
715.887	34.54
716.29	34.74
716.693	34.95
717.096	35.18
717.499	35.36
717.901	35.59
718.304	35.8
718.707	36.01
719.109	36.22
719.512	36.43
719.915	36.61
720.317	36.78
720.719	36.94
721.122	37.11
721.524	37.25
721.926	37.44
722.328	37.59
722.731	37.73
723.133	37.91
723.535	38.05
723.937	38.2
724.338	38.33
724.74	38.46
725.142	38.63
725.544	38.74
725.945	38.89
726.347	38.98
726.748	39.09
727.15	39.2
727.551	39.28
727.952	39.37
728.354	39.47
728.755	39.56
729.156	39.67
729.557	39.71
729.958	39.82
730.359	39.9
730.76	39.99
731.161	40.07
731.562	40.17
731.962	40.23
732.363	40.32
732.763	40.38
733.164	40.45
733.564	40.52
733.965	40.59
734.365	40.64
734.766	40.68
735.166	40.74
735.566	40.79
735.966	40.83
736.366	40.87
736.766	40.9
737.166	40.94
737.566	40.98
737.966	41.02
738.365	41.06
738.765	41.09
739.165	41.11
739.564	41.13
739.964	41.16
740.363	41.16
740.763	41.2
741.162	41.23
741.561	41.23
741.96	41.24
742.36	41.25
742.759	41.26
743.158	41.27
743.557	41.29
743.955	41.34
744.354	41.37
744.753	41.41
745.152	41.46
745.55	41.51
745.949	41.56
746.348	41.59
746.746	41.62
747.144	41.68
747.543	41.7
747.941	41.74
748.339	41.74
748.737	41.74
749.136	41.74
749.534	41.72
749.932	41.71
750.33	41.7
750.727	41.72
751.125	41.73
751.523	41.71
751.921	41.7
752.318	41.71
752.716	41.72
753.113	41.73
753.511	41.74
753.908	41.74
754.305	41.73
754.703	41.71
755.1	41.68
755.497	41.66
755.894	41.62
756.291	41.6
756.688	41.54
757.085	41.52
757.482	41.49
757.878	41.46
758.275	41.43
758.672	41.43
759.068	41.45
759.465	41.44
759.861	41.45
760.258	41.46
760.654	41.44
761.05	41.46
761.447	41.48
761.843	41.46
762.239	41.45
762.635	41.46
763.031	41.45
763.427	41.45
763.822	41.46
764.218	41.47
764.614	41.49
765.01	41.5
765.405	41.53
765.801	41.53
766.196	41.53
766.592	41.54
766.987	41.56
767.382	41.56
767.778	41.56
768.173	41.57
768.568	41.57
768.963	41.55
769.358	41.56
769.753	41.56
770.148	41.55
770.542	41.58
770.937	41.6
771.332	41.56
771.726	41.58
772.121	41.57
772.515	41.57
772.91	41.57
773.304	41.57
773.699	41.57
774.093	41.56
774.487	41.57
774.881	41.57
775.275	41.56
775.669	41.58
776.063	41.57
776.457	41.57
776.851	41.58
777.245	41.56
777.638	41.56
778.032	41.56
778.425	41.59
778.819	41.57
779.212	41.59
779.606	41.6
779.999	41.62
780.392	41.63
780.786	41.64
781.179	41.62
781.572	41.64
781.965	41.66
782.358	41.65
782.751	41.64
783.143	41.63
783.536	41.61
783.929	41.61
784.322	41.62
784.714	41.63
785.107	41.65
785.499	41.66
785.891	41.67
786.284	41.68
786.676	41.69
787.068	41.7
787.46	41.73
787.852	41.74
788.245	41.71
788.636	41.67
789.028	41.66
789.42	41.66
789.812	41.64
790.204	41.65
790.595	41.66
790.987	41.67
791.378	41.7
791.77	41.69
792.161	41.68
792.553	41.71
792.944	41.74
793.335	41.74
793.726	41.73
794.117	41.73
794.508	41.69
794.899	41.69
795.29	41.68
795.681	41.67
796.072	41.69
796.463	41.68
796.853	41.69
797.244	41.66
797.634	41.69
798.025	41.69
798.415	41.71
798.806	41.72
799.196	41.71
799.586	41.71
799.976	41.71
800.366	41.68
800.756	41.71
801.146	41.71
801.536	41.76
801.926	41.75
802.316	41.77
802.706	41.77
803.095	41.78
803.485	41.79
803.874	41.8
804.264	41.82
804.653	41.84
805.043	41.83
805.432	41.83
805.821	41.83
806.21	41.8
806.599	41.81
806.988	41.82
807.377	41.82
807.766	41.84
808.155	41.83
808.544	41.82
808.933	41.81
809.321	41.8
809.71	41.8
810.098	41.8
810.487	41.8
810.875	41.78
811.264	41.79
811.652	41.82
812.04	41.81
812.428	41.84
812.816	41.81
813.204	41.83
813.592	41.85
813.98	41.85
814.368	41.89
814.756	41.88
815.144	41.89
815.531	41.88
815.919	41.86
816.306	41.87
816.694	41.85
817.081	41.88
817.469	41.87
817.856	41.86
818.243	41.86
818.63	41.79
819.017	41.81
819.404	41.79
819.791	41.78
820.178	41.79
820.565	41.79
820.952	41.79
821.339	41.77
821.725	41.77
822.112	41.78
822.498	41.77
822.885	41.82
823.271	41.82
823.657	41.82
824.044	41.82
824.43	41.8
824.816	41.79
825.202	41.78
825.588	41.77
825.974	41.75
826.36	41.76
826.746	41.75
827.132	41.73
827.517	41.71
827.903	41.73
828.289	41.72
828.674	41.69
829.06	41.68
829.445	41.63
829.83	41.62
830.216	41.61
830.601	41.56
830.986	41.55
831.371	41.52
831.756	41.5
832.141	41.49
832.526	41.47
832.911	41.45
833.295	41.44
833.68	41.45
834.065	41.43
834.449	41.39
834.834	41.38
835.218	41.37
835.603	41.36
835.987	41.35
836.371	41.31
836.755	41.29
837.139	41.27
837.524	41.26
837.908	41.3
838.291	41.32
838.675	41.33
839.059	41.33
839.443	41.29
839.827	41.28
840.21	41.27
840.594	41.25
840.977	41.26
841.361	41.28
841.744	41.24
842.127	41.18
842.511	41.15
842.894	41.13
843.277	41.11
843.66	41.11
844.043	41.1
844.426	41.09
844.809	41.11
845.191	41.12
845.574	41.12
845.957	41.14
846.339	41.14
846.722	41.15
847.104	41.18
847.487	41.18
847.869	41.16
848.252	41.16
848.634	41.16
849.016	41.16
849.398	41.14
849.78	41.11
850.162	41.1
850.544	41.11
850.926	41.09
851.307	41.08
851.689	41.09
852.071	41.11
852.452	41.12
852.834	41.12
853.215	41.11
853.597	41.12
853.978	41.13
854.359	41.14
854.741	41.12
855.122	41.13
855.503	41.12
855.884	41.12
856.265	41.13
856.646	41.12
857.026	41.13
857.407	41.14
857.788	41.14
858.169	41.17
858.549	41.17
858.93	41.18
859.31	41.19
859.69	41.21
860.071	41.22
860.451	41.21
860.831	41.21
861.211	41.19
861.591	41.18
861.971	41.18
862.351	41.17
862.731	41.18
863.111	41.16
863.491	41.15
863.87	41.16
864.25	41.14
864.629	41.13
865.009	41.14
865.388	41.14
865.768	41.14
866.147	41.14
866.526	41.14
866.905	41.13
867.284	41.17
867.663	41.17
868.042	41.17
868.421	41.19
868.8	41.2
869.179	41.19
869.558	41.18
869.936	41.16
870.315	41.14
870.693	41.14
871.072	41.15
871.45	41.13
871.828	41.13
872.207	41.12
872.585	41.08
872.963	41.07
873.341	41.08
873.719	41.07
874.097	41.1
874.475	41.11
874.853	41.12
875.23	41.12
875.608	41.11
875.986	41.11
876.363	41.12
876.741	41.15
877.118	41.14
877.495	41.15
877.873	41.18
878.25	41.17
878.627	41.19
879.004	41.17
879.381	41.19
879.758	41.18
880.135	41.18
880.512	41.16
880.889	41.16
881.265	41.17
881.642	41.17
882.019	41.16
882.395	41.16
882.772	41.13
883.148	41.13
883.524	41.11
883.901	41.1
884.277	41.05
884.653	41.04
885.029	41.03
885.405	41.02
885.781	41.01
886.157	41
886.532	40.99
886.908	40.96
887.284	40.96
887.659	40.95
888.035	40.95
888.411	40.97
888.786	40.97
889.161	40.97
889.537	40.96
889.912	40.95
890.287	40.92
890.662	40.89
891.037	40.9
891.412	40.89
891.787	40.87
892.162	40.87
892.536	40.86
892.911	40.84
893.286	40.8
893.66	40.78
894.035	40.76
894.409	40.73
894.784	40.76
895.158	40.74
895.532	40.73
895.906	40.71
896.281	40.7
896.655	40.68
897.029	40.7
897.402	40.68
897.776	40.69
898.15	40.71
898.524	40.74
898.898	40.72
899.271	40.73
899.645	40.75
900.018	40.76
900.392	40.77
900.765	40.79
901.138	40.78
901.511	40.81
901.884	40.83
902.258	40.85
902.631	40.84
903.003	40.84
903.376	40.85
903.749	40.85
904.122	40.9
904.495	40.9
904.867	40.93
905.24	40.94
905.612	40.98
905.985	40.97
906.357	40.96
906.729	41
907.102	41.01
907.474	41.04
907.846	41.06
908.218	41.03
908.59	41.06
908.962	41.04
909.334	41.03
909.705	41.01
910.077	41.03
910.449	41.02
910.82	41
911.192	41
911.563	40.97
911.935	40.93
912.306	40.95
912.677	40.95
913.048	40.98
913.419	41
913.79	41
914.161	40.99
914.532	40.97
914.903	40.98
915.274	41
915.645	41.01
916.015	41.05
916.386	41.04
916.756	41.04
917.127	41.04
917.497	41.03
917.868	41.02
918.238	41.03
918.608	41.07
918.978	41.05
919.348	41.04
919.718	41.05
920.088	41.03
920.458	41.03
920.828	41.02
921.198	40.99
921.567	41.02
921.937	41.06
922.306	41.05
922.676	41.06
923.045	41.08
923.415	41.05
923.784	41.04
924.153	41.06
924.522	41.09
924.891	41.09
925.26	41.11
925.629	41.1
925.998	41.08
926.367	41.07
926.736	41.04
927.104	41.04
927.473	41.05
927.842	41.02
928.21	41.01
928.578	40.97
928.947	40.97
929.315	40.92
929.683	40.88
930.051	40.88
930.42	40.89
930.788	40.87
931.156	40.83
931.523	40.83
931.891	40.87
932.259	40.83
932.627	40.82
932.994	40.84
933.362	40.83
933.729	40.87
934.097	40.85
934.464	40.84
934.831	40.85
935.199	40.86
935.566	40.86
935.933	40.8
936.3	40.83
936.667	40.79
937.034	40.78
937.401	40.82
937.767	40.83
938.134	40.86
938.501	40.89
938.867	40.94
939.234	40.99
939.6	41.03
939.967	41.14
940.333	41.22
940.699	41.36
941.065	41.4
941.431	41.46
941.798	41.46
942.163	41.49
942.529	41.52
942.895	41.6
943.261	41.63
943.627	41.67
943.992	41.66
944.358	41.62
944.723	41.56
945.089	41.56
945.454	41.58
945.82	41.56
946.185	41.52
946.55	41.48
946.915	41.39
947.28	41.34
947.645	41.35
948.01	41.32
948.375	41.32
948.74	41.31
949.104	41.33
949.469	41.25
949.834	41.26
950.198	41.3
950.562	41.28
950.927	41.28
951.291	41.23
951.655	41.17
952.02	41.18
952.384	41.12
952.748	41.09
953.112	41.03
953.476	40.97
953.839	40.91
954.203	40.83
954.567	40.82
954.931	40.75
955.294	40.76
955.658	40.81
956.021	40.76
956.385	40.73
956.748	40.7
957.111	40.71
957.474	40.73
957.837	40.67
958.2	40.64
958.563	40.57
958.926	40.58
959.289	40.58
959.652	40.47
960.015	40.42
960.377	40.4
960.74	40.41
961.102	40.37
961.465	40.38
961.827	40.44
962.189	40.45
962.552	40.44
962.914	40.46
963.276	40.45
963.638	40.48
964	40.45
964.362	40.5
964.724	40.53
965.085	40.55
965.447	40.51
965.809	40.51
966.17	40.49
966.532	40.5
966.893	40.44
967.255	40.43
967.616	40.4
967.977	40.4
968.338	40.38
968.699	40.34
969.061	40.3
969.421	40.32
969.782	40.32
970.143	40.33
970.504	40.32
970.865	40.34
971.225	40.32
971.586	40.32
971.946	40.34
972.307	40.34
972.667	40.3
973.027	40.35
973.388	40.34
973.748	40.33
974.108	40.41
974.468	40.39
974.828	40.45
975.188	40.47
975.548	40.48
975.907	40.5
976.267	40.57
976.627	40.61
976.986	40.61
977.346	40.6
977.705	40.54
978.064	40.5
978.424	40.56
978.783	40.54
979.142	40.49
979.501	40.52
979.86	40.51
980.219	40.49
980.578	40.51
980.937	40.53
981.296	40.56
981.654	40.6
982.013	40.66
982.371	40.61
982.73	40.64
983.088	40.64
983.447	40.59
983.805	40.66
984.163	40.64
984.521	40.65
984.879	40.66
985.237	40.62
985.595	40.69
985.953	40.61
986.311	40.6
986.669	40.62
987.026	40.75
987.384	40.87
987.741	40.81
988.099	40.84
988.456	40.8
988.814	40.77
989.171	40.81
989.528	40.82
989.885	40.8
990.242	40.88
990.599	40.93
990.956	40.95
991.313	40.9
991.67	40.98
992.027	41.01
992.383	41.05
992.74	41.12
993.096	41.11
993.453	41.08
993.809	41.2
994.165	41.17
994.522	41.2
994.878	41.2
995.234	41.22
995.59	41.25
995.946	41.27
996.302	41.4
996.658	41.43
997.013	41.49
997.369	41.53
997.725	41.55
998.08	41.65
998.436	41.67
998.791	41.72
999.147	41.77
999.502	41.87
999.857	41.95
1000.212	41.81
1000.567	41.92
1000.922	41.97
1001.277	42.09
1001.632	42.08
1001.987	42.13
1002.342	42.09
1002.696	42.04
1003.051	42.14
1003.406	42.22
1003.76	42.2
1004.114	42.29
1004.469	42.22
1004.823	42.45
1005.177	42.44
1005.531	42.69
1005.885	42.68
1006.239	42.64
1006.593	42.72
1006.947	42.72
1007.301	42.55
1007.655	42.61
1008.008	42.71
1008.362	42.92
1008.715	42.84
1009.069	42.91
1009.422	42.74
1009.776	42.85
1010.129	43.08
1010.482	43.19
1010.835	43.2
1011.188	43.37
1011.541	43.37
1011.894	43.41
1012.247	43.31
1012.6	43.35
1012.952	43.43
1013.305	43.6
1013.657	43.69
1014.01	43.81
1014.362	43.87
1014.715	43.97
1015.067	44.25
1015.419	44.42
1015.771	44.4
1016.123	44.45
1016.475	44.44
1016.827	44.61
1017.179	44.74
1017.531	44.75
1017.883	44.87
1018.234	44.97
1018.586	45.08
1018.938	45.05
1019.289	45.01
1019.64	45.29
1019.992	45.39
1020.343	45.47
1020.694	45.36
1021.045	45.2
1021.396	45.28
1021.747	45.24
1022.098	45.31
1022.449	45.37
1022.8	45.4
1023.151	45.44
1023.501	45.57
1023.852	45.77
1024.202	45.85
1024.553	45.97
1024.903	46.11
1025.253	46.41
1025.604	46.6
1025.954	46.56
1026.304	46.77
1026.654	46.73
1027.004	46.72
1027.354	46.58
1027.703	46.47
1028.053	46.58
1028.403	46.84
1028.753	46.85
1029.102	46.98
1029.452	47.25
1029.801	47.7
1030.15	47.63
1030.499	47.78
897.758	978.49
901.051	980.58
904.343	978.02
907.636	992.68
910.928	967.01
914.22	966.42
917.511	951.55
920.803	911.29
924.094	907.56
927.384	882.5
930.675	851.1
933.965	846.02
937.255	797.67
940.544	767.28
943.834	732.12
947.123	724.64
950.411	684.03
953.7	671.5
956.988	633.37
960.276	610.38
963.563	602.58
966.851	578.94
970.138	572.82
973.424	556.65
976.711	557.06
979.997	531.35
983.283	529.65
986.568	517.64
989.853	502.29
993.138	494.49
996.423	474.98
999.708	461.72
1002.992	457.39
1006.275	438.22
1009.559	434.12
1012.842	419.3
1016.125	408.06
1019.408	399.36
1022.69	396.82
1025.972	387.49
1029.254	378.69
1032.536	372.76
1035.817	365.04
1039.098	360.03
1042.379	353.54
1045.659	348.94
1048.939	341.6
1052.219	335.3
1055.498	331.18
1058.778	322.06
1062.057	316.98
1065.335	313.72
1068.614	310.08
1071.892	307
1075.17	298.86
1078.447	293.34
1081.724	291.15
1085.001	288.69
1088.278	283.04
1091.554	278.5
1094.83	278.01
1098.106	276.08
1101.382	273.14
1104.657	270.78
1107.932	266.39
1111.206	266.68
1114.481	260.9
1117.755	258.83
1121.029	257.01
1124.302	256.31
1127.575	251.76
1130.848	249.44
1134.121	246.25
1137.393	245.43
1140.665	240.91
1143.937	238.9
1147.208	238.56
1150.48	237.55
1153.75	233.83
1157.021	231.08
1160.291	231.08
1163.561	228.01
1166.831	227.33
1170.101	226
1173.37	226.09
1176.639	226.58
1179.907	225.34
1183.176	222.23
1186.444	222.23
1189.711	222.41
1192.979	221.4
1196.246	219.89
1199.513	221.53
1202.78	220.78
1206.046	220.59
1209.312	217.66
1212.578	217.66
1215.843	218.75
1219.108	217.62
1222.373	221.85
1225.638	223.34
1228.902	226.11
1232.166	225.92
1235.43	226.38
1238.693	229.81
1241.956	230.97
1245.219	234.2
1248.482	235.17
1251.744	234.92
1255.006	236.82
1258.268	230.8
1261.529	229.25
1264.79	227.99
1268.051	227.06
1271.312	224.52
1274.572	221.09
1277.832	220.08
1281.092	216.44
1284.351	214.8
1287.61	215.17
1290.869	210.85
1294.128	210.07
1297.386	209.7
1300.644	207.5
1303.902	208.33
1307.159	208.01
1310.416	208.59
1313.673	207.3
1316.93	209.6
1320.186	209.01
1323.442	209.23
1326.697	212.48
1329.953	213.84
1333.208	213.89
1336.463	217.16
1339.717	217.3
1342.972	219.84
1346.226	220.88
1349.479	221.69
1352.733	222.64
1355.986	224.49
1359.238	223.99
1362.491	225.22
1365.743	226.23
1368.995	227.02
1372.247	225.39
1375.498	225.57
1378.749	226.19
1382	223.84
1385.251	224.09
1388.501	222.84
1391.751	222.22
1395	221.35
1398.25	219.53
1401.499	217.36
1404.748	217.27
1407.996	214.55
1411.244	213.38
1414.492	211.42
1417.74	209.41
1420.987	206.55
1424.234	205.82
1427.481	203.65
1430.728	203.52
1433.974	201.6
1437.22	200.27
1440.465	198.93
1443.711	197.27
1446.956	196.63
1450.201	194.88
1453.445	193.03
1456.689	192
1459.933	189.52
1463.177	186.98
1466.42	184.57
1469.663	182.21
1472.906	181.25
1476.148	176.69
1479.391	175.31
1482.633	173.51
1485.874	171.31
1489.115	170.13
1492.356	168.47
1495.597	167.57
1498.838	166.22
1502.078	164.83
1505.318	164.65
1508.557	164.48
1511.797	165.08
1515.036	163.28
1518.274	162.79
1521.513	161.56
1524.751	161.16
1527.989	161.46
1531.227	160.64
1534.464	160.89
1537.701	161.07
1540.938	160.38
1544.174	158.4
1547.41	158.48
1550.646	158.47
1553.882	158.12
1557.117	156.28
1560.352	156.37
1563.587	155.5
1566.821	154.77
1570.055	153.71
1573.289	151.78
1576.523	151.95
1579.756	151.35
1582.989	150.01
1586.222	149.76
1589.454	149.64
1592.686	150.98
1595.918	149.73
1599.15	149.23
1602.381	149.73
1605.612	149.35
1608.843	149.96
1612.073	150.33
1615.303	150.99
1618.533	151.33
1621.762	151.47
1624.992	151.7
1628.221	151.23
1631.449	150.89
1634.678	151.12
1637.906	151.92
1641.134	151.68
1644.361	151.41
1647.588	151.22
1650.815	151
1654.042	150.41
1657.269	150.92
1660.495	150.44
1663.72	150.14
1666.946	151.19
1670.171	151.55
1673.396	151.11
1676.621	151.3
1679.845	151.6
1683.069	151.94
1686.293	152.49
1689.517	153.62
1692.74	153.66
1695.963	154.29
1699.185	155.92
1702.408	155.56
1705.63	155.65
1708.852	156.16
1712.073	156.78
1715.294	157.13
1718.515	157.86
1721.736	157.7
1724.956	158
1728.176	157.89
1731.396	158.78
1734.616	157.97
1737.835	159
1741.054	158.06
1744.272	158.26
1747.491	159.43
1750.709	160.06
1753.927	159.53
1757.144	159.01
1760.361	159.09
1763.578	159.55
1766.795	159.1
1770.011	160.45
1773.227	160.62
1776.443	162.23
1779.658	162.39
1782.874	162.5
1786.089	162.19
1789.303	163
1792.518	164.85
1795.732	164.96
1798.945	165.84
1802.159	166.37
1805.372	166.51
1808.585	168.49
1811.797	169.01
1815.01	169.96
1818.222	170.39
1821.434	173.55
1824.645	173.32
1827.856	175.91
1831.067	177.13
1834.278	177.85
1837.488	179.03
1840.698	179.68
1843.908	178.44
1847.117	178.79
1850.326	179.83
1853.535	178.74
1856.744	179.95
1859.952	180.32
1863.16	178.7
1866.368	177.96
1869.575	177.78
1872.782	175.23
1875.989	174.52
1879.196	173.94
1882.402	173.04
1885.608	172.29
1888.814	172.59
1892.019	171.44
1895.224	170.42
1898.429	170.05
1901.634	170.29
1904.838	170.91
1908.042	171.65
1911.246	172.07
1914.449	172.37
1917.652	172.82
1920.855	172.74
1924.058	172.87
1927.26	171.67
1930.462	172.08
1933.664	174.05
1936.865	171.95
1940.066	171.39
1943.267	171.37
1946.467	171.56
1949.668	172.45
1952.868	174.31
1956.067	175.28
1959.267	174.92
1962.466	175.7
1965.665	175.03
1968.863	175.22
1972.061	179.32
1975.259	180.85
1978.457	181.72
1981.654	183.28
1984.852	183.94
1988.048	183.06
1991.245	184.44
1994.441	187.08
1997.637	188.28
2000.833	192.66
2004.028	194.84
2007.223	195.22
2010.418	197.26
2013.613	200.97
2016.807	202.98
2020.001	204.31
2023.194	207.8
2026.388	212.68
2029.581	217.03
2032.774	218.6
2035.966	222.1
2039.158	222.97
2042.35	226.46
2045.542	228.38
2048.733	230.99
2051.924	235.58
2055.115	238.84
2058.306	239.54
2061.496	240.52
2064.686	241.92
2067.875	246.88
2071.065	247.45
2074.254	245.33
2077.442	249.95
2080.631	250.38
2083.819	253.39
2087.007	253.19
2090.195	256.88
2093.382	259.49
2096.569	258.71
2099.756	261.89
2102.942	262.59
2106.128	264.33
2109.314	272.45
2112.5	270.48
2115.685	276.5
2118.87	276.68
2122.055	281.58
2125.239	283.29
2128.424	286.29
2131.608	289.84
2134.791	293.83
2137.974	294.67
2141.157	295.67
2144.34	295.23
2147.523	301.3
2150.705	299.81
2153.887	302.98
2157.068	303.03
2160.25	300.5
2163.431	302.66
2166.611	304.93
2169.792	309.77
2172.972	313.78
2176.152	317.81
2179.331	320.9
2182.511	323.97
2185.69	327.45
2188.868	333.39
2192.047	334.81
2195.225	345.04
2198.403	351.93
2201.58	357.25
2204.758	364.73
2207.935	370.34
2211.111	377.85
2214.288	381.78
2217.464	382.8
2220.64	389.04
2223.815	393.73
2226.991	409.28
2230.166	409.94
2233.34	415.77
2236.515	423.01
2239.689	424.27
2242.863	428.05
2246.036	435.35
2249.209	433.56
2252.382	441.84
2255.555	454.72
2258.727	456.5
2261.9	459.53
2265.071	463.91
2268.243	472.78
2271.414	478.26
2274.585	485.96
2277.756	488.84
2280.926	493.82
2284.096	506.98
2287.266	517.23
2290.436	520.18
2293.605	531.61
2296.774	547.3
2299.942	563.34
2303.111	566.27
2306.279	579.19
2309.447	589.94
2312.614	605.66
2315.781	623.54
2318.948	650.34
2322.115	640.15
2325.281	675.27
2328.447	664.56
2331.613	687.03
2334.779	682.01
2337.944	709.94
2341.109	715.61
2344.274	733
2347.438	759.75
2350.602	758.53
2353.766	782.64
2356.929	795.32
2360.092	789.97
2363.255	844.26
2366.418	845.18
2369.58	860.72
2372.742	913.82
2375.904	938.96
2379.066	934.28
2382.227	915.8
2385.388	993.31
2388.548	987.68
2391.709	1002.68
2394.869	1113.58
2398.029	1068.46
2401.188	1098.29
2404.347	1091.26
2407.506	1071.3
2410.665	1098.09
2413.823	1167.52
2416.981	1234.35
2420.139	1200.22
2423.296	1188.43
2426.453	1244.03
2429.61	1199.4
2432.767	1249.09
2435.923	1235.22
2439.079	1350.94
2442.235	1376
2445.391	1367.59
2448.546	1348.47
2451.701	1313.73
2454.855	1306.91
2458.009	1392.85
2461.163	1443.2
2464.317	1489.43
2467.471	1528.39
2470.624	1534.78
2473.777	1489.08
2476.929	1444.78
2480.082	1398.68
2483.234	1387.91
2486.385	1461.07
2489.537	1472.53
2492.688	1523.59
2495.839	1479.88
2498.989	1449.2
2502.14	1454.29
2505.29	1464.95
2508.439	1492.13
2511.589	1493.27
2514.738	1632.49
2517.887	1594.45
2521.035	1680.43
2524.183	1686.63
2527.331	1695.29
2530.479	1683.81
2533.627	1699.97
