Data from C_3_DIV_OH_2N_Splice17_13-48-10-086.txt Node
Date: Sat Mar 07 13:48:10 EST 2020
User: sa697716
Spectrometer: NQ5500242
Trigger mode: 0
Integration Time (sec): 1.450000E-1
Scans to average: 20
Nonlinearity correction enabled: false
Boxcar width: 5
Storing dark spectrum: false
XAxis mode: Wavelengths
Number of Pixels in Spectrum: 512
>>>>>Begin Spectral Data<<<<<
187.83	269.13
188.298	304.76
188.766	270.34
189.233	216.89
189.701	231.48
190.169	278.75
190.636	303.74
191.104	460.34
191.571	224.75
192.039	-79.33
192.506	138.93
192.974	-57.31
193.441	43.45
193.908	44.62
194.375	54.93
194.842	44.49
195.31	151.75
195.777	342.46
196.244	74.98
196.711	44.7
197.177	42.98
197.644	41.22
198.111	41.35
198.578	41.15
199.045	41.08
199.511	40.79
199.978	40.53
200.445	40.72
200.911	40.8
201.378	40.32
201.844	40.36
202.31	40.13
202.777	40.42
203.243	40.46
203.709	40.45
204.176	40.07
204.642	39.91
205.108	39.82
205.574	39.02
206.04	38.04
206.506	37.82
206.972	37.61
207.438	37.23
207.903	36.61
208.369	35.95
208.835	35.04
209.301	34.42
209.766	33.02
210.232	32.18
210.697	31.3
211.163	30.74
211.628	29.98
212.094	29.27
212.559	28.9
213.024	28.23
213.49	27.64
213.955	27.05
214.42	26.3
214.885	25.77
215.35	24.88
215.815	24.13
216.28	22.64
216.745	20.89
217.21	19.15
217.675	17.53
218.14	16.29
218.604	15.05
219.069	14.07
219.534	13.3
219.998	12.63
220.463	12.07
220.927	11.49
221.392	11.11
221.856	10.84
222.32	10.59
222.785	10.39
223.249	10.15
223.713	10
224.177	9.88
224.642	9.71
225.106	9.56
225.57	9.43
226.034	9.33
226.497	9.22
226.961	9.12
227.425	9.03
227.889	8.92
228.353	8.82
228.816	8.7
229.28	8.59
229.744	8.5
230.207	8.41
230.671	8.33
231.134	8.25
231.597	8.18
232.061	8.08
232.524	7.98
232.987	7.89
233.45	7.83
233.914	7.77
234.377	7.69
234.84	7.62
235.303	7.57
235.766	7.5
236.229	7.42
236.691	7.36
237.154	7.31
237.617	7.25
238.08	7.19
238.542	7.12
239.005	7.08
239.468	7.03
239.93	6.97
240.393	6.93
240.855	6.87
241.317	6.82
241.78	6.76
242.242	6.69
242.704	6.65
243.166	6.6
243.629	6.57
244.091	6.51
244.553	6.46
245.015	6.42
245.477	6.36
245.939	6.3
246.4	6.26
246.862	6.2
247.324	6.16
247.786	6.12
248.247	6.06
248.709	6
249.17	5.94
249.632	5.91
250.093	5.88
250.555	5.84
251.016	5.81
251.477	5.78
251.939	5.75
252.4	5.72
252.861	5.67
253.322	5.65
253.783	5.62
254.244	5.6
254.705	5.56
255.166	5.52
255.627	5.48
256.088	5.45
256.549	5.42
257.009	5.38
257.47	5.34
257.931	5.31
258.391	5.27
258.852	5.24
259.312	5.2
259.773	5.16
260.233	5.14
260.694	5.12
261.154	5.08
261.614	5.06
262.074	5.03
262.534	5.01
262.994	4.99
263.455	4.96
263.915	4.94
264.374	4.92
264.834	4.91
265.294	4.89
265.754	4.87
266.214	4.86
266.673	4.85
267.133	4.84
267.593	4.82
268.052	4.82
268.512	4.81
268.971	4.81
269.431	4.8
269.89	4.79
270.349	4.78
270.809	4.77
271.268	4.76
271.727	4.75
272.186	4.75
272.645	4.74
273.104	4.73
273.563	4.72
274.022	4.7
274.481	4.7
274.94	4.7
275.399	4.68
275.857	4.68
276.316	4.67
276.775	4.66
277.233	4.65
277.692	4.65
278.15	4.64
278.609	4.64
279.067	4.63
279.525	4.62
279.984	4.6
280.442	4.59
280.9	4.58
281.358	4.57
281.816	4.57
282.274	4.56
282.732	4.55
283.19	4.54
283.648	4.52
284.106	4.51
284.564	4.5
285.021	4.5
285.479	4.5
285.937	4.48
286.394	4.48
286.852	4.47
287.309	4.46
287.767	4.45
288.224	4.44
288.682	4.43
289.139	4.41
289.596	4.4
290.053	4.38
290.511	4.36
290.968	4.35
291.425	4.34
291.882	4.33
292.339	4.32
292.796	4.3
293.252	4.3
293.709	4.3
294.166	4.29
294.623	4.29
295.079	4.27
295.536	4.26
295.992	4.25
296.449	4.25
296.905	4.24
297.362	4.23
297.818	4.22
298.274	4.22
298.731	4.2
299.187	4.18
299.643	4.17
300.099	4.17
300.555	4.16
301.011	4.15
301.467	4.15
301.923	4.13
302.379	4.13
302.835	4.13
303.291	4.12
303.746	4.12
304.202	4.13
304.658	4.13
305.113	4.13
305.569	4.13
306.024	4.13
306.479	4.12
306.935	4.12
307.39	4.12
307.845	4.11
308.301	4.12
308.756	4.11
309.211	4.1
309.666	4.1
310.121	4.1
310.576	4.1
311.031	4.1
311.486	4.09
311.94	4.09
312.395	4.09
312.85	4.08
313.305	4.07
313.759	4.08
314.214	4.08
314.668	4.07
315.123	4.07
315.577	4.06
316.032	4.06
316.486	4.05
316.94	4.05
317.394	4.04
317.849	4.03
318.303	4.02
318.757	4
319.211	3.99
319.665	3.97
320.119	3.96
320.572	3.95
321.026	3.93
321.48	3.92
321.934	3.9
322.387	3.9
322.841	3.9
323.295	3.91
323.748	3.9
324.202	3.9
324.655	3.9
325.108	3.91
325.562	3.91
326.015	3.92
326.468	3.92
326.921	3.92
327.374	3.91
327.827	3.91
328.28	3.91
328.733	3.91
329.186	3.91
329.639	3.92
330.092	3.91
330.545	3.91
330.997	3.9
331.45	3.91
331.903	3.91
332.355	3.92
332.808	3.91
333.26	3.9
333.713	3.89
334.165	3.88
334.617	3.87
335.069	3.86
335.522	3.85
335.974	3.86
336.426	3.85
336.878	3.83
337.33	3.83
337.782	3.84
338.234	3.84
338.686	3.84
339.137	3.85
339.589	3.84
340.041	3.85
340.493	3.84
340.944	3.83
341.396	3.84
341.847	3.82
342.299	3.8
342.75	3.79
343.201	3.76
343.653	3.75
344.104	3.73
344.555	3.72
345.006	3.7
345.457	3.7
345.908	3.69
346.359	3.69
346.81	3.7
347.261	3.7
347.712	3.7
348.163	3.7
348.613	3.71
349.064	3.72
349.515	3.73
349.965	3.73
350.416	3.72
350.866	3.72
351.317	3.72
351.767	3.72
352.217	3.73
352.668	3.74
353.118	3.74
353.568	3.74
354.018	3.75
354.468	3.75
354.918	3.75
355.368	3.76
355.818	3.77
356.268	3.77
356.718	3.78
357.168	3.77
357.617	3.77
358.067	3.78
358.517	3.8
358.966	3.8
359.416	3.82
359.865	3.82
360.315	3.84
360.764	3.85
361.213	3.87
361.663	3.88
362.112	3.9
362.561	3.92
363.01	3.94
363.459	3.95
363.908	3.96
364.357	3.98
364.806	4
365.255	4.02
365.703	4.05
366.152	4.07
366.601	4.09
367.05	4.11
367.498	4.13
367.947	4.16
368.395	4.19
368.844	4.23
369.292	4.25
369.74	4.29
370.189	4.32
370.637	4.35
371.085	4.37
371.533	4.41
371.981	4.44
372.429	4.48
372.877	4.53
373.325	4.56
373.773	4.6
374.221	4.63
374.669	4.67
375.116	4.7
375.564	4.76
376.012	4.81
376.459	4.86
376.907	4.93
377.354	4.98
377.801	5.05
378.249	5.11
378.696	5.17
379.143	5.24
379.591	5.3
380.038	5.36
380.485	5.42
380.932	5.49
381.379	5.55
381.826	5.6
382.273	5.66
382.72	5.71
383.166	5.78
383.613	5.84
384.06	5.9
384.506	5.98
384.953	6.05
385.4	6.13
385.846	6.21
386.292	6.27
386.739	6.32
387.185	6.39
387.631	6.47
388.078	6.54
388.524	6.61
388.97	6.68
389.416	6.76
389.862	6.82
390.308	6.88
390.754	6.95
391.2	7.03
391.645	7.1
392.091	7.18
392.537	7.24
392.983	7.29
393.428	7.36
393.874	7.4
394.319	7.46
394.765	7.51
395.21	7.56
395.655	7.6
396.101	7.63
396.546	7.67
396.991	7.71
397.436	7.75
397.881	7.8
398.326	7.82
398.771	7.87
399.216	7.89
399.661	7.9
400.106	7.92
400.551	7.94
400.995	7.94
401.44	7.95
401.885	7.96
402.329	7.97
402.774	7.98
403.218	8.01
403.663	8.01
404.107	8.01
404.551	8.02
404.995	8.01
405.44	8.01
405.884	8.02
406.328	8.01
406.772	7.99
407.216	7.98
407.66	7.97
408.104	7.93
408.547	7.93
408.991	7.92
409.435	7.91
409.879	7.93
410.322	7.94
410.766	7.94
411.209	7.95
411.653	7.95
412.096	7.96
412.54	7.97
412.983	7.97
413.426	8
413.869	8
414.312	8.01
414.756	8.01
415.199	7.99
415.642	7.98
416.085	7.98
416.527	7.99
416.97	7.98
417.413	7.96
417.856	7.95
418.298	7.93
418.741	7.93
419.184	7.91
419.626	7.91
420.069	7.91
420.511	7.91
420.953	7.93
421.396	7.92
421.838	7.92
422.28	7.92
422.722	7.94
423.164	7.93
423.606	7.92
424.048	7.91
424.49	7.89
424.932	7.86
425.374	7.81
425.816	7.75
426.258	7.73
426.699	7.71
427.141	7.69
427.582	7.67
428.024	7.66
428.465	7.65
428.907	7.63
429.348	7.6
429.789	7.6
430.231	7.62
430.672	7.64
431.113	7.65
431.554	7.66
431.995	7.65
432.436	7.65
432.877	7.66
433.318	7.68
433.759	7.7
434.2	7.74
434.64	7.76
435.081	7.77
435.522	7.76
435.962	7.77
436.403	7.79
436.843	7.8
437.284	7.81
437.724	7.83
438.164	7.84
438.604	7.85
439.045	7.89
439.485	7.91
439.925	7.93
440.365	7.96
440.805	7.99
441.245	8.05
441.685	8.11
442.125	8.17
442.564	8.2
443.004	8.23
443.444	8.28
443.883	8.31
444.323	8.34
444.762	8.4
445.202	8.44
445.641	8.51
446.081	8.55
446.52	8.6
446.959	8.66
447.398	8.73
447.837	8.79
448.276	8.82
448.716	8.89
449.154	8.96
449.593	9.01
450.032	9.06
450.471	9.09
450.91	9.11
451.349	9.15
451.787	9.16
452.226	9.17
452.664	9.2
453.103	9.23
453.541	9.25
453.98	9.29
454.418	9.28
454.856	9.3
455.295	9.3
455.733	9.31
456.171	9.31
456.609	9.31
457.047	9.32
457.485	9.32
457.923	9.33
458.361	9.31
458.798	9.3
459.236	9.3
459.674	9.29
460.111	9.3
460.549	9.32
460.987	9.32
461.424	9.33
461.862	9.35
462.299	9.35
462.736	9.35
463.173	9.37
463.611	9.39
464.048	9.4
464.485	9.42
464.922	9.42
465.359	9.4
465.796	9.45
466.233	9.45
466.67	9.46
467.106	9.47
467.543	9.44
467.98	9.43
468.416	9.4
468.853	9.39
469.29	9.39
469.726	9.39
470.162	9.39
470.599	9.36
471.035	9.35
471.471	9.33
471.907	9.34
472.344	9.37
472.78	9.4
473.216	9.42
473.652	9.45
474.088	9.44
474.523	9.47
474.959	9.48
475.395	9.47
475.831	9.49
476.266	9.51
476.702	9.51
477.138	9.51
477.573	9.52
478.008	9.53
478.444	9.53
478.879	9.56
479.314	9.57
479.75	9.58
480.185	9.59
480.62	9.59
481.055	9.6
481.49	9.61
481.925	9.62
482.36	9.64
482.795	9.65
483.229	9.67
483.664	9.69
484.099	9.7
484.534	9.74
484.968	9.79
485.403	9.82
485.837	9.86
486.271	9.9
486.706	9.94
487.14	9.98
487.574	10.04
488.009	10.1
488.443	10.15
488.877	10.22
489.311	10.27
489.745	10.34
490.179	10.43
490.613	10.53
491.046	10.61
491.48	10.7
491.914	10.8
492.348	10.89
492.781	10.99
493.215	11.1
493.648	11.21
494.082	11.32
494.515	11.43
494.948	11.55
495.382	11.64
495.815	11.78
496.248	11.91
496.681	12.06
497.114	12.2
497.547	12.35
497.98	12.5
498.413	12.65
498.846	12.81
499.279	12.98
499.711	13.13
500.144	13.31
500.577	13.49
501.009	13.67
501.442	13.86
501.874	14.05
502.306	14.24
502.739	14.48
503.171	14.69
503.603	14.9
504.036	15.12
504.468	15.35
504.9	15.58
505.332	15.82
505.764	16.06
506.196	16.29
506.627	16.54
507.059	16.79
507.491	17.02
507.923	17.26
508.354	17.54
508.786	17.8
509.217	18.08
509.649	18.34
510.08	18.61
510.512	18.89
510.943	19.16
511.374	19.44
511.805	19.72
512.237	19.99
512.668	20.27
513.099	20.55
513.53	20.83
513.961	21.12
514.391	21.42
514.822	21.72
515.253	21.99
515.684	22.27
516.114	22.56
516.545	22.85
516.975	23.14
517.406	23.44
517.836	23.7
518.267	23.97
518.697	24.22
519.127	24.45
519.558	24.68
519.988	24.92
520.418	25.17
520.848	25.39
521.278	25.59
521.708	25.94
522.138	26.14
522.567	26.34
522.997	26.52
523.427	26.71
523.857	26.9
524.286	27.07
524.716	27.26
525.145	27.42
525.575	27.61
526.004	27.76
526.433	27.77
526.863	27.93
527.292	28.09
527.721	28.23
528.15	28.35
528.579	28.48
529.008	28.62
529.437	28.73
529.866	28.84
530.295	28.93
530.724	29.03
531.152	29.15
531.581	29.24
532.01	29.33
532.438	29.42
532.867	29.52
533.295	29.61
533.723	29.67
534.152	29.74
534.58	29.82
535.008	29.88
535.436	29.96
535.865	30
536.293	30.04
536.721	30.09
537.149	30.15
537.576	30.18
538.004	30.21
538.432	30.26
538.86	30.3
539.287	30.31
539.715	30.36
540.143	30.38
540.57	30.42
540.998	30.45
541.425	30.48
541.852	30.51
542.28	30.55
542.707	30.57
543.134	30.6
543.561	30.64
543.988	30.66
544.415	30.66
544.842	30.68
545.269	30.72
545.696	30.75
546.123	30.78
546.549	30.79
546.976	30.82
547.403	30.84
547.829	30.84
548.256	30.85
548.682	30.89
549.108	30.94
549.535	30.96
549.961	30.96
550.387	30.97
550.813	30.97
551.24	30.97
551.666	30.98
552.092	30.98
552.518	30.99
552.943	31.01
553.369	30.99
553.795	30.98
554.221	30.98
554.646	30.97
555.072	30.98
555.498	30.96
555.923	30.95
556.349	30.91
556.774	30.87
557.199	30.85
557.625	30.8
558.05	30.79
558.475	30.76
558.9	30.72
559.325	30.69
559.75	30.64
560.175	30.6
560.6	30.55
561.025	30.5
561.449	30.46
561.874	30.39
562.299	30.32
562.723	30.24
563.148	30.16
563.572	30.06
563.997	29.97
564.421	29.87
564.846	29.78
565.27	29.71
565.694	29.62
566.118	29.52
566.542	29.43
566.966	29.33
567.39	29.25
567.814	29.17
568.238	29.08
568.662	28.99
569.086	28.91
569.509	28.82
569.933	28.72
570.357	28.63
570.78	28.54
571.204	28.46
571.627	28.39
572.05	28.3
572.474	28.21
572.897	28.13
573.32	28.04
573.743	27.95
574.166	27.87
574.589	27.76
575.012	27.68
575.435	27.6
575.858	27.51
576.281	27.42
576.704	27.33
577.126	27.25
577.549	27.18
577.972	27.1
578.394	27.03
578.817	26.98
579.239	26.92
579.661	26.87
580.084	26.79
580.506	26.76
580.928	26.7
581.35	26.65
581.772	26.59
582.194	26.53
582.616	26.48
583.038	26.4
583.46	26.33
583.882	26.27
584.303	26.21
584.725	26.16
585.147	26.11
585.568	26.07
585.99	26.02
586.411	25.95
586.833	25.92
587.254	25.85
587.675	25.81
588.096	25.77
588.518	25.73
588.939	25.69
589.36	25.65
589.781	25.57
590.202	25.53
590.623	25.5
591.043	25.47
591.464	25.42
591.885	25.39
592.305	25.36
592.726	25.33
593.147	25.3
593.567	25.26
593.987	25.22
594.408	25.2
594.828	25.16
595.248	25.12
595.669	25.1
596.089	25.06
596.509	25.05
596.929	25.02
597.349	24.99
597.769	24.95
598.189	24.93
598.608	24.91
599.028	24.89
599.448	24.86
599.867	24.83
600.287	24.81
600.706	24.79
601.126	24.76
601.545	24.73
601.965	24.69
602.384	24.67
602.803	24.63
603.222	24.59
603.641	24.54
604.061	24.5
604.48	24.45
604.898	24.39
605.317	24.34
605.736	24.27
606.155	24.21
606.574	24.14
606.992	24.07
607.411	24
607.829	23.9
608.248	23.81
608.666	23.73
609.085	23.67
609.503	23.6
609.921	23.52
610.339	23.45
610.758	23.36
611.176	23.29
611.594	23.21
612.012	23.14
612.43	23.08
612.847	23.01
613.265	22.94
613.683	22.87
614.101	22.79
614.518	22.71
614.936	22.63
615.353	22.55
615.771	22.49
616.188	22.42
616.606	22.36
617.023	22.31
617.44	22.27
617.857	22.21
618.274	22.15
618.691	22.09
619.108	22.04
619.525	22
619.942	21.97
620.359	21.94
620.776	21.89
621.192	21.86
621.609	21.82
622.026	21.76
622.442	21.74
622.859	21.71
623.275	21.68
623.691	21.66
624.108	21.63
624.524	21.61
624.94	21.59
625.356	21.57
625.772	21.55
626.188	21.54
626.604	21.53
627.02	21.52
627.436	21.51
627.852	21.5
628.268	21.49
628.683	21.48
629.099	21.47
629.514	21.45
629.93	21.44
630.345	21.41
630.761	21.37
631.176	21.33
631.591	21.29
632.007	21.25
632.422	21.2
632.837	21.15
633.252	21.09
633.667	21.04
634.082	20.95
634.497	20.88
634.911	20.81
635.326	20.73
635.741	20.64
636.155	20.55
636.57	20.44
636.984	20.33
637.399	20.23
637.813	20.1
638.228	19.97
638.642	19.84
639.056	19.7
639.47	19.57
639.884	19.44
640.298	19.3
640.712	19.15
641.126	19.01
641.54	18.86
641.954	18.69
642.368	18.54
642.781	18.4
643.195	18.25
643.609	18.1
644.022	17.95
644.436	17.81
644.849	17.66
645.262	17.51
645.676	17.35
646.089	17.23
646.502	17.13
646.915	17.03
647.328	16.91
647.741	16.8
648.154	16.71
648.567	16.62
648.98	16.52
649.393	16.44
649.805	16.39
650.218	16.31
650.631	16.23
651.043	16.15
651.456	16.06
651.868	15.98
652.28	15.91
652.693	15.83
653.105	15.75
653.517	15.66
653.929	15.57
654.341	15.46
654.753	15.35
655.165	15.26
655.577	15.15
655.989	15.03
656.401	14.91
656.813	14.79
657.224	14.63
657.636	14.47
658.047	14.32
658.459	14.17
658.87	14
659.282	13.83
659.693	13.66
660.104	13.48
660.515	13.3
660.926	13.11
661.338	12.93
661.749	12.75
662.159	12.57
662.57	12.4
662.981	12.23
663.392	12.07
663.803	11.91
664.213	11.74
664.624	11.59
665.035	11.45
665.445	11.3
665.855	11.17
666.266	11.06
666.676	10.95
667.086	10.82
667.497	10.71
667.907	10.6
668.317	10.5
668.727	10.43
669.137	10.34
669.547	10.27
669.956	10.21
670.366	10.14
670.776	10.09
671.186	10.03
671.595	10
672.005	9.94
672.414	9.93
672.824	9.89
673.233	9.86
673.642	9.85
674.052	9.84
674.461	9.83
674.87	9.83
675.279	9.84
675.688	9.85
676.097	9.86
676.506	9.89
676.915	9.93
677.323	9.98
677.732	10.03
678.141	10.09
678.549	10.16
678.958	10.25
679.366	10.36
679.775	10.48
680.183	10.63
680.592	10.8
681	10.98
681.408	11.17
681.816	11.4
682.224	11.66
682.632	11.94
683.04	12.24
683.448	12.58
683.856	12.93
684.264	13.31
684.671	13.71
685.079	14.14
685.487	14.6
685.894	15.09
686.302	15.6
686.709	16.12
687.116	16.66
687.524	17.22
687.931	17.78
688.338	18.36
688.745	18.93
689.152	19.54
689.559	20.15
689.966	20.76
690.373	21.36
690.78	21.96
691.187	22.57
691.593	23.14
692	23.72
692.407	24.3
692.813	24.9
693.22	25.46
693.626	26
694.032	26.53
694.439	27.06
694.845	27.56
695.251	28.05
695.657	28.51
696.063	28.98
696.469	29.44
696.875	29.87
697.281	30.28
697.687	30.7
698.093	31.09
698.498	31.48
698.904	31.85
699.31	32.21
699.715	32.57
700.12	32.91
700.526	33.25
700.931	33.55
701.337	33.87
701.742	34.13
702.147	34.42
702.552	34.69
702.957	34.91
703.362	35.16
703.767	35.38
704.172	35.59
704.577	35.79
704.981	36
705.386	36.22
705.791	36.43
706.195	36.65
706.6	36.84
707.004	37.02
707.408	37.24
707.813	37.43
708.217	37.64
708.621	37.83
709.025	38.02
709.43	38.18
709.834	38.34
710.237	38.45
710.641	38.58
711.045	38.73
711.449	38.87
711.853	39.03
712.256	39.15
712.66	39.26
713.064	39.36
713.467	39.47
713.87	39.61
714.274	39.72
714.677	39.86
715.08	39.98
715.484	40.09
715.887	40.22
716.29	40.27
716.693	40.39
717.096	40.48
717.499	40.6
717.901	40.71
718.304	40.8
718.707	40.9
719.109	40.97
719.512	41.06
719.915	41.14
720.317	41.19
720.719	41.27
721.122	41.33
721.524	41.39
721.926	41.46
722.328	41.51
722.731	41.56
723.133	41.62
723.535	41.68
723.937	41.74
724.338	41.8
724.74	41.87
725.142	42.12
725.544	42.18
725.945	42.3
726.347	42.34
726.748	42.37
727.15	42.4
727.551	42.44
727.952	42.47
728.354	42.51
728.755	42.54
729.156	42.56
729.557	42.4
729.958	42.42
730.359	42.4
730.76	42.43
731.161	42.47
731.562	42.53
731.962	42.52
732.363	42.57
732.763	42.58
733.164	42.59
733.564	42.64
733.965	42.65
734.365	42.69
734.766	42.71
735.166	42.72
735.566	42.75
735.966	42.79
736.366	42.84
736.766	42.85
737.166	42.9
737.566	42.93
737.966	42.94
738.365	42.97
738.765	43
739.165	43
739.564	43.03
739.964	43.05
740.363	43.02
740.763	43.02
741.162	43.03
741.561	43.03
741.96	43.03
742.36	43.03
742.759	43.04
743.158	43.03
743.557	43.04
743.955	43.04
744.354	43.05
744.753	43.08
745.152	43.11
745.55	43.12
745.949	43.12
746.348	43.14
746.746	43.13
747.144	43.12
747.543	43.12
747.941	43.12
748.339	43.11
748.737	43.08
749.136	43.07
749.534	43.03
749.932	43.04
750.33	43.02
750.727	43.03
751.125	43.04
751.523	43.02
751.921	43.06
752.318	43.08
752.716	43.11
753.113	43.12
753.511	43.15
753.908	43.2
754.305	43.22
754.703	43.24
755.1	43.25
755.497	43.25
755.894	43.28
756.291	43.27
756.688	43.27
757.085	43.26
757.482	43.3
757.878	43.31
758.275	43.31
758.672	43.29
759.068	43.31
759.465	43.32
759.861	43.33
760.258	43.35
760.654	43.36
761.05	43.36
761.447	43.39
761.843	43.38
762.239	43.37
762.635	43.36
763.031	43.36
763.427	43.34
763.822	43.36
764.218	43.37
764.614	43.39
765.01	43.37
765.405	43.37
765.801	43.34
766.196	43.34
766.592	43.34
766.987	43.35
767.382	43.35
767.778	43.36
768.173	43.35
768.568	43.32
768.963	43.3
769.358	43.31
769.753	43.31
770.148	43.32
770.542	43.32
770.937	43.33
771.332	43.34
771.726	43.35
772.121	43.35
772.515	43.34
772.91	43.35
773.304	43.37
773.699	43.35
774.093	43.33
774.487	43.31
774.881	43.33
775.275	43.3
775.669	43.28
776.063	43.27
776.457	43.29
776.851	43.29
777.245	43.28
777.638	43.25
778.032	43.28
778.425	43.33
778.819	43.36
779.212	43.37
779.606	43.37
779.999	43.37
780.392	43.4
780.786	43.38
781.179	43.41
781.572	43.44
781.965	43.48
782.358	43.46
782.751	43.44
783.143	43.45
783.536	43.45
783.929	43.44
784.322	43.48
784.714	43.45
785.107	43.46
785.499	43.45
785.891	43.46
786.284	43.47
786.676	43.48
787.068	43.48
787.46	43.47
787.852	43.49
788.245	43.5
788.636	43.47
789.028	43.5
789.42	43.54
789.812	43.55
790.204	43.55
790.595	43.55
790.987	43.55
791.378	43.59
791.77	43.59
792.161	43.57
792.553	43.59
792.944	43.59
793.335	43.57
793.726	43.58
794.117	43.57
794.508	43.55
794.899	43.56
795.29	43.54
795.681	43.5
796.072	43.49
796.463	43.57
796.853	43.56
797.244	43.59
797.634	43.6
798.025	43.6
798.415	43.6
798.806	43.59
799.196	43.57
799.586	43.6
799.976	43.64
800.366	43.67
800.756	43.63
801.146	43.66
801.536	43.67
801.926	43.67
802.316	43.67
802.706	43.7
803.095	43.74
803.485	43.74
803.874	43.75
804.264	43.76
804.653	43.76
805.043	43.75
805.432	43.75
805.821	43.75
806.21	43.77
806.599	43.77
806.988	43.74
807.377	43.75
807.766	43.77
808.155	43.77
808.544	43.79
808.933	43.78
809.321	43.77
809.71	43.76
810.098	43.74
810.487	43.73
810.875	43.72
811.264	43.73
811.652	43.76
812.04	43.74
812.428	43.76
812.816	43.75
813.204	43.74
813.592	43.74
813.98	43.74
814.368	43.76
814.756	43.76
815.144	43.76
815.531	43.78
815.919	43.75
816.306	43.78
816.694	43.75
817.081	43.76
817.469	43.78
817.856	43.78
818.243	43.79
818.63	43.75
819.017	43.76
819.404	43.76
819.791	43.75
820.178	43.75
820.565	43.74
820.952	43.76
821.339	43.74
821.725	43.71
822.112	43.75
822.498	43.76
822.885	43.8
823.271	43.82
823.657	43.8
824.044	43.79
824.43	43.8
824.816	43.82
825.202	43.79
825.588	43.83
825.974	43.86
826.36	43.84
826.746	43.83
827.132	43.81
827.517	43.8
827.903	43.83
828.289	43.87
828.674	43.85
829.06	43.83
829.445	43.83
829.83	43.81
830.216	43.78
830.601	43.81
830.986	43.82
831.371	43.81
831.756	43.81
832.141	43.81
832.526	43.8
832.911	43.8
833.295	43.82
833.68	43.83
834.065	43.83
834.449	43.85
834.834	43.81
835.218	43.82
835.603	43.81
835.987	43.8
836.371	43.8
836.755	43.78
837.139	43.77
837.524	43.73
837.908	43.75
838.291	43.75
838.675	43.74
839.059	43.73
839.443	43.68
839.827	43.67
840.21	43.65
840.594	43.65
840.977	43.66
841.361	43.66
841.744	43.65
842.127	43.63
842.511	43.63
842.894	43.6
843.277	43.62
843.66	43.62
844.043	43.63
844.426	43.66
844.809	43.66
845.191	43.68
845.574	43.69
845.957	43.73
846.339	43.74
846.722	43.74
847.104	43.76
847.487	43.76
847.869	43.78
848.252	43.79
848.634	43.77
849.016	43.77
849.398	43.77
849.78	43.78
850.162	43.76
850.544	43.75
850.926	43.74
851.307	43.75
851.689	43.75
852.071	43.75
852.452	43.73
852.834	43.73
853.215	43.73
853.597	43.72
853.978	43.7
854.359	43.7
854.741	43.69
855.122	43.68
855.503	43.65
855.884	43.67
856.265	43.69
856.646	43.69
857.026	43.71
857.407	43.71
857.788	43.71
858.169	43.72
858.549	43.72
858.93	43.73
859.31	43.74
859.69	43.77
860.071	43.79
860.451	43.77
860.831	43.78
861.211	43.76
861.591	43.76
861.971	43.76
862.351	43.79
862.731	43.81
863.111	43.81
863.491	43.81
863.87	43.8
864.25	43.76
864.629	43.78
865.009	43.79
865.388	43.8
865.768	43.81
866.147	43.81
866.526	43.79
866.905	43.77
867.284	43.76
867.663	43.76
868.042	43.76
868.421	43.76
868.8	43.75
869.179	43.75
869.558	43.73
869.936	43.7
870.315	43.69
870.693	43.72
871.072	43.72
871.45	43.75
871.828	43.76
872.207	43.79
872.585	43.78
872.963	43.78
873.341	43.78
873.719	43.83
874.097	43.84
874.475	43.84
874.853	43.81
875.23	43.84
875.608	43.82
875.986	43.84
876.363	43.81
876.741	43.84
877.118	43.85
877.495	43.87
877.873	43.85
878.25	43.86
878.627	43.86
879.004	43.86
879.381	43.84
879.758	43.82
880.135	43.8
880.512	43.8
880.889	43.78
881.265	43.77
881.642	43.74
882.019	43.75
882.395	43.72
882.772	43.73
883.148	43.71
883.524	43.69
883.901	43.7
884.277	43.69
884.653	43.67
885.029	43.65
885.405	43.65
885.781	43.65
886.157	43.64
886.532	43.67
886.908	43.67
887.284	43.67
887.659	43.66
888.035	43.65
888.411	43.64
888.786	43.65
889.161	43.67
889.537	43.66
889.912	43.64
890.287	43.62
890.662	43.59
891.037	43.6
891.412	43.59
891.787	43.58
892.162	43.57
892.536	43.59
892.911	43.58
893.286	43.58
893.66	43.6
894.035	43.61
894.409	43.62
894.784	43.65
895.158	43.62
895.532	43.64
895.906	43.64
896.281	43.66
896.655	43.68
897.029	43.69
897.402	43.68
897.776	43.69
898.15	43.69
898.524	43.7
898.898	43.68
899.271	43.72
899.645	43.74
900.018	43.75
900.392	43.76
900.765	43.74
901.138	43.74
901.511	43.74
901.884	43.75
902.258	43.76
902.631	43.75
903.003	43.77
903.376	43.74
903.749	43.75
904.122	43.76
904.495	43.78
904.867	43.79
905.24	43.8
905.612	43.82
905.985	43.81
906.357	43.8
906.729	43.82
907.102	43.81
907.474	43.83
907.846	43.84
908.218	43.83
908.59	43.86
908.962	43.85
909.334	43.86
909.705	43.87
910.077	43.87
910.449	43.87
910.82	43.87
911.192	43.88
911.563	43.88
911.935	43.83
912.306	43.86
912.677	43.85
913.048	43.86
913.419	43.86
913.79	43.86
914.161	43.87
914.532	43.85
914.903	43.83
915.274	43.84
915.645	43.82
916.015	43.83
916.386	43.82
916.756	43.81
917.127	43.8
917.497	43.79
917.868	43.81
918.238	43.81
918.608	43.86
918.978	43.91
919.348	43.91
919.718	43.92
920.088	43.94
920.458	43.95
920.828	43.9
921.198	43.9
921.567	43.89
921.937	43.88
922.306	43.84
922.676	43.8
923.045	43.76
923.415	43.75
923.784	43.74
924.153	43.76
924.522	43.77
924.891	43.8
925.26	43.82
925.629	43.82
925.998	43.82
926.367	43.86
926.736	43.91
927.104	43.92
927.473	43.92
927.842	43.92
928.21	43.9
928.578	43.87
928.947	43.88
929.315	43.88
929.683	43.89
930.051	43.87
930.42	43.87
930.788	43.8
931.156	43.81
931.523	43.82
931.891	43.85
932.259	43.88
932.627	43.92
932.994	43.94
933.362	43.93
933.729	43.95
934.097	43.98
934.464	44.01
934.831	44.04
935.199	44.04
935.566	44.04
935.933	44.03
936.3	44.04
936.667	44.01
937.034	44.07
937.401	44.07
937.767	44.08
938.134	44.05
938.501	44.04
938.867	44.09
939.234	44.03
939.6	43.96
939.967	43.95
940.333	43.86
940.699	43.84
941.065	43.66
941.431	43.64
941.798	43.57
942.163	43.54
942.529	43.49
942.895	43.38
943.261	43.38
943.627	43.37
943.992	43.32
944.358	43.34
944.723	43.35
945.089	43.3
945.454	43.32
945.82	43.29
946.185	43.23
946.55	43.16
946.915	43.18
947.28	43.17
947.645	43.2
948.01	43.2
948.375	43.2
948.74	43.17
949.104	43.24
949.469	43.2
949.834	43.24
950.198	43.27
950.562	43.26
950.927	43.23
951.291	43.17
951.655	43.11
952.02	43.11
952.384	43.07
952.748	43.08
953.112	43.06
953.476	43.03
953.839	42.93
954.203	42.93
954.567	42.95
954.931	42.94
955.294	42.96
955.658	43.02
956.021	42.99
956.385	42.97
956.748	42.91
957.111	42.85
957.474	42.82
957.837	42.76
958.2	42.7
958.563	42.71
958.926	42.71
959.289	42.69
959.652	42.66
960.015	42.65
960.377	42.66
960.74	42.69
961.102	42.69
961.465	42.78
961.827	42.92
962.189	43.03
962.552	43
962.914	42.99
963.276	43.05
963.638	43.01
964	43.02
964.362	43.05
964.724	43.03
965.085	43.04
965.447	43.01
965.809	42.97
966.17	42.88
966.532	42.91
966.893	42.93
967.255	42.94
967.616	42.93
967.977	42.95
968.338	42.95
968.699	42.95
969.061	42.96
969.421	42.94
969.782	42.94
970.143	42.98
970.504	43.05
970.865	43.06
971.225	43.05
971.586	43.09
971.946	43.05
972.307	43.05
972.667	43.06
973.027	43.1
973.388	43.1
973.748	43.09
974.108	43.11
974.468	43.03
974.828	43.11
975.188	43.09
975.548	43.06
975.907	43.1
976.267	43.12
976.627	43.13
976.986	43.07
977.346	43.09
977.705	43.13
978.064	43.09
978.424	43.14
978.783	43.04
979.142	43.09
979.501	43.13
979.86	43.2
980.219	43.15
980.578	43.18
980.937	43.19
981.296	43.19
981.654	43.16
982.013	43.19
982.371	43.17
982.73	43.16
983.088	43.1
983.447	43.04
983.805	42.93
984.163	42.91
984.521	42.89
984.879	42.83
985.237	42.82
985.595	42.87
985.953	42.85
986.311	42.87
986.669	42.84
987.026	42.87
987.384	42.98
987.741	42.99
988.099	43.14
988.456	43.11
988.814	43.2
989.171	43.22
989.528	43.18
989.885	43.16
990.242	43.13
990.599	43.22
990.956	43.17
991.313	43.15
991.67	43.16
992.027	43.28
992.383	43.4
992.74	43.42
993.096	43.39
993.453	43.38
993.809	43.43
994.165	43.43
994.522	43.56
994.878	43.61
995.234	43.62
995.59	43.62
995.946	43.44
996.302	43.42
996.658	43.4
997.013	43.51
997.369	43.54
997.725	43.59
998.08	43.63
998.436	43.42
998.791	43.39
999.147	43.42
999.502	43.45
999.857	43.41
1000.212	43.36
1000.567	43.46
1000.922	43.4
1001.277	43.42
1001.632	43.36
1001.987	43.4
1002.342	43.49
1002.696	43.52
1003.051	43.58
1003.406	43.72
1003.76	43.75
1004.114	43.75
1004.469	43.64
1004.823	43.87
1005.177	43.85
1005.531	43.89
1005.885	43.96
1006.239	43.98
1006.593	44.14
1006.947	44.13
1007.301	44
1007.655	43.97
1008.008	44.09
1008.362	44.18
1008.715	44.02
1009.069	43.96
1009.422	44.04
1009.776	43.96
1010.129	44.01
1010.482	43.91
1010.835	43.88
1011.188	43.95
1011.541	43.94
1011.894	44.02
1012.247	43.88
1012.6	43.9
1012.952	43.92
1013.305	43.86
1013.657	44
1014.01	43.99
1014.362	43.98
1014.715	44.27
1015.067	44.27
1015.419	44.43
1015.771	44.24
1016.123	44.4
1016.475	44.27
1016.827	44.49
1017.179	44.43
1017.531	44.42
1017.883	44.29
1018.234	44.68
1018.586	44.57
1018.938	44.78
1019.289	44.58
1019.64	44.68
1019.992	44.62
1020.343	44.62
1020.694	44.77
1021.045	44.85
1021.396	44.8
1021.747	45.06
1022.098	44.69
1022.449	44.28
1022.8	44.43
1023.151	44.66
1023.501	44.96
1023.852	45.16
1024.202	45.3
1024.553	45
1024.903	45.23
1025.253	45.45
1025.604	45.46
1025.954	45.06
1026.304	45.33
1026.654	45.12
1027.004	44.87
1027.354	44.4
1027.703	44.29
1028.053	44.19
1028.403	44.37
1028.753	43.92
1029.102	43.61
1029.452	43.38
1029.801	43.71
1030.15	43.59
1030.499	43.25
897.758	2056.34
901.051	2056.05
904.343	2049.55
907.636	2089.53
910.928	2036.94
914.22	2029.86
917.511	1997.85
920.803	1913
924.094	1904.06
927.384	1857.5
930.675	1772.2
933.965	1760.5
937.255	1663.02
940.544	1593.93
943.834	1512.84
947.123	1497.07
950.411	1409.8
953.7	1378.99
956.988	1302.03
960.276	1248.5
963.563	1227.41
966.851	1187.48
970.138	1177.93
973.424	1137.96
976.711	1143.24
979.997	1086.1
983.283	1080.77
986.568	1057.97
989.853	1021.75
993.138	1006.51
996.423	965.63
999.708	940.01
1002.992	930.01
1006.275	884.03
1009.559	874.43
1012.842	843.65
1016.125	817.99
1019.408	804.2
1022.69	792.88
1025.972	780.76
1029.254	758.05
1032.536	746.41
1035.817	728.7
1039.098	718.43
1042.379	702.1
1045.659	695
1048.939	678.29
1052.219	665.18
1055.498	651.84
1058.778	637.82
1062.057	619.4
1065.335	612.66
1068.614	604.81
1071.892	598.97
1075.17	577.08
1078.447	568.41
1081.724	564.18
1085.001	557.67
1088.278	546.53
1091.554	535.39
1094.83	534.84
1098.106	532.54
1101.382	527.13
1104.657	523.02
1107.932	513.93
1111.206	518.17
1114.481	503.78
1117.755	497.86
1121.029	495.12
1124.302	496.02
1127.575	485.58
1130.848	478.94
1134.121	473.11
1137.393	472.3
1140.665	461.47
1143.937	459.44
1147.208	453.07
1150.48	454.08
1153.75	447.48
1157.021	439.26
1160.291	438.42
1163.561	434.41
1166.831	433.75
1170.101	432.2
1173.37	428.29
1176.639	429.87
1179.907	424.79
1183.176	421.68
1186.444	420.68
1189.711	421.09
1192.979	420.96
1196.246	416.22
1199.513	418.26
1202.78	415.72
1206.046	415.15
1209.312	412.03
1212.578	412.49
1215.843	416.58
1219.108	413.35
1222.373	421.99
1225.638	425.49
1228.902	433.11
1232.166	432.99
1235.43	436.46
1238.693	443.47
1241.956	444.69
1245.219	453.86
1248.482	452.2
1251.744	452.22
1255.006	454.36
1258.268	442.87
1261.529	437.69
1264.79	432.3
1268.051	431.14
1271.312	425.97
1274.572	419.58
1277.832	415.43
1281.092	407
1284.351	404.7
1287.61	404.44
1290.869	397.61
1294.128	394.32
1297.386	394.44
1300.644	390.26
1303.902	391.73
1307.159	389.45
1310.416	390.82
1313.673	390.89
1316.93	394.96
1320.186	395.1
1323.442	396.77
1326.697	405.49
1329.953	405.38
1333.208	408.17
1336.463	413.3
1339.717	414.43
1342.972	418.12
1346.226	421.42
1349.479	421.78
1352.733	425.5
1355.986	427.41
1359.238	427.21
1362.491	429.68
1365.743	435.33
1368.995	434.85
1372.247	431.61
1375.498	432.72
1378.749	439.18
1382	432.86
1385.251	436.04
1388.501	432.48
1391.751	436.67
1395	433.27
1398.25	430.53
1401.499	429.15
1404.748	429.25
1407.996	427.56
1411.244	424.94
1414.492	423.24
1417.74	420.71
1420.987	413.37
1424.234	415.22
1427.481	407.26
1430.728	409.68
1433.974	404.26
1437.22	400.63
1440.465	399.24
1443.711	397.75
1446.956	395.98
1450.201	388.36
1453.445	385.32
1456.689	384.92
1459.933	377.29
1463.177	376.03
1466.42	367.75
1469.663	364.62
1472.906	363.01
1476.148	352.47
1479.391	346.94
1482.633	342.45
1485.874	338.72
1489.115	336.48
1492.356	330.47
1495.597	329.67
1498.838	323.72
1502.078	322.17
1505.318	319.47
1508.557	319.85
1511.797	320.34
1515.036	318.63
1518.274	318.17
1521.513	313.51
1524.751	312.7
1527.989	312.41
1531.227	310.87
1534.464	312.64
1537.701	309.19
1540.938	308.24
1544.174	303.3
1547.41	301.69
1550.646	300.65
1553.882	300.31
1557.117	297.18
1560.352	295.17
1563.587	294.13
1566.821	291.77
1570.055	287.08
1573.289	285.46
1576.523	285.26
1579.756	282.81
1582.989	281.12
1586.222	280.48
1589.454	277.6
1592.686	279.46
1595.918	278.23
1599.15	277.35
1602.381	276.9
1605.612	277.14
1608.843	278.85
1612.073	277.84
1615.303	279.51
1618.533	280.77
1621.762	279.23
1624.992	279.88
1628.221	279.94
1631.449	279.52
1634.678	278.14
1637.906	280.01
1641.134	279.88
1644.361	279.14
1647.588	280.3
1650.815	278.77
1654.042	276.32
1657.269	278.8
1660.495	279.25
1663.72	276.49
1666.946	277.79
1670.171	278.82
1673.396	278.5
1676.621	278.26
1679.845	278.06
1683.069	278
1686.293	279.83
1689.517	282.3
1692.74	281.37
1695.963	282.95
1699.185	287.49
1702.408	287.11
1705.63	288.34
1708.852	289.36
1712.073	290.04
1715.294	290.68
1718.515	291.51
1721.736	291.68
1724.956	291.77
1728.176	291.86
1731.396	294.53
1734.616	293.34
1737.835	294.85
1741.054	292.45
1744.272	293.61
1747.491	297.35
1750.709	297.64
1753.927	298.66
1757.144	296.93
1760.361	299.76
1763.578	299.75
1766.795	298.56
1770.011	300.52
1773.227	300.76
1776.443	305.33
1779.658	306.96
1782.874	305.12
1786.089	307.28
1789.303	308.29
1792.518	311.98
1795.732	311.1
1798.945	315.55
1802.159	315.43
1805.372	316.95
1808.585	322.88
1811.797	324.19
1815.01	323.49
1818.222	326.75
1821.434	328.47
1824.645	330.16
1827.856	336.57
1831.067	340.33
1834.278	337.37
1837.488	340.38
1840.698	343.39
1843.908	339.66
1847.117	341.87
1850.326	345.18
1853.535	344.03
1856.744	350.58
1859.952	349.5
1863.16	348.78
1866.368	345.94
1869.575	353.31
1872.782	347.6
1875.989	345.93
1879.196	345.2
1882.402	344.09
1885.608	345.95
1888.814	348.29
1892.019	347.35
1895.224	347.84
1898.429	345.38
1901.634	348.48
1904.838	348.04
1908.042	353.65
1911.246	355.9
1914.449	358.72
1917.652	358.13
1920.855	357.86
1924.058	357.13
1927.26	355.67
1930.462	358.04
1933.664	363.04
1936.865	359.84
1940.066	360.53
1943.267	357.77
1946.467	357.15
1949.668	360.05
1952.868	364.84
1956.067	364.01
1959.267	363.93
1962.466	365.19
1965.665	363.1
1968.863	363.04
1972.061	367.72
1975.259	370.69
1978.457	374.08
1981.654	376.28
1984.852	377.26
1988.048	375.38
1991.245	379.14
1994.441	384.96
1997.637	386.88
2000.833	393.72
2004.028	399.39
2007.223	401.72
2010.418	406.56
2013.613	412.15
2016.807	417.53
2020.001	419.17
2023.194	425.73
2026.388	435.22
2029.581	443.61
2032.774	448.21
2035.966	456.62
2039.158	457.92
2042.35	467.52
2045.542	468.71
2048.733	476.09
2051.924	482.27
2055.115	490.9
2058.306	491.55
2061.496	498.16
2064.686	496.98
2067.875	506.29
2071.065	507.72
2074.254	504.79
2077.442	509.04
2080.631	512.72
2083.819	517.94
2087.007	517.83
2090.195	524.04
2093.382	528.98
2096.569	522.84
2099.756	532.99
2102.942	532.87
2106.128	540.4
2109.314	552.67
2112.5	551.41
2115.685	562.18
2118.87	563.31
2122.055	574.99
2125.239	579.9
2128.424	588.18
2131.608	592.63
2134.791	599.91
2137.974	603.33
2141.157	603.92
2144.34	604.66
2147.523	614.59
2150.705	609.86
2153.887	614.58
2157.068	616.84
2160.25	609.43
2163.431	610.86
2166.611	617.45
2169.792	630.77
2172.972	637.14
2176.152	639.55
2179.331	650.05
2182.511	661.5
2185.69	671.26
2188.868	685.38
2192.047	686.44
2195.225	707.88
2198.403	724.23
2201.58	739.17
2204.758	750.9
2207.935	768.02
2211.111	782.82
2214.288	791.78
2217.464	794.51
2220.64	800.67
2223.815	814.12
2226.991	846.68
2230.166	849.89
2233.34	868.11
2236.515	880.86
2239.689	882.53
2242.863	886.98
2246.036	915.58
2249.209	902.34
2252.382	915.94
2255.555	949.76
2258.727	950.16
2261.9	955
2265.071	963.8
2268.243	978.24
2271.414	988.62
2274.585	1014.32
2277.756	1023.04
2280.926	1027.96
2284.096	1053.45
2287.266	1078.13
2290.436	1086.83
2293.605	1113.72
2296.774	1152.05
2299.942	1187.34
2303.111	1195.36
2306.279	1226.95
2309.447	1239.46
2312.614	1274.11
2315.781	1309.56
2318.948	1373.21
2322.115	1352.5
2325.281	1421.33
2328.447	1391.92
2331.613	1448.03
2334.779	1431.19
2337.944	1491.23
2341.109	1509.19
2344.274	1547.93
2347.438	1604.66
2350.602	1607.64
2353.766	1657.54
2356.929	1679.58
2360.092	1665.82
2363.255	1793.09
2366.418	1782.89
2369.58	1827.37
2372.742	1933.34
2375.904	1978.21
2379.066	1967.49
2382.227	1926.33
2385.388	2089.53
2388.548	2092.41
2391.709	2125.99
2394.869	2376.79
2398.029	2256.44
2401.188	2327.03
2404.347	2310.21
2407.506	2286.06
2410.665	2350.15
2413.823	2494.02
2416.981	2643.38
2420.139	2548.45
2423.296	2516.36
2426.453	2628.29
2429.61	2521.96
2432.767	2654.28
2435.923	2631.95
2439.079	2855.51
2442.235	2889.87
2445.391	2860.1
2448.546	2845.32
2451.701	2764.49
2454.855	2768.87
2458.009	2937.84
2461.163	3047.91
2464.317	3166.44
2467.471	3247.96
2470.624	3241.18
2473.777	3165.73
2476.929	3091.01
2480.082	3013.7
2483.234	2970.17
2486.385	3103.26
2489.537	3118.21
2492.688	3246.95
2495.839	3146.68
2498.989	3083.31
2502.14	3101.38
2505.29	3143.48
2508.439	3199.91
2511.589	3186.32
2514.738	3455
2517.887	3387.84
2521.035	3601.42
2524.183	3617.71
2527.331	3645.01
2530.479	3647.73
2533.627	3668.15
