Data from C_3_DEC_VA_2N_Splice17_14-18-35-721.txt Node
Date: Sat Mar 07 14:18:35 EST 2020
User: sa697716
Spectrometer: NQ5500242
Trigger mode: 0
Integration Time (sec): 1.450000E-1
Scans to average: 20
Nonlinearity correction enabled: false
Boxcar width: 5
Storing dark spectrum: false
XAxis mode: Wavelengths
Number of Pixels in Spectrum: 512
>>>>>Begin Spectral Data<<<<<
187.83	128.38
188.298	129.36
188.766	112.07
189.233	101.92
189.701	105.31
190.169	108.28
190.636	111.62
191.104	48.98
191.571	-94.84
192.039	151.91
192.506	185.98
192.974	188.13
193.441	275.62
193.908	142.3
194.375	116.48
194.842	80.44
195.31	57.49
195.777	43.54
196.244	60.6
196.711	71.04
197.177	75.53
197.644	74.97
198.111	74.8
198.578	74.91
199.045	75.37
199.511	75.31
199.978	75.63
200.445	75.56
200.911	75.52
201.378	75.62
201.844	75.67
202.31	75.05
202.777	74.91
203.243	74.79
203.709	74.05
204.176	73.24
204.642	72.74
205.108	72.42
205.574	72.06
206.04	71.39
206.506	70.56
206.972	69.85
207.438	69.38
207.903	68.52
208.369	67.08
208.835	65.87
209.301	64.28
209.766	62.32
210.232	60.17
210.697	58.21
211.163	56.66
211.628	55.16
212.094	53.48
212.559	52.03
213.024	50.48
213.49	49.24
213.955	48.05
214.42	46.94
214.885	45.4
215.35	43.52
215.815	41.07
216.28	37.86
216.745	34.38
217.21	30.92
217.675	27.72
218.14	24.82
218.604	22.2
219.069	20.01
219.534	18.21
219.998	16.78
220.463	15.56
220.927	14.56
221.392	13.75
221.856	13.04
222.32	12.47
222.785	11.96
223.249	11.53
223.713	11.16
224.177	10.85
224.642	10.54
225.106	10.23
225.57	9.96
226.034	9.68
226.497	9.42
226.961	9.19
227.425	8.97
227.889	8.75
228.353	8.56
228.816	8.38
229.28	8.2
229.744	8.04
230.207	7.88
230.671	7.73
231.134	7.61
231.597	7.5
232.061	7.38
232.524	7.27
232.987	7.16
233.45	7.07
233.914	6.95
234.377	6.85
234.84	6.75
235.303	6.68
235.766	6.6
236.229	6.52
236.691	6.45
237.154	6.38
237.617	6.33
238.08	6.26
238.542	6.19
239.005	6.15
239.468	6.1
239.93	6.04
240.393	5.99
240.855	5.93
241.317	5.87
241.78	5.8
242.242	5.73
242.704	5.68
243.166	5.63
243.629	5.59
244.091	5.53
244.553	5.48
245.015	5.43
245.477	5.37
245.939	5.32
246.4	5.28
246.862	5.24
247.324	5.2
247.786	5.15
248.247	5.11
248.709	5.05
249.17	5.01
249.632	4.98
250.093	4.95
250.555	4.91
251.016	4.88
251.477	4.84
251.939	4.81
252.4	4.79
252.861	4.76
253.322	4.73
253.783	4.71
254.244	4.7
254.705	4.67
255.166	4.64
255.627	4.61
256.088	4.6
256.549	4.58
257.009	4.55
257.47	4.53
257.931	4.49
258.391	4.47
258.852	4.43
259.312	4.39
259.773	4.36
260.233	4.32
260.694	4.29
261.154	4.26
261.614	4.23
262.074	4.19
262.534	4.16
262.994	4.14
263.455	4.11
263.915	4.1
264.374	4.08
264.834	4.07
265.294	4.04
265.754	4.03
266.214	4.02
266.673	4
267.133	3.99
267.593	3.98
268.052	3.97
268.512	3.96
268.971	3.95
269.431	3.93
269.89	3.92
270.349	3.92
270.809	3.91
271.268	3.9
271.727	3.9
272.186	3.9
272.645	3.89
273.104	3.88
273.563	3.87
274.022	3.87
274.481	3.87
274.94	3.86
275.399	3.86
275.857	3.86
276.316	3.86
276.775	3.85
277.233	3.85
277.692	3.85
278.15	3.86
278.609	3.86
279.067	3.86
279.525	3.86
279.984	3.86
280.442	3.86
280.9	3.86
281.358	3.86
281.816	3.86
282.274	3.86
282.732	3.86
283.19	3.85
283.648	3.86
284.106	3.86
284.564	3.85
285.021	3.85
285.479	3.86
285.937	3.86
286.394	3.86
286.852	3.86
287.309	3.87
287.767	3.86
288.224	3.85
288.682	3.84
289.139	3.82
289.596	3.81
290.053	3.79
290.511	3.78
290.968	3.76
291.425	3.74
291.882	3.72
292.339	3.7
292.796	3.69
293.252	3.68
293.709	3.68
294.166	3.67
294.623	3.66
295.079	3.65
295.536	3.65
295.992	3.64
296.449	3.63
296.905	3.63
297.362	3.62
297.818	3.6
298.274	3.6
298.731	3.58
299.187	3.58
299.643	3.57
300.099	3.56
300.555	3.55
301.011	3.54
301.467	3.54
301.923	3.53
302.379	3.54
302.835	3.55
303.291	3.54
303.746	3.55
304.202	3.55
304.658	3.55
305.113	3.55
305.569	3.55
306.024	3.55
306.479	3.55
306.935	3.56
307.39	3.56
307.845	3.56
308.301	3.56
308.756	3.56
309.211	3.57
309.666	3.58
310.121	3.58
310.576	3.59
311.031	3.59
311.486	3.59
311.94	3.6
312.395	3.59
312.85	3.59
313.305	3.6
313.759	3.6
314.214	3.6
314.668	3.59
315.123	3.59
315.577	3.6
316.032	3.6
316.486	3.59
316.94	3.59
317.394	3.59
317.849	3.59
318.303	3.58
318.757	3.56
319.211	3.55
319.665	3.53
320.119	3.53
320.572	3.51
321.026	3.5
321.48	3.49
321.934	3.48
322.387	3.47
322.841	3.46
323.295	3.46
323.748	3.46
324.202	3.46
324.655	3.46
325.108	3.46
325.562	3.46
326.015	3.47
326.468	3.47
326.921	3.47
327.374	3.47
327.827	3.48
328.28	3.47
328.733	3.47
329.186	3.47
329.639	3.47
330.092	3.47
330.545	3.47
330.997	3.47
331.45	3.48
331.903	3.49
332.355	3.5
332.808	3.49
333.26	3.5
333.713	3.51
334.165	3.5
334.617	3.52
335.069	3.52
335.522	3.52
335.974	3.53
336.426	3.53
336.878	3.53
337.33	3.53
337.782	3.54
338.234	3.55
338.686	3.55
339.137	3.56
339.589	3.54
340.041	3.54
340.493	3.53
340.944	3.52
341.396	3.51
341.847	3.5
342.299	3.48
342.75	3.46
343.201	3.44
343.653	3.42
344.104	3.4
344.555	3.39
345.006	3.37
345.457	3.36
345.908	3.34
346.359	3.33
346.81	3.33
347.261	3.33
347.712	3.32
348.163	3.32
348.613	3.32
349.064	3.32
349.515	3.32
349.965	3.31
350.416	3.31
350.866	3.32
351.317	3.31
351.767	3.32
352.217	3.32
352.668	3.31
353.118	3.32
353.568	3.32
354.018	3.33
354.468	3.34
354.918	3.34
355.368	3.35
355.818	3.36
356.268	3.37
356.718	3.37
357.168	3.37
357.617	3.37
358.067	3.37
358.517	3.38
358.966	3.38
359.416	3.38
359.865	3.38
360.315	3.38
360.764	3.39
361.213	3.37
361.663	3.37
362.112	3.38
362.561	3.39
363.01	3.38
363.459	3.36
363.908	3.36
364.357	3.36
364.806	3.36
365.255	3.35
365.703	3.35
366.152	3.37
366.601	3.37
367.05	3.37
367.498	3.36
367.947	3.37
368.395	3.38
368.844	3.38
369.292	3.38
369.74	3.38
370.189	3.39
370.637	3.38
371.085	3.38
371.533	3.37
371.981	3.37
372.429	3.38
372.877	3.37
373.325	3.36
373.773	3.36
374.221	3.36
374.669	3.36
375.116	3.35
375.564	3.35
376.012	3.35
376.459	3.35
376.907	3.36
377.354	3.37
377.801	3.38
378.249	3.38
378.696	3.39
379.143	3.4
379.591	3.41
380.038	3.42
380.485	3.42
380.932	3.44
381.379	3.44
381.826	3.45
382.273	3.46
382.72	3.46
383.166	3.47
383.613	3.47
384.06	3.48
384.506	3.48
384.953	3.49
385.4	3.5
385.846	3.51
386.292	3.53
386.739	3.54
387.185	3.56
387.631	3.59
388.078	3.61
388.524	3.64
388.97	3.65
389.416	3.68
389.862	3.7
390.308	3.74
390.754	3.77
391.2	3.8
391.645	3.83
392.091	3.88
392.537	3.91
392.983	3.94
393.428	3.97
393.874	4
394.319	4.05
394.765	4.08
395.21	4.09
395.655	4.13
396.101	4.16
396.546	4.19
396.991	4.23
397.436	4.26
397.881	4.31
398.326	4.35
398.771	4.39
399.216	4.43
399.661	4.47
400.106	4.51
400.551	4.53
400.995	4.55
401.44	4.56
401.885	4.58
402.329	4.59
402.774	4.61
403.218	4.65
403.663	4.67
404.107	4.69
404.551	4.71
404.995	4.73
405.44	4.76
405.884	4.79
406.328	4.83
406.772	4.84
407.216	4.86
407.66	4.87
408.104	4.86
408.547	4.87
408.991	4.9
409.435	4.91
409.879	4.92
410.322	4.95
410.766	4.96
411.209	4.98
411.653	5.01
412.096	5.04
412.54	5.06
412.983	5.08
413.426	5.12
413.869	5.14
414.312	5.17
414.756	5.2
415.199	5.21
415.642	5.24
416.085	5.26
416.527	5.26
416.97	5.26
417.413	5.27
417.856	5.28
418.298	5.26
418.741	5.25
419.184	5.26
419.626	5.26
420.069	5.26
420.511	5.26
420.953	5.25
421.396	5.26
421.838	5.27
422.28	5.28
422.722	5.31
423.164	5.33
423.606	5.34
424.048	5.33
424.49	5.33
424.932	5.32
425.374	5.31
425.816	5.29
426.258	5.27
426.699	5.24
427.141	5.22
427.582	5.21
428.024	5.19
428.465	5.19
428.907	5.19
429.348	5.18
429.789	5.18
430.231	5.19
430.672	5.21
431.113	5.24
431.554	5.27
431.995	5.29
432.436	5.29
432.877	5.3
433.318	5.31
433.759	5.33
434.2	5.36
434.64	5.37
435.081	5.39
435.522	5.4
435.962	5.41
436.403	5.44
436.843	5.46
437.284	5.46
437.724	5.48
438.164	5.5
438.604	5.52
439.045	5.54
439.485	5.55
439.925	5.57
440.365	5.58
440.805	5.6
441.245	5.63
441.685	5.67
442.125	5.7
442.564	5.74
443.004	5.76
443.444	5.78
443.883	5.81
444.323	5.84
444.762	5.88
445.202	5.91
445.641	5.94
446.081	5.97
446.52	5.99
446.959	6.05
447.398	6.1
447.837	6.15
448.276	6.19
448.716	6.22
449.154	6.27
449.593	6.31
450.032	6.34
450.471	6.35
450.91	6.36
451.349	6.39
451.787	6.38
452.226	6.39
452.664	6.39
453.103	6.4
453.541	6.38
453.98	6.39
454.418	6.37
454.856	6.36
455.295	6.36
455.733	6.33
456.171	6.32
456.609	6.31
457.047	6.27
457.485	6.25
457.923	6.23
458.361	6.21
458.798	6.19
459.236	6.18
459.674	6.17
460.111	6.16
460.549	6.17
460.987	6.17
461.424	6.17
461.862	6.18
462.299	6.17
462.736	6.16
463.173	6.17
463.611	6.18
464.048	6.18
464.485	6.17
464.922	6.17
465.359	6.17
465.796	6.15
466.233	6.16
466.67	6.17
467.106	6.18
467.543	6.18
467.98	6.19
468.416	6.17
468.853	6.18
469.29	6.19
469.726	6.2
470.162	6.2
470.599	6.21
471.035	6.2
471.471	6.19
471.907	6.19
472.344	6.2
472.78	6.21
473.216	6.21
473.652	6.21
474.088	6.21
474.523	6.21
474.959	6.21
475.395	6.19
475.831	6.2
476.266	6.21
476.702	6.2
477.138	6.2
477.573	6.19
478.008	6.2
478.444	6.19
478.879	6.19
479.314	6.19
479.75	6.19
480.185	6.19
480.62	6.18
481.055	6.17
481.49	6.16
481.925	6.16
482.36	6.17
482.795	6.17
483.229	6.18
483.664	6.18
484.099	6.18
484.534	6.2
484.968	6.23
485.403	6.25
485.837	6.28
486.271	6.32
486.706	6.35
487.14	6.38
487.574	6.42
488.009	6.47
488.443	6.51
488.877	6.57
489.311	6.63
489.745	6.68
490.179	6.74
490.613	6.8
491.046	6.87
491.48	6.95
491.914	7.02
492.348	7.1
492.781	7.19
493.215	7.28
493.648	7.38
494.082	7.48
494.515	7.58
494.948	7.69
495.382	7.81
495.815	7.94
496.248	8.07
496.681	8.2
497.114	8.34
497.547	8.47
497.98	8.6
498.413	8.74
498.846	8.9
499.279	9.05
499.711	9.21
500.144	9.38
500.577	9.54
501.009	9.71
501.442	9.88
501.874	10.07
502.306	10.26
502.739	10.47
503.171	10.67
503.603	10.87
504.036	11.08
504.468	11.29
504.9	11.5
505.332	11.72
505.764	11.94
506.196	12.18
506.627	12.42
507.059	12.67
507.491	12.91
507.923	13.16
508.354	13.43
508.786	13.7
509.217	13.98
509.649	14.26
510.08	14.54
510.512	14.83
510.943	15.09
511.374	15.37
511.805	15.66
512.237	15.94
512.668	16.24
513.099	16.53
513.53	16.81
513.961	17.08
514.391	17.37
514.822	17.65
515.253	17.93
515.684	18.22
516.114	18.5
516.545	18.77
516.975	19.05
517.406	19.31
517.836	19.57
518.267	19.84
518.697	20.1
519.127	20.34
519.558	20.6
519.988	20.85
520.418	21.1
520.848	21.34
521.278	21.58
521.708	21.89
522.138	22.11
522.567	22.32
522.997	22.52
523.427	22.72
523.857	22.93
524.286	23.11
524.716	23.29
525.145	23.47
525.575	23.64
526.004	23.82
526.433	23.87
526.863	24.03
527.292	24.19
527.721	24.33
528.15	24.47
528.579	24.6
529.008	24.72
529.437	24.83
529.866	24.93
530.295	25.03
530.724	25.12
531.152	25.21
531.581	25.3
532.01	25.38
532.438	25.46
532.867	25.53
533.295	25.59
533.723	25.65
534.152	25.7
534.58	25.76
535.008	25.79
535.436	25.85
535.865	25.88
536.293	25.92
536.721	25.95
537.149	25.97
537.576	26.01
538.004	26.05
538.432	26.06
538.86	26.08
539.287	26.08
539.715	26.12
540.143	26.14
540.57	26.16
540.998	26.18
541.425	26.2
541.852	26.23
542.28	26.26
542.707	26.28
543.134	26.31
543.561	26.36
543.988	26.39
544.415	26.4
544.842	26.42
545.269	26.45
545.696	26.48
546.123	26.49
546.549	26.51
546.976	26.53
547.403	26.54
547.829	26.55
548.256	26.57
548.682	26.58
549.108	26.61
549.535	26.64
549.961	26.64
550.387	26.65
550.813	26.67
551.24	26.67
551.666	26.66
552.092	26.67
552.518	26.69
552.943	26.69
553.369	26.7
553.795	26.69
554.221	26.67
554.646	26.66
555.072	26.65
555.498	26.63
555.923	26.6
556.349	26.59
556.774	26.54
557.199	26.5
557.625	26.44
558.05	26.41
558.475	26.37
558.9	26.33
559.325	26.28
559.75	26.22
560.175	26.16
560.6	26.1
561.025	26.02
561.449	25.93
561.874	25.86
562.299	25.8
562.723	25.7
563.148	25.59
563.572	25.5
563.997	25.39
564.421	25.28
564.846	25.17
565.27	25.06
565.694	24.97
566.118	24.85
566.542	24.74
566.966	24.61
567.39	24.49
567.814	24.36
568.238	24.21
568.662	24.08
569.086	23.97
569.509	23.84
569.933	23.71
570.357	23.58
570.78	23.45
571.204	23.33
571.627	23.21
572.05	23.1
572.474	23.01
572.897	22.93
573.32	22.84
573.743	22.75
574.166	22.66
574.589	22.56
575.012	22.47
575.435	22.38
575.858	22.29
576.281	22.2
576.704	22.13
577.126	22.04
577.549	21.94
577.972	21.86
578.394	21.78
578.817	21.7
579.239	21.63
579.661	21.56
580.084	21.5
580.506	21.43
580.928	21.37
581.35	21.29
581.772	21.21
582.194	21.16
582.616	21.09
583.038	21.02
583.46	20.95
583.882	20.91
584.303	20.85
584.725	20.8
585.147	20.74
585.568	20.69
585.99	20.64
586.411	20.59
586.833	20.53
587.254	20.49
587.675	20.44
588.096	20.39
588.518	20.34
588.939	20.3
589.36	20.24
589.781	20.21
590.202	20.17
590.623	20.12
591.043	20.08
591.464	20.06
591.885	20.01
592.305	19.99
592.726	19.97
593.147	19.92
593.567	19.88
593.987	19.85
594.408	19.81
594.828	19.76
595.248	19.74
595.669	19.71
596.089	19.66
596.509	19.64
596.929	19.6
597.349	19.55
597.769	19.53
598.189	19.5
598.608	19.47
599.028	19.43
599.448	19.41
599.867	19.36
600.287	19.33
600.706	19.3
601.126	19.25
601.545	19.22
601.965	19.18
602.384	19.13
602.803	19.07
603.222	19.02
603.641	18.98
604.061	18.94
604.48	18.9
604.898	18.85
605.317	18.8
605.736	18.76
606.155	18.69
606.574	18.64
606.992	18.57
607.411	18.52
607.829	18.43
608.248	18.35
608.666	18.28
609.085	18.2
609.503	18.15
609.921	18.09
610.339	18.02
610.758	17.96
611.176	17.9
611.594	17.84
612.012	17.76
612.43	17.72
612.847	17.66
613.265	17.59
613.683	17.53
614.101	17.45
614.518	17.37
614.936	17.3
615.353	17.22
615.771	17.15
616.188	17.09
616.606	17.06
617.023	17.01
617.44	16.96
617.857	16.91
618.274	16.86
618.691	16.82
619.108	16.78
619.525	16.73
619.942	16.71
620.359	16.68
620.776	16.65
621.192	16.61
621.609	16.58
622.026	16.55
622.442	16.52
622.859	16.51
623.275	16.48
623.691	16.46
624.108	16.46
624.524	16.44
624.94	16.43
625.356	16.41
625.772	16.4
626.188	16.4
626.604	16.39
627.02	16.38
627.436	16.37
627.852	16.36
628.268	16.35
628.683	16.33
629.099	16.31
629.514	16.29
629.93	16.26
630.345	16.22
630.761	16.16
631.176	16.12
631.591	16.06
632.007	16
632.422	15.93
632.837	15.85
633.252	15.78
633.667	15.7
634.082	15.6
634.497	15.51
634.911	15.4
635.326	15.29
635.741	15.17
636.155	15.05
636.57	14.92
636.984	14.79
637.399	14.63
637.813	14.47
638.228	14.31
638.642	14.14
639.056	13.98
639.47	13.82
639.884	13.66
640.298	13.5
640.712	13.33
641.126	13.16
641.54	12.98
641.954	12.82
642.368	12.66
642.781	12.51
643.195	12.35
643.609	12.19
644.022	12.04
644.436	11.89
644.849	11.75
645.262	11.61
645.676	11.49
646.089	11.38
646.502	11.27
646.915	11.17
647.328	11.08
647.741	11
648.154	10.93
648.567	10.87
648.98	10.79
649.393	10.74
649.805	10.69
650.218	10.64
650.631	10.6
651.043	10.54
651.456	10.51
651.868	10.46
652.28	10.41
652.693	10.36
653.105	10.31
653.517	10.27
653.929	10.21
654.341	10.14
654.753	10.07
655.165	10
655.577	9.93
655.989	9.85
656.401	9.76
656.813	9.67
657.224	9.56
657.636	9.45
658.047	9.34
658.459	9.23
658.87	9.12
659.282	8.99
659.693	8.87
660.104	8.73
660.515	8.61
660.926	8.49
661.338	8.36
661.749	8.24
662.159	8.12
662.57	8
662.981	7.88
663.392	7.77
663.803	7.66
664.213	7.56
664.624	7.46
665.035	7.36
665.445	7.27
665.855	7.18
666.266	7.11
666.676	7.04
667.086	6.97
667.497	6.91
667.907	6.85
668.317	6.8
668.727	6.75
669.137	6.71
669.547	6.67
669.956	6.64
670.366	6.61
670.776	6.58
671.186	6.56
671.595	6.54
672.005	6.52
672.414	6.51
672.824	6.5
673.233	6.51
673.642	6.52
674.052	6.52
674.461	6.54
674.87	6.56
675.279	6.59
675.688	6.63
676.097	6.66
676.506	6.7
676.915	6.75
677.323	6.8
677.732	6.86
678.141	6.94
678.549	7.02
678.958	7.11
679.366	7.22
679.775	7.33
680.183	7.46
680.592	7.62
681	7.81
681.408	8
681.816	8.22
682.224	8.45
682.632	8.7
683.04	8.99
683.448	9.29
683.856	9.62
684.264	9.96
684.671	10.34
685.079	10.74
685.487	11.16
685.894	11.61
686.302	12.09
686.709	12.57
687.116	13.1
687.524	13.63
687.931	14.18
688.338	14.75
688.745	15.35
689.152	15.94
689.559	16.54
689.966	17.14
690.373	17.74
690.78	18.34
691.187	18.95
691.593	19.54
692	20.15
692.407	20.72
692.813	21.31
693.22	21.85
693.626	22.42
694.032	22.97
694.439	23.53
694.845	24.06
695.251	24.59
695.657	25.1
696.063	25.61
696.469	26.09
696.875	26.57
697.281	27.03
697.687	27.48
698.093	27.91
698.498	28.32
698.904	28.73
699.31	29.11
699.715	29.47
700.12	29.84
700.526	30.18
700.931	30.53
701.337	30.87
701.742	31.18
702.147	31.5
702.552	31.81
702.957	32.09
703.362	32.36
703.767	32.63
704.172	32.91
704.577	33.15
704.981	33.42
705.386	33.65
705.791	33.88
706.195	34.14
706.6	34.38
707.004	34.6
707.408	34.84
707.813	35.06
708.217	35.28
708.621	35.5
709.025	35.7
709.43	35.88
709.834	36.06
710.237	36.25
710.641	36.4
711.045	36.55
711.449	36.74
711.853	36.9
712.256	37.04
712.66	37.21
713.064	37.36
713.467	37.51
713.87	37.65
714.274	37.8
714.677	37.94
715.08	38.06
715.484	38.22
715.887	38.35
716.29	38.44
716.693	38.58
717.096	38.69
717.499	38.8
717.901	38.92
718.304	39.04
718.707	39.17
719.109	39.29
719.512	39.4
719.915	39.5
720.317	39.59
720.719	39.69
721.122	39.8
721.524	39.9
721.926	39.99
722.328	40.09
722.731	40.17
723.133	40.24
723.535	40.32
723.937	40.41
724.338	40.47
724.74	40.52
725.142	40.63
725.544	40.67
725.945	40.72
726.347	40.78
726.748	40.81
727.15	40.86
727.551	40.9
727.952	40.92
728.354	40.98
728.755	41.02
729.156	41.08
729.557	41.1
729.958	41.13
730.359	41.18
730.76	41.23
731.161	41.26
731.562	41.31
731.962	41.35
732.363	41.39
732.763	41.42
733.164	41.44
733.564	41.45
733.965	41.49
734.365	41.55
734.766	41.58
735.166	41.6
735.566	41.63
735.966	41.65
736.366	41.67
736.766	41.69
737.166	41.71
737.566	41.73
737.966	41.76
738.365	41.78
738.765	41.77
739.165	41.78
739.564	41.79
739.964	41.8
740.363	41.81
740.763	41.84
741.162	41.85
741.561	41.86
741.96	41.88
742.36	41.89
742.759	41.89
743.158	41.91
743.557	41.91
743.955	41.93
744.354	41.93
744.753	41.96
745.152	41.97
745.55	42.01
745.949	42.03
746.348	42.07
746.746	42.07
747.144	42.11
747.543	42.11
747.941	42.13
748.339	42.12
748.737	42.15
749.136	42.16
749.534	42.14
749.932	42.12
750.33	42.12
750.727	42.11
751.125	42.11
751.523	42.1
751.921	42.08
752.318	42.08
752.716	42.1
753.113	42.09
753.511	42.09
753.908	42.12
754.305	42.12
754.703	42.11
755.1	42.11
755.497	42.09
755.894	42.08
756.291	42.08
756.688	42.04
757.085	42.02
757.482	41.99
757.878	41.99
758.275	41.95
758.672	41.95
759.068	41.96
759.465	41.92
759.861	41.92
760.258	41.9
760.654	41.9
761.05	41.91
761.447	41.91
761.843	41.92
762.239	41.88
762.635	41.86
763.031	41.86
763.427	41.82
763.822	41.86
764.218	41.86
764.614	41.87
765.01	41.87
765.405	41.89
765.801	41.9
766.196	41.91
766.592	41.94
766.987	41.95
767.382	41.95
767.778	41.98
768.173	41.98
768.568	41.96
768.963	41.96
769.358	41.97
769.753	41.97
770.148	41.96
770.542	41.96
770.937	41.95
771.332	41.94
771.726	41.96
772.121	41.95
772.515	41.95
772.91	41.96
773.304	41.98
773.699	41.95
774.093	41.96
774.487	41.96
774.881	41.96
775.275	41.95
775.669	41.95
776.063	41.92
776.457	41.94
776.851	41.93
777.245	41.92
777.638	41.92
778.032	41.93
778.425	41.95
778.819	41.95
779.212	41.97
779.606	42
779.999	42.01
780.392	42.04
780.786	42
781.179	42.04
781.572	42.07
781.965	42.09
782.358	42.14
782.751	42.11
783.143	42.14
783.536	42.12
783.929	42.11
784.322	42.12
784.714	42.13
785.107	42.16
785.499	42.17
785.891	42.16
786.284	42.18
786.676	42.15
787.068	42.15
787.46	42.16
787.852	42.17
788.245	42.17
788.636	42.19
789.028	42.18
789.42	42.16
789.812	42.16
790.204	42.17
790.595	42.15
790.987	42.19
791.378	42.24
791.77	42.24
792.161	42.24
792.553	42.25
792.944	42.25
793.335	42.29
793.726	42.32
794.117	42.31
794.508	42.3
794.899	42.32
795.29	42.3
795.681	42.27
796.072	42.27
796.463	42.3
796.853	42.31
797.244	42.32
797.634	42.32
798.025	42.32
798.415	42.33
798.806	42.34
799.196	42.35
799.586	42.38
799.976	42.41
800.366	42.4
800.756	42.42
801.146	42.45
801.536	42.46
801.926	42.46
802.316	42.47
802.706	42.5
803.095	42.52
803.485	42.52
803.874	42.51
804.264	42.54
804.653	42.57
805.043	42.58
805.432	42.59
805.821	42.62
806.21	42.66
806.599	42.65
806.988	42.67
807.377	42.69
807.766	42.7
808.155	42.72
808.544	42.71
808.933	42.7
809.321	42.69
809.71	42.71
810.098	42.68
810.487	42.65
810.875	42.67
811.264	42.67
811.652	42.66
812.04	42.68
812.428	42.71
812.816	42.71
813.204	42.74
813.592	42.74
813.98	42.72
814.368	42.74
814.756	42.77
815.144	42.76
815.531	42.74
815.919	42.71
816.306	42.7
816.694	42.68
817.081	42.67
817.469	42.66
817.856	42.67
818.243	42.67
818.63	42.66
819.017	42.63
819.404	42.65
819.791	42.67
820.178	42.71
820.565	42.71
820.952	42.71
821.339	42.71
821.725	42.74
822.112	42.72
822.498	42.76
822.885	42.78
823.271	42.79
823.657	42.78
824.044	42.79
824.43	42.78
824.816	42.77
825.202	42.76
825.588	42.75
825.974	42.71
826.36	42.7
826.746	42.67
827.132	42.65
827.517	42.65
827.903	42.65
828.289	42.64
828.674	42.63
829.06	42.62
829.445	42.6
829.83	42.61
830.216	42.6
830.601	42.61
830.986	42.6
831.371	42.59
831.756	42.58
832.141	42.55
832.526	42.53
832.911	42.51
833.295	42.5
833.68	42.5
834.065	42.47
834.449	42.45
834.834	42.42
835.218	42.41
835.603	42.39
835.987	42.36
836.371	42.35
836.755	42.35
837.139	42.34
837.524	42.33
837.908	42.33
838.291	42.36
838.675	42.36
839.059	42.35
839.443	42.34
839.827	42.33
840.21	42.35
840.594	42.34
840.977	42.33
841.361	42.35
841.744	42.33
842.127	42.31
842.511	42.27
842.894	42.24
843.277	42.26
843.66	42.23
844.043	42.24
844.426	42.22
844.809	42.24
845.191	42.26
845.574	42.25
845.957	42.26
846.339	42.28
846.722	42.3
847.104	42.32
847.487	42.34
847.869	42.35
848.252	42.35
848.634	42.35
849.016	42.35
849.398	42.35
849.78	42.34
850.162	42.36
850.544	42.35
850.926	42.36
851.307	42.36
851.689	42.35
852.071	42.36
852.452	42.36
852.834	42.37
853.215	42.36
853.597	42.35
853.978	42.34
854.359	42.32
854.741	42.32
855.122	42.3
855.503	42.31
855.884	42.32
856.265	42.3
856.646	42.29
857.026	42.32
857.407	42.32
857.788	42.31
858.169	42.33
858.549	42.34
858.93	42.35
859.31	42.36
859.69	42.35
860.071	42.36
860.451	42.39
860.831	42.39
861.211	42.37
861.591	42.36
861.971	42.37
862.351	42.38
862.731	42.37
863.111	42.36
863.491	42.37
863.87	42.35
864.25	42.33
864.629	42.32
865.009	42.34
865.388	42.33
865.768	42.35
866.147	42.37
866.526	42.36
866.905	42.35
867.284	42.36
867.663	42.37
868.042	42.4
868.421	42.45
868.8	42.46
869.179	42.44
869.558	42.46
869.936	42.45
870.315	42.43
870.693	42.42
871.072	42.43
871.45	42.46
871.828	42.45
872.207	42.46
872.585	42.41
872.963	42.41
873.341	42.41
873.719	42.4
874.097	42.4
874.475	42.44
874.853	42.44
875.23	42.46
875.608	42.42
875.986	42.44
876.363	42.43
876.741	42.47
877.118	42.49
877.495	42.5
877.873	42.5
878.25	42.53
878.627	42.51
879.004	42.52
879.381	42.52
879.758	42.53
880.135	42.52
880.512	42.51
880.889	42.49
881.265	42.46
881.642	42.46
882.019	42.46
882.395	42.42
882.772	42.42
883.148	42.4
883.524	42.39
883.901	42.38
884.277	42.35
884.653	42.35
885.029	42.34
885.405	42.35
885.781	42.34
886.157	42.32
886.532	42.33
886.908	42.31
887.284	42.3
887.659	42.27
888.035	42.24
888.411	42.23
888.786	42.23
889.161	42.21
889.537	42.18
889.912	42.18
890.287	42.17
890.662	42.14
891.037	42.12
891.412	42.1
891.787	42.09
892.162	42.11
892.536	42.09
892.911	42.07
893.286	42.05
893.66	42.05
894.035	42.03
894.409	42.02
894.784	42.03
895.158	42.03
895.532	42.02
895.906	42.03
896.281	42
896.655	42
897.029	42
897.402	41.99
897.776	41.99
898.15	41.98
898.524	41.98
898.898	41.98
899.271	41.98
899.645	42.01
900.018	42.02
900.392	42.06
900.765	42.09
901.138	42.11
901.511	42.15
901.884	42.18
902.258	42.2
902.631	42.21
903.003	42.24
903.376	42.26
903.749	42.26
904.122	42.27
904.495	42.29
904.867	42.32
905.24	42.33
905.612	42.32
905.985	42.3
906.357	42.32
906.729	42.33
907.102	42.31
907.474	42.33
907.846	42.33
908.218	42.33
908.59	42.32
908.962	42.3
909.334	42.3
909.705	42.3
910.077	42.3
910.449	42.32
910.82	42.32
911.192	42.34
911.563	42.34
911.935	42.33
912.306	42.34
912.677	42.36
913.048	42.37
913.419	42.36
913.79	42.38
914.161	42.42
914.532	42.4
914.903	42.41
915.274	42.4
915.645	42.39
916.015	42.43
916.386	42.38
916.756	42.37
917.127	42.36
917.497	42.38
917.868	42.36
918.238	42.35
918.608	42.39
918.978	42.36
919.348	42.37
919.718	42.35
920.088	42.36
920.458	42.39
920.828	42.39
921.198	42.37
921.567	42.37
921.937	42.38
922.306	42.38
922.676	42.36
923.045	42.38
923.415	42.35
923.784	42.38
924.153	42.38
924.522	42.37
924.891	42.38
925.26	42.41
925.629	42.42
925.998	42.43
926.367	42.42
926.736	42.41
927.104	42.41
927.473	42.42
927.842	42.39
928.21	42.4
928.578	42.38
928.947	42.4
929.315	42.38
929.683	42.37
930.051	42.34
930.42	42.32
930.788	42.28
931.156	42.23
931.523	42.21
931.891	42.28
932.259	42.24
932.627	42.24
932.994	42.18
933.362	42.15
933.729	42.13
934.097	42.1
934.464	42.09
934.831	42.12
935.199	42.16
935.566	42.16
935.933	42.12
936.3	42.09
936.667	42.1
937.034	42.13
937.401	42.18
937.767	42.22
938.134	42.3
938.501	42.34
938.867	42.4
939.234	42.43
939.6	42.49
939.967	42.53
940.333	42.61
940.699	42.65
941.065	42.73
941.431	42.77
941.798	42.79
942.163	42.8
942.529	42.86
942.895	42.91
943.261	42.94
943.627	42.98
943.992	43.03
944.358	43.05
944.723	43.08
945.089	43.05
945.454	43.06
945.82	43.07
946.185	43.07
946.55	43.03
946.915	42.98
947.28	43
947.645	43.02
948.01	42.97
948.375	43
948.74	43.01
949.104	43.04
949.469	43.05
949.834	43
950.198	43.01
950.562	42.98
950.927	42.95
951.291	42.84
951.655	42.77
952.02	42.77
952.384	42.69
952.748	42.63
953.112	42.56
953.476	42.49
953.839	42.44
954.203	42.38
954.567	42.37
954.931	42.34
955.294	42.35
955.658	42.4
956.021	42.38
956.385	42.33
956.748	42.25
957.111	42.22
957.474	42.25
957.837	42.19
958.2	42.16
958.563	42.1
958.926	42.12
959.289	42.16
959.652	42.07
960.015	42.02
960.377	42
960.74	42.04
961.102	42.07
961.465	42.05
961.827	42.08
962.189	42.08
962.552	42.08
962.914	42.05
963.276	42
963.638	41.99
964	41.98
964.362	41.99
964.724	41.97
965.085	41.89
965.447	41.86
965.809	41.88
966.17	41.86
966.532	41.92
966.893	41.91
967.255	41.91
967.616	41.91
967.977	41.92
968.338	41.9
968.699	41.92
969.061	41.95
969.421	41.97
969.782	42.02
970.143	42.03
970.504	41.97
970.865	41.96
971.225	41.93
971.586	41.94
971.946	41.9
972.307	41.88
972.667	41.82
973.027	41.82
973.388	41.79
973.748	41.74
974.108	41.8
974.468	41.77
974.828	41.82
975.188	41.82
975.548	41.78
975.907	41.82
976.267	41.87
976.627	41.95
976.986	41.92
977.346	41.96
977.705	41.96
978.064	41.9
978.424	41.98
978.783	41.97
979.142	41.98
979.501	42.04
979.86	42.09
980.219	42.1
980.578	42.1
980.937	42.13
981.296	42.1
981.654	42.07
982.013	42.12
982.371	42.11
982.73	42.07
983.088	42.05
983.447	42.03
983.805	41.96
984.163	41.93
984.521	41.92
984.879	41.96
985.237	41.97
985.595	42.04
985.953	42.04
986.311	42.05
986.669	42.1
987.026	42.17
987.384	42.24
987.741	42.25
988.099	42.3
988.456	42.29
988.814	42.28
989.171	42.35
989.528	42.36
989.885	42.31
990.242	42.32
990.599	42.36
990.956	42.39
991.313	42.37
991.67	42.53
992.027	42.58
992.383	42.68
992.74	42.77
993.096	42.72
993.453	42.73
993.809	42.86
994.165	42.94
994.522	42.91
994.878	42.93
995.234	43.03
995.59	42.95
995.946	42.98
996.302	42.98
996.658	42.98
997.013	43.13
997.369	43.11
997.725	43.1
998.08	43.13
998.436	43.21
998.791	43.33
999.147	43.22
999.502	43.34
999.857	43.41
1000.212	43.39
1000.567	43.45
1000.922	43.43
1001.277	43.57
1001.632	43.47
1001.987	43.4
1002.342	43.41
1002.696	43.35
1003.051	43.52
1003.406	43.69
1003.76	43.74
1004.114	43.78
1004.469	43.88
1004.823	44.1
1005.177	44.12
1005.531	44.39
1005.885	44.47
1006.239	44.61
1006.593	44.63
1006.947	44.8
1007.301	44.68
1007.655	44.57
1008.008	44.74
1008.362	44.87
1008.715	44.67
1009.069	44.85
1009.422	44.87
1009.776	44.99
1010.129	45.03
1010.482	45.21
1010.835	45.15
1011.188	45.21
1011.541	45.35
1011.894	45.37
1012.247	45.24
1012.6	45.32
1012.952	45.23
1013.305	45.43
1013.657	45.58
1014.01	45.65
1014.362	45.62
1014.715	45.68
1015.067	45.91
1015.419	46.15
1015.771	46.23
1016.123	46.31
1016.475	46.49
1016.827	46.75
1017.179	46.66
1017.531	46.63
1017.883	46.8
1018.234	46.89
1018.586	46.97
1018.938	47.01
1019.289	46.97
1019.64	47.14
1019.992	47.28
1020.343	47.37
1020.694	47.28
1021.045	47.48
1021.396	47.72
1021.747	48
1022.098	48.24
1022.449	48.35
1022.8	48.7
1023.151	48.58
1023.501	48.8
1023.852	49.12
1024.202	49.16
1024.553	49.29
1024.903	49.43
1025.253	49.6
1025.604	49.63
1025.954	49.58
1026.304	49.68
1026.654	49.46
1027.004	49.64
1027.354	49.53
1027.703	49.33
1028.053	49.56
1028.403	49.9
1028.753	49.86
1029.102	49.9
1029.452	49.8
1029.801	49.99
1030.15	50.1
1030.499	50.12
897.758	956.22
901.051	963.82
904.343	964.1
907.636	977.64
910.928	952.59
914.22	951.06
917.511	938.41
920.803	902.72
924.094	900.28
927.384	875.11
930.675	842.31
933.965	838.27
937.255	787.18
940.544	755.55
943.834	721.89
947.123	715.24
950.411	674.51
953.7	661.02
956.988	622.99
960.276	597.96
963.563	589.69
966.851	566.72
970.138	564.24
973.424	548.27
976.711	549.27
979.997	521.5
983.283	518.98
986.568	507.89
989.853	493.18
993.138	484.33
996.423	467.03
999.708	454.05
1002.992	449.36
1006.275	428.85
1009.559	425.36
1012.842	410.76
1016.125	399.95
1019.408	391.83
1022.69	388.54
1025.972	379.48
1029.254	370.39
1032.536	363.19
1035.817	356.99
1039.098	353.2
1042.379	345.84
1045.659	341.19
1048.939	333.47
1052.219	327.26
1055.498	323.88
1058.778	314.49
1062.057	309.74
1065.335	306.7
1068.614	303.75
1071.892	300.12
1075.17	291.07
1078.447	285.43
1081.724	283.63
1085.001	280.19
1088.278	276.83
1091.554	270.36
1094.83	271.64
1098.106	268.48
1101.382	266.14
1104.657	264.01
1107.932	259.96
1111.206	260.95
1114.481	255.13
1117.755	253.63
1121.029	252.29
1124.302	249.37
1127.575	246.49
1130.848	243.08
1134.121	240.52
1137.393	239.66
1140.665	234.44
1143.937	232.43
1147.208	230.74
1150.48	230.12
1153.75	225.43
1157.021	222.4
1160.291	223.75
1163.561	220.08
1166.831	219.4
1170.101	217.73
1173.37	217.16
1176.639	217.49
1179.907	215.59
1183.176	213.69
1186.444	213.44
1189.711	214.02
1192.979	213.57
1196.246	211.7
1199.513	213.08
1202.78	211.94
1206.046	211.5
1209.312	210.01
1212.578	210.33
1215.843	211.34
1219.108	210.66
1222.373	214.53
1225.638	215.47
1228.902	218.07
1232.166	218.1
1235.43	218.38
1238.693	222.42
1241.956	224.34
1245.219	226.79
1248.482	226.67
1251.744	227.53
1255.006	227.49
1258.268	223.07
1261.529	221.36
1264.79	220.92
1268.051	218.93
1271.312	217.13
1274.572	213.75
1277.832	211.62
1281.092	208.53
1284.351	207.17
1287.61	207.06
1290.869	203.61
1294.128	201.9
1297.386	201.71
1300.644	199.02
1303.902	201.18
1307.159	200.49
1310.416	200.86
1313.673	199.98
1316.93	202.23
1320.186	201.82
1323.442	202.53
1326.697	205.6
1329.953	206.78
1333.208	207.45
1336.463	210.9
1339.717	210.04
1342.972	213.58
1346.226	214.3
1349.479	215.46
1352.733	215.78
1355.986	218.26
1359.238	217.41
1362.491	218.6
1365.743	220.51
1368.995	221.14
1372.247	219.23
1375.498	219.71
1378.749	219.19
1382	218.17
1385.251	218.62
1388.501	217.33
1391.751	216.65
1395	216.19
1398.25	214.4
1401.499	212.11
1404.748	212.05
1407.996	209.77
1411.244	208.78
1414.492	207.5
1417.74	205
1420.987	202.24
1424.234	201.88
1427.481	200.06
1430.728	199.86
1433.974	197.54
1437.22	196.05
1440.465	194.67
1443.711	193.69
1446.956	192.13
1450.201	190.13
1453.445	188.6
1456.689	187.51
1459.933	184.41
1463.177	182.71
1466.42	180.37
1469.663	179.11
1472.906	177.94
1476.148	173.64
1479.391	172.17
1482.633	171
1485.874	168.58
1489.115	167.41
1492.356	165.56
1495.597	165.6
1498.838	163.15
1502.078	161.77
1505.318	161
1508.557	161.06
1511.797	161.22
1515.036	159.37
1518.274	158.71
1521.513	157.85
1524.751	157.49
1527.989	157.17
1531.227	156.31
1534.464	156.28
1537.701	156.4
1540.938	155.78
1544.174	153.88
1547.41	153.87
1550.646	153.24
1553.882	152.77
1557.117	151.45
1560.352	150.79
1563.587	150.2
1566.821	149.11
1570.055	148.64
1573.289	146.02
1576.523	146.3
1579.756	145.41
1582.989	144.15
1586.222	144.3
1589.454	144.54
1592.686	144.58
1595.918	144
1599.15	143.57
1602.381	144.37
1605.612	143.46
1608.843	144.61
1612.073	144.22
1615.303	144.67
1618.533	145.15
1621.762	145.12
1624.992	144.85
1628.221	144.71
1631.449	144.52
1634.678	144.48
1637.906	144.95
1641.134	144.87
1644.361	144.6
1647.588	145.01
1650.815	144.85
1654.042	144.15
1657.269	144.61
1660.495	144.54
1663.72	144.51
1666.946	144.7
1670.171	145.25
1673.396	144.67
1676.621	144.89
1679.845	145.62
1683.069	145.94
1686.293	146.38
1689.517	147.21
1692.74	146.96
1695.963	147.28
1699.185	148.26
1702.408	148.92
1705.63	149.26
1708.852	149.69
1712.073	150.15
1715.294	150.12
1718.515	150.77
1721.736	150.72
1724.956	151.53
1728.176	151.63
1731.396	152.5
1734.616	152.09
1737.835	152.88
1741.054	151.59
1744.272	151.93
1747.491	153.07
1750.709	153.43
1753.927	153.14
1757.144	153.06
1760.361	152.84
1763.578	153.49
1766.795	153.28
1770.011	154.85
1773.227	154.19
1776.443	156.4
1779.658	156.75
1782.874	156.36
1786.089	156.27
1789.303	156.82
1792.518	158.65
1795.732	158.67
1798.945	159.56
1802.159	160.03
1805.372	159.56
1808.585	162.57
1811.797	163.03
1815.01	163.67
1818.222	165.05
1821.434	167.46
1824.645	167.69
1827.856	169.91
1831.067	171.01
1834.278	171.39
1837.488	172.65
1840.698	174.29
1843.908	172.64
1847.117	172.98
1850.326	174.41
1853.535	173.35
1856.744	175.11
1859.952	174.77
1863.16	173.66
1866.368	172.7
1869.575	173.49
1872.782	170.83
1875.989	169.78
1879.196	169.81
1882.402	169.04
1885.608	168.42
1888.814	168.74
1892.019	167.83
1895.224	167.34
1898.429	166.51
1901.634	167.33
1904.838	167.66
1908.042	168.73
1911.246	169.21
1914.449	169.12
1917.652	168.94
1920.855	168.64
1924.058	169.18
1927.26	168.05
1930.462	168.71
1933.664	170.57
1936.865	169.29
1940.066	168.18
1943.267	167.61
1946.467	168.43
1949.668	168.85
1952.868	171.2
1956.067	172.07
1959.267	171.54
1962.466	172.29
1965.665	170.89
1968.863	171.46
1972.061	175.3
1975.259	177.12
1978.457	178.59
1981.654	179.41
1984.852	180.32
1988.048	179.42
1991.245	180.75
1994.441	183.35
1997.637	185.13
2000.833	189.34
2004.028	191.53
2007.223	191.04
2010.418	193.11
2013.613	197.25
2016.807	199.05
2020.001	200.96
2023.194	204.55
2026.388	209.46
2029.581	214.55
2032.774	215.72
2035.966	219.85
2039.158	220.41
2042.35	224.31
2045.542	225.88
2048.733	229.14
2051.924	232.34
2055.115	235.89
2058.306	236.17
2061.496	237.62
2064.686	237.59
2067.875	242.76
2071.065	243.76
2074.254	242.1
2077.442	246.26
2080.631	246.68
2083.819	248.33
2087.007	249.26
2090.195	252.58
2093.382	254.82
2096.569	254
2099.756	257.08
2102.942	256.77
2106.128	258.97
2109.314	265.84
2112.5	264.22
2115.685	269.78
2118.87	269.95
2122.055	274.84
2125.239	275.23
2128.424	278.82
2131.608	281.58
2134.791	285.07
2137.974	285.97
2141.157	287.14
2144.34	287.17
2147.523	292.84
2150.705	291.5
2153.887	295.41
2157.068	295.93
2160.25	294.64
2163.431	296.69
2166.611	299.46
2169.792	304.75
2172.972	308.97
2176.152	311.92
2179.331	315.92
2182.511	319.58
2185.69	323.36
2188.868	329.85
2192.047	330.05
2195.225	340.06
2198.403	346.14
2201.58	352.44
2204.758	360.75
2207.935	367.35
2211.111	373.48
2214.288	376.6
2217.464	377.96
2220.64	383.35
2223.815	387.62
2226.991	402.6
2230.166	402.95
2233.34	410.42
2236.515	418.91
2239.689	417.62
2242.863	421.1
2246.036	430.84
2249.209	428.25
2252.382	437.38
2255.555	448.71
2258.727	450.33
2261.9	455.56
2265.071	459.82
2268.243	466.31
2271.414	470.95
2274.585	480.09
2277.756	483.53
2280.926	488.65
2284.096	501.49
2287.266	509.73
2290.436	515.87
2293.605	526.38
2296.774	542.52
2299.942	556.74
2303.111	560.52
2306.279	570.42
2309.447	580.36
2312.614	596.19
2315.781	611.01
2318.948	640.4
2322.115	630.94
2325.281	665.5
2328.447	655.59
2331.613	678.18
2334.779	675.06
2337.944	705.11
2341.109	712.53
2344.274	732.17
2347.438	756.66
2350.602	760.14
2353.766	777.18
2356.929	792.1
2360.092	786.77
2363.255	840.19
2366.418	839.47
2369.58	852.8
2372.742	907.76
2375.904	931.94
2379.066	925.14
2382.227	909.79
2385.388	980.49
2388.548	987.19
2391.709	995.41
2394.869	1106.16
2398.029	1063.7
2401.188	1092.05
2404.347	1089.38
2407.506	1065.11
2410.665	1095.32
2413.823	1158.52
2416.981	1223.36
2420.139	1195.39
2423.296	1175.61
2426.453	1230.45
2429.61	1189.94
2432.767	1240.2
2435.923	1228.9
2439.079	1344.26
2442.235	1368.71
2445.391	1356.03
2448.546	1346.39
2451.701	1308.75
2454.855	1296.01
2458.009	1391.12
2461.163	1445.5
2464.317	1486.01
2467.471	1519.59
2470.624	1519.01
2473.777	1479.58
2476.929	1433.2
2480.082	1389.85
2483.234	1378.32
2486.385	1453.37
2489.537	1459.79
2492.688	1502.64
2495.839	1464.35
2498.989	1432.15
2502.14	1440.58
2505.29	1458.13
2508.439	1475.51
2511.589	1478.42
2514.738	1613.15
2517.887	1576.06
2521.035	1650.64
2524.183	1677.93
2527.331	1684.06
2530.479	1669.79
2533.627	1687.88
