Data from C_3_HIR_WI_4N_Splice17_14-02-32-535.txt Node
Date: Sat Mar 07 14:02:32 EST 2020
User: sa697716
Spectrometer: NQ5500242
Trigger mode: 0
Integration Time (sec): 1.450000E-1
Scans to average: 20
Nonlinearity correction enabled: false
Boxcar width: 5
Storing dark spectrum: false
XAxis mode: Wavelengths
Number of Pixels in Spectrum: 512
>>>>>Begin Spectral Data<<<<<
187.83	120.11
188.298	134.66
188.766	92.61
189.233	72.16
189.701	73.17
190.169	86.48
190.636	59.72
191.104	-1.84
191.571	-144.9
192.039	-119.81
192.506	-349.25
192.974	116.35
193.441	302.14
193.908	66
194.375	-5.03
194.842	-70.27
195.31	-71.78
195.777	-360.8
196.244	29.13
196.711	50.97
197.177	55.05
197.644	54.84
198.111	55.22
198.578	55.17
199.045	55.49
199.511	55.9
199.978	56.35
200.445	56.63
200.911	56.82
201.378	56.78
201.844	56.5
202.31	55.97
202.777	56.05
203.243	55.89
203.709	55.27
204.176	54.81
204.642	54.53
205.108	54.28
205.574	53.85
206.04	52.99
206.506	52.65
206.972	52.6
207.438	52.53
207.903	51.77
208.369	50.67
208.835	49.83
209.301	48.95
209.766	47.39
210.232	45.78
210.697	44.34
211.163	43.44
211.628	42.38
212.094	41.11
212.559	39.98
213.024	39.01
213.49	38.22
213.955	37.28
214.42	36.41
214.885	35.52
215.35	34.29
215.815	32.65
216.28	30.44
216.745	27.83
217.21	25.46
217.675	23.21
218.14	21.27
218.604	19.5
219.069	18.07
219.534	16.79
219.998	15.76
220.463	14.92
220.927	14.14
221.392	13.56
221.856	13.12
222.32	12.7
222.785	12.34
223.249	11.98
223.713	11.71
224.177	11.44
224.642	11.2
225.106	10.94
225.57	10.7
226.034	10.51
226.497	10.3
226.961	10.09
227.425	9.91
227.889	9.72
228.353	9.55
228.816	9.38
229.28	9.22
229.744	9.06
230.207	8.93
230.671	8.78
231.134	8.65
231.597	8.54
232.061	8.43
232.524	8.3
232.987	8.19
233.45	8.09
233.914	7.98
234.377	7.87
234.84	7.77
235.303	7.69
235.766	7.61
236.229	7.54
236.691	7.45
237.154	7.38
237.617	7.32
238.08	7.24
238.542	7.18
239.005	7.14
239.468	7.07
239.93	7.03
240.393	6.95
240.855	6.88
241.317	6.81
241.78	6.75
242.242	6.68
242.704	6.62
243.166	6.57
243.629	6.51
244.091	6.43
244.553	6.37
245.015	6.3
245.477	6.25
245.939	6.21
246.4	6.16
246.862	6.11
247.324	6.07
247.786	6.01
248.247	5.94
248.709	5.89
249.17	5.85
249.632	5.81
250.093	5.77
250.555	5.73
251.016	5.69
251.477	5.64
251.939	5.61
252.4	5.58
252.861	5.54
253.322	5.52
253.783	5.49
254.244	5.46
254.705	5.42
255.166	5.39
255.627	5.36
256.088	5.33
256.549	5.3
257.009	5.27
257.47	5.23
257.931	5.2
258.391	5.16
258.852	5.12
259.312	5.08
259.773	5.04
260.233	5.02
260.694	4.99
261.154	4.96
261.614	4.94
262.074	4.91
262.534	4.87
262.994	4.85
263.455	4.83
263.915	4.81
264.374	4.79
264.834	4.77
265.294	4.74
265.754	4.72
266.214	4.71
266.673	4.69
267.133	4.68
267.593	4.67
268.052	4.66
268.512	4.64
268.971	4.63
269.431	4.62
269.89	4.61
270.349	4.6
270.809	4.59
271.268	4.57
271.727	4.56
272.186	4.55
272.645	4.54
273.104	4.52
273.563	4.51
274.022	4.5
274.481	4.49
274.94	4.49
275.399	4.47
275.857	4.46
276.316	4.46
276.775	4.45
277.233	4.45
277.692	4.44
278.15	4.43
278.609	4.42
279.067	4.41
279.525	4.41
279.984	4.4
280.442	4.39
280.9	4.39
281.358	4.39
281.816	4.38
282.274	4.37
282.732	4.36
283.19	4.35
283.648	4.34
284.106	4.33
284.564	4.33
285.021	4.33
285.479	4.33
285.937	4.31
286.394	4.3
286.852	4.29
287.309	4.29
287.767	4.28
288.224	4.27
288.682	4.26
289.139	4.25
289.596	4.23
290.053	4.2
290.511	4.18
290.968	4.17
291.425	4.15
291.882	4.13
292.339	4.11
292.796	4.1
293.252	4.08
293.709	4.07
294.166	4.07
294.623	4.05
295.079	4.04
295.536	4.03
295.992	4.02
296.449	4.01
296.905	4.01
297.362	4.01
297.818	4
298.274	3.98
298.731	3.97
299.187	3.96
299.643	3.95
300.099	3.94
300.555	3.93
301.011	3.91
301.467	3.91
301.923	3.89
302.379	3.88
302.835	3.87
303.291	3.87
303.746	3.86
304.202	3.86
304.658	3.86
305.113	3.86
305.569	3.85
306.024	3.86
306.479	3.85
306.935	3.84
307.39	3.84
307.845	3.83
308.301	3.83
308.756	3.83
309.211	3.83
309.666	3.83
310.121	3.82
310.576	3.82
311.031	3.82
311.486	3.82
311.94	3.83
312.395	3.83
312.85	3.83
313.305	3.83
313.759	3.83
314.214	3.83
314.668	3.82
315.123	3.82
315.577	3.81
316.032	3.8
316.486	3.79
316.94	3.78
317.394	3.77
317.849	3.75
318.303	3.73
318.757	3.71
319.211	3.7
319.665	3.68
320.119	3.67
320.572	3.66
321.026	3.64
321.48	3.64
321.934	3.62
322.387	3.61
322.841	3.61
323.295	3.6
323.748	3.6
324.202	3.59
324.655	3.6
325.108	3.6
325.562	3.59
326.015	3.58
326.468	3.57
326.921	3.57
327.374	3.56
327.827	3.55
328.28	3.55
328.733	3.55
329.186	3.54
329.639	3.53
330.092	3.52
330.545	3.52
330.997	3.52
331.45	3.52
331.903	3.52
332.355	3.53
332.808	3.53
333.26	3.52
333.713	3.51
334.165	3.51
334.617	3.52
335.069	3.51
335.522	3.52
335.974	3.52
336.426	3.52
336.878	3.52
337.33	3.51
337.782	3.52
338.234	3.53
338.686	3.53
339.137	3.54
339.589	3.52
340.041	3.52
340.493	3.5
340.944	3.49
341.396	3.48
341.847	3.46
342.299	3.45
342.75	3.43
343.201	3.4
343.653	3.38
344.104	3.36
344.555	3.35
345.006	3.33
345.457	3.32
345.908	3.31
346.359	3.3
346.81	3.29
347.261	3.28
347.712	3.28
348.163	3.27
348.613	3.27
349.064	3.28
349.515	3.28
349.965	3.28
350.416	3.27
350.866	3.27
351.317	3.27
351.767	3.27
352.217	3.27
352.668	3.27
353.118	3.27
353.568	3.27
354.018	3.28
354.468	3.28
354.918	3.28
355.368	3.29
355.818	3.29
356.268	3.29
356.718	3.29
357.168	3.29
357.617	3.29
358.067	3.3
358.517	3.31
358.966	3.31
359.416	3.31
359.865	3.31
360.315	3.31
360.764	3.31
361.213	3.32
361.663	3.32
362.112	3.33
362.561	3.34
363.01	3.34
363.459	3.33
363.908	3.33
364.357	3.34
364.806	3.34
365.255	3.35
365.703	3.37
366.152	3.39
366.601	3.4
367.05	3.42
367.498	3.43
367.947	3.45
368.395	3.48
368.844	3.49
369.292	3.51
369.74	3.52
370.189	3.54
370.637	3.55
371.085	3.56
371.533	3.57
371.981	3.59
372.429	3.61
372.877	3.63
373.325	3.65
373.773	3.67
374.221	3.68
374.669	3.71
375.116	3.72
375.564	3.75
376.012	3.77
376.459	3.78
376.907	3.81
377.354	3.84
377.801	3.87
378.249	3.9
378.696	3.93
379.143	3.96
379.591	3.98
380.038	4.02
380.485	4.05
380.932	4.08
381.379	4.12
381.826	4.15
382.273	4.17
382.72	4.2
383.166	4.23
383.613	4.26
384.06	4.28
384.506	4.32
384.953	4.35
385.4	4.39
385.846	4.42
386.292	4.46
386.739	4.49
387.185	4.53
387.631	4.57
388.078	4.61
388.524	4.65
388.97	4.69
389.416	4.73
389.862	4.76
390.308	4.79
390.754	4.84
391.2	4.87
391.645	4.9
392.091	4.95
392.537	4.98
392.983	5.01
393.428	5.05
393.874	5.09
394.319	5.12
394.765	5.13
395.21	5.16
395.655	5.18
396.101	5.21
396.546	5.23
396.991	5.25
397.436	5.27
397.881	5.31
398.326	5.34
398.771	5.36
399.216	5.39
399.661	5.42
400.106	5.44
400.551	5.45
400.995	5.45
401.44	5.46
401.885	5.46
402.329	5.46
402.774	5.47
403.218	5.49
403.663	5.49
404.107	5.49
404.551	5.5
404.995	5.5
405.44	5.51
405.884	5.52
406.328	5.53
406.772	5.53
407.216	5.54
407.66	5.53
408.104	5.52
408.547	5.51
408.991	5.51
409.435	5.51
409.879	5.52
410.322	5.52
410.766	5.52
411.209	5.53
411.653	5.55
412.096	5.56
412.54	5.56
412.983	5.57
413.426	5.59
413.869	5.6
414.312	5.62
414.756	5.64
415.199	5.65
415.642	5.66
416.085	5.66
416.527	5.65
416.97	5.64
417.413	5.64
417.856	5.65
418.298	5.63
418.741	5.62
419.184	5.62
419.626	5.6
420.069	5.61
420.511	5.6
420.953	5.59
421.396	5.6
421.838	5.6
422.28	5.6
422.722	5.61
423.164	5.61
423.606	5.61
424.048	5.61
424.49	5.61
424.932	5.6
425.374	5.59
425.816	5.57
426.258	5.55
426.699	5.53
427.141	5.52
427.582	5.5
428.024	5.51
428.465	5.51
428.907	5.49
429.348	5.46
429.789	5.45
430.231	5.46
430.672	5.48
431.113	5.5
431.554	5.51
431.995	5.52
432.436	5.53
432.877	5.53
433.318	5.54
433.759	5.56
434.2	5.6
434.64	5.62
435.081	5.63
435.522	5.64
435.962	5.65
436.403	5.68
436.843	5.7
437.284	5.71
437.724	5.72
438.164	5.72
438.604	5.74
439.045	5.73
439.485	5.75
439.925	5.75
440.365	5.76
440.805	5.77
441.245	5.78
441.685	5.81
442.125	5.84
442.564	5.86
443.004	5.87
443.444	5.88
443.883	5.92
444.323	5.94
444.762	5.97
445.202	5.99
445.641	6.04
446.081	6.08
446.52	6.09
446.959	6.13
447.398	6.17
447.837	6.21
448.276	6.23
448.716	6.26
449.154	6.3
449.593	6.33
450.032	6.35
450.471	6.35
450.91	6.36
451.349	6.39
451.787	6.38
452.226	6.37
452.664	6.37
453.103	6.37
453.541	6.36
453.98	6.37
454.418	6.36
454.856	6.36
455.295	6.35
455.733	6.33
456.171	6.31
456.609	6.32
457.047	6.31
457.485	6.29
457.923	6.3
458.361	6.28
458.798	6.27
459.236	6.27
459.674	6.26
460.111	6.25
460.549	6.26
460.987	6.26
461.424	6.25
461.862	6.26
462.299	6.27
462.736	6.25
463.173	6.26
463.611	6.25
464.048	6.25
464.485	6.27
464.922	6.26
465.359	6.26
465.796	6.26
466.233	6.26
466.67	6.27
467.106	6.28
467.543	6.28
467.98	6.29
468.416	6.29
468.853	6.29
469.29	6.27
469.726	6.28
470.162	6.29
470.599	6.29
471.035	6.28
471.471	6.29
471.907	6.28
472.344	6.29
472.78	6.3
473.216	6.31
473.652	6.32
474.088	6.32
474.523	6.32
474.959	6.33
475.395	6.32
475.831	6.32
476.266	6.31
476.702	6.31
477.138	6.3
477.573	6.3
478.008	6.3
478.444	6.28
478.879	6.29
479.314	6.28
479.75	6.28
480.185	6.27
480.62	6.28
481.055	6.29
481.49	6.28
481.925	6.28
482.36	6.29
482.795	6.29
483.229	6.3
483.664	6.32
484.099	6.33
484.534	6.34
484.968	6.37
485.403	6.39
485.837	6.41
486.271	6.44
486.706	6.47
487.14	6.49
487.574	6.51
488.009	6.54
488.443	6.57
488.877	6.61
489.311	6.66
489.745	6.7
490.179	6.75
490.613	6.8
491.046	6.85
491.48	6.91
491.914	6.99
492.348	7.06
492.781	7.15
493.215	7.22
493.648	7.29
494.082	7.37
494.515	7.45
494.948	7.53
495.382	7.61
495.815	7.71
496.248	7.79
496.681	7.89
497.114	7.99
497.547	8.09
497.98	8.21
498.413	8.34
498.846	8.46
499.279	8.59
499.711	8.73
500.144	8.88
500.577	9.03
501.009	9.18
501.442	9.33
501.874	9.5
502.306	9.67
502.739	9.86
503.171	10.05
503.603	10.24
504.036	10.44
504.468	10.63
504.9	10.82
505.332	11.04
505.764	11.26
506.196	11.49
506.627	11.72
507.059	11.96
507.491	12.19
507.923	12.43
508.354	12.7
508.786	12.97
509.217	13.25
509.649	13.53
510.08	13.81
510.512	14.1
510.943	14.38
511.374	14.66
511.805	14.96
512.237	15.26
512.668	15.57
513.099	15.88
513.53	16.2
513.961	16.51
514.391	16.82
514.822	17.14
515.253	17.44
515.684	17.78
516.114	18.11
516.545	18.44
516.975	18.78
517.406	19.1
517.836	19.41
518.267	19.74
518.697	20.05
519.127	20.36
519.558	20.67
519.988	20.98
520.418	21.29
520.848	21.58
521.278	21.87
521.708	22.29
522.138	22.57
522.567	22.84
522.997	23.08
523.427	23.35
523.857	23.61
524.286	23.85
524.716	24.1
525.145	24.33
525.575	24.55
526.004	24.78
526.433	24.84
526.863	25.05
527.292	25.23
527.721	25.42
528.15	25.59
528.579	25.75
529.008	25.92
529.437	26.06
529.866	26.19
530.295	26.34
530.724	26.47
531.152	26.6
531.581	26.72
532.01	26.84
532.438	26.95
532.867	27.06
533.295	27.16
533.723	27.26
534.152	27.33
534.58	27.43
535.008	27.48
535.436	27.54
535.865	27.59
536.293	27.64
536.721	27.68
537.149	27.74
537.576	27.78
538.004	27.83
538.432	27.86
538.86	27.91
539.287	27.94
539.715	27.99
540.143	28.03
540.57	28.06
540.998	28.09
541.425	28.13
541.852	28.14
542.28	28.18
542.707	28.2
543.134	28.24
543.561	28.26
543.988	28.3
544.415	28.31
544.842	28.32
545.269	28.36
545.696	28.38
546.123	28.41
546.549	28.45
546.976	28.48
547.403	28.51
547.829	28.52
548.256	28.55
548.682	28.56
549.108	28.59
549.535	28.63
549.961	28.66
550.387	28.67
550.813	28.68
551.24	28.69
551.666	28.68
552.092	28.67
552.518	28.66
552.943	28.63
553.369	28.62
553.795	28.59
554.221	28.57
554.646	28.54
555.072	28.52
555.498	28.48
555.923	28.43
556.349	28.38
556.774	28.33
557.199	28.29
557.625	28.23
558.05	28.18
558.475	28.11
558.9	28.03
559.325	27.95
559.75	27.86
560.175	27.77
560.6	27.68
561.025	27.6
561.449	27.5
561.874	27.39
562.299	27.28
562.723	27.15
563.148	27.04
563.572	26.91
563.997	26.76
564.421	26.62
564.846	26.48
565.27	26.34
565.694	26.19
566.118	26.04
566.542	25.88
566.966	25.73
567.39	25.57
567.814	25.41
568.238	25.25
568.662	25.1
569.086	24.95
569.509	24.8
569.933	24.64
570.357	24.48
570.78	24.32
571.204	24.17
571.627	24.03
572.05	23.87
572.474	23.75
572.897	23.62
573.32	23.48
573.743	23.33
574.166	23.2
574.589	23.06
575.012	22.94
575.435	22.83
575.858	22.72
576.281	22.6
576.704	22.5
577.126	22.38
577.549	22.27
577.972	22.18
578.394	22.08
578.817	21.98
579.239	21.9
579.661	21.8
580.084	21.71
580.506	21.63
580.928	21.54
581.35	21.44
581.772	21.35
582.194	21.26
582.616	21.17
583.038	21.08
583.46	21
583.882	20.93
584.303	20.86
584.725	20.77
585.147	20.69
585.568	20.63
585.99	20.57
586.411	20.51
586.833	20.45
587.254	20.4
587.675	20.35
588.096	20.29
588.518	20.22
588.939	20.17
589.36	20.12
589.781	20.07
590.202	20.03
590.623	19.99
591.043	19.95
591.464	19.91
591.885	19.87
592.305	19.83
592.726	19.81
593.147	19.77
593.567	19.74
593.987	19.7
594.408	19.67
594.828	19.62
595.248	19.58
595.669	19.54
596.089	19.51
596.509	19.48
596.929	19.45
597.349	19.41
597.769	19.37
598.189	19.33
598.608	19.31
599.028	19.26
599.448	19.23
599.867	19.18
600.287	19.14
600.706	19.08
601.126	19.02
601.545	18.97
601.965	18.92
602.384	18.87
602.803	18.8
603.222	18.73
603.641	18.66
604.061	18.61
604.48	18.52
604.898	18.45
605.317	18.38
605.736	18.31
606.155	18.23
606.574	18.13
606.992	18.05
607.411	17.98
607.829	17.87
608.248	17.78
608.666	17.68
609.085	17.6
609.503	17.52
609.921	17.43
610.339	17.35
610.758	17.26
611.176	17.18
611.594	17.08
612.012	17
612.43	16.93
612.847	16.86
613.265	16.78
613.683	16.69
614.101	16.6
614.518	16.53
614.936	16.44
615.353	16.35
615.771	16.28
616.188	16.22
616.606	16.16
617.023	16.09
617.44	16.04
617.857	15.97
618.274	15.9
618.691	15.83
619.108	15.76
619.525	15.71
619.942	15.68
620.359	15.64
620.776	15.58
621.192	15.53
621.609	15.5
622.026	15.46
622.442	15.44
622.859	15.42
623.275	15.4
623.691	15.39
624.108	15.37
624.524	15.34
624.94	15.31
625.356	15.3
625.772	15.29
626.188	15.26
626.604	15.24
627.02	15.22
627.436	15.21
627.852	15.19
628.268	15.18
628.683	15.16
629.099	15.15
629.514	15.14
629.93	15.11
630.345	15.09
630.761	15.05
631.176	15.02
631.591	14.97
632.007	14.94
632.422	14.88
632.837	14.82
633.252	14.75
633.667	14.66
634.082	14.58
634.497	14.5
634.911	14.41
635.326	14.33
635.741	14.23
636.155	14.14
636.57	14.03
636.984	13.92
637.399	13.8
637.813	13.69
638.228	13.57
638.642	13.43
639.056	13.3
639.47	13.17
639.884	13.03
640.298	12.9
640.712	12.76
641.126	12.62
641.54	12.48
641.954	12.35
642.368	12.21
642.781	12.08
643.195	11.95
643.609	11.82
644.022	11.69
644.436	11.58
644.849	11.45
645.262	11.34
645.676	11.23
646.089	11.12
646.502	11.02
646.915	10.94
647.328	10.85
647.741	10.78
648.154	10.69
648.567	10.63
648.98	10.55
649.393	10.5
649.805	10.44
650.218	10.39
650.631	10.34
651.043	10.29
651.456	10.24
651.868	10.19
652.28	10.14
652.693	10.09
653.105	10.03
653.517	9.98
653.929	9.91
654.341	9.83
654.753	9.74
655.165	9.65
655.577	9.56
655.989	9.47
656.401	9.37
656.813	9.28
657.224	9.17
657.636	9.06
658.047	8.94
658.459	8.83
658.87	8.74
659.282	8.62
659.693	8.52
660.104	8.4
660.515	8.29
660.926	8.18
661.338	8.05
661.749	7.95
662.159	7.85
662.57	7.75
662.981	7.65
663.392	7.55
663.803	7.47
664.213	7.38
664.624	7.3
665.035	7.22
665.445	7.16
665.855	7.1
666.266	7.03
666.676	6.99
667.086	6.92
667.497	6.89
667.907	6.84
668.317	6.81
668.727	6.77
669.137	6.74
669.547	6.72
669.956	6.69
670.366	6.67
670.776	6.66
671.186	6.65
671.595	6.65
672.005	6.64
672.414	6.65
672.824	6.65
673.233	6.66
673.642	6.68
674.052	6.7
674.461	6.72
674.87	6.74
675.279	6.75
675.688	6.78
676.097	6.81
676.506	6.84
676.915	6.88
677.323	6.92
677.732	6.95
678.141	7.01
678.549	7.06
678.958	7.13
679.366	7.21
679.775	7.3
680.183	7.38
680.592	7.49
681	7.61
681.408	7.73
681.816	7.87
682.224	8.04
682.632	8.21
683.04	8.38
683.448	8.58
683.856	8.81
684.264	9.06
684.671	9.33
685.079	9.62
685.487	9.94
685.894	10.28
686.302	10.66
686.709	11.04
687.116	11.47
687.524	11.93
687.931	12.41
688.338	12.9
688.745	13.42
689.152	13.94
689.559	14.5
689.966	15.07
690.373	15.66
690.78	16.24
691.187	16.84
691.593	17.45
692	18.04
692.407	18.65
692.813	19.28
693.22	19.88
693.626	20.49
694.032	21.12
694.439	21.73
694.845	22.34
695.251	22.95
695.657	23.54
696.063	24.15
696.469	24.75
696.875	25.34
697.281	25.91
697.687	26.5
698.093	27.08
698.498	27.62
698.904	28.18
699.31	28.69
699.715	29.2
700.12	29.73
700.526	30.21
700.931	30.7
701.337	31.17
701.742	31.63
702.147	32.08
702.552	32.52
702.957	32.93
703.362	33.34
703.767	33.74
704.172	34.16
704.577	34.55
704.981	34.95
705.386	35.34
705.791	35.72
706.195	36.09
706.6	36.45
707.004	36.8
707.408	37.16
707.813	37.52
708.217	37.87
708.621	38.18
709.025	38.49
709.43	38.78
709.834	39.11
710.237	39.4
710.641	39.68
711.045	39.96
711.449	40.23
711.853	40.52
712.256	40.77
712.66	41.02
713.064	41.27
713.467	41.52
713.87	41.79
714.274	42.02
714.677	42.26
715.08	42.49
715.484	42.71
715.887	42.98
716.29	43.17
716.693	43.4
717.096	43.63
717.499	43.86
717.901	44.07
718.304	44.26
718.707	44.46
719.109	44.66
719.512	44.85
719.915	45.04
720.317	45.15
720.719	45.31
721.122	45.47
721.524	45.66
721.926	45.81
722.328	45.98
722.731	46.12
723.133	46.26
723.535	46.39
723.937	46.54
724.338	46.68
724.74	46.84
725.142	47.08
725.544	47.18
725.945	47.3
726.347	47.38
726.748	47.47
727.15	47.57
727.551	47.68
727.952	47.75
728.354	47.84
728.755	47.92
729.156	48.01
729.557	48.04
729.958	48.11
730.359	48.16
730.76	48.27
731.161	48.36
731.562	48.47
731.962	48.53
732.363	48.63
732.763	48.69
733.164	48.76
733.564	48.82
733.965	48.85
734.365	48.93
734.766	48.98
735.166	49.03
735.566	49.06
735.966	49.08
736.366	49.1
736.766	49.13
737.166	49.19
737.566	49.24
737.966	49.26
738.365	49.3
738.765	49.33
739.165	49.38
739.564	49.41
739.964	49.44
740.363	49.47
740.763	49.51
741.162	49.54
741.561	49.53
741.96	49.53
742.36	49.55
742.759	49.57
743.158	49.59
743.557	49.6
743.955	49.63
744.354	49.67
744.753	49.71
745.152	49.76
745.55	49.8
745.949	49.86
746.348	49.91
746.746	49.94
747.144	49.96
747.543	49.99
747.941	50.02
748.339	50.03
748.737	50.04
749.136	50.03
749.534	50.03
749.932	50.04
750.33	50.02
750.727	50.03
751.125	50.03
751.523	50.05
751.921	50.07
752.318	50.07
752.716	50.08
753.113	50.09
753.511	50.12
753.908	50.12
754.305	50.11
754.703	50.1
755.1	50.1
755.497	50.11
755.894	50.08
756.291	50.06
756.688	50.05
757.085	50.04
757.482	50
757.878	49.99
758.275	49.95
758.672	49.94
759.068	49.94
759.465	49.94
759.861	49.92
760.258	49.93
760.654	49.91
761.05	49.92
761.447	49.94
761.843	49.96
762.239	49.96
762.635	49.97
763.031	49.98
763.427	49.96
763.822	49.95
764.218	49.95
764.614	49.95
765.01	49.94
765.405	49.92
765.801	49.9
766.196	49.9
766.592	49.87
766.987	49.89
767.382	49.86
767.778	49.9
768.173	49.9
768.568	49.91
768.963	49.9
769.358	49.91
769.753	49.91
770.148	49.9
770.542	49.9
770.937	49.9
771.332	49.88
771.726	49.89
772.121	49.9
772.515	49.91
772.91	49.9
773.304	49.91
773.699	49.93
774.093	49.94
774.487	49.95
774.881	49.96
775.275	49.97
775.669	49.98
776.063	49.98
776.457	49.96
776.851	49.93
777.245	49.92
777.638	49.9
778.032	49.89
778.425	49.88
778.819	49.88
779.212	49.91
779.606	49.9
779.999	49.9
780.392	49.9
780.786	49.92
781.179	49.94
781.572	49.98
781.965	49.99
782.358	50.01
782.751	50.01
783.143	50.03
783.536	50.01
783.929	50.04
784.322	50.06
784.714	50.09
785.107	50.1
785.499	50.11
785.891	50.1
786.284	50.14
786.676	50.13
787.068	50.15
787.46	50.17
787.852	50.18
788.245	50.18
788.636	50.18
789.028	50.18
789.42	50.16
789.812	50.17
790.204	50.18
790.595	50.2
790.987	50.22
791.378	50.23
791.77	50.25
792.161	50.25
792.553	50.27
792.944	50.25
793.335	50.25
793.726	50.26
794.117	50.26
794.508	50.27
794.899	50.24
795.29	50.22
795.681	50.19
796.072	50.18
796.463	50.17
796.853	50.17
797.244	50.17
797.634	50.13
798.025	50.2
798.415	50.21
798.806	50.19
799.196	50.2
799.586	50.22
799.976	50.24
800.366	50.26
800.756	50.28
801.146	50.29
801.536	50.32
801.926	50.35
802.316	50.34
802.706	50.37
803.095	50.38
803.485	50.4
803.874	50.42
804.264	50.44
804.653	50.45
805.043	50.45
805.432	50.47
805.821	50.51
806.21	50.54
806.599	50.54
806.988	50.53
807.377	50.53
807.766	50.56
808.155	50.55
808.544	50.56
808.933	50.57
809.321	50.61
809.71	50.61
810.098	50.59
810.487	50.59
810.875	50.6
811.264	50.61
811.652	50.64
812.04	50.67
812.428	50.71
812.816	50.72
813.204	50.72
813.592	50.68
813.98	50.68
814.368	50.72
814.756	50.72
815.144	50.73
815.531	50.74
815.919	50.73
816.306	50.72
816.694	50.69
817.081	50.69
817.469	50.72
817.856	50.74
818.243	50.71
818.63	50.68
819.017	50.68
819.404	50.67
819.791	50.66
820.178	50.66
820.565	50.65
820.952	50.65
821.339	50.62
821.725	50.63
822.112	50.64
822.498	50.66
822.885	50.69
823.271	50.69
823.657	50.67
824.044	50.68
824.43	50.69
824.816	50.69
825.202	50.67
825.588	50.68
825.974	50.64
826.36	50.62
826.746	50.62
827.132	50.62
827.517	50.63
827.903	50.62
828.289	50.62
828.674	50.62
829.06	50.61
829.445	50.6
829.83	50.6
830.216	50.59
830.601	50.57
830.986	50.56
831.371	50.54
831.756	50.52
832.141	50.5
832.526	50.5
832.911	50.47
833.295	50.45
833.68	50.47
834.065	50.43
834.449	50.43
834.834	50.43
835.218	50.42
835.603	50.38
835.987	50.35
836.371	50.34
836.755	50.31
837.139	50.32
837.524	50.34
837.908	50.35
838.291	50.37
838.675	50.35
839.059	50.31
839.443	50.3
839.827	50.3
840.21	50.32
840.594	50.32
840.977	50.32
841.361	50.3
841.744	50.25
842.127	50.19
842.511	50.18
842.894	50.19
843.277	50.17
843.66	50.14
844.043	50.15
844.426	50.15
844.809	50.15
845.191	50.14
845.574	50.13
845.957	50.15
846.339	50.17
846.722	50.18
847.104	50.22
847.487	50.26
847.869	50.28
848.252	50.3
848.634	50.32
849.016	50.32
849.398	50.34
849.78	50.33
850.162	50.34
850.544	50.33
850.926	50.34
851.307	50.3
851.689	50.32
852.071	50.31
852.452	50.3
852.834	50.3
853.215	50.29
853.597	50.29
853.978	50.29
854.359	50.3
854.741	50.31
855.122	50.29
855.503	50.31
855.884	50.28
856.265	50.29
856.646	50.26
857.026	50.28
857.407	50.31
857.788	50.29
858.169	50.31
858.549	50.31
858.93	50.32
859.31	50.32
859.69	50.32
860.071	50.35
860.451	50.36
860.831	50.39
861.211	50.36
861.591	50.35
861.971	50.34
862.351	50.36
862.731	50.35
863.111	50.35
863.491	50.36
863.87	50.35
864.25	50.34
864.629	50.34
865.009	50.33
865.388	50.33
865.768	50.34
866.147	50.35
866.526	50.35
866.905	50.36
867.284	50.35
867.663	50.36
868.042	50.37
868.421	50.37
868.8	50.38
869.179	50.38
869.558	50.39
869.936	50.37
870.315	50.35
870.693	50.35
871.072	50.36
871.45	50.37
871.828	50.39
872.207	50.39
872.585	50.38
872.963	50.38
873.341	50.38
873.719	50.38
874.097	50.42
874.475	50.45
874.853	50.45
875.23	50.46
875.608	50.45
875.986	50.44
876.363	50.44
876.741	50.48
877.118	50.49
877.495	50.51
877.873	50.51
878.25	50.52
878.627	50.53
879.004	50.55
879.381	50.54
879.758	50.53
880.135	50.53
880.512	50.54
880.889	50.5
881.265	50.49
881.642	50.48
882.019	50.48
882.395	50.42
882.772	50.4
883.148	50.36
883.524	50.34
883.901	50.35
884.277	50.32
884.653	50.29
885.029	50.26
885.405	50.24
885.781	50.24
886.157	50.23
886.532	50.25
886.908	50.24
887.284	50.22
887.659	50.2
888.035	50.17
888.411	50.16
888.786	50.16
889.161	50.18
889.537	50.16
889.912	50.15
890.287	50.14
890.662	50.11
891.037	50.08
891.412	50.06
891.787	50.07
892.162	50.06
892.536	50.05
892.911	50.04
893.286	50.02
893.66	50.01
894.035	50
894.409	49.97
894.784	49.98
895.158	50
895.532	50.03
895.906	50.03
896.281	50.04
896.655	50.06
897.029	50.08
897.402	50.1
897.776	50.13
898.15	50.14
898.524	50.18
898.898	50.2
899.271	50.21
899.645	50.22
900.018	50.23
900.392	50.24
900.765	50.26
901.138	50.22
901.511	50.25
901.884	50.27
902.258	50.27
902.631	50.27
903.003	50.26
903.376	50.24
903.749	50.21
904.122	50.22
904.495	50.22
904.867	50.22
905.24	50.27
905.612	50.27
905.985	50.24
906.357	50.23
906.729	50.22
907.102	50.24
907.474	50.25
907.846	50.26
908.218	50.27
908.59	50.28
908.962	50.29
909.334	50.27
909.705	50.26
910.077	50.26
910.449	50.29
910.82	50.28
911.192	50.27
911.563	50.3
911.935	50.32
912.306	50.32
912.677	50.32
913.048	50.31
913.419	50.3
913.79	50.32
914.161	50.36
914.532	50.35
914.903	50.39
915.274	50.4
915.645	50.4
916.015	50.41
916.386	50.4
916.756	50.4
917.127	50.41
917.497	50.44
917.868	50.48
918.238	50.44
918.608	50.45
918.978	50.43
919.348	50.45
919.718	50.41
920.088	50.41
920.458	50.42
920.828	50.4
921.198	50.38
921.567	50.39
921.937	50.36
922.306	50.38
922.676	50.37
923.045	50.35
923.415	50.35
923.784	50.37
924.153	50.39
924.522	50.36
924.891	50.33
925.26	50.33
925.629	50.32
925.998	50.31
926.367	50.29
926.736	50.27
927.104	50.3
927.473	50.25
927.842	50.23
928.21	50.23
928.578	50.25
928.947	50.3
929.315	50.28
929.683	50.26
930.051	50.25
930.42	50.22
930.788	50.22
931.156	50.17
931.523	50.16
931.891	50.18
932.259	50.17
932.627	50.15
932.994	50.1
933.362	50.11
933.729	50.1
934.097	50.04
934.464	50.03
934.831	50.03
935.199	50.03
935.566	50.05
935.933	50.06
936.3	50
936.667	49.98
937.034	50.04
937.401	50.05
937.767	50.08
938.134	50.17
938.501	50.2
938.867	50.21
939.234	50.24
939.6	50.23
939.967	50.22
940.333	50.3
940.699	50.4
941.065	50.4
941.431	50.38
941.798	50.37
942.163	50.32
942.529	50.34
942.895	50.4
943.261	50.41
943.627	50.43
943.992	50.44
944.358	50.41
944.723	50.39
945.089	50.36
945.454	50.41
945.82	50.42
946.185	50.48
946.55	50.42
946.915	50.36
947.28	50.36
947.645	50.37
948.01	50.37
948.375	50.37
948.74	50.33
949.104	50.33
949.469	50.29
949.834	50.2
950.198	50.15
950.562	50.16
950.927	50.11
951.291	50.04
951.655	50
952.02	49.96
952.384	49.9
952.748	49.89
953.112	49.84
953.476	49.83
953.839	49.86
954.203	49.82
954.567	49.8
954.931	49.78
955.294	49.77
955.658	49.79
956.021	49.74
956.385	49.69
956.748	49.64
957.111	49.62
957.474	49.59
957.837	49.51
958.2	49.5
958.563	49.49
958.926	49.53
959.289	49.57
959.652	49.51
960.015	49.51
960.377	49.56
960.74	49.6
961.102	49.64
961.465	49.66
961.827	49.74
962.189	49.75
962.552	49.72
962.914	49.71
963.276	49.69
963.638	49.73
964	49.71
964.362	49.73
964.724	49.66
965.085	49.59
965.447	49.59
965.809	49.55
966.17	49.51
966.532	49.54
966.893	49.5
967.255	49.48
967.616	49.47
967.977	49.49
968.338	49.47
968.699	49.51
969.061	49.49
969.421	49.47
969.782	49.52
970.143	49.53
970.504	49.54
970.865	49.59
971.225	49.56
971.586	49.52
971.946	49.46
972.307	49.45
972.667	49.44
973.027	49.5
973.388	49.49
973.748	49.49
974.108	49.53
974.468	49.48
974.828	49.45
975.188	49.48
975.548	49.47
975.907	49.59
976.267	49.57
976.627	49.59
976.986	49.54
977.346	49.53
977.705	49.49
978.064	49.48
978.424	49.47
978.783	49.44
979.142	49.48
979.501	49.5
979.86	49.46
980.219	49.45
980.578	49.44
980.937	49.47
981.296	49.44
981.654	49.43
982.013	49.45
982.371	49.47
982.73	49.5
983.088	49.46
983.447	49.44
983.805	49.44
984.163	49.43
984.521	49.39
984.879	49.32
985.237	49.4
985.595	49.43
985.953	49.29
986.311	49.33
986.669	49.38
987.026	49.4
987.384	49.41
987.741	49.4
988.099	49.51
988.456	49.53
988.814	49.6
989.171	49.54
989.528	49.51
989.885	49.6
990.242	49.59
990.599	49.56
990.956	49.6
991.313	49.62
991.67	49.67
992.027	49.75
992.383	49.8
992.74	49.87
993.096	49.94
993.453	50.01
993.809	50.06
994.165	50.08
994.522	50.13
994.878	50.16
995.234	50.08
995.59	49.96
995.946	49.87
996.302	49.92
996.658	49.95
997.013	49.93
997.369	49.9
997.725	49.9
998.08	49.97
998.436	49.89
998.791	49.91
999.147	50.05
999.502	50.18
999.857	50.2
1000.212	50.09
1000.567	50.06
1000.922	50.1
1001.277	50.2
1001.632	50.1
1001.987	50.07
1002.342	50.08
1002.696	50.05
1003.051	50.1
1003.406	50.23
1003.76	50.29
1004.114	50.32
1004.469	50.43
1004.823	50.73
1005.177	50.67
1005.531	50.8
1005.885	50.81
1006.239	50.86
1006.593	51.01
1006.947	51.07
1007.301	50.9
1007.655	50.83
1008.008	50.88
1008.362	50.84
1008.715	50.55
1009.069	50.6
1009.422	50.63
1009.776	50.7
1010.129	50.78
1010.482	50.71
1010.835	50.64
1011.188	50.63
1011.541	50.68
1011.894	50.84
1012.247	50.84
1012.6	50.85
1012.952	50.95
1013.305	51
1013.657	50.95
1014.01	51.01
1014.362	50.91
1014.715	51.06
1015.067	51.27
1015.419	51.33
1015.771	51.06
1016.123	51.08
1016.475	51.23
1016.827	51.23
1017.179	51.2
1017.531	51.31
1017.883	51.2
1018.234	51.3
1018.586	51.24
1018.938	51.35
1019.289	51.39
1019.64	51.54
1019.992	51.54
1020.343	51.43
1020.694	51.7
1021.045	51.82
1021.396	51.96
1021.747	52.29
1022.098	52.42
1022.449	52.51
1022.8	52.45
1023.151	52.24
1023.501	52.35
1023.852	52.56
1024.202	52.58
1024.553	52.29
1024.903	52.39
1025.253	52.5
1025.604	52.21
1025.954	51.82
1026.304	51.86
1026.654	51.93
1027.004	52
1027.354	52.1
1027.703	51.76
1028.053	51.87
1028.403	52.06
1028.753	52.08
1029.102	52
1029.452	52.14
1029.801	52.54
1030.15	52.44
1030.499	52.35
897.758	1342.48
901.051	1342.3
904.343	1342.23
907.636	1364.51
910.928	1327.5
914.22	1324.6
917.511	1304.14
920.803	1250.29
924.094	1244.46
927.384	1210.85
930.675	1160.71
933.965	1153.86
937.255	1090.33
940.544	1043.63
943.834	996.44
947.123	987.28
950.411	929.71
953.7	911.21
956.988	864.94
960.276	826.37
963.563	814.79
966.851	784.15
970.138	777.99
973.424	752.51
976.711	759.92
979.997	719.03
983.283	715.27
986.568	700.29
989.853	679.2
993.138	665.81
996.423	642.9
999.708	625.3
1002.992	618.89
1006.275	591.11
1009.559	585.78
1012.842	564.36
1016.125	550.1
1019.408	540.1
1022.69	533.9
1025.972	523.34
1029.254	510.2
1032.536	502.34
1035.817	491.09
1039.098	485.8
1042.379	476.23
1045.659	470.94
1048.939	458.65
1052.219	449.46
1055.498	443.28
1058.778	433.13
1062.057	423.06
1065.335	418.24
1068.614	413.03
1071.892	408.94
1075.17	395.9
1078.447	388.33
1081.724	385.48
1085.001	381.69
1088.278	374.96
1091.554	367.56
1094.83	367.52
1098.106	365.32
1101.382	361.51
1104.657	358.67
1107.932	353.78
1111.206	355.38
1114.481	346.91
1117.755	343.81
1121.029	341.14
1124.302	340.23
1127.575	334.08
1130.848	330.06
1134.121	326.41
1137.393	325.58
1140.665	319.22
1143.937	316.37
1147.208	313.83
1150.48	313.97
1153.75	309.49
1157.021	305.1
1160.291	305.48
1163.561	301.66
1166.831	301.62
1170.101	299.33
1173.37	298.2
1176.639	298.99
1179.907	295.63
1183.176	292.6
1186.444	292.2
1189.711	292.02
1192.979	291.29
1196.246	289.08
1199.513	291.34
1202.78	289.46
1206.046	289.61
1209.312	286.73
1212.578	286.97
1215.843	289.64
1219.108	288.32
1222.373	293.75
1225.638	295.69
1228.902	300.16
1232.166	300.32
1235.43	301.74
1238.693	306.1
1241.956	307.34
1245.219	312.29
1248.482	312.24
1251.744	312.55
1255.006	313.42
1258.268	305.48
1261.529	302.74
1264.79	300.89
1268.051	299.42
1271.312	296.35
1274.572	291.78
1277.832	289.44
1281.092	284.75
1284.351	282.56
1287.61	282.04
1290.869	277.6
1294.128	276.19
1297.386	276.4
1300.644	273.03
1303.902	274.4
1307.159	272.66
1310.416	272.99
1313.673	272.66
1316.93	275.63
1320.186	275.33
1323.442	276.14
1326.697	281.22
1329.953	281.8
1333.208	282.72
1336.463	286.64
1339.717	285.89
1342.972	290.15
1346.226	292.57
1349.479	293.12
1352.733	294.51
1355.986	296.54
1359.238	296.25
1362.491	297.38
1365.743	300.78
1368.995	300.97
1372.247	299.19
1375.498	300.02
1378.749	301.03
1382	298.16
1385.251	299.56
1388.501	297.34
1391.751	298.54
1395	297.09
1398.25	294.92
1401.499	292.5
1404.748	291.99
1407.996	290.18
1411.244	288.64
1414.492	287.12
1417.74	284.55
1420.987	279.68
1424.234	280.11
1427.481	275.59
1430.728	275.73
1433.974	272.87
1437.22	271.3
1440.465	269.8
1443.711	267.38
1446.956	265.97
1450.201	262.32
1453.445	260.06
1456.689	259.04
1459.933	254.76
1463.177	253.1
1466.42	249.55
1469.663	246.91
1472.906	244.9
1476.148	239.04
1479.391	236.66
1482.633	234.53
1485.874	231.69
1489.115	230.1
1492.356	227.5
1495.597	226.44
1498.838	223.63
1502.078	222.13
1505.318	221.33
1508.557	221.03
1511.797	221.31
1515.036	219.69
1518.274	218.44
1521.513	217.43
1524.751	216.85
1527.989	216.56
1531.227	215.78
1534.464	216.24
1537.701	214.35
1540.938	213.64
1544.174	211.37
1547.41	210.93
1550.646	209.9
1553.882	210.24
1557.117	207.18
1560.352	206.45
1563.587	205.61
1566.821	204.25
1570.055	202.15
1573.289	201.39
1576.523	201.09
1579.756	199.61
1582.989	198.55
1586.222	198.17
1589.454	197.76
1592.686	199.24
1595.918	197.82
1599.15	197.31
1602.381	197.54
1605.612	197.4
1608.843	197.81
1612.073	197.8
1615.303	199.02
1618.533	199.29
1621.762	198.87
1624.992	198.63
1628.221	198.05
1631.449	198.14
1634.678	198.13
1637.906	199.08
1641.134	199.13
1644.361	198.65
1647.588	199.01
1650.815	198
1654.042	197.57
1657.269	198.95
1660.495	198.46
1663.72	198.14
1666.946	198.69
1670.171	199.06
1673.396	198.87
1676.621	198.84
1679.845	199.53
1683.069	199.34
1686.293	200.42
1689.517	201.18
1692.74	200.96
1695.963	201.75
1699.185	203.91
1702.408	204.39
1705.63	205.13
1708.852	205.64
1712.073	206.12
1715.294	206.17
1718.515	207.76
1721.736	207.45
1724.956	208.14
1728.176	208.01
1731.396	209.94
1734.616	208.46
1737.835	209.16
1741.054	207.62
1744.272	207.94
1747.491	209.88
1750.709	210.45
1753.927	210.18
1757.144	209.78
1760.361	210.53
1763.578	211.14
1766.795	210.33
1770.011	212.3
1773.227	212.09
1776.443	214.96
1779.658	215.95
1782.874	214.58
1786.089	215.73
1789.303	216.27
1792.518	219.13
1795.732	218.42
1798.945	220.61
1802.159	221.04
1805.372	220.97
1808.585	224.73
1811.797	224.69
1815.01	225.18
1818.222	227.78
1821.434	229.21
1824.645	229.8
1827.856	233.2
1831.067	235.73
1834.278	235.1
1837.488	236.21
1840.698	237.84
1843.908	235.77
1847.117	237.85
1850.326	239.35
1853.535	238.06
1856.744	241.08
1859.952	241.03
1863.16	239.25
1866.368	237.33
1869.575	239.44
1872.782	236.32
1875.989	235.2
1879.196	234.29
1882.402	231.82
1885.608	232.39
1888.814	232.73
1892.019	231.54
1895.224	230.56
1898.429	229.41
1901.634	230.57
1904.838	230
1908.042	232.23
1911.246	233.18
1914.449	234.47
1917.652	235.12
1920.855	234.45
1924.058	234.9
1927.26	233.51
1930.462	234.2
1933.664	237.01
1936.865	235.31
1940.066	235.65
1943.267	233.77
1946.467	234.2
1949.668	235.48
1952.868	237.8
1956.067	238.15
1959.267	238.24
1962.466	239.25
1965.665	237.58
1968.863	238.91
1972.061	241.72
1975.259	243.89
1978.457	246.62
1981.654	247.67
1984.852	248.29
1988.048	247.68
1991.245	250
1994.441	252.46
1997.637	254.38
2000.833	261.01
2004.028	263.37
2007.223	265.08
2010.418	267.73
2013.613	271.82
2016.807	275.54
2020.001	278.19
2023.194	281.81
2026.388	288.6
2029.581	294.74
2032.774	296.86
2035.966	301.78
2039.158	302.66
2042.35	308.31
2045.542	310.34
2048.733	315.48
2051.924	319.2
2055.115	323.87
2058.306	325.56
2061.496	327.71
2064.686	329.49
2067.875	335.05
2071.065	335.75
2074.254	333.98
2077.442	339.26
2080.631	340.61
2083.819	343.68
2087.007	344.4
2090.195	347.72
2093.382	351.41
2096.569	349.39
2099.756	354.17
2102.942	356.15
2106.128	359.18
2109.314	368.39
2112.5	365.95
2115.685	374.65
2118.87	375.31
2122.055	384.39
2125.239	387.44
2128.424	390.91
2131.608	394.16
2134.791	399.51
2137.974	400
2141.157	402.18
2144.34	401.81
2147.523	408.36
2150.705	404.7
2153.887	408.45
2157.068	407.61
2160.25	404.33
2163.431	406.97
2166.611	410.98
2169.792	418.96
2172.972	424.76
2176.152	426.58
2179.331	432.48
2182.511	438.82
2185.69	443.88
2188.868	452.07
2192.047	453.45
2195.225	466.86
2198.403	477.77
2201.58	487.49
2204.758	496.38
2207.935	504.73
2211.111	516.85
2214.288	521.96
2217.464	523.63
2220.64	531.22
2223.815	538.55
2226.991	560.61
2230.166	561.95
2233.34	572.04
2236.515	580.31
2239.689	580.01
2242.863	584.52
2246.036	599.47
2249.209	593.94
2252.382	603.55
2255.555	622.06
2258.727	624.57
2261.9	628.18
2265.071	633.59
2268.243	643.43
2271.414	650.74
2274.585	664.21
2277.756	671.28
2280.926	673.55
2284.096	692.76
2287.266	707.57
2290.436	711.3
2293.605	727.84
2296.774	747.55
2299.942	772.3
2303.111	776.14
2306.279	793.51
2309.447	804.46
2312.614	824.51
2315.781	848.45
2318.948	885.5
2322.115	872.83
2325.281	923.73
2328.447	903.11
2331.613	943.62
2334.779	932.4
2337.944	971.91
2341.109	980.63
2344.274	1006.57
2347.438	1043.28
2350.602	1045.29
2353.766	1073.97
2356.929	1090.84
2360.092	1082.62
2363.255	1163.45
2366.418	1155.93
2369.58	1178.34
2372.742	1255.14
2375.904	1287.12
2379.066	1280.79
2382.227	1251.92
2385.388	1356.24
2388.548	1364.97
2391.709	1378.86
2394.869	1535.68
2398.029	1469.55
2401.188	1508.2
2404.347	1500.52
2407.506	1469.5
2410.665	1511.77
2413.823	1605.37
2416.981	1702.78
2420.139	1646.53
2423.296	1620.42
2426.453	1700.83
2429.61	1633.91
2432.767	1706.94
2435.923	1691.22
2439.079	1853.31
2442.235	1881.14
2445.391	1867.2
2448.546	1846.15
2451.701	1796.22
2454.855	1796.78
2458.009	1912.3
2461.163	1984.41
2464.317	2050.49
2467.471	2103.65
2470.624	2108.91
2473.777	2047.93
2476.929	1993.01
2480.082	1930.07
2483.234	1915.41
2486.385	2000.38
2489.537	2009.33
2492.688	2079.08
2495.839	2019.06
2498.989	1982.1
2502.14	1989.6
2505.29	2003.89
2508.439	2040.2
2511.589	2037.16
2514.738	2218.96
2517.887	2170.59
2521.035	2303.69
2524.183	2318.96
2527.331	2335.57
2530.479	2324.05
2533.627	2337.12
