Data from C_3_DIV_IL_4N_Splice17_14-15-22-797.txt Node
Date: Sat Mar 07 14:15:22 EST 2020
User: sa697716
Spectrometer: NQ5500242
Trigger mode: 0
Integration Time (sec): 1.450000E-1
Scans to average: 20
Nonlinearity correction enabled: false
Boxcar width: 5
Storing dark spectrum: false
XAxis mode: Wavelengths
Number of Pixels in Spectrum: 512
>>>>>Begin Spectral Data<<<<<
187.83	112.07
188.298	145.92
188.766	116.68
189.233	115.64
189.701	110.28
190.169	133.98
190.636	132.46
191.104	131.79
191.571	74.3
192.039	99.33
192.506	-116.68
192.974	165.15
193.441	372.83
193.908	174.78
194.375	171.81
194.842	98.59
195.31	186.6
195.777	356.17
196.244	70.14
196.711	69.69
197.177	69.83
197.644	69.74
198.111	69.64
198.578	69.8
199.045	69.93
199.511	69.33
199.978	69.85
200.445	69.76
200.911	69.36
201.378	69.3
201.844	68.93
202.31	68.41
202.777	68.49
203.243	68.25
203.709	67.75
204.176	67.35
204.642	67.24
205.108	66.82
205.574	66.4
206.04	65.95
206.506	65.48
206.972	65.34
207.438	64.8
207.903	63.66
208.369	62.32
208.835	61.24
209.301	59.72
209.766	58.4
210.232	56.83
210.697	55.36
211.163	54.14
211.628	53.01
212.094	51.54
212.559	50.58
213.024	49.61
213.49	48.78
213.955	47.9
214.42	47.12
214.885	45.84
215.35	44.28
215.815	42.15
216.28	39.61
216.745	36.98
217.21	34.22
217.675	31.58
218.14	29.29
218.604	27.26
219.069	25.47
219.534	24.05
219.998	22.89
220.463	21.95
220.927	21.13
221.392	20.41
221.856	19.79
222.32	19.25
222.785	18.8
223.249	18.38
223.713	17.99
224.177	17.67
224.642	17.35
225.106	17.03
225.57	16.71
226.034	16.42
226.497	16.18
226.961	15.91
227.425	15.7
227.889	15.47
228.353	15.24
228.816	15.02
229.28	14.81
229.744	14.61
230.207	14.41
230.671	14.21
231.134	14.03
231.597	13.86
232.061	13.69
232.524	13.51
232.987	13.35
233.45	13.19
233.914	13.04
234.377	12.9
234.84	12.73
235.303	12.59
235.766	12.47
236.229	12.33
236.691	12.22
237.154	12.11
237.617	12
238.08	11.88
238.542	11.76
239.005	11.66
239.468	11.53
239.93	11.44
240.393	11.35
240.855	11.24
241.317	11.13
241.78	11.02
242.242	10.9
242.704	10.81
243.166	10.72
243.629	10.65
244.091	10.54
244.553	10.46
245.015	10.37
245.477	10.27
245.939	10.18
246.4	10.1
246.862	10.02
247.324	9.94
247.786	9.85
248.247	9.78
248.709	9.68
249.17	9.6
249.632	9.52
250.093	9.44
250.555	9.37
251.016	9.31
251.477	9.24
251.939	9.19
252.4	9.13
252.861	9.08
253.322	9.02
253.783	8.98
254.244	8.93
254.705	8.87
255.166	8.83
255.627	8.78
256.088	8.75
256.549	8.7
257.009	8.64
257.47	8.6
257.931	8.54
258.391	8.48
258.852	8.42
259.312	8.36
259.773	8.31
260.233	8.27
260.694	8.21
261.154	8.16
261.614	8.1
262.074	8.06
262.534	8.01
262.994	7.97
263.455	7.93
263.915	7.89
264.374	7.87
264.834	7.84
265.294	7.8
265.754	7.77
266.214	7.74
266.673	7.72
267.133	7.71
267.593	7.69
268.052	7.67
268.512	7.65
268.971	7.62
269.431	7.6
269.89	7.57
270.349	7.57
270.809	7.54
271.268	7.53
271.727	7.51
272.186	7.48
272.645	7.46
273.104	7.44
273.563	7.43
274.022	7.41
274.481	7.4
274.94	7.38
275.399	7.35
275.857	7.34
276.316	7.31
276.775	7.3
277.233	7.29
277.692	7.28
278.15	7.26
278.609	7.24
279.067	7.23
279.525	7.21
279.984	7.2
280.442	7.18
280.9	7.16
281.358	7.15
281.816	7.13
282.274	7.11
282.732	7.09
283.19	7.07
283.648	7.05
284.106	7.03
284.564	7.01
285.021	7
285.479	6.98
285.937	6.96
286.394	6.95
286.852	6.92
287.309	6.9
287.767	6.88
288.224	6.86
288.682	6.83
289.139	6.81
289.596	6.79
290.053	6.75
290.511	6.72
290.968	6.7
291.425	6.67
291.882	6.65
292.339	6.62
292.796	6.6
293.252	6.58
293.709	6.56
294.166	6.54
294.623	6.52
295.079	6.51
295.536	6.5
295.992	6.48
296.449	6.46
296.905	6.45
297.362	6.43
297.818	6.41
298.274	6.39
298.731	6.38
299.187	6.36
299.643	6.34
300.099	6.33
300.555	6.32
301.011	6.31
301.467	6.3
301.923	6.28
302.379	6.27
302.835	6.26
303.291	6.25
303.746	6.24
304.202	6.24
304.658	6.23
305.113	6.22
305.569	6.21
306.024	6.2
306.479	6.19
306.935	6.18
307.39	6.18
307.845	6.18
308.301	6.18
308.756	6.17
309.211	6.16
309.666	6.15
310.121	6.14
310.576	6.13
311.031	6.13
311.486	6.13
311.94	6.12
312.395	6.11
312.85	6.1
313.305	6.09
313.759	6.09
314.214	6.08
314.668	6.06
315.123	6.06
315.577	6.05
316.032	6.04
316.486	6.02
316.94	6.02
317.394	6
317.849	5.98
318.303	5.95
318.757	5.93
319.211	5.91
319.665	5.89
320.119	5.87
320.572	5.84
321.026	5.82
321.48	5.8
321.934	5.78
322.387	5.77
322.841	5.76
323.295	5.75
323.748	5.74
324.202	5.73
324.655	5.72
325.108	5.71
325.562	5.71
326.015	5.71
326.468	5.7
326.921	5.7
327.374	5.68
327.827	5.67
328.28	5.67
328.733	5.65
329.186	5.65
329.639	5.64
330.092	5.64
330.545	5.64
330.997	5.63
331.45	5.63
331.903	5.63
332.355	5.64
332.808	5.65
333.26	5.65
333.713	5.65
334.165	5.65
334.617	5.65
335.069	5.65
335.522	5.66
335.974	5.66
336.426	5.65
336.878	5.65
337.33	5.64
337.782	5.63
338.234	5.63
338.686	5.62
339.137	5.62
339.589	5.6
340.041	5.59
340.493	5.58
340.944	5.55
341.396	5.54
341.847	5.52
342.299	5.5
342.75	5.48
343.201	5.46
343.653	5.44
344.104	5.41
344.555	5.4
345.006	5.38
345.457	5.35
345.908	5.34
346.359	5.33
346.81	5.32
347.261	5.31
347.712	5.3
348.163	5.29
348.613	5.29
349.064	5.28
349.515	5.28
349.965	5.27
350.416	5.27
350.866	5.26
351.317	5.26
351.767	5.26
352.217	5.25
352.668	5.25
353.118	5.26
353.568	5.26
354.018	5.26
354.468	5.25
354.918	5.25
355.368	5.26
355.818	5.26
356.268	5.27
356.718	5.27
357.168	5.26
357.617	5.26
358.067	5.26
358.517	5.27
358.966	5.27
359.416	5.27
359.865	5.27
360.315	5.27
360.764	5.28
361.213	5.27
361.663	5.27
362.112	5.29
362.561	5.29
363.01	5.28
363.459	5.26
363.908	5.26
364.357	5.27
364.806	5.26
365.255	5.26
365.703	5.26
366.152	5.27
366.601	5.27
367.05	5.27
367.498	5.27
367.947	5.28
368.395	5.29
368.844	5.3
369.292	5.3
369.74	5.31
370.189	5.31
370.637	5.31
371.085	5.3
371.533	5.3
371.981	5.3
372.429	5.31
372.877	5.32
373.325	5.32
373.773	5.32
374.221	5.34
374.669	5.34
375.116	5.34
375.564	5.36
376.012	5.38
376.459	5.39
376.907	5.41
377.354	5.41
377.801	5.42
378.249	5.43
378.696	5.44
379.143	5.45
379.591	5.47
380.038	5.49
380.485	5.51
380.932	5.53
381.379	5.55
381.826	5.57
382.273	5.59
382.72	5.61
383.166	5.64
383.613	5.66
384.06	5.67
384.506	5.69
384.953	5.71
385.4	5.73
385.846	5.77
386.292	5.79
386.739	5.81
387.185	5.84
387.631	5.87
388.078	5.89
388.524	5.92
388.97	5.95
389.416	5.98
389.862	6.01
390.308	6.03
390.754	6.05
391.2	6.08
391.645	6.11
392.091	6.14
392.537	6.17
392.983	6.21
393.428	6.24
393.874	6.27
394.319	6.29
394.765	6.31
395.21	6.33
395.655	6.36
396.101	6.39
396.546	6.41
396.991	6.44
397.436	6.47
397.881	6.5
398.326	6.54
398.771	6.57
399.216	6.6
399.661	6.65
400.106	6.68
400.551	6.71
400.995	6.72
401.44	6.75
401.885	6.77
402.329	6.78
402.774	6.79
403.218	6.81
403.663	6.83
404.107	6.86
404.551	6.88
404.995	6.88
405.44	6.89
405.884	6.92
406.328	6.94
406.772	6.95
407.216	6.98
407.66	7.01
408.104	7.02
408.547	7.03
408.991	7.04
409.435	7.03
409.879	7.05
410.322	7.08
410.766	7.09
411.209	7.12
411.653	7.14
412.096	7.15
412.54	7.17
412.983	7.17
413.426	7.21
413.869	7.24
414.312	7.28
414.756	7.31
415.199	7.32
415.642	7.34
416.085	7.36
416.527	7.35
416.97	7.36
417.413	7.36
417.856	7.37
418.298	7.35
418.741	7.34
419.184	7.33
419.626	7.34
420.069	7.35
420.511	7.34
420.953	7.33
421.396	7.36
421.838	7.36
422.28	7.39
422.722	7.41
423.164	7.43
423.606	7.45
424.048	7.46
424.49	7.47
424.932	7.46
425.374	7.45
425.816	7.45
426.258	7.42
426.699	7.4
427.141	7.38
427.582	7.37
428.024	7.38
428.465	7.38
428.907	7.37
429.348	7.36
429.789	7.35
430.231	7.36
430.672	7.37
431.113	7.38
431.554	7.41
431.995	7.42
432.436	7.41
432.877	7.41
433.318	7.42
433.759	7.45
434.2	7.48
434.64	7.5
435.081	7.51
435.522	7.52
435.962	7.55
436.403	7.57
436.843	7.59
437.284	7.6
437.724	7.61
438.164	7.6
438.604	7.59
439.045	7.59
439.485	7.58
439.925	7.58
440.365	7.59
440.805	7.59
441.245	7.59
441.685	7.6
442.125	7.62
442.564	7.64
443.004	7.65
443.444	7.65
443.883	7.66
444.323	7.66
444.762	7.69
445.202	7.69
445.641	7.69
446.081	7.7
446.52	7.7
446.959	7.72
447.398	7.73
447.837	7.74
448.276	7.75
448.716	7.76
449.154	7.79
449.593	7.78
450.032	7.8
450.471	7.8
450.91	7.78
451.349	7.78
451.787	7.76
452.226	7.74
452.664	7.73
453.103	7.71
453.541	7.7
453.98	7.68
454.418	7.66
454.856	7.63
455.295	7.62
455.733	7.59
456.171	7.58
456.609	7.57
457.047	7.54
457.485	7.51
457.923	7.52
458.361	7.49
458.798	7.48
459.236	7.47
459.674	7.46
460.111	7.45
460.549	7.45
460.987	7.44
461.424	7.45
461.862	7.46
462.299	7.47
462.736	7.45
463.173	7.46
463.611	7.46
464.048	7.46
464.485	7.46
464.922	7.46
465.359	7.47
465.796	7.47
466.233	7.48
466.67	7.48
467.106	7.47
467.543	7.48
467.98	7.47
468.416	7.47
468.853	7.48
469.29	7.48
469.726	7.49
470.162	7.48
470.599	7.48
471.035	7.47
471.471	7.47
471.907	7.48
472.344	7.48
472.78	7.49
473.216	7.47
473.652	7.48
474.088	7.48
474.523	7.47
474.959	7.47
475.395	7.46
475.831	7.46
476.266	7.46
476.702	7.45
477.138	7.45
477.573	7.44
478.008	7.45
478.444	7.43
478.879	7.43
479.314	7.42
479.75	7.41
480.185	7.39
480.62	7.37
481.055	7.36
481.49	7.34
481.925	7.33
482.36	7.32
482.795	7.3
483.229	7.29
483.664	7.29
484.099	7.28
484.534	7.27
484.968	7.28
485.403	7.27
485.837	7.27
486.271	7.28
486.706	7.28
487.14	7.29
487.574	7.3
488.009	7.31
488.443	7.31
488.877	7.33
489.311	7.34
489.745	7.35
490.179	7.38
490.613	7.41
491.046	7.44
491.48	7.46
491.914	7.48
492.348	7.51
492.781	7.55
493.215	7.58
493.648	7.61
494.082	7.65
494.515	7.69
494.948	7.72
495.382	7.76
495.815	7.81
496.248	7.85
496.681	7.91
497.114	7.96
497.547	8.01
497.98	8.08
498.413	8.15
498.846	8.22
499.279	8.28
499.711	8.35
500.144	8.43
500.577	8.51
501.009	8.6
501.442	8.69
501.874	8.78
502.306	8.89
502.739	9
503.171	9.11
503.603	9.24
504.036	9.37
504.468	9.5
504.9	9.62
505.332	9.75
505.764	9.9
506.196	10.04
506.627	10.21
507.059	10.37
507.491	10.52
507.923	10.69
508.354	10.88
508.786	11.06
509.217	11.26
509.649	11.46
510.08	11.66
510.512	11.87
510.943	12.08
511.374	12.28
511.805	12.5
512.237	12.71
512.668	12.94
513.099	13.16
513.53	13.4
513.961	13.64
514.391	13.89
514.822	14.13
515.253	14.37
515.684	14.62
516.114	14.89
516.545	15.14
516.975	15.43
517.406	15.68
517.836	15.94
518.267	16.21
518.697	16.47
519.127	16.72
519.558	16.99
519.988	17.28
520.418	17.55
520.848	17.8
521.278	18.06
521.708	18.39
522.138	18.64
522.567	18.88
522.997	19.1
523.427	19.34
523.857	19.58
524.286	19.78
524.716	20
525.145	20.21
525.575	20.42
526.004	20.64
526.433	20.75
526.863	20.94
527.292	21.14
527.721	21.32
528.15	21.48
528.579	21.65
529.008	21.81
529.437	21.96
529.866	22.09
530.295	22.22
530.724	22.33
531.152	22.45
531.581	22.56
532.01	22.65
532.438	22.76
532.867	22.85
533.295	22.94
533.723	23.04
534.152	23.1
534.58	23.17
535.008	23.22
535.436	23.28
535.865	23.35
536.293	23.4
536.721	23.46
537.149	23.5
537.576	23.54
538.004	23.59
538.432	23.62
538.86	23.66
539.287	23.69
539.715	23.74
540.143	23.77
540.57	23.78
540.998	23.81
541.425	23.83
541.852	23.87
542.28	23.89
542.707	23.9
543.134	23.93
543.561	23.96
543.988	24
544.415	24.02
544.842	24.04
545.269	24.09
545.696	24.13
546.123	24.15
546.549	24.19
546.976	24.23
547.403	24.28
547.829	24.29
548.256	24.32
548.682	24.34
549.108	24.38
549.535	24.41
549.961	24.44
550.387	24.46
550.813	24.48
551.24	24.48
551.666	24.49
552.092	24.49
552.518	24.5
552.943	24.48
553.369	24.47
553.795	24.44
554.221	24.41
554.646	24.37
555.072	24.31
555.498	24.27
555.923	24.21
556.349	24.16
556.774	24.11
557.199	24.05
557.625	24
558.05	23.93
558.475	23.86
558.9	23.79
559.325	23.73
559.75	23.66
560.175	23.58
560.6	23.48
561.025	23.39
561.449	23.28
561.874	23.17
562.299	23.06
562.723	22.95
563.148	22.83
563.572	22.68
563.997	22.55
564.421	22.4
564.846	22.27
565.27	22.13
565.694	21.99
566.118	21.85
566.542	21.7
566.966	21.54
567.39	21.39
567.814	21.23
568.238	21.08
568.662	20.91
569.086	20.77
569.509	20.61
569.933	20.46
570.357	20.3
570.78	20.14
571.204	19.99
571.627	19.84
572.05	19.7
572.474	19.57
572.897	19.45
573.32	19.33
573.743	19.2
574.166	19.07
574.589	18.96
575.012	18.86
575.435	18.75
575.858	18.65
576.281	18.55
576.704	18.46
577.126	18.36
577.549	18.26
577.972	18.17
578.394	18.09
578.817	18.01
579.239	17.94
579.661	17.85
580.084	17.77
580.506	17.7
580.928	17.63
581.35	17.56
581.772	17.49
582.194	17.43
582.616	17.37
583.038	17.31
583.46	17.23
583.882	17.16
584.303	17.11
584.725	17.05
585.147	16.99
585.568	16.94
585.99	16.87
586.411	16.82
586.833	16.76
587.254	16.7
587.675	16.65
588.096	16.62
588.518	16.59
588.939	16.54
589.36	16.5
589.781	16.47
590.202	16.44
590.623	16.42
591.043	16.38
591.464	16.36
591.885	16.33
592.305	16.3
592.726	16.28
593.147	16.24
593.567	16.21
593.987	16.18
594.408	16.16
594.828	16.12
595.248	16.1
595.669	16.07
596.089	16.05
596.509	16.02
596.929	15.99
597.349	15.96
597.769	15.93
598.189	15.9
598.608	15.87
599.028	15.83
599.448	15.79
599.867	15.74
600.287	15.7
600.706	15.65
601.126	15.6
601.545	15.55
601.965	15.51
602.384	15.46
602.803	15.4
603.222	15.34
603.641	15.28
604.061	15.22
604.48	15.16
604.898	15.09
605.317	15.03
605.736	14.98
606.155	14.91
606.574	14.83
606.992	14.76
607.411	14.7
607.829	14.6
608.248	14.52
608.666	14.45
609.085	14.39
609.503	14.33
609.921	14.26
610.339	14.18
610.758	14.11
611.176	14.04
611.594	13.97
612.012	13.9
612.43	13.86
612.847	13.8
613.265	13.73
613.683	13.65
614.101	13.59
614.518	13.51
614.936	13.45
615.353	13.38
615.771	13.31
616.188	13.25
616.606	13.2
617.023	13.14
617.44	13.1
617.857	13.07
618.274	13.01
618.691	12.96
619.108	12.92
619.525	12.88
619.942	12.85
620.359	12.83
620.776	12.8
621.192	12.77
621.609	12.73
622.026	12.71
622.442	12.68
622.859	12.66
623.275	12.64
623.691	12.63
624.108	12.62
624.524	12.6
624.94	12.58
625.356	12.58
625.772	12.56
626.188	12.56
626.604	12.54
627.02	12.53
627.436	12.52
627.852	12.51
628.268	12.51
628.683	12.49
629.099	12.48
629.514	12.47
629.93	12.45
630.345	12.44
630.761	12.41
631.176	12.38
631.591	12.34
632.007	12.32
632.422	12.27
632.837	12.23
633.252	12.17
633.667	12.13
634.082	12.06
634.497	12.01
634.911	11.94
635.326	11.88
635.741	11.83
636.155	11.76
636.57	11.68
636.984	11.62
637.399	11.54
637.813	11.47
638.228	11.38
638.642	11.3
639.056	11.21
639.47	11.13
639.884	11.04
640.298	10.94
640.712	10.86
641.126	10.77
641.54	10.68
641.954	10.58
642.368	10.49
642.781	10.41
643.195	10.32
643.609	10.24
644.022	10.14
644.436	10.07
644.849	9.99
645.262	9.91
645.676	9.84
646.089	9.77
646.502	9.71
646.915	9.66
647.328	9.6
647.741	9.55
648.154	9.5
648.567	9.47
648.98	9.43
649.393	9.4
649.805	9.38
650.218	9.35
650.631	9.32
651.043	9.28
651.456	9.25
651.868	9.22
652.28	9.2
652.693	9.17
653.105	9.14
653.517	9.09
653.929	9.04
654.341	8.98
654.753	8.92
655.165	8.87
655.577	8.83
655.989	8.77
656.401	8.71
656.813	8.65
657.224	8.57
657.636	8.48
658.047	8.42
658.459	8.36
658.87	8.29
659.282	8.23
659.693	8.16
660.104	8.08
660.515	8.02
660.926	7.96
661.338	7.9
661.749	7.85
662.159	7.8
662.57	7.75
662.981	7.7
663.392	7.67
663.803	7.63
664.213	7.58
664.624	7.55
665.035	7.52
665.445	7.49
665.855	7.46
666.266	7.44
666.676	7.43
667.086	7.4
667.497	7.38
667.907	7.36
668.317	7.34
668.727	7.33
669.137	7.33
669.547	7.32
669.956	7.32
670.366	7.32
670.776	7.31
671.186	7.3
671.595	7.3
672.005	7.3
672.414	7.3
672.824	7.31
673.233	7.32
673.642	7.32
674.052	7.33
674.461	7.35
674.87	7.36
675.279	7.39
675.688	7.41
676.097	7.44
676.506	7.48
676.915	7.51
677.323	7.54
677.732	7.57
678.141	7.62
678.549	7.65
678.958	7.69
679.366	7.74
679.775	7.79
680.183	7.85
680.592	7.91
681	7.98
681.408	8.05
681.816	8.13
682.224	8.22
682.632	8.31
683.04	8.41
683.448	8.52
683.856	8.62
684.264	8.75
684.671	8.9
685.079	9.06
685.487	9.24
685.894	9.44
686.302	9.65
686.709	9.89
687.116	10.14
687.524	10.41
687.931	10.72
688.338	11.06
688.745	11.4
689.152	11.77
689.559	12.15
689.966	12.56
690.373	12.99
690.78	13.41
691.187	13.89
691.593	14.36
692	14.86
692.407	15.33
692.813	15.82
693.22	16.33
693.626	16.84
694.032	17.35
694.439	17.88
694.845	18.41
695.251	18.95
695.657	19.47
696.063	20
696.469	20.53
696.875	21.08
697.281	21.63
697.687	22.18
698.093	22.7
698.498	23.22
698.904	23.75
699.31	24.26
699.715	24.79
700.12	25.3
700.526	25.8
700.931	26.31
701.337	26.78
701.742	27.26
702.147	27.73
702.552	28.24
702.957	28.71
703.362	29.16
703.767	29.62
704.172	30.07
704.577	30.5
704.981	30.94
705.386	31.36
705.791	31.79
706.195	32.23
706.6	32.65
707.004	33.01
707.408	33.42
707.813	33.83
708.217	34.21
708.621	34.58
709.025	34.96
709.43	35.32
709.834	35.68
710.237	36.04
710.641	36.37
711.045	36.71
711.449	37.07
711.853	37.43
712.256	37.74
712.66	38.06
713.064	38.38
713.467	38.69
713.87	39.01
714.274	39.33
714.677	39.63
715.08	39.93
715.484	40.23
715.887	40.53
716.29	40.77
716.693	41.04
717.096	41.31
717.499	41.58
717.901	41.85
718.304	42.12
718.707	42.37
719.109	42.63
719.512	42.88
719.915	43.11
720.317	43.34
720.719	43.55
721.122	43.81
721.524	44.04
721.926	44.26
722.328	44.48
722.731	44.65
723.133	44.85
723.535	45.06
723.937	45.23
724.338	45.39
724.74	45.57
725.142	45.8
725.544	45.94
725.945	46.1
726.347	46.24
726.748	46.4
727.15	46.56
727.551	46.71
727.952	46.83
728.354	46.99
728.755	47.14
729.156	47.28
729.557	47.35
729.958	47.47
730.359	47.57
730.76	47.68
731.161	47.78
731.562	47.91
731.962	47.98
732.363	48.07
732.763	48.15
733.164	48.23
733.564	48.32
733.965	48.42
734.365	48.51
734.766	48.58
735.166	48.67
735.566	48.72
735.966	48.78
736.366	48.86
736.766	48.91
737.166	48.98
737.566	49.03
737.966	49.08
738.365	49.14
738.765	49.19
739.165	49.25
739.564	49.32
739.964	49.37
740.363	49.39
740.763	49.44
741.162	49.48
741.561	49.5
741.96	49.55
742.36	49.57
742.759	49.61
743.158	49.64
743.557	49.64
743.955	49.65
744.354	49.7
744.753	49.77
745.152	49.81
745.55	49.86
745.949	49.91
746.348	49.97
746.746	50.04
747.144	50.06
747.543	50.1
747.941	50.15
748.339	50.17
748.737	50.19
749.136	50.18
749.534	50.2
749.932	50.21
750.33	50.22
750.727	50.21
751.125	50.21
751.523	50.22
751.921	50.24
752.318	50.24
752.716	50.26
753.113	50.28
753.511	50.28
753.908	50.3
754.305	50.3
754.703	50.3
755.1	50.28
755.497	50.26
755.894	50.25
756.291	50.22
756.688	50.21
757.085	50.2
757.482	50.19
757.878	50.17
758.275	50.15
758.672	50.11
759.068	50.11
759.465	50.12
759.861	50.1
760.258	50.09
760.654	50.08
761.05	50.09
761.447	50.1
761.843	50.11
762.239	50.11
762.635	50.09
763.031	50.1
763.427	50.07
763.822	50.09
764.218	50.1
764.614	50.11
765.01	50.13
765.405	50.1
765.801	50.06
766.196	50.05
766.592	50.06
766.987	50.06
767.382	50.05
767.778	50.07
768.173	50.06
768.568	50.05
768.963	50.06
769.358	50.06
769.753	50.08
770.148	50.09
770.542	50.09
770.937	50.08
771.332	50.1
771.726	50.13
772.121	50.12
772.515	50.12
772.91	50.13
773.304	50.11
773.699	50.13
774.093	50.09
774.487	50.1
774.881	50.14
775.275	50.13
775.669	50.1
776.063	50.09
776.457	50.1
776.851	50.11
777.245	50.08
777.638	50.11
778.032	50.1
778.425	50.16
778.819	50.17
779.212	50.17
779.606	50.2
779.999	50.24
780.392	50.26
780.786	50.27
781.179	50.28
781.572	50.31
781.965	50.31
782.358	50.34
782.751	50.32
783.143	50.35
783.536	50.34
783.929	50.32
784.322	50.33
784.714	50.35
785.107	50.38
785.499	50.37
785.891	50.38
786.284	50.41
786.676	50.43
787.068	50.43
787.46	50.42
787.852	50.43
788.245	50.45
788.636	50.45
789.028	50.44
789.42	50.44
789.812	50.48
790.204	50.5
790.595	50.51
790.987	50.48
791.378	50.51
791.77	50.51
792.161	50.53
792.553	50.54
792.944	50.55
793.335	50.57
793.726	50.57
794.117	50.54
794.508	50.5
794.899	50.52
795.29	50.55
795.681	50.52
796.072	50.55
796.463	50.55
796.853	50.56
797.244	50.56
797.634	50.57
798.025	50.6
798.415	50.62
798.806	50.65
799.196	50.66
799.586	50.64
799.976	50.68
800.366	50.68
800.756	50.72
801.146	50.74
801.536	50.79
801.926	50.8
802.316	50.83
802.706	50.86
803.095	50.89
803.485	50.88
803.874	50.89
804.264	50.91
804.653	50.91
805.043	50.93
805.432	50.93
805.821	50.94
806.21	50.95
806.599	50.94
806.988	50.94
807.377	50.93
807.766	50.94
808.155	50.96
808.544	50.97
808.933	50.97
809.321	50.96
809.71	50.96
810.098	50.97
810.487	50.95
810.875	50.96
811.264	50.97
811.652	51.02
812.04	51.05
812.428	51.11
812.816	51.12
813.204	51.12
813.592	51.11
813.98	51.13
814.368	51.14
814.756	51.15
815.144	51.17
815.531	51.15
815.919	51.15
816.306	51.13
816.694	51.13
817.081	51.14
817.469	51.17
817.856	51.17
818.243	51.16
818.63	51.15
819.017	51.16
819.404	51.14
819.791	51.15
820.178	51.16
820.565	51.16
820.952	51.14
821.339	51.12
821.725	51.13
822.112	51.16
822.498	51.18
822.885	51.21
823.271	51.21
823.657	51.2
824.044	51.21
824.43	51.24
824.816	51.26
825.202	51.25
825.588	51.27
825.974	51.26
826.36	51.25
826.746	51.25
827.132	51.23
827.517	51.23
827.903	51.25
828.289	51.25
828.674	51.22
829.06	51.2
829.445	51.21
829.83	51.2
830.216	51.2
830.601	51.18
830.986	51.13
831.371	51.12
831.756	51.12
832.141	51.08
832.526	51.06
832.911	51.03
833.295	51
833.68	51.02
834.065	50.98
834.449	50.96
834.834	50.98
835.218	50.97
835.603	50.96
835.987	50.95
836.371	50.95
836.755	50.92
837.139	50.92
837.524	50.93
837.908	50.9
838.291	50.93
838.675	50.91
839.059	50.89
839.443	50.86
839.827	50.84
840.21	50.84
840.594	50.84
840.977	50.85
841.361	50.86
841.744	50.83
842.127	50.81
842.511	50.78
842.894	50.79
843.277	50.79
843.66	50.79
844.043	50.8
844.426	50.8
844.809	50.8
845.191	50.83
845.574	50.82
845.957	50.84
846.339	50.84
846.722	50.87
847.104	50.88
847.487	50.89
847.869	50.91
848.252	50.92
848.634	50.95
849.016	50.95
849.398	50.93
849.78	50.95
850.162	50.95
850.544	50.92
850.926	50.91
851.307	50.91
851.689	50.9
852.071	50.91
852.452	50.9
852.834	50.9
853.215	50.9
853.597	50.93
853.978	50.91
854.359	50.93
854.741	50.95
855.122	50.94
855.503	50.94
855.884	50.94
856.265	50.93
856.646	50.93
857.026	50.92
857.407	50.92
857.788	50.89
858.169	50.92
858.549	50.93
858.93	50.97
859.31	51
859.69	51.03
860.071	51.06
860.451	51.08
860.831	51.1
861.211	51.09
861.591	51.11
861.971	51.13
862.351	51.13
862.731	51.13
863.111	51.09
863.491	51.08
863.87	51.06
864.25	51.05
864.629	51.05
865.009	51.07
865.388	51.08
865.768	51.1
866.147	51.09
866.526	51.1
866.905	51.1
867.284	51.13
867.663	51.14
868.042	51.16
868.421	51.16
868.8	51.15
869.179	51.15
869.558	51.16
869.936	51.13
870.315	51.13
870.693	51.13
871.072	51.15
871.45	51.14
871.828	51.13
872.207	51.14
872.585	51.14
872.963	51.16
873.341	51.15
873.719	51.15
874.097	51.17
874.475	51.18
874.853	51.17
875.23	51.17
875.608	51.18
875.986	51.21
876.363	51.19
876.741	51.22
877.118	51.23
877.495	51.22
877.873	51.23
878.25	51.26
878.627	51.26
879.004	51.27
879.381	51.27
879.758	51.25
880.135	51.24
880.512	51.23
880.889	51.22
881.265	51.19
881.642	51.2
882.019	51.2
882.395	51.18
882.772	51.15
883.148	51.13
883.524	51.13
883.901	51.12
884.277	51.07
884.653	51.06
885.029	51.04
885.405	51.02
885.781	51.01
886.157	50.96
886.532	50.94
886.908	50.91
887.284	50.91
887.659	50.86
888.035	50.82
888.411	50.83
888.786	50.83
889.161	50.82
889.537	50.81
889.912	50.79
890.287	50.8
890.662	50.79
891.037	50.82
891.412	50.81
891.787	50.81
892.162	50.82
892.536	50.82
892.911	50.79
893.286	50.79
893.66	50.77
894.035	50.74
894.409	50.74
894.784	50.74
895.158	50.73
895.532	50.72
895.906	50.73
896.281	50.7
896.655	50.67
897.029	50.68
897.402	50.68
897.776	50.69
898.15	50.72
898.524	50.73
898.898	50.71
899.271	50.71
899.645	50.72
900.018	50.74
900.392	50.79
900.765	50.86
901.138	50.87
901.511	50.88
901.884	50.91
902.258	50.92
902.631	50.91
903.003	50.93
903.376	50.95
903.749	50.96
904.122	50.97
904.495	50.96
904.867	50.96
905.24	50.95
905.612	50.97
905.985	50.95
906.357	50.96
906.729	51
907.102	51
907.474	51.01
907.846	51.04
908.218	51.04
908.59	51.07
908.962	51.07
909.334	51.09
909.705	51.06
910.077	51.1
910.449	51.1
910.82	51.07
911.192	51.06
911.563	51.04
911.935	51.01
912.306	51.02
912.677	50.99
913.048	51
913.419	50.97
913.79	50.98
914.161	50.97
914.532	50.97
914.903	50.98
915.274	51.03
915.645	51.04
916.015	51.04
916.386	51.02
916.756	51.06
917.127	51.06
917.497	51.08
917.868	51.08
918.238	51.06
918.608	51.08
918.978	51.08
919.348	51.04
919.718	51.05
920.088	51.09
920.458	51.14
920.828	51.1
921.198	51.09
921.567	51.11
921.937	51.13
922.306	51.12
922.676	51.08
923.045	51.09
923.415	51.1
923.784	51.1
924.153	51.06
924.522	51.05
924.891	51.04
925.26	51.02
925.629	51.01
925.998	51.01
926.367	51.04
926.736	51.01
927.104	51
927.473	50.94
927.842	50.91
928.21	50.91
928.578	50.86
928.947	50.85
929.315	50.85
929.683	50.81
930.051	50.76
930.42	50.73
930.788	50.71
931.156	50.65
931.523	50.67
931.891	50.69
932.259	50.67
932.627	50.66
932.994	50.63
933.362	50.59
933.729	50.58
934.097	50.56
934.464	50.55
934.831	50.54
935.199	50.55
935.566	50.53
935.933	50.45
936.3	50.41
936.667	50.37
937.034	50.34
937.401	50.36
937.767	50.39
938.134	50.39
938.501	50.38
938.867	50.44
939.234	50.48
939.6	50.54
939.967	50.66
940.333	50.72
940.699	50.86
941.065	50.89
941.431	50.9
941.798	50.91
942.163	50.98
942.529	51.09
942.895	51.12
943.261	51.18
943.627	51.21
943.992	51.21
944.358	51.25
944.723	51.22
945.089	51.23
945.454	51.32
945.82	51.32
946.185	51.34
946.55	51.29
946.915	51.31
947.28	51.23
947.645	51.23
948.01	51.2
948.375	51.17
948.74	51.15
949.104	51.19
949.469	51.13
949.834	51.1
950.198	51.03
950.562	50.98
950.927	50.93
951.291	50.85
951.655	50.72
952.02	50.72
952.384	50.61
952.748	50.52
953.112	50.48
953.476	50.36
953.839	50.31
954.203	50.27
954.567	50.25
954.931	50.17
955.294	50.17
955.658	50.25
956.021	50.18
956.385	50.15
956.748	50.1
957.111	50.05
957.474	50.1
957.837	50.04
958.2	50.01
958.563	49.98
958.926	49.97
959.289	50
959.652	49.92
960.015	49.86
960.377	49.87
960.74	49.89
961.102	49.89
961.465	49.93
961.827	49.92
962.189	49.94
962.552	49.93
962.914	49.92
963.276	49.89
963.638	49.88
964	49.9
964.362	49.87
964.724	49.88
965.085	49.85
965.447	49.8
965.809	49.86
966.17	49.85
966.532	49.83
966.893	49.85
967.255	49.82
967.616	49.79
967.977	49.78
968.338	49.77
968.699	49.73
969.061	49.72
969.421	49.7
969.782	49.69
970.143	49.64
970.504	49.65
970.865	49.68
971.225	49.59
971.586	49.58
971.946	49.58
972.307	49.58
972.667	49.57
973.027	49.59
973.388	49.61
973.748	49.59
974.108	49.66
974.468	49.66
974.828	49.63
975.188	49.7
975.548	49.76
975.907	49.77
976.267	49.75
976.627	49.77
976.986	49.73
977.346	49.66
977.705	49.62
978.064	49.62
978.424	49.6
978.783	49.53
979.142	49.52
979.501	49.49
979.86	49.54
980.219	49.53
980.578	49.58
980.937	49.6
981.296	49.58
981.654	49.59
982.013	49.56
982.371	49.54
982.73	49.65
983.088	49.66
983.447	49.58
983.805	49.53
984.163	49.56
984.521	49.52
984.879	49.46
985.237	49.52
985.595	49.61
985.953	49.6
986.311	49.59
986.669	49.52
987.026	49.53
987.384	49.62
987.741	49.59
988.099	49.61
988.456	49.56
988.814	49.62
989.171	49.62
989.528	49.61
989.885	49.58
990.242	49.61
990.599	49.69
990.956	49.73
991.313	49.77
991.67	49.84
992.027	49.95
992.383	50.01
992.74	50.03
993.096	49.99
993.453	49.91
993.809	49.88
994.165	49.95
994.522	49.91
994.878	49.95
995.234	49.93
995.59	49.91
995.946	49.88
996.302	49.99
996.658	50.08
997.013	50.14
997.369	50.19
997.725	50.33
998.08	50.29
998.436	50.28
998.791	50.3
999.147	50.3
999.502	50.3
999.857	50.25
1000.212	50.19
1000.567	50.19
1000.922	50.23
1001.277	50.34
1001.632	50.28
1001.987	50.38
1002.342	50.34
1002.696	50.28
1003.051	50.4
1003.406	50.56
1003.76	50.55
1004.114	50.51
1004.469	50.6
1004.823	50.83
1005.177	50.83
1005.531	50.95
1005.885	50.8
1006.239	50.94
1006.593	51.1
1006.947	51.08
1007.301	50.99
1007.655	51.06
1008.008	51.15
1008.362	51.1
1008.715	50.89
1009.069	51.07
1009.422	50.95
1009.776	50.96
1010.129	51.07
1010.482	51.11
1010.835	51.12
1011.188	51.21
1011.541	51.35
1011.894	51.5
1012.247	51.7
1012.6	51.91
1012.952	51.77
1013.305	51.95
1013.657	52.26
1014.01	52.4
1014.362	52.43
1014.715	52.67
1015.067	52.82
1015.419	52.91
1015.771	52.89
1016.123	52.86
1016.475	52.84
1016.827	53
1017.179	53.12
1017.531	53.18
1017.883	53.15
1018.234	53.04
1018.586	53.05
1018.938	53.03
1019.289	52.97
1019.64	53.07
1019.992	53.07
1020.343	52.99
1020.694	53.03
1021.045	53.08
1021.396	53.09
1021.747	53.08
1022.098	53.33
1022.449	53.2
1022.8	53.32
1023.151	53.46
1023.501	53.46
1023.852	53.61
1024.202	53.94
1024.553	54
1024.903	54.17
1025.253	54.29
1025.604	54.5
1025.954	54.29
1026.304	54.45
1026.654	54.6
1027.004	54.32
1027.354	54.59
1027.703	54.43
1028.053	54.43
1028.403	54.57
1028.753	54.51
1029.102	54.79
1029.452	54.99
1029.801	55.59
1030.15	55.74
1030.499	55.69
897.758	976.92
901.051	981.75
904.343	979.85
907.636	996.66
910.928	971.11
914.22	967.99
917.511	954.4
920.803	918.29
924.094	913.87
927.384	892.53
930.675	858.99
933.965	854.33
937.255	804.99
940.544	774.09
943.834	738.27
947.123	731.37
950.411	691.79
953.7	677.7
956.988	638.53
960.276	615.35
963.563	607.42
966.851	582.33
970.138	578.67
973.424	561.71
976.711	562.21
979.997	535.35
983.283	533.75
986.568	521.83
989.853	508.43
993.138	498.67
996.423	479.62
999.708	465.59
1002.992	461.39
1006.275	442.22
1009.559	438.08
1012.842	424.36
1016.125	413.18
1019.408	404.19
1022.69	400.15
1025.972	391.35
1029.254	383.56
1032.536	377.47
1035.817	369.48
1039.098	365.56
1042.379	357.9
1045.659	353.74
1048.939	346.13
1052.219	338.51
1055.498	335.82
1058.778	328.31
1062.057	321.07
1065.335	317.69
1068.614	313.73
1071.892	311.45
1075.17	302.65
1078.447	297.48
1081.724	295.31
1085.001	291.66
1088.278	288.29
1091.554	282.27
1094.83	281.86
1098.106	280.48
1101.382	277.45
1104.657	276.08
1107.932	271.5
1111.206	272.94
1114.481	266.17
1117.755	264.5
1121.029	262.93
1124.302	261.88
1127.575	257.39
1130.848	254.46
1134.121	251.9
1137.393	251.05
1140.665	245.81
1143.937	243.68
1147.208	242.59
1150.48	242.03
1153.75	237.74
1157.021	235.65
1160.291	235.12
1163.561	232.09
1166.831	231.79
1170.101	230.37
1173.37	230.08
1176.639	230.88
1179.907	229.41
1183.176	226.15
1186.444	226.13
1189.711	226.83
1192.979	225.47
1196.246	224.1
1199.513	225.52
1202.78	225.04
1206.046	223.97
1209.312	222.34
1212.578	222.21
1215.843	223.48
1219.108	222.94
1222.373	226.88
1225.638	228.17
1228.902	231.13
1232.166	231.27
1235.43	232.53
1238.693	235.28
1241.956	237.21
1245.219	240.2
1248.482	240.78
1251.744	240.93
1255.006	241.05
1258.268	235.9
1261.529	234.09
1264.79	233.13
1268.051	231.3
1271.312	228.3
1274.572	225.59
1277.832	223.92
1281.092	220.19
1284.351	218.53
1287.61	218.81
1290.869	215.39
1294.128	214.16
1297.386	213.9
1300.644	211.54
1303.902	213.74
1307.159	212.63
1310.416	213.09
1313.673	211.73
1316.93	213.89
1320.186	213.7
1323.442	214.05
1326.697	217.68
1329.953	218.18
1333.208	218.96
1336.463	221.75
1339.717	221.12
1342.972	224.56
1346.226	225.68
1349.479	227.06
1352.733	227.5
1355.986	229.4
1359.238	228.85
1362.491	229.4
1365.743	231.43
1368.995	231.76
1372.247	231.05
1375.498	231.05
1378.749	231.75
1382	228.59
1385.251	228.94
1388.501	228.18
1391.751	226.92
1395	225.82
1398.25	224.26
1401.499	221.81
1404.748	220.89
1407.996	217.06
1411.244	215.8
1414.492	213.98
1417.74	212.03
1420.987	208.38
1424.234	207.53
1427.481	205.44
1430.728	205.1
1433.974	202.56
1437.22	201.57
1440.465	200.52
1443.711	198.94
1446.956	198.23
1450.201	196.02
1453.445	194.34
1456.689	193.92
1459.933	190.7
1463.177	189.09
1466.42	186.66
1469.663	185
1472.906	183.71
1476.148	179.83
1479.391	177.79
1482.633	175.88
1485.874	173.96
1489.115	172.98
1492.356	170.9
1495.597	170.33
1498.838	168.78
1502.078	167.5
1505.318	167
1508.557	166.97
1511.797	167.12
1515.036	166.15
1518.274	165.89
1521.513	165.12
1524.751	164.45
1527.989	164.78
1531.227	164.17
1534.464	164.04
1537.701	164.74
1540.938	164.17
1544.174	162.58
1547.41	162.34
1550.646	162.49
1553.882	162.28
1557.117	159.91
1560.352	160.03
1563.587	159.36
1566.821	158.56
1570.055	158.05
1573.289	155.73
1576.523	156.17
1579.756	155.1
1582.989	154.39
1586.222	153.93
1589.454	153.37
1592.686	155.15
1595.918	154.09
1599.15	153.7
1602.381	153.92
1605.612	153.22
1608.843	154.04
1612.073	153.58
1615.303	154.48
1618.533	154.92
1621.762	154.23
1624.992	155.24
1628.221	154.51
1631.449	154.36
1634.678	154.66
1637.906	155.38
1641.134	155.53
1644.361	155.08
1647.588	155.52
1650.815	155.17
1654.042	154.25
1657.269	155.74
1660.495	155.14
1663.72	154.42
1666.946	155.29
1670.171	155.71
1673.396	155.31
1676.621	155.13
1679.845	155.8
1683.069	155.5
1686.293	156.48
1689.517	157.57
1692.74	157.32
1695.963	157.57
1699.185	159.32
1702.408	159.53
1705.63	159.37
1708.852	160.06
1712.073	160.15
1715.294	160.24
1718.515	161.68
1721.736	161.18
1724.956	161.32
1728.176	161.4
1731.396	162.47
1734.616	161.76
1737.835	162.09
1741.054	161.33
1744.272	161.56
1747.491	163.04
1750.709	163.22
1753.927	162.59
1757.144	162.45
1760.361	162.52
1763.578	162.89
1766.795	162.5
1770.011	163.89
1773.227	163.73
1776.443	165.32
1779.658	165.51
1782.874	165.74
1786.089	165.69
1789.303	166.39
1792.518	167.75
1795.732	167.87
1798.945	169.01
1802.159	169.21
1805.372	169.21
1808.585	171.68
1811.797	172.43
1815.01	173.16
1818.222	173.59
1821.434	176.22
1824.645	176.46
1827.856	178.89
1831.067	180.44
1834.278	180.24
1837.488	181.11
1840.698	182.19
1843.908	180.72
1847.117	181.1
1850.326	182.08
1853.535	180.6
1856.744	182.15
1859.952	181.87
1863.16	180.42
1866.368	179.05
1869.575	179.43
1872.782	176.86
1875.989	175.49
1879.196	174.35
1882.402	172.78
1885.608	172.21
1888.814	172.68
1892.019	171.1
1895.224	170.09
1898.429	169.25
1901.634	169.34
1904.838	169.65
1908.042	170.95
1911.246	171.35
1914.449	172.04
1917.652	172.51
1920.855	172.6
1924.058	172.08
1927.26	171.19
1930.462	171.56
1933.664	174.09
1936.865	171.94
1940.066	171.46
1943.267	170.66
1946.467	171.07
1949.668	171.76
1952.868	173.24
1956.067	173.68
1959.267	173.89
1962.466	174.56
1965.665	173.68
1968.863	173.69
1972.061	178.11
1975.259	179.36
1978.457	180.82
1981.654	182.16
1984.852	183.26
1988.048	182.96
1991.245	184.28
1994.441	186.78
1997.637	188.34
2000.833	192.86
2004.028	195.07
2007.223	195.33
2010.418	197.88
2013.613	201.08
2016.807	203.2
2020.001	204.84
2023.194	207.63
2026.388	212.88
2029.581	217.52
2032.774	219.01
2035.966	222.38
2039.158	223.08
2042.35	227.3
2045.542	228.57
2048.733	232.22
2051.924	235.57
2055.115	239.45
2058.306	240.73
2061.496	241.9
2064.686	242.81
2067.875	247.77
2071.065	249.08
2074.254	246.63
2077.442	250.66
2080.631	251.76
2083.819	254.25
2087.007	254.86
2090.195	257.68
2093.382	260.13
2096.569	258.98
2099.756	263.28
2102.942	263.28
2106.128	265.08
2109.314	273.91
2112.5	271.97
2115.685	278.44
2118.87	278.59
2122.055	284.57
2125.239	285.86
2128.424	289.18
2131.608	291.72
2134.791	296.41
2137.974	296.83
2141.157	298.17
2144.34	297.51
2147.523	302.68
2150.705	300.59
2153.887	304.13
2157.068	303.89
2160.25	302.23
2163.431	304.3
2166.611	307.26
2169.792	311.71
2172.972	315.75
2176.152	318.31
2179.331	322.27
2182.511	326.62
2185.69	329.75
2188.868	335.01
2192.047	336.48
2195.225	346.15
2198.403	354.18
2201.58	359.09
2204.758	366.55
2207.935	372.44
2211.111	381.7
2214.288	384.17
2217.464	385.09
2220.64	391.55
2223.815	397.11
2226.991	411.93
2230.166	412.59
2233.34	417.14
2236.515	425.36
2239.689	424.76
2242.863	428.73
2246.036	435.75
2249.209	434.45
2252.382	442.61
2255.555	453.84
2258.727	455.47
2261.9	457.92
2265.071	461.97
2268.243	471.01
2271.414	477.5
2274.585	485.77
2277.756	489.79
2280.926	494.54
2284.096	506.03
2287.266	516.73
2290.436	521.9
2293.605	533.32
2296.774	549.75
2299.942	565.24
2303.111	568.89
2306.279	579.76
2309.447	590.9
2312.614	608.01
2315.781	622.58
2318.948	652.48
2322.115	641.96
2325.281	675.86
2328.447	664.56
2331.613	687.2
2334.779	682.36
2337.944	709.15
2341.109	715.74
2344.274	734.88
2347.438	757.81
2350.602	759.38
2353.766	781.44
2356.929	793.66
2360.092	787.56
2363.255	842.64
2366.418	843.83
2369.58	860.35
2372.742	914.26
2375.904	938.2
2379.066	930.42
2382.227	913.95
2385.388	990.37
2388.548	987.47
2391.709	1002.62
2394.869	1114.41
2398.029	1068.57
2401.188	1098.88
2404.347	1091.81
2407.506	1071.34
2410.665	1099.97
2413.823	1165.97
2416.981	1234.42
2420.139	1199.4
2423.296	1185.37
2426.453	1241.72
2429.61	1197.77
2432.767	1246.36
2435.923	1233.49
2439.079	1349.3
2442.235	1375.17
2445.391	1367.72
2448.546	1352.98
2451.701	1318.76
2454.855	1313.11
2458.009	1396.99
2461.163	1447.36
2464.317	1498.3
2467.471	1537.96
2470.624	1542.83
2473.777	1501.28
2476.929	1454.83
2480.082	1406.9
2483.234	1397.01
2486.385	1462.92
2489.537	1472.36
2492.688	1526.6
2495.839	1480.26
2498.989	1445.52
2502.14	1450.85
2505.29	1463.11
2508.439	1485.83
2511.589	1486.53
2514.738	1623.41
2517.887	1586.35
2521.035	1672.23
2524.183	1686.79
2527.331	1695.43
2530.479	1685.91
2533.627	1703.52
