Data from C_3_DEC_VA_2N_Splice17_14-18-29-784.txt Node
Date: Sat Mar 07 14:18:29 EST 2020
User: sa697716
Spectrometer: NQ5500242
Trigger mode: 0
Integration Time (sec): 1.450000E-1
Scans to average: 20
Nonlinearity correction enabled: false
Boxcar width: 5
Storing dark spectrum: false
XAxis mode: Wavelengths
Number of Pixels in Spectrum: 512
>>>>>Begin Spectral Data<<<<<
187.83	119.84
188.298	124.53
188.766	100.59
189.233	94.43
189.701	94.97
190.169	94.81
190.636	70.69
191.104	41.27
191.571	-174.64
192.039	-239.93
192.506	-844.33
192.974	297.67
193.441	340.89
193.908	153.26
194.375	85.39
194.842	23.43
195.31	51.94
195.777	-29.66
196.244	69.54
196.711	74.76
197.177	76.41
197.644	76.47
198.111	75.88
198.578	76.28
199.045	76.45
199.511	76.48
199.978	76.52
200.445	76.5
200.911	76.72
201.378	76.66
201.844	75.95
202.31	75.35
202.777	75.26
203.243	75.11
203.709	74.51
204.176	74.15
204.642	73.74
205.108	73.46
205.574	72.82
206.04	72
206.506	71.53
206.972	71.45
207.438	70.66
207.903	69.65
208.369	68.1
208.835	66.77
209.301	65.01
209.766	63.2
210.232	61.3
210.697	59.43
211.163	57.71
211.628	55.88
212.094	54.28
212.559	52.97
213.024	51.48
213.49	50.26
213.955	48.97
214.42	47.58
214.885	46.04
215.35	44.13
215.815	41.35
216.28	38.14
216.745	34.66
217.21	31.11
217.675	27.73
218.14	24.86
218.604	22.39
219.069	20.23
219.534	18.47
219.998	16.97
220.463	15.79
220.927	14.75
221.392	13.98
221.856	13.28
222.32	12.69
222.785	12.19
223.249	11.75
223.713	11.35
224.177	11.01
224.642	10.73
225.106	10.45
225.57	10.15
226.034	9.91
226.497	9.64
226.961	9.4
227.425	9.18
227.889	8.99
228.353	8.8
228.816	8.62
229.28	8.43
229.744	8.27
230.207	8.11
230.671	7.96
231.134	7.84
231.597	7.72
232.061	7.61
232.524	7.49
232.987	7.38
233.45	7.28
233.914	7.16
234.377	7.08
234.84	6.97
235.303	6.89
235.766	6.8
236.229	6.72
236.691	6.64
237.154	6.58
237.617	6.51
238.08	6.44
238.542	6.37
239.005	6.33
239.468	6.26
239.93	6.21
240.393	6.16
240.855	6.1
241.317	6.04
241.78	5.97
242.242	5.91
242.704	5.86
243.166	5.81
243.629	5.76
244.091	5.7
244.553	5.65
245.015	5.59
245.477	5.53
245.939	5.49
246.4	5.44
246.862	5.39
247.324	5.35
247.786	5.29
248.247	5.24
248.709	5.18
249.17	5.12
249.632	5.09
250.093	5.06
250.555	5.02
251.016	4.98
251.477	4.95
251.939	4.92
252.4	4.89
252.861	4.86
253.322	4.84
253.783	4.83
254.244	4.81
254.705	4.78
255.166	4.75
255.627	4.73
256.088	4.71
256.549	4.69
257.009	4.66
257.47	4.63
257.931	4.59
258.391	4.55
258.852	4.51
259.312	4.49
259.773	4.46
260.233	4.43
260.694	4.4
261.154	4.37
261.614	4.34
262.074	4.31
262.534	4.29
262.994	4.26
263.455	4.24
263.915	4.23
264.374	4.2
264.834	4.18
265.294	4.16
265.754	4.14
266.214	4.13
266.673	4.12
267.133	4.11
267.593	4.09
268.052	4.08
268.512	4.08
268.971	4.07
269.431	4.06
269.89	4.05
270.349	4.04
270.809	4.04
271.268	4.03
271.727	4.02
272.186	4.01
272.645	4.01
273.104	4.01
273.563	4
274.022	3.99
274.481	3.99
274.94	3.98
275.399	3.98
275.857	3.97
276.316	3.97
276.775	3.97
277.233	3.97
277.692	3.97
278.15	3.96
278.609	3.96
279.067	3.96
279.525	3.96
279.984	3.97
280.442	3.97
280.9	3.97
281.358	3.97
281.816	3.97
282.274	3.97
282.732	3.97
283.19	3.96
283.648	3.96
284.106	3.96
284.564	3.96
285.021	3.96
285.479	3.96
285.937	3.96
286.394	3.96
286.852	3.96
287.309	3.95
287.767	3.95
288.224	3.94
288.682	3.93
289.139	3.92
289.596	3.91
290.053	3.89
290.511	3.87
290.968	3.86
291.425	3.84
291.882	3.82
292.339	3.8
292.796	3.79
293.252	3.78
293.709	3.77
294.166	3.76
294.623	3.75
295.079	3.74
295.536	3.73
295.992	3.72
296.449	3.72
296.905	3.71
297.362	3.7
297.818	3.69
298.274	3.68
298.731	3.67
299.187	3.66
299.643	3.65
300.099	3.65
300.555	3.64
301.011	3.63
301.467	3.63
301.923	3.63
302.379	3.63
302.835	3.63
303.291	3.63
303.746	3.63
304.202	3.64
304.658	3.64
305.113	3.64
305.569	3.64
306.024	3.64
306.479	3.64
306.935	3.64
307.39	3.64
307.845	3.64
308.301	3.65
308.756	3.64
309.211	3.64
309.666	3.65
310.121	3.66
310.576	3.66
311.031	3.67
311.486	3.67
311.94	3.68
312.395	3.68
312.85	3.68
313.305	3.68
313.759	3.69
314.214	3.69
314.668	3.69
315.123	3.69
315.577	3.69
316.032	3.69
316.486	3.68
316.94	3.68
317.394	3.67
317.849	3.66
318.303	3.65
318.757	3.63
319.211	3.62
319.665	3.6
320.119	3.59
320.572	3.58
321.026	3.57
321.48	3.56
321.934	3.55
322.387	3.54
322.841	3.54
323.295	3.54
323.748	3.54
324.202	3.53
324.655	3.53
325.108	3.53
325.562	3.53
326.015	3.53
326.468	3.54
326.921	3.54
327.374	3.54
327.827	3.53
328.28	3.53
328.733	3.53
329.186	3.53
329.639	3.54
330.092	3.54
330.545	3.54
330.997	3.55
331.45	3.55
331.903	3.56
332.355	3.58
332.808	3.58
333.26	3.58
333.713	3.59
334.165	3.59
334.617	3.59
335.069	3.59
335.522	3.59
335.974	3.6
336.426	3.6
336.878	3.59
337.33	3.58
337.782	3.59
338.234	3.6
338.686	3.6
339.137	3.61
339.589	3.6
340.041	3.6
340.493	3.58
340.944	3.56
341.396	3.55
341.847	3.54
342.299	3.52
342.75	3.51
343.201	3.49
343.653	3.47
344.104	3.45
344.555	3.44
345.006	3.42
345.457	3.42
345.908	3.41
346.359	3.41
346.81	3.41
347.261	3.41
347.712	3.4
348.163	3.39
348.613	3.39
349.064	3.39
349.515	3.4
349.965	3.4
350.416	3.4
350.866	3.39
351.317	3.39
351.767	3.39
352.217	3.39
352.668	3.39
353.118	3.4
353.568	3.39
354.018	3.39
354.468	3.39
354.918	3.39
355.368	3.39
355.818	3.39
356.268	3.38
356.718	3.39
357.168	3.38
357.617	3.39
358.067	3.39
358.517	3.41
358.966	3.43
359.416	3.42
359.865	3.42
360.315	3.43
360.764	3.43
361.213	3.43
361.663	3.43
362.112	3.43
362.561	3.44
363.01	3.43
363.459	3.42
363.908	3.41
364.357	3.42
364.806	3.42
365.255	3.43
365.703	3.43
366.152	3.44
366.601	3.45
367.05	3.45
367.498	3.44
367.947	3.44
368.395	3.45
368.844	3.45
369.292	3.44
369.74	3.44
370.189	3.44
370.637	3.44
371.085	3.43
371.533	3.43
371.981	3.42
372.429	3.43
372.877	3.44
373.325	3.43
373.773	3.43
374.221	3.43
374.669	3.43
375.116	3.42
375.564	3.41
376.012	3.42
376.459	3.42
376.907	3.43
377.354	3.43
377.801	3.43
378.249	3.43
378.696	3.43
379.143	3.45
379.591	3.46
380.038	3.47
380.485	3.48
380.932	3.49
381.379	3.5
381.826	3.51
382.273	3.52
382.72	3.52
383.166	3.54
383.613	3.55
384.06	3.55
384.506	3.55
384.953	3.57
385.4	3.58
385.846	3.61
386.292	3.62
386.739	3.63
387.185	3.64
387.631	3.67
388.078	3.68
388.524	3.69
388.97	3.71
389.416	3.74
389.862	3.76
390.308	3.79
390.754	3.82
391.2	3.85
391.645	3.87
392.091	3.91
392.537	3.94
392.983	3.98
393.428	4.03
393.874	4.06
394.319	4.09
394.765	4.12
395.21	4.14
395.655	4.18
396.101	4.21
396.546	4.24
396.991	4.28
397.436	4.32
397.881	4.37
398.326	4.41
398.771	4.45
399.216	4.5
399.661	4.55
400.106	4.6
400.551	4.62
400.995	4.65
401.44	4.67
401.885	4.69
402.329	4.71
402.774	4.73
403.218	4.76
403.663	4.8
404.107	4.82
404.551	4.84
404.995	4.85
405.44	4.87
405.884	4.89
406.328	4.92
406.772	4.94
407.216	4.95
407.66	4.95
408.104	4.95
408.547	4.96
408.991	4.97
409.435	4.98
409.879	5
410.322	5.03
410.766	5.04
411.209	5.07
411.653	5.09
412.096	5.12
412.54	5.15
412.983	5.18
413.426	5.21
413.869	5.23
414.312	5.26
414.756	5.29
415.199	5.31
415.642	5.33
416.085	5.34
416.527	5.35
416.97	5.37
417.413	5.38
417.856	5.38
418.298	5.38
418.741	5.4
419.184	5.38
419.626	5.39
420.069	5.4
420.511	5.4
420.953	5.39
421.396	5.39
421.838	5.39
422.28	5.39
422.722	5.41
423.164	5.42
423.606	5.42
424.048	5.43
424.49	5.43
424.932	5.42
425.374	5.42
425.816	5.41
426.258	5.39
426.699	5.36
427.141	5.33
427.582	5.32
428.024	5.32
428.465	5.31
428.907	5.3
429.348	5.28
429.789	5.26
430.231	5.28
430.672	5.29
431.113	5.32
431.554	5.34
431.995	5.36
432.436	5.36
432.877	5.36
433.318	5.36
433.759	5.39
434.2	5.42
434.64	5.45
435.081	5.45
435.522	5.48
435.962	5.48
436.403	5.53
436.843	5.55
437.284	5.56
437.724	5.6
438.164	5.62
438.604	5.63
439.045	5.63
439.485	5.66
439.925	5.69
440.365	5.71
440.805	5.72
441.245	5.75
441.685	5.77
442.125	5.82
442.564	5.86
443.004	5.88
443.444	5.91
443.883	5.96
444.323	5.97
444.762	6.01
445.202	6.04
445.641	6.09
446.081	6.13
446.52	6.14
446.959	6.18
447.398	6.24
447.837	6.28
448.276	6.31
448.716	6.35
449.154	6.39
449.593	6.43
450.032	6.46
450.471	6.47
450.91	6.48
451.349	6.52
451.787	6.53
452.226	6.52
452.664	6.53
453.103	6.53
453.541	6.52
453.98	6.53
454.418	6.51
454.856	6.51
455.295	6.49
455.733	6.45
456.171	6.44
456.609	6.42
457.047	6.4
457.485	6.38
457.923	6.37
458.361	6.36
458.798	6.34
459.236	6.33
459.674	6.31
460.111	6.3
460.549	6.32
460.987	6.32
461.424	6.32
461.862	6.31
462.299	6.32
462.736	6.32
463.173	6.32
463.611	6.31
464.048	6.32
464.485	6.32
464.922	6.32
465.359	6.31
465.796	6.31
466.233	6.31
466.67	6.32
467.106	6.32
467.543	6.31
467.98	6.31
468.416	6.33
468.853	6.33
469.29	6.34
469.726	6.35
470.162	6.35
470.599	6.35
471.035	6.34
471.471	6.33
471.907	6.32
472.344	6.33
472.78	6.33
473.216	6.33
473.652	6.33
474.088	6.32
474.523	6.33
474.959	6.33
475.395	6.32
475.831	6.32
476.266	6.33
476.702	6.33
477.138	6.32
477.573	6.32
478.008	6.31
478.444	6.29
478.879	6.29
479.314	6.28
479.75	6.29
480.185	6.28
480.62	6.28
481.055	6.27
481.49	6.27
481.925	6.27
482.36	6.28
482.795	6.28
483.229	6.29
483.664	6.31
484.099	6.32
484.534	6.32
484.968	6.35
485.403	6.38
485.837	6.4
486.271	6.44
486.706	6.47
487.14	6.51
487.574	6.55
488.009	6.59
488.443	6.63
488.877	6.69
489.311	6.74
489.745	6.81
490.179	6.87
490.613	6.95
491.046	7.01
491.48	7.09
491.914	7.17
492.348	7.26
492.781	7.35
493.215	7.44
493.648	7.54
494.082	7.64
494.515	7.74
494.948	7.85
495.382	7.96
495.815	8.09
496.248	8.21
496.681	8.35
497.114	8.48
497.547	8.61
497.98	8.76
498.413	8.9
498.846	9.05
499.279	9.21
499.711	9.37
500.144	9.54
500.577	9.71
501.009	9.88
501.442	10.05
501.874	10.24
502.306	10.44
502.739	10.63
503.171	10.84
503.603	11.04
504.036	11.26
504.468	11.48
504.9	11.69
505.332	11.92
505.764	12.15
506.196	12.39
506.627	12.64
507.059	12.88
507.491	13.13
507.923	13.38
508.354	13.66
508.786	13.91
509.217	14.17
509.649	14.43
510.08	14.7
510.512	14.99
510.943	15.25
511.374	15.53
511.805	15.81
512.237	16.09
512.668	16.38
513.099	16.65
513.53	16.93
513.961	17.22
514.391	17.52
514.822	17.8
515.253	18.07
515.684	18.35
516.114	18.63
516.545	18.91
516.975	19.18
517.406	19.46
517.836	19.73
518.267	20
518.697	20.27
519.127	20.52
519.558	20.79
519.988	21.05
520.418	21.3
520.848	21.54
521.278	21.77
521.708	22.08
522.138	22.29
522.567	22.5
522.997	22.69
523.427	22.88
523.857	23.07
524.286	23.25
524.716	23.43
525.145	23.6
525.575	23.78
526.004	23.95
526.433	24.01
526.863	24.17
527.292	24.33
527.721	24.48
528.15	24.62
528.579	24.74
529.008	24.86
529.437	24.96
529.866	25.07
530.295	25.16
530.724	25.25
531.152	25.35
531.581	25.44
532.01	25.52
532.438	25.6
532.867	25.67
533.295	25.74
533.723	25.81
534.152	25.88
534.58	25.93
535.008	25.96
535.436	26.02
535.865	26.05
536.293	26.07
536.721	26.1
537.149	26.13
537.576	26.16
538.004	26.2
538.432	26.21
538.86	26.22
539.287	26.25
539.715	26.3
540.143	26.32
540.57	26.34
540.998	26.35
541.425	26.38
541.852	26.4
542.28	26.42
542.707	26.42
543.134	26.47
543.561	26.51
543.988	26.53
544.415	26.51
544.842	26.53
545.269	26.56
545.696	26.6
546.123	26.61
546.549	26.65
546.976	26.68
547.403	26.71
547.829	26.71
548.256	26.73
548.682	26.76
549.108	26.81
549.535	26.84
549.961	26.85
550.387	26.87
550.813	26.89
551.24	26.87
551.666	26.86
552.092	26.88
552.518	26.91
552.943	26.9
553.369	26.87
553.795	26.85
554.221	26.84
554.646	26.82
555.072	26.8
555.498	26.78
555.923	26.77
556.349	26.73
556.774	26.68
557.199	26.64
557.625	26.6
558.05	26.58
558.475	26.53
558.9	26.48
559.325	26.44
559.75	26.39
560.175	26.35
560.6	26.28
561.025	26.21
561.449	26.14
561.874	26.04
562.299	25.96
562.723	25.87
563.148	25.78
563.572	25.68
563.997	25.58
564.421	25.48
564.846	25.35
565.27	25.24
565.694	25.14
566.118	25.01
566.542	24.9
566.966	24.78
567.39	24.65
567.814	24.52
568.238	24.39
568.662	24.26
569.086	24.13
569.509	24.01
569.933	23.89
570.357	23.78
570.78	23.66
571.204	23.54
571.627	23.43
572.05	23.32
572.474	23.24
572.897	23.14
573.32	23.04
573.743	22.94
574.166	22.84
574.589	22.75
575.012	22.64
575.435	22.57
575.858	22.48
576.281	22.39
576.704	22.31
577.126	22.21
577.549	22.12
577.972	22.06
578.394	21.97
578.817	21.91
579.239	21.84
579.661	21.77
580.084	21.71
580.506	21.66
580.928	21.59
581.35	21.52
581.772	21.46
582.194	21.41
582.616	21.35
583.038	21.29
583.46	21.21
583.882	21.15
584.303	21.08
584.725	21.02
585.147	20.95
585.568	20.9
585.99	20.84
586.411	20.79
586.833	20.73
587.254	20.68
587.675	20.63
588.096	20.59
588.518	20.54
588.939	20.51
589.36	20.46
589.781	20.42
590.202	20.38
590.623	20.33
591.043	20.28
591.464	20.26
591.885	20.22
592.305	20.17
592.726	20.14
593.147	20.1
593.567	20.07
593.987	20.03
594.408	19.99
594.828	19.95
595.248	19.92
595.669	19.89
596.089	19.85
596.509	19.81
596.929	19.78
597.349	19.75
597.769	19.72
598.189	19.69
598.608	19.66
599.028	19.64
599.448	19.6
599.867	19.57
600.287	19.54
600.706	19.5
601.126	19.47
601.545	19.43
601.965	19.4
602.384	19.35
602.803	19.31
603.222	19.26
603.641	19.2
604.061	19.15
604.48	19.11
604.898	19.04
605.317	19
605.736	18.94
606.155	18.88
606.574	18.8
606.992	18.74
607.411	18.67
607.829	18.59
608.248	18.51
608.666	18.45
609.085	18.37
609.503	18.31
609.921	18.24
610.339	18.17
610.758	18.1
611.176	18.03
611.594	17.98
612.012	17.9
612.43	17.86
612.847	17.8
613.265	17.73
613.683	17.66
614.101	17.6
614.518	17.52
614.936	17.46
615.353	17.39
615.771	17.34
616.188	17.27
616.606	17.21
617.023	17.15
617.44	17.11
617.857	17.06
618.274	17.01
618.691	16.96
619.108	16.92
619.525	16.89
619.942	16.85
620.359	16.81
620.776	16.79
621.192	16.76
621.609	16.73
622.026	16.7
622.442	16.68
622.859	16.67
623.275	16.65
623.691	16.63
624.108	16.62
624.524	16.6
624.94	16.59
625.356	16.57
625.772	16.56
626.188	16.55
626.604	16.53
627.02	16.52
627.436	16.51
627.852	16.5
628.268	16.49
628.683	16.47
629.099	16.46
629.514	16.45
629.93	16.43
630.345	16.39
630.761	16.35
631.176	16.32
631.591	16.27
632.007	16.22
632.422	16.15
632.837	16.07
633.252	16
633.667	15.9
634.082	15.8
634.497	15.7
634.911	15.59
635.326	15.49
635.741	15.37
636.155	15.24
636.57	15.1
636.984	14.96
637.399	14.81
637.813	14.66
638.228	14.51
638.642	14.34
639.056	14.18
639.47	14.02
639.884	13.85
640.298	13.68
640.712	13.51
641.126	13.34
641.54	13.17
641.954	13
642.368	12.83
642.781	12.68
643.195	12.53
643.609	12.38
644.022	12.22
644.436	12.08
644.849	11.94
645.262	11.81
645.676	11.69
646.089	11.58
646.502	11.48
646.915	11.38
647.328	11.28
647.741	11.2
648.154	11.11
648.567	11.05
648.98	10.98
649.393	10.93
649.805	10.87
650.218	10.82
650.631	10.77
651.043	10.72
651.456	10.68
651.868	10.64
652.28	10.59
652.693	10.55
653.105	10.5
653.517	10.46
653.929	10.4
654.341	10.34
654.753	10.27
655.165	10.2
655.577	10.13
655.989	10.04
656.401	9.95
656.813	9.86
657.224	9.75
657.636	9.64
658.047	9.54
658.459	9.42
658.87	9.31
659.282	9.18
659.693	9.06
660.104	8.93
660.515	8.81
660.926	8.67
661.338	8.55
661.749	8.42
662.159	8.3
662.57	8.18
662.981	8.06
663.392	7.94
663.803	7.84
664.213	7.72
664.624	7.62
665.035	7.52
665.445	7.43
665.855	7.35
666.266	7.28
666.676	7.22
667.086	7.13
667.497	7.07
667.907	7.01
668.317	6.95
668.727	6.9
669.137	6.86
669.547	6.82
669.956	6.78
670.366	6.76
670.776	6.72
671.186	6.69
671.595	6.67
672.005	6.65
672.414	6.65
672.824	6.65
673.233	6.65
673.642	6.66
674.052	6.66
674.461	6.68
674.87	6.69
675.279	6.72
675.688	6.75
676.097	6.79
676.506	6.85
676.915	6.88
677.323	6.93
677.732	7
678.141	7.07
678.549	7.16
678.958	7.26
679.366	7.37
679.775	7.49
680.183	7.62
680.592	7.78
681	7.95
681.408	8.16
681.816	8.38
682.224	8.62
682.632	8.88
683.04	9.16
683.448	9.45
683.856	9.77
684.264	10.12
684.671	10.5
685.079	10.9
685.487	11.33
685.894	11.77
686.302	12.23
686.709	12.72
687.116	13.25
687.524	13.79
687.931	14.35
688.338	14.95
688.745	15.53
689.152	16.09
689.559	16.7
689.966	17.3
690.373	17.92
690.78	18.54
691.187	19.13
691.593	19.71
692	20.31
692.407	20.88
692.813	21.45
693.22	22.01
693.626	22.6
694.032	23.16
694.439	23.7
694.845	24.23
695.251	24.75
695.657	25.27
696.063	25.79
696.469	26.28
696.875	26.77
697.281	27.23
697.687	27.68
698.093	28.1
698.498	28.52
698.904	28.93
699.31	29.3
699.715	29.68
700.12	30.06
700.526	30.41
700.931	30.74
701.337	31.05
701.742	31.37
702.147	31.7
702.552	32.01
702.957	32.3
703.362	32.59
703.767	32.88
704.172	33.14
704.577	33.39
704.981	33.66
705.386	33.9
705.791	34.16
706.195	34.41
706.6	34.65
707.004	34.87
707.408	35.09
707.813	35.31
708.217	35.5
708.621	35.71
709.025	35.9
709.43	36.07
709.834	36.29
710.237	36.45
710.641	36.6
711.045	36.75
711.449	36.91
711.853	37.08
712.256	37.23
712.66	37.38
713.064	37.53
713.467	37.69
713.87	37.84
714.274	37.96
714.677	38.1
715.08	38.25
715.484	38.41
715.887	38.54
716.29	38.66
716.693	38.8
717.096	38.91
717.499	39.04
717.901	39.15
718.304	39.25
718.707	39.35
719.109	39.48
719.512	39.56
719.915	39.65
720.317	39.74
720.719	39.82
721.122	39.89
721.524	40
721.926	40.08
722.328	40.19
722.731	40.27
723.133	40.36
723.535	40.44
723.937	40.53
724.338	40.59
724.74	40.67
725.142	40.77
725.544	40.84
725.945	40.9
726.347	40.94
726.748	40.98
727.15	41.01
727.551	41.07
727.952	41.13
728.354	41.17
728.755	41.24
729.156	41.31
729.557	41.33
729.958	41.36
730.359	41.38
730.76	41.42
731.161	41.47
731.562	41.53
731.962	41.54
732.363	41.57
732.763	41.61
733.164	41.62
733.564	41.64
733.965	41.66
734.365	41.72
734.766	41.76
735.166	41.78
735.566	41.82
735.966	41.84
736.366	41.85
736.766	41.86
737.166	41.87
737.566	41.9
737.966	41.91
738.365	41.94
738.765	41.94
739.165	41.95
739.564	41.97
739.964	41.96
740.363	41.98
740.763	41.99
741.162	42
741.561	41.99
741.96	41.98
742.36	41.99
742.759	42
743.158	42
743.557	41.99
743.955	42.02
744.354	42.05
744.753	42.07
745.152	42.13
745.55	42.16
745.949	42.22
746.348	42.25
746.746	42.27
747.144	42.29
747.543	42.34
747.941	42.38
748.339	42.39
748.737	42.38
749.136	42.39
749.534	42.37
749.932	42.38
750.33	42.36
750.727	42.38
751.125	42.37
751.523	42.36
751.921	42.33
752.318	42.31
752.716	42.28
753.113	42.25
753.511	42.25
753.908	42.24
754.305	42.21
754.703	42.18
755.1	42.13
755.497	42.12
755.894	42.11
756.291	42.08
756.688	42.07
757.085	42.09
757.482	42.1
757.878	42.08
758.275	42.06
758.672	42.08
759.068	42.1
759.465	42.12
759.861	42.11
760.258	42.11
760.654	42.12
761.05	42.11
761.447	42.1
761.843	42.08
762.239	42.08
762.635	42.07
763.031	42.06
763.427	42.01
763.822	42.01
764.218	42.01
764.614	42.02
765.01	42.04
765.405	42.06
765.801	42.06
766.196	42.08
766.592	42.07
766.987	42.1
767.382	42.11
767.778	42.16
768.173	42.15
768.568	42.16
768.963	42.15
769.358	42.15
769.753	42.14
770.148	42.14
770.542	42.13
770.937	42.15
771.332	42.14
771.726	42.13
772.121	42.12
772.515	42.14
772.91	42.12
773.304	42.16
773.699	42.16
774.093	42.17
774.487	42.19
774.881	42.19
775.275	42.16
775.669	42.14
776.063	42.15
776.457	42.15
776.851	42.13
777.245	42.12
777.638	42.1
778.032	42.11
778.425	42.13
778.819	42.1
779.212	42.13
779.606	42.15
779.999	42.16
780.392	42.17
780.786	42.18
781.179	42.19
781.572	42.23
781.965	42.23
782.358	42.24
782.751	42.2
783.143	42.22
783.536	42.19
783.929	42.2
784.322	42.23
784.714	42.22
785.107	42.25
785.499	42.26
785.891	42.24
786.284	42.26
786.676	42.25
787.068	42.27
787.46	42.27
787.852	42.29
788.245	42.3
788.636	42.29
789.028	42.29
789.42	42.28
789.812	42.29
790.204	42.32
790.595	42.31
790.987	42.34
791.378	42.4
791.77	42.4
792.161	42.39
792.553	42.39
792.944	42.4
793.335	42.42
793.726	42.44
794.117	42.46
794.508	42.43
794.899	42.45
795.29	42.42
795.681	42.39
796.072	42.39
796.463	42.39
796.853	42.41
797.244	42.42
797.634	42.41
798.025	42.42
798.415	42.39
798.806	42.4
799.196	42.4
799.586	42.4
799.976	42.46
800.366	42.46
800.756	42.5
801.146	42.52
801.536	42.52
801.926	42.55
802.316	42.57
802.706	42.59
803.095	42.63
803.485	42.64
803.874	42.65
804.264	42.61
804.653	42.64
805.043	42.64
805.432	42.62
805.821	42.62
806.21	42.63
806.599	42.63
806.988	42.63
807.377	42.61
807.766	42.63
808.155	42.62
808.544	42.66
808.933	42.66
809.321	42.66
809.71	42.67
810.098	42.69
810.487	42.69
810.875	42.68
811.264	42.68
811.652	42.69
812.04	42.69
812.428	42.76
812.816	42.75
813.204	42.77
813.592	42.76
813.98	42.79
814.368	42.79
814.756	42.8
815.144	42.84
815.531	42.83
815.919	42.84
816.306	42.85
816.694	42.82
817.081	42.81
817.469	42.8
817.856	42.83
818.243	42.81
818.63	42.79
819.017	42.8
819.404	42.79
819.791	42.78
820.178	42.79
820.565	42.78
820.952	42.78
821.339	42.78
821.725	42.78
822.112	42.78
822.498	42.78
822.885	42.8
823.271	42.79
823.657	42.75
824.044	42.75
824.43	42.75
824.816	42.74
825.202	42.73
825.588	42.73
825.974	42.73
826.36	42.69
826.746	42.67
827.132	42.66
827.517	42.65
827.903	42.69
828.289	42.69
828.674	42.66
829.06	42.67
829.445	42.65
829.83	42.67
830.216	42.65
830.601	42.64
830.986	42.65
831.371	42.63
831.756	42.63
832.141	42.59
832.526	42.57
832.911	42.56
833.295	42.54
833.68	42.55
834.065	42.51
834.449	42.48
834.834	42.47
835.218	42.47
835.603	42.46
835.987	42.43
836.371	42.42
836.755	42.39
837.139	42.38
837.524	42.37
837.908	42.37
838.291	42.4
838.675	42.41
839.059	42.41
839.443	42.39
839.827	42.38
840.21	42.37
840.594	42.35
840.977	42.37
841.361	42.36
841.744	42.32
842.127	42.31
842.511	42.29
842.894	42.28
843.277	42.26
843.66	42.26
844.043	42.27
844.426	42.29
844.809	42.31
845.191	42.32
845.574	42.33
845.957	42.36
846.339	42.35
846.722	42.35
847.104	42.37
847.487	42.38
847.869	42.39
848.252	42.39
848.634	42.37
849.016	42.36
849.398	42.36
849.78	42.35
850.162	42.35
850.544	42.36
850.926	42.36
851.307	42.36
851.689	42.36
852.071	42.36
852.452	42.34
852.834	42.35
853.215	42.34
853.597	42.35
853.978	42.34
854.359	42.35
854.741	42.34
855.122	42.34
855.503	42.33
855.884	42.33
856.265	42.32
856.646	42.31
857.026	42.34
857.407	42.33
857.788	42.32
858.169	42.35
858.549	42.33
858.93	42.34
859.31	42.34
859.69	42.35
860.071	42.36
860.451	42.35
860.831	42.36
861.211	42.32
861.591	42.34
861.971	42.34
862.351	42.34
862.731	42.36
863.111	42.34
863.491	42.31
863.87	42.3
864.25	42.3
864.629	42.32
865.009	42.32
865.388	42.31
865.768	42.3
866.147	42.3
866.526	42.29
866.905	42.3
867.284	42.33
867.663	42.34
868.042	42.34
868.421	42.36
868.8	42.37
869.179	42.38
869.558	42.38
869.936	42.39
870.315	42.39
870.693	42.38
871.072	42.37
871.45	42.36
871.828	42.38
872.207	42.4
872.585	42.37
872.963	42.37
873.341	42.36
873.719	42.38
874.097	42.39
874.475	42.42
874.853	42.42
875.23	42.42
875.608	42.42
875.986	42.43
876.363	42.44
876.741	42.45
877.118	42.45
877.495	42.45
877.873	42.46
878.25	42.46
878.627	42.43
879.004	42.45
879.381	42.47
879.758	42.46
880.135	42.46
880.512	42.42
880.889	42.42
881.265	42.4
881.642	42.4
882.019	42.4
882.395	42.38
882.772	42.38
883.148	42.37
883.524	42.33
883.901	42.33
884.277	42.31
884.653	42.29
885.029	42.3
885.405	42.3
885.781	42.29
886.157	42.29
886.532	42.29
886.908	42.28
887.284	42.27
887.659	42.25
888.035	42.23
888.411	42.22
888.786	42.24
889.161	42.22
889.537	42.2
889.912	42.2
890.287	42.17
890.662	42.14
891.037	42.14
891.412	42.1
891.787	42.09
892.162	42.08
892.536	42.07
892.911	42.04
893.286	42.02
893.66	42.03
894.035	42.02
894.409	42.02
894.784	42.03
895.158	42.01
895.532	42.03
895.906	42.03
896.281	42.02
896.655	42
897.029	41.99
897.402	41.97
897.776	41.97
898.15	41.96
898.524	41.95
898.898	41.94
899.271	41.94
899.645	41.97
900.018	41.99
900.392	42.01
900.765	42.05
901.138	42.05
901.511	42.07
901.884	42.07
902.258	42.07
902.631	42.09
903.003	42.11
903.376	42.12
903.749	42.09
904.122	42.09
904.495	42.12
904.867	42.13
905.24	42.17
905.612	42.2
905.985	42.21
906.357	42.25
906.729	42.26
907.102	42.27
907.474	42.28
907.846	42.31
908.218	42.31
908.59	42.32
908.962	42.33
909.334	42.33
909.705	42.32
910.077	42.32
910.449	42.3
910.82	42.3
911.192	42.3
911.563	42.3
911.935	42.28
912.306	42.3
912.677	42.3
913.048	42.31
913.419	42.31
913.79	42.32
914.161	42.33
914.532	42.33
914.903	42.35
915.274	42.37
915.645	42.37
916.015	42.39
916.386	42.36
916.756	42.35
917.127	42.32
917.497	42.32
917.868	42.33
918.238	42.32
918.608	42.32
918.978	42.29
919.348	42.29
919.718	42.26
920.088	42.28
920.458	42.29
920.828	42.29
921.198	42.3
921.567	42.32
921.937	42.33
922.306	42.33
922.676	42.35
923.045	42.34
923.415	42.33
923.784	42.36
924.153	42.38
924.522	42.4
924.891	42.41
925.26	42.43
925.629	42.44
925.998	42.42
926.367	42.41
926.736	42.41
927.104	42.43
927.473	42.42
927.842	42.41
928.21	42.42
928.578	42.38
928.947	42.39
929.315	42.36
929.683	42.34
930.051	42.31
930.42	42.32
930.788	42.32
931.156	42.27
931.523	42.27
931.891	42.3
932.259	42.27
932.627	42.29
932.994	42.26
933.362	42.24
933.729	42.23
934.097	42.24
934.464	42.23
934.831	42.2
935.199	42.26
935.566	42.26
935.933	42.21
936.3	42.17
936.667	42.13
937.034	42.17
937.401	42.2
937.767	42.21
938.134	42.23
938.501	42.28
938.867	42.32
939.234	42.33
939.6	42.38
939.967	42.48
940.333	42.55
940.699	42.7
941.065	42.71
941.431	42.76
941.798	42.81
942.163	42.83
942.529	42.84
942.895	42.92
943.261	42.94
943.627	42.97
943.992	42.93
944.358	42.99
944.723	42.94
945.089	42.94
945.454	42.99
945.82	43
946.185	43.03
946.55	43.01
946.915	42.97
947.28	42.93
947.645	42.93
948.01	42.97
948.375	42.91
948.74	42.93
949.104	42.9
949.469	42.87
949.834	42.83
950.198	42.77
950.562	42.74
950.927	42.71
951.291	42.64
951.655	42.54
952.02	42.52
952.384	42.5
952.748	42.42
953.112	42.41
953.476	42.36
953.839	42.31
954.203	42.29
954.567	42.3
954.931	42.25
955.294	42.27
955.658	42.35
956.021	42.29
956.385	42.24
956.748	42.19
957.111	42.19
957.474	42.19
957.837	42.19
958.2	42.21
958.563	42.17
958.926	42.16
959.289	42.17
959.652	42.12
960.015	42.1
960.377	42.07
960.74	42.12
961.102	42.11
961.465	42.1
961.827	42.13
962.189	42.12
962.552	42.12
962.914	42.12
963.276	42.14
963.638	42.11
964	42.11
964.362	42.16
964.724	42.1
965.085	42.07
965.447	42.05
965.809	42.05
966.17	42.02
966.532	42.01
966.893	41.97
967.255	41.94
967.616	41.94
967.977	41.94
968.338	41.87
968.699	41.89
969.061	41.9
969.421	41.89
969.782	41.87
970.143	41.85
970.504	41.81
970.865	41.84
971.225	41.79
971.586	41.77
971.946	41.74
972.307	41.78
972.667	41.79
973.027	41.8
973.388	41.8
973.748	41.87
974.108	41.94
974.468	41.94
974.828	42.02
975.188	42.07
975.548	42.04
975.907	42.06
976.267	42.11
976.627	42.12
976.986	42.11
977.346	42.12
977.705	42.05
978.064	42.03
978.424	42.08
978.783	41.99
979.142	41.99
979.501	42.06
979.86	42.14
980.219	42.14
980.578	42.16
980.937	42.16
981.296	42.14
981.654	42.15
982.013	42.17
982.371	42.15
982.73	42.21
983.088	42.21
983.447	42.2
983.805	42.12
984.163	42.14
984.521	42.11
984.879	42.06
985.237	42.12
985.595	42.16
985.953	42.17
986.311	42.2
986.669	42.28
987.026	42.26
987.384	42.34
987.741	42.39
988.099	42.38
988.456	42.45
988.814	42.55
989.171	42.5
989.528	42.47
989.885	42.42
990.242	42.46
990.599	42.45
990.956	42.53
991.313	42.5
991.67	42.6
992.027	42.67
992.383	42.7
992.74	42.78
993.096	42.85
993.453	42.91
993.809	43
994.165	43.07
994.522	43.04
994.878	43.06
995.234	43.06
995.59	42.98
995.946	43.02
996.302	43.08
996.658	43.11
997.013	43.13
997.369	43.14
997.725	43.18
998.08	43.24
998.436	43.31
998.791	43.4
999.147	43.47
999.502	43.54
999.857	43.53
1000.212	43.39
1000.567	43.42
1000.922	43.48
1001.277	43.57
1001.632	43.53
1001.987	43.45
1002.342	43.46
1002.696	43.46
1003.051	43.67
1003.406	43.81
1003.76	43.86
1004.114	44.02
1004.469	44.13
1004.823	44.41
1005.177	44.5
1005.531	44.69
1005.885	44.83
1006.239	44.96
1006.593	45.05
1006.947	44.9
1007.301	44.79
1007.655	44.81
1008.008	44.89
1008.362	44.85
1008.715	44.71
1009.069	44.78
1009.422	44.71
1009.776	44.71
1010.129	44.89
1010.482	45
1010.835	45.21
1011.188	45.33
1011.541	45.45
1011.894	45.62
1012.247	45.84
1012.6	45.93
1012.952	45.97
1013.305	46.2
1013.657	46.34
1014.01	46.31
1014.362	46.26
1014.715	46.2
1015.067	46.34
1015.419	46.56
1015.771	46.43
1016.123	46.46
1016.475	46.73
1016.827	46.83
1017.179	46.79
1017.531	46.82
1017.883	47.02
1018.234	47.21
1018.586	47.52
1018.938	47.59
1019.289	47.57
1019.64	47.78
1019.992	47.66
1020.343	47.56
1020.694	47.67
1021.045	48.05
1021.396	48.32
1021.747	48.29
1022.098	48.51
1022.449	48.52
1022.8	48.83
1023.151	48.84
1023.501	48.92
1023.852	49.2
1024.202	49.22
1024.553	49.23
1024.903	49.2
1025.253	49.37
1025.604	49.42
1025.954	49.12
1026.304	49.35
1026.654	49.35
1027.004	49.67
1027.354	49.71
1027.703	49.71
1028.053	49.93
1028.403	50.1
1028.753	50.06
1029.102	50.22
1029.452	50.6
1029.801	51.23
1030.15	51.14
1030.499	51.13
897.758	951.96
901.051	956.61
904.343	959.16
907.636	974.41
910.928	946.77
914.22	944.65
917.511	932.36
920.803	896.05
924.094	892.86
927.384	868.17
930.675	835.87
933.965	831.39
937.255	782.23
940.544	749.67
943.834	717.16
947.123	712.25
950.411	670.81
953.7	657.98
956.988	621.73
960.276	597.92
963.563	589.61
966.851	566.03
970.138	562.25
973.424	546.25
976.711	548.13
979.997	520.03
983.283	516.92
986.568	507.44
989.853	492.3
993.138	483.76
996.423	464.2
999.708	451.9
1002.992	447.44
1006.275	427.57
1009.559	424.65
1012.842	408.88
1016.125	397.26
1019.408	390.33
1022.69	386.17
1025.972	377.47
1029.254	368.32
1032.536	362.39
1035.817	355.98
1039.098	351.71
1042.379	345.01
1045.659	340.1
1048.939	332.43
1052.219	326.46
1055.498	322.51
1058.778	313.83
1062.057	308.44
1065.335	305.3
1068.614	302.07
1071.892	298.51
1075.17	288.92
1078.447	283.83
1081.724	282.04
1085.001	279.45
1088.278	275.1
1091.554	269.59
1094.83	270.35
1098.106	267.08
1101.382	265.05
1104.657	263.16
1107.932	258.29
1111.206	260.07
1114.481	254.35
1117.755	252.2
1121.029	250.06
1124.302	248.37
1127.575	244.19
1130.848	240.98
1134.121	239.26
1137.393	237.62
1140.665	232.75
1143.937	231.08
1147.208	229.53
1150.48	228.25
1153.75	224.23
1157.021	220.94
1160.291	221.87
1163.561	218.88
1166.831	218.71
1170.101	216.61
1173.37	216.37
1176.639	216.62
1179.907	214.95
1183.176	212.93
1186.444	212.59
1189.711	212.69
1192.979	213.03
1196.246	211.05
1199.513	212.82
1202.78	210.66
1206.046	210.78
1209.312	209.13
1212.578	209.41
1215.843	210.62
1219.108	209.9
1222.373	213.76
1225.638	215.26
1228.902	217.81
1232.166	217.23
1235.43	217.18
1238.693	221.83
1241.956	223.14
1245.219	225.51
1248.482	225.76
1251.744	226.14
1255.006	225.7
1258.268	221.18
1261.529	219.22
1264.79	218.98
1268.051	217.57
1271.312	215.85
1274.572	212.24
1277.832	210.38
1281.092	207.79
1284.351	206.12
1287.61	206.12
1290.869	203.06
1294.128	201.7
1297.386	201.01
1300.644	197.88
1303.902	200.13
1307.159	198.91
1310.416	199.63
1313.673	198.62
1316.93	200.03
1320.186	199.6
1323.442	200.1
1326.697	202.92
1329.953	204.42
1333.208	205.13
1336.463	208.72
1339.717	208.19
1342.972	211.73
1346.226	212.4
1349.479	213.54
1352.733	214.35
1355.986	217.01
1359.238	216.32
1362.491	217.39
1365.743	219.65
1368.995	220.49
1372.247	219.46
1375.498	219.74
1378.749	219.27
1382	218.47
1385.251	218.9
1388.501	217.64
1391.751	216.69
1395	216.26
1398.25	215.09
1401.499	212.14
1404.748	212.27
1407.996	209.5
1411.244	208.23
1414.492	207.6
1417.74	204.26
1420.987	201.37
1424.234	201.14
1427.481	199.16
1430.728	199.03
1433.974	196.58
1437.22	194.97
1440.465	193.63
1443.711	192.27
1446.956	190.98
1450.201	188.94
1453.445	187.61
1456.689	186.54
1459.933	183.4
1463.177	182.11
1466.42	179.72
1469.663	178.18
1472.906	177.09
1476.148	173.04
1479.391	171.22
1482.633	169.86
1485.874	167.35
1489.115	166.37
1492.356	164.44
1495.597	164.36
1498.838	161.76
1502.078	160.38
1505.318	159.77
1508.557	159.91
1511.797	159.95
1515.036	158.2
1518.274	157.69
1521.513	157.08
1524.751	156.57
1527.989	156.26
1531.227	155.4
1534.464	155.45
1537.701	155.23
1540.938	154.68
1544.174	152.6
1547.41	152.19
1550.646	152.06
1553.882	151.46
1557.117	149.31
1560.352	148.95
1563.587	148.7
1566.821	147.6
1570.055	146.98
1573.289	144.77
1576.523	144.69
1579.756	143.85
1582.989	143.15
1586.222	142.78
1589.454	143.23
1592.686	143.69
1595.918	143.08
1599.15	142.42
1602.381	142.97
1605.612	142.26
1608.843	143.2
1612.073	143.17
1615.303	143.57
1618.533	143.87
1621.762	143.95
1624.992	143.57
1628.221	143.53
1631.449	143.06
1634.678	143.46
1637.906	144.09
1641.134	144.06
1644.361	143.94
1647.588	144.07
1650.815	144.02
1654.042	143.54
1657.269	144.13
1660.495	144.03
1663.72	143.52
1666.946	144.38
1670.171	144.56
1673.396	144.18
1676.621	144.19
1679.845	144.72
1683.069	145.3
1686.293	145.54
1689.517	146.2
1692.74	145.97
1695.963	146.26
1699.185	147.78
1702.408	147.51
1705.63	147.96
1708.852	148.3
1712.073	148.68
1715.294	148.67
1718.515	149.16
1721.736	149.2
1724.956	150.08
1728.176	150.18
1731.396	151.22
1734.616	150.55
1737.835	151.59
1741.054	150.3
1744.272	150.79
1747.491	152.18
1750.709	152.32
1753.927	152.18
1757.144	152.36
1760.361	152
1763.578	152.37
1766.795	151.94
1770.011	153.57
1773.227	153.33
1776.443	155.1
1779.658	155.3
1782.874	155
1786.089	155.09
1789.303	155.48
1792.518	156.85
1795.732	156.87
1798.945	158.04
1802.159	158.66
1805.372	158.26
1808.585	160.66
1811.797	161.54
1815.01	162.31
1818.222	163.62
1821.434	165.79
1824.645	166.61
1827.856	169.11
1831.067	170.17
1834.278	170.74
1837.488	171.91
1840.698	173.31
1843.908	171.93
1847.117	172.33
1850.326	173.51
1853.535	172.3
1856.744	174.21
1859.952	173.8
1863.16	172.39
1866.368	171.82
1869.575	171.99
1872.782	169.31
1875.989	168.93
1879.196	168.68
1882.402	168.04
1885.608	167.78
1888.814	168.15
1892.019	167.82
1895.224	166.77
1898.429	166.27
1901.634	166.75
1904.838	167.18
1908.042	168.66
1911.246	168.55
1914.449	168.96
1917.652	168.95
1920.855	168.61
1924.058	168.72
1927.26	167.49
1930.462	168.52
1933.664	170.48
1936.865	169.11
1940.066	168.52
1943.267	167.65
1946.467	168.26
1949.668	168.72
1952.868	170.25
1956.067	171.04
1959.267	171.34
1962.466	171.8
1965.665	170.37
1968.863	170.82
1972.061	174.94
1975.259	176.41
1978.457	178.18
1981.654	178.94
1984.852	179.97
1988.048	179.6
1991.245	181.04
1994.441	182.96
1997.637	184.71
2000.833	189.04
2004.028	191.25
2007.223	190.12
2010.418	192.48
2013.613	196.15
2016.807	198.21
2020.001	200.11
2023.194	203.39
2026.388	208.22
2029.581	213.35
2032.774	214.71
2035.966	218.3
2039.158	218.96
2042.35	223.01
2045.542	224.32
2048.733	228.46
2051.924	231.42
2055.115	235.25
2058.306	235.89
2061.496	236.66
2064.686	237.04
2067.875	241.95
2071.065	242.69
2074.254	240.79
2077.442	245.39
2080.631	246.2
2083.819	247.06
2087.007	247.82
2090.195	250.76
2093.382	253.07
2096.569	252.53
2099.756	255.9
2102.942	255.75
2106.128	258.02
2109.314	265.58
2112.5	264.23
2115.685	269.17
2118.87	269.58
2122.055	274.91
2125.239	275.35
2128.424	278.93
2131.608	281.01
2134.791	284.85
2137.974	286.06
2141.157	287.59
2144.34	286.87
2147.523	290.93
2150.705	289.98
2153.887	294.07
2157.068	294.76
2160.25	293.36
2163.431	295.28
2166.611	297.97
2169.792	303.01
2172.972	306.56
2176.152	309.78
2179.331	313.38
2182.511	318.24
2185.69	321.69
2188.868	327.6
2192.047	328.14
2195.225	337.65
2198.403	344.59
2201.58	351.76
2204.758	359.87
2207.935	366.53
2211.111	372.74
2214.288	377.02
2217.464	378.01
2220.64	384.06
2223.815	388.13
2226.991	403.09
2230.166	403.76
2233.34	409.81
2236.515	417.67
2239.689	416.56
2242.863	419.79
2246.036	429.41
2249.209	425.68
2252.382	435.25
2255.555	446
2258.727	448.12
2261.9	452.98
2265.071	456.62
2268.243	464.86
2271.414	469.53
2274.585	477.87
2277.756	482.61
2280.926	485.66
2284.096	499.56
2287.266	506.77
2290.436	513.66
2293.605	523.93
2296.774	539.55
2299.942	555.08
2303.111	558.66
2306.279	570.32
2309.447	579.6
2312.614	595.06
2315.781	612
2318.948	640.82
2322.115	632.71
2325.281	667.54
2328.447	656.48
2331.613	678.1
2334.779	674.25
2337.944	702.25
2341.109	707.97
2344.274	728.81
2347.438	751.6
2350.602	754.76
2353.766	774.44
2356.929	788.81
2360.092	780.5
2363.255	835.71
2366.418	837.04
2369.58	851.09
2372.742	907.14
2375.904	931.62
2379.066	924.59
2382.227	908.98
2385.388	981.81
2388.548	981.53
2391.709	991.05
2394.869	1103.05
2398.029	1061.22
2401.188	1089.09
2404.347	1084.39
2407.506	1060.38
2410.665	1087.92
2413.823	1154.22
2416.981	1219.39
2420.139	1186.74
2423.296	1172.49
2426.453	1226.57
2429.61	1185.03
2432.767	1231.56
2435.923	1219.63
2439.079	1338.09
2442.235	1360.95
2445.391	1351.33
2448.546	1335.49
2451.701	1302.21
2454.855	1293.03
2458.009	1382.66
2461.163	1437.05
2464.317	1478.92
2467.471	1515.1
2470.624	1517.21
2473.777	1474.49
2476.929	1425.92
2480.082	1383.55
2483.234	1374.45
2486.385	1443.81
2489.537	1451.69
2492.688	1497.61
2495.839	1458.96
2498.989	1427.93
2502.14	1436.28
2505.29	1452.17
2508.439	1467.22
2511.589	1474.36
2514.738	1612.11
2517.887	1571.37
2521.035	1651.84
2524.183	1673.3
2527.331	1680.98
2530.479	1667.26
2533.627	1684.25
