Data from C_3_DEC_OH_4N_Splice17_14-21-01-193.txt Node
Date: Sat Mar 07 14:21:01 EST 2020
User: sa697716
Spectrometer: NQ5500242
Trigger mode: 0
Integration Time (sec): 1.450000E-1
Scans to average: 20
Nonlinearity correction enabled: false
Boxcar width: 5
Storing dark spectrum: false
XAxis mode: Wavelengths
Number of Pixels in Spectrum: 512
>>>>>Begin Spectral Data<<<<<
187.83	97.2
188.298	109.75
188.766	84.9
189.233	79.55
189.701	77.8
190.169	102.72
190.636	123.21
191.104	103.36
191.571	-1.81
192.039	-4.89
192.506	-465.9
192.974	150.1
193.441	89.8
193.908	26.21
194.375	56.19
194.842	13.18
195.31	101.37
195.777	195.73
196.244	65.65
196.711	73.67
197.177	75.68
197.644	74.51
198.111	75.04
198.578	75.96
199.045	76.13
199.511	75.76
199.978	76.12
200.445	76.32
200.911	76.53
201.378	76.65
201.844	76.32
202.31	75.96
202.777	76.21
203.243	76.36
203.709	75.99
204.176	75.53
204.642	75.23
205.108	74.72
205.574	73.75
206.04	72.97
206.506	72.29
206.972	71.94
207.438	71.47
207.903	70.41
208.369	68.92
208.835	67.25
209.301	65.32
209.766	63.15
210.232	61.27
210.697	59.61
211.163	57.8
211.628	56.33
212.094	54.48
212.559	52.79
213.024	51.41
213.49	49.92
213.955	48.8
214.42	47.56
214.885	46.23
215.35	44.36
215.815	41.75
216.28	38.75
216.745	35.23
217.21	31.72
217.675	28.5
218.14	25.64
218.604	23.09
219.069	20.97
219.534	19.25
219.998	17.84
220.463	16.61
220.927	15.58
221.392	14.72
221.856	14
222.32	13.44
222.785	12.93
223.249	12.46
223.713	12.09
224.177	11.76
224.642	11.43
225.106	11.13
225.57	10.82
226.034	10.56
226.497	10.31
226.961	10.08
227.425	9.87
227.889	9.69
228.353	9.5
228.816	9.32
229.28	9.13
229.744	8.97
230.207	8.8
230.671	8.66
231.134	8.52
231.597	8.42
232.061	8.3
232.524	8.17
232.987	8.04
233.45	7.93
233.914	7.81
234.377	7.7
234.84	7.6
235.303	7.52
235.766	7.43
236.229	7.34
236.691	7.24
237.154	7.16
237.617	7.1
238.08	7.03
238.542	6.96
239.005	6.91
239.468	6.84
239.93	6.78
240.393	6.73
240.855	6.65
241.317	6.59
241.78	6.53
242.242	6.46
242.704	6.41
243.166	6.35
243.629	6.3
244.091	6.23
244.553	6.17
245.015	6.12
245.477	6.06
245.939	6.02
246.4	5.97
246.862	5.92
247.324	5.89
247.786	5.83
248.247	5.78
248.709	5.72
249.17	5.67
249.632	5.64
250.093	5.6
250.555	5.57
251.016	5.54
251.477	5.51
251.939	5.47
252.4	5.44
252.861	5.41
253.322	5.39
253.783	5.37
254.244	5.34
254.705	5.31
255.166	5.28
255.627	5.24
256.088	5.2
256.549	5.18
257.009	5.14
257.47	5.11
257.931	5.08
258.391	5.03
258.852	5
259.312	4.96
259.773	4.94
260.233	4.91
260.694	4.88
261.154	4.85
261.614	4.82
262.074	4.79
262.534	4.76
262.994	4.73
263.455	4.71
263.915	4.69
264.374	4.66
264.834	4.64
265.294	4.61
265.754	4.59
266.214	4.57
266.673	4.55
267.133	4.53
267.593	4.52
268.052	4.5
268.512	4.5
268.971	4.48
269.431	4.47
269.89	4.46
270.349	4.45
270.809	4.44
271.268	4.43
271.727	4.42
272.186	4.41
272.645	4.4
273.104	4.39
273.563	4.37
274.022	4.37
274.481	4.36
274.94	4.35
275.399	4.34
275.857	4.33
276.316	4.32
276.775	4.32
277.233	4.32
277.692	4.31
278.15	4.3
278.609	4.3
279.067	4.29
279.525	4.29
279.984	4.28
280.442	4.28
280.9	4.28
281.358	4.28
281.816	4.28
282.274	4.27
282.732	4.26
283.19	4.26
283.648	4.25
284.106	4.25
284.564	4.25
285.021	4.24
285.479	4.25
285.937	4.24
286.394	4.23
286.852	4.23
287.309	4.22
287.767	4.22
288.224	4.2
288.682	4.2
289.139	4.18
289.596	4.15
290.053	4.14
290.511	4.12
290.968	4.1
291.425	4.08
291.882	4.06
292.339	4.05
292.796	4.03
293.252	4.02
293.709	4
294.166	3.99
294.623	3.98
295.079	3.96
295.536	3.95
295.992	3.94
296.449	3.93
296.905	3.93
297.362	3.91
297.818	3.9
298.274	3.9
298.731	3.89
299.187	3.88
299.643	3.87
300.099	3.87
300.555	3.86
301.011	3.85
301.467	3.84
301.923	3.84
302.379	3.84
302.835	3.84
303.291	3.83
303.746	3.82
304.202	3.82
304.658	3.82
305.113	3.83
305.569	3.83
306.024	3.83
306.479	3.83
306.935	3.82
307.39	3.83
307.845	3.83
308.301	3.84
308.756	3.84
309.211	3.84
309.666	3.85
310.121	3.85
310.576	3.85
311.031	3.86
311.486	3.87
311.94	3.87
312.395	3.88
312.85	3.87
313.305	3.88
313.759	3.88
314.214	3.88
314.668	3.87
315.123	3.88
315.577	3.87
316.032	3.86
316.486	3.85
316.94	3.85
317.394	3.84
317.849	3.82
318.303	3.81
318.757	3.8
319.211	3.79
319.665	3.78
320.119	3.76
320.572	3.75
321.026	3.74
321.48	3.74
321.934	3.72
322.387	3.72
322.841	3.71
323.295	3.71
323.748	3.7
324.202	3.7
324.655	3.7
325.108	3.7
325.562	3.71
326.015	3.71
326.468	3.7
326.921	3.7
327.374	3.7
327.827	3.69
328.28	3.69
328.733	3.69
329.186	3.69
329.639	3.69
330.092	3.69
330.545	3.69
330.997	3.69
331.45	3.7
331.903	3.71
332.355	3.72
332.808	3.73
333.26	3.74
333.713	3.74
334.165	3.75
334.617	3.76
335.069	3.76
335.522	3.76
335.974	3.77
336.426	3.77
336.878	3.77
337.33	3.78
337.782	3.78
338.234	3.78
338.686	3.78
339.137	3.8
339.589	3.78
340.041	3.79
340.493	3.78
340.944	3.76
341.396	3.76
341.847	3.74
342.299	3.71
342.75	3.7
343.201	3.68
343.653	3.66
344.104	3.63
344.555	3.63
345.006	3.61
345.457	3.6
345.908	3.59
346.359	3.58
346.81	3.58
347.261	3.58
347.712	3.57
348.163	3.58
348.613	3.58
349.064	3.58
349.515	3.58
349.965	3.58
350.416	3.58
350.866	3.58
351.317	3.57
351.767	3.58
352.217	3.58
352.668	3.58
353.118	3.58
353.568	3.57
354.018	3.57
354.468	3.58
354.918	3.59
355.368	3.6
355.818	3.61
356.268	3.61
356.718	3.61
357.168	3.6
357.617	3.6
358.067	3.6
358.517	3.62
358.966	3.62
359.416	3.63
359.865	3.63
360.315	3.62
360.764	3.62
361.213	3.61
361.663	3.62
362.112	3.62
362.561	3.63
363.01	3.63
363.459	3.62
363.908	3.62
364.357	3.61
364.806	3.6
365.255	3.61
365.703	3.62
366.152	3.64
366.601	3.64
367.05	3.64
367.498	3.64
367.947	3.64
368.395	3.65
368.844	3.65
369.292	3.66
369.74	3.66
370.189	3.66
370.637	3.65
371.085	3.64
371.533	3.64
371.981	3.65
372.429	3.64
372.877	3.65
373.325	3.64
373.773	3.65
374.221	3.65
374.669	3.66
375.116	3.65
375.564	3.65
376.012	3.67
376.459	3.68
376.907	3.68
377.354	3.69
377.801	3.71
378.249	3.71
378.696	3.71
379.143	3.72
379.591	3.73
380.038	3.75
380.485	3.76
380.932	3.76
381.379	3.77
381.826	3.79
382.273	3.8
382.72	3.8
383.166	3.81
383.613	3.82
384.06	3.82
384.506	3.83
384.953	3.85
385.4	3.86
385.846	3.89
386.292	3.9
386.739	3.91
387.185	3.92
387.631	3.94
388.078	3.95
388.524	3.97
388.97	3.99
389.416	4.01
389.862	4.02
390.308	4.05
390.754	4.06
391.2	4.09
391.645	4.11
392.091	4.14
392.537	4.16
392.983	4.19
393.428	4.22
393.874	4.24
394.319	4.27
394.765	4.28
395.21	4.29
395.655	4.31
396.101	4.33
396.546	4.35
396.991	4.37
397.436	4.39
397.881	4.42
398.326	4.44
398.771	4.47
399.216	4.51
399.661	4.54
400.106	4.57
400.551	4.59
400.995	4.59
401.44	4.6
401.885	4.62
402.329	4.63
402.774	4.64
403.218	4.67
403.663	4.67
404.107	4.68
404.551	4.68
404.995	4.69
405.44	4.69
405.884	4.71
406.328	4.73
406.772	4.73
407.216	4.74
407.66	4.75
408.104	4.73
408.547	4.73
408.991	4.74
409.435	4.74
409.879	4.75
410.322	4.76
410.766	4.77
411.209	4.79
411.653	4.8
412.096	4.8
412.54	4.81
412.983	4.84
413.426	4.88
413.869	4.89
414.312	4.92
414.756	4.94
415.199	4.95
415.642	4.97
416.085	4.98
416.527	4.98
416.97	4.98
417.413	4.98
417.856	4.99
418.298	4.97
418.741	4.97
419.184	4.96
419.626	4.97
420.069	4.97
420.511	4.97
420.953	4.96
421.396	4.97
421.838	4.99
422.28	5
422.722	5.03
423.164	5.04
423.606	5.05
424.048	5.05
424.49	5.06
424.932	5.05
425.374	5.04
425.816	5.03
426.258	5.01
426.699	4.98
427.141	4.98
427.582	4.96
428.024	4.96
428.465	4.96
428.907	4.95
429.348	4.93
429.789	4.92
430.231	4.92
430.672	4.94
431.113	4.96
431.554	4.98
431.995	4.98
432.436	4.98
432.877	4.99
433.318	5
433.759	5.04
434.2	5.07
434.64	5.09
435.081	5.12
435.522	5.14
435.962	5.16
436.403	5.19
436.843	5.22
437.284	5.22
437.724	5.22
438.164	5.22
438.604	5.22
439.045	5.21
439.485	5.23
439.925	5.23
440.365	5.23
440.805	5.22
441.245	5.22
441.685	5.22
442.125	5.26
442.564	5.26
443.004	5.26
443.444	5.28
443.883	5.3
444.323	5.29
444.762	5.3
445.202	5.3
445.641	5.32
446.081	5.33
446.52	5.34
446.959	5.35
447.398	5.38
447.837	5.39
448.276	5.4
448.716	5.41
449.154	5.43
449.593	5.45
450.032	5.45
450.471	5.43
450.91	5.42
451.349	5.42
451.787	5.38
452.226	5.36
452.664	5.35
453.103	5.33
453.541	5.32
453.98	5.29
454.418	5.26
454.856	5.24
455.295	5.23
455.733	5.21
456.171	5.2
456.609	5.18
457.047	5.15
457.485	5.14
457.923	5.13
458.361	5.12
458.798	5.11
459.236	5.11
459.674	5.12
460.111	5.11
460.549	5.12
460.987	5.11
461.424	5.11
461.862	5.12
462.299	5.13
462.736	5.13
463.173	5.13
463.611	5.13
464.048	5.12
464.485	5.11
464.922	5.11
465.359	5.11
465.796	5.11
466.233	5.12
466.67	5.13
467.106	5.14
467.543	5.13
467.98	5.13
468.416	5.13
468.853	5.15
469.29	5.16
469.726	5.17
470.162	5.17
470.599	5.17
471.035	5.16
471.471	5.17
471.907	5.15
472.344	5.17
472.78	5.17
473.216	5.16
473.652	5.16
474.088	5.13
474.523	5.13
474.959	5.13
475.395	5.12
475.831	5.11
476.266	5.11
476.702	5.1
477.138	5.09
477.573	5.08
478.008	5.07
478.444	5.06
478.879	5.07
479.314	5.05
479.75	5.04
480.185	5.04
480.62	5.03
481.055	5.02
481.49	5.01
481.925	5
482.36	4.99
482.795	4.98
483.229	4.97
483.664	4.97
484.099	4.97
484.534	4.96
484.968	4.96
485.403	4.95
485.837	4.97
486.271	4.98
486.706	4.99
487.14	5
487.574	5.02
488.009	5.04
488.443	5.05
488.877	5.07
489.311	5.09
489.745	5.11
490.179	5.14
490.613	5.17
491.046	5.18
491.48	5.2
491.914	5.24
492.348	5.27
492.781	5.31
493.215	5.35
493.648	5.39
494.082	5.44
494.515	5.48
494.948	5.53
495.382	5.57
495.815	5.63
496.248	5.7
496.681	5.77
497.114	5.83
497.547	5.89
497.98	5.96
498.413	6.03
498.846	6.11
499.279	6.18
499.711	6.26
500.144	6.36
500.577	6.44
501.009	6.53
501.442	6.63
501.874	6.73
502.306	6.85
502.739	6.96
503.171	7.09
503.603	7.21
504.036	7.34
504.468	7.48
504.9	7.61
505.332	7.75
505.764	7.89
506.196	8.04
506.627	8.2
507.059	8.37
507.491	8.52
507.923	8.68
508.354	8.86
508.786	9.05
509.217	9.23
509.649	9.43
510.08	9.63
510.512	9.83
510.943	10.04
511.374	10.25
511.805	10.46
512.237	10.68
512.668	10.91
513.099	11.13
513.53	11.35
513.961	11.58
514.391	11.82
514.822	12.05
515.253	12.28
515.684	12.5
516.114	12.74
516.545	12.99
516.975	13.22
517.406	13.46
517.836	13.71
518.267	13.96
518.697	14.18
519.127	14.4
519.558	14.64
519.988	14.88
520.418	15.12
520.848	15.33
521.278	15.55
521.708	15.87
522.138	16.08
522.567	16.29
522.997	16.48
523.427	16.7
523.857	16.9
524.286	17.09
524.716	17.27
525.145	17.44
525.575	17.63
526.004	17.8
526.433	17.86
526.863	18.03
527.292	18.18
527.721	18.33
528.15	18.45
528.579	18.6
529.008	18.73
529.437	18.85
529.866	18.97
530.295	19.08
530.724	19.18
531.152	19.29
531.581	19.38
532.01	19.47
532.438	19.56
532.867	19.66
533.295	19.72
533.723	19.8
534.152	19.86
534.58	19.93
535.008	19.97
535.436	20.04
535.865	20.08
536.293	20.13
536.721	20.17
537.149	20.21
537.576	20.23
538.004	20.27
538.432	20.29
538.86	20.31
539.287	20.34
539.715	20.39
540.143	20.39
540.57	20.41
540.998	20.42
541.425	20.45
541.852	20.48
542.28	20.52
542.707	20.54
543.134	20.58
543.561	20.61
543.988	20.63
544.415	20.63
544.842	20.66
545.269	20.69
545.696	20.73
546.123	20.73
546.549	20.75
546.976	20.77
547.403	20.8
547.829	20.81
548.256	20.82
548.682	20.84
549.108	20.87
549.535	20.9
549.961	20.91
550.387	20.92
550.813	20.94
551.24	20.94
551.666	20.94
552.092	20.94
552.518	20.94
552.943	20.92
553.369	20.93
553.795	20.91
554.221	20.88
554.646	20.85
555.072	20.83
555.498	20.79
555.923	20.75
556.349	20.69
556.774	20.64
557.199	20.59
557.625	20.56
558.05	20.49
558.475	20.43
558.9	20.37
559.325	20.31
559.75	20.23
560.175	20.15
560.6	20.06
561.025	20
561.449	19.91
561.874	19.81
562.299	19.71
562.723	19.61
563.148	19.5
563.572	19.39
563.997	19.27
564.421	19.16
564.846	19.05
565.27	18.93
565.694	18.81
566.118	18.68
566.542	18.56
566.966	18.4
567.39	18.27
567.814	18.13
568.238	17.99
568.662	17.85
569.086	17.71
569.509	17.56
569.933	17.43
570.357	17.29
570.78	17.16
571.204	17.03
571.627	16.92
572.05	16.78
572.474	16.68
572.897	16.58
573.32	16.48
573.743	16.38
574.166	16.29
574.589	16.19
575.012	16.09
575.435	16
575.858	15.91
576.281	15.83
576.704	15.76
577.126	15.68
577.549	15.59
577.972	15.5
578.394	15.42
578.817	15.34
579.239	15.27
579.661	15.2
580.084	15.13
580.506	15.06
580.928	15
581.35	14.93
581.772	14.87
582.194	14.8
582.616	14.75
583.038	14.7
583.46	14.64
583.882	14.58
584.303	14.53
584.725	14.47
585.147	14.41
585.568	14.34
585.99	14.29
586.411	14.25
586.833	14.19
587.254	14.14
587.675	14.08
588.096	14.03
588.518	13.99
588.939	13.94
589.36	13.89
589.781	13.86
590.202	13.83
590.623	13.8
591.043	13.74
591.464	13.71
591.885	13.66
592.305	13.63
592.726	13.62
593.147	13.57
593.567	13.54
593.987	13.52
594.408	13.48
594.828	13.45
595.248	13.42
595.669	13.39
596.089	13.37
596.509	13.35
596.929	13.32
597.349	13.28
597.769	13.25
598.189	13.22
598.608	13.19
599.028	13.16
599.448	13.14
599.867	13.09
600.287	13.06
600.706	13.02
601.126	12.98
601.545	12.95
601.965	12.9
602.384	12.87
602.803	12.81
603.222	12.76
603.641	12.71
604.061	12.65
604.48	12.6
604.898	12.55
605.317	12.5
605.736	12.45
606.155	12.4
606.574	12.34
606.992	12.28
607.411	12.22
607.829	12.15
608.248	12.08
608.666	12.03
609.085	11.97
609.503	11.91
609.921	11.84
610.339	11.77
610.758	11.71
611.176	11.65
611.594	11.59
612.012	11.53
612.43	11.49
612.847	11.44
613.265	11.38
613.683	11.33
614.101	11.28
614.518	11.22
614.936	11.16
615.353	11.11
615.771	11.05
616.188	11
616.606	10.97
617.023	10.92
617.44	10.87
617.857	10.83
618.274	10.76
618.691	10.71
619.108	10.67
619.525	10.64
619.942	10.61
620.359	10.57
620.776	10.54
621.192	10.5
621.609	10.49
622.026	10.46
622.442	10.43
622.859	10.43
623.275	10.42
623.691	10.4
624.108	10.39
624.524	10.37
624.94	10.36
625.356	10.35
625.772	10.34
626.188	10.32
626.604	10.32
627.02	10.3
627.436	10.29
627.852	10.27
628.268	10.27
628.683	10.26
629.099	10.24
629.514	10.23
629.93	10.21
630.345	10.18
630.761	10.15
631.176	10.13
631.591	10.1
632.007	10.06
632.422	10.03
632.837	9.97
633.252	9.91
633.667	9.86
634.082	9.8
634.497	9.73
634.911	9.66
635.326	9.6
635.741	9.52
636.155	9.44
636.57	9.37
636.984	9.29
637.399	9.2
637.813	9.11
638.228	9.01
638.642	8.91
639.056	8.82
639.47	8.72
639.884	8.62
640.298	8.51
640.712	8.41
641.126	8.3
641.54	8.19
641.954	8.09
642.368	8
642.781	7.91
643.195	7.82
643.609	7.73
644.022	7.64
644.436	7.57
644.849	7.5
645.262	7.43
645.676	7.37
646.089	7.31
646.502	7.24
646.915	7.19
647.328	7.14
647.741	7.09
648.154	7.05
648.567	7.01
648.98	6.97
649.393	6.93
649.805	6.9
650.218	6.87
650.631	6.84
651.043	6.81
651.456	6.8
651.868	6.77
652.28	6.74
652.693	6.72
653.105	6.69
653.517	6.66
653.929	6.63
654.341	6.59
654.753	6.54
655.165	6.49
655.577	6.45
655.989	6.4
656.401	6.35
656.813	6.31
657.224	6.24
657.636	6.18
658.047	6.12
658.459	6.05
658.87	6
659.282	5.94
659.693	5.89
660.104	5.82
660.515	5.76
660.926	5.7
661.338	5.64
661.749	5.59
662.159	5.54
662.57	5.5
662.981	5.46
663.392	5.41
663.803	5.37
664.213	5.32
664.624	5.28
665.035	5.23
665.445	5.2
665.855	5.17
666.266	5.14
666.676	5.13
667.086	5.09
667.497	5.07
667.907	5.06
668.317	5.05
668.727	5.04
669.137	5.04
669.547	5.04
669.956	5.04
670.366	5.04
670.776	5.04
671.186	5.03
671.595	5.04
672.005	5.05
672.414	5.06
672.824	5.05
673.233	5.07
673.642	5.08
674.052	5.09
674.461	5.1
674.87	5.11
675.279	5.13
675.688	5.17
676.097	5.19
676.506	5.22
676.915	5.24
677.323	5.27
677.732	5.31
678.141	5.34
678.549	5.38
678.958	5.42
679.366	5.47
679.775	5.52
680.183	5.56
680.592	5.62
681	5.68
681.408	5.76
681.816	5.85
682.224	5.94
682.632	6.04
683.04	6.15
683.448	6.28
683.856	6.41
684.264	6.56
684.671	6.73
685.079	6.91
685.487	7.11
685.894	7.34
686.302	7.58
686.709	7.84
687.116	8.11
687.524	8.43
687.931	8.75
688.338	9.09
688.745	9.45
689.152	9.84
689.559	10.25
689.966	10.66
690.373	11.09
690.78	11.53
691.187	11.98
691.593	12.46
692	12.93
692.407	13.39
692.813	13.89
693.22	14.37
693.626	14.87
694.032	15.35
694.439	15.85
694.845	16.35
695.251	16.84
695.657	17.33
696.063	17.83
696.469	18.32
696.875	18.82
697.281	19.31
697.687	19.8
698.093	20.27
698.498	20.76
698.904	21.25
699.31	21.71
699.715	22.17
700.12	22.63
700.526	23.08
700.931	23.51
701.337	23.95
701.742	24.38
702.147	24.81
702.552	25.24
702.957	25.64
703.362	26
703.767	26.37
704.172	26.74
704.577	27.1
704.981	27.46
705.386	27.83
705.791	28.18
706.195	28.54
706.6	28.87
707.004	29.2
707.408	29.53
707.813	29.88
708.217	30.2
708.621	30.52
709.025	30.82
709.43	31.12
709.834	31.41
710.237	31.69
710.641	31.97
711.045	32.23
711.449	32.5
711.853	32.79
712.256	33.05
712.66	33.31
713.064	33.57
713.467	33.83
713.87	34.07
714.274	34.32
714.677	34.57
715.08	34.8
715.484	35.05
715.887	35.28
716.29	35.49
716.693	35.7
717.096	35.92
717.499	36.14
717.901	36.35
718.304	36.57
718.707	36.76
719.109	36.97
719.512	37.17
719.915	37.36
720.317	37.52
720.719	37.69
721.122	37.87
721.524	38.06
721.926	38.2
722.328	38.38
722.731	38.54
723.133	38.7
723.535	38.84
723.937	38.97
724.338	39.1
724.74	39.25
725.142	39.42
725.544	39.54
725.945	39.64
726.347	39.76
726.748	39.86
727.15	39.95
727.551	40.06
727.952	40.14
728.354	40.27
728.755	40.36
729.156	40.46
729.557	40.52
729.958	40.61
730.359	40.71
730.76	40.8
731.161	40.87
731.562	40.97
731.962	40.99
732.363	41.08
732.763	41.11
733.164	41.16
733.564	41.24
733.965	41.28
734.365	41.35
734.766	41.4
735.166	41.45
735.566	41.5
735.966	41.55
736.366	41.63
736.766	41.67
737.166	41.74
737.566	41.78
737.966	41.8
738.365	41.84
738.765	41.84
739.165	41.88
739.564	41.93
739.964	41.97
740.363	41.99
740.763	42.02
741.162	42.05
741.561	42.06
741.96	42.09
742.36	42.1
742.759	42.15
743.158	42.21
743.557	42.22
743.955	42.23
744.354	42.26
744.753	42.31
745.152	42.34
745.55	42.38
745.949	42.43
746.348	42.48
746.746	42.51
747.144	42.53
747.543	42.55
747.941	42.59
748.339	42.6
748.737	42.62
749.136	42.62
749.534	42.62
749.932	42.62
750.33	42.6
750.727	42.62
751.125	42.63
751.523	42.62
751.921	42.59
752.318	42.6
752.716	42.6
753.113	42.58
753.511	42.57
753.908	42.6
754.305	42.59
754.703	42.58
755.1	42.57
755.497	42.54
755.894	42.54
756.291	42.55
756.688	42.49
757.085	42.49
757.482	42.49
757.878	42.47
758.275	42.43
758.672	42.43
759.068	42.46
759.465	42.45
759.861	42.48
760.258	42.5
760.654	42.51
761.05	42.53
761.447	42.55
761.843	42.54
762.239	42.56
762.635	42.55
763.031	42.55
763.427	42.52
763.822	42.52
764.218	42.51
764.614	42.51
765.01	42.49
765.405	42.51
765.801	42.49
766.196	42.49
766.592	42.48
766.987	42.49
767.382	42.48
767.778	42.5
768.173	42.51
768.568	42.5
768.963	42.5
769.358	42.52
769.753	42.52
770.148	42.53
770.542	42.53
770.937	42.53
771.332	42.54
771.726	42.54
772.121	42.54
772.515	42.53
772.91	42.54
773.304	42.56
773.699	42.54
774.093	42.54
774.487	42.54
774.881	42.55
775.275	42.55
775.669	42.54
776.063	42.52
776.457	42.54
776.851	42.54
777.245	42.53
777.638	42.49
778.032	42.5
778.425	42.53
778.819	42.52
779.212	42.56
779.606	42.56
779.999	42.54
780.392	42.59
780.786	42.57
781.179	42.57
781.572	42.62
781.965	42.67
782.358	42.66
782.751	42.63
783.143	42.64
783.536	42.6
783.929	42.62
784.322	42.66
784.714	42.65
785.107	42.69
785.499	42.71
785.891	42.69
786.284	42.69
786.676	42.71
787.068	42.72
787.46	42.72
787.852	42.75
788.245	42.75
788.636	42.76
789.028	42.78
789.42	42.77
789.812	42.78
790.204	42.79
790.595	42.81
790.987	42.83
791.378	42.86
791.77	42.88
792.161	42.86
792.553	42.88
792.944	42.89
793.335	42.87
793.726	42.89
794.117	42.85
794.508	42.85
794.899	42.83
795.29	42.8
795.681	42.78
796.072	42.78
796.463	42.79
796.853	42.79
797.244	42.77
797.634	42.79
798.025	42.81
798.415	42.84
798.806	42.84
799.196	42.9
799.586	42.92
799.976	42.96
800.366	42.99
800.756	43.04
801.146	43.08
801.536	43.12
801.926	43.12
802.316	43.12
802.706	43.13
803.095	43.17
803.485	43.14
803.874	43.15
804.264	43.16
804.653	43.15
805.043	43.16
805.432	43.14
805.821	43.15
806.21	43.17
806.599	43.2
806.988	43.22
807.377	43.22
807.766	43.24
808.155	43.24
808.544	43.25
808.933	43.26
809.321	43.25
809.71	43.28
810.098	43.27
810.487	43.25
810.875	43.25
811.264	43.26
811.652	43.24
812.04	43.24
812.428	43.27
812.816	43.26
813.204	43.26
813.592	43.26
813.98	43.27
814.368	43.27
814.756	43.27
815.144	43.25
815.531	43.25
815.919	43.26
816.306	43.28
816.694	43.26
817.081	43.26
817.469	43.28
817.856	43.25
818.243	43.23
818.63	43.25
819.017	43.25
819.404	43.24
819.791	43.22
820.178	43.23
820.565	43.22
820.952	43.21
821.339	43.2
821.725	43.2
822.112	43.23
822.498	43.25
822.885	43.26
823.271	43.26
823.657	43.26
824.044	43.27
824.43	43.3
824.816	43.29
825.202	43.3
825.588	43.29
825.974	43.27
826.36	43.26
826.746	43.23
827.132	43.22
827.517	43.22
827.903	43.21
828.289	43.2
828.674	43.19
829.06	43.17
829.445	43.14
829.83	43.14
830.216	43.12
830.601	43.11
830.986	43.1
831.371	43.06
831.756	43.05
832.141	43.03
832.526	42.99
832.911	42.95
833.295	42.94
833.68	42.94
834.065	42.93
834.449	42.92
834.834	42.9
835.218	42.89
835.603	42.88
835.987	42.85
836.371	42.83
836.755	42.84
837.139	42.83
837.524	42.84
837.908	42.85
838.291	42.85
838.675	42.85
839.059	42.84
839.443	42.82
839.827	42.8
840.21	42.8
840.594	42.81
840.977	42.8
841.361	42.79
841.744	42.74
842.127	42.71
842.511	42.68
842.894	42.65
843.277	42.64
843.66	42.61
844.043	42.63
844.426	42.63
844.809	42.63
845.191	42.64
845.574	42.64
845.957	42.67
846.339	42.66
846.722	42.67
847.104	42.7
847.487	42.69
847.869	42.71
848.252	42.71
848.634	42.72
849.016	42.72
849.398	42.72
849.78	42.7
850.162	42.7
850.544	42.71
850.926	42.69
851.307	42.67
851.689	42.68
852.071	42.66
852.452	42.67
852.834	42.68
853.215	42.67
853.597	42.67
853.978	42.66
854.359	42.65
854.741	42.64
855.122	42.63
855.503	42.65
855.884	42.67
856.265	42.68
856.646	42.67
857.026	42.67
857.407	42.68
857.788	42.67
858.169	42.71
858.549	42.74
858.93	42.74
859.31	42.76
859.69	42.78
860.071	42.79
860.451	42.81
860.831	42.81
861.211	42.78
861.591	42.78
861.971	42.79
862.351	42.8
862.731	42.78
863.111	42.77
863.491	42.75
863.87	42.72
864.25	42.69
864.629	42.67
865.009	42.68
865.388	42.68
865.768	42.67
866.147	42.67
866.526	42.64
866.905	42.65
867.284	42.68
867.663	42.7
868.042	42.74
868.421	42.74
868.8	42.76
869.179	42.75
869.558	42.77
869.936	42.78
870.315	42.76
870.693	42.77
871.072	42.79
871.45	42.78
871.828	42.77
872.207	42.76
872.585	42.76
872.963	42.76
873.341	42.76
873.719	42.75
874.097	42.74
874.475	42.77
874.853	42.75
875.23	42.76
875.608	42.75
875.986	42.78
876.363	42.78
876.741	42.79
877.118	42.78
877.495	42.8
877.873	42.81
878.25	42.84
878.627	42.83
879.004	42.86
879.381	42.85
879.758	42.84
880.135	42.82
880.512	42.81
880.889	42.81
881.265	42.82
881.642	42.82
882.019	42.83
882.395	42.8
882.772	42.8
883.148	42.77
883.524	42.75
883.901	42.75
884.277	42.73
884.653	42.72
885.029	42.7
885.405	42.68
885.781	42.67
886.157	42.64
886.532	42.67
886.908	42.65
887.284	42.64
887.659	42.62
888.035	42.59
888.411	42.58
888.786	42.57
889.161	42.57
889.537	42.56
889.912	42.53
890.287	42.51
890.662	42.46
891.037	42.46
891.412	42.43
891.787	42.41
892.162	42.4
892.536	42.38
892.911	42.37
893.286	42.34
893.66	42.32
894.035	42.31
894.409	42.3
894.784	42.3
895.158	42.28
895.532	42.29
895.906	42.29
896.281	42.29
896.655	42.28
897.029	42.29
897.402	42.26
897.776	42.26
898.15	42.27
898.524	42.26
898.898	42.27
899.271	42.29
899.645	42.3
900.018	42.33
900.392	42.34
900.765	42.36
901.138	42.36
901.511	42.41
901.884	42.44
902.258	42.45
902.631	42.47
903.003	42.47
903.376	42.45
903.749	42.44
904.122	42.43
904.495	42.45
904.867	42.46
905.24	42.47
905.612	42.48
905.985	42.46
906.357	42.46
906.729	42.5
907.102	42.51
907.474	42.54
907.846	42.56
908.218	42.57
908.59	42.59
908.962	42.6
909.334	42.64
909.705	42.64
910.077	42.67
910.449	42.67
910.82	42.66
911.192	42.66
911.563	42.65
911.935	42.66
912.306	42.68
912.677	42.7
913.048	42.68
913.419	42.67
913.79	42.67
914.161	42.66
914.532	42.69
914.903	42.69
915.274	42.71
915.645	42.73
916.015	42.73
916.386	42.72
916.756	42.71
917.127	42.73
917.497	42.72
917.868	42.72
918.238	42.73
918.608	42.75
918.978	42.74
919.348	42.76
919.718	42.75
920.088	42.78
920.458	42.77
920.828	42.75
921.198	42.71
921.567	42.72
921.937	42.76
922.306	42.75
922.676	42.71
923.045	42.71
923.415	42.68
923.784	42.68
924.153	42.69
924.522	42.7
924.891	42.71
925.26	42.74
925.629	42.73
925.998	42.72
926.367	42.69
926.736	42.71
927.104	42.72
927.473	42.71
927.842	42.71
928.21	42.69
928.578	42.69
928.947	42.71
929.315	42.71
929.683	42.7
930.051	42.7
930.42	42.73
930.788	42.7
931.156	42.66
931.523	42.66
931.891	42.7
932.259	42.7
932.627	42.68
932.994	42.65
933.362	42.61
933.729	42.62
934.097	42.6
934.464	42.59
934.831	42.61
935.199	42.67
935.566	42.68
935.933	42.65
936.3	42.65
936.667	42.67
937.034	42.71
937.401	42.78
937.767	42.81
938.134	42.87
938.501	42.88
938.867	42.95
939.234	42.96
939.6	43
939.967	43.02
940.333	43.05
940.699	43.17
941.065	43.2
941.431	43.22
941.798	43.25
942.163	43.28
942.529	43.35
942.895	43.39
943.261	43.46
943.627	43.47
943.992	43.53
944.358	43.58
944.723	43.58
945.089	43.6
945.454	43.62
945.82	43.62
946.185	43.61
946.55	43.54
946.915	43.49
947.28	43.43
947.645	43.37
948.01	43.37
948.375	43.33
948.74	43.3
949.104	43.31
949.469	43.26
949.834	43.16
950.198	43.19
950.562	43.21
950.927	43.18
951.291	43.13
951.655	43.09
952.02	43.08
952.384	43.05
952.748	43.01
953.112	42.92
953.476	42.9
953.839	42.88
954.203	42.81
954.567	42.74
954.931	42.69
955.294	42.68
955.658	42.74
956.021	42.68
956.385	42.57
956.748	42.48
957.111	42.49
957.474	42.49
957.837	42.44
958.2	42.43
958.563	42.44
958.926	42.48
959.289	42.49
959.652	42.41
960.015	42.4
960.377	42.47
960.74	42.56
961.102	42.49
961.465	42.49
961.827	42.55
962.189	42.55
962.552	42.54
962.914	42.51
963.276	42.51
963.638	42.51
964	42.46
964.362	42.44
964.724	42.4
965.085	42.38
965.447	42.35
965.809	42.32
966.17	42.3
966.532	42.29
966.893	42.3
967.255	42.27
967.616	42.32
967.977	42.34
968.338	42.27
968.699	42.26
969.061	42.33
969.421	42.39
969.782	42.37
970.143	42.35
970.504	42.33
970.865	42.31
971.225	42.3
971.586	42.22
971.946	42.18
972.307	42.22
972.667	42.24
973.027	42.19
973.388	42.15
973.748	42.19
974.108	42.29
974.468	42.32
974.828	42.31
975.188	42.32
975.548	42.3
975.907	42.33
976.267	42.34
976.627	42.33
976.986	42.26
977.346	42.19
977.705	42.15
978.064	42.14
978.424	42.12
978.783	42.07
979.142	42.03
979.501	42.14
979.86	42.19
980.219	42.16
980.578	42.13
980.937	42.18
981.296	42.22
981.654	42.2
982.013	42.19
982.371	42.24
982.73	42.34
983.088	42.37
983.447	42.31
983.805	42.31
984.163	42.39
984.521	42.43
984.879	42.46
985.237	42.54
985.595	42.63
985.953	42.59
986.311	42.57
986.669	42.55
987.026	42.61
987.384	42.67
987.741	42.64
988.099	42.7
988.456	42.74
988.814	42.84
989.171	42.82
989.528	42.82
989.885	42.87
990.242	42.84
990.599	42.96
990.956	43
991.313	43.02
991.67	43.07
992.027	43.09
992.383	43.2
992.74	43.24
993.096	43.24
993.453	43.32
993.809	43.41
994.165	43.52
994.522	43.53
994.878	43.57
995.234	43.62
995.59	43.72
995.946	43.8
996.302	43.78
996.658	43.83
997.013	43.91
997.369	43.96
997.725	43.95
998.08	44.1
998.436	44.09
998.791	44.2
999.147	44.11
999.502	44.07
999.857	44.02
1000.212	43.97
1000.567	43.93
1000.922	43.92
1001.277	43.94
1001.632	43.93
1001.987	43.97
1002.342	43.95
1002.696	43.95
1003.051	44.29
1003.406	44.4
1003.76	44.38
1004.114	44.48
1004.469	44.62
1004.823	44.94
1005.177	44.96
1005.531	45.15
1005.885	44.96
1006.239	45.06
1006.593	45.17
1006.947	45.09
1007.301	45.01
1007.655	45.18
1008.008	45.2
1008.362	45.16
1008.715	45.05
1009.069	45.13
1009.422	45.1
1009.776	45.31
1010.129	45.39
1010.482	45.27
1010.835	45.28
1011.188	45.56
1011.541	45.56
1011.894	45.71
1012.247	45.82
1012.6	45.93
1012.952	46.09
1013.305	46.27
1013.657	46.37
1014.01	46.49
1014.362	46.71
1014.715	46.83
1015.067	46.77
1015.419	47.1
1015.771	47.1
1016.123	47.15
1016.475	47.25
1016.827	47.43
1017.179	47.36
1017.531	47.35
1017.883	47.39
1018.234	47.5
1018.586	47.75
1018.938	47.99
1019.289	47.91
1019.64	48.06
1019.992	48.09
1020.343	48
1020.694	47.91
1021.045	48.14
1021.396	48.51
1021.747	48.79
1022.098	48.91
1022.449	48.69
1022.8	48.74
1023.151	48.78
1023.501	48.99
1023.852	49.29
1024.202	49.53
1024.553	49.55
1024.903	49.53
1025.253	49.59
1025.604	49.64
1025.954	49.61
1026.304	49.91
1026.654	50.04
1027.004	50.23
1027.354	50.28
1027.703	50.15
1028.053	50.34
1028.403	50.56
1028.753	50.64
1029.102	50.82
1029.452	51.01
1029.801	51.37
1030.15	51.5
1030.499	51.56
897.758	942.32
901.051	941.8
904.343	944.84
907.636	960.82
910.928	934.91
914.22	930.29
917.511	917.54
920.803	880.38
924.094	876.34
927.384	856.08
930.675	823.9
933.965	817.12
937.255	773.16
940.544	739.96
943.834	706.04
947.123	699.78
950.411	663.79
953.7	651.32
956.988	615.21
960.276	589.25
963.563	580.49
966.851	558.7
970.138	554.24
973.424	538.21
976.711	541.2
979.997	513.21
983.283	512.06
986.568	499.84
989.853	484.86
993.138	475.97
996.423	460.21
999.708	448.05
1002.992	442.16
1006.275	424.11
1009.559	419.7
1012.842	403.68
1016.125	393.94
1019.408	384.7
1022.69	381.23
1025.972	373.02
1029.254	364.13
1032.536	357.57
1035.817	350.62
1039.098	346.5
1042.379	340.18
1045.659	335.47
1048.939	328.13
1052.219	321.69
1055.498	318.9
1058.778	310.41
1062.057	304.36
1065.335	301.65
1068.614	298.68
1071.892	294.96
1075.17	287.46
1078.447	281.56
1081.724	280.19
1085.001	277.37
1088.278	272.77
1091.554	267.4
1094.83	268.87
1098.106	266.35
1101.382	263.59
1104.657	260.98
1107.932	257.36
1111.206	258.51
1114.481	251.85
1117.755	249.79
1121.029	248.09
1124.302	247.13
1127.575	243.28
1130.848	239.4
1134.121	237.93
1137.393	236.79
1140.665	232.28
1143.937	229.89
1147.208	227.88
1150.48	227.76
1153.75	223.65
1157.021	221.29
1160.291	221.67
1163.561	218.15
1166.831	218.32
1170.101	216.45
1173.37	216.58
1176.639	216.57
1179.907	215.5
1183.176	213.1
1186.444	212.52
1189.711	213.03
1192.979	212.51
1196.246	210.72
1199.513	211.7
1202.78	210.17
1206.046	210.01
1209.312	207.84
1212.578	208.45
1215.843	209.04
1219.108	209.06
1222.373	213.05
1225.638	213.72
1228.902	216.35
1232.166	216.3
1235.43	217.82
1238.693	221.21
1241.956	222.6
1245.219	225.1
1248.482	225.56
1251.744	226.19
1255.006	225.95
1258.268	220.83
1261.529	219.69
1264.79	218.69
1268.051	217.36
1271.312	214.26
1274.572	211.51
1277.832	209.95
1281.092	206.81
1284.351	205.29
1287.61	205.19
1290.869	201.9
1294.128	200.89
1297.386	200.43
1300.644	198.09
1303.902	199.46
1307.159	199.31
1310.416	199.06
1313.673	197.5
1316.93	199.93
1320.186	199.07
1323.442	199.69
1326.697	202.8
1329.953	203.69
1333.208	203.93
1336.463	206.97
1339.717	206.9
1342.972	208.95
1346.226	210.53
1349.479	211.56
1352.733	211.94
1355.986	214.71
1359.238	213.78
1362.491	214.67
1365.743	216.52
1368.995	217.03
1372.247	216.01
1375.498	215.82
1378.749	216.86
1382	215.18
1385.251	215.79
1388.501	214.85
1391.751	213.69
1395	213.12
1398.25	211.49
1401.499	209.38
1404.748	209.13
1407.996	206.7
1411.244	206.1
1414.492	204.51
1417.74	202.22
1420.987	199.05
1424.234	198.23
1427.481	196.94
1430.728	196.47
1433.974	194.4
1437.22	192.78
1440.465	192.39
1443.711	190.4
1446.956	188.73
1450.201	187.13
1453.445	185.75
1456.689	185.19
1459.933	182.58
1463.177	179.61
1466.42	178.04
1469.663	175.99
1472.906	175.17
1476.148	170.38
1479.391	168.72
1482.633	167.75
1485.874	165.32
1489.115	163.93
1492.356	161.67
1495.597	161.21
1498.838	159.86
1502.078	158.14
1505.318	157.89
1508.557	157.83
1511.797	158.26
1515.036	156.56
1518.274	156.15
1521.513	155.25
1524.751	155
1527.989	155.17
1531.227	154.47
1534.464	154.63
1537.701	154.44
1540.938	153.91
1544.174	151.92
1547.41	152.12
1550.646	152.21
1553.882	151.81
1557.117	149.9
1560.352	149.29
1563.587	148.98
1566.821	148
1570.055	147.31
1573.289	145.7
1576.523	145.81
1579.756	145.38
1582.989	143.92
1586.222	143.68
1589.454	143.48
1592.686	144.65
1595.918	143.95
1599.15	143.5
1602.381	143.78
1605.612	143.2
1608.843	143.58
1612.073	143.36
1615.303	143.9
1618.533	144.39
1621.762	144.84
1624.992	145.07
1628.221	144.63
1631.449	144.27
1634.678	144.44
1637.906	145.13
1641.134	144.91
1644.361	144.88
1647.588	145.66
1650.815	145.26
1654.042	145.14
1657.269	145.16
1660.495	145.01
1663.72	144.42
1666.946	145.26
1670.171	145.56
1673.396	145.4
1676.621	145.32
1679.845	145.74
1683.069	145.86
1686.293	146.44
1689.517	146.39
1692.74	146.53
1695.963	147.04
1699.185	148.45
1702.408	148.28
1705.63	148.69
1708.852	149.02
1712.073	149.76
1715.294	150.06
1718.515	150.32
1721.736	150.24
1724.956	151.24
1728.176	151.3
1731.396	151.56
1734.616	151.3
1737.835	152.21
1741.054	151.06
1744.272	151.63
1747.491	152.69
1750.709	152.98
1753.927	152.97
1757.144	152.53
1760.361	152.71
1763.578	153.3
1766.795	153.11
1770.011	154.78
1773.227	154.62
1776.443	156.72
1779.658	156.8
1782.874	156.33
1786.089	156.07
1789.303	156.33
1792.518	158.71
1795.732	158.39
1798.945	158.78
1802.159	159.7
1805.372	159.02
1808.585	161.49
1811.797	161.73
1815.01	162.47
1818.222	163.89
1821.434	166.44
1824.645	166.7
1827.856	168.7
1831.067	170.09
1834.278	170.42
1837.488	171
1840.698	172.35
1843.908	170.97
1847.117	171.17
1850.326	172.13
1853.535	170.94
1856.744	171.94
1859.952	172.43
1863.16	171.18
1866.368	170.32
1869.575	171.18
1872.782	168.16
1875.989	167.91
1879.196	167.29
1882.402	166.34
1885.608	166.06
1888.814	166.17
1892.019	166.2
1895.224	164.76
1898.429	164.07
1901.634	164.18
1904.838	164.56
1908.042	166.99
1911.246	166.84
1914.449	167.15
1917.652	167.63
1920.855	166.7
1924.058	167.97
1927.26	166.46
1930.462	167.27
1933.664	168.48
1936.865	167.65
1940.066	167.03
1943.267	166.13
1946.467	165.73
1949.668	166.6
1952.868	167.96
1956.067	169.36
1959.267	168.21
1962.466	169.11
1965.665	168.58
1968.863	169.31
1972.061	172.12
1975.259	173.98
1978.457	174.61
1981.654	176.38
1984.852	177.13
1988.048	176.7
1991.245	178.55
1994.441	180.46
1997.637	182.13
2000.833	185.73
2004.028	188.1
2007.223	188.79
2010.418	189.91
2013.613	193.38
2016.807	195.7
2020.001	197.14
2023.194	200.96
2026.388	204.56
2029.581	210.12
2032.774	211.38
2035.966	214.58
2039.158	214.98
2042.35	218.66
2045.542	220.48
2048.733	225.09
2051.924	228.18
2055.115	231.86
2058.306	232.14
2061.496	233.95
2064.686	233.69
2067.875	238.55
2071.065	240.11
2074.254	238.09
2077.442	242.23
2080.631	243.6
2083.819	244.97
2087.007	244.43
2090.195	248.06
2093.382	250.47
2096.569	249.48
2099.756	252.75
2102.942	252.85
2106.128	254.74
2109.314	262.22
2112.5	260.43
2115.685	266.52
2118.87	267.03
2122.055	273.02
2125.239	273.8
2128.424	276.86
2131.608	278.9
2134.791	284.29
2137.974	284.52
2141.157	286.19
2144.34	286.48
2147.523	290.9
2150.705	288.63
2153.887	291.88
2157.068	292.54
2160.25	290.35
2163.431	291.97
2166.611	295.59
2169.792	299.34
2172.972	303.51
2176.152	306.06
2179.331	309.39
2182.511	313.41
2185.69	316.66
2188.868	323.09
2192.047	323.76
2195.225	334.31
2198.403	341.75
2201.58	347.45
2204.758	354.54
2207.935	361.11
2211.111	367.45
2214.288	371.77
2217.464	373.22
2220.64	378.62
2223.815	382.74
2226.991	400.03
2230.166	399.31
2233.34	405.14
2236.515	411.05
2239.689	412.86
2242.863	415.92
2246.036	425.93
2249.209	422.35
2252.382	430.67
2255.555	442.84
2258.727	445.35
2261.9	446.64
2265.071	451.24
2268.243	460.78
2271.414	467.58
2274.585	474.69
2277.756	479.06
2280.926	483.28
2284.096	494.88
2287.266	505.58
2290.436	511.54
2293.605	520.57
2296.774	534.73
2299.942	551.98
2303.111	554.37
2306.279	564.63
2309.447	574.89
2312.614	590.47
2315.781	606.1
2318.948	635.07
2322.115	624.61
2325.281	658.32
2328.447	647.97
2331.613	671.69
2334.779	663.67
2337.944	692.73
2341.109	701.16
2344.274	720.51
2347.438	743.33
2350.602	744.8
2353.766	767.37
2356.929	780.04
2360.092	775.32
2363.255	828.27
2366.418	829.94
2369.58	843.56
2372.742	897.83
2375.904	920.59
2379.066	913.14
2382.227	895.74
2385.388	971.36
2388.548	967.25
2391.709	979
2394.869	1084.23
2398.029	1044.42
2401.188	1071.18
2404.347	1069.07
2407.506	1043.31
2410.665	1076.64
2413.823	1138.64
2416.981	1205
2420.139	1170
2423.296	1156.71
2426.453	1213.27
2429.61	1173.73
2432.767	1221.37
2435.923	1210.17
2439.079	1324.67
2442.235	1350.15
2445.391	1335.69
2448.546	1322.64
2451.701	1288.1
2454.855	1280.52
2458.009	1369.59
2461.163	1415.14
2464.317	1458.04
2467.471	1498.36
2470.624	1499.28
2473.777	1457.25
2476.929	1411.08
2480.082	1368.52
2483.234	1362.62
2486.385	1426.19
2489.537	1433.71
2492.688	1477.72
2495.839	1444.7
2498.989	1412.17
2502.14	1415.72
2505.29	1432.44
2508.439	1448.11
2511.589	1448.34
2514.738	1580.16
2517.887	1542.34
2521.035	1627.19
2524.183	1643.87
2527.331	1655.19
2530.479	1637.78
2533.627	1653.73
