Data from C_3_DEC_CT_2N_Splice17_13-54-48-215.txt Node
Date: Sat Mar 07 13:54:48 EST 2020
User: sa697716
Spectrometer: NQ5500242
Trigger mode: 0
Integration Time (sec): 1.450000E-1
Scans to average: 20
Nonlinearity correction enabled: false
Boxcar width: 5
Storing dark spectrum: false
XAxis mode: Wavelengths
Number of Pixels in Spectrum: 512
>>>>>Begin Spectral Data<<<<<
187.83	232.21
188.298	242.17
188.766	214.96
189.233	184.71
189.701	208.99
190.169	239.49
190.636	264.71
191.104	339.15
191.571	148.45
192.039	-79.41
192.506	-473.7
192.974	183.45
193.441	293.73
193.908	133.3
194.375	97.3
194.842	86.2
195.31	169.8
195.777	283.15
196.244	64.45
196.711	51.61
197.177	51.79
197.644	51.69
198.111	50.93
198.578	51.28
199.045	51.62
199.511	51.73
199.978	52.28
200.445	52.28
200.911	52.42
201.378	52.41
201.844	52.57
202.31	52.18
202.777	52.01
203.243	52.22
203.709	51.71
204.176	51.37
204.642	51.17
205.108	50.81
205.574	50.41
206.04	49.83
206.506	49.14
206.972	48.78
207.438	48.35
207.903	47.82
208.369	46.93
208.835	46.16
209.301	45.01
209.766	43.53
210.232	42.21
210.697	40.86
211.163	39.84
211.628	39.02
212.094	37.81
212.559	37.04
213.024	36.08
213.49	35.23
213.955	34.36
214.42	33.61
214.885	32.74
215.35	31.55
215.815	30.08
216.28	27.97
216.745	25.51
217.21	23.24
217.675	20.96
218.14	19.07
218.604	17.36
219.069	15.93
219.534	14.73
219.998	13.75
220.463	12.97
220.927	12.2
221.392	11.64
221.856	11.22
222.32	10.84
222.785	10.5
223.249	10.19
223.713	9.95
224.177	9.72
224.642	9.5
225.106	9.28
225.57	9.03
226.034	8.88
226.497	8.71
226.961	8.53
227.425	8.36
227.889	8.22
228.353	8.07
228.816	7.9
229.28	7.77
229.744	7.65
230.207	7.51
230.671	7.4
231.134	7.28
231.597	7.17
232.061	7.07
232.524	6.97
232.987	6.88
233.45	6.8
233.914	6.71
234.377	6.61
234.84	6.53
235.303	6.46
235.766	6.39
236.229	6.32
236.691	6.23
237.154	6.16
237.617	6.09
238.08	6.03
238.542	5.96
239.005	5.92
239.468	5.86
239.93	5.81
240.393	5.76
240.855	5.69
241.317	5.62
241.78	5.58
242.242	5.51
242.704	5.48
243.166	5.42
243.629	5.37
244.091	5.31
244.553	5.25
245.015	5.2
245.477	5.14
245.939	5.09
246.4	5.04
246.862	4.98
247.324	4.93
247.786	4.87
248.247	4.81
248.709	4.75
249.17	4.69
249.632	4.66
250.093	4.62
250.555	4.57
251.016	4.53
251.477	4.5
251.939	4.47
252.4	4.44
252.861	4.4
253.322	4.38
253.783	4.35
254.244	4.33
254.705	4.28
255.166	4.25
255.627	4.22
256.088	4.2
256.549	4.17
257.009	4.13
257.47	4.09
257.931	4.06
258.391	4.02
258.852	3.99
259.312	3.95
259.773	3.92
260.233	3.89
260.694	3.86
261.154	3.82
261.614	3.79
262.074	3.75
262.534	3.73
262.994	3.7
263.455	3.68
263.915	3.65
264.374	3.63
264.834	3.61
265.294	3.59
265.754	3.57
266.214	3.55
266.673	3.53
267.133	3.52
267.593	3.5
268.052	3.49
268.512	3.48
268.971	3.47
269.431	3.46
269.89	3.45
270.349	3.44
270.809	3.43
271.268	3.42
271.727	3.41
272.186	3.41
272.645	3.4
273.104	3.38
273.563	3.38
274.022	3.37
274.481	3.36
274.94	3.36
275.399	3.34
275.857	3.34
276.316	3.33
276.775	3.32
277.233	3.32
277.692	3.32
278.15	3.32
278.609	3.31
279.067	3.31
279.525	3.31
279.984	3.3
280.442	3.3
280.9	3.3
281.358	3.3
281.816	3.3
282.274	3.3
282.732	3.3
283.19	3.3
283.648	3.3
284.106	3.29
284.564	3.29
285.021	3.29
285.479	3.29
285.937	3.29
286.394	3.29
286.852	3.28
287.309	3.28
287.767	3.28
288.224	3.27
288.682	3.26
289.139	3.25
289.596	3.23
290.053	3.22
290.511	3.2
290.968	3.18
291.425	3.16
291.882	3.15
292.339	3.14
292.796	3.12
293.252	3.11
293.709	3.1
294.166	3.1
294.623	3.09
295.079	3.08
295.536	3.08
295.992	3.07
296.449	3.07
296.905	3.07
297.362	3.06
297.818	3.05
298.274	3.05
298.731	3.05
299.187	3.03
299.643	3.03
300.099	3.02
300.555	3.02
301.011	3.01
301.467	3.01
301.923	3
302.379	3
302.835	3.01
303.291	3
303.746	3
304.202	3.01
304.658	3.01
305.113	3.01
305.569	3.01
306.024	3.01
306.479	3.01
306.935	3.01
307.39	3.02
307.845	3.02
308.301	3.02
308.756	3.03
309.211	3.03
309.666	3.04
310.121	3.04
310.576	3.05
311.031	3.05
311.486	3.05
311.94	3.05
312.395	3.06
312.85	3.06
313.305	3.06
313.759	3.07
314.214	3.07
314.668	3.06
315.123	3.06
315.577	3.06
316.032	3.05
316.486	3.06
316.94	3.06
317.394	3.05
317.849	3.03
318.303	3.02
318.757	3.01
319.211	3
319.665	2.99
320.119	2.97
320.572	2.96
321.026	2.95
321.48	2.95
321.934	2.93
322.387	2.93
322.841	2.92
323.295	2.92
323.748	2.92
324.202	2.92
324.655	2.93
325.108	2.94
325.562	2.94
326.015	2.94
326.468	2.94
326.921	2.95
327.374	2.95
327.827	2.96
328.28	2.96
328.733	2.95
329.186	2.95
329.639	2.96
330.092	2.96
330.545	2.96
330.997	2.95
331.45	2.96
331.903	2.96
332.355	2.96
332.808	2.96
333.26	2.96
333.713	2.96
334.165	2.96
334.617	2.96
335.069	2.95
335.522	2.96
335.974	2.97
336.426	2.97
336.878	2.96
337.33	2.96
337.782	2.96
338.234	2.98
338.686	2.98
339.137	2.98
339.589	2.98
340.041	2.99
340.493	2.98
340.944	2.96
341.396	2.96
341.847	2.95
342.299	2.93
342.75	2.93
343.201	2.91
343.653	2.9
344.104	2.88
344.555	2.87
345.006	2.86
345.457	2.85
345.908	2.85
346.359	2.85
346.81	2.85
347.261	2.84
347.712	2.83
348.163	2.83
348.613	2.83
349.064	2.84
349.515	2.84
349.965	2.84
350.416	2.83
350.866	2.83
351.317	2.82
351.767	2.83
352.217	2.83
352.668	2.83
353.118	2.83
353.568	2.82
354.018	2.82
354.468	2.83
354.918	2.84
355.368	2.85
355.818	2.85
356.268	2.86
356.718	2.85
357.168	2.85
357.617	2.86
358.067	2.86
358.517	2.88
358.966	2.89
359.416	2.89
359.865	2.89
360.315	2.89
360.764	2.89
361.213	2.89
361.663	2.89
362.112	2.9
362.561	2.91
363.01	2.91
363.459	2.89
363.908	2.88
364.357	2.88
364.806	2.88
365.255	2.88
365.703	2.89
366.152	2.9
366.601	2.9
367.05	2.9
367.498	2.88
367.947	2.88
368.395	2.9
368.844	2.9
369.292	2.9
369.74	2.9
370.189	2.9
370.637	2.89
371.085	2.88
371.533	2.88
371.981	2.88
372.429	2.88
372.877	2.88
373.325	2.88
373.773	2.87
374.221	2.87
374.669	2.87
375.116	2.87
375.564	2.87
376.012	2.87
376.459	2.87
376.907	2.88
377.354	2.88
377.801	2.89
378.249	2.89
378.696	2.89
379.143	2.9
379.591	2.9
380.038	2.9
380.485	2.9
380.932	2.91
381.379	2.9
381.826	2.91
382.273	2.9
382.72	2.89
383.166	2.89
383.613	2.89
384.06	2.88
384.506	2.88
384.953	2.88
385.4	2.88
385.846	2.88
386.292	2.88
386.739	2.87
387.185	2.88
387.631	2.88
388.078	2.89
388.524	2.9
388.97	2.91
389.416	2.93
389.862	2.94
390.308	2.97
390.754	2.98
391.2	2.99
391.645	3.01
392.091	3.03
392.537	3.05
392.983	3.05
393.428	3.06
393.874	3.07
394.319	3.08
394.765	3.09
395.21	3.08
395.655	3.08
396.101	3.1
396.546	3.11
396.991	3.13
397.436	3.14
397.881	3.17
398.326	3.2
398.771	3.21
399.216	3.23
399.661	3.25
400.106	3.27
400.551	3.29
400.995	3.3
401.44	3.31
401.885	3.31
402.329	3.33
402.774	3.33
403.218	3.35
403.663	3.38
404.107	3.39
404.551	3.4
404.995	3.41
405.44	3.42
405.884	3.43
406.328	3.45
406.772	3.46
407.216	3.48
407.66	3.49
408.104	3.49
408.547	3.5
408.991	3.53
409.435	3.55
409.879	3.56
410.322	3.59
410.766	3.61
411.209	3.65
411.653	3.67
412.096	3.7
412.54	3.72
412.983	3.74
413.426	3.78
413.869	3.81
414.312	3.84
414.756	3.86
415.199	3.88
415.642	3.9
416.085	3.91
416.527	3.9
416.97	3.9
417.413	3.9
417.856	3.89
418.298	3.87
418.741	3.87
419.184	3.87
419.626	3.88
420.069	3.88
420.511	3.88
420.953	3.89
421.396	3.91
421.838	3.92
422.28	3.94
422.722	3.97
423.164	4
423.606	4.02
424.048	4.02
424.49	4.04
424.932	4.05
425.374	4.04
425.816	4.03
426.258	4.01
426.699	4.02
427.141	4.02
427.582	4.03
428.024	4.03
428.465	4.04
428.907	4.05
429.348	4.04
429.789	4.06
430.231	4.09
430.672	4.12
431.113	4.15
431.554	4.17
431.995	4.2
432.436	4.21
432.877	4.22
433.318	4.23
433.759	4.26
434.2	4.29
434.64	4.3
435.081	4.32
435.522	4.34
435.962	4.37
436.403	4.41
436.843	4.41
437.284	4.41
437.724	4.42
438.164	4.42
438.604	4.42
439.045	4.42
439.485	4.43
439.925	4.43
440.365	4.43
440.805	4.43
441.245	4.43
441.685	4.45
442.125	4.49
442.564	4.5
443.004	4.5
443.444	4.51
443.883	4.53
444.323	4.52
444.762	4.53
445.202	4.52
445.641	4.54
446.081	4.54
446.52	4.54
446.959	4.54
447.398	4.56
447.837	4.58
448.276	4.58
448.716	4.58
449.154	4.6
449.593	4.61
450.032	4.62
450.471	4.61
450.91	4.61
451.349	4.61
451.787	4.58
452.226	4.56
452.664	4.56
453.103	4.54
453.541	4.53
453.98	4.53
454.418	4.51
454.856	4.5
455.295	4.48
455.733	4.46
456.171	4.44
456.609	4.43
457.047	4.42
457.485	4.41
457.923	4.4
458.361	4.4
458.798	4.38
459.236	4.38
459.674	4.37
460.111	4.36
460.549	4.37
460.987	4.37
461.424	4.38
461.862	4.38
462.299	4.41
462.736	4.41
463.173	4.42
463.611	4.43
464.048	4.43
464.485	4.45
464.922	4.46
465.359	4.46
465.796	4.49
466.233	4.5
466.67	4.51
467.106	4.51
467.543	4.5
467.98	4.5
468.416	4.48
468.853	4.48
469.29	4.48
469.726	4.47
470.162	4.46
470.599	4.44
471.035	4.42
471.471	4.39
471.907	4.37
472.344	4.37
472.78	4.36
473.216	4.36
473.652	4.35
474.088	4.33
474.523	4.34
474.959	4.33
475.395	4.31
475.831	4.3
476.266	4.3
476.702	4.29
477.138	4.28
477.573	4.28
478.008	4.27
478.444	4.25
478.879	4.25
479.314	4.24
479.75	4.22
480.185	4.21
480.62	4.2
481.055	4.18
481.49	4.16
481.925	4.15
482.36	4.13
482.795	4.11
483.229	4.11
483.664	4.1
484.099	4.09
484.534	4.08
484.968	4.08
485.403	4.07
485.837	4.08
486.271	4.08
486.706	4.08
487.14	4.08
487.574	4.09
488.009	4.09
488.443	4.09
488.877	4.1
489.311	4.1
489.745	4.11
490.179	4.12
490.613	4.12
491.046	4.13
491.48	4.14
491.914	4.15
492.348	4.16
492.781	4.19
493.215	4.21
493.648	4.22
494.082	4.24
494.515	4.25
494.948	4.27
495.382	4.3
495.815	4.32
496.248	4.34
496.681	4.36
497.114	4.38
497.547	4.4
497.98	4.43
498.413	4.46
498.846	4.49
499.279	4.53
499.711	4.56
500.144	4.6
500.577	4.64
501.009	4.67
501.442	4.73
501.874	4.78
502.306	4.84
502.739	4.91
503.171	4.97
503.603	5.03
504.036	5.11
504.468	5.18
504.9	5.24
505.332	5.32
505.764	5.41
506.196	5.49
506.627	5.58
507.059	5.68
507.491	5.76
507.923	5.87
508.354	5.98
508.786	6.1
509.217	6.22
509.649	6.36
510.08	6.49
510.512	6.62
510.943	6.77
511.374	6.91
511.805	7.06
512.237	7.21
512.668	7.36
513.099	7.52
513.53	7.69
513.961	7.87
514.391	8.06
514.822	8.26
515.253	8.44
515.684	8.63
516.114	8.84
516.545	9.05
516.975	9.27
517.406	9.48
517.836	9.69
518.267	9.92
518.697	10.14
519.127	10.36
519.558	10.57
519.988	10.8
520.418	11.03
520.848	11.25
521.278	11.48
521.708	11.87
522.138	12.09
522.567	12.32
522.997	12.51
523.427	12.73
523.857	12.94
524.286	13.13
524.716	13.34
525.145	13.54
525.575	13.73
526.004	13.92
526.433	13.92
526.863	14.1
527.292	14.27
527.721	14.44
528.15	14.59
528.579	14.73
529.008	14.89
529.437	15.02
529.866	15.14
530.295	15.28
530.724	15.41
531.152	15.53
531.581	15.65
532.01	15.76
532.438	15.86
532.867	15.97
533.295	16.08
533.723	16.16
534.152	16.24
534.58	16.33
535.008	16.4
535.436	16.46
535.865	16.52
536.293	16.57
536.721	16.62
537.149	16.67
537.576	16.73
538.004	16.77
538.432	16.82
538.86	16.86
539.287	16.88
539.715	16.93
540.143	16.96
540.57	17
540.998	17.04
541.425	17.08
541.852	17.11
542.28	17.14
542.707	17.17
543.134	17.19
543.561	17.23
543.988	17.29
544.415	17.3
544.842	17.32
545.269	17.35
545.696	17.4
546.123	17.42
546.549	17.46
546.976	17.51
547.403	17.54
547.829	17.56
548.256	17.59
548.682	17.59
549.108	17.63
549.535	17.66
549.961	17.68
550.387	17.69
550.813	17.7
551.24	17.69
551.666	17.66
552.092	17.65
552.518	17.64
552.943	17.62
553.369	17.6
553.795	17.56
554.221	17.51
554.646	17.47
555.072	17.44
555.498	17.38
555.923	17.33
556.349	17.26
556.774	17.2
557.199	17.12
557.625	17.06
558.05	16.98
558.475	16.9
558.9	16.83
559.325	16.75
559.75	16.65
560.175	16.55
560.6	16.44
561.025	16.33
561.449	16.21
561.874	16.08
562.299	15.96
562.723	15.84
563.148	15.71
563.572	15.56
563.997	15.42
564.421	15.26
564.846	15.12
565.27	14.97
565.694	14.84
566.118	14.69
566.542	14.56
566.966	14.4
567.39	14.25
567.814	14.1
568.238	13.95
568.662	13.8
569.086	13.66
569.509	13.52
569.933	13.38
570.357	13.23
570.78	13.1
571.204	12.96
571.627	12.83
572.05	12.7
572.474	12.59
572.897	12.48
573.32	12.36
573.743	12.25
574.166	12.14
574.589	12.04
575.012	11.94
575.435	11.83
575.858	11.73
576.281	11.63
576.704	11.54
577.126	11.43
577.549	11.34
577.972	11.26
578.394	11.18
578.817	11.1
579.239	11.02
579.661	10.95
580.084	10.89
580.506	10.83
580.928	10.76
581.35	10.7
581.772	10.64
582.194	10.59
582.616	10.53
583.038	10.48
583.46	10.41
583.882	10.35
584.303	10.29
584.725	10.23
585.147	10.2
585.568	10.15
585.99	10.11
586.411	10.06
586.833	10
587.254	9.94
587.675	9.89
588.096	9.85
588.518	9.82
588.939	9.78
589.36	9.75
589.781	9.69
590.202	9.66
590.623	9.63
591.043	9.59
591.464	9.56
591.885	9.54
592.305	9.51
592.726	9.49
593.147	9.46
593.567	9.42
593.987	9.38
594.408	9.36
594.828	9.32
595.248	9.3
595.669	9.27
596.089	9.24
596.509	9.2
596.929	9.18
597.349	9.15
597.769	9.12
598.189	9.09
598.608	9.07
599.028	9.05
599.448	9.01
599.867	8.97
600.287	8.94
600.706	8.91
601.126	8.88
601.545	8.84
601.965	8.81
602.384	8.78
602.803	8.74
603.222	8.7
603.641	8.64
604.061	8.61
604.48	8.57
604.898	8.52
605.317	8.46
605.736	8.42
606.155	8.38
606.574	8.32
606.992	8.26
607.411	8.21
607.829	8.13
608.248	8.08
608.666	8.01
609.085	7.96
609.503	7.92
609.921	7.86
610.339	7.8
610.758	7.74
611.176	7.68
611.594	7.63
612.012	7.58
612.43	7.56
612.847	7.5
613.265	7.46
613.683	7.41
614.101	7.36
614.518	7.32
614.936	7.26
615.353	7.22
615.771	7.17
616.188	7.12
616.606	7.09
617.023	7.05
617.44	7.01
617.857	6.97
618.274	6.94
618.691	6.91
619.108	6.88
619.525	6.85
619.942	6.83
620.359	6.82
620.776	6.79
621.192	6.77
621.609	6.75
622.026	6.73
622.442	6.72
622.859	6.69
623.275	6.67
623.691	6.67
624.108	6.66
624.524	6.65
624.94	6.65
625.356	6.65
625.772	6.65
626.188	6.63
626.604	6.63
627.02	6.62
627.436	6.62
627.852	6.62
628.268	6.61
628.683	6.6
629.099	6.59
629.514	6.58
629.93	6.57
630.345	6.56
630.761	6.54
631.176	6.52
631.591	6.51
632.007	6.5
632.422	6.47
632.837	6.45
633.252	6.42
633.667	6.38
634.082	6.34
634.497	6.32
634.911	6.28
635.326	6.25
635.741	6.22
636.155	6.18
636.57	6.13
636.984	6.09
637.399	6.04
637.813	6
638.228	5.95
638.642	5.9
639.056	5.84
639.47	5.79
639.884	5.73
640.298	5.67
640.712	5.62
641.126	5.56
641.54	5.5
641.954	5.43
642.368	5.39
642.781	5.35
643.195	5.29
643.609	5.25
644.022	5.19
644.436	5.15
644.849	5.1
645.262	5.06
645.676	5.02
646.089	4.99
646.502	4.96
646.915	4.93
647.328	4.9
647.741	4.87
648.154	4.83
648.567	4.81
648.98	4.78
649.393	4.77
649.805	4.75
650.218	4.72
650.631	4.7
651.043	4.69
651.456	4.67
651.868	4.64
652.28	4.63
652.693	4.63
653.105	4.61
653.517	4.59
653.929	4.58
654.341	4.56
654.753	4.53
655.165	4.52
655.577	4.5
655.989	4.48
656.401	4.46
656.813	4.43
657.224	4.4
657.636	4.36
658.047	4.34
658.459	4.31
658.87	4.28
659.282	4.26
659.693	4.23
660.104	4.2
660.515	4.17
660.926	4.14
661.338	4.11
661.749	4.09
662.159	4.08
662.57	4.07
662.981	4.06
663.392	4.04
663.803	4.02
664.213	4.01
664.624	4
665.035	3.99
665.445	3.99
665.855	4
666.266	4
666.676	4
667.086	3.99
667.497	3.99
667.907	4
668.317	4
668.727	4
669.137	4
669.547	4.01
669.956	4.01
670.366	4.02
670.776	4.02
671.186	4.03
671.595	4.04
672.005	4.04
672.414	4.06
672.824	4.08
673.233	4.1
673.642	4.11
674.052	4.13
674.461	4.14
674.87	4.15
675.279	4.17
675.688	4.19
676.097	4.21
676.506	4.23
676.915	4.25
677.323	4.26
677.732	4.27
678.141	4.3
678.549	4.33
678.958	4.35
679.366	4.38
679.775	4.41
680.183	4.44
680.592	4.49
681	4.52
681.408	4.56
681.816	4.6
682.224	4.64
682.632	4.68
683.04	4.72
683.448	4.78
683.856	4.82
684.264	4.88
684.671	4.94
685.079	5
685.487	5.09
685.894	5.19
686.302	5.29
686.709	5.4
687.116	5.54
687.524	5.7
687.931	5.86
688.338	6.04
688.745	6.24
689.152	6.45
689.559	6.7
689.966	6.96
690.373	7.24
690.78	7.55
691.187	7.87
691.593	8.21
692	8.57
692.407	8.94
692.813	9.35
693.22	9.76
693.626	10.21
694.032	10.66
694.439	11.14
694.845	11.62
695.251	12.12
695.657	12.63
696.063	13.15
696.469	13.69
696.875	14.26
697.281	14.82
697.687	15.4
698.093	15.98
698.498	16.54
698.904	17.12
699.31	17.7
699.715	18.3
700.12	18.89
700.526	19.5
700.931	20.1
701.337	20.7
701.742	21.27
702.147	21.85
702.552	22.45
702.957	23.04
703.362	23.63
703.767	24.22
704.172	24.79
704.577	25.37
704.981	25.94
705.386	26.5
705.791	27.07
706.195	27.67
706.6	28.27
707.004	28.82
707.408	29.39
707.813	29.97
708.217	30.54
708.621	31.11
709.025	31.66
709.43	32.2
709.834	32.75
710.237	33.31
710.641	33.83
711.045	34.36
711.449	34.89
711.853	35.44
712.256	35.96
712.66	36.47
713.064	36.97
713.467	37.51
713.87	38.02
714.274	38.52
714.677	38.99
715.08	39.46
715.484	39.96
715.887	40.45
716.29	40.86
716.693	41.32
717.096	41.79
717.499	42.29
717.901	42.71
718.304	43.17
718.707	43.61
719.109	44.06
719.512	44.5
719.915	44.89
720.317	45.27
720.719	45.67
721.122	46.06
721.524	46.44
721.926	46.8
722.328	47.19
722.731	47.53
723.133	47.9
723.535	48.24
723.937	48.6
724.338	48.94
724.74	49.3
725.142	49.77
725.544	50.08
725.945	50.42
726.347	50.69
726.748	50.96
727.15	51.22
727.551	51.5
727.952	51.75
728.354	51.98
728.755	52.23
729.156	52.45
729.557	52.56
729.958	52.77
730.359	52.96
730.76	53.17
731.161	53.37
731.562	53.62
731.962	53.78
732.363	53.99
732.763	54.18
733.164	54.34
733.564	54.53
733.965	54.68
734.365	54.88
734.766	55.03
735.166	55.18
735.566	55.35
735.966	55.49
736.366	55.61
736.766	55.74
737.166	55.89
737.566	56.01
737.966	56.12
738.365	56.24
738.765	56.36
739.165	56.49
739.564	56.59
739.964	56.68
740.363	56.74
740.763	56.85
741.162	56.95
741.561	57
741.96	57.07
742.36	57.15
742.759	57.23
743.158	57.26
743.557	57.3
743.955	57.35
744.354	57.41
744.753	57.46
745.152	57.54
745.55	57.58
745.949	57.68
746.348	57.75
746.746	57.79
747.144	57.84
747.543	57.88
747.941	57.94
748.339	57.98
748.737	58.01
749.136	58.07
749.534	58.08
749.932	58.11
750.33	58.11
750.727	58.12
751.125	58.16
751.523	58.16
751.921	58.21
752.318	58.21
752.716	58.23
753.113	58.23
753.511	58.25
753.908	58.29
754.305	58.31
754.703	58.31
755.1	58.31
755.497	58.32
755.894	58.34
756.291	58.35
756.688	58.36
757.085	58.38
757.482	58.43
757.878	58.44
758.275	58.42
758.672	58.44
759.068	58.5
759.465	58.51
759.861	58.51
760.258	58.53
760.654	58.54
761.05	58.56
761.447	58.58
761.843	58.55
762.239	58.57
762.635	58.56
763.031	58.57
763.427	58.53
763.822	58.54
764.218	58.57
764.614	58.56
765.01	58.56
765.405	58.55
765.801	58.53
766.196	58.56
766.592	58.54
766.987	58.56
767.382	58.57
767.778	58.59
768.173	58.62
768.568	58.6
768.963	58.63
769.358	58.63
769.753	58.64
770.148	58.68
770.542	58.68
770.937	58.69
771.332	58.69
771.726	58.69
772.121	58.7
772.515	58.68
772.91	58.67
773.304	58.65
773.699	58.65
774.093	58.62
774.487	58.61
774.881	58.63
775.275	58.62
775.669	58.61
776.063	58.62
776.457	58.59
776.851	58.57
777.245	58.55
777.638	58.54
778.032	58.54
778.425	58.57
778.819	58.56
779.212	58.57
779.606	58.61
779.999	58.62
780.392	58.63
780.786	58.64
781.179	58.67
781.572	58.72
781.965	58.74
782.358	58.76
782.751	58.77
783.143	58.79
783.536	58.78
783.929	58.77
784.322	58.79
784.714	58.79
785.107	58.81
785.499	58.82
785.891	58.8
786.284	58.84
786.676	58.85
787.068	58.83
787.46	58.83
787.852	58.86
788.245	58.85
788.636	58.82
789.028	58.82
789.42	58.81
789.812	58.83
790.204	58.87
790.595	58.84
790.987	58.83
791.378	58.86
791.77	58.88
792.161	58.86
792.553	58.89
792.944	58.89
793.335	58.91
793.726	58.95
794.117	58.92
794.508	58.89
794.899	58.9
795.29	58.9
795.681	58.88
796.072	58.87
796.463	58.93
796.853	58.9
797.244	58.94
797.634	58.92
798.025	58.92
798.415	58.92
798.806	58.92
799.196	58.92
799.586	58.94
799.976	58.97
800.366	58.97
800.756	58.93
801.146	58.97
801.536	59
801.926	58.97
802.316	58.98
802.706	59.05
803.095	59.07
803.485	59.08
803.874	59.08
804.264	59.09
804.653	59.1
805.043	59.11
805.432	59.1
805.821	59.09
806.21	59.13
806.599	59.13
806.988	59.11
807.377	59.12
807.766	59.11
808.155	59.1
808.544	59.1
808.933	59.1
809.321	59.13
809.71	59.1
810.098	59.1
810.487	59.08
810.875	59.09
811.264	59.09
811.652	59.12
812.04	59.12
812.428	59.17
812.816	59.17
813.204	59.19
813.592	59.13
813.98	59.16
814.368	59.16
814.756	59.17
815.144	59.16
815.531	59.16
815.919	59.14
816.306	59.16
816.694	59.14
817.081	59.16
817.469	59.15
817.856	59.15
818.243	59.14
818.63	59.14
819.017	59.13
819.404	59.15
819.791	59.16
820.178	59.15
820.565	59.13
820.952	59.11
821.339	59.07
821.725	59.08
822.112	59.11
822.498	59.13
822.885	59.15
823.271	59.17
823.657	59.12
824.044	59.11
824.43	59.15
824.816	59.15
825.202	59.15
825.588	59.17
825.974	59.16
826.36	59.17
826.746	59.14
827.132	59.13
827.517	59.13
827.903	59.16
828.289	59.16
828.674	59.13
829.06	59.15
829.445	59.12
829.83	59.11
830.216	59.09
830.601	59.05
830.986	59.05
831.371	59.04
831.756	59.05
832.141	59.03
832.526	59.02
832.911	58.99
833.295	58.96
833.68	58.97
834.065	58.97
834.449	58.98
834.834	58.96
835.218	58.95
835.603	58.92
835.987	58.88
836.371	58.87
836.755	58.85
837.139	58.84
837.524	58.83
837.908	58.84
838.291	58.82
838.675	58.81
839.059	58.8
839.443	58.8
839.827	58.81
840.21	58.78
840.594	58.76
840.977	58.75
841.361	58.75
841.744	58.71
842.127	58.66
842.511	58.64
842.894	58.62
843.277	58.6
843.66	58.57
844.043	58.57
844.426	58.57
844.809	58.58
845.191	58.62
845.574	58.61
845.957	58.61
846.339	58.62
846.722	58.63
847.104	58.66
847.487	58.65
847.869	58.65
848.252	58.64
848.634	58.63
849.016	58.64
849.398	58.62
849.78	58.63
850.162	58.65
850.544	58.65
850.926	58.62
851.307	58.61
851.689	58.64
852.071	58.65
852.452	58.64
852.834	58.64
853.215	58.63
853.597	58.63
853.978	58.63
854.359	58.65
854.741	58.63
855.122	58.65
855.503	58.65
855.884	58.61
856.265	58.61
856.646	58.62
857.026	58.64
857.407	58.64
857.788	58.61
858.169	58.63
858.549	58.61
858.93	58.62
859.31	58.61
859.69	58.64
860.071	58.68
860.451	58.7
860.831	58.69
861.211	58.65
861.591	58.64
861.971	58.64
862.351	58.65
862.731	58.68
863.111	58.67
863.491	58.67
863.87	58.64
864.25	58.58
864.629	58.57
865.009	58.58
865.388	58.61
865.768	58.63
866.147	58.63
866.526	58.62
866.905	58.62
867.284	58.62
867.663	58.63
868.042	58.64
868.421	58.69
868.8	58.69
869.179	58.7
869.558	58.71
869.936	58.69
870.315	58.7
870.693	58.7
871.072	58.7
871.45	58.71
871.828	58.71
872.207	58.74
872.585	58.7
872.963	58.69
873.341	58.68
873.719	58.68
874.097	58.66
874.475	58.68
874.853	58.67
875.23	58.68
875.608	58.7
875.986	58.72
876.363	58.7
876.741	58.71
877.118	58.72
877.495	58.72
877.873	58.76
878.25	58.82
878.627	58.79
879.004	58.82
879.381	58.82
879.758	58.79
880.135	58.78
880.512	58.78
880.889	58.79
881.265	58.79
881.642	58.77
882.019	58.72
882.395	58.67
882.772	58.67
883.148	58.62
883.524	58.6
883.901	58.58
884.277	58.56
884.653	58.52
885.029	58.49
885.405	58.46
885.781	58.47
886.157	58.5
886.532	58.49
886.908	58.5
887.284	58.49
887.659	58.47
888.035	58.44
888.411	58.44
888.786	58.46
889.161	58.47
889.537	58.48
889.912	58.47
890.287	58.43
890.662	58.43
891.037	58.42
891.412	58.43
891.787	58.39
892.162	58.41
892.536	58.38
892.911	58.35
893.286	58.34
893.66	58.33
894.035	58.31
894.409	58.3
894.784	58.31
895.158	58.26
895.532	58.26
895.906	58.29
896.281	58.28
896.655	58.29
897.029	58.3
897.402	58.28
897.776	58.27
898.15	58.27
898.524	58.29
898.898	58.3
899.271	58.32
899.645	58.35
900.018	58.35
900.392	58.35
900.765	58.38
901.138	58.36
901.511	58.38
901.884	58.43
902.258	58.44
902.631	58.46
903.003	58.46
903.376	58.46
903.749	58.43
904.122	58.44
904.495	58.46
904.867	58.46
905.24	58.51
905.612	58.56
905.985	58.52
906.357	58.51
906.729	58.53
907.102	58.51
907.474	58.53
907.846	58.57
908.218	58.58
908.59	58.6
908.962	58.61
909.334	58.61
909.705	58.58
910.077	58.64
910.449	58.68
910.82	58.68
911.192	58.7
911.563	58.7
911.935	58.67
912.306	58.71
912.677	58.71
913.048	58.74
913.419	58.72
913.79	58.74
914.161	58.71
914.532	58.66
914.903	58.66
915.274	58.66
915.645	58.7
916.015	58.73
916.386	58.69
916.756	58.68
917.127	58.66
917.497	58.69
917.868	58.66
918.238	58.67
918.608	58.72
918.978	58.73
919.348	58.74
919.718	58.72
920.088	58.73
920.458	58.76
920.828	58.75
921.198	58.71
921.567	58.73
921.937	58.77
922.306	58.77
922.676	58.75
923.045	58.76
923.415	58.74
923.784	58.77
924.153	58.79
924.522	58.8
924.891	58.8
925.26	58.83
925.629	58.81
925.998	58.8
926.367	58.8
926.736	58.81
927.104	58.82
927.473	58.83
927.842	58.77
928.21	58.75
928.578	58.7
928.947	58.72
929.315	58.71
929.683	58.74
930.051	58.74
930.42	58.76
930.788	58.7
931.156	58.64
931.523	58.62
931.891	58.62
932.259	58.59
932.627	58.62
932.994	58.63
933.362	58.62
933.729	58.53
934.097	58.5
934.464	58.47
934.831	58.46
935.199	58.48
935.566	58.49
935.933	58.47
936.3	58.44
936.667	58.41
937.034	58.41
937.401	58.43
937.767	58.47
938.134	58.47
938.501	58.45
938.867	58.51
939.234	58.46
939.6	58.43
939.967	58.41
940.333	58.36
940.699	58.33
941.065	58.18
941.431	58.2
941.798	58.13
942.163	58.07
942.529	58.03
942.895	58
943.261	57.98
943.627	57.97
943.992	57.96
944.358	58.03
944.723	58.03
945.089	58.02
945.454	58.01
945.82	58.02
946.185	58.06
946.55	57.98
946.915	57.88
947.28	57.87
947.645	57.89
948.01	57.86
948.375	57.82
948.74	57.81
949.104	57.89
949.469	57.85
949.834	57.83
950.198	57.79
950.562	57.79
950.927	57.77
951.291	57.71
951.655	57.62
952.02	57.66
952.384	57.59
952.748	57.61
953.112	57.53
953.476	57.52
953.839	57.46
954.203	57.43
954.567	57.45
954.931	57.43
955.294	57.44
955.658	57.55
956.021	57.52
956.385	57.52
956.748	57.47
957.111	57.44
957.474	57.39
957.837	57.42
958.2	57.46
958.563	57.45
958.926	57.52
959.289	57.56
959.652	57.5
960.015	57.53
960.377	57.58
960.74	57.61
961.102	57.64
961.465	57.76
961.827	57.81
962.189	57.8
962.552	57.8
962.914	57.77
963.276	57.76
963.638	57.75
964	57.73
964.362	57.74
964.724	57.74
965.085	57.73
965.447	57.66
965.809	57.65
966.17	57.67
966.532	57.68
966.893	57.7
967.255	57.71
967.616	57.75
967.977	57.74
968.338	57.75
968.699	57.78
969.061	57.83
969.421	57.9
969.782	57.91
970.143	57.92
970.504	57.96
970.865	58
971.225	57.97
971.586	57.97
971.946	58.02
972.307	57.99
972.667	57.99
973.027	57.99
973.388	57.93
973.748	57.94
974.108	57.98
974.468	57.96
974.828	57.92
975.188	57.95
975.548	57.98
975.907	58.04
976.267	58.01
976.627	58.01
976.986	57.94
977.346	57.95
977.705	57.91
978.064	57.93
978.424	57.93
978.783	57.95
979.142	57.92
979.501	57.96
979.86	57.93
980.219	58.01
980.578	58.05
980.937	58.09
981.296	58.07
981.654	58.08
982.013	58.06
982.371	58.02
982.73	58.01
983.088	58.02
983.447	57.94
983.805	57.97
984.163	57.91
984.521	57.9
984.879	57.83
985.237	57.84
985.595	57.98
985.953	57.93
986.311	57.92
986.669	57.91
987.026	57.93
987.384	57.93
987.741	57.84
988.099	57.94
988.456	57.91
988.814	58.02
989.171	58.03
989.528	57.95
989.885	57.96
990.242	58.06
990.599	58.15
990.956	58.21
991.313	58.27
991.67	58.36
992.027	58.49
992.383	58.56
992.74	58.58
993.096	58.59
993.453	58.57
993.809	58.64
994.165	58.71
994.522	58.78
994.878	58.87
995.234	58.88
995.59	58.81
995.946	58.78
996.302	58.9
996.658	58.88
997.013	58.88
997.369	58.93
997.725	58.98
998.08	58.96
998.436	58.84
998.791	58.76
999.147	58.72
999.502	58.73
999.857	58.61
1000.212	58.39
1000.567	58.5
1000.922	58.48
1001.277	58.53
1001.632	58.41
1001.987	58.45
1002.342	58.39
1002.696	58.36
1003.051	58.58
1003.406	58.8
1003.76	58.77
1004.114	58.82
1004.469	58.82
1004.823	59.17
1005.177	59.13
1005.531	59.3
1005.885	59.29
1006.239	59.49
1006.593	59.68
1006.947	59.49
1007.301	59.42
1007.655	59.49
1008.008	59.57
1008.362	59.59
1008.715	59.42
1009.069	59.51
1009.422	59.57
1009.776	59.67
1010.129	59.6
1010.482	59.51
1010.835	59.62
1011.188	59.55
1011.541	59.5
1011.894	59.51
1012.247	59.53
1012.6	59.55
1012.952	59.49
1013.305	59.51
1013.657	59.5
1014.01	59.55
1014.362	59.65
1014.715	59.75
1015.067	59.95
1015.419	60.1
1015.771	60.11
1016.123	60.11
1016.475	60.19
1016.827	60.29
1017.179	60.19
1017.531	60.17
1017.883	59.97
1018.234	59.95
1018.586	59.94
1018.938	60.05
1019.289	59.91
1019.64	59.92
1019.992	59.67
1020.343	59.55
1020.694	59.56
1021.045	59.58
1021.396	59.67
1021.747	60.03
1022.098	60.02
1022.449	59.8
1022.8	59.74
1023.151	59.77
1023.501	59.88
1023.852	60.36
1024.202	60.53
1024.553	60.29
1024.903	60.5
1025.253	60.44
1025.604	60.63
1025.954	60.54
1026.304	60.66
1026.654	60.69
1027.004	60.65
1027.354	60.61
1027.703	60.27
1028.053	60.17
1028.403	60.46
1028.753	60.08
1029.102	60.17
1029.452	60.06
1029.801	60.32
1030.15	60.31
1030.499	60.08
897.758	1710.66
901.051	1716.98
904.343	1716.26
907.636	1747.45
910.928	1702.46
914.22	1697.64
917.511	1676.16
920.803	1603.83
924.094	1596.45
927.384	1558.49
930.675	1492.08
933.965	1483.2
937.255	1394.6
940.544	1336.19
943.834	1270.46
947.123	1256.75
950.411	1186.01
953.7	1158.68
956.988	1098.5
960.276	1050.18
963.563	1034.22
966.851	996.78
970.138	988.83
973.424	958.36
976.711	962.43
979.997	915.06
983.283	912.89
986.568	891.99
989.853	863.38
993.138	848.5
996.423	816.81
999.708	794.6
1002.992	786.68
1006.275	750.22
1009.559	742.66
1012.842	717.6
1016.125	696.96
1019.408	683.68
1022.69	674.57
1025.972	663.22
1029.254	646.13
1032.536	635.82
1035.817	621.87
1039.098	614.16
1042.379	600.29
1045.659	595.03
1048.939	578.68
1052.219	567.75
1055.498	558.29
1058.778	545.98
1062.057	532.38
1065.335	526.49
1068.614	519.73
1071.892	514.74
1075.17	497.5
1078.447	488.56
1081.724	485.19
1085.001	482.04
1088.278	473.16
1091.554	463.5
1094.83	463.24
1098.106	461.24
1101.382	456.18
1104.657	452.95
1107.932	444.77
1111.206	447.97
1114.481	437.47
1117.755	432.35
1121.029	429.24
1124.302	428.01
1127.575	420.49
1130.848	415.18
1134.121	409.51
1137.393	408.82
1140.665	400.55
1143.937	398.82
1147.208	393.72
1150.48	393.71
1153.75	387.43
1157.021	381.59
1160.291	381.98
1163.561	377.54
1166.831	377.45
1170.101	375.88
1173.37	372.9
1176.639	373.6
1179.907	369.54
1183.176	367.2
1186.444	366.31
1189.711	366.76
1192.979	365.15
1196.246	362.2
1199.513	363.57
1202.78	361.56
1206.046	361.08
1209.312	358.15
1212.578	358.88
1215.843	362.58
1219.108	359.5
1222.373	366.9
1225.638	370.23
1228.902	376.82
1232.166	376.17
1235.43	379.18
1238.693	384.79
1241.956	386.34
1245.219	393.9
1248.482	392.72
1251.744	392.5
1255.006	393.39
1258.268	383.94
1261.529	379.49
1264.79	375.73
1268.051	375.12
1271.312	370.6
1274.572	364.5
1277.832	361.32
1281.092	355.18
1284.351	352.99
1287.61	352.34
1290.869	347.52
1294.128	345.04
1297.386	345.57
1300.644	341.66
1303.902	342.41
1307.159	340.77
1310.416	341.92
1313.673	341.44
1316.93	344.18
1320.186	344.52
1323.442	345.71
1326.697	352.47
1329.953	352.8
1333.208	354.06
1336.463	358.71
1339.717	358.94
1342.972	363.27
1346.226	366.3
1349.479	366.38
1352.733	369.27
1355.986	370.24
1359.238	369.79
1362.491	372.5
1365.743	376.53
1368.995	376.09
1372.247	373.99
1375.498	374.57
1378.749	377.71
1382	373.24
1385.251	375.54
1388.501	372.28
1391.751	375.22
1395	373.12
1398.25	369.64
1401.499	367.99
1404.748	367.62
1407.996	365.05
1411.244	363.1
1414.492	361.65
1417.74	357.88
1420.987	352.08
1424.234	352.72
1427.481	345.98
1430.728	346.75
1433.974	342.67
1437.22	338.84
1440.465	338.07
1443.711	335.94
1446.956	334.48
1450.201	328.48
1453.445	325.91
1456.689	325.03
1459.933	319.08
1463.177	317.73
1466.42	312.04
1469.663	308.99
1472.906	307.66
1476.148	299.72
1479.391	295.37
1482.633	292.25
1485.874	288.82
1489.115	287.08
1492.356	283.23
1495.597	282.36
1498.838	277.98
1502.078	276.11
1505.318	274.34
1508.557	274.57
1511.797	274.39
1515.036	272.66
1518.274	271.87
1521.513	268.76
1524.751	268.65
1527.989	267.84
1531.227	266.56
1534.464	267.68
1537.701	266
1540.938	265.38
1544.174	261.78
1547.41	261.08
1550.646	260.36
1553.882	260.49
1557.117	257.76
1560.352	255.6
1563.587	254.96
1566.821	253.29
1570.055	250.09
1573.289	248.57
1576.523	248.06
1579.756	246.3
1582.989	245.1
1586.222	244.74
1589.454	242.61
1592.686	244.28
1595.918	243.61
1599.15	242.69
1602.381	242.87
1605.612	242.85
1608.843	243.86
1612.073	243.52
1615.303	244.62
1618.533	244.85
1621.762	243.79
1624.992	244.54
1628.221	244.5
1631.449	244.04
1634.678	243.88
1637.906	244.98
1641.134	244.89
1644.361	244.01
1647.588	244.86
1650.815	243.54
1654.042	242.56
1657.269	244.65
1660.495	244.55
1663.72	242.7
1666.946	243.77
1670.171	243.92
1673.396	243.31
1676.621	243.48
1679.845	244.03
1683.069	243.61
1686.293	245.73
1689.517	247.09
1692.74	246.37
1695.963	247.64
1699.185	251.07
1702.408	251.22
1705.63	252
1708.852	253.28
1712.073	253.65
1715.294	253.93
1718.515	255.51
1721.736	255.13
1724.956	255.44
1728.176	255.62
1731.396	257.57
1734.616	256.27
1737.835	257.18
1741.054	255.33
1744.272	255.93
1747.491	258.56
1750.709	259.24
1753.927	259.05
1757.144	257.73
1760.361	259.42
1763.578	259.81
1766.795	258.96
1770.011	260.77
1773.227	260.89
1776.443	264.6
1779.658	266.01
1782.874	264.44
1786.089	265.8
1789.303	266.69
1792.518	270.2
1795.732	269.37
1798.945	272.36
1802.159	272.48
1805.372	273.53
1808.585	278.14
1811.797	278.72
1815.01	278.62
1818.222	281.62
1821.434	282.6
1824.645	284.28
1827.856	289.03
1831.067	292.23
1834.278	290.16
1837.488	292.46
1840.698	294.91
1843.908	291.83
1847.117	293.75
1850.326	295.82
1853.535	294
1856.744	299.67
1859.952	298.37
1863.16	296.83
1866.368	294.66
1869.575	299.83
1872.782	295.11
1875.989	293.15
1879.196	292.45
1882.402	290.93
1885.608	291.72
1888.814	293.55
1892.019	291.92
1895.224	291.74
1898.429	290
1901.634	292.12
1904.838	290.83
1908.042	294.5
1911.246	296.22
1914.449	297.82
1917.652	298.18
1920.855	298.4
1924.058	297.59
1927.26	296.27
1930.462	298.12
1933.664	301.34
1936.865	298.93
1940.066	300.18
1943.267	297.89
1946.467	297.81
1949.668	299.8
1952.868	302.8
1956.067	302.43
1959.267	303.05
1962.466	303.96
1965.665	301.84
1968.863	303.19
1972.061	306.91
1975.259	309.04
1978.457	311.62
1981.654	312.76
1984.852	313.9
1988.048	312.96
1991.245	315.86
1994.441	320.38
1997.637	322.27
2000.833	328.34
2004.028	332.36
2007.223	334.19
2010.418	338.14
2013.613	343.6
2016.807	348.63
2020.001	351.52
2023.194	356.21
2026.388	364.26
2029.581	371.24
2032.774	375.55
2035.966	382.89
2039.158	383.97
2042.35	391.24
2045.542	392.47
2048.733	399.36
2051.924	404.69
2055.115	410.72
2058.306	411.99
2061.496	416.63
2064.686	417.3
2067.875	424.04
2071.065	424.95
2074.254	422.23
2077.442	426.33
2080.631	429.36
2083.819	432.96
2087.007	432.78
2090.195	437.42
2093.382	441.41
2096.569	437.67
2099.756	444.67
2102.942	444.66
2106.128	450.52
2109.314	461.55
2112.5	460.67
2115.685	469.94
2118.87	470.13
2122.055	481.06
2125.239	484.65
2128.424	491.74
2131.608	495.18
2134.791	500.49
2137.974	504.4
2141.157	505.31
2144.34	505.85
2147.523	514.19
2150.705	510.49
2153.887	514.59
2157.068	514.87
2160.25	510.15
2163.431	511.4
2166.611	517.26
2169.792	528.41
2172.972	533.52
2176.152	535.8
2179.331	543.8
2182.511	552.72
2185.69	560.2
2188.868	573.28
2192.047	574.48
2195.225	591.13
2198.403	607.19
2201.58	617.78
2204.758	629.71
2207.935	642.1
2211.111	656.35
2214.288	662.45
2217.464	664.85
2220.64	672.73
2223.815	682
2226.991	709.88
2230.166	712.73
2233.34	723.35
2236.515	736.84
2239.689	735.5
2242.863	741.52
2246.036	762.62
2249.209	753.48
2252.382	767.82
2255.555	791.26
2258.727	792.7
2261.9	797.41
2265.071	804.27
2268.243	817.78
2271.414	826.35
2274.585	846.73
2277.756	851.96
2280.926	858.83
2284.096	881.56
2287.266	899.03
2290.436	906.96
2293.605	929.29
2296.774	959.69
2299.942	988.13
2303.111	994.11
2306.279	1017.69
2309.447	1030.51
2312.614	1058.8
2315.781	1085.93
2318.948	1141.64
2322.115	1121.99
2325.281	1181.63
2328.447	1158.64
2331.613	1200.18
2334.779	1188.55
2337.944	1239.87
2341.109	1253.45
2344.274	1286.33
2347.438	1335.49
2350.602	1336.3
2353.766	1373.56
2356.929	1396.02
2360.092	1385.21
2363.255	1488.68
2366.418	1484.9
2369.58	1517.34
2372.742	1610.26
2375.904	1649.07
2379.066	1640.35
2382.227	1605.6
2385.388	1740.83
2388.548	1738.9
2391.709	1758.86
2394.869	1965.1
2398.029	1871.15
2401.188	1930.31
2404.347	1918.46
2407.506	1887.46
2410.665	1941.32
2413.823	2062.69
2416.981	2184.32
2420.139	2109.96
2423.296	2088.11
2426.453	2188.15
2429.61	2102.44
2432.767	2203.52
2435.923	2182.09
2439.079	2376.1
2442.235	2409.99
2445.391	2385.64
2448.546	2368.23
2451.701	2302.25
2454.855	2302.55
2458.009	2444.92
2461.163	2533.51
2464.317	2626.43
2467.471	2697.23
2470.624	2686.83
2473.777	2626.24
2476.929	2555.32
2480.082	2482.94
2483.234	2448.64
2486.385	2568
2489.537	2581.54
2492.688	2681.84
2495.839	2604.52
2498.989	2549.32
2502.14	2561.29
2505.29	2598.77
2508.439	2627.71
2511.589	2624.59
2514.738	2866.04
2517.887	2809.05
2521.035	2971.42
2524.183	2987.38
2527.331	3009.69
2530.479	3004.84
2533.627	3024.24
