Data from C_3_DEC_OH_4N_Splice17_14-21-10-104.txt Node
Date: Sat Mar 07 14:21:10 EST 2020
User: sa697716
Spectrometer: NQ5500242
Trigger mode: 0
Integration Time (sec): 1.450000E-1
Scans to average: 20
Nonlinearity correction enabled: false
Boxcar width: 5
Storing dark spectrum: false
XAxis mode: Wavelengths
Number of Pixels in Spectrum: 512
>>>>>Begin Spectral Data<<<<<
187.83	171.9
188.298	181.97
188.766	167.06
189.233	148.47
189.701	142.59
190.169	179.24
190.636	229.66
191.104	333.92
191.571	201.12
192.039	-29.56
192.506	-64.63
192.974	109.51
193.441	152.25
193.908	50.02
194.375	72.9
194.842	37.44
195.31	112.93
195.777	318.05
196.244	85.41
196.711	74.46
197.177	73.77
197.644	75.63
198.111	75.99
198.578	76.52
199.045	77.94
199.511	77.72
199.978	77.64
200.445	78.03
200.911	77.83
201.378	77.96
201.844	78.2
202.31	78.39
202.777	78.07
203.243	77.87
203.709	77.33
204.176	76.4
204.642	76.04
205.108	75.44
205.574	74.63
206.04	73.94
206.506	73.07
206.972	72.6
207.438	71.64
207.903	70.46
208.369	69
208.835	67.68
209.301	65.86
209.766	63.79
210.232	61.98
210.697	60.1
211.163	58.54
211.628	57.13
212.094	55.19
212.559	53.69
213.024	52.22
213.49	50.92
213.955	49.49
214.42	48.35
214.885	46.76
215.35	44.86
215.815	42.16
216.28	38.93
216.745	35.27
217.21	31.76
217.675	28.53
218.14	25.63
218.604	23.12
219.069	21
219.534	19.17
219.998	17.76
220.463	16.53
220.927	15.48
221.392	14.66
221.856	13.99
222.32	13.42
222.785	12.92
223.249	12.49
223.713	12.1
224.177	11.77
224.642	11.46
225.106	11.12
225.57	10.85
226.034	10.62
226.497	10.39
226.961	10.17
227.425	9.97
227.889	9.76
228.353	9.58
228.816	9.39
229.28	9.19
229.744	9.04
230.207	8.89
230.671	8.75
231.134	8.61
231.597	8.48
232.061	8.34
232.524	8.22
232.987	8.1
233.45	7.99
233.914	7.89
234.377	7.79
234.84	7.68
235.303	7.62
235.766	7.53
236.229	7.44
236.691	7.36
237.154	7.29
237.617	7.21
238.08	7.14
238.542	7.07
239.005	7.01
239.468	6.95
239.93	6.89
240.393	6.82
240.855	6.74
241.317	6.68
241.78	6.61
242.242	6.54
242.704	6.49
243.166	6.44
243.629	6.38
244.091	6.31
244.553	6.24
245.015	6.18
245.477	6.13
245.939	6.08
246.4	6.03
246.862	5.98
247.324	5.92
247.786	5.87
248.247	5.82
248.709	5.77
249.17	5.72
249.632	5.69
250.093	5.65
250.555	5.6
251.016	5.57
251.477	5.52
251.939	5.49
252.4	5.47
252.861	5.43
253.322	5.4
253.783	5.37
254.244	5.35
254.705	5.32
255.166	5.3
255.627	5.27
256.088	5.25
256.549	5.22
257.009	5.18
257.47	5.14
257.931	5.1
258.391	5.06
258.852	5.03
259.312	4.99
259.773	4.96
260.233	4.93
260.694	4.89
261.154	4.85
261.614	4.82
262.074	4.79
262.534	4.76
262.994	4.73
263.455	4.71
263.915	4.68
264.374	4.65
264.834	4.63
265.294	4.6
265.754	4.59
266.214	4.58
266.673	4.56
267.133	4.55
267.593	4.53
268.052	4.52
268.512	4.51
268.971	4.5
269.431	4.49
269.89	4.48
270.349	4.47
270.809	4.46
271.268	4.45
271.727	4.44
272.186	4.43
272.645	4.43
273.104	4.42
273.563	4.4
274.022	4.4
274.481	4.39
274.94	4.39
275.399	4.38
275.857	4.37
276.316	4.36
276.775	4.35
277.233	4.35
277.692	4.34
278.15	4.33
278.609	4.33
279.067	4.33
279.525	4.32
279.984	4.32
280.442	4.31
280.9	4.31
281.358	4.31
281.816	4.31
282.274	4.31
282.732	4.31
283.19	4.3
283.648	4.29
284.106	4.28
284.564	4.27
285.021	4.27
285.479	4.27
285.937	4.27
286.394	4.27
286.852	4.26
287.309	4.25
287.767	4.23
288.224	4.22
288.682	4.21
289.139	4.21
289.596	4.19
290.053	4.17
290.511	4.15
290.968	4.13
291.425	4.1
291.882	4.09
292.339	4.07
292.796	4.06
293.252	4.05
293.709	4.03
294.166	4.02
294.623	4.01
295.079	4
295.536	3.98
295.992	3.97
296.449	3.96
296.905	3.96
297.362	3.95
297.818	3.93
298.274	3.93
298.731	3.92
299.187	3.91
299.643	3.9
300.099	3.9
300.555	3.89
301.011	3.89
301.467	3.88
301.923	3.87
302.379	3.86
302.835	3.86
303.291	3.85
303.746	3.85
304.202	3.85
304.658	3.85
305.113	3.85
305.569	3.85
306.024	3.85
306.479	3.85
306.935	3.85
307.39	3.85
307.845	3.86
308.301	3.86
308.756	3.86
309.211	3.86
309.666	3.87
310.121	3.87
310.576	3.87
311.031	3.87
311.486	3.88
311.94	3.88
312.395	3.88
312.85	3.88
313.305	3.88
313.759	3.89
314.214	3.89
314.668	3.88
315.123	3.88
315.577	3.88
316.032	3.88
316.486	3.87
316.94	3.86
317.394	3.86
317.849	3.84
318.303	3.82
318.757	3.8
319.211	3.78
319.665	3.77
320.119	3.75
320.572	3.74
321.026	3.73
321.48	3.72
321.934	3.71
322.387	3.7
322.841	3.7
323.295	3.7
323.748	3.7
324.202	3.7
324.655	3.7
325.108	3.7
325.562	3.69
326.015	3.69
326.468	3.69
326.921	3.7
327.374	3.69
327.827	3.69
328.28	3.69
328.733	3.69
329.186	3.69
329.639	3.69
330.092	3.69
330.545	3.7
330.997	3.71
331.45	3.71
331.903	3.71
332.355	3.72
332.808	3.73
333.26	3.73
333.713	3.74
334.165	3.74
334.617	3.75
335.069	3.76
335.522	3.76
335.974	3.77
336.426	3.77
336.878	3.77
337.33	3.77
337.782	3.77
338.234	3.78
338.686	3.78
339.137	3.79
339.589	3.77
340.041	3.77
340.493	3.77
340.944	3.76
341.396	3.75
341.847	3.75
342.299	3.74
342.75	3.72
343.201	3.71
343.653	3.69
344.104	3.68
344.555	3.67
345.006	3.66
345.457	3.65
345.908	3.64
346.359	3.64
346.81	3.63
347.261	3.63
347.712	3.63
348.163	3.62
348.613	3.62
349.064	3.63
349.515	3.62
349.965	3.63
350.416	3.62
350.866	3.62
351.317	3.61
351.767	3.61
352.217	3.6
352.668	3.6
353.118	3.6
353.568	3.6
354.018	3.6
354.468	3.61
354.918	3.6
355.368	3.61
355.818	3.62
356.268	3.61
356.718	3.63
357.168	3.63
357.617	3.63
358.067	3.63
358.517	3.64
358.966	3.64
359.416	3.64
359.865	3.65
360.315	3.66
360.764	3.65
361.213	3.65
361.663	3.65
362.112	3.66
362.561	3.66
363.01	3.65
363.459	3.64
363.908	3.63
364.357	3.63
364.806	3.63
365.255	3.63
365.703	3.64
366.152	3.65
366.601	3.66
367.05	3.65
367.498	3.65
367.947	3.67
368.395	3.68
368.844	3.69
369.292	3.69
369.74	3.69
370.189	3.69
370.637	3.68
371.085	3.68
371.533	3.67
371.981	3.69
372.429	3.69
372.877	3.69
373.325	3.68
373.773	3.68
374.221	3.68
374.669	3.68
375.116	3.68
375.564	3.68
376.012	3.69
376.459	3.69
376.907	3.71
377.354	3.71
377.801	3.73
378.249	3.73
378.696	3.74
379.143	3.76
379.591	3.77
380.038	3.79
380.485	3.8
380.932	3.81
381.379	3.83
381.826	3.83
382.273	3.84
382.72	3.84
383.166	3.85
383.613	3.86
384.06	3.87
384.506	3.87
384.953	3.88
385.4	3.9
385.846	3.92
386.292	3.93
386.739	3.94
387.185	3.96
387.631	3.98
388.078	3.99
388.524	4
388.97	4.01
389.416	4.04
389.862	4.05
390.308	4.08
390.754	4.1
391.2	4.12
391.645	4.15
392.091	4.18
392.537	4.2
392.983	4.23
393.428	4.26
393.874	4.28
394.319	4.3
394.765	4.32
395.21	4.33
395.655	4.34
396.101	4.36
396.546	4.37
396.991	4.4
397.436	4.41
397.881	4.44
398.326	4.47
398.771	4.5
399.216	4.53
399.661	4.56
400.106	4.58
400.551	4.6
400.995	4.6
401.44	4.61
401.885	4.62
402.329	4.63
402.774	4.63
403.218	4.65
403.663	4.66
404.107	4.67
404.551	4.68
404.995	4.69
405.44	4.7
405.884	4.72
406.328	4.74
406.772	4.74
407.216	4.76
407.66	4.76
408.104	4.76
408.547	4.76
408.991	4.76
409.435	4.77
409.879	4.79
410.322	4.79
410.766	4.8
411.209	4.82
411.653	4.84
412.096	4.84
412.54	4.87
412.983	4.88
413.426	4.9
413.869	4.93
414.312	4.95
414.756	4.96
415.199	4.98
415.642	4.99
416.085	5
416.527	5.01
416.97	5.01
417.413	5
417.856	5
418.298	5
418.741	5
419.184	4.99
419.626	4.99
420.069	4.99
420.511	4.99
420.953	4.99
421.396	5
421.838	5.02
422.28	5.03
422.722	5.05
423.164	5.04
423.606	5.05
424.048	5.07
424.49	5.07
424.932	5.07
425.374	5.06
425.816	5.03
426.258	5
426.699	4.98
427.141	4.95
427.582	4.95
428.024	4.96
428.465	4.96
428.907	4.95
429.348	4.94
429.789	4.93
430.231	4.94
430.672	4.96
431.113	4.98
431.554	5
431.995	5.03
432.436	5.03
432.877	5.03
433.318	5.04
433.759	5.06
434.2	5.08
434.64	5.1
435.081	5.12
435.522	5.13
435.962	5.16
436.403	5.19
436.843	5.2
437.284	5.21
437.724	5.21
438.164	5.21
438.604	5.23
439.045	5.24
439.485	5.24
439.925	5.23
440.365	5.23
440.805	5.22
441.245	5.23
441.685	5.24
442.125	5.26
442.564	5.29
443.004	5.29
443.444	5.28
443.883	5.29
444.323	5.29
444.762	5.31
445.202	5.32
445.641	5.34
446.081	5.35
446.52	5.34
446.959	5.36
447.398	5.37
447.837	5.38
448.276	5.4
448.716	5.41
449.154	5.44
449.593	5.46
450.032	5.46
450.471	5.45
450.91	5.45
451.349	5.45
451.787	5.43
452.226	5.42
452.664	5.41
453.103	5.39
453.541	5.39
453.98	5.38
454.418	5.35
454.856	5.32
455.295	5.31
455.733	5.28
456.171	5.26
456.609	5.24
457.047	5.21
457.485	5.2
457.923	5.18
458.361	5.15
458.798	5.13
459.236	5.13
459.674	5.13
460.111	5.13
460.549	5.13
460.987	5.13
461.424	5.14
461.862	5.15
462.299	5.16
462.736	5.14
463.173	5.15
463.611	5.16
464.048	5.16
464.485	5.17
464.922	5.17
465.359	5.18
465.796	5.19
466.233	5.18
466.67	5.19
467.106	5.19
467.543	5.2
467.98	5.2
468.416	5.2
468.853	5.21
469.29	5.21
469.726	5.2
470.162	5.2
470.599	5.2
471.035	5.18
471.471	5.19
471.907	5.18
472.344	5.19
472.78	5.2
473.216	5.19
473.652	5.19
474.088	5.18
474.523	5.18
474.959	5.16
475.395	5.15
475.831	5.15
476.266	5.15
476.702	5.13
477.138	5.12
477.573	5.11
478.008	5.1
478.444	5.08
478.879	5.08
479.314	5.07
479.75	5.06
480.185	5.04
480.62	5.03
481.055	5.02
481.49	5.01
481.925	5
482.36	4.99
482.795	4.98
483.229	4.98
483.664	4.98
484.099	4.97
484.534	4.97
484.968	4.98
485.403	4.98
485.837	4.98
486.271	5
486.706	5.01
487.14	5.01
487.574	5.03
488.009	5.04
488.443	5.05
488.877	5.07
489.311	5.1
489.745	5.13
490.179	5.16
490.613	5.18
491.046	5.2
491.48	5.23
491.914	5.27
492.348	5.3
492.781	5.34
493.215	5.39
493.648	5.43
494.082	5.48
494.515	5.53
494.948	5.57
495.382	5.62
495.815	5.68
496.248	5.75
496.681	5.81
497.114	5.87
497.547	5.94
497.98	6
498.413	6.07
498.846	6.14
499.279	6.21
499.711	6.3
500.144	6.4
500.577	6.49
501.009	6.58
501.442	6.68
501.874	6.79
502.306	6.9
502.739	7.01
503.171	7.13
503.603	7.26
504.036	7.39
504.468	7.51
504.9	7.64
505.332	7.78
505.764	7.93
506.196	8.08
506.627	8.24
507.059	8.4
507.491	8.57
507.923	8.75
508.354	8.93
508.786	9.11
509.217	9.31
509.649	9.5
510.08	9.69
510.512	9.89
510.943	10.09
511.374	10.29
511.805	10.5
512.237	10.71
512.668	10.92
513.099	11.14
513.53	11.37
513.961	11.6
514.391	11.84
514.822	12.08
515.253	12.31
515.684	12.56
516.114	12.82
516.545	13.05
516.975	13.3
517.406	13.54
517.836	13.78
518.267	14.03
518.697	14.26
519.127	14.49
519.558	14.72
519.988	14.95
520.418	15.17
520.848	15.38
521.278	15.62
521.708	15.93
522.138	16.16
522.567	16.36
522.997	16.55
523.427	16.77
523.857	16.97
524.286	17.17
524.716	17.35
525.145	17.53
525.575	17.72
526.004	17.88
526.433	17.94
526.863	18.11
527.292	18.27
527.721	18.43
528.15	18.55
528.579	18.69
529.008	18.82
529.437	18.95
529.866	19.05
530.295	19.18
530.724	19.28
531.152	19.39
531.581	19.49
532.01	19.57
532.438	19.65
532.867	19.74
533.295	19.81
533.723	19.88
534.152	19.94
534.58	20.02
535.008	20.06
535.436	20.12
535.865	20.16
536.293	20.2
536.721	20.24
537.149	20.28
537.576	20.32
538.004	20.35
538.432	20.38
538.86	20.42
539.287	20.42
539.715	20.45
540.143	20.47
540.57	20.49
540.998	20.52
541.425	20.55
541.852	20.56
542.28	20.57
542.707	20.62
543.134	20.62
543.561	20.65
543.988	20.69
544.415	20.71
544.842	20.73
545.269	20.74
545.696	20.77
546.123	20.8
546.549	20.83
546.976	20.86
547.403	20.88
547.829	20.92
548.256	20.93
548.682	20.95
549.108	20.98
549.535	21.01
549.961	21.02
550.387	21.04
550.813	21.04
551.24	21.05
551.666	21.05
552.092	21.05
552.518	21.04
552.943	21.04
553.369	21.04
553.795	21.03
554.221	21.01
554.646	21
555.072	20.95
555.498	20.93
555.923	20.89
556.349	20.83
556.774	20.79
557.199	20.73
557.625	20.67
558.05	20.6
558.475	20.53
558.9	20.47
559.325	20.42
559.75	20.35
560.175	20.28
560.6	20.18
561.025	20.11
561.449	20.02
561.874	19.92
562.299	19.82
562.723	19.71
563.148	19.6
563.572	19.47
563.997	19.33
564.421	19.21
564.846	19.08
565.27	18.97
565.694	18.85
566.118	18.72
566.542	18.59
566.966	18.45
567.39	18.31
567.814	18.17
568.238	18.04
568.662	17.9
569.086	17.76
569.509	17.62
569.933	17.48
570.357	17.33
570.78	17.19
571.204	17.06
571.627	16.96
572.05	16.84
572.474	16.74
572.897	16.63
573.32	16.53
573.743	16.43
574.166	16.33
574.589	16.23
575.012	16.15
575.435	16.07
575.858	15.99
576.281	15.89
576.704	15.8
577.126	15.72
577.549	15.64
577.972	15.57
578.394	15.49
578.817	15.42
579.239	15.35
579.661	15.29
580.084	15.22
580.506	15.15
580.928	15.08
581.35	15.01
581.772	14.94
582.194	14.88
582.616	14.82
583.038	14.74
583.46	14.67
583.882	14.61
584.303	14.54
584.725	14.47
585.147	14.41
585.568	14.34
585.99	14.28
586.411	14.23
586.833	14.16
587.254	14.12
587.675	14.07
588.096	14.04
588.518	13.99
588.939	13.96
589.36	13.93
589.781	13.91
590.202	13.89
590.623	13.86
591.043	13.83
591.464	13.79
591.885	13.75
592.305	13.73
592.726	13.71
593.147	13.67
593.567	13.63
593.987	13.6
594.408	13.56
594.828	13.52
595.248	13.49
595.669	13.47
596.089	13.45
596.509	13.43
596.929	13.4
597.349	13.36
597.769	13.33
598.189	13.3
598.608	13.27
599.028	13.23
599.448	13.2
599.867	13.16
600.287	13.12
600.706	13.09
601.126	13.05
601.545	13.01
601.965	12.97
602.384	12.92
602.803	12.88
603.222	12.83
603.641	12.79
604.061	12.75
604.48	12.7
604.898	12.64
605.317	12.59
605.736	12.54
606.155	12.48
606.574	12.41
606.992	12.36
607.411	12.3
607.829	12.22
608.248	12.15
608.666	12.09
609.085	12.03
609.503	11.98
609.921	11.92
610.339	11.86
610.758	11.8
611.176	11.75
611.594	11.68
612.012	11.63
612.43	11.59
612.847	11.54
613.265	11.48
613.683	11.41
614.101	11.36
614.518	11.29
614.936	11.23
615.353	11.17
615.771	11.11
616.188	11.06
616.606	11.01
617.023	10.97
617.44	10.93
617.857	10.89
618.274	10.84
618.691	10.8
619.108	10.77
619.525	10.73
619.942	10.7
620.359	10.67
620.776	10.65
621.192	10.62
621.609	10.6
622.026	10.57
622.442	10.55
622.859	10.53
623.275	10.51
623.691	10.5
624.108	10.48
624.524	10.47
624.94	10.46
625.356	10.45
625.772	10.43
626.188	10.41
626.604	10.4
627.02	10.4
627.436	10.38
627.852	10.37
628.268	10.35
628.683	10.34
629.099	10.32
629.514	10.31
629.93	10.3
630.345	10.28
630.761	10.24
631.176	10.21
631.591	10.17
632.007	10.14
632.422	10.1
632.837	10.05
633.252	9.99
633.667	9.94
634.082	9.86
634.497	9.8
634.911	9.72
635.326	9.66
635.741	9.58
636.155	9.5
636.57	9.42
636.984	9.34
637.399	9.24
637.813	9.16
638.228	9.07
638.642	8.97
639.056	8.86
639.47	8.76
639.884	8.66
640.298	8.55
640.712	8.45
641.126	8.34
641.54	8.24
641.954	8.14
642.368	8.03
642.781	7.94
643.195	7.85
643.609	7.78
644.022	7.69
644.436	7.62
644.849	7.54
645.262	7.47
645.676	7.4
646.089	7.34
646.502	7.28
646.915	7.24
647.328	7.19
647.741	7.16
648.154	7.1
648.567	7.06
648.98	7.02
649.393	6.99
649.805	6.96
650.218	6.94
650.631	6.91
651.043	6.88
651.456	6.84
651.868	6.81
652.28	6.78
652.693	6.75
653.105	6.73
653.517	6.7
653.929	6.66
654.341	6.62
654.753	6.58
655.165	6.55
655.577	6.5
655.989	6.45
656.401	6.41
656.813	6.36
657.224	6.31
657.636	6.25
658.047	6.19
658.459	6.12
658.87	6.07
659.282	6.01
659.693	5.95
660.104	5.89
660.515	5.83
660.926	5.77
661.338	5.71
661.749	5.66
662.159	5.61
662.57	5.56
662.981	5.52
663.392	5.48
663.803	5.43
664.213	5.38
664.624	5.35
665.035	5.31
665.445	5.28
665.855	5.25
666.266	5.22
666.676	5.2
667.086	5.17
667.497	5.15
667.907	5.13
668.317	5.11
668.727	5.1
669.137	5.1
669.547	5.1
669.956	5.09
670.366	5.09
670.776	5.09
671.186	5.1
671.595	5.1
672.005	5.09
672.414	5.11
672.824	5.11
673.233	5.12
673.642	5.13
674.052	5.14
674.461	5.14
674.87	5.16
675.279	5.18
675.688	5.2
676.097	5.22
676.506	5.25
676.915	5.28
677.323	5.32
677.732	5.34
678.141	5.39
678.549	5.42
678.958	5.47
679.366	5.52
679.775	5.57
680.183	5.63
680.592	5.69
681	5.76
681.408	5.84
681.816	5.93
682.224	6.04
682.632	6.13
683.04	6.25
683.448	6.37
683.856	6.5
684.264	6.64
684.671	6.81
685.079	7
685.487	7.21
685.894	7.43
686.302	7.66
686.709	7.91
687.116	8.2
687.524	8.5
687.931	8.82
688.338	9.16
688.745	9.51
689.152	9.89
689.559	10.29
689.966	10.7
690.373	11.13
690.78	11.57
691.187	12.03
691.593	12.49
692	12.96
692.407	13.44
692.813	13.93
693.22	14.42
693.626	14.92
694.032	15.41
694.439	15.9
694.845	16.39
695.251	16.89
695.657	17.38
696.063	17.87
696.469	18.36
696.875	18.86
697.281	19.35
697.687	19.85
698.093	20.32
698.498	20.8
698.904	21.28
699.31	21.76
699.715	22.22
700.12	22.68
700.526	23.15
700.931	23.6
701.337	24.02
701.742	24.44
702.147	24.87
702.552	25.3
702.957	25.7
703.362	26.1
703.767	26.48
704.172	26.86
704.577	27.23
704.981	27.58
705.386	27.93
705.791	28.28
706.195	28.64
706.6	28.99
707.004	29.31
707.408	29.64
707.813	29.98
708.217	30.3
708.621	30.62
709.025	30.91
709.43	31.21
709.834	31.52
710.237	31.81
710.641	32.09
711.045	32.35
711.449	32.63
711.853	32.93
712.256	33.18
712.66	33.43
713.064	33.68
713.467	33.94
713.87	34.22
714.274	34.46
714.677	34.72
715.08	34.94
715.484	35.19
715.887	35.43
716.29	35.62
716.693	35.83
717.096	36.06
717.499	36.27
717.901	36.5
718.304	36.69
718.707	36.89
719.109	37.1
719.512	37.31
719.915	37.5
720.317	37.68
720.719	37.84
721.122	38.04
721.524	38.2
721.926	38.38
722.328	38.56
722.731	38.71
723.133	38.87
723.535	38.99
723.937	39.14
724.338	39.25
724.74	39.38
725.142	39.56
725.544	39.67
725.945	39.78
726.347	39.89
726.748	39.99
727.15	40.09
727.551	40.2
727.952	40.29
728.354	40.42
728.755	40.5
729.156	40.6
729.557	40.65
729.958	40.7
730.359	40.8
730.76	40.9
731.161	40.96
731.562	41.06
731.962	41.1
732.363	41.18
732.763	41.23
733.164	41.32
733.564	41.37
733.965	41.43
734.365	41.54
734.766	41.6
735.166	41.67
735.566	41.72
735.966	41.78
736.366	41.83
736.766	41.85
737.166	41.92
737.566	41.96
737.966	42
738.365	42.04
738.765	42.08
739.165	42.1
739.564	42.1
739.964	42.12
740.363	42.13
740.763	42.17
741.162	42.22
741.561	42.23
741.96	42.22
742.36	42.26
742.759	42.3
743.158	42.31
743.557	42.36
743.955	42.4
744.354	42.42
744.753	42.48
745.152	42.51
745.55	42.54
745.949	42.57
746.348	42.63
746.746	42.65
747.144	42.69
747.543	42.7
747.941	42.71
748.339	42.72
748.737	42.74
749.136	42.73
749.534	42.71
749.932	42.72
750.33	42.72
750.727	42.72
751.125	42.73
751.523	42.71
751.921	42.72
752.318	42.72
752.716	42.7
753.113	42.71
753.511	42.69
753.908	42.71
754.305	42.71
754.703	42.68
755.1	42.66
755.497	42.65
755.894	42.66
756.291	42.65
756.688	42.63
757.085	42.64
757.482	42.63
757.878	42.63
758.275	42.6
758.672	42.58
759.068	42.62
759.465	42.62
759.861	42.62
760.258	42.63
760.654	42.63
761.05	42.65
761.447	42.66
761.843	42.65
762.239	42.66
762.635	42.69
763.031	42.67
763.427	42.64
763.822	42.65
764.218	42.65
764.614	42.63
765.01	42.61
765.405	42.6
765.801	42.58
766.196	42.6
766.592	42.59
766.987	42.59
767.382	42.59
767.778	42.62
768.173	42.61
768.568	42.6
768.963	42.6
769.358	42.63
769.753	42.63
770.148	42.64
770.542	42.63
770.937	42.66
771.332	42.65
771.726	42.65
772.121	42.65
772.515	42.64
772.91	42.67
773.304	42.69
773.699	42.69
774.093	42.67
774.487	42.69
774.881	42.69
775.275	42.7
775.669	42.69
776.063	42.68
776.457	42.68
776.851	42.66
777.245	42.63
777.638	42.64
778.032	42.64
778.425	42.69
778.819	42.68
779.212	42.7
779.606	42.71
779.999	42.7
780.392	42.76
780.786	42.75
781.179	42.8
781.572	42.84
781.965	42.84
782.358	42.85
782.751	42.82
783.143	42.82
783.536	42.81
783.929	42.81
784.322	42.84
784.714	42.83
785.107	42.83
785.499	42.82
785.891	42.82
786.284	42.84
786.676	42.83
787.068	42.85
787.46	42.87
787.852	42.89
788.245	42.89
788.636	42.89
789.028	42.91
789.42	42.91
789.812	42.96
790.204	42.98
790.595	42.97
790.987	43
791.378	43.02
791.77	43.03
792.161	43.05
792.553	43.06
792.944	43.07
793.335	43.08
793.726	43.1
794.117	43.03
794.508	43.01
794.899	43.02
795.29	43.02
795.681	42.98
796.072	43
796.463	42.99
796.853	43.01
797.244	43.02
797.634	43.02
798.025	43.04
798.415	43.09
798.806	43.1
799.196	43.11
799.586	43.12
799.976	43.17
800.366	43.16
800.756	43.19
801.146	43.22
801.536	43.23
801.926	43.24
802.316	43.23
802.706	43.25
803.095	43.26
803.485	43.29
803.874	43.3
804.264	43.29
804.653	43.3
805.043	43.3
805.432	43.27
805.821	43.31
806.21	43.32
806.599	43.34
806.988	43.35
807.377	43.36
807.766	43.38
808.155	43.37
808.544	43.4
808.933	43.42
809.321	43.43
809.71	43.45
810.098	43.45
810.487	43.45
810.875	43.44
811.264	43.46
811.652	43.48
812.04	43.46
812.428	43.49
812.816	43.48
813.204	43.46
813.592	43.45
813.98	43.47
814.368	43.46
814.756	43.47
815.144	43.47
815.531	43.44
815.919	43.44
816.306	43.44
816.694	43.43
817.081	43.44
817.469	43.46
817.856	43.45
818.243	43.41
818.63	43.41
819.017	43.4
819.404	43.4
819.791	43.4
820.178	43.42
820.565	43.4
820.952	43.39
821.339	43.35
821.725	43.36
822.112	43.38
822.498	43.41
822.885	43.42
823.271	43.43
823.657	43.42
824.044	43.42
824.43	43.42
824.816	43.41
825.202	43.38
825.588	43.39
825.974	43.34
826.36	43.31
826.746	43.28
827.132	43.25
827.517	43.25
827.903	43.27
828.289	43.26
828.674	43.23
829.06	43.21
829.445	43.22
829.83	43.21
830.216	43.21
830.601	43.21
830.986	43.2
831.371	43.17
831.756	43.16
832.141	43.15
832.526	43.14
832.911	43.11
833.295	43.14
833.68	43.15
834.065	43.14
834.449	43.12
834.834	43.1
835.218	43.09
835.603	43.1
835.987	43.07
836.371	43.04
836.755	43.01
837.139	43
837.524	42.98
837.908	42.96
838.291	42.97
838.675	42.97
839.059	42.98
839.443	42.96
839.827	42.94
840.21	42.93
840.594	42.91
840.977	42.92
841.361	42.93
841.744	42.89
842.127	42.85
842.511	42.84
842.894	42.83
843.277	42.8
843.66	42.77
844.043	42.76
844.426	42.78
844.809	42.79
845.191	42.79
845.574	42.78
845.957	42.81
846.339	42.84
846.722	42.85
847.104	42.88
847.487	42.89
847.869	42.93
848.252	42.91
848.634	42.89
849.016	42.9
849.398	42.91
849.78	42.91
850.162	42.9
850.544	42.88
850.926	42.86
851.307	42.84
851.689	42.82
852.071	42.81
852.452	42.83
852.834	42.83
853.215	42.81
853.597	42.8
853.978	42.79
854.359	42.8
854.741	42.81
855.122	42.8
855.503	42.8
855.884	42.81
856.265	42.8
856.646	42.79
857.026	42.82
857.407	42.85
857.788	42.84
858.169	42.85
858.549	42.83
858.93	42.83
859.31	42.83
859.69	42.84
860.071	42.86
860.451	42.86
860.831	42.88
861.211	42.85
861.591	42.84
861.971	42.85
862.351	42.88
862.731	42.89
863.111	42.88
863.491	42.86
863.87	42.87
864.25	42.86
864.629	42.87
865.009	42.88
865.388	42.88
865.768	42.89
866.147	42.91
866.526	42.89
866.905	42.9
867.284	42.93
867.663	42.94
868.042	42.95
868.421	42.97
868.8	42.98
869.179	42.97
869.558	42.96
869.936	42.95
870.315	42.93
870.693	42.93
871.072	42.94
871.45	42.94
871.828	42.95
872.207	42.93
872.585	42.91
872.963	42.9
873.341	42.9
873.719	42.9
874.097	42.9
874.475	42.89
874.853	42.89
875.23	42.89
875.608	42.91
875.986	42.91
876.363	42.91
876.741	42.92
877.118	42.93
877.495	42.93
877.873	42.95
878.25	42.96
878.627	42.99
879.004	43
879.381	43
879.758	42.96
880.135	42.96
880.512	42.96
880.889	42.95
881.265	42.93
881.642	42.93
882.019	42.93
882.395	42.92
882.772	42.92
883.148	42.9
883.524	42.87
883.901	42.87
884.277	42.84
884.653	42.82
885.029	42.82
885.405	42.83
885.781	42.83
886.157	42.8
886.532	42.79
886.908	42.77
887.284	42.75
887.659	42.73
888.035	42.72
888.411	42.71
888.786	42.73
889.161	42.71
889.537	42.68
889.912	42.66
890.287	42.65
890.662	42.63
891.037	42.62
891.412	42.6
891.787	42.59
892.162	42.59
892.536	42.57
892.911	42.54
893.286	42.52
893.66	42.51
894.035	42.52
894.409	42.5
894.784	42.5
895.158	42.48
895.532	42.49
895.906	42.5
896.281	42.49
896.655	42.49
897.029	42.48
897.402	42.47
897.776	42.49
898.15	42.48
898.524	42.48
898.898	42.47
899.271	42.48
899.645	42.47
900.018	42.48
900.392	42.5
900.765	42.51
901.138	42.53
901.511	42.56
901.884	42.58
902.258	42.58
902.631	42.6
903.003	42.61
903.376	42.61
903.749	42.61
904.122	42.61
904.495	42.63
904.867	42.64
905.24	42.67
905.612	42.67
905.985	42.67
906.357	42.69
906.729	42.69
907.102	42.7
907.474	42.72
907.846	42.74
908.218	42.74
908.59	42.74
908.962	42.78
909.334	42.77
909.705	42.79
910.077	42.79
910.449	42.8
910.82	42.8
911.192	42.81
911.563	42.81
911.935	42.8
912.306	42.82
912.677	42.84
913.048	42.85
913.419	42.82
913.79	42.82
914.161	42.8
914.532	42.8
914.903	42.8
915.274	42.81
915.645	42.84
916.015	42.86
916.386	42.86
916.756	42.83
917.127	42.82
917.497	42.86
917.868	42.84
918.238	42.85
918.608	42.86
918.978	42.89
919.348	42.89
919.718	42.86
920.088	42.87
920.458	42.88
920.828	42.89
921.198	42.86
921.567	42.87
921.937	42.91
922.306	42.87
922.676	42.88
923.045	42.83
923.415	42.81
923.784	42.82
924.153	42.83
924.522	42.81
924.891	42.8
925.26	42.83
925.629	42.83
925.998	42.83
926.367	42.86
926.736	42.82
927.104	42.86
927.473	42.87
927.842	42.87
928.21	42.91
928.578	42.91
928.947	42.94
929.315	42.93
929.683	42.91
930.051	42.9
930.42	42.9
930.788	42.89
931.156	42.85
931.523	42.84
931.891	42.88
932.259	42.83
932.627	42.84
932.994	42.78
933.362	42.78
933.729	42.8
934.097	42.79
934.464	42.83
934.831	42.84
935.199	42.89
935.566	42.94
935.933	42.88
936.3	42.88
936.667	42.9
937.034	42.92
937.401	42.94
937.767	42.96
938.134	42.98
938.501	43.02
938.867	43.14
939.234	43.19
939.6	43.22
939.967	43.3
940.333	43.37
940.699	43.45
941.065	43.52
941.431	43.59
941.798	43.65
942.163	43.71
942.529	43.76
942.895	43.74
943.261	43.71
943.627	43.71
943.992	43.74
944.358	43.76
944.723	43.77
945.089	43.76
945.454	43.83
945.82	43.81
946.185	43.82
946.55	43.76
946.915	43.75
947.28	43.75
947.645	43.75
948.01	43.71
948.375	43.66
948.74	43.63
949.104	43.58
949.469	43.51
949.834	43.46
950.198	43.4
950.562	43.34
950.927	43.26
951.291	43.21
951.655	43.16
952.02	43.16
952.384	43.1
952.748	43.04
953.112	43.04
953.476	42.96
953.839	42.91
954.203	42.84
954.567	42.84
954.931	42.84
955.294	42.82
955.658	42.79
956.021	42.76
956.385	42.71
956.748	42.65
957.111	42.6
957.474	42.6
957.837	42.54
958.2	42.55
958.563	42.51
958.926	42.5
959.289	42.53
959.652	42.51
960.015	42.46
960.377	42.48
960.74	42.56
961.102	42.54
961.465	42.57
961.827	42.67
962.189	42.67
962.552	42.67
962.914	42.68
963.276	42.65
963.638	42.64
964	42.66
964.362	42.68
964.724	42.59
965.085	42.6
965.447	42.51
965.809	42.48
966.17	42.46
966.532	42.46
966.893	42.43
967.255	42.44
967.616	42.43
967.977	42.43
968.338	42.44
968.699	42.49
969.061	42.52
969.421	42.57
969.782	42.54
970.143	42.57
970.504	42.55
970.865	42.59
971.225	42.54
971.586	42.56
971.946	42.54
972.307	42.49
972.667	42.48
973.027	42.47
973.388	42.48
973.748	42.53
974.108	42.53
974.468	42.52
974.828	42.56
975.188	42.61
975.548	42.54
975.907	42.53
976.267	42.55
976.627	42.57
976.986	42.52
977.346	42.48
977.705	42.47
978.064	42.47
978.424	42.52
978.783	42.45
979.142	42.43
979.501	42.49
979.86	42.54
980.219	42.57
980.578	42.56
980.937	42.62
981.296	42.64
981.654	42.64
982.013	42.73
982.371	42.71
982.73	42.79
983.088	42.81
983.447	42.77
983.805	42.77
984.163	42.83
984.521	42.85
984.879	42.82
985.237	42.86
985.595	42.9
985.953	42.8
986.311	42.81
986.669	42.75
987.026	42.74
987.384	42.86
987.741	42.81
988.099	42.75
988.456	42.75
988.814	42.84
989.171	42.83
989.528	42.87
989.885	42.92
990.242	43
990.599	43.07
990.956	43.14
991.313	43.12
991.67	43.21
992.027	43.32
992.383	43.49
992.74	43.52
993.096	43.55
993.453	43.53
993.809	43.56
994.165	43.65
994.522	43.67
994.878	43.66
995.234	43.77
995.59	43.77
995.946	43.84
996.302	43.84
996.658	43.85
997.013	43.99
997.369	44.11
997.725	44.2
998.08	44.17
998.436	44.22
998.791	44.36
999.147	44.34
999.502	44.46
999.857	44.43
1000.212	44.41
1000.567	44.58
1000.922	44.56
1001.277	44.54
1001.632	44.54
1001.987	44.66
1002.342	44.69
1002.696	44.78
1003.051	45.01
1003.406	45.1
1003.76	45.19
1004.114	45.18
1004.469	45.2
1004.823	45.5
1005.177	45.6
1005.531	45.77
1005.885	45.67
1006.239	45.69
1006.593	45.78
1006.947	45.61
1007.301	45.52
1007.655	45.51
1008.008	45.67
1008.362	45.65
1008.715	45.34
1009.069	45.46
1009.422	45.44
1009.776	45.58
1010.129	45.73
1010.482	45.6
1010.835	45.81
1011.188	46.03
1011.541	46.18
1011.894	46.14
1012.247	46.2
1012.6	46.38
1012.952	46.28
1013.305	46.44
1013.657	46.56
1014.01	46.7
1014.362	46.83
1014.715	46.89
1015.067	46.81
1015.419	46.88
1015.771	47.03
1016.123	47.17
1016.475	47.26
1016.827	47.33
1017.179	47.5
1017.531	47.66
1017.883	47.71
1018.234	47.97
1018.586	48.12
1018.938	48.42
1019.289	48.52
1019.64	48.6
1019.992	48.53
1020.343	48.66
1020.694	48.84
1021.045	48.71
1021.396	48.97
1021.747	49.04
1022.098	49
1022.449	48.88
1022.8	49.2
1023.151	49.25
1023.501	49.66
1023.852	50.01
1024.202	50.1
1024.553	50.12
1024.903	50.41
1025.253	50.43
1025.604	50.48
1025.954	50.41
1026.304	50.75
1026.654	50.79
1027.004	51.03
1027.354	50.82
1027.703	50.81
1028.053	50.9
1028.403	51.29
1028.753	51.14
1029.102	51.35
1029.452	51.77
1029.801	52.3
1030.15	52.33
1030.499	52.14
897.758	946.83
901.051	952.59
904.343	955.14
907.636	969.79
910.928	943.31
914.22	938.45
917.511	926.48
920.803	890.18
924.094	886.14
927.384	864.93
930.675	834.59
933.965	828.26
937.255	779.01
940.544	745.53
943.834	712.99
947.123	706.78
950.411	669.02
953.7	655.93
956.988	619.85
960.276	595.45
963.563	586.45
966.851	562.23
970.138	558.6
973.424	542.47
976.711	546.08
979.997	516.98
983.283	515.01
986.568	504.02
989.853	489.92
993.138	479.9
996.423	462.9
999.708	450.71
1002.992	445.45
1006.275	426.73
1009.559	424.29
1012.842	407.25
1016.125	397.71
1019.408	388.98
1022.69	385.68
1025.972	376.73
1029.254	367.52
1032.536	360.36
1035.817	353.73
1039.098	349.51
1042.379	342.89
1045.659	337.69
1048.939	330.35
1052.219	324.17
1055.498	321.29
1058.778	312.63
1062.057	306.76
1065.335	304
1068.614	301.5
1071.892	297.39
1075.17	290
1078.447	284.04
1081.724	282.15
1085.001	279.45
1088.278	275.03
1091.554	269.65
1094.83	270.83
1098.106	268.37
1101.382	265.66
1104.657	262.88
1107.932	259.2
1111.206	260.36
1114.481	253.75
1117.755	251.31
1121.029	249.7
1124.302	247.95
1127.575	244.43
1130.848	240.49
1134.121	238.61
1137.393	237.22
1140.665	232.74
1143.937	230.23
1147.208	228.79
1150.48	228.55
1153.75	224.76
1157.021	222.55
1160.291	223.21
1163.561	219.25
1166.831	219.52
1170.101	217.77
1173.37	217.91
1176.639	218.02
1179.907	216.95
1183.176	213.9
1186.444	213.36
1189.711	214
1192.979	212.94
1196.246	211.45
1199.513	212.43
1202.78	211.19
1206.046	210.97
1209.312	208.66
1212.578	209.11
1215.843	210.19
1219.108	210.24
1222.373	214.7
1225.638	215.43
1228.902	218.22
1232.166	218.28
1235.43	219.35
1238.693	222.22
1241.956	223.82
1245.219	227.32
1248.482	227.52
1251.744	227.58
1255.006	227.04
1258.268	222.21
1261.529	220.82
1264.79	220.29
1268.051	218.22
1271.312	216.05
1274.572	213.42
1277.832	211.56
1281.092	208.32
1284.351	207.01
1287.61	206.96
1290.869	203.93
1294.128	202.24
1297.386	201.92
1300.644	199.87
1303.902	201.28
1307.159	200.84
1310.416	200.6
1313.673	199.29
1316.93	201.42
1320.186	200.65
1323.442	201.29
1326.697	204.36
1329.953	205.36
1333.208	205.82
1336.463	208.2
1339.717	208.32
1342.972	210.83
1346.226	212.45
1349.479	213.48
1352.733	213.81
1355.986	216.15
1359.238	215.31
1362.491	215.73
1365.743	218.16
1368.995	218.97
1372.247	218.07
1375.498	217.94
1378.749	218.23
1382	216.07
1385.251	216.71
1388.501	216.37
1391.751	215.38
1395	215.16
1398.25	213.44
1401.499	210.78
1404.748	210
1407.996	208.09
1411.244	207.15
1414.492	205.63
1417.74	203.27
1420.987	200.39
1424.234	198.83
1427.481	197.37
1430.728	197.01
1433.974	195.68
1437.22	193.97
1440.465	193.5
1443.711	190.91
1446.956	189.61
1450.201	187.85
1453.445	186.9
1456.689	186.14
1459.933	183.77
1463.177	181.27
1466.42	178.91
1469.663	176.55
1472.906	175.72
1476.148	171.02
1479.391	169.88
1482.633	168.6
1485.874	166.26
1489.115	164.96
1492.356	162.91
1495.597	162.33
1498.838	161.25
1502.078	159.87
1505.318	159.64
1508.557	159.77
1511.797	159.92
1515.036	157.84
1518.274	157.48
1521.513	157.5
1524.751	156.77
1527.989	156.76
1531.227	156.05
1534.464	155.63
1537.701	155.68
1540.938	155.1
1544.174	152.7
1547.41	153.3
1550.646	153.14
1553.882	152.92
1557.117	150.26
1560.352	150.1
1563.587	149.73
1566.821	148.68
1570.055	148.32
1573.289	146.38
1576.523	146.93
1579.756	146.17
1582.989	144.94
1586.222	144.71
1589.454	144.4
1592.686	145.68
1595.918	144.6
1599.15	144.2
1602.381	144.46
1605.612	143.6
1608.843	144.03
1612.073	143.49
1615.303	144.47
1618.533	144.65
1621.762	144.85
1624.992	145.54
1628.221	144.88
1631.449	144.62
1634.678	144.82
1637.906	145.59
1641.134	145.61
1644.361	145.67
1647.588	146.21
1650.815	145.86
1654.042	145.51
1657.269	146.24
1660.495	145.56
1663.72	145.3
1666.946	146.18
1670.171	146.31
1673.396	146.46
1676.621	146.51
1679.845	146.91
1683.069	147.02
1686.293	147.68
1689.517	147.61
1692.74	147.53
1695.963	148.14
1699.185	149.49
1702.408	149.41
1705.63	149.81
1708.852	149.54
1712.073	150.48
1715.294	150.53
1718.515	151.47
1721.736	151.11
1724.956	152.64
1728.176	152.62
1731.396	152.92
1734.616	152.42
1737.835	153.28
1741.054	152.62
1744.272	153.18
1747.491	153.95
1750.709	154.58
1753.927	153.9
1757.144	153.83
1760.361	153.4
1763.578	154.28
1766.795	154.11
1770.011	155.86
1773.227	155.7
1776.443	157.56
1779.658	158.04
1782.874	157.54
1786.089	157.05
1789.303	157.34
1792.518	159.52
1795.732	159.43
1798.945	159.87
1802.159	160.44
1805.372	159.8
1808.585	162.05
1811.797	162.36
1815.01	163.27
1818.222	164.46
1821.434	167.07
1824.645	167.41
1827.856	169.58
1831.067	170.69
1834.278	171.25
1837.488	172.69
1840.698	173.44
1843.908	172.39
1847.117	172.16
1850.326	172.93
1853.535	172.1
1856.744	173.35
1859.952	174.07
1863.16	172.38
1866.368	171.75
1869.575	171.95
1872.782	169.08
1875.989	169.33
1879.196	168.96
1882.402	168.18
1885.608	167.76
1888.814	167.47
1892.019	167.24
1895.224	165.89
1898.429	165.43
1901.634	165.65
1904.838	166.34
1908.042	167.8
1911.246	167.78
1914.449	167.71
1917.652	168.11
1920.855	167.29
1924.058	168.75
1927.26	167.28
1930.462	168.17
1933.664	169.74
1936.865	168.81
1940.066	167.32
1943.267	166.75
1946.467	167.03
1949.668	167.54
1952.868	169.15
1956.067	170.52
1959.267	169.34
1962.466	169.99
1965.665	169.38
1968.863	170.24
1972.061	173.03
1975.259	175.44
1978.457	176.22
1981.654	177.39
1984.852	178.36
1988.048	178.15
1991.245	179.53
1994.441	181.69
1997.637	183.26
2000.833	187.08
2004.028	189.17
2007.223	189.36
2010.418	190.48
2013.613	193.88
2016.807	195.72
2020.001	196.93
2023.194	201.32
2026.388	205.27
2029.581	210.7
2032.774	212.11
2035.966	215.53
2039.158	215.95
2042.35	219.86
2045.542	222.38
2048.733	227.06
2051.924	230.32
2055.115	235.07
2058.306	234.36
2061.496	236.56
2064.686	236.51
2067.875	241.5
2071.065	242.45
2074.254	240.5
2077.442	245.19
2080.631	245.14
2083.819	246.53
2087.007	246.19
2090.195	250.09
2093.382	252.28
2096.569	251.34
2099.756	255.1
2102.942	254.86
2106.128	256.78
2109.314	263.63
2112.5	261.64
2115.685	268.57
2118.87	269.13
2122.055	275.62
2125.239	275.72
2128.424	278.79
2131.608	280.42
2134.791	285.32
2137.974	286.67
2141.157	287.77
2144.34	288.46
2147.523	292.86
2150.705	290.81
2153.887	294.62
2157.068	294.66
2160.25	291.97
2163.431	294.44
2166.611	298.6
2169.792	302.29
2172.972	305.52
2176.152	308.63
2179.331	312.08
2182.511	316.76
2185.69	319.65
2188.868	326.14
2192.047	326.26
2195.225	337.23
2198.403	344.84
2201.58	350.11
2204.758	357.6
2207.935	364.99
2211.111	371.11
2214.288	374.49
2217.464	375.34
2220.64	383.16
2223.815	386.17
2226.991	402.82
2230.166	402.04
2233.34	407.31
2236.515	414.78
2239.689	415.54
2242.863	417.59
2246.036	427.19
2249.209	425.05
2252.382	434.77
2255.555	444.2
2258.727	447.42
2261.9	449.74
2265.071	454.2
2268.243	463.11
2271.414	469.78
2274.585	476.48
2277.756	481.34
2280.926	486.46
2284.096	499.31
2287.266	507.28
2290.436	513.01
2293.605	522.41
2296.774	538.45
2299.942	555.45
2303.111	556.76
2306.279	566.04
2309.447	576.37
2312.614	592.42
2315.781	607.7
2318.948	636.09
2322.115	627.26
2325.281	661.39
2328.447	651.6
2331.613	672.13
2334.779	665.19
2337.944	696.21
2341.109	703.77
2344.274	722.32
2347.438	746.78
2350.602	748.04
2353.766	767.69
2356.929	780.55
2360.092	775.09
2363.255	826.65
2366.418	829.43
2369.58	844.6
2372.742	898.53
2375.904	921.93
2379.066	915.43
2382.227	897.94
2385.388	972.51
2388.548	971.18
2391.709	983.84
2394.869	1091.92
2398.029	1053.59
2401.188	1084.98
2404.347	1078.44
2407.506	1054.38
2410.665	1085.48
2413.823	1149.51
2416.981	1213.91
2420.139	1180.72
2423.296	1164.65
2426.453	1222.28
2429.61	1179.6
2432.767	1224.59
2435.923	1206.99
2439.079	1332.5
2442.235	1353.51
2445.391	1339.32
2448.546	1326.57
2451.701	1290.82
2454.855	1284.4
2458.009	1374.06
2461.163	1417.3
2464.317	1464.88
2467.471	1504.64
2470.624	1506.01
2473.777	1457.17
2476.929	1416.25
2480.082	1374.07
2483.234	1364.9
2486.385	1435.01
2489.537	1439.15
2492.688	1487.26
2495.839	1449.31
2498.989	1415.48
2502.14	1420.08
2505.29	1438.89
2508.439	1455.34
2511.589	1453.72
2514.738	1591.31
2517.887	1554.64
2521.035	1632.71
2524.183	1655.7
2527.331	1662.84
2530.479	1651.95
2533.627	1669.23
