Data from C_3_HIR_IL_4N_Splice17_14-27-20-899.txt Node
Date: Sat Mar 07 14:27:20 EST 2020
User: sa697716
Spectrometer: NQ5500242
Trigger mode: 0
Integration Time (sec): 1.450000E-1
Scans to average: 20
Nonlinearity correction enabled: false
Boxcar width: 5
Storing dark spectrum: false
XAxis mode: Wavelengths
Number of Pixels in Spectrum: 512
>>>>>Begin Spectral Data<<<<<
187.83	122
188.298	155.52
188.766	139.03
189.233	117.61
189.701	105.9
190.169	114.11
190.636	135.6
191.104	179.81
191.571	135.86
192.039	158.07
192.506	313.92
192.974	60.35
193.441	284.36
193.908	124.01
194.375	122.24
194.842	70.1
195.31	127.95
195.777	281.62
196.244	74.21
196.711	74.12
197.177	75.67
197.644	75.75
198.111	75.39
198.578	75.17
199.045	75.7
199.511	75.11
199.978	74.95
200.445	74.89
200.911	74.91
201.378	75.36
201.844	74.87
202.31	74.43
202.777	74.15
203.243	74.29
203.709	73.87
204.176	73.11
204.642	72.76
205.108	72.6
205.574	71.98
206.04	71.4
206.506	70.57
206.972	70.23
207.438	69.66
207.903	68.78
208.369	66.86
208.835	65.43
209.301	64.01
209.766	62.13
210.232	60.25
210.697	58.46
211.163	56.9
211.628	55.36
212.094	53.89
212.559	52.39
213.024	51.01
213.49	50.23
213.955	48.95
214.42	47.76
214.885	46.32
215.35	44.5
215.815	42.14
216.28	39.15
216.745	35.91
217.21	32.6
217.675	29.56
218.14	26.83
218.604	24.31
219.069	22.3
219.534	20.6
219.998	19.25
220.463	18.07
220.927	17.01
221.392	16.2
221.856	15.52
222.32	14.94
222.785	14.45
223.249	14
223.713	13.64
224.177	13.32
224.642	13
225.106	12.67
225.57	12.39
226.034	12.15
226.497	11.89
226.961	11.68
227.425	11.46
227.889	11.24
228.353	11.05
228.816	10.85
229.28	10.65
229.744	10.48
230.207	10.3
230.671	10.14
231.134	10
231.597	9.87
232.061	9.71
232.524	9.57
232.987	9.44
233.45	9.32
233.914	9.17
234.377	9.05
234.84	8.94
235.303	8.85
235.766	8.76
236.229	8.66
236.691	8.57
237.154	8.49
237.617	8.42
238.08	8.34
238.542	8.26
239.005	8.21
239.468	8.14
239.93	8.06
240.393	8
240.855	7.91
241.317	7.82
241.78	7.74
242.242	7.66
242.704	7.59
243.166	7.53
243.629	7.46
244.091	7.38
244.553	7.3
245.015	7.23
245.477	7.16
245.939	7.12
246.4	7.07
246.862	7.01
247.324	6.95
247.786	6.88
248.247	6.82
248.709	6.76
249.17	6.7
249.632	6.66
250.093	6.62
250.555	6.57
251.016	6.52
251.477	6.46
251.939	6.42
252.4	6.38
252.861	6.36
253.322	6.31
253.783	6.27
254.244	6.24
254.705	6.2
255.166	6.16
255.627	6.12
256.088	6.1
256.549	6.07
257.009	6.03
257.47	6
257.931	5.95
258.391	5.9
258.852	5.86
259.312	5.82
259.773	5.78
260.233	5.75
260.694	5.7
261.154	5.66
261.614	5.62
262.074	5.58
262.534	5.54
262.994	5.51
263.455	5.48
263.915	5.45
264.374	5.43
264.834	5.41
265.294	5.38
265.754	5.36
266.214	5.34
266.673	5.32
267.133	5.31
267.593	5.29
268.052	5.27
268.512	5.26
268.971	5.26
269.431	5.24
269.89	5.23
270.349	5.22
270.809	5.21
271.268	5.21
271.727	5.2
272.186	5.18
272.645	5.17
273.104	5.16
273.563	5.15
274.022	5.14
274.481	5.13
274.94	5.13
275.399	5.11
275.857	5.1
276.316	5.08
276.775	5.07
277.233	5.06
277.692	5.06
278.15	5.05
278.609	5.04
279.067	5.03
279.525	5.03
279.984	5.02
280.442	5.01
280.9	5.01
281.358	5
281.816	5.01
282.274	5
282.732	5
283.19	5
283.648	5
284.106	4.99
284.564	4.99
285.021	4.99
285.479	4.99
285.937	4.99
286.394	4.99
286.852	4.98
287.309	4.97
287.767	4.96
288.224	4.95
288.682	4.93
289.139	4.92
289.596	4.9
290.053	4.88
290.511	4.85
290.968	4.84
291.425	4.81
291.882	4.79
292.339	4.77
292.796	4.75
293.252	4.74
293.709	4.73
294.166	4.72
294.623	4.71
295.079	4.69
295.536	4.68
295.992	4.67
296.449	4.67
296.905	4.67
297.362	4.66
297.818	4.65
298.274	4.64
298.731	4.64
299.187	4.63
299.643	4.62
300.099	4.62
300.555	4.61
301.011	4.61
301.467	4.59
301.923	4.58
302.379	4.57
302.835	4.58
303.291	4.57
303.746	4.57
304.202	4.57
304.658	4.57
305.113	4.56
305.569	4.57
306.024	4.57
306.479	4.57
306.935	4.58
307.39	4.58
307.845	4.58
308.301	4.59
308.756	4.59
309.211	4.59
309.666	4.61
310.121	4.61
310.576	4.62
311.031	4.62
311.486	4.62
311.94	4.64
312.395	4.63
312.85	4.63
313.305	4.64
313.759	4.64
314.214	4.64
314.668	4.63
315.123	4.63
315.577	4.62
316.032	4.62
316.486	4.61
316.94	4.6
317.394	4.59
317.849	4.58
318.303	4.57
318.757	4.55
319.211	4.53
319.665	4.51
320.119	4.5
320.572	4.49
321.026	4.48
321.48	4.47
321.934	4.45
322.387	4.44
322.841	4.44
323.295	4.44
323.748	4.45
324.202	4.45
324.655	4.45
325.108	4.45
325.562	4.45
326.015	4.45
326.468	4.45
326.921	4.46
327.374	4.46
327.827	4.46
328.28	4.45
328.733	4.45
329.186	4.45
329.639	4.45
330.092	4.45
330.545	4.45
330.997	4.44
331.45	4.45
331.903	4.46
332.355	4.48
332.808	4.48
333.26	4.49
333.713	4.49
334.165	4.49
334.617	4.5
335.069	4.5
335.522	4.53
335.974	4.53
336.426	4.53
336.878	4.53
337.33	4.52
337.782	4.53
338.234	4.54
338.686	4.54
339.137	4.55
339.589	4.54
340.041	4.54
340.493	4.52
340.944	4.5
341.396	4.5
341.847	4.49
342.299	4.47
342.75	4.44
343.201	4.42
343.653	4.39
344.104	4.36
344.555	4.35
345.006	4.33
345.457	4.32
345.908	4.31
346.359	4.3
346.81	4.29
347.261	4.28
347.712	4.29
348.163	4.28
348.613	4.28
349.064	4.28
349.515	4.28
349.965	4.28
350.416	4.27
350.866	4.27
351.317	4.26
351.767	4.27
352.217	4.27
352.668	4.27
353.118	4.27
353.568	4.27
354.018	4.27
354.468	4.28
354.918	4.29
355.368	4.3
355.818	4.3
356.268	4.29
356.718	4.3
357.168	4.28
357.617	4.28
358.067	4.29
358.517	4.29
358.966	4.3
359.416	4.3
359.865	4.3
360.315	4.31
360.764	4.33
361.213	4.33
361.663	4.33
362.112	4.35
362.561	4.35
363.01	4.35
363.459	4.35
363.908	4.34
364.357	4.33
364.806	4.33
365.255	4.32
365.703	4.33
366.152	4.33
366.601	4.33
367.05	4.33
367.498	4.34
367.947	4.34
368.395	4.35
368.844	4.36
369.292	4.36
369.74	4.37
370.189	4.38
370.637	4.39
371.085	4.38
371.533	4.38
371.981	4.39
372.429	4.39
372.877	4.4
373.325	4.4
373.773	4.4
374.221	4.41
374.669	4.41
375.116	4.42
375.564	4.42
376.012	4.43
376.459	4.44
376.907	4.46
377.354	4.47
377.801	4.48
378.249	4.48
378.696	4.5
379.143	4.51
379.591	4.52
380.038	4.53
380.485	4.55
380.932	4.56
381.379	4.57
381.826	4.59
382.273	4.6
382.72	4.62
383.166	4.63
383.613	4.65
384.06	4.67
384.506	4.68
384.953	4.7
385.4	4.72
385.846	4.74
386.292	4.77
386.739	4.77
387.185	4.79
387.631	4.82
388.078	4.83
388.524	4.85
388.97	4.87
389.416	4.89
389.862	4.92
390.308	4.94
390.754	4.97
391.2	4.99
391.645	5.03
392.091	5.05
392.537	5.08
392.983	5.11
393.428	5.14
393.874	5.16
394.319	5.18
394.765	5.19
395.21	5.2
395.655	5.22
396.101	5.24
396.546	5.26
396.991	5.28
397.436	5.3
397.881	5.33
398.326	5.36
398.771	5.39
399.216	5.42
399.661	5.46
400.106	5.48
400.551	5.5
400.995	5.51
401.44	5.52
401.885	5.53
402.329	5.55
402.774	5.57
403.218	5.6
403.663	5.62
404.107	5.64
404.551	5.66
404.995	5.68
405.44	5.7
405.884	5.72
406.328	5.74
406.772	5.75
407.216	5.75
407.66	5.77
408.104	5.77
408.547	5.78
408.991	5.78
409.435	5.79
409.879	5.81
410.322	5.84
410.766	5.86
411.209	5.89
411.653	5.91
412.096	5.93
412.54	5.95
412.983	5.98
413.426	6.01
413.869	6.03
414.312	6.06
414.756	6.08
415.199	6.09
415.642	6.11
416.085	6.12
416.527	6.12
416.97	6.13
417.413	6.12
417.856	6.1
418.298	6.09
418.741	6.09
419.184	6.09
419.626	6.09
420.069	6.08
420.511	6.08
420.953	6.08
421.396	6.08
421.838	6.09
422.28	6.12
422.722	6.14
423.164	6.15
423.606	6.17
424.048	6.18
424.49	6.19
424.932	6.19
425.374	6.18
425.816	6.16
426.258	6.15
426.699	6.13
427.141	6.12
427.582	6.13
428.024	6.14
428.465	6.15
428.907	6.14
429.348	6.13
429.789	6.13
430.231	6.16
430.672	6.19
431.113	6.22
431.554	6.26
431.995	6.27
432.436	6.27
432.877	6.28
433.318	6.29
433.759	6.33
434.2	6.35
434.64	6.37
435.081	6.39
435.522	6.4
435.962	6.41
436.403	6.44
436.843	6.45
437.284	6.46
437.724	6.46
438.164	6.44
438.604	6.46
439.045	6.45
439.485	6.46
439.925	6.46
440.365	6.47
440.805	6.47
441.245	6.47
441.685	6.48
442.125	6.49
442.564	6.51
443.004	6.51
443.444	6.5
443.883	6.52
444.323	6.51
444.762	6.52
445.202	6.53
445.641	6.54
446.081	6.55
446.52	6.54
446.959	6.56
447.398	6.56
447.837	6.58
448.276	6.57
448.716	6.58
449.154	6.6
449.593	6.61
450.032	6.6
450.471	6.58
450.91	6.56
451.349	6.54
451.787	6.51
452.226	6.49
452.664	6.46
453.103	6.44
453.541	6.41
453.98	6.39
454.418	6.35
454.856	6.33
455.295	6.32
455.733	6.29
456.171	6.28
456.609	6.28
457.047	6.25
457.485	6.24
457.923	6.23
458.361	6.2
458.798	6.19
459.236	6.17
459.674	6.17
460.111	6.15
460.549	6.15
460.987	6.14
461.424	6.14
461.862	6.14
462.299	6.14
462.736	6.13
463.173	6.13
463.611	6.13
464.048	6.14
464.485	6.14
464.922	6.14
465.359	6.15
465.796	6.15
466.233	6.15
466.67	6.16
467.106	6.16
467.543	6.15
467.98	6.15
468.416	6.15
468.853	6.16
469.29	6.16
469.726	6.16
470.162	6.16
470.599	6.16
471.035	6.16
471.471	6.14
471.907	6.13
472.344	6.15
472.78	6.15
473.216	6.13
473.652	6.13
474.088	6.11
474.523	6.11
474.959	6.1
475.395	6.08
475.831	6.06
476.266	6.07
476.702	6.06
477.138	6.04
477.573	6.03
478.008	6.02
478.444	5.98
478.879	5.96
479.314	5.94
479.75	5.92
480.185	5.89
480.62	5.87
481.055	5.85
481.49	5.83
481.925	5.82
482.36	5.8
482.795	5.79
483.229	5.78
483.664	5.79
484.099	5.76
484.534	5.75
484.968	5.76
485.403	5.74
485.837	5.74
486.271	5.74
486.706	5.72
487.14	5.72
487.574	5.71
488.009	5.71
488.443	5.7
488.877	5.7
489.311	5.71
489.745	5.71
490.179	5.71
490.613	5.71
491.046	5.71
491.48	5.72
491.914	5.72
492.348	5.73
492.781	5.74
493.215	5.76
493.648	5.78
494.082	5.8
494.515	5.81
494.948	5.83
495.382	5.85
495.815	5.88
496.248	5.91
496.681	5.95
497.114	5.97
497.547	6
497.98	6.03
498.413	6.05
498.846	6.08
499.279	6.11
499.711	6.14
500.144	6.19
500.577	6.23
501.009	6.27
501.442	6.31
501.874	6.36
502.306	6.4
502.739	6.46
503.171	6.52
503.603	6.58
504.036	6.65
504.468	6.71
504.9	6.77
505.332	6.83
505.764	6.9
506.196	6.99
506.627	7.09
507.059	7.19
507.491	7.29
507.923	7.39
508.354	7.5
508.786	7.62
509.217	7.76
509.649	7.89
510.08	8.03
510.512	8.17
510.943	8.3
511.374	8.44
511.805	8.59
512.237	8.74
512.668	8.89
513.099	9.06
513.53	9.22
513.961	9.38
514.391	9.55
514.822	9.73
515.253	9.92
515.684	10.11
516.114	10.3
516.545	10.5
516.975	10.7
517.406	10.9
517.836	11.1
518.267	11.32
518.697	11.53
519.127	11.73
519.558	11.93
519.988	12.14
520.418	12.34
520.848	12.55
521.278	12.75
521.708	13.05
522.138	13.26
522.567	13.47
522.997	13.66
523.427	13.87
523.857	14.07
524.286	14.25
524.716	14.43
525.145	14.62
525.575	14.81
526.004	15
526.433	15.06
526.863	15.23
527.292	15.39
527.721	15.55
528.15	15.69
528.579	15.84
529.008	15.99
529.437	16.11
529.866	16.25
530.295	16.36
530.724	16.48
531.152	16.6
531.581	16.71
532.01	16.82
532.438	16.91
532.867	17.01
533.295	17.09
533.723	17.18
534.152	17.27
534.58	17.35
535.008	17.42
535.436	17.48
535.865	17.52
536.293	17.57
536.721	17.6
537.149	17.64
537.576	17.69
538.004	17.74
538.432	17.77
538.86	17.8
539.287	17.82
539.715	17.86
540.143	17.89
540.57	17.91
540.998	17.94
541.425	17.98
541.852	18.01
542.28	18.04
542.707	18.07
543.134	18.09
543.561	18.12
543.988	18.15
544.415	18.17
544.842	18.2
545.269	18.24
545.696	18.27
546.123	18.29
546.549	18.32
546.976	18.34
547.403	18.37
547.829	18.4
548.256	18.42
548.682	18.44
549.108	18.47
549.535	18.52
549.961	18.55
550.387	18.56
550.813	18.57
551.24	18.58
551.666	18.58
552.092	18.57
552.518	18.57
552.943	18.57
553.369	18.56
553.795	18.53
554.221	18.49
554.646	18.46
555.072	18.44
555.498	18.4
555.923	18.36
556.349	18.31
556.774	18.26
557.199	18.19
557.625	18.13
558.05	18.07
558.475	18.01
558.9	17.95
559.325	17.88
559.75	17.8
560.175	17.71
560.6	17.63
561.025	17.54
561.449	17.45
561.874	17.37
562.299	17.26
562.723	17.14
563.148	17.01
563.572	16.89
563.997	16.75
564.421	16.61
564.846	16.48
565.27	16.35
565.694	16.22
566.118	16.06
566.542	15.91
566.966	15.77
567.39	15.62
567.814	15.49
568.238	15.34
568.662	15.21
569.086	15.07
569.509	14.93
569.933	14.79
570.357	14.66
570.78	14.53
571.204	14.4
571.627	14.28
572.05	14.16
572.474	14.04
572.897	13.94
573.32	13.82
573.743	13.72
574.166	13.63
574.589	13.52
575.012	13.43
575.435	13.35
575.858	13.27
576.281	13.17
576.704	13.11
577.126	13.02
577.549	12.94
577.972	12.88
578.394	12.81
578.817	12.75
579.239	12.69
579.661	12.63
580.084	12.55
580.506	12.5
580.928	12.44
581.35	12.37
581.772	12.32
582.194	12.27
582.616	12.22
583.038	12.16
583.46	12.11
583.882	12.05
584.303	12
584.725	11.96
585.147	11.9
585.568	11.85
585.99	11.81
586.411	11.76
586.833	11.71
587.254	11.65
587.675	11.61
588.096	11.56
588.518	11.53
588.939	11.49
589.36	11.45
589.781	11.41
590.202	11.38
590.623	11.35
591.043	11.3
591.464	11.29
591.885	11.26
592.305	11.23
592.726	11.2
593.147	11.16
593.567	11.13
593.987	11.11
594.408	11.09
594.828	11.06
595.248	11.04
595.669	11.02
596.089	10.98
596.509	10.97
596.929	10.94
597.349	10.91
597.769	10.88
598.189	10.85
598.608	10.83
599.028	10.8
599.448	10.75
599.867	10.71
600.287	10.68
600.706	10.64
601.126	10.6
601.545	10.56
601.965	10.53
602.384	10.5
602.803	10.46
603.222	10.41
603.641	10.38
604.061	10.35
604.48	10.31
604.898	10.26
605.317	10.22
605.736	10.19
606.155	10.14
606.574	10.09
606.992	10.04
607.411	9.99
607.829	9.93
608.248	9.86
608.666	9.81
609.085	9.76
609.503	9.72
609.921	9.66
610.339	9.61
610.758	9.57
611.176	9.51
611.594	9.47
612.012	9.42
612.43	9.38
612.847	9.35
613.265	9.3
613.683	9.24
614.101	9.2
614.518	9.16
614.936	9.11
615.353	9.06
615.771	9.02
616.188	8.97
616.606	8.94
617.023	8.91
617.44	8.87
617.857	8.85
618.274	8.82
618.691	8.77
619.108	8.74
619.525	8.72
619.942	8.71
620.359	8.69
620.776	8.67
621.192	8.65
621.609	8.63
622.026	8.6
622.442	8.57
622.859	8.56
623.275	8.54
623.691	8.53
624.108	8.52
624.524	8.52
624.94	8.51
625.356	8.5
625.772	8.48
626.188	8.47
626.604	8.47
627.02	8.47
627.436	8.46
627.852	8.45
628.268	8.44
628.683	8.42
629.099	8.41
629.514	8.39
629.93	8.37
630.345	8.37
630.761	8.35
631.176	8.33
631.591	8.31
632.007	8.29
632.422	8.27
632.837	8.23
633.252	8.2
633.667	8.16
634.082	8.12
634.497	8.09
634.911	8.03
635.326	7.99
635.741	7.95
636.155	7.89
636.57	7.84
636.984	7.79
637.399	7.74
637.813	7.69
638.228	7.62
638.642	7.56
639.056	7.5
639.47	7.44
639.884	7.38
640.298	7.31
640.712	7.26
641.126	7.2
641.54	7.13
641.954	7.06
642.368	7
642.781	6.95
643.195	6.91
643.609	6.85
644.022	6.8
644.436	6.76
644.849	6.71
645.262	6.66
645.676	6.62
646.089	6.59
646.502	6.57
646.915	6.56
647.328	6.53
647.741	6.51
648.154	6.49
648.567	6.47
648.98	6.44
649.393	6.43
649.805	6.43
650.218	6.41
650.631	6.4
651.043	6.39
651.456	6.37
651.868	6.35
652.28	6.32
652.693	6.32
653.105	6.31
653.517	6.3
653.929	6.28
654.341	6.27
654.753	6.23
655.165	6.21
655.577	6.2
655.989	6.18
656.401	6.16
656.813	6.14
657.224	6.11
657.636	6.08
658.047	6.05
658.459	6.02
658.87	5.99
659.282	5.97
659.693	5.94
660.104	5.91
660.515	5.88
660.926	5.86
661.338	5.82
661.749	5.81
662.159	5.78
662.57	5.77
662.981	5.76
663.392	5.75
663.803	5.74
664.213	5.73
664.624	5.72
665.035	5.71
665.445	5.71
665.855	5.71
666.266	5.72
666.676	5.73
667.086	5.72
667.497	5.72
667.907	5.72
668.317	5.73
668.727	5.73
669.137	5.74
669.547	5.74
669.956	5.74
670.366	5.75
670.776	5.75
671.186	5.77
671.595	5.78
672.005	5.8
672.414	5.81
672.824	5.82
673.233	5.85
673.642	5.87
674.052	5.88
674.461	5.91
674.87	5.93
675.279	5.96
675.688	5.98
676.097	6
676.506	6.02
676.915	6.04
677.323	6.07
677.732	6.09
678.141	6.11
678.549	6.14
678.958	6.18
679.366	6.21
679.775	6.23
680.183	6.27
680.592	6.31
681	6.34
681.408	6.38
681.816	6.42
682.224	6.46
682.632	6.52
683.04	6.57
683.448	6.62
683.856	6.67
684.264	6.75
684.671	6.82
685.079	6.89
685.487	7.01
685.894	7.11
686.302	7.22
686.709	7.36
687.116	7.5
687.524	7.66
687.931	7.84
688.338	8.04
688.745	8.25
689.152	8.49
689.559	8.75
689.966	9.02
690.373	9.32
690.78	9.64
691.187	9.99
691.593	10.33
692	10.71
692.407	11.08
692.813	11.49
693.22	11.89
693.626	12.33
694.032	12.76
694.439	13.21
694.845	13.67
695.251	14.14
695.657	14.63
696.063	15.13
696.469	15.64
696.875	16.15
697.281	16.66
697.687	17.18
698.093	17.69
698.498	18.22
698.904	18.76
699.31	19.28
699.715	19.8
700.12	20.33
700.526	20.85
700.931	21.38
701.337	21.91
701.742	22.42
702.147	22.95
702.552	23.47
702.957	23.96
703.362	24.46
703.767	24.96
704.172	25.46
704.577	25.94
704.981	26.42
705.386	26.91
705.791	27.37
706.195	27.84
706.6	28.33
707.004	28.81
707.408	29.3
707.813	29.77
708.217	30.23
708.621	30.7
709.025	31.16
709.43	31.61
709.834	32.06
710.237	32.53
710.641	32.99
711.045	33.44
711.449	33.87
711.853	34.31
712.256	34.74
712.66	35.17
713.064	35.58
713.467	36
713.87	36.4
714.274	36.82
714.677	37.25
715.08	37.62
715.484	38.02
715.887	38.44
716.29	38.8
716.693	39.18
717.096	39.58
717.499	39.97
717.901	40.34
718.304	40.74
718.707	41.11
719.109	41.45
719.512	41.82
719.915	42.14
720.317	42.46
720.719	42.78
721.122	43.1
721.524	43.42
721.926	43.73
722.328	44.04
722.731	44.3
723.133	44.58
723.535	44.86
723.937	45.14
724.338	45.41
724.74	45.68
725.142	46
725.544	46.24
725.945	46.48
726.347	46.69
726.748	46.91
727.15	47.13
727.551	47.35
727.952	47.56
728.354	47.76
728.755	47.96
729.156	48.13
729.557	48.23
729.958	48.41
730.359	48.6
730.76	48.77
731.161	48.91
731.562	49.08
731.962	49.21
732.363	49.36
732.763	49.52
733.164	49.65
733.564	49.8
733.965	49.94
734.365	50.07
734.766	50.17
735.166	50.29
735.566	50.42
735.966	50.52
736.366	50.63
736.766	50.7
737.166	50.8
737.566	50.89
737.966	50.96
738.365	51.06
738.765	51.14
739.165	51.22
739.564	51.3
739.964	51.33
740.363	51.38
740.763	51.45
741.162	51.51
741.561	51.54
741.96	51.57
742.36	51.64
742.759	51.7
743.158	51.75
743.557	51.79
743.955	51.86
744.354	51.95
744.753	52.04
745.152	52.11
745.55	52.19
745.949	52.28
746.348	52.36
746.746	52.41
747.144	52.47
747.543	52.51
747.941	52.59
748.339	52.6
748.737	52.61
749.136	52.65
749.534	52.66
749.932	52.67
750.33	52.68
750.727	52.71
751.125	52.75
751.523	52.75
751.921	52.79
752.318	52.79
752.716	52.81
753.113	52.84
753.511	52.84
753.908	52.87
754.305	52.88
754.703	52.87
755.1	52.86
755.497	52.84
755.894	52.81
756.291	52.79
756.688	52.79
757.085	52.8
757.482	52.79
757.878	52.79
758.275	52.76
758.672	52.77
759.068	52.79
759.465	52.8
759.861	52.82
760.258	52.84
760.654	52.87
761.05	52.86
761.447	52.86
761.843	52.85
762.239	52.84
762.635	52.85
763.031	52.83
763.427	52.81
763.822	52.79
764.218	52.79
764.614	52.8
765.01	52.75
765.405	52.74
765.801	52.73
766.196	52.72
766.592	52.75
766.987	52.76
767.382	52.75
767.778	52.77
768.173	52.78
768.568	52.76
768.963	52.77
769.358	52.79
769.753	52.8
770.148	52.79
770.542	52.8
770.937	52.77
771.332	52.74
771.726	52.73
772.121	52.71
772.515	52.7
772.91	52.71
773.304	52.72
773.699	52.73
774.093	52.72
774.487	52.75
774.881	52.78
775.275	52.79
775.669	52.79
776.063	52.8
776.457	52.84
776.851	52.83
777.245	52.81
777.638	52.81
778.032	52.82
778.425	52.86
778.819	52.84
779.212	52.86
779.606	52.87
779.999	52.9
780.392	52.93
780.786	52.92
781.179	52.97
781.572	53
781.965	53
782.358	53
782.751	53
783.143	53.02
783.536	52.99
783.929	53
784.322	53
784.714	53
785.107	53.01
785.499	53.01
785.891	53.03
786.284	53.06
786.676	53.07
787.068	53.06
787.46	53.07
787.852	53.09
788.245	53.11
788.636	53.12
789.028	53.13
789.42	53.13
789.812	53.14
790.204	53.17
790.595	53.18
790.987	53.2
791.378	53.24
791.77	53.24
792.161	53.23
792.553	53.24
792.944	53.23
793.335	53.26
793.726	53.27
794.117	53.28
794.508	53.27
794.899	53.29
795.29	53.29
795.681	53.22
796.072	53.25
796.463	53.28
796.853	53.26
797.244	53.28
797.634	53.28
798.025	53.29
798.415	53.28
798.806	53.27
799.196	53.27
799.586	53.28
799.976	53.33
800.366	53.33
800.756	53.35
801.146	53.4
801.536	53.4
801.926	53.4
802.316	53.4
802.706	53.43
803.095	53.45
803.485	53.43
803.874	53.45
804.264	53.48
804.653	53.49
805.043	53.51
805.432	53.52
805.821	53.55
806.21	53.58
806.599	53.59
806.988	53.6
807.377	53.61
807.766	53.62
808.155	53.6
808.544	53.62
808.933	53.65
809.321	53.62
809.71	53.64
810.098	53.62
810.487	53.59
810.875	53.63
811.264	53.64
811.652	53.68
812.04	53.69
812.428	53.72
812.816	53.7
813.204	53.66
813.592	53.65
813.98	53.65
814.368	53.69
814.756	53.72
815.144	53.72
815.531	53.68
815.919	53.66
816.306	53.67
816.694	53.67
817.081	53.68
817.469	53.72
817.856	53.74
818.243	53.73
818.63	53.73
819.017	53.72
819.404	53.71
819.791	53.74
820.178	53.76
820.565	53.74
820.952	53.73
821.339	53.71
821.725	53.7
822.112	53.73
822.498	53.74
822.885	53.76
823.271	53.74
823.657	53.73
824.044	53.74
824.43	53.71
824.816	53.71
825.202	53.68
825.588	53.7
825.974	53.66
826.36	53.66
826.746	53.6
827.132	53.58
827.517	53.6
827.903	53.6
828.289	53.59
828.674	53.59
829.06	53.58
829.445	53.58
829.83	53.56
830.216	53.54
830.601	53.51
830.986	53.53
831.371	53.48
831.756	53.47
832.141	53.45
832.526	53.44
832.911	53.41
833.295	53.39
833.68	53.39
834.065	53.36
834.449	53.34
834.834	53.32
835.218	53.3
835.603	53.28
835.987	53.23
836.371	53.2
836.755	53.14
837.139	53.11
837.524	53.12
837.908	53.11
838.291	53.1
838.675	53.1
839.059	53.09
839.443	53.06
839.827	53.05
840.21	53.03
840.594	53.05
840.977	53.04
841.361	53.05
841.744	53
842.127	52.96
842.511	52.95
842.894	52.93
843.277	52.92
843.66	52.89
844.043	52.91
844.426	52.91
844.809	52.91
845.191	52.92
845.574	52.91
845.957	52.94
846.339	52.95
846.722	52.96
847.104	52.99
847.487	52.99
847.869	53.01
848.252	53
848.634	53
849.016	53
849.398	53.01
849.78	53
850.162	52.99
850.544	52.99
850.926	52.98
851.307	52.97
851.689	52.98
852.071	52.98
852.452	52.98
852.834	52.97
853.215	52.95
853.597	52.95
853.978	52.94
854.359	52.92
854.741	52.93
855.122	52.95
855.503	52.93
855.884	52.92
856.265	52.92
856.646	52.92
857.026	52.94
857.407	52.97
857.788	52.97
858.169	53.01
858.549	53.04
858.93	53.03
859.31	53.02
859.69	53.05
860.071	53.05
860.451	53.04
860.831	53.04
861.211	53.01
861.591	53
861.971	52.99
862.351	52.99
862.731	53.01
863.111	53.01
863.491	52.99
863.87	52.95
864.25	52.94
864.629	52.95
865.009	52.97
865.388	52.99
865.768	53
866.147	52.97
866.526	52.96
866.905	52.96
867.284	52.95
867.663	52.97
868.042	53.01
868.421	53.04
868.8	53.04
869.179	53.03
869.558	53.03
869.936	53
870.315	53.01
870.693	53.01
871.072	53
871.45	53
871.828	52.99
872.207	52.98
872.585	52.95
872.963	52.93
873.341	52.94
873.719	52.93
874.097	52.94
874.475	52.94
874.853	52.91
875.23	52.9
875.608	52.92
875.986	52.94
876.363	52.94
876.741	52.94
877.118	52.95
877.495	52.98
877.873	52.99
878.25	53.01
878.627	53.03
879.004	53.07
879.381	53.1
879.758	53.09
880.135	53.06
880.512	53.05
880.889	53.05
881.265	53.04
881.642	53.01
882.019	53.01
882.395	52.97
882.772	52.96
883.148	52.93
883.524	52.91
883.901	52.9
884.277	52.88
884.653	52.86
885.029	52.84
885.405	52.83
885.781	52.81
886.157	52.8
886.532	52.81
886.908	52.77
887.284	52.77
887.659	52.74
888.035	52.7
888.411	52.69
888.786	52.67
889.161	52.69
889.537	52.68
889.912	52.68
890.287	52.65
890.662	52.62
891.037	52.62
891.412	52.57
891.787	52.52
892.162	52.53
892.536	52.5
892.911	52.48
893.286	52.44
893.66	52.42
894.035	52.39
894.409	52.36
894.784	52.34
895.158	52.32
895.532	52.34
895.906	52.35
896.281	52.34
896.655	52.33
897.029	52.35
897.402	52.36
897.776	52.37
898.15	52.38
898.524	52.41
898.898	52.42
899.271	52.45
899.645	52.47
900.018	52.49
900.392	52.53
900.765	52.56
901.138	52.56
901.511	52.57
901.884	52.6
902.258	52.63
902.631	52.64
903.003	52.67
903.376	52.66
903.749	52.64
904.122	52.66
904.495	52.66
904.867	52.66
905.24	52.71
905.612	52.74
905.985	52.73
906.357	52.71
906.729	52.72
907.102	52.71
907.474	52.77
907.846	52.76
908.218	52.77
908.59	52.8
908.962	52.82
909.334	52.82
909.705	52.83
910.077	52.85
910.449	52.87
910.82	52.89
911.192	52.92
911.563	52.92
911.935	52.92
912.306	52.92
912.677	52.94
913.048	52.93
913.419	52.92
913.79	52.92
914.161	52.92
914.532	52.91
914.903	52.93
915.274	52.94
915.645	52.95
916.015	52.98
916.386	52.97
916.756	52.94
917.127	52.94
917.497	52.95
917.868	52.93
918.238	52.91
918.608	52.95
918.978	52.94
919.348	52.97
919.718	52.96
920.088	52.98
920.458	52.98
920.828	52.99
921.198	52.98
921.567	52.99
921.937	53.02
922.306	53.04
922.676	53.01
923.045	53
923.415	52.95
923.784	52.94
924.153	52.93
924.522	52.94
924.891	52.97
925.26	52.98
925.629	53.01
925.998	52.99
926.367	53.03
926.736	53.02
927.104	53.04
927.473	53.03
927.842	53
928.21	53.01
928.578	52.97
928.947	52.98
929.315	52.96
929.683	52.93
930.051	52.87
930.42	52.79
930.788	52.78
931.156	52.74
931.523	52.69
931.891	52.72
932.259	52.7
932.627	52.69
932.994	52.62
933.362	52.6
933.729	52.57
934.097	52.6
934.464	52.6
934.831	52.6
935.199	52.63
935.566	52.66
935.933	52.64
936.3	52.64
936.667	52.67
937.034	52.67
937.401	52.69
937.767	52.71
938.134	52.73
938.501	52.79
938.867	52.84
939.234	52.85
939.6	52.91
939.967	52.92
940.333	52.99
940.699	53.07
941.065	53.1
941.431	53.14
941.798	53.14
942.163	53.17
942.529	53.23
942.895	53.23
943.261	53.19
943.627	53.21
943.992	53.25
944.358	53.24
944.723	53.19
945.089	53.21
945.454	53.26
945.82	53.28
946.185	53.24
946.55	53.14
946.915	53.15
947.28	53.2
947.645	53.17
948.01	53.08
948.375	53.05
948.74	53.05
949.104	53.08
949.469	52.97
949.834	52.91
950.198	52.91
950.562	52.87
950.927	52.87
951.291	52.75
951.655	52.68
952.02	52.69
952.384	52.62
952.748	52.57
953.112	52.56
953.476	52.52
953.839	52.52
954.203	52.45
954.567	52.43
954.931	52.37
955.294	52.33
955.658	52.39
956.021	52.36
956.385	52.36
956.748	52.34
957.111	52.25
957.474	52.35
957.837	52.31
958.2	52.29
958.563	52.3
958.926	52.26
959.289	52.34
959.652	52.27
960.015	52.22
960.377	52.17
960.74	52.18
961.102	52.18
961.465	52.12
961.827	52.14
962.189	52.19
962.552	52.11
962.914	52.15
963.276	52.09
963.638	52.09
964	52.14
964.362	52.19
964.724	52.14
965.085	52.1
965.447	52.12
965.809	52.12
966.17	52.09
966.532	52.17
966.893	52.11
967.255	52.13
967.616	52.16
967.977	52.11
968.338	52.09
968.699	52.11
969.061	52.14
969.421	52.15
969.782	52.14
970.143	52.17
970.504	52.16
970.865	52.24
971.225	52.17
971.586	52.14
971.946	52.12
972.307	52.15
972.667	52.12
973.027	52.14
973.388	52.1
973.748	52.12
974.108	52.15
974.468	52.15
974.828	52.15
975.188	52.17
975.548	52.15
975.907	52.22
976.267	52.2
976.627	52.24
976.986	52.18
977.346	52.16
977.705	52.1
978.064	52.03
978.424	51.99
978.783	51.92
979.142	51.95
979.501	51.97
979.86	52.02
980.219	51.98
980.578	52.01
980.937	52.07
981.296	52.1
981.654	52.12
982.013	52.21
982.371	52.29
982.73	52.34
983.088	52.42
983.447	52.43
983.805	52.38
984.163	52.45
984.521	52.43
984.879	52.41
985.237	52.45
985.595	52.53
985.953	52.51
986.311	52.43
986.669	52.47
987.026	52.48
987.384	52.55
987.741	52.57
988.099	52.65
988.456	52.68
988.814	52.72
989.171	52.69
989.528	52.62
989.885	52.63
990.242	52.72
990.599	52.73
990.956	52.7
991.313	52.68
991.67	52.71
992.027	52.72
992.383	52.77
992.74	52.91
993.096	52.9
993.453	52.99
993.809	53.03
994.165	53.09
994.522	53.11
994.878	53.11
995.234	53.19
995.59	53.22
995.946	53.19
996.302	53.28
996.658	53.26
997.013	53.44
997.369	53.5
997.725	53.59
998.08	53.69
998.436	53.76
998.791	53.93
999.147	53.93
999.502	53.9
999.857	53.97
1000.212	53.85
1000.567	53.97
1000.922	53.92
1001.277	53.96
1001.632	53.94
1001.987	53.92
1002.342	53.89
1002.696	53.74
1003.051	53.82
1003.406	53.91
1003.76	53.85
1004.114	53.93
1004.469	53.96
1004.823	54.2
1005.177	54.13
1005.531	54.18
1005.885	54.14
1006.239	54.22
1006.593	54.36
1006.947	54.46
1007.301	54.48
1007.655	54.62
1008.008	54.73
1008.362	54.78
1008.715	54.73
1009.069	54.87
1009.422	54.96
1009.776	55.05
1010.129	55.17
1010.482	55.23
1010.835	55.18
1011.188	55.27
1011.541	55.32
1011.894	55.44
1012.247	55.47
1012.6	55.51
1012.952	55.47
1013.305	55.63
1013.657	55.69
1014.01	55.83
1014.362	55.85
1014.715	55.97
1015.067	56.13
1015.419	56.2
1015.771	56.13
1016.123	56.07
1016.475	56.21
1016.827	56.24
1017.179	56.2
1017.531	56.33
1017.883	56.38
1018.234	56.58
1018.586	56.54
1018.938	56.66
1019.289	56.74
1019.64	56.95
1019.992	57.07
1020.343	57.06
1020.694	57.37
1021.045	57.51
1021.396	57.63
1021.747	57.61
1022.098	57.63
1022.449	57.91
1022.8	58.14
1023.151	58.27
1023.501	58.6
1023.852	58.7
1024.202	58.64
1024.553	58.44
1024.903	58.49
1025.253	58.61
1025.604	58.64
1025.954	58.46
1026.304	58.57
1026.654	58.49
1027.004	58.6
1027.354	58.5
1027.703	58.47
1028.053	58.6
1028.403	59.01
1028.753	58.95
1029.102	58.94
1029.452	58.95
1029.801	59.27
1030.15	59.17
1030.499	59.11
897.758	984.71
901.051	995.85
904.343	993.64
907.636	1013.13
910.928	982.02
914.22	982.46
917.511	968.16
920.803	929.24
924.094	926.33
927.384	906.08
930.675	873.46
933.965	868.72
937.255	814.17
940.544	783.02
943.834	749
947.123	745.15
950.411	701.4
953.7	688.73
956.988	650.17
960.276	623.94
963.563	614.71
966.851	590.98
970.138	587.67
973.424	572.12
976.711	574.62
979.997	544.3
983.283	541.21
986.568	530.71
989.853	515.58
993.138	506.45
996.423	487.73
999.708	475.12
1002.992	469.99
1006.275	449.09
1009.559	445.16
1012.842	428.63
1016.125	418.25
1019.408	410.11
1022.69	406.7
1025.972	397.24
1029.254	388.35
1032.536	382.09
1035.817	376.07
1039.098	371.21
1042.379	364.21
1045.659	359.81
1048.939	351.53
1052.219	345.47
1055.498	340.29
1058.778	331.33
1062.057	326.03
1065.335	323.25
1068.614	319.81
1071.892	315.52
1075.17	306.38
1078.447	301
1081.724	298.96
1085.001	296.19
1088.278	289.65
1091.554	285.41
1094.83	286.4
1098.106	282.89
1101.382	280.3
1104.657	277.76
1107.932	273.24
1111.206	274.43
1114.481	268.56
1117.755	266.25
1121.029	264.43
1124.302	264.4
1127.575	260.21
1130.848	256.44
1134.121	254.8
1137.393	253.25
1140.665	249.27
1143.937	247.13
1147.208	246.55
1150.48	245.25
1153.75	242.05
1157.021	238.73
1160.291	238.67
1163.561	236.38
1166.831	235.4
1170.101	233.56
1173.37	233.07
1176.639	233.13
1179.907	231.77
1183.176	227.94
1186.444	228.02
1189.711	227.66
1192.979	227.9
1196.246	226.35
1199.513	225.82
1202.78	225.98
1206.046	225.1
1209.312	222.96
1212.578	223.64
1215.843	224.78
1219.108	224.3
1222.373	228.33
1225.638	229.14
1228.902	231.65
1232.166	231.54
1235.43	233.4
1238.693	236.03
1241.956	238.34
1245.219	241.83
1248.482	241.38
1251.744	241.62
1255.006	241.87
1258.268	237.2
1261.529	236.09
1264.79	234.72
1268.051	233.62
1271.312	231.45
1274.572	228.33
1277.832	226.44
1281.092	222.49
1284.351	221
1287.61	220.87
1290.869	217.62
1294.128	215.62
1297.386	215.51
1300.644	213.29
1303.902	214.1
1307.159	213.75
1310.416	213.18
1313.673	212.54
1316.93	215.28
1320.186	214.32
1323.442	214.93
1326.697	217.91
1329.953	218.8
1333.208	219.13
1336.463	221.92
1339.717	221.78
1342.972	223.35
1346.226	225.73
1349.479	225.7
1352.733	226.03
1355.986	228.65
1359.238	227.99
1362.491	228.95
1365.743	231.12
1368.995	232.02
1372.247	230.97
1375.498	231.16
1378.749	231.81
1382	228.71
1385.251	229.78
1388.501	227.99
1391.751	227.27
1395	226.24
1398.25	224.75
1401.499	222.79
1404.748	221.26
1407.996	219.02
1411.244	217.66
1414.492	216.2
1417.74	214.35
1420.987	210.84
1424.234	210.16
1427.481	207.9
1430.728	207.83
1433.974	205.38
1437.22	202.77
1440.465	202.92
1443.711	200.4
1446.956	199.09
1450.201	196.97
1453.445	194.68
1456.689	193.98
1459.933	190.74
1463.177	189.34
1466.42	186.25
1469.663	184.57
1472.906	183.59
1476.148	178.42
1479.391	177.42
1482.633	175.82
1485.874	173.87
1489.115	172.78
1492.356	170.53
1495.597	170.51
1498.838	168.04
1502.078	167.23
1505.318	166.66
1508.557	166.92
1511.797	166.85
1515.036	164.74
1518.274	164.96
1521.513	164.21
1524.751	163.94
1527.989	163.77
1531.227	163.08
1534.464	163.2
1537.701	163.15
1540.938	162.36
1544.174	160.33
1547.41	160.94
1550.646	160.65
1553.882	159.94
1557.117	158.2
1560.352	157.31
1563.587	157.33
1566.821	156.48
1570.055	155.86
1573.289	154.19
1576.523	154.82
1579.756	153.48
1582.989	152.61
1586.222	152.88
1589.454	152.48
1592.686	153.28
1595.918	153.4
1599.15	152.82
1602.381	152.94
1605.612	152.33
1608.843	152.68
1612.073	152.49
1615.303	153.77
1618.533	153.59
1621.762	153.21
1624.992	153.88
1628.221	153.35
1631.449	152.59
1634.678	152.44
1637.906	153.38
1641.134	153.45
1644.361	153.24
1647.588	153.27
1650.815	152.89
1654.042	152.45
1657.269	153.36
1660.495	153.11
1663.72	153.11
1666.946	154.12
1670.171	154.76
1673.396	154.83
1676.621	153.87
1679.845	154.85
1683.069	155.05
1686.293	155.62
1689.517	156.77
1692.74	156.32
1695.963	156.32
1699.185	157.5
1702.408	157.82
1705.63	157.88
1708.852	157.9
1712.073	159.17
1715.294	158.89
1718.515	160.16
1721.736	159.92
1724.956	160.08
1728.176	160.24
1731.396	161.32
1734.616	160.68
1737.835	160.85
1741.054	160.12
1744.272	160.1
1747.491	161.6
1750.709	161.69
1753.927	160.64
1757.144	160.79
1760.361	160.63
1763.578	161.41
1766.795	161.09
1770.011	162.9
1773.227	162.24
1776.443	164.11
1779.658	164.82
1782.874	164.06
1786.089	164.48
1789.303	165.1
1792.518	167.13
1795.732	167.08
1798.945	168.1
1802.159	168.21
1805.372	167.7
1808.585	170.76
1811.797	170.88
1815.01	171.58
1818.222	172.88
1821.434	175.15
1824.645	175.33
1827.856	177.41
1831.067	178.96
1834.278	178.8
1837.488	180.53
1840.698	181.85
1843.908	180.56
1847.117	180.9
1850.326	181.63
1853.535	180.47
1856.744	182.14
1859.952	182.01
1863.16	180.23
1866.368	178.76
1869.575	179.21
1872.782	176.58
1875.989	175.39
1879.196	174.82
1882.402	173.75
1885.608	173.28
1888.814	173.4
1892.019	172.48
1895.224	171.5
1898.429	171.42
1901.634	171.81
1904.838	172.66
1908.042	173.2
1911.246	173.01
1914.449	173.18
1917.652	174.12
1920.855	173.68
1924.058	174.05
1927.26	172.75
1930.462	173.68
1933.664	174.41
1936.865	173.24
1940.066	171.93
1943.267	171.71
1946.467	172.8
1949.668	173.1
1952.868	175.13
1956.067	176.07
1959.267	175.24
1962.466	175.84
1965.665	175.11
1968.863	176.11
1972.061	179.52
1975.259	181.2
1978.457	181.85
1981.654	183.22
1984.852	184.16
1988.048	182.65
1991.245	184.98
1994.441	187.39
1997.637	189.2
2000.833	192.59
2004.028	194.98
2007.223	195.22
2010.418	197.04
2013.613	202.09
2016.807	203.73
2020.001	205.4
2023.194	209.52
2026.388	213.41
2029.581	218.04
2032.774	219.85
2035.966	223.43
2039.158	223.81
2042.35	228.06
2045.542	229.88
2048.733	231.74
2051.924	236.03
2055.115	240.23
2058.306	239.96
2061.496	241.86
2064.686	242.48
2067.875	247
2071.065	248.3
2074.254	246.62
2077.442	251.56
2080.631	252.28
2083.819	255.07
2087.007	255.13
2090.195	259.39
2093.382	261.99
2096.569	260.94
2099.756	265.41
2102.942	265.7
2106.128	267.72
2109.314	274.82
2112.5	272.13
2115.685	279.13
2118.87	280.13
2122.055	284.91
2125.239	285.36
2128.424	287.83
2131.608	290.75
2134.791	296.05
2137.974	296.98
2141.157	298.73
2144.34	298.82
2147.523	304.44
2150.705	301.98
2153.887	304.94
2157.068	305.98
2160.25	303.14
2163.431	305.01
2166.611	308.61
2169.792	311.8
2172.972	315.51
2176.152	318.8
2179.331	323.28
2182.511	326.57
2185.69	330.12
2188.868	337.34
2192.047	338.03
2195.225	348.51
2198.403	356.29
2201.58	363.66
2204.758	370.85
2207.935	376.92
2211.111	384.12
2214.288	388.12
2217.464	390.03
2220.64	397.34
2223.815	400.42
2226.991	415.94
2230.166	416.79
2233.34	423.69
2236.515	428.99
2239.689	431.64
2242.863	434.57
2246.036	444.29
2249.209	440
2252.382	448.23
2255.555	459.39
2258.727	461.59
2261.9	466.18
2265.071	470.91
2268.243	480.67
2271.414	486.43
2274.585	493.95
2277.756	499.36
2280.926	504.47
2284.096	518.75
2287.266	529.53
2290.436	534.62
2293.605	546.74
2296.774	561.52
2299.942	578.38
2303.111	580.7
2306.279	592.07
2309.447	601.36
2312.614	616.94
2315.781	632.15
2318.948	661.35
2322.115	650.34
2325.281	687.1
2328.447	676.39
2331.613	700.58
2334.779	692.77
2337.944	721.69
2341.109	728.77
2344.274	746.74
2347.438	775.67
2350.602	778.02
2353.766	802.84
2356.929	816.89
2360.092	809.51
2363.255	863.6
2366.418	864.06
2369.58	881.67
2372.742	936.49
2375.904	960.63
2379.066	958.08
2382.227	933.5
2385.388	1012.15
2388.548	1005.95
2391.709	1019.29
2394.869	1135.21
2398.029	1092.87
2401.188	1122.33
2404.347	1116.27
2407.506	1097.91
2410.665	1129.64
2413.823	1196.31
2416.981	1269.31
2420.139	1229
2423.296	1217.22
2426.453	1273.98
2429.61	1218.18
2432.767	1266.47
2435.923	1254.57
2439.079	1376.8
2442.235	1399.49
2445.391	1386.01
2448.546	1372.62
2451.701	1335.38
2454.855	1331.07
2458.009	1418.53
2461.163	1466.5
2464.317	1528.73
2467.471	1569.88
2470.624	1568
2473.777	1524.56
2476.929	1477.31
2480.082	1435.77
2483.234	1424.93
2486.385	1488.81
2489.537	1497.04
2492.688	1548.94
2495.839	1517.1
2498.989	1481.88
2502.14	1482.94
2505.29	1502
2508.439	1520.09
2511.589	1520.09
2514.738	1659.38
2517.887	1622.66
2521.035	1716.74
2524.183	1733.19
2527.331	1742.03
2530.479	1722.96
2533.627	1736.34
