Data from C_3_DEC_ON_6N_Splice17_14-24-25-997.txt Node
Date: Sat Mar 07 14:24:25 EST 2020
User: sa697716
Spectrometer: NQ5500242
Trigger mode: 0
Integration Time (sec): 1.450000E-1
Scans to average: 20
Nonlinearity correction enabled: false
Boxcar width: 5
Storing dark spectrum: false
XAxis mode: Wavelengths
Number of Pixels in Spectrum: 512
>>>>>Begin Spectral Data<<<<<
187.83	54.38
188.298	59.68
188.766	35.17
189.233	51
189.701	36.3
190.169	34.89
190.636	6.45
191.104	-63.25
191.571	-196.18
192.039	-198.43
192.506	-369.84
192.974	183.47
193.441	170
193.908	89.62
194.375	82.87
194.842	0.52
195.31	30.17
195.777	-135.24
196.244	47.44
196.711	65.99
197.177	70.41
197.644	70.68
198.111	70.87
198.578	71.6
199.045	71.87
199.511	71.85
199.978	71.98
200.445	72.01
200.911	71.99
201.378	72.26
201.844	72.09
202.31	71.76
202.777	71.74
203.243	71.62
203.709	71.02
204.176	70.29
204.642	70.07
205.108	69.55
205.574	68.82
206.04	68.27
206.506	67.36
206.972	66.96
207.438	66.05
207.903	65.25
208.369	63.79
208.835	62.5
209.301	60.9
209.766	59.1
210.232	57.4
210.697	55.78
211.163	54.2
211.628	52.84
212.094	51.2
212.559	50.08
213.024	48.82
213.49	47.74
213.955	46.62
214.42	45.77
214.885	44.41
215.35	42.79
215.815	40.4
216.28	37.56
216.745	34.43
217.21	31.21
217.675	28.19
218.14	25.49
218.604	23.19
219.069	21.22
219.534	19.55
219.998	18.25
220.463	17.16
220.927	16.26
221.392	15.57
221.856	14.92
222.32	14.4
222.785	13.94
223.249	13.54
223.713	13.17
224.177	12.89
224.642	12.62
225.106	12.3
225.57	12.04
226.034	11.78
226.497	11.53
226.961	11.34
227.425	11.14
227.889	10.95
228.353	10.76
228.816	10.59
229.28	10.4
229.744	10.22
230.207	10.07
230.671	9.92
231.134	9.76
231.597	9.62
232.061	9.47
232.524	9.35
232.987	9.21
233.45	9.1
233.914	8.98
234.377	8.87
234.84	8.75
235.303	8.65
235.766	8.56
236.229	8.47
236.691	8.4
237.154	8.31
237.617	8.22
238.08	8.15
238.542	8.06
239.005	7.99
239.468	7.92
239.93	7.86
240.393	7.79
240.855	7.7
241.317	7.64
241.78	7.55
242.242	7.47
242.704	7.41
243.166	7.34
243.629	7.27
244.091	7.2
244.553	7.13
245.015	7.06
245.477	6.99
245.939	6.94
246.4	6.88
246.862	6.82
247.324	6.77
247.786	6.72
248.247	6.66
248.709	6.6
249.17	6.54
249.632	6.49
250.093	6.43
250.555	6.38
251.016	6.33
251.477	6.28
251.939	6.24
252.4	6.19
252.861	6.15
253.322	6.11
253.783	6.08
254.244	6.06
254.705	6.03
255.166	5.99
255.627	5.95
256.088	5.93
256.549	5.9
257.009	5.86
257.47	5.83
257.931	5.79
258.391	5.75
258.852	5.7
259.312	5.66
259.773	5.62
260.233	5.59
260.694	5.56
261.154	5.52
261.614	5.48
262.074	5.45
262.534	5.41
262.994	5.39
263.455	5.37
263.915	5.34
264.374	5.31
264.834	5.29
265.294	5.27
265.754	5.25
266.214	5.22
266.673	5.19
267.133	5.18
267.593	5.16
268.052	5.14
268.512	5.13
268.971	5.11
269.431	5.1
269.89	5.08
270.349	5.07
270.809	5.05
271.268	5.04
271.727	5.03
272.186	5.02
272.645	5.02
273.104	5
273.563	4.98
274.022	4.97
274.481	4.97
274.94	4.96
275.399	4.95
275.857	4.95
276.316	4.95
276.775	4.94
277.233	4.93
277.692	4.93
278.15	4.92
278.609	4.92
279.067	4.92
279.525	4.91
279.984	4.9
280.442	4.88
280.9	4.88
281.358	4.86
281.816	4.86
282.274	4.85
282.732	4.85
283.19	4.84
283.648	4.83
284.106	4.82
284.564	4.82
285.021	4.83
285.479	4.83
285.937	4.83
286.394	4.83
286.852	4.82
287.309	4.81
287.767	4.8
288.224	4.78
288.682	4.77
289.139	4.76
289.596	4.74
290.053	4.72
290.511	4.7
290.968	4.68
291.425	4.67
291.882	4.65
292.339	4.63
292.796	4.62
293.252	4.61
293.709	4.6
294.166	4.6
294.623	4.59
295.079	4.58
295.536	4.57
295.992	4.56
296.449	4.56
296.905	4.55
297.362	4.55
297.818	4.53
298.274	4.54
298.731	4.53
299.187	4.51
299.643	4.51
300.099	4.51
300.555	4.5
301.011	4.49
301.467	4.48
301.923	4.48
302.379	4.47
302.835	4.47
303.291	4.46
303.746	4.46
304.202	4.46
304.658	4.46
305.113	4.45
305.569	4.46
306.024	4.46
306.479	4.46
306.935	4.46
307.39	4.46
307.845	4.47
308.301	4.47
308.756	4.47
309.211	4.47
309.666	4.48
310.121	4.49
310.576	4.49
311.031	4.49
311.486	4.5
311.94	4.52
312.395	4.52
312.85	4.53
313.305	4.54
313.759	4.55
314.214	4.55
314.668	4.55
315.123	4.54
315.577	4.53
316.032	4.53
316.486	4.51
316.94	4.5
317.394	4.48
317.849	4.47
318.303	4.45
318.757	4.44
319.211	4.43
319.665	4.41
320.119	4.4
320.572	4.39
321.026	4.39
321.48	4.38
321.934	4.37
322.387	4.37
322.841	4.37
323.295	4.37
323.748	4.36
324.202	4.36
324.655	4.35
325.108	4.36
325.562	4.36
326.015	4.35
326.468	4.35
326.921	4.35
327.374	4.35
327.827	4.34
328.28	4.33
328.733	4.34
329.186	4.35
329.639	4.35
330.092	4.35
330.545	4.36
330.997	4.36
331.45	4.37
331.903	4.38
332.355	4.39
332.808	4.39
333.26	4.4
333.713	4.4
334.165	4.4
334.617	4.41
335.069	4.41
335.522	4.41
335.974	4.41
336.426	4.41
336.878	4.41
337.33	4.42
337.782	4.42
338.234	4.42
338.686	4.42
339.137	4.43
339.589	4.42
340.041	4.42
340.493	4.4
340.944	4.39
341.396	4.37
341.847	4.36
342.299	4.33
342.75	4.31
343.201	4.29
343.653	4.28
344.104	4.25
344.555	4.24
345.006	4.22
345.457	4.22
345.908	4.21
346.359	4.22
346.81	4.2
347.261	4.2
347.712	4.2
348.163	4.19
348.613	4.19
349.064	4.19
349.515	4.2
349.965	4.19
350.416	4.19
350.866	4.19
351.317	4.18
351.767	4.18
352.217	4.18
352.668	4.18
353.118	4.19
353.568	4.19
354.018	4.19
354.468	4.19
354.918	4.2
355.368	4.21
355.818	4.21
356.268	4.22
356.718	4.23
357.168	4.22
357.617	4.22
358.067	4.23
358.517	4.25
358.966	4.25
359.416	4.25
359.865	4.25
360.315	4.26
360.764	4.27
361.213	4.27
361.663	4.26
362.112	4.26
362.561	4.28
363.01	4.27
363.459	4.26
363.908	4.25
364.357	4.25
364.806	4.25
365.255	4.25
365.703	4.26
366.152	4.27
366.601	4.27
367.05	4.28
367.498	4.28
367.947	4.29
368.395	4.29
368.844	4.31
369.292	4.31
369.74	4.32
370.189	4.33
370.637	4.32
371.085	4.32
371.533	4.32
371.981	4.32
372.429	4.33
372.877	4.34
373.325	4.34
373.773	4.34
374.221	4.34
374.669	4.34
375.116	4.34
375.564	4.35
376.012	4.36
376.459	4.37
376.907	4.38
377.354	4.38
377.801	4.39
378.249	4.39
378.696	4.4
379.143	4.41
379.591	4.42
380.038	4.44
380.485	4.45
380.932	4.46
381.379	4.47
381.826	4.49
382.273	4.5
382.72	4.51
383.166	4.52
383.613	4.53
384.06	4.53
384.506	4.54
384.953	4.55
385.4	4.56
385.846	4.58
386.292	4.6
386.739	4.6
387.185	4.62
387.631	4.65
388.078	4.65
388.524	4.66
388.97	4.67
389.416	4.69
389.862	4.71
390.308	4.74
390.754	4.76
391.2	4.77
391.645	4.8
392.091	4.82
392.537	4.84
392.983	4.87
393.428	4.9
393.874	4.93
394.319	4.94
394.765	4.95
395.21	4.95
395.655	4.96
396.101	4.98
396.546	5
396.991	5.01
397.436	5.01
397.881	5.03
398.326	5.05
398.771	5.07
399.216	5.09
399.661	5.11
400.106	5.14
400.551	5.16
400.995	5.14
401.44	5.14
401.885	5.15
402.329	5.16
402.774	5.15
403.218	5.17
403.663	5.19
404.107	5.21
404.551	5.22
404.995	5.22
405.44	5.23
405.884	5.26
406.328	5.28
406.772	5.28
407.216	5.3
407.66	5.32
408.104	5.31
408.547	5.31
408.991	5.31
409.435	5.32
409.879	5.32
410.322	5.33
410.766	5.35
411.209	5.36
411.653	5.38
412.096	5.41
412.54	5.41
412.983	5.43
413.426	5.47
413.869	5.49
414.312	5.51
414.756	5.54
415.199	5.55
415.642	5.56
416.085	5.58
416.527	5.57
416.97	5.56
417.413	5.57
417.856	5.56
418.298	5.54
418.741	5.52
419.184	5.52
419.626	5.51
420.069	5.52
420.511	5.52
420.953	5.51
421.396	5.54
421.838	5.54
422.28	5.55
422.722	5.58
423.164	5.6
423.606	5.63
424.048	5.64
424.49	5.65
424.932	5.64
425.374	5.63
425.816	5.63
426.258	5.61
426.699	5.59
427.141	5.57
427.582	5.57
428.024	5.57
428.465	5.58
428.907	5.57
429.348	5.57
429.789	5.56
430.231	5.58
430.672	5.6
431.113	5.63
431.554	5.66
431.995	5.7
432.436	5.69
432.877	5.69
433.318	5.71
433.759	5.73
434.2	5.75
434.64	5.78
435.081	5.79
435.522	5.81
435.962	5.83
436.403	5.85
436.843	5.88
437.284	5.89
437.724	5.91
438.164	5.9
438.604	5.91
439.045	5.93
439.485	5.93
439.925	5.93
440.365	5.92
440.805	5.93
441.245	5.93
441.685	5.93
442.125	5.95
442.564	5.96
443.004	5.97
443.444	5.99
443.883	6
444.323	6.01
444.762	6.03
445.202	6.05
445.641	6.07
446.081	6.1
446.52	6.09
446.959	6.12
447.398	6.14
447.837	6.15
448.276	6.15
448.716	6.15
449.154	6.18
449.593	6.18
450.032	6.18
450.471	6.17
450.91	6.15
451.349	6.14
451.787	6.12
452.226	6.11
452.664	6.11
453.103	6.11
453.541	6.09
453.98	6.07
454.418	6.05
454.856	6.03
455.295	6.01
455.733	5.99
456.171	5.98
456.609	5.96
457.047	5.94
457.485	5.92
457.923	5.9
458.361	5.88
458.798	5.87
459.236	5.86
459.674	5.86
460.111	5.86
460.549	5.85
460.987	5.85
461.424	5.85
461.862	5.85
462.299	5.86
462.736	5.84
463.173	5.85
463.611	5.85
464.048	5.85
464.485	5.85
464.922	5.85
465.359	5.86
465.796	5.87
466.233	5.88
466.67	5.9
467.106	5.91
467.543	5.92
467.98	5.93
468.416	5.92
468.853	5.94
469.29	5.93
469.726	5.95
470.162	5.94
470.599	5.94
471.035	5.91
471.471	5.89
471.907	5.88
472.344	5.89
472.78	5.89
473.216	5.88
473.652	5.88
474.088	5.87
474.523	5.86
474.959	5.86
475.395	5.85
475.831	5.85
476.266	5.85
476.702	5.84
477.138	5.83
477.573	5.82
478.008	5.81
478.444	5.79
478.879	5.78
479.314	5.77
479.75	5.77
480.185	5.75
480.62	5.74
481.055	5.73
481.49	5.71
481.925	5.71
482.36	5.7
482.795	5.69
483.229	5.69
483.664	5.68
484.099	5.67
484.534	5.67
484.968	5.67
485.403	5.67
485.837	5.68
486.271	5.69
486.706	5.68
487.14	5.69
487.574	5.69
488.009	5.7
488.443	5.7
488.877	5.71
489.311	5.73
489.745	5.74
490.179	5.76
490.613	5.77
491.046	5.78
491.48	5.81
491.914	5.83
492.348	5.87
492.781	5.9
493.215	5.93
493.648	5.97
494.082	6
494.515	6.04
494.948	6.09
495.382	6.13
495.815	6.19
496.248	6.24
496.681	6.3
497.114	6.35
497.547	6.41
497.98	6.47
498.413	6.52
498.846	6.58
499.279	6.64
499.711	6.71
500.144	6.79
500.577	6.86
501.009	6.93
501.442	7.02
501.874	7.11
502.306	7.2
502.739	7.3
503.171	7.41
503.603	7.52
504.036	7.64
504.468	7.75
504.9	7.86
505.332	7.99
505.764	8.11
506.196	8.25
506.627	8.4
507.059	8.54
507.491	8.69
507.923	8.84
508.354	9
508.786	9.17
509.217	9.35
509.649	9.54
510.08	9.72
510.512	9.92
510.943	10.11
511.374	10.31
511.805	10.51
512.237	10.72
512.668	10.94
513.099	11.17
513.53	11.4
513.961	11.62
514.391	11.85
514.822	12.09
515.253	12.31
515.684	12.55
516.114	12.79
516.545	13.02
516.975	13.28
517.406	13.52
517.836	13.75
518.267	14
518.697	14.25
519.127	14.49
519.558	14.72
519.988	14.97
520.418	15.21
520.848	15.43
521.278	15.67
521.708	15.99
522.138	16.22
522.567	16.44
522.997	16.65
523.427	16.86
523.857	17.06
524.286	17.26
524.716	17.45
525.145	17.64
525.575	17.83
526.004	18.01
526.433	18.08
526.863	18.24
527.292	18.41
527.721	18.58
528.15	18.72
528.579	18.86
529.008	19.01
529.437	19.15
529.866	19.28
530.295	19.4
530.724	19.53
531.152	19.65
531.581	19.76
532.01	19.86
532.438	19.96
532.867	20.05
533.295	20.13
533.723	20.21
534.152	20.26
534.58	20.33
535.008	20.39
535.436	20.45
535.865	20.5
536.293	20.55
536.721	20.59
537.149	20.62
537.576	20.65
538.004	20.71
538.432	20.75
538.86	20.78
539.287	20.81
539.715	20.87
540.143	20.89
540.57	20.92
540.998	20.95
541.425	20.98
541.852	21.01
542.28	21.05
542.707	21.07
543.134	21.1
543.561	21.13
543.988	21.17
544.415	21.17
544.842	21.2
545.269	21.23
545.696	21.26
546.123	21.29
546.549	21.33
546.976	21.37
547.403	21.39
547.829	21.42
548.256	21.45
548.682	21.47
549.108	21.5
549.535	21.52
549.961	21.54
550.387	21.56
550.813	21.57
551.24	21.56
551.666	21.57
552.092	21.58
552.518	21.58
552.943	21.56
553.369	21.55
553.795	21.53
554.221	21.52
554.646	21.5
555.072	21.47
555.498	21.43
555.923	21.41
556.349	21.35
556.774	21.3
557.199	21.26
557.625	21.21
558.05	21.15
558.475	21.1
558.9	21.04
559.325	20.98
559.75	20.91
560.175	20.84
560.6	20.76
561.025	20.68
561.449	20.58
561.874	20.47
562.299	20.36
562.723	20.25
563.148	20.13
563.572	19.99
563.997	19.87
564.421	19.73
564.846	19.6
565.27	19.47
565.694	19.35
566.118	19.21
566.542	19.06
566.966	18.93
567.39	18.78
567.814	18.64
568.238	18.5
568.662	18.35
569.086	18.22
569.509	18.07
569.933	17.93
570.357	17.78
570.78	17.64
571.204	17.51
571.627	17.39
572.05	17.27
572.474	17.16
572.897	17.06
573.32	16.95
573.743	16.85
574.166	16.75
574.589	16.64
575.012	16.54
575.435	16.44
575.858	16.35
576.281	16.26
576.704	16.16
577.126	16.07
577.549	15.98
577.972	15.9
578.394	15.81
578.817	15.73
579.239	15.66
579.661	15.6
580.084	15.54
580.506	15.48
580.928	15.41
581.35	15.33
581.772	15.27
582.194	15.22
582.616	15.16
583.038	15.11
583.46	15.05
583.882	14.99
584.303	14.91
584.725	14.85
585.147	14.79
585.568	14.74
585.99	14.7
586.411	14.65
586.833	14.58
587.254	14.52
587.675	14.46
588.096	14.41
588.518	14.37
588.939	14.35
589.36	14.3
589.781	14.26
590.202	14.22
590.623	14.18
591.043	14.14
591.464	14.1
591.885	14.06
592.305	14.04
592.726	14.01
593.147	13.97
593.567	13.94
593.987	13.9
594.408	13.88
594.828	13.84
595.248	13.81
595.669	13.78
596.089	13.76
596.509	13.73
596.929	13.69
597.349	13.67
597.769	13.64
598.189	13.6
598.608	13.57
599.028	13.52
599.448	13.49
599.867	13.44
600.287	13.4
600.706	13.36
601.126	13.32
601.545	13.29
601.965	13.25
602.384	13.2
602.803	13.15
603.222	13.11
603.641	13.07
604.061	13.03
604.48	12.97
604.898	12.92
605.317	12.87
605.736	12.82
606.155	12.75
606.574	12.69
606.992	12.62
607.411	12.57
607.829	12.48
608.248	12.41
608.666	12.34
609.085	12.29
609.503	12.24
609.921	12.17
610.339	12.11
610.758	12.07
611.176	12.01
611.594	11.95
612.012	11.89
612.43	11.86
612.847	11.81
613.265	11.76
613.683	11.7
614.101	11.64
614.518	11.58
614.936	11.52
615.353	11.46
615.771	11.4
616.188	11.36
616.606	11.31
617.023	11.26
617.44	11.23
617.857	11.18
618.274	11.14
618.691	11.1
619.108	11.08
619.525	11.06
619.942	11.03
620.359	11
620.776	10.97
621.192	10.95
621.609	10.93
622.026	10.9
622.442	10.88
622.859	10.86
623.275	10.84
623.691	10.81
624.108	10.79
624.524	10.79
624.94	10.79
625.356	10.78
625.772	10.77
626.188	10.76
626.604	10.76
627.02	10.74
627.436	10.74
627.852	10.73
628.268	10.73
628.683	10.72
629.099	10.71
629.514	10.69
629.93	10.68
630.345	10.66
630.761	10.63
631.176	10.59
631.591	10.56
632.007	10.52
632.422	10.48
632.837	10.42
633.252	10.36
633.667	10.3
634.082	10.24
634.497	10.17
634.911	10.09
635.326	10.02
635.741	9.94
636.155	9.85
636.57	9.77
636.984	9.68
637.399	9.58
637.813	9.5
638.228	9.39
638.642	9.27
639.056	9.17
639.47	9.07
639.884	8.97
640.298	8.87
640.712	8.76
641.126	8.67
641.54	8.57
641.954	8.47
642.368	8.37
642.781	8.29
643.195	8.2
643.609	8.12
644.022	8.03
644.436	7.95
644.849	7.88
645.262	7.8
645.676	7.73
646.089	7.66
646.502	7.6
646.915	7.56
647.328	7.5
647.741	7.46
648.154	7.41
648.567	7.38
648.98	7.33
649.393	7.3
649.805	7.29
650.218	7.26
650.631	7.24
651.043	7.21
651.456	7.19
651.868	7.17
652.28	7.16
652.693	7.14
653.105	7.12
653.517	7.1
653.929	7.08
654.341	7.04
654.753	7.01
655.165	6.99
655.577	6.95
655.989	6.91
656.401	6.87
656.813	6.83
657.224	6.78
657.636	6.74
658.047	6.7
658.459	6.65
658.87	6.61
659.282	6.55
659.693	6.5
660.104	6.44
660.515	6.39
660.926	6.35
661.338	6.3
661.749	6.27
662.159	6.22
662.57	6.19
662.981	6.15
663.392	6.12
663.803	6.09
664.213	6.05
664.624	6.03
665.035	6.01
665.445	5.98
665.855	5.95
666.266	5.94
666.676	5.93
667.086	5.89
667.497	5.87
667.907	5.86
668.317	5.86
668.727	5.85
669.137	5.85
669.547	5.85
669.956	5.85
670.366	5.86
670.776	5.85
671.186	5.85
671.595	5.87
672.005	5.88
672.414	5.89
672.824	5.9
673.233	5.91
673.642	5.93
674.052	5.94
674.461	5.96
674.87	5.98
675.279	6
675.688	6.03
676.097	6.05
676.506	6.09
676.915	6.12
677.323	6.16
677.732	6.19
678.141	6.22
678.549	6.26
678.958	6.31
679.366	6.37
679.775	6.42
680.183	6.47
680.592	6.56
681	6.62
681.408	6.7
681.816	6.78
682.224	6.87
682.632	6.97
683.04	7.09
683.448	7.2
683.856	7.33
684.264	7.46
684.671	7.62
685.079	7.78
685.487	7.97
685.894	8.2
686.302	8.43
686.709	8.69
687.116	8.96
687.524	9.27
687.931	9.59
688.338	9.93
688.745	10.3
689.152	10.67
689.559	11.09
689.966	11.52
690.373	11.95
690.78	12.4
691.187	12.87
691.593	13.35
692	13.85
692.407	14.36
692.813	14.89
693.22	15.42
693.626	15.96
694.032	16.49
694.439	17.02
694.845	17.57
695.251	18.13
695.657	18.67
696.063	19.22
696.469	19.76
696.875	20.3
697.281	20.84
697.687	21.37
698.093	21.92
698.498	22.45
698.904	22.98
699.31	23.5
699.715	24
700.12	24.5
700.526	25.01
700.931	25.51
701.337	25.99
701.742	26.44
702.147	26.91
702.552	27.37
702.957	27.8
703.362	28.23
703.767	28.65
704.172	29.08
704.577	29.48
704.981	29.88
705.386	30.28
705.791	30.67
706.195	31.07
706.6	31.45
707.004	31.81
707.408	32.19
707.813	32.57
708.217	32.92
708.621	33.28
709.025	33.6
709.43	33.92
709.834	34.27
710.237	34.58
710.641	34.9
711.045	35.19
711.449	35.5
711.853	35.82
712.256	36.1
712.66	36.4
713.064	36.66
713.467	36.97
713.87	37.26
714.274	37.49
714.677	37.77
715.08	38.02
715.484	38.31
715.887	38.57
716.29	38.8
716.693	39.05
717.096	39.29
717.499	39.55
717.901	39.77
718.304	40
718.707	40.25
719.109	40.47
719.512	40.7
719.915	40.91
720.317	41.1
720.719	41.29
721.122	41.48
721.524	41.68
721.926	41.84
722.328	42.05
722.731	42.22
723.133	42.41
723.535	42.57
723.937	42.72
724.338	42.87
724.74	43.04
725.142	43.24
725.544	43.39
725.945	43.53
726.347	43.67
726.748	43.79
727.15	43.9
727.551	44.03
727.952	44.12
728.354	44.25
728.755	44.34
729.156	44.44
729.557	44.51
729.958	44.6
730.359	44.71
730.76	44.83
731.161	44.91
731.562	45.04
731.962	45.08
732.363	45.17
732.763	45.25
733.164	45.35
733.564	45.42
733.965	45.49
734.365	45.56
734.766	45.61
735.166	45.66
735.566	45.72
735.966	45.78
736.366	45.86
736.766	45.91
737.166	45.95
737.566	46.01
737.966	46.05
738.365	46.1
738.765	46.15
739.165	46.19
739.564	46.26
739.964	46.28
740.363	46.28
740.763	46.33
741.162	46.4
741.561	46.44
741.96	46.46
742.36	46.49
742.759	46.53
743.158	46.55
743.557	46.57
743.955	46.59
744.354	46.63
744.753	46.69
745.152	46.72
745.55	46.74
745.949	46.8
746.348	46.85
746.746	46.89
747.144	46.93
747.543	46.97
747.941	47.01
748.339	47.01
748.737	47.04
749.136	47.05
749.534	47.07
749.932	47.08
750.33	47.06
750.727	47.07
751.125	47.06
751.523	47.05
751.921	47.05
752.318	47.05
752.716	47.05
753.113	47.05
753.511	47.03
753.908	47.03
754.305	47.03
754.703	47.01
755.1	47.01
755.497	47.01
755.894	46.99
756.291	47
756.688	46.98
757.085	46.98
757.482	46.98
757.878	46.99
758.275	46.96
758.672	46.96
759.068	46.98
759.465	46.96
759.861	46.97
760.258	46.98
760.654	46.97
761.05	46.98
761.447	46.99
761.843	46.97
762.239	46.96
762.635	46.95
763.031	46.93
763.427	46.89
763.822	46.91
764.218	46.9
764.614	46.89
765.01	46.88
765.405	46.87
765.801	46.86
766.196	46.86
766.592	46.87
766.987	46.91
767.382	46.92
767.778	46.95
768.173	46.94
768.568	46.94
768.963	46.96
769.358	46.99
769.753	47
770.148	47.03
770.542	47.03
770.937	47.03
771.332	47.01
771.726	47.03
772.121	47.01
772.515	47.02
772.91	47.02
773.304	47.02
773.699	47.01
774.093	46.98
774.487	46.95
774.881	46.98
775.275	47.01
775.669	47
776.063	46.98
776.457	46.99
776.851	46.98
777.245	46.99
777.638	46.99
778.032	46.99
778.425	47.04
778.819	47.04
779.212	47.06
779.606	47.05
779.999	47.05
780.392	47.07
780.786	47.11
781.179	47.12
781.572	47.15
781.965	47.16
782.358	47.2
782.751	47.18
783.143	47.19
783.536	47.18
783.929	47.18
784.322	47.21
784.714	47.22
785.107	47.24
785.499	47.27
785.891	47.28
786.284	47.31
786.676	47.31
787.068	47.31
787.46	47.34
787.852	47.37
788.245	47.39
788.636	47.39
789.028	47.42
789.42	47.4
789.812	47.41
790.204	47.42
790.595	47.4
790.987	47.43
791.378	47.48
791.77	47.47
792.161	47.43
792.553	47.46
792.944	47.46
793.335	47.46
793.726	47.48
794.117	47.47
794.508	47.45
794.899	47.44
795.29	47.45
795.681	47.41
796.072	47.44
796.463	47.47
796.853	47.47
797.244	47.47
797.634	47.48
798.025	47.5
798.415	47.52
798.806	47.53
799.196	47.57
799.586	47.56
799.976	47.58
800.366	47.6
800.756	47.63
801.146	47.67
801.536	47.72
801.926	47.71
802.316	47.71
802.706	47.75
803.095	47.78
803.485	47.8
803.874	47.82
804.264	47.85
804.653	47.86
805.043	47.87
805.432	47.86
805.821	47.85
806.21	47.89
806.599	47.91
806.988	47.9
807.377	47.92
807.766	47.93
808.155	47.94
808.544	47.92
808.933	47.93
809.321	47.93
809.71	47.95
810.098	47.96
810.487	47.95
810.875	47.96
811.264	47.96
811.652	47.97
812.04	47.98
812.428	48.01
812.816	48.01
813.204	47.99
813.592	47.98
813.98	47.98
814.368	48.02
814.756	48.02
815.144	48.02
815.531	48.02
815.919	48.04
816.306	48.04
816.694	48.03
817.081	48.09
817.469	48.12
817.856	48.12
818.243	48.1
818.63	48.08
819.017	48.09
819.404	48.1
819.791	48.11
820.178	48.09
820.565	48.07
820.952	48.07
821.339	48.03
821.725	48.04
822.112	48.06
822.498	48.1
822.885	48.1
823.271	48.09
823.657	48.07
824.044	48.06
824.43	48.08
824.816	48.09
825.202	48.07
825.588	48.07
825.974	48.04
826.36	48.02
826.746	48
827.132	48.01
827.517	48.01
827.903	48.03
828.289	48.02
828.674	48.02
829.06	47.99
829.445	47.96
829.83	47.98
830.216	47.97
830.601	47.96
830.986	47.95
831.371	47.93
831.756	47.92
832.141	47.9
832.526	47.88
832.911	47.85
833.295	47.84
833.68	47.84
834.065	47.81
834.449	47.79
834.834	47.78
835.218	47.76
835.603	47.76
835.987	47.72
836.371	47.69
836.755	47.65
837.139	47.64
837.524	47.64
837.908	47.66
838.291	47.66
838.675	47.66
839.059	47.66
839.443	47.63
839.827	47.6
840.21	47.62
840.594	47.64
840.977	47.65
841.361	47.66
841.744	47.61
842.127	47.57
842.511	47.55
842.894	47.55
843.277	47.54
843.66	47.53
844.043	47.57
844.426	47.55
844.809	47.55
845.191	47.55
845.574	47.54
845.957	47.58
846.339	47.61
846.722	47.61
847.104	47.62
847.487	47.61
847.869	47.63
848.252	47.61
848.634	47.61
849.016	47.62
849.398	47.62
849.78	47.64
850.162	47.62
850.544	47.62
850.926	47.64
851.307	47.65
851.689	47.65
852.071	47.66
852.452	47.68
852.834	47.68
853.215	47.69
853.597	47.71
853.978	47.71
854.359	47.72
854.741	47.72
855.122	47.71
855.503	47.69
855.884	47.68
856.265	47.69
856.646	47.69
857.026	47.73
857.407	47.74
857.788	47.73
858.169	47.74
858.549	47.74
858.93	47.74
859.31	47.76
859.69	47.77
860.071	47.8
860.451	47.79
860.831	47.78
861.211	47.73
861.591	47.73
861.971	47.75
862.351	47.74
862.731	47.75
863.111	47.75
863.491	47.75
863.87	47.75
864.25	47.73
864.629	47.73
865.009	47.74
865.388	47.75
865.768	47.74
866.147	47.71
866.526	47.71
866.905	47.7
867.284	47.72
867.663	47.72
868.042	47.72
868.421	47.72
868.8	47.74
869.179	47.74
869.558	47.74
869.936	47.74
870.315	47.72
870.693	47.71
871.072	47.71
871.45	47.71
871.828	47.69
872.207	47.69
872.585	47.67
872.963	47.66
873.341	47.64
873.719	47.66
874.097	47.67
874.475	47.71
874.853	47.73
875.23	47.76
875.608	47.74
875.986	47.77
876.363	47.77
876.741	47.81
877.118	47.81
877.495	47.82
877.873	47.83
878.25	47.85
878.627	47.87
879.004	47.85
879.381	47.85
879.758	47.84
880.135	47.84
880.512	47.83
880.889	47.81
881.265	47.78
881.642	47.78
882.019	47.76
882.395	47.74
882.772	47.72
883.148	47.7
883.524	47.67
883.901	47.68
884.277	47.65
884.653	47.63
885.029	47.61
885.405	47.62
885.781	47.61
886.157	47.6
886.532	47.58
886.908	47.54
887.284	47.53
887.659	47.48
888.035	47.44
888.411	47.43
888.786	47.44
889.161	47.45
889.537	47.46
889.912	47.42
890.287	47.4
890.662	47.39
891.037	47.4
891.412	47.39
891.787	47.4
892.162	47.41
892.536	47.4
892.911	47.36
893.286	47.33
893.66	47.3
894.035	47.3
894.409	47.3
894.784	47.32
895.158	47.31
895.532	47.31
895.906	47.31
896.281	47.31
896.655	47.32
897.029	47.34
897.402	47.35
897.776	47.38
898.15	47.39
898.524	47.4
898.898	47.39
899.271	47.4
899.645	47.43
900.018	47.43
900.392	47.43
900.765	47.44
901.138	47.46
901.511	47.45
901.884	47.44
902.258	47.45
902.631	47.46
903.003	47.47
903.376	47.47
903.749	47.46
904.122	47.49
904.495	47.51
904.867	47.52
905.24	47.54
905.612	47.57
905.985	47.57
906.357	47.55
906.729	47.57
907.102	47.56
907.474	47.57
907.846	47.56
908.218	47.55
908.59	47.55
908.962	47.57
909.334	47.57
909.705	47.57
910.077	47.59
910.449	47.61
910.82	47.61
911.192	47.62
911.563	47.61
911.935	47.63
912.306	47.65
912.677	47.64
913.048	47.63
913.419	47.61
913.79	47.62
914.161	47.64
914.532	47.63
914.903	47.64
915.274	47.62
915.645	47.65
916.015	47.65
916.386	47.65
916.756	47.65
917.127	47.68
917.497	47.71
917.868	47.71
918.238	47.71
918.608	47.75
918.978	47.74
919.348	47.77
919.718	47.77
920.088	47.77
920.458	47.77
920.828	47.76
921.198	47.74
921.567	47.73
921.937	47.75
922.306	47.74
922.676	47.7
923.045	47.71
923.415	47.68
923.784	47.7
924.153	47.71
924.522	47.69
924.891	47.69
925.26	47.69
925.629	47.71
925.998	47.66
926.367	47.69
926.736	47.69
927.104	47.7
927.473	47.69
927.842	47.64
928.21	47.66
928.578	47.68
928.947	47.71
929.315	47.69
929.683	47.64
930.051	47.61
930.42	47.55
930.788	47.53
931.156	47.5
931.523	47.46
931.891	47.5
932.259	47.48
932.627	47.42
932.994	47.38
933.362	47.36
933.729	47.36
934.097	47.37
934.464	47.37
934.831	47.36
935.199	47.4
935.566	47.41
935.933	47.37
936.3	47.37
936.667	47.4
937.034	47.45
937.401	47.5
937.767	47.5
938.134	47.55
938.501	47.57
938.867	47.68
939.234	47.67
939.6	47.73
939.967	47.81
940.333	47.81
940.699	47.92
941.065	47.95
941.431	47.96
941.798	47.99
942.163	48.03
942.529	48.07
942.895	48.03
943.261	48.07
943.627	48.1
943.992	48.06
944.358	48.11
944.723	48.05
945.089	48.04
945.454	48.11
945.82	48.16
946.185	48.17
946.55	48.16
946.915	48.2
947.28	48.16
947.645	48.18
948.01	48.23
948.375	48.2
948.74	48.22
949.104	48.2
949.469	48.14
949.834	48.13
950.198	48.1
950.562	48.05
950.927	47.97
951.291	47.94
951.655	47.83
952.02	47.79
952.384	47.75
952.748	47.67
953.112	47.62
953.476	47.55
953.839	47.5
954.203	47.45
954.567	47.41
954.931	47.39
955.294	47.37
955.658	47.41
956.021	47.37
956.385	47.27
956.748	47.23
957.111	47.2
957.474	47.17
957.837	47.09
958.2	47.05
958.563	47.03
958.926	47
959.289	46.98
959.652	46.9
960.015	46.88
960.377	46.94
960.74	46.98
961.102	46.97
961.465	47
961.827	47
962.189	47.03
962.552	46.98
962.914	46.97
963.276	46.93
963.638	46.95
964	46.92
964.362	46.91
964.724	46.84
965.085	46.82
965.447	46.78
965.809	46.81
966.17	46.76
966.532	46.8
966.893	46.81
967.255	46.83
967.616	46.8
967.977	46.81
968.338	46.78
968.699	46.82
969.061	46.84
969.421	46.86
969.782	46.86
970.143	46.87
970.504	46.87
970.865	46.89
971.225	46.87
971.586	46.91
971.946	46.92
972.307	46.88
972.667	46.9
973.027	46.95
973.388	46.99
973.748	47
974.108	47.06
974.468	47
974.828	47.03
975.188	47.07
975.548	47.06
975.907	47.04
976.267	47.06
976.627	47.02
976.986	46.94
977.346	46.84
977.705	46.79
978.064	46.73
978.424	46.79
978.783	46.74
979.142	46.68
979.501	46.68
979.86	46.75
980.219	46.84
980.578	46.88
980.937	46.9
981.296	46.91
981.654	46.96
982.013	46.97
982.371	46.92
982.73	46.97
983.088	47.04
983.447	47.03
983.805	46.95
984.163	46.89
984.521	46.86
984.879	46.88
985.237	46.96
985.595	46.98
985.953	47
986.311	47.02
986.669	47.03
987.026	47.06
987.384	47.12
987.741	47.14
988.099	47.19
988.456	47.23
988.814	47.25
989.171	47.19
989.528	47.21
989.885	47.26
990.242	47.32
990.599	47.35
990.956	47.37
991.313	47.37
991.67	47.43
992.027	47.53
992.383	47.58
992.74	47.68
993.096	47.78
993.453	47.76
993.809	47.76
994.165	47.77
994.522	47.8
994.878	47.8
995.234	47.74
995.59	47.76
995.946	47.73
996.302	47.77
996.658	47.82
997.013	47.86
997.369	47.9
997.725	47.9
998.08	48.03
998.436	48.05
998.791	48.15
999.147	48.22
999.502	48.3
999.857	48.25
1000.212	48.17
1000.567	48.08
1000.922	48.11
1001.277	48.21
1001.632	48.22
1001.987	48.22
1002.342	48.2
1002.696	48.19
1003.051	48.32
1003.406	48.41
1003.76	48.55
1004.114	48.62
1004.469	48.74
1004.823	48.93
1005.177	49
1005.531	49.09
1005.885	49.01
1006.239	49.12
1006.593	49.09
1006.947	49.07
1007.301	48.96
1007.655	49.02
1008.008	49.16
1008.362	49.17
1008.715	49.1
1009.069	49.2
1009.422	49.26
1009.776	49.46
1010.129	49.57
1010.482	49.67
1010.835	49.85
1011.188	50.04
1011.541	50.08
1011.894	50.14
1012.247	50.27
1012.6	50.32
1012.952	50.33
1013.305	50.52
1013.657	50.69
1014.01	50.58
1014.362	50.74
1014.715	50.8
1015.067	50.89
1015.419	51.01
1015.771	50.95
1016.123	51.1
1016.475	51.21
1016.827	51.4
1017.179	51.44
1017.531	51.47
1017.883	51.71
1018.234	51.79
1018.586	51.73
1018.938	51.76
1019.289	51.75
1019.64	51.98
1019.992	51.73
1020.343	51.76
1020.694	51.68
1021.045	51.74
1021.396	51.67
1021.747	51.97
1022.098	52.04
1022.449	52.19
1022.8	52.35
1023.151	52.59
1023.501	52.62
1023.852	52.85
1024.202	52.91
1024.553	53.04
1024.903	53.07
1025.253	53.39
1025.604	53.27
1025.954	53.17
1026.304	53.32
1026.654	53.37
1027.004	53.34
1027.354	53.47
1027.703	53.62
1028.053	53.62
1028.403	53.82
1028.753	53.77
1029.102	53.93
1029.452	54.14
1029.801	54.59
1030.15	54.66
1030.499	54.62
897.758	949.88
901.051	955.29
904.343	955.74
907.636	972.79
910.928	941.6
914.22	941.11
917.511	927.89
920.803	886.22
924.094	885.46
927.384	861.64
930.675	827.32
933.965	823.35
937.255	773.32
940.544	740.89
943.834	706.94
947.123	704.25
950.411	663.07
953.7	650.99
956.988	616.03
960.276	591.26
963.563	584.72
966.851	561.12
970.138	556.73
973.424	540.95
976.711	544.18
979.997	516.81
983.283	513.51
986.568	503.63
989.853	489.91
993.138	480.09
996.423	462.72
999.708	450.05
1002.992	445.35
1006.275	426.9
1009.559	424.16
1012.842	408.68
1016.125	398
1019.408	389.56
1022.69	385.76
1025.972	376.98
1029.254	369.18
1032.536	362.33
1035.817	355.31
1039.098	351.27
1042.379	343.43
1045.659	339.34
1048.939	331.25
1052.219	325.43
1055.498	322.26
1058.778	313.82
1062.057	308.19
1065.335	305.4
1068.614	301.99
1071.892	297.53
1075.17	289.49
1078.447	284.64
1081.724	282.16
1085.001	279.79
1088.278	273.8
1091.554	268.92
1094.83	269.88
1098.106	267.47
1101.382	264.32
1104.657	262.2
1107.932	259.16
1111.206	260.04
1114.481	254.32
1117.755	252.43
1121.029	250.58
1124.302	250.75
1127.575	245.86
1130.848	242.6
1134.121	240.26
1137.393	239.27
1140.665	235.29
1143.937	232.49
1147.208	232.02
1150.48	231.07
1153.75	226.71
1157.021	223.9
1160.291	223.88
1163.561	221.38
1166.831	221.23
1170.101	219.07
1173.37	219.4
1176.639	219.11
1179.907	218.21
1183.176	214.74
1186.444	214.87
1189.711	215.58
1192.979	215.33
1196.246	213.65
1199.513	214.59
1202.78	212.95
1206.046	212.75
1209.312	210.41
1212.578	211.1
1215.843	211.92
1219.108	211.92
1222.373	215.08
1225.638	215.96
1228.902	218.39
1232.166	218.34
1235.43	220.31
1238.693	223.57
1241.956	224.74
1245.219	227.81
1248.482	227.94
1251.744	227.81
1255.006	227.76
1258.268	223.24
1261.529	221.9
1264.79	221.54
1268.051	220.07
1271.312	217.11
1274.572	214.34
1277.832	212.96
1281.092	209.98
1284.351	207.89
1287.61	208.4
1290.869	204.91
1294.128	203.89
1297.386	203.64
1300.644	200.98
1303.902	202.17
1307.159	201.5
1310.416	200.99
1313.673	200.26
1316.93	201.67
1320.186	202.1
1323.442	201.86
1326.697	205.35
1329.953	206.22
1333.208	206.51
1336.463	209.02
1339.717	209.05
1342.972	211.28
1346.226	213.26
1349.479	213.94
1352.733	215.11
1355.986	216.04
1359.238	215.97
1362.491	216.22
1365.743	218.15
1368.995	218.89
1372.247	217.77
1375.498	217.92
1378.749	217.57
1382	215.56
1385.251	216.28
1388.501	214.42
1391.751	214.03
1395	213.62
1398.25	211.62
1401.499	209.51
1404.748	208.32
1407.996	206.16
1411.244	205.16
1414.492	204.68
1417.74	200.77
1420.987	198.07
1424.234	198.15
1427.481	196
1430.728	195.37
1433.974	193.96
1437.22	191.87
1440.465	191.45
1443.711	189.15
1446.956	187.52
1450.201	185.12
1453.445	185.14
1456.689	183.64
1459.933	180.45
1463.177	178.68
1466.42	176.58
1469.663	174.06
1472.906	173.4
1476.148	169.06
1479.391	167.73
1482.633	166.91
1485.874	164.93
1489.115	163.39
1492.356	161.94
1495.597	161.17
1498.838	159.67
1502.078	158.37
1505.318	158.24
1508.557	158.03
1511.797	157.95
1515.036	155.9
1518.274	155.46
1521.513	154.52
1524.751	154.37
1527.989	154.03
1531.227	153.82
1534.464	153.63
1537.701	153.33
1540.938	152.73
1544.174	150.97
1547.41	151.56
1550.646	151.66
1553.882	151.26
1557.117	149.71
1560.352	149.07
1563.587	148.56
1566.821	147.52
1570.055	147.29
1573.289	145.21
1576.523	145.61
1579.756	144.62
1582.989	143.56
1586.222	143.46
1589.454	142.73
1592.686	143.9
1595.918	143.35
1599.15	142.88
1602.381	143.54
1605.612	142.65
1608.843	143.51
1612.073	143.25
1615.303	144.03
1618.533	144.36
1621.762	144.22
1624.992	145.1
1628.221	144.71
1631.449	143.96
1634.678	144.59
1637.906	144.62
1641.134	144.33
1644.361	144.26
1647.588	144.44
1650.815	144.23
1654.042	144
1657.269	144.68
1660.495	144.24
1663.72	143.75
1666.946	145.01
1670.171	145.04
1673.396	145.19
1676.621	145.13
1679.845	145.65
1683.069	145.87
1686.293	146.57
1689.517	146.89
1692.74	146.78
1695.963	147.22
1699.185	148.88
1702.408	148.28
1705.63	148.34
1708.852	148.9
1712.073	149.51
1715.294	149.65
1718.515	150.65
1721.736	150.2
1724.956	150.61
1728.176	150.6
1731.396	151.51
1734.616	150.45
1737.835	151.5
1741.054	150.97
1744.272	150.95
1747.491	152.36
1750.709	152.81
1753.927	152.2
1757.144	152.56
1760.361	152.53
1763.578	153.12
1766.795	152.49
1770.011	154.07
1773.227	153.51
1776.443	155.25
1779.658	155.73
1782.874	155.19
1786.089	154.88
1789.303	155.64
1792.518	156.95
1795.732	156.9
1798.945	158
1802.159	158.3
1805.372	158.05
1808.585	161.39
1811.797	161.12
1815.01	161.68
1818.222	162.99
1821.434	165.57
1824.645	165.72
1827.856	167.76
1831.067	169.05
1834.278	169.52
1837.488	170.73
1840.698	172.18
1843.908	170.31
1847.117	171.06
1850.326	172.1
1853.535	170.35
1856.744	171.81
1859.952	171.6
1863.16	170.03
1866.368	169.13
1869.575	169.41
1872.782	167.57
1875.989	166.01
1879.196	165.79
1882.402	164.95
1885.608	164.29
1888.814	164.95
1892.019	164.1
1895.224	163.77
1898.429	163.03
1901.634	163.49
1904.838	163.15
1908.042	164.08
1911.246	164.39
1914.449	164.38
1917.652	164.68
1920.855	164.65
1924.058	164.88
1927.26	163.77
1930.462	163.88
1933.664	165.5
1936.865	164.14
1940.066	164.12
1943.267	163.21
1946.467	163.92
1949.668	164.89
1952.868	166.74
1956.067	167.45
1959.267	167.67
1962.466	168.21
1965.665	167.34
1968.863	168.11
1972.061	171.61
1975.259	173.01
1978.457	174.6
1981.654	175.62
1984.852	175.9
1988.048	175
1991.245	177.52
1994.441	178.6
1997.637	180.25
2000.833	184.02
2004.028	186.25
2007.223	185.91
2010.418	187.35
2013.613	191.21
2016.807	193.64
2020.001	194.61
2023.194	198.71
2026.388	202.04
2029.581	207.57
2032.774	208.52
2035.966	212.59
2039.158	213.04
2042.35	217.59
2045.542	218.89
2048.733	220.74
2051.924	224.5
2055.115	229.2
2058.306	228.67
2061.496	230.67
2064.686	230.97
2067.875	235.82
2071.065	236.29
2074.254	234.45
2077.442	238.86
2080.631	240.59
2083.819	243.48
2087.007	242.32
2090.195	245.73
2093.382	248.35
2096.569	247.19
2099.756	250.66
2102.942	251.45
2106.128	253.78
2109.314	260.79
2112.5	258.7
2115.685	265.16
2118.87	265.95
2122.055	271.48
2125.239	272.74
2128.424	275.07
2131.608	276.61
2134.791	281.67
2137.974	282.22
2141.157	282.89
2144.34	283.35
2147.523	289.32
2150.705	286.44
2153.887	289.46
2157.068	290.37
2160.25	287.62
2163.431	289.1
2166.611	293.05
2169.792	296.87
2172.972	299.22
2176.152	304.14
2179.331	307.16
2182.511	309.75
2185.69	313.54
2188.868	318.73
2192.047	319.09
2195.225	328.9
2198.403	338.44
2201.58	344.79
2204.758	351.51
2207.935	358.61
2211.111	363.9
2214.288	368.62
2217.464	369.36
2220.64	376.91
2223.815	381.16
2226.991	397.86
2230.166	398.28
2233.34	402.47
2236.515	409.99
2239.689	410.93
2242.863	413.47
2246.036	422.8
2249.209	419.56
2252.382	429.4
2255.555	439.81
2258.727	442.26
2261.9	445.15
2265.071	449.79
2268.243	458.32
2271.414	462.84
2274.585	472.01
2277.756	477.15
2280.926	481.68
2284.096	496.19
2287.266	503.61
2290.436	506.82
2293.605	518.74
2296.774	532.19
2299.942	548.48
2303.111	551.84
2306.279	560.92
2309.447	569.32
2312.614	586.46
2315.781	601.53
2318.948	626.16
2322.115	618.57
2325.281	653.58
2328.447	642.79
2331.613	668.49
2334.779	660.37
2337.944	690.59
2341.109	699.99
2344.274	719.53
2347.438	743.94
2350.602	744.17
2353.766	764.94
2356.929	777.5
2360.092	772.01
2363.255	823.47
2366.418	822.14
2369.58	837.82
2372.742	888.78
2375.904	910.6
2379.066	904.3
2382.227	883.92
2385.388	957.64
2388.548	962.59
2391.709	971.94
2394.869	1078.52
2398.029	1037.9
2401.188	1072.15
2404.347	1064.68
2407.506	1045.23
2410.665	1074.36
2413.823	1134.33
2416.981	1203.61
2420.139	1168.62
2423.296	1148.55
2426.453	1203.54
2429.61	1165.37
2432.767	1214.15
2435.923	1197.16
2439.079	1320.72
2442.235	1340.41
2445.391	1328.35
2448.546	1319.67
2451.701	1283.4
2454.855	1281.26
2458.009	1366.3
2461.163	1419.36
2464.317	1463.65
2467.471	1499.4
2470.624	1499.67
2473.777	1448.69
2476.929	1407.81
2480.082	1366.61
2483.234	1357.49
2486.385	1425.35
2489.537	1430.16
2492.688	1482.69
2495.839	1450.99
2498.989	1414.6
2502.14	1420.7
2505.29	1434.92
2508.439	1454.51
2511.589	1451.46
2514.738	1591.62
2517.887	1554.32
2521.035	1633.84
2524.183	1654.13
2527.331	1661
2530.479	1636.68
2533.627	1655.19
