Data from C_3_HIR_IL_4N_Splice17_14-27-27-259.txt Node
Date: Sat Mar 07 14:27:27 EST 2020
User: sa697716
Spectrometer: NQ5500242
Trigger mode: 0
Integration Time (sec): 1.450000E-1
Scans to average: 20
Nonlinearity correction enabled: false
Boxcar width: 5
Storing dark spectrum: false
XAxis mode: Wavelengths
Number of Pixels in Spectrum: 512
>>>>>Begin Spectral Data<<<<<
187.83	175.32
188.298	204.06
188.766	176.44
189.233	147.64
189.701	140.4
190.169	153.61
190.636	179.71
191.104	203.86
191.571	169.47
192.039	260.33
192.506	14.92
192.974	105.9
193.441	220.34
193.908	69.61
194.375	63.61
194.842	-2.97
195.31	-7.65
195.777	63.77
196.244	67.22
196.711	74.07
197.177	74.22
197.644	74.52
198.111	73.82
198.578	74.45
199.045	75.39
199.511	75.33
199.978	75.19
200.445	75.42
200.911	75.42
201.378	75.62
201.844	75.44
202.31	75.08
202.777	74.93
203.243	75.08
203.709	74.42
204.176	73.74
204.642	73.15
205.108	72.95
205.574	72.1
206.04	71.07
206.506	70.33
206.972	70.1
207.438	69.58
207.903	68.64
208.369	66.98
208.835	65.93
209.301	64.18
209.766	62.35
210.232	60.53
210.697	58.9
211.163	57.56
211.628	56.17
212.094	54.39
212.559	53.09
213.024	51.63
213.49	50.39
213.955	49.04
214.42	47.93
214.885	46.57
215.35	44.66
215.815	42.16
216.28	38.94
216.745	35.46
217.21	32.14
217.675	29.01
218.14	26.23
218.604	23.85
219.069	21.85
219.534	20.14
219.998	18.76
220.463	17.61
220.927	16.62
221.392	15.83
221.856	15.19
222.32	14.61
222.785	14.11
223.249	13.69
223.713	13.29
224.177	12.97
224.642	12.64
225.106	12.31
225.57	12.01
226.034	11.75
226.497	11.51
226.961	11.27
227.425	11.05
227.889	10.86
228.353	10.66
228.816	10.46
229.28	10.25
229.744	10.07
230.207	9.91
230.671	9.76
231.134	9.6
231.597	9.46
232.061	9.31
232.524	9.19
232.987	9.05
233.45	8.93
233.914	8.8
234.377	8.69
234.84	8.6
235.303	8.5
235.766	8.4
236.229	8.32
236.691	8.23
237.154	8.15
237.617	8.06
238.08	7.99
238.542	7.91
239.005	7.85
239.468	7.78
239.93	7.7
240.393	7.63
240.855	7.56
241.317	7.5
241.78	7.42
242.242	7.34
242.704	7.27
243.166	7.2
243.629	7.13
244.091	7.06
244.553	6.99
245.015	6.93
245.477	6.86
245.939	6.8
246.4	6.72
246.862	6.67
247.324	6.62
247.786	6.56
248.247	6.5
248.709	6.44
249.17	6.36
249.632	6.31
250.093	6.26
250.555	6.21
251.016	6.16
251.477	6.11
251.939	6.06
252.4	6.02
252.861	5.98
253.322	5.94
253.783	5.91
254.244	5.88
254.705	5.84
255.166	5.81
255.627	5.77
256.088	5.75
256.549	5.72
257.009	5.69
257.47	5.65
257.931	5.61
258.391	5.56
258.852	5.52
259.312	5.48
259.773	5.45
260.233	5.41
260.694	5.37
261.154	5.32
261.614	5.29
262.074	5.25
262.534	5.21
262.994	5.19
263.455	5.16
263.915	5.14
264.374	5.11
264.834	5.09
265.294	5.06
265.754	5.04
266.214	5.03
266.673	5.01
267.133	5
267.593	4.98
268.052	4.96
268.512	4.95
268.971	4.94
269.431	4.92
269.89	4.91
270.349	4.89
270.809	4.87
271.268	4.87
271.727	4.86
272.186	4.84
272.645	4.83
273.104	4.82
273.563	4.81
274.022	4.8
274.481	4.8
274.94	4.79
275.399	4.77
275.857	4.76
276.316	4.75
276.775	4.74
277.233	4.74
277.692	4.73
278.15	4.72
278.609	4.71
279.067	4.7
279.525	4.69
279.984	4.69
280.442	4.68
280.9	4.69
281.358	4.69
281.816	4.68
282.274	4.68
282.732	4.69
283.19	4.69
283.648	4.68
284.106	4.69
284.564	4.69
285.021	4.69
285.479	4.69
285.937	4.68
286.394	4.68
286.852	4.67
287.309	4.67
287.767	4.65
288.224	4.64
288.682	4.62
289.139	4.61
289.596	4.59
290.053	4.56
290.511	4.55
290.968	4.53
291.425	4.51
291.882	4.49
292.339	4.47
292.796	4.47
293.252	4.45
293.709	4.44
294.166	4.43
294.623	4.43
295.079	4.42
295.536	4.42
295.992	4.4
296.449	4.39
296.905	4.38
297.362	4.37
297.818	4.35
298.274	4.35
298.731	4.34
299.187	4.33
299.643	4.32
300.099	4.31
300.555	4.3
301.011	4.3
301.467	4.29
301.923	4.29
302.379	4.29
302.835	4.29
303.291	4.29
303.746	4.28
304.202	4.29
304.658	4.29
305.113	4.28
305.569	4.29
306.024	4.29
306.479	4.29
306.935	4.29
307.39	4.29
307.845	4.3
308.301	4.3
308.756	4.31
309.211	4.31
309.666	4.31
310.121	4.32
310.576	4.32
311.031	4.33
311.486	4.34
311.94	4.34
312.395	4.34
312.85	4.34
313.305	4.34
313.759	4.34
314.214	4.35
314.668	4.34
315.123	4.34
315.577	4.33
316.032	4.32
316.486	4.32
316.94	4.32
317.394	4.31
317.849	4.29
318.303	4.28
318.757	4.27
319.211	4.26
319.665	4.25
320.119	4.23
320.572	4.22
321.026	4.2
321.48	4.19
321.934	4.17
322.387	4.16
322.841	4.16
323.295	4.16
323.748	4.15
324.202	4.16
324.655	4.16
325.108	4.16
325.562	4.16
326.015	4.16
326.468	4.17
326.921	4.17
327.374	4.17
327.827	4.18
328.28	4.17
328.733	4.17
329.186	4.16
329.639	4.16
330.092	4.17
330.545	4.17
330.997	4.17
331.45	4.18
331.903	4.2
332.355	4.21
332.808	4.22
333.26	4.24
333.713	4.24
334.165	4.24
334.617	4.25
335.069	4.25
335.522	4.27
335.974	4.28
336.426	4.27
336.878	4.26
337.33	4.25
337.782	4.25
338.234	4.25
338.686	4.25
339.137	4.25
339.589	4.24
340.041	4.25
340.493	4.24
340.944	4.22
341.396	4.22
341.847	4.2
342.299	4.18
342.75	4.16
343.201	4.15
343.653	4.13
344.104	4.11
344.555	4.1
345.006	4.08
345.457	4.06
345.908	4.05
346.359	4.04
346.81	4.03
347.261	4.03
347.712	4.02
348.163	4.01
348.613	4.01
349.064	4.01
349.515	4.01
349.965	4.01
350.416	4.01
350.866	4.01
351.317	4.01
351.767	4.02
352.217	4.02
352.668	4.02
353.118	4.03
353.568	4.03
354.018	4.04
354.468	4.05
354.918	4.06
355.368	4.06
355.818	4.06
356.268	4.06
356.718	4.06
357.168	4.06
357.617	4.06
358.067	4.06
358.517	4.07
358.966	4.07
359.416	4.07
359.865	4.06
360.315	4.07
360.764	4.07
361.213	4.07
361.663	4.06
362.112	4.07
362.561	4.07
363.01	4.07
363.459	4.05
363.908	4.05
364.357	4.05
364.806	4.05
365.255	4.05
365.703	4.06
366.152	4.07
366.601	4.08
367.05	4.08
367.498	4.08
367.947	4.08
368.395	4.09
368.844	4.1
369.292	4.1
369.74	4.11
370.189	4.11
370.637	4.11
371.085	4.11
371.533	4.12
371.981	4.13
372.429	4.14
372.877	4.16
373.325	4.16
373.773	4.16
374.221	4.17
374.669	4.17
375.116	4.18
375.564	4.18
376.012	4.2
376.459	4.2
376.907	4.22
377.354	4.23
377.801	4.24
378.249	4.26
378.696	4.27
379.143	4.28
379.591	4.3
380.038	4.32
380.485	4.33
380.932	4.35
381.379	4.37
381.826	4.38
382.273	4.4
382.72	4.4
383.166	4.41
383.613	4.43
384.06	4.44
384.506	4.45
384.953	4.47
385.4	4.49
385.846	4.51
386.292	4.52
386.739	4.53
387.185	4.55
387.631	4.59
388.078	4.6
388.524	4.62
388.97	4.65
389.416	4.68
389.862	4.7
390.308	4.73
390.754	4.76
391.2	4.79
391.645	4.81
392.091	4.85
392.537	4.88
392.983	4.91
393.428	4.93
393.874	4.96
394.319	4.98
394.765	5
395.21	5.01
395.655	5.03
396.101	5.05
396.546	5.06
396.991	5.08
397.436	5.09
397.881	5.13
398.326	5.16
398.771	5.19
399.216	5.22
399.661	5.25
400.106	5.27
400.551	5.29
400.995	5.29
401.44	5.3
401.885	5.32
402.329	5.34
402.774	5.35
403.218	5.37
403.663	5.39
404.107	5.41
404.551	5.42
404.995	5.44
405.44	5.45
405.884	5.48
406.328	5.5
406.772	5.51
407.216	5.53
407.66	5.54
408.104	5.54
408.547	5.53
408.991	5.55
409.435	5.55
409.879	5.57
410.322	5.58
410.766	5.6
411.209	5.63
411.653	5.65
412.096	5.68
412.54	5.69
412.983	5.71
413.426	5.75
413.869	5.78
414.312	5.82
414.756	5.84
415.199	5.86
415.642	5.88
416.085	5.89
416.527	5.89
416.97	5.87
417.413	5.87
417.856	5.88
418.298	5.86
418.741	5.86
419.184	5.85
419.626	5.86
420.069	5.85
420.511	5.86
420.953	5.85
421.396	5.87
421.838	5.88
422.28	5.89
422.722	5.92
423.164	5.93
423.606	5.94
424.048	5.95
424.49	5.95
424.932	5.95
425.374	5.94
425.816	5.92
426.258	5.89
426.699	5.88
427.141	5.86
427.582	5.86
428.024	5.87
428.465	5.88
428.907	5.87
429.348	5.86
429.789	5.86
430.231	5.89
430.672	5.92
431.113	5.97
431.554	6
431.995	6.03
432.436	6.04
432.877	6.05
433.318	6.07
433.759	6.08
434.2	6.11
434.64	6.13
435.081	6.14
435.522	6.15
435.962	6.17
436.403	6.2
436.843	6.21
437.284	6.22
437.724	6.23
438.164	6.22
438.604	6.23
439.045	6.24
439.485	6.24
439.925	6.24
440.365	6.24
440.805	6.23
441.245	6.23
441.685	6.23
442.125	6.25
442.564	6.26
443.004	6.27
443.444	6.27
443.883	6.28
444.323	6.28
444.762	6.28
445.202	6.27
445.641	6.28
446.081	6.28
446.52	6.28
446.959	6.29
447.398	6.31
447.837	6.31
448.276	6.31
448.716	6.31
449.154	6.32
449.593	6.33
450.032	6.34
450.471	6.33
450.91	6.31
451.349	6.31
451.787	6.28
452.226	6.25
452.664	6.25
453.103	6.23
453.541	6.21
453.98	6.2
454.418	6.15
454.856	6.13
455.295	6.11
455.733	6.07
456.171	6.04
456.609	6.01
457.047	5.98
457.485	5.96
457.923	5.94
458.361	5.93
458.798	5.91
459.236	5.91
459.674	5.91
460.111	5.89
460.549	5.91
460.987	5.92
461.424	5.92
461.862	5.93
462.299	5.93
462.736	5.92
463.173	5.91
463.611	5.9
464.048	5.91
464.485	5.91
464.922	5.91
465.359	5.91
465.796	5.89
466.233	5.91
466.67	5.9
467.106	5.91
467.543	5.91
467.98	5.92
468.416	5.91
468.853	5.9
469.29	5.9
469.726	5.89
470.162	5.89
470.599	5.89
471.035	5.86
471.471	5.86
471.907	5.85
472.344	5.84
472.78	5.86
473.216	5.85
473.652	5.84
474.088	5.81
474.523	5.82
474.959	5.8
475.395	5.77
475.831	5.76
476.266	5.76
476.702	5.74
477.138	5.73
477.573	5.7
478.008	5.7
478.444	5.68
478.879	5.68
479.314	5.66
479.75	5.66
480.185	5.65
480.62	5.64
481.055	5.62
481.49	5.6
481.925	5.58
482.36	5.57
482.795	5.54
483.229	5.54
483.664	5.52
484.099	5.51
484.534	5.49
484.968	5.48
485.403	5.47
485.837	5.47
486.271	5.47
486.706	5.45
487.14	5.45
487.574	5.44
488.009	5.43
488.443	5.44
488.877	5.44
489.311	5.44
489.745	5.44
490.179	5.45
490.613	5.45
491.046	5.45
491.48	5.46
491.914	5.47
492.348	5.49
492.781	5.51
493.215	5.52
493.648	5.54
494.082	5.55
494.515	5.56
494.948	5.58
495.382	5.61
495.815	5.63
496.248	5.65
496.681	5.68
497.114	5.71
497.547	5.73
497.98	5.75
498.413	5.78
498.846	5.82
499.279	5.86
499.711	5.88
500.144	5.92
500.577	5.97
501.009	6.01
501.442	6.05
501.874	6.09
502.306	6.14
502.739	6.2
503.171	6.26
503.603	6.32
504.036	6.39
504.468	6.46
504.9	6.52
505.332	6.59
505.764	6.68
506.196	6.77
506.627	6.87
507.059	6.97
507.491	7.05
507.923	7.16
508.354	7.28
508.786	7.4
509.217	7.52
509.649	7.65
510.08	7.78
510.512	7.91
510.943	8.05
511.374	8.2
511.805	8.36
512.237	8.51
512.668	8.67
513.099	8.82
513.53	8.99
513.961	9.17
514.391	9.35
514.822	9.55
515.253	9.73
515.684	9.9
516.114	10.1
516.545	10.3
516.975	10.5
517.406	10.7
517.836	10.9
518.267	11.12
518.697	11.32
519.127	11.52
519.558	11.73
519.988	11.95
520.418	12.16
520.848	12.36
521.278	12.58
521.708	12.89
522.138	13.11
522.567	13.31
522.997	13.5
523.427	13.71
523.857	13.91
524.286	14.1
524.716	14.3
525.145	14.49
525.575	14.68
526.004	14.86
526.433	14.93
526.863	15.1
527.292	15.28
527.721	15.44
528.15	15.6
528.579	15.75
529.008	15.9
529.437	16.02
529.866	16.15
530.295	16.28
530.724	16.39
531.152	16.51
531.581	16.61
532.01	16.71
532.438	16.81
532.867	16.89
533.295	16.97
533.723	17.04
534.152	17.13
534.58	17.21
535.008	17.26
535.436	17.33
535.865	17.37
536.293	17.42
536.721	17.46
537.149	17.51
537.576	17.54
538.004	17.6
538.432	17.64
538.86	17.67
539.287	17.69
539.715	17.74
540.143	17.76
540.57	17.81
540.998	17.83
541.425	17.85
541.852	17.88
542.28	17.92
542.707	17.93
543.134	17.96
543.561	17.99
543.988	18.02
544.415	18.04
544.842	18.07
545.269	18.1
545.696	18.14
546.123	18.18
546.549	18.2
546.976	18.23
547.403	18.26
547.829	18.29
548.256	18.32
548.682	18.34
549.108	18.38
549.535	18.41
549.961	18.42
550.387	18.42
550.813	18.44
551.24	18.44
551.666	18.44
552.092	18.45
552.518	18.44
552.943	18.43
553.369	18.41
553.795	18.38
554.221	18.35
554.646	18.33
555.072	18.29
555.498	18.25
555.923	18.22
556.349	18.17
556.774	18.11
557.199	18.06
557.625	18.01
558.05	17.95
558.475	17.87
558.9	17.81
559.325	17.74
559.75	17.66
560.175	17.58
560.6	17.48
561.025	17.4
561.449	17.3
561.874	17.19
562.299	17.07
562.723	16.96
563.148	16.84
563.572	16.71
563.997	16.58
564.421	16.44
564.846	16.3
565.27	16.17
565.694	16.02
566.118	15.88
566.542	15.74
566.966	15.6
567.39	15.45
567.814	15.3
568.238	15.17
568.662	15.02
569.086	14.88
569.509	14.75
569.933	14.62
570.357	14.48
570.78	14.33
571.204	14.2
571.627	14.08
572.05	13.97
572.474	13.87
572.897	13.76
573.32	13.66
573.743	13.55
574.166	13.46
574.589	13.35
575.012	13.26
575.435	13.18
575.858	13.09
576.281	13.01
576.704	12.93
577.126	12.84
577.549	12.76
577.972	12.69
578.394	12.62
578.817	12.54
579.239	12.49
579.661	12.43
580.084	12.36
580.506	12.3
580.928	12.23
581.35	12.17
581.772	12.12
582.194	12.06
582.616	12.01
583.038	11.95
583.46	11.89
583.882	11.84
584.303	11.79
584.725	11.73
585.147	11.68
585.568	11.65
585.99	11.61
586.411	11.56
586.833	11.5
587.254	11.45
587.675	11.41
588.096	11.38
588.518	11.33
588.939	11.3
589.36	11.26
589.781	11.23
590.202	11.19
590.623	11.16
591.043	11.13
591.464	11.1
591.885	11.06
592.305	11.04
592.726	11.01
593.147	10.98
593.567	10.95
593.987	10.93
594.408	10.9
594.828	10.86
595.248	10.83
595.669	10.79
596.089	10.76
596.509	10.73
596.929	10.7
597.349	10.66
597.769	10.64
598.189	10.61
598.608	10.58
599.028	10.55
599.448	10.52
599.867	10.49
600.287	10.46
600.706	10.43
601.126	10.39
601.545	10.36
601.965	10.32
602.384	10.28
602.803	10.24
603.222	10.19
603.641	10.14
604.061	10.1
604.48	10.06
604.898	10.01
605.317	9.97
605.736	9.92
606.155	9.87
606.574	9.83
606.992	9.78
607.411	9.73
607.829	9.66
608.248	9.6
608.666	9.54
609.085	9.49
609.503	9.45
609.921	9.41
610.339	9.36
610.758	9.31
611.176	9.25
611.594	9.21
612.012	9.16
612.43	9.14
612.847	9.1
613.265	9.06
613.683	9.01
614.101	8.97
614.518	8.92
614.936	8.87
615.353	8.82
615.771	8.79
616.188	8.74
616.606	8.72
617.023	8.67
617.44	8.65
617.857	8.62
618.274	8.59
618.691	8.54
619.108	8.51
619.525	8.5
619.942	8.48
620.359	8.45
620.776	8.43
621.192	8.4
621.609	8.39
622.026	8.36
622.442	8.35
622.859	8.33
623.275	8.33
623.691	8.32
624.108	8.3
624.524	8.29
624.94	8.29
625.356	8.28
625.772	8.28
626.188	8.26
626.604	8.25
627.02	8.25
627.436	8.24
627.852	8.23
628.268	8.22
628.683	8.21
629.099	8.21
629.514	8.19
629.93	8.18
630.345	8.17
630.761	8.16
631.176	8.14
631.591	8.12
632.007	8.1
632.422	8.07
632.837	8.04
633.252	8.01
633.667	7.96
634.082	7.93
634.497	7.89
634.911	7.83
635.326	7.78
635.741	7.73
636.155	7.68
636.57	7.63
636.984	7.58
637.399	7.52
637.813	7.45
638.228	7.39
638.642	7.33
639.056	7.26
639.47	7.2
639.884	7.14
640.298	7.08
640.712	7.02
641.126	6.95
641.54	6.89
641.954	6.85
642.368	6.8
642.781	6.75
643.195	6.7
643.609	6.65
644.022	6.61
644.436	6.57
644.849	6.52
645.262	6.48
645.676	6.44
646.089	6.4
646.502	6.36
646.915	6.33
647.328	6.31
647.741	6.29
648.154	6.26
648.567	6.24
648.98	6.21
649.393	6.2
649.805	6.18
650.218	6.17
650.631	6.16
651.043	6.14
651.456	6.13
651.868	6.11
652.28	6.08
652.693	6.07
653.105	6.07
653.517	6.06
653.929	6.03
654.341	6.02
654.753	5.99
655.165	5.97
655.577	5.96
655.989	5.93
656.401	5.91
656.813	5.9
657.224	5.87
657.636	5.83
658.047	5.82
658.459	5.8
658.87	5.77
659.282	5.74
659.693	5.72
660.104	5.69
660.515	5.67
660.926	5.65
661.338	5.63
661.749	5.6
662.159	5.58
662.57	5.57
662.981	5.54
663.392	5.53
663.803	5.53
664.213	5.51
664.624	5.5
665.035	5.5
665.445	5.49
665.855	5.48
666.266	5.49
666.676	5.49
667.086	5.47
667.497	5.48
667.907	5.48
668.317	5.5
668.727	5.5
669.137	5.52
669.547	5.52
669.956	5.54
670.366	5.54
670.776	5.55
671.186	5.56
671.595	5.58
672.005	5.6
672.414	5.61
672.824	5.61
673.233	5.62
673.642	5.64
674.052	5.65
674.461	5.67
674.87	5.69
675.279	5.72
675.688	5.74
676.097	5.77
676.506	5.79
676.915	5.82
677.323	5.86
677.732	5.88
678.141	5.92
678.549	5.95
678.958	5.98
679.366	6.02
679.775	6.04
680.183	6.07
680.592	6.11
681	6.15
681.408	6.19
681.816	6.22
682.224	6.28
682.632	6.32
683.04	6.37
683.448	6.43
683.856	6.48
684.264	6.54
684.671	6.61
685.079	6.68
685.487	6.78
685.894	6.89
686.302	7
686.709	7.13
687.116	7.27
687.524	7.42
687.931	7.6
688.338	7.81
688.745	8.04
689.152	8.27
689.559	8.53
689.966	8.79
690.373	9.08
690.78	9.4
691.187	9.74
691.593	10.1
692	10.48
692.407	10.86
692.813	11.26
693.22	11.67
693.626	12.11
694.032	12.57
694.439	13.02
694.845	13.5
695.251	13.98
695.657	14.47
696.063	14.96
696.469	15.47
696.875	15.99
697.281	16.51
697.687	17.04
698.093	17.58
698.498	18.11
698.904	18.66
699.31	19.18
699.715	19.72
700.12	20.26
700.526	20.8
700.931	21.34
701.337	21.85
701.742	22.39
702.147	22.91
702.552	23.42
702.957	23.93
703.362	24.42
703.767	24.94
704.172	25.46
704.577	25.97
704.981	26.46
705.386	26.97
705.791	27.47
706.195	27.98
706.6	28.49
707.004	28.98
707.408	29.48
707.813	30
708.217	30.45
708.621	30.93
709.025	31.39
709.43	31.84
709.834	32.3
710.237	32.76
710.641	33.2
711.045	33.64
711.449	34.1
711.853	34.56
712.256	34.98
712.66	35.42
713.064	35.85
713.467	36.28
713.87	36.74
714.274	37.15
714.677	37.57
715.08	37.97
715.484	38.37
715.887	38.76
716.29	39.14
716.693	39.52
717.096	39.91
717.499	40.29
717.901	40.67
718.304	41.02
718.707	41.38
719.109	41.75
719.512	42.12
719.915	42.46
720.317	42.81
720.719	43.12
721.122	43.46
721.524	43.78
721.926	44.09
722.328	44.41
722.731	44.69
723.133	45
723.535	45.28
723.937	45.58
724.338	45.86
724.74	46.13
725.142	46.45
725.544	46.7
725.945	46.98
726.347	47.2
726.748	47.45
727.15	47.69
727.551	47.9
727.952	48.1
728.354	48.3
728.755	48.48
729.156	48.66
729.557	48.81
729.958	48.97
730.359	49.14
730.76	49.35
731.161	49.51
731.562	49.68
731.962	49.82
732.363	49.98
732.763	50.13
733.164	50.29
733.564	50.42
733.965	50.53
734.365	50.69
734.766	50.79
735.166	50.89
735.566	51
735.966	51.11
736.366	51.23
736.766	51.31
737.166	51.42
737.566	51.51
737.966	51.6
738.365	51.7
738.765	51.77
739.165	51.86
739.564	51.95
739.964	52
740.363	52.05
740.763	52.12
741.162	52.2
741.561	52.25
741.96	52.31
742.36	52.38
742.759	52.46
743.158	52.5
743.557	52.54
743.955	52.59
744.354	52.64
744.753	52.72
745.152	52.79
745.55	52.85
745.949	52.9
746.348	52.98
746.746	53.03
747.144	53.1
747.543	53.16
747.941	53.22
748.339	53.25
748.737	53.3
749.136	53.34
749.534	53.34
749.932	53.37
750.33	53.39
750.727	53.39
751.125	53.4
751.523	53.37
751.921	53.37
752.318	53.37
752.716	53.37
753.113	53.37
753.511	53.36
753.908	53.39
754.305	53.39
754.703	53.38
755.1	53.37
755.497	53.38
755.894	53.39
756.291	53.41
756.688	53.4
757.085	53.41
757.482	53.4
757.878	53.4
758.275	53.38
758.672	53.38
759.068	53.41
759.465	53.4
759.861	53.42
760.258	53.44
760.654	53.43
761.05	53.43
761.447	53.44
761.843	53.42
762.239	53.41
762.635	53.43
763.031	53.44
763.427	53.41
763.822	53.42
764.218	53.42
764.614	53.42
765.01	53.38
765.405	53.37
765.801	53.35
766.196	53.36
766.592	53.35
766.987	53.35
767.382	53.32
767.778	53.34
768.173	53.34
768.568	53.32
768.963	53.29
769.358	53.35
769.753	53.37
770.148	53.4
770.542	53.39
770.937	53.42
771.332	53.43
771.726	53.43
772.121	53.43
772.515	53.42
772.91	53.43
773.304	53.45
773.699	53.46
774.093	53.47
774.487	53.46
774.881	53.5
775.275	53.46
775.669	53.44
776.063	53.44
776.457	53.45
776.851	53.44
777.245	53.41
777.638	53.39
778.032	53.4
778.425	53.42
778.819	53.39
779.212	53.4
779.606	53.43
779.999	53.44
780.392	53.49
780.786	53.49
781.179	53.54
781.572	53.59
781.965	53.6
782.358	53.6
782.751	53.56
783.143	53.59
783.536	53.59
783.929	53.6
784.322	53.64
784.714	53.65
785.107	53.67
785.499	53.66
785.891	53.66
786.284	53.69
786.676	53.7
787.068	53.73
787.46	53.77
787.852	53.79
788.245	53.78
788.636	53.77
789.028	53.77
789.42	53.76
789.812	53.82
790.204	53.82
790.595	53.82
790.987	53.84
791.378	53.86
791.77	53.83
792.161	53.85
792.553	53.87
792.944	53.86
793.335	53.88
793.726	53.89
794.117	53.84
794.508	53.84
794.899	53.83
795.29	53.8
795.681	53.78
796.072	53.79
796.463	53.78
796.853	53.78
797.244	53.78
797.634	53.79
798.025	53.81
798.415	53.85
798.806	53.86
799.196	53.9
799.586	53.92
799.976	53.96
800.366	53.95
800.756	53.99
801.146	54.02
801.536	54.09
801.926	54.08
802.316	54.1
802.706	54.1
803.095	54.11
803.485	54.09
803.874	54.11
804.264	54.11
804.653	54.13
805.043	54.11
805.432	54.12
805.821	54.1
806.21	54.13
806.599	54.14
806.988	54.15
807.377	54.15
807.766	54.19
808.155	54.18
808.544	54.2
808.933	54.22
809.321	54.21
809.71	54.2
810.098	54.19
810.487	54.18
810.875	54.2
811.264	54.21
811.652	54.24
812.04	54.26
812.428	54.3
812.816	54.31
813.204	54.3
813.592	54.31
813.98	54.33
814.368	54.35
814.756	54.35
815.144	54.34
815.531	54.31
815.919	54.31
816.306	54.28
816.694	54.25
817.081	54.28
817.469	54.3
817.856	54.32
818.243	54.31
818.63	54.3
819.017	54.31
819.404	54.31
819.791	54.34
820.178	54.36
820.565	54.36
820.952	54.37
821.339	54.32
821.725	54.3
822.112	54.33
822.498	54.36
822.885	54.38
823.271	54.38
823.657	54.35
824.044	54.33
824.43	54.33
824.816	54.32
825.202	54.31
825.588	54.34
825.974	54.34
826.36	54.3
826.746	54.27
827.132	54.24
827.517	54.26
827.903	54.28
828.289	54.27
828.674	54.25
829.06	54.24
829.445	54.23
829.83	54.2
830.216	54.16
830.601	54.15
830.986	54.14
831.371	54.09
831.756	54.06
832.141	54.02
832.526	54
832.911	53.99
833.295	53.97
833.68	53.97
834.065	53.95
834.449	53.95
834.834	53.92
835.218	53.92
835.603	53.91
835.987	53.88
836.371	53.86
836.755	53.81
837.139	53.79
837.524	53.79
837.908	53.77
838.291	53.79
838.675	53.76
839.059	53.76
839.443	53.74
839.827	53.75
840.21	53.73
840.594	53.74
840.977	53.73
841.361	53.71
841.744	53.66
842.127	53.62
842.511	53.57
842.894	53.57
843.277	53.53
843.66	53.5
844.043	53.5
844.426	53.51
844.809	53.5
845.191	53.52
845.574	53.53
845.957	53.55
846.339	53.57
846.722	53.58
847.104	53.6
847.487	53.6
847.869	53.61
848.252	53.62
848.634	53.59
849.016	53.62
849.398	53.62
849.78	53.62
850.162	53.59
850.544	53.59
850.926	53.59
851.307	53.61
851.689	53.6
852.071	53.6
852.452	53.59
852.834	53.6
853.215	53.56
853.597	53.57
853.978	53.58
854.359	53.6
854.741	53.6
855.122	53.59
855.503	53.57
855.884	53.57
856.265	53.58
856.646	53.56
857.026	53.6
857.407	53.62
857.788	53.6
858.169	53.6
858.549	53.61
858.93	53.59
859.31	53.6
859.69	53.63
860.071	53.66
860.451	53.66
860.831	53.68
861.211	53.64
861.591	53.63
861.971	53.65
862.351	53.68
862.731	53.69
863.111	53.68
863.491	53.69
863.87	53.66
864.25	53.63
864.629	53.62
865.009	53.62
865.388	53.62
865.768	53.63
866.147	53.62
866.526	53.58
866.905	53.57
867.284	53.59
867.663	53.56
868.042	53.57
868.421	53.61
868.8	53.61
869.179	53.6
869.558	53.61
869.936	53.6
870.315	53.61
870.693	53.61
871.072	53.63
871.45	53.63
871.828	53.66
872.207	53.66
872.585	53.62
872.963	53.64
873.341	53.63
873.719	53.63
874.097	53.62
874.475	53.63
874.853	53.65
875.23	53.64
875.608	53.62
875.986	53.64
876.363	53.67
876.741	53.69
877.118	53.71
877.495	53.72
877.873	53.74
878.25	53.77
878.627	53.78
879.004	53.77
879.381	53.77
879.758	53.77
880.135	53.77
880.512	53.72
880.889	53.73
881.265	53.68
881.642	53.7
882.019	53.69
882.395	53.65
882.772	53.63
883.148	53.61
883.524	53.59
883.901	53.6
884.277	53.56
884.653	53.53
885.029	53.5
885.405	53.49
885.781	53.46
886.157	53.45
886.532	53.45
886.908	53.41
887.284	53.39
887.659	53.36
888.035	53.32
888.411	53.3
888.786	53.31
889.161	53.3
889.537	53.28
889.912	53.27
890.287	53.25
890.662	53.2
891.037	53.21
891.412	53.19
891.787	53.18
892.162	53.17
892.536	53.17
892.911	53.12
893.286	53.12
893.66	53.07
894.035	53.05
894.409	53.01
894.784	53.02
895.158	53.02
895.532	53.03
895.906	53.03
896.281	53.02
896.655	53.01
897.029	53.06
897.402	53.05
897.776	53.1
898.15	53.11
898.524	53.14
898.898	53.15
899.271	53.13
899.645	53.14
900.018	53.16
900.392	53.18
900.765	53.2
901.138	53.18
901.511	53.17
901.884	53.21
902.258	53.23
902.631	53.26
903.003	53.29
903.376	53.31
903.749	53.3
904.122	53.32
904.495	53.34
904.867	53.37
905.24	53.42
905.612	53.48
905.985	53.44
906.357	53.44
906.729	53.42
907.102	53.42
907.474	53.45
907.846	53.47
908.218	53.46
908.59	53.48
908.962	53.5
909.334	53.51
909.705	53.48
910.077	53.5
910.449	53.49
910.82	53.47
911.192	53.46
911.563	53.45
911.935	53.46
912.306	53.47
912.677	53.46
913.048	53.45
913.419	53.42
913.79	53.45
914.161	53.46
914.532	53.49
914.903	53.53
915.274	53.55
915.645	53.58
916.015	53.61
916.386	53.6
916.756	53.62
917.127	53.61
917.497	53.62
917.868	53.63
918.238	53.64
918.608	53.66
918.978	53.65
919.348	53.65
919.718	53.59
920.088	53.61
920.458	53.64
920.828	53.6
921.198	53.6
921.567	53.6
921.937	53.64
922.306	53.63
922.676	53.62
923.045	53.64
923.415	53.63
923.784	53.65
924.153	53.66
924.522	53.67
924.891	53.69
925.26	53.7
925.629	53.72
925.998	53.66
926.367	53.68
926.736	53.68
927.104	53.68
927.473	53.65
927.842	53.63
928.21	53.65
928.578	53.59
928.947	53.6
929.315	53.58
929.683	53.55
930.051	53.53
930.42	53.5
930.788	53.43
931.156	53.41
931.523	53.4
931.891	53.41
932.259	53.37
932.627	53.33
932.994	53.27
933.362	53.24
933.729	53.19
934.097	53.19
934.464	53.21
934.831	53.24
935.199	53.21
935.566	53.19
935.933	53.22
936.3	53.22
936.667	53.3
937.034	53.34
937.401	53.38
937.767	53.43
938.134	53.43
938.501	53.46
938.867	53.48
939.234	53.54
939.6	53.64
939.967	53.6
940.333	53.55
940.699	53.6
941.065	53.57
941.431	53.63
941.798	53.64
942.163	53.69
942.529	53.7
942.895	53.77
943.261	53.79
943.627	53.84
943.992	53.9
944.358	53.96
944.723	53.93
945.089	53.91
945.454	53.91
945.82	53.94
946.185	53.94
946.55	53.85
946.915	53.83
947.28	53.76
947.645	53.72
948.01	53.69
948.375	53.66
948.74	53.6
949.104	53.66
949.469	53.6
949.834	53.48
950.198	53.42
950.562	53.44
950.927	53.36
951.291	53.3
951.655	53.24
952.02	53.22
952.384	53.19
952.748	53.18
953.112	53.13
953.476	53.12
953.839	53.09
954.203	53.1
954.567	53.03
954.931	52.99
955.294	52.97
955.658	53.04
956.021	52.96
956.385	52.87
956.748	52.79
957.111	52.75
957.474	52.7
957.837	52.69
958.2	52.65
958.563	52.68
958.926	52.68
959.289	52.66
959.652	52.58
960.015	52.59
960.377	52.6
960.74	52.66
961.102	52.69
961.465	52.75
961.827	52.76
962.189	52.81
962.552	52.78
962.914	52.81
963.276	52.86
963.638	52.9
964	52.86
964.362	52.9
964.724	52.88
965.085	52.84
965.447	52.8
965.809	52.81
966.17	52.81
966.532	52.79
966.893	52.75
967.255	52.76
967.616	52.71
967.977	52.76
968.338	52.77
968.699	52.77
969.061	52.74
969.421	52.73
969.782	52.75
970.143	52.73
970.504	52.72
970.865	52.74
971.225	52.68
971.586	52.63
971.946	52.66
972.307	52.65
972.667	52.63
973.027	52.7
973.388	52.71
973.748	52.69
974.108	52.73
974.468	52.71
974.828	52.76
975.188	52.76
975.548	52.84
975.907	52.84
976.267	52.86
976.627	52.91
976.986	52.89
977.346	52.85
977.705	52.85
978.064	52.83
978.424	52.89
978.783	52.82
979.142	52.88
979.501	52.86
979.86	52.85
980.219	52.79
980.578	52.76
980.937	52.78
981.296	52.8
981.654	52.8
982.013	52.78
982.371	52.79
982.73	52.84
983.088	52.84
983.447	52.84
983.805	52.88
984.163	52.92
984.521	52.94
984.879	52.87
985.237	52.85
985.595	52.9
985.953	52.93
986.311	52.87
986.669	52.88
987.026	52.87
987.384	52.95
987.741	52.9
988.099	53.01
988.456	52.98
988.814	53.07
989.171	53.17
989.528	53.19
989.885	53.21
990.242	53.29
990.599	53.41
990.956	53.53
991.313	53.56
991.67	53.6
992.027	53.62
992.383	53.67
992.74	53.77
993.096	53.75
993.453	53.76
993.809	53.83
994.165	53.9
994.522	53.82
994.878	53.77
995.234	53.67
995.59	53.71
995.946	53.7
996.302	53.82
996.658	53.89
997.013	53.92
997.369	53.94
997.725	54.03
998.08	54.05
998.436	54.08
998.791	54.16
999.147	54.23
999.502	54.32
999.857	54.29
1000.212	54.16
1000.567	54.14
1000.922	54.17
1001.277	54.18
1001.632	54.11
1001.987	54.14
1002.342	54.18
1002.696	54.1
1003.051	54.21
1003.406	54.37
1003.76	54.47
1004.114	54.55
1004.469	54.6
1004.823	54.91
1005.177	54.96
1005.531	55.1
1005.885	55.22
1006.239	55.27
1006.593	55.43
1006.947	55.48
1007.301	55.32
1007.655	55.35
1008.008	55.49
1008.362	55.63
1008.715	55.45
1009.069	55.64
1009.422	55.62
1009.776	55.68
1010.129	55.9
1010.482	55.92
1010.835	55.99
1011.188	56.08
1011.541	56.28
1011.894	56.34
1012.247	56.24
1012.6	56.44
1012.952	56.28
1013.305	56.43
1013.657	56.5
1014.01	56.53
1014.362	56.6
1014.715	56.71
1015.067	56.82
1015.419	56.77
1015.771	56.83
1016.123	56.94
1016.475	56.94
1016.827	57.14
1017.179	57.11
1017.531	57.26
1017.883	57.26
1018.234	57.36
1018.586	57.33
1018.938	57.53
1019.289	57.5
1019.64	57.57
1019.992	57.56
1020.343	57.57
1020.694	57.65
1021.045	57.55
1021.396	57.36
1021.747	57.65
1022.098	57.88
1022.449	57.89
1022.8	57.79
1023.151	57.98
1023.501	58.1
1023.852	58.29
1024.202	58.31
1024.553	58.39
1024.903	58.53
1025.253	58.83
1025.604	58.71
1025.954	58.53
1026.304	58.84
1026.654	58.96
1027.004	58.86
1027.354	58.75
1027.703	58.89
1028.053	59.17
1028.403	59.44
1028.753	59.54
1029.102	59.59
1029.452	59.55
1029.801	59.71
1030.15	59.58
1030.499	59.54
897.758	994.24
901.051	999.71
904.343	996.31
907.636	1015.26
910.928	985.56
914.22	985.38
917.511	972.89
920.803	930.95
924.094	928.88
927.384	908.16
930.675	877.34
933.965	871.83
937.255	819.08
940.544	787.68
943.834	752.65
947.123	748.79
950.411	704.99
953.7	691.01
956.988	654.29
960.276	626.5
963.563	618
966.851	592.68
970.138	588.76
973.424	573.41
976.711	577.38
979.997	546.71
983.283	542.73
986.568	533.07
989.853	517.3
993.138	508.5
996.423	490.85
999.708	477.03
1002.992	471.41
1006.275	450.96
1009.559	447.29
1012.842	429.51
1016.125	419.39
1019.408	410.94
1022.69	408.38
1025.972	399.36
1029.254	389.77
1032.536	383.24
1035.817	377.19
1039.098	372.1
1042.379	365.89
1045.659	361.67
1048.939	353.44
1052.219	348.09
1055.498	343.6
1058.778	333.77
1062.057	327.81
1065.335	325.01
1068.614	320.67
1071.892	317.17
1075.17	308.28
1078.447	301.93
1081.724	299.7
1085.001	297.57
1088.278	290.56
1091.554	286.07
1094.83	287.69
1098.106	284.69
1101.382	281.66
1104.657	280.15
1107.932	275.88
1111.206	277.3
1114.481	270.99
1117.755	269.23
1121.029	266.92
1124.302	266.92
1127.575	262.95
1130.848	258.45
1134.121	257.07
1137.393	255.72
1140.665	251.6
1143.937	248.74
1147.208	248.07
1150.48	247.33
1153.75	243.5
1157.021	239.87
1160.291	240.31
1163.561	236.94
1166.831	237.04
1170.101	234.78
1173.37	235.01
1176.639	234.68
1179.907	233.49
1183.176	229.57
1186.444	229.41
1189.711	229.29
1192.979	229.9
1196.246	228.26
1199.513	228.13
1202.78	226.97
1206.046	226.29
1209.312	224
1212.578	224.37
1215.843	225.42
1219.108	224.94
1222.373	228.9
1225.638	229.93
1228.902	232.45
1232.166	232.24
1235.43	234.24
1238.693	237.3
1241.956	239.86
1245.219	242.98
1248.482	243
1251.744	243.19
1255.006	243.21
1258.268	239.01
1261.529	237.27
1264.79	236.13
1268.051	234.49
1271.312	232.01
1274.572	229.16
1277.832	226.8
1281.092	222.99
1284.351	221.5
1287.61	221.37
1290.869	218.17
1294.128	216.02
1297.386	215.87
1300.644	213.74
1303.902	215.18
1307.159	214.79
1310.416	214.08
1313.673	213.57
1316.93	215.91
1320.186	215.29
1323.442	215.6
1326.697	219.11
1329.953	219.95
1333.208	220.19
1336.463	222.72
1339.717	222.06
1342.972	224.24
1346.226	226.15
1349.479	226.58
1352.733	227.08
1355.986	229.04
1359.238	228.74
1362.491	229.69
1365.743	231.78
1368.995	232.99
1372.247	231.91
1375.498	231.95
1378.749	232.53
1382	230.12
1385.251	230.22
1388.501	228.1
1391.751	227.7
1395	226.75
1398.25	224.75
1401.499	222.64
1404.748	221.03
1407.996	218.33
1411.244	217.36
1414.492	215.77
1417.74	213.32
1420.987	210.76
1424.234	210.31
1427.481	208.23
1430.728	207.77
1433.974	205.83
1437.22	203.46
1440.465	203.66
1443.711	201.54
1446.956	200.1
1450.201	197.78
1453.445	196.19
1456.689	195.12
1459.933	192.24
1463.177	190.5
1466.42	187.65
1469.663	185.47
1472.906	184.53
1476.148	179.13
1479.391	177.98
1482.633	176.44
1485.874	174.63
1489.115	173.35
1492.356	171.27
1495.597	171.25
1498.838	168.8
1502.078	167.9
1505.318	167.44
1508.557	167.54
1511.797	167.58
1515.036	165.88
1518.274	166
1521.513	164.98
1524.751	164.48
1527.989	164.49
1531.227	163.75
1534.464	164.01
1537.701	164.09
1540.938	163.48
1544.174	161.38
1547.41	162.09
1550.646	161.63
1553.882	161.2
1557.117	159.51
1560.352	158.8
1563.587	158.93
1566.821	157.9
1570.055	157.26
1573.289	155.42
1576.523	156.08
1579.756	155.04
1582.989	154.16
1586.222	154.16
1589.454	154
1592.686	154.88
1595.918	154.94
1599.15	154
1602.381	154.54
1605.612	153.88
1608.843	154.04
1612.073	153.91
1615.303	155.08
1618.533	154.87
1621.762	154.66
1624.992	154.97
1628.221	154.72
1631.449	153.86
1634.678	153.98
1637.906	154.48
1641.134	154.38
1644.361	154.66
1647.588	154.42
1650.815	154.01
1654.042	153.64
1657.269	154.89
1660.495	154.4
1663.72	154
1666.946	154.92
1670.171	155.27
1673.396	155.51
1676.621	154.64
1679.845	155.89
1683.069	156.39
1686.293	156.56
1689.517	157.65
1692.74	157.01
1695.963	157.42
1699.185	158.82
1702.408	159.02
1705.63	159.21
1708.852	159.29
1712.073	160.53
1715.294	159.79
1718.515	160.47
1721.736	160.87
1724.956	160.79
1728.176	161
1731.396	161.66
1734.616	161.05
1737.835	161.53
1741.054	160.66
1744.272	160.86
1747.491	162.68
1750.709	162.54
1753.927	162.16
1757.144	161.93
1760.361	162.02
1763.578	162.96
1766.795	162.62
1770.011	164.42
1773.227	163.58
1776.443	165.47
1779.658	165.83
1782.874	165.29
1786.089	165.76
1789.303	166.09
1792.518	168.01
1795.732	168
1798.945	168.77
1802.159	169.1
1805.372	168.69
1808.585	171.91
1811.797	172.38
1815.01	172.37
1818.222	173.4
1821.434	175.88
1824.645	176.01
1827.856	178.53
1831.067	180
1834.278	179.38
1837.488	180.83
1840.698	182.06
1843.908	180.65
1847.117	181.04
1850.326	182.42
1853.535	181.2
1856.744	182.51
1859.952	182.34
1863.16	180.37
1866.368	178.85
1869.575	179.56
1872.782	177.13
1875.989	176.05
1879.196	174.96
1882.402	173.6
1885.608	173.48
1888.814	173.41
1892.019	172.5
1895.224	171.51
1898.429	171.14
1901.634	172.03
1904.838	172.01
1908.042	172.75
1911.246	173.1
1914.449	173.83
1917.652	174.65
1920.855	173.67
1924.058	174.23
1927.26	172.98
1930.462	173.65
1933.664	175.04
1936.865	172.97
1940.066	172.95
1943.267	172.18
1946.467	172.51
1949.668	172.84
1952.868	175.2
1956.067	176.11
1959.267	175.29
1962.466	176.15
1965.665	175.49
1968.863	175.76
1972.061	179.76
1975.259	180.81
1978.457	181.79
1981.654	183.15
1984.852	184.28
1988.048	182.53
1991.245	185.13
1994.441	186.79
1997.637	188.8
2000.833	192.41
2004.028	194.63
2007.223	194.68
2010.418	196.64
2013.613	201.66
2016.807	203.29
2020.001	205.38
2023.194	208.98
2026.388	212.88
2029.581	219.11
2032.774	220.67
2035.966	224.06
2039.158	225.2
2042.35	229.38
2045.542	231.3
2048.733	233.27
2051.924	237.15
2055.115	241.24
2058.306	241.68
2061.496	243.63
2064.686	243.26
2067.875	247.9
2071.065	249.37
2074.254	247.96
2077.442	252.61
2080.631	253.72
2083.819	256.28
2087.007	257.13
2090.195	260.96
2093.382	262.75
2096.569	261.55
2099.756	266.28
2102.942	266.69
2106.128	269.2
2109.314	275.62
2112.5	273.13
2115.685	279.95
2118.87	281.01
2122.055	285.7
2125.239	285.87
2128.424	289.36
2131.608	292.05
2134.791	297.1
2137.974	297.31
2141.157	298.35
2144.34	298.8
2147.523	305.09
2150.705	302.55
2153.887	305.62
2157.068	306.51
2160.25	304.09
2163.431	305.7
2166.611	309.19
2169.792	312.86
2172.972	317.51
2176.152	321.25
2179.331	325.22
2182.511	328.75
2185.69	332.44
2188.868	339.6
2192.047	340.27
2195.225	350.44
2198.403	358.66
2201.58	365.6
2204.758	373.23
2207.935	378.84
2211.111	385.81
2214.288	390.25
2217.464	391.24
2220.64	398.38
2223.815	401.27
2226.991	416.74
2230.166	417.37
2233.34	424.31
2236.515	431.25
2239.689	430.26
2242.863	434.99
2246.036	444.19
2249.209	439.73
2252.382	448.45
2255.555	459.52
2258.727	462.76
2261.9	466.32
2265.071	471.58
2268.243	481.4
2271.414	485.24
2274.585	495.67
2277.756	499.04
2280.926	503.42
2284.096	518.02
2287.266	528.94
2290.436	532.91
2293.605	545.06
2296.774	561.15
2299.942	579.5
2303.111	580.12
2306.279	593.06
2309.447	602.72
2312.614	618.56
2315.781	634.94
2318.948	662.92
2322.115	651.14
2325.281	688.83
2328.447	677.83
2331.613	700.77
2334.779	692.04
2337.944	723.32
2341.109	730.66
2344.274	748.15
2347.438	777.36
2350.602	779.9
2353.766	807.23
2356.929	821.23
2360.092	815.79
2363.255	869.86
2366.418	872.1
2369.58	887.83
2372.742	942.42
2375.904	965.86
2379.066	961.51
2382.227	935.08
2385.388	1013.28
2388.548	1008.88
2391.709	1020.95
2394.869	1134.96
2398.029	1090.81
2401.188	1120.48
2404.347	1115.11
2407.506	1094.59
2410.665	1127.47
2413.823	1196.2
2416.981	1271.89
2420.139	1231.85
2423.296	1214.12
2426.453	1271.2
2429.61	1217.18
2432.767	1268.81
2435.923	1256.99
2439.079	1377.36
2442.235	1401.48
2445.391	1386.78
2448.546	1372.88
2451.701	1336.39
2454.855	1333.07
2458.009	1426.24
2461.163	1477.91
2464.317	1539.17
2467.471	1581.18
2470.624	1578.53
2473.777	1537.56
2476.929	1490
2480.082	1445.65
2483.234	1433.06
2486.385	1503.18
2489.537	1510.7
2492.688	1558.94
2495.839	1527.1
2498.989	1490.99
2502.14	1490.1
2505.29	1504.57
2508.439	1524.05
2511.589	1523.28
2514.738	1667.27
2517.887	1629.68
2521.035	1715.27
2524.183	1739.42
2527.331	1748.24
2530.479	1726.28
2533.627	1740.05
