Data from C_3_DIV_OH_2N_Splice17_13-48-20-223.txt Node
Date: Sat Mar 07 13:48:20 EST 2020
User: sa697716
Spectrometer: NQ5500242
Trigger mode: 0
Integration Time (sec): 1.450000E-1
Scans to average: 20
Nonlinearity correction enabled: false
Boxcar width: 5
Storing dark spectrum: false
XAxis mode: Wavelengths
Number of Pixels in Spectrum: 512
>>>>>Begin Spectral Data<<<<<
187.83	245.27
188.298	270.07
188.766	267.42
189.233	217.62
189.701	238.35
190.169	266.35
190.636	280.58
191.104	493.73
191.571	58.18
192.039	-153.2
192.506	117.11
192.974	-42.58
193.441	-35.71
193.908	86.75
194.375	101.09
194.842	94.33
195.31	76.13
195.777	199.79
196.244	69.77
196.711	39.87
197.177	41.43
197.644	40.34
198.111	40.06
198.578	40.25
199.045	40.98
199.511	40.56
199.978	40.5
200.445	41.2
200.911	40.95
201.378	40.47
201.844	40.68
202.31	40.62
202.777	40.85
203.243	40.76
203.709	40.68
204.176	39.94
204.642	39.85
205.108	39.85
205.574	38.99
206.04	38.56
206.506	38.52
206.972	38.25
207.438	37.98
207.903	37.54
208.369	36.76
208.835	36.11
209.301	35.56
209.766	34.39
210.232	33.37
210.697	32.65
211.163	31.84
211.628	31.05
212.094	30.26
212.559	29.48
213.024	28.51
213.49	28.1
213.955	27.24
214.42	26.64
214.885	26.05
215.35	25.18
215.815	24.21
216.28	22.57
216.745	20.91
217.21	19.26
217.675	17.65
218.14	16.41
218.604	15.21
219.069	14.32
219.534	13.5
219.998	12.83
220.463	12.28
220.927	11.77
221.392	11.4
221.856	11.08
222.32	10.8
222.785	10.62
223.249	10.44
223.713	10.26
224.177	10.1
224.642	9.92
225.106	9.75
225.57	9.59
226.034	9.46
226.497	9.36
226.961	9.25
227.425	9.14
227.889	9.02
228.353	8.89
228.816	8.8
229.28	8.71
229.744	8.62
230.207	8.54
230.671	8.46
231.134	8.36
231.597	8.29
232.061	8.2
232.524	8.12
232.987	8.03
233.45	7.98
233.914	7.91
234.377	7.83
234.84	7.76
235.303	7.69
235.766	7.65
236.229	7.58
236.691	7.51
237.154	7.45
237.617	7.4
238.08	7.34
238.542	7.26
239.005	7.21
239.468	7.15
239.93	7.1
240.393	7.04
240.855	6.97
241.317	6.91
241.78	6.85
242.242	6.78
242.704	6.73
243.166	6.68
243.629	6.65
244.091	6.59
244.553	6.53
245.015	6.47
245.477	6.41
245.939	6.36
246.4	6.31
246.862	6.27
247.324	6.23
247.786	6.18
248.247	6.13
248.709	6.06
249.17	6.01
249.632	5.98
250.093	5.95
250.555	5.91
251.016	5.87
251.477	5.83
251.939	5.8
252.4	5.77
252.861	5.73
253.322	5.69
253.783	5.66
254.244	5.64
254.705	5.6
255.166	5.57
255.627	5.54
256.088	5.51
256.549	5.47
257.009	5.43
257.47	5.39
257.931	5.36
258.391	5.32
258.852	5.29
259.312	5.26
259.773	5.23
260.233	5.2
260.694	5.17
261.154	5.14
261.614	5.11
262.074	5.08
262.534	5.05
262.994	5.03
263.455	5.01
263.915	4.99
264.374	4.96
264.834	4.95
265.294	4.92
265.754	4.91
266.214	4.89
266.673	4.88
267.133	4.88
267.593	4.87
268.052	4.86
268.512	4.86
268.971	4.85
269.431	4.84
269.89	4.83
270.349	4.82
270.809	4.81
271.268	4.8
271.727	4.79
272.186	4.78
272.645	4.77
273.104	4.76
273.563	4.74
274.022	4.73
274.481	4.73
274.94	4.72
275.399	4.71
275.857	4.7
276.316	4.69
276.775	4.69
277.233	4.68
277.692	4.67
278.15	4.67
278.609	4.67
279.067	4.66
279.525	4.65
279.984	4.64
280.442	4.63
280.9	4.64
281.358	4.63
281.816	4.62
282.274	4.61
282.732	4.6
283.19	4.59
283.648	4.58
284.106	4.57
284.564	4.56
285.021	4.56
285.479	4.55
285.937	4.53
286.394	4.53
286.852	4.51
287.309	4.5
287.767	4.49
288.224	4.48
288.682	4.46
289.139	4.45
289.596	4.42
290.053	4.4
290.511	4.38
290.968	4.37
291.425	4.34
291.882	4.34
292.339	4.32
292.796	4.31
293.252	4.3
293.709	4.3
294.166	4.29
294.623	4.29
295.079	4.28
295.536	4.27
295.992	4.27
296.449	4.26
296.905	4.25
297.362	4.25
297.818	4.24
298.274	4.24
298.731	4.23
299.187	4.21
299.643	4.2
300.099	4.2
300.555	4.19
301.011	4.18
301.467	4.18
301.923	4.17
302.379	4.17
302.835	4.17
303.291	4.16
303.746	4.15
304.202	4.15
304.658	4.15
305.113	4.14
305.569	4.14
306.024	4.14
306.479	4.13
306.935	4.12
307.39	4.11
307.845	4.11
308.301	4.11
308.756	4.12
309.211	4.11
309.666	4.12
310.121	4.11
310.576	4.1
311.031	4.1
311.486	4.09
311.94	4.09
312.395	4.1
312.85	4.09
313.305	4.08
313.759	4.09
314.214	4.08
314.668	4.07
315.123	4.08
315.577	4.08
316.032	4.07
316.486	4.07
316.94	4.07
317.394	4.05
317.849	4.04
318.303	4.03
318.757	4.01
319.211	4
319.665	3.99
320.119	3.98
320.572	3.96
321.026	3.95
321.48	3.94
321.934	3.92
322.387	3.91
322.841	3.9
323.295	3.91
323.748	3.89
324.202	3.89
324.655	3.88
325.108	3.89
325.562	3.9
326.015	3.9
326.468	3.89
326.921	3.89
327.374	3.89
327.827	3.9
328.28	3.9
328.733	3.9
329.186	3.89
329.639	3.89
330.092	3.88
330.545	3.88
330.997	3.87
331.45	3.88
331.903	3.89
332.355	3.89
332.808	3.89
333.26	3.88
333.713	3.88
334.165	3.88
334.617	3.89
335.069	3.88
335.522	3.88
335.974	3.89
336.426	3.88
336.878	3.87
337.33	3.87
337.782	3.86
338.234	3.87
338.686	3.88
339.137	3.88
339.589	3.86
340.041	3.86
340.493	3.85
340.944	3.84
341.396	3.83
341.847	3.82
342.299	3.81
342.75	3.81
343.201	3.78
343.653	3.76
344.104	3.74
344.555	3.74
345.006	3.73
345.457	3.73
345.908	3.71
346.359	3.72
346.81	3.72
347.261	3.71
347.712	3.71
348.163	3.71
348.613	3.73
349.064	3.74
349.515	3.74
349.965	3.75
350.416	3.74
350.866	3.74
351.317	3.73
351.767	3.73
352.217	3.73
352.668	3.74
353.118	3.74
353.568	3.72
354.018	3.73
354.468	3.74
354.918	3.73
355.368	3.74
355.818	3.75
356.268	3.75
356.718	3.77
357.168	3.77
357.617	3.77
358.067	3.78
358.517	3.8
358.966	3.82
359.416	3.83
359.865	3.84
360.315	3.85
360.764	3.86
361.213	3.88
361.663	3.87
362.112	3.89
362.561	3.91
363.01	3.92
363.459	3.91
363.908	3.92
364.357	3.93
364.806	3.96
365.255	3.98
365.703	4.01
366.152	4.03
366.601	4.07
367.05	4.1
367.498	4.13
367.947	4.16
368.395	4.19
368.844	4.22
369.292	4.24
369.74	4.28
370.189	4.31
370.637	4.34
371.085	4.37
371.533	4.4
371.981	4.44
372.429	4.47
372.877	4.51
373.325	4.56
373.773	4.6
374.221	4.64
374.669	4.68
375.116	4.73
375.564	4.77
376.012	4.83
376.459	4.88
376.907	4.94
377.354	5
377.801	5.07
378.249	5.12
378.696	5.19
379.143	5.25
379.591	5.31
380.038	5.39
380.485	5.46
380.932	5.52
381.379	5.6
381.826	5.66
382.273	5.71
382.72	5.76
383.166	5.83
383.613	5.88
384.06	5.94
384.506	6.01
384.953	6.07
385.4	6.12
385.846	6.19
386.292	6.24
386.739	6.29
387.185	6.35
387.631	6.43
388.078	6.49
388.524	6.56
388.97	6.64
389.416	6.71
389.862	6.77
390.308	6.84
390.754	6.9
391.2	6.97
391.645	7.04
392.091	7.12
392.537	7.19
392.983	7.24
393.428	7.3
393.874	7.35
394.319	7.42
394.765	7.47
395.21	7.51
395.655	7.56
396.101	7.61
396.546	7.64
396.991	7.68
397.436	7.72
397.881	7.78
398.326	7.81
398.771	7.85
399.216	7.87
399.661	7.89
400.106	7.91
400.551	7.93
400.995	7.92
401.44	7.94
401.885	7.95
402.329	7.95
402.774	7.96
403.218	7.98
403.663	7.98
404.107	7.99
404.551	7.99
404.995	8
405.44	7.99
405.884	7.99
406.328	7.99
406.772	7.98
407.216	7.98
407.66	7.97
408.104	7.94
408.547	7.94
408.991	7.94
409.435	7.93
409.879	7.93
410.322	7.95
410.766	7.96
411.209	7.98
411.653	7.99
412.096	8
412.54	8
412.983	8.01
413.426	8.03
413.869	8.02
414.312	8.04
414.756	8.04
415.199	8.02
415.642	8.01
416.085	8.01
416.527	7.99
416.97	7.95
417.413	7.93
417.856	7.93
418.298	7.91
418.741	7.89
419.184	7.87
419.626	7.88
420.069	7.89
420.511	7.9
420.953	7.89
421.396	7.9
421.838	7.91
422.28	7.91
422.722	7.92
423.164	7.91
423.606	7.91
424.048	7.9
424.49	7.88
424.932	7.85
425.374	7.8
425.816	7.76
426.258	7.74
426.699	7.72
427.141	7.71
427.582	7.7
428.024	7.69
428.465	7.68
428.907	7.65
429.348	7.63
429.789	7.63
430.231	7.65
430.672	7.68
431.113	7.7
431.554	7.69
431.995	7.69
432.436	7.7
432.877	7.71
433.318	7.75
433.759	7.78
434.2	7.81
434.64	7.82
435.081	7.84
435.522	7.85
435.962	7.86
436.403	7.9
436.843	7.91
437.284	7.91
437.724	7.92
438.164	7.92
438.604	7.95
439.045	7.97
439.485	7.99
439.925	8.01
440.365	8.04
440.805	8.06
441.245	8.11
441.685	8.16
442.125	8.2
442.564	8.24
443.004	8.28
443.444	8.32
443.883	8.39
444.323	8.45
444.762	8.51
445.202	8.58
445.641	8.66
446.081	8.71
446.52	8.77
446.959	8.85
447.398	8.92
447.837	8.99
448.276	9.04
448.716	9.09
449.154	9.15
449.593	9.2
450.032	9.24
450.471	9.26
450.91	9.29
451.349	9.33
451.787	9.34
452.226	9.35
452.664	9.37
453.103	9.38
453.541	9.39
453.98	9.42
454.418	9.41
454.856	9.43
455.295	9.44
455.733	9.43
456.171	9.43
456.609	9.45
457.047	9.45
457.485	9.47
457.923	9.48
458.361	9.48
458.798	9.48
459.236	9.49
459.674	9.47
460.111	9.47
460.549	9.48
460.987	9.47
461.424	9.47
461.862	9.48
462.299	9.48
462.736	9.48
463.173	9.48
463.611	9.47
464.048	9.46
464.485	9.48
464.922	9.49
465.359	9.48
465.796	9.53
466.233	9.53
466.67	9.56
467.106	9.56
467.543	9.55
467.98	9.55
468.416	9.54
468.853	9.55
469.29	9.55
469.726	9.56
470.162	9.56
470.599	9.54
471.035	9.53
471.471	9.51
471.907	9.5
472.344	9.53
472.78	9.55
473.216	9.56
473.652	9.58
474.088	9.56
474.523	9.58
474.959	9.59
475.395	9.58
475.831	9.6
476.266	9.62
476.702	9.63
477.138	9.63
477.573	9.65
478.008	9.66
478.444	9.67
478.879	9.69
479.314	9.7
479.75	9.71
480.185	9.72
480.62	9.72
481.055	9.73
481.49	9.74
481.925	9.76
482.36	9.79
482.795	9.8
483.229	9.82
483.664	9.85
484.099	9.87
484.534	9.9
484.968	9.94
485.403	9.98
485.837	10.02
486.271	10.07
486.706	10.11
487.14	10.14
487.574	10.21
488.009	10.26
488.443	10.32
488.877	10.38
489.311	10.45
489.745	10.53
490.179	10.61
490.613	10.7
491.046	10.78
491.48	10.87
491.914	10.97
492.348	11.04
492.781	11.14
493.215	11.26
493.648	11.37
494.082	11.48
494.515	11.59
494.948	11.7
495.382	11.81
495.815	11.93
496.248	12.07
496.681	12.21
497.114	12.36
497.547	12.5
497.98	12.66
498.413	12.82
498.846	12.97
499.279	13.14
499.711	13.31
500.144	13.49
500.577	13.68
501.009	13.86
501.442	14.05
501.874	14.27
502.306	14.48
502.739	14.7
503.171	14.91
503.603	15.12
504.036	15.34
504.468	15.58
504.9	15.8
505.332	16.04
505.764	16.28
506.196	16.53
506.627	16.76
507.059	17.01
507.491	17.25
507.923	17.51
508.354	17.8
508.786	18.08
509.217	18.37
509.649	18.65
510.08	18.92
510.512	19.21
510.943	19.48
511.374	19.78
511.805	20.06
512.237	20.34
512.668	20.63
513.099	20.92
513.53	21.21
513.961	21.5
514.391	21.79
514.822	22.11
515.253	22.4
515.684	22.68
516.114	22.97
516.545	23.25
516.975	23.54
517.406	23.81
517.836	24.07
518.267	24.35
518.697	24.61
519.127	24.85
519.558	25.09
519.988	25.34
520.418	25.57
520.848	25.8
521.278	26.03
521.708	26.54
522.138	26.76
522.567	26.97
522.997	27.17
523.427	27.37
523.857	27.57
524.286	27.74
524.716	27.93
525.145	28.1
525.575	28.3
526.004	28.48
526.433	28.35
526.863	28.51
527.292	28.65
527.721	28.79
528.15	28.9
528.579	29.03
529.008	29.15
529.437	29.26
529.866	29.36
530.295	29.46
530.724	29.55
531.152	29.64
531.581	29.74
532.01	29.84
532.438	29.92
532.867	30.02
533.295	30.1
533.723	30.18
534.152	30.26
534.58	30.35
535.008	30.39
535.436	30.47
535.865	30.54
536.293	30.58
536.721	30.62
537.149	30.68
537.576	30.74
538.004	30.79
538.432	30.84
538.86	30.87
539.287	30.88
539.715	30.94
540.143	30.95
540.57	30.97
540.998	30.99
541.425	31.01
541.852	31.04
542.28	31.06
542.707	31.08
543.134	31.1
543.561	31.12
543.988	31.15
544.415	31.15
544.842	31.16
545.269	31.19
545.696	31.23
546.123	31.26
546.549	31.3
546.976	31.32
547.403	31.35
547.829	31.38
548.256	31.4
548.682	31.41
549.108	31.46
549.535	31.5
549.961	31.51
550.387	31.53
550.813	31.55
551.24	31.56
551.666	31.55
552.092	31.56
552.518	31.57
552.943	31.58
553.369	31.59
553.795	31.6
554.221	31.59
554.646	31.58
555.072	31.56
555.498	31.53
555.923	31.51
556.349	31.48
556.774	31.44
557.199	31.41
557.625	31.36
558.05	31.34
558.475	31.28
558.9	31.26
559.325	31.25
559.75	31.2
560.175	31.16
560.6	31.1
561.025	31.07
561.449	31.02
561.874	30.95
562.299	30.89
562.723	30.81
563.148	30.74
563.572	30.63
563.997	30.54
564.421	30.45
564.846	30.36
565.27	30.27
565.694	30.17
566.118	30.07
566.542	29.99
566.966	29.9
567.39	29.81
567.814	29.72
568.238	29.63
568.662	29.51
569.086	29.43
569.509	29.33
569.933	29.24
570.357	29.15
570.78	29.05
571.204	28.96
571.627	28.87
572.05	28.77
572.474	28.7
572.897	28.62
573.32	28.54
573.743	28.43
574.166	28.35
574.589	28.26
575.012	28.17
575.435	28.1
575.858	28.02
576.281	27.93
576.704	27.83
577.126	27.74
577.549	27.66
577.972	27.58
578.394	27.53
578.817	27.46
579.239	27.39
579.661	27.34
580.084	27.26
580.506	27.21
580.928	27.16
581.35	27.12
581.772	27.05
582.194	26.99
582.616	26.93
583.038	26.85
583.46	26.78
583.882	26.74
584.303	26.67
584.725	26.62
585.147	26.57
585.568	26.52
585.99	26.46
586.411	26.42
586.833	26.36
587.254	26.31
587.675	26.27
588.096	26.24
588.518	26.19
588.939	26.14
589.36	26.08
589.781	26.02
590.202	25.98
590.623	25.94
591.043	25.89
591.464	25.87
591.885	25.83
592.305	25.79
592.726	25.75
593.147	25.72
593.567	25.69
593.987	25.66
594.408	25.62
594.828	25.59
595.248	25.59
595.669	25.57
596.089	25.53
596.509	25.52
596.929	25.5
597.349	25.48
597.769	25.46
598.189	25.41
598.608	25.39
599.028	25.37
599.448	25.33
599.867	25.29
600.287	25.24
600.706	25.22
601.126	25.17
601.545	25.14
601.965	25.1
602.384	25.05
602.803	25.02
603.222	24.98
603.641	24.94
604.061	24.9
604.48	24.83
604.898	24.78
605.317	24.73
605.736	24.68
606.155	24.63
606.574	24.54
606.992	24.47
607.411	24.41
607.829	24.31
608.248	24.22
608.666	24.14
609.085	24.07
609.503	23.99
609.921	23.91
610.339	23.82
610.758	23.73
611.176	23.65
611.594	23.58
612.012	23.51
612.43	23.46
612.847	23.39
613.265	23.31
613.683	23.24
614.101	23.17
614.518	23.08
614.936	23.01
615.353	22.92
615.771	22.86
616.188	22.78
616.606	22.72
617.023	22.64
617.44	22.59
617.857	22.53
618.274	22.46
618.691	22.4
619.108	22.34
619.525	22.3
619.942	22.26
620.359	22.22
620.776	22.18
621.192	22.15
621.609	22.12
622.026	22.08
622.442	22.05
622.859	22.03
623.275	22.02
623.691	22
624.108	21.99
624.524	21.98
624.94	21.97
625.356	21.95
625.772	21.94
626.188	21.91
626.604	21.91
627.02	21.9
627.436	21.88
627.852	21.87
628.268	21.85
628.683	21.83
629.099	21.82
629.514	21.8
629.93	21.77
630.345	21.75
630.761	21.73
631.176	21.69
631.591	21.65
632.007	21.62
632.422	21.57
632.837	21.51
633.252	21.45
633.667	21.37
634.082	21.3
634.497	21.24
634.911	21.16
635.326	21.07
635.741	20.98
636.155	20.86
636.57	20.76
636.984	20.65
637.399	20.55
637.813	20.43
638.228	20.3
638.642	20.17
639.056	20.03
639.47	19.88
639.884	19.74
640.298	19.58
640.712	19.46
641.126	19.3
641.54	19.14
641.954	18.98
642.368	18.83
642.781	18.68
643.195	18.52
643.609	18.35
644.022	18.19
644.436	18.03
644.849	17.87
645.262	17.71
645.676	17.57
646.089	17.45
646.502	17.33
646.915	17.2
647.328	17.09
647.741	16.98
648.154	16.9
648.567	16.83
648.98	16.75
649.393	16.67
649.805	16.62
650.218	16.55
650.631	16.47
651.043	16.39
651.456	16.31
651.868	16.23
652.28	16.15
652.693	16.06
653.105	15.97
653.517	15.88
653.929	15.8
654.341	15.68
654.753	15.58
655.165	15.46
655.577	15.35
655.989	15.23
656.401	15.1
656.813	14.98
657.224	14.84
657.636	14.68
658.047	14.53
658.459	14.36
658.87	14.2
659.282	14.01
659.693	13.85
660.104	13.67
660.515	13.48
660.926	13.3
661.338	13.1
661.749	12.92
662.159	12.74
662.57	12.56
662.981	12.39
663.392	12.2
663.803	12.05
664.213	11.88
664.624	11.72
665.035	11.57
665.445	11.43
665.855	11.3
666.266	11.18
666.676	11.06
667.086	10.93
667.497	10.83
667.907	10.73
668.317	10.63
668.727	10.55
669.137	10.47
669.547	10.41
669.956	10.33
670.366	10.28
670.776	10.22
671.186	10.18
671.595	10.13
672.005	10.09
672.414	10.07
672.824	10.04
673.233	10.02
673.642	10.02
674.052	10.02
674.461	10.01
674.87	10.01
675.279	10.03
675.688	10.04
676.097	10.07
676.506	10.09
676.915	10.12
677.323	10.17
677.732	10.21
678.141	10.28
678.549	10.34
678.958	10.44
679.366	10.55
679.775	10.67
680.183	10.83
680.592	11.01
681	11.21
681.408	11.43
681.816	11.67
682.224	11.94
682.632	12.22
683.04	12.54
683.448	12.87
683.856	13.23
684.264	13.62
684.671	14.02
685.079	14.44
685.487	14.9
685.894	15.39
686.302	15.89
686.709	16.41
687.116	16.96
687.524	17.52
687.931	18.1
688.338	18.69
688.745	19.29
689.152	19.87
689.559	20.5
689.966	21.13
690.373	21.75
690.78	22.36
691.187	22.97
691.593	23.58
692	24.18
692.407	24.77
692.813	25.36
693.22	25.91
693.626	26.48
694.032	27.03
694.439	27.56
694.845	28.07
695.251	28.58
695.657	29.05
696.063	29.54
696.469	30
696.875	30.44
697.281	30.86
697.687	31.28
698.093	31.7
698.498	32.07
698.904	32.44
699.31	32.81
699.715	33.17
700.12	33.52
700.526	33.85
700.931	34.17
701.337	34.48
701.742	34.76
702.147	35.06
702.552	35.34
702.957	35.6
703.362	35.85
703.767	36.08
704.172	36.3
704.577	36.53
704.981	36.76
705.386	36.97
705.791	37.19
706.195	37.4
706.6	37.62
707.004	37.8
707.408	37.99
707.813	38.19
708.217	38.37
708.621	38.55
709.025	38.72
709.43	38.85
709.834	39.02
710.237	39.16
710.641	39.31
711.045	39.44
711.449	39.6
711.853	39.77
712.256	39.89
712.66	40.03
713.064	40.16
713.467	40.3
713.87	40.45
714.274	40.54
714.677	40.67
715.08	40.79
715.484	40.91
715.887	41.02
716.29	41.1
716.693	41.22
717.096	41.32
717.499	41.44
717.901	41.54
718.304	41.65
718.707	41.76
719.109	41.84
719.512	41.93
719.915	42.03
720.317	42.1
720.719	42.15
721.122	42.21
721.524	42.27
721.926	42.33
722.328	42.4
722.731	42.43
723.133	42.5
723.535	42.57
723.937	42.61
724.338	42.63
724.74	42.71
725.142	42.99
725.544	43.03
725.945	43.14
726.347	43.16
726.748	43.21
727.15	43.27
727.551	43.34
727.952	43.37
728.354	43.44
728.755	43.47
729.156	43.49
729.557	43.31
729.958	43.35
730.359	43.33
730.76	43.41
731.161	43.43
731.562	43.45
731.962	43.44
732.363	43.46
732.763	43.48
733.164	43.51
733.564	43.55
733.965	43.58
734.365	43.61
734.766	43.61
735.166	43.62
735.566	43.65
735.966	43.69
736.366	43.7
736.766	43.74
737.166	43.78
737.566	43.8
737.966	43.8
738.365	43.81
738.765	43.85
739.165	43.88
739.564	43.9
739.964	43.9
740.363	43.89
740.763	43.93
741.162	43.95
741.561	43.94
741.96	43.94
742.36	43.95
742.759	43.96
743.158	43.97
743.557	43.97
743.955	43.98
744.354	44
744.753	44.01
745.152	44.02
745.55	44.02
745.949	44.03
746.348	44.07
746.746	44.05
747.144	44.08
747.543	44.06
747.941	44.06
748.339	44.03
748.737	44.02
749.136	44.01
749.534	43.97
749.932	43.96
750.33	43.95
750.727	43.95
751.125	43.98
751.523	43.96
751.921	43.98
752.318	43.99
752.716	44.02
753.113	44.06
753.511	44.07
753.908	44.12
754.305	44.15
754.703	44.16
755.1	44.17
755.497	44.18
755.894	44.19
756.291	44.2
756.688	44.2
757.085	44.2
757.482	44.18
757.878	44.19
758.275	44.16
758.672	44.15
759.068	44.17
759.465	44.17
759.861	44.16
760.258	44.15
760.654	44.15
761.05	44.17
761.447	44.17
761.843	44.18
762.239	44.18
762.635	44.2
763.031	44.22
763.427	44.22
763.822	44.22
764.218	44.23
764.614	44.25
765.01	44.23
765.405	44.23
765.801	44.23
766.196	44.26
766.592	44.23
766.987	44.23
767.382	44.21
767.778	44.2
768.173	44.19
768.568	44.18
768.963	44.17
769.358	44.22
769.753	44.2
770.148	44.21
770.542	44.2
770.937	44.23
771.332	44.24
771.726	44.26
772.121	44.28
772.515	44.28
772.91	44.28
773.304	44.32
773.699	44.3
774.093	44.31
774.487	44.31
774.881	44.34
775.275	44.35
775.669	44.32
776.063	44.28
776.457	44.26
776.851	44.26
777.245	44.25
777.638	44.23
778.032	44.22
778.425	44.24
778.819	44.25
779.212	44.24
779.606	44.22
779.999	44.25
780.392	44.29
780.786	44.31
781.179	44.33
781.572	44.38
781.965	44.39
782.358	44.38
782.751	44.36
783.143	44.35
783.536	44.35
783.929	44.32
784.322	44.35
784.714	44.36
785.107	44.35
785.499	44.35
785.891	44.34
786.284	44.33
786.676	44.38
787.068	44.4
787.46	44.4
787.852	44.4
788.245	44.41
788.636	44.4
789.028	44.39
789.42	44.39
789.812	44.39
790.204	44.37
790.595	44.38
790.987	44.36
791.378	44.36
791.77	44.36
792.161	44.37
792.553	44.4
792.944	44.4
793.335	44.43
793.726	44.41
794.117	44.4
794.508	44.39
794.899	44.36
795.29	44.39
795.681	44.36
796.072	44.38
796.463	44.44
796.853	44.43
797.244	44.43
797.634	44.42
798.025	44.45
798.415	44.45
798.806	44.49
799.196	44.52
799.586	44.51
799.976	44.54
800.366	44.52
800.756	44.49
801.146	44.5
801.536	44.52
801.926	44.51
802.316	44.53
802.706	44.53
803.095	44.54
803.485	44.56
803.874	44.56
804.264	44.56
804.653	44.58
805.043	44.57
805.432	44.58
805.821	44.6
806.21	44.64
806.599	44.64
806.988	44.65
807.377	44.64
807.766	44.65
808.155	44.64
808.544	44.65
808.933	44.66
809.321	44.68
809.71	44.69
810.098	44.71
810.487	44.68
810.875	44.68
811.264	44.68
811.652	44.72
812.04	44.71
812.428	44.77
812.816	44.77
813.204	44.74
813.592	44.7
813.98	44.68
814.368	44.66
814.756	44.69
815.144	44.66
815.531	44.66
815.919	44.64
816.306	44.66
816.694	44.62
817.081	44.62
817.469	44.64
817.856	44.66
818.243	44.65
818.63	44.66
819.017	44.66
819.404	44.68
819.791	44.68
820.178	44.69
820.565	44.66
820.952	44.69
821.339	44.69
821.725	44.69
822.112	44.69
822.498	44.72
822.885	44.72
823.271	44.72
823.657	44.72
824.044	44.74
824.43	44.73
824.816	44.76
825.202	44.74
825.588	44.71
825.974	44.71
826.36	44.72
826.746	44.71
827.132	44.7
827.517	44.71
827.903	44.72
828.289	44.72
828.674	44.7
829.06	44.69
829.445	44.67
829.83	44.68
830.216	44.68
830.601	44.67
830.986	44.68
831.371	44.67
831.756	44.69
832.141	44.69
832.526	44.68
832.911	44.67
833.295	44.68
833.68	44.69
834.065	44.68
834.449	44.67
834.834	44.66
835.218	44.67
835.603	44.68
835.987	44.65
836.371	44.62
836.755	44.61
837.139	44.6
837.524	44.59
837.908	44.61
838.291	44.63
838.675	44.62
839.059	44.61
839.443	44.58
839.827	44.55
840.21	44.56
840.594	44.58
840.977	44.59
841.361	44.6
841.744	44.58
842.127	44.55
842.511	44.52
842.894	44.53
843.277	44.52
843.66	44.49
844.043	44.51
844.426	44.52
844.809	44.52
845.191	44.51
845.574	44.51
845.957	44.54
846.339	44.56
846.722	44.58
847.104	44.59
847.487	44.58
847.869	44.61
848.252	44.62
848.634	44.61
849.016	44.61
849.398	44.62
849.78	44.63
850.162	44.63
850.544	44.63
850.926	44.63
851.307	44.64
851.689	44.66
852.071	44.66
852.452	44.64
852.834	44.63
853.215	44.59
853.597	44.6
853.978	44.59
854.359	44.61
854.741	44.61
855.122	44.59
855.503	44.57
855.884	44.55
856.265	44.56
856.646	44.55
857.026	44.59
857.407	44.62
857.788	44.6
858.169	44.6
858.549	44.58
858.93	44.58
859.31	44.6
859.69	44.62
860.071	44.66
860.451	44.65
860.831	44.66
861.211	44.63
861.591	44.63
861.971	44.66
862.351	44.66
862.731	44.68
863.111	44.67
863.491	44.67
863.87	44.67
864.25	44.64
864.629	44.66
865.009	44.67
865.388	44.68
865.768	44.68
866.147	44.67
866.526	44.67
866.905	44.66
867.284	44.68
867.663	44.68
868.042	44.69
868.421	44.71
868.8	44.7
869.179	44.71
869.558	44.69
869.936	44.66
870.315	44.65
870.693	44.66
871.072	44.68
871.45	44.69
871.828	44.71
872.207	44.72
872.585	44.71
872.963	44.73
873.341	44.72
873.719	44.75
874.097	44.76
874.475	44.78
874.853	44.78
875.23	44.79
875.608	44.78
875.986	44.79
876.363	44.8
876.741	44.8
877.118	44.79
877.495	44.8
877.873	44.8
878.25	44.82
878.627	44.82
879.004	44.83
879.381	44.82
879.758	44.81
880.135	44.79
880.512	44.76
880.889	44.75
881.265	44.75
881.642	44.72
882.019	44.72
882.395	44.7
882.772	44.7
883.148	44.65
883.524	44.64
883.901	44.63
884.277	44.61
884.653	44.59
885.029	44.59
885.405	44.57
885.781	44.58
886.157	44.55
886.532	44.55
886.908	44.54
887.284	44.56
887.659	44.54
888.035	44.52
888.411	44.54
888.786	44.56
889.161	44.55
889.537	44.56
889.912	44.57
890.287	44.58
890.662	44.56
891.037	44.56
891.412	44.56
891.787	44.54
892.162	44.55
892.536	44.54
892.911	44.52
893.286	44.52
893.66	44.51
894.035	44.52
894.409	44.53
894.784	44.56
895.158	44.59
895.532	44.6
895.906	44.6
896.281	44.62
896.655	44.63
897.029	44.64
897.402	44.63
897.776	44.63
898.15	44.62
898.524	44.61
898.898	44.62
899.271	44.6
899.645	44.6
900.018	44.64
900.392	44.63
900.765	44.64
901.138	44.67
901.511	44.71
901.884	44.74
902.258	44.74
902.631	44.75
903.003	44.73
903.376	44.74
903.749	44.73
904.122	44.72
904.495	44.73
904.867	44.72
905.24	44.74
905.612	44.73
905.985	44.69
906.357	44.68
906.729	44.7
907.102	44.69
907.474	44.69
907.846	44.7
908.218	44.7
908.59	44.72
908.962	44.73
909.334	44.72
909.705	44.72
910.077	44.74
910.449	44.74
910.82	44.74
911.192	44.76
911.563	44.74
911.935	44.74
912.306	44.73
912.677	44.75
913.048	44.76
913.419	44.72
913.79	44.73
914.161	44.74
914.532	44.74
914.903	44.74
915.274	44.76
915.645	44.77
916.015	44.78
916.386	44.8
916.756	44.78
917.127	44.74
917.497	44.77
917.868	44.77
918.238	44.76
918.608	44.8
918.978	44.81
919.348	44.79
919.718	44.79
920.088	44.78
920.458	44.76
920.828	44.77
921.198	44.76
921.567	44.78
921.937	44.75
922.306	44.74
922.676	44.73
923.045	44.74
923.415	44.75
923.784	44.76
924.153	44.78
924.522	44.78
924.891	44.76
925.26	44.77
925.629	44.78
925.998	44.8
926.367	44.83
926.736	44.84
927.104	44.82
927.473	44.8
927.842	44.79
928.21	44.79
928.578	44.78
928.947	44.82
929.315	44.83
929.683	44.83
930.051	44.82
930.42	44.81
930.788	44.76
931.156	44.75
931.523	44.77
931.891	44.81
932.259	44.82
932.627	44.81
932.994	44.8
933.362	44.8
933.729	44.82
934.097	44.85
934.464	44.89
934.831	44.91
935.199	44.96
935.566	44.97
935.933	44.92
936.3	44.91
936.667	44.92
937.034	44.99
937.401	44.97
937.767	44.92
938.134	44.86
938.501	44.86
938.867	44.86
939.234	44.81
939.6	44.77
939.967	44.77
940.333	44.74
940.699	44.73
941.065	44.59
941.431	44.59
941.798	44.55
942.163	44.53
942.529	44.46
942.895	44.41
943.261	44.39
943.627	44.38
943.992	44.34
944.358	44.33
944.723	44.33
945.089	44.27
945.454	44.24
945.82	44.22
946.185	44.25
946.55	44.19
946.915	44.14
947.28	44.06
947.645	44.02
948.01	44.02
948.375	43.97
948.74	43.86
949.104	43.94
949.469	43.9
949.834	43.89
950.198	43.88
950.562	43.88
950.927	43.91
951.291	43.92
951.655	43.85
952.02	43.82
952.384	43.76
952.748	43.83
953.112	43.85
953.476	43.85
953.839	43.82
954.203	43.81
954.567	43.81
954.931	43.74
955.294	43.76
955.658	43.83
956.021	43.83
956.385	43.85
956.748	43.79
957.111	43.69
957.474	43.71
957.837	43.7
958.2	43.66
958.563	43.65
958.926	43.69
959.289	43.7
959.652	43.71
960.015	43.75
960.377	43.73
960.74	43.74
961.102	43.75
961.465	43.75
961.827	43.86
962.189	43.86
962.552	43.85
962.914	43.86
963.276	43.86
963.638	43.86
964	43.82
964.362	43.86
964.724	43.81
965.085	43.81
965.447	43.78
965.809	43.68
966.17	43.68
966.532	43.64
966.893	43.67
967.255	43.7
967.616	43.7
967.977	43.74
968.338	43.71
968.699	43.81
969.061	43.8
969.421	43.85
969.782	43.93
970.143	43.92
970.504	44.03
970.865	44.04
971.225	44.01
971.586	43.97
971.946	43.92
972.307	43.95
972.667	43.86
973.027	43.93
973.388	43.9
973.748	43.9
974.108	43.99
974.468	43.93
974.828	43.92
975.188	43.89
975.548	43.87
975.907	43.88
976.267	43.88
976.627	43.96
976.986	43.9
977.346	43.88
977.705	43.8
978.064	43.76
978.424	43.8
978.783	43.69
979.142	43.7
979.501	43.79
979.86	43.84
980.219	43.9
980.578	43.85
980.937	43.87
981.296	43.88
981.654	43.9
982.013	43.91
982.371	43.88
982.73	43.98
983.088	44
983.447	43.95
983.805	43.89
984.163	43.77
984.521	43.77
984.879	43.72
985.237	43.74
985.595	43.8
985.953	43.79
986.311	43.78
986.669	43.73
987.026	43.73
987.384	43.77
987.741	43.74
988.099	43.91
988.456	43.91
988.814	43.98
989.171	43.95
989.528	43.89
989.885	43.8
990.242	43.81
990.599	43.88
990.956	43.9
991.313	43.86
991.67	43.97
992.027	44.11
992.383	44.19
992.74	44.24
993.096	44.3
993.453	44.37
993.809	44.47
994.165	44.61
994.522	44.65
994.878	44.6
995.234	44.65
995.59	44.54
995.946	44.42
996.302	44.42
996.658	44.41
997.013	44.41
997.369	44.4
997.725	44.49
998.08	44.46
998.436	44.36
998.791	44.51
999.147	44.51
999.502	44.59
999.857	44.45
1000.212	44.38
1000.567	44.37
1000.922	44.27
1001.277	44.28
1001.632	44.17
1001.987	44.14
1002.342	44.12
1002.696	43.97
1003.051	44.13
1003.406	44.21
1003.76	44.27
1004.114	44.32
1004.469	44.41
1004.823	44.82
1005.177	44.84
1005.531	44.94
1005.885	45.02
1006.239	45.21
1006.593	45.42
1006.947	45.34
1007.301	45.24
1007.655	45.15
1008.008	45.14
1008.362	45.12
1008.715	44.92
1009.069	44.86
1009.422	44.95
1009.776	44.79
1010.129	44.59
1010.482	44.45
1010.835	44.39
1011.188	44.42
1011.541	44.47
1011.894	44.55
1012.247	44.54
1012.6	44.46
1012.952	44.49
1013.305	44.36
1013.657	44.5
1014.01	44.7
1014.362	44.61
1014.715	44.73
1015.067	44.86
1015.419	45
1015.771	44.96
1016.123	45.03
1016.475	45.13
1016.827	45.16
1017.179	45.32
1017.531	45.21
1017.883	45.27
1018.234	45.65
1018.586	45.67
1018.938	45.96
1019.289	45.83
1019.64	45.76
1019.992	45.58
1020.343	45.43
1020.694	45.27
1021.045	45.18
1021.396	45.26
1021.747	45.34
1022.098	45.19
1022.449	45.05
1022.8	44.9
1023.151	45.09
1023.501	45.43
1023.852	45.59
1024.202	45.75
1024.553	46.14
1024.903	46.42
1025.253	46.69
1025.604	46.61
1025.954	46.24
1026.304	46.16
1026.654	46.18
1027.004	46.19
1027.354	45.96
1027.703	45.68
1028.053	45.61
1028.403	45.71
1028.753	45.32
1029.102	45.16
1029.452	45.03
1029.801	45.43
1030.15	45.57
1030.499	45.22
897.758	2048.27
901.051	2047.3
904.343	2038.23
907.636	2080.9
910.928	2027.53
914.22	2022.3
917.511	1991.17
920.803	1909.17
924.094	1898.33
927.384	1855.63
930.675	1769.13
933.965	1754.36
937.255	1659.31
940.544	1592.99
943.834	1507.69
947.123	1492.38
950.411	1405.04
953.7	1374.42
956.988	1297.27
960.276	1242.19
963.563	1222.57
966.851	1180.63
970.138	1172.51
973.424	1130.94
976.711	1137.93
979.997	1080.62
983.283	1076.15
986.568	1053.03
989.853	1016.97
993.138	1002.09
996.423	963.85
999.708	936.5
1002.992	928.25
1006.275	880.74
1009.559	872.23
1012.842	839.75
1016.125	815.75
1019.408	801.57
1022.69	788.88
1025.972	776.97
1029.254	753.97
1032.536	741.4
1035.817	724.78
1039.098	714.05
1042.379	698.8
1045.659	691.92
1048.939	675.09
1052.219	661.88
1055.498	648.74
1058.778	636.04
1062.057	617.13
1065.335	610.25
1068.614	602.75
1071.892	597.29
1075.17	575.44
1078.447	565.5
1081.724	561.33
1085.001	555.63
1088.278	544.94
1091.554	534.28
1094.83	532.51
1098.106	531.12
1101.382	526.42
1104.657	521.87
1107.932	512.44
1111.206	517.37
1114.481	503.15
1117.755	496.72
1121.029	494.01
1124.302	494.84
1127.575	483.17
1130.848	477.48
1134.121	471.96
1137.393	470.54
1140.665	459.44
1143.937	457.47
1147.208	451.1
1150.48	452.8
1153.75	446.46
1157.021	438.25
1160.291	437.03
1163.561	433.9
1166.831	433.14
1170.101	431.06
1173.37	426.96
1176.639	429.26
1179.907	424.31
1183.176	420.94
1186.444	419.54
1189.711	419.97
1192.979	419.14
1196.246	414.93
1199.513	417.13
1202.78	414.66
1206.046	413.89
1209.312	411.26
1212.578	411.99
1215.843	415.43
1219.108	412.56
1222.373	421.51
1225.638	424.89
1228.902	432.38
1232.166	432.51
1235.43	435.55
1238.693	442.79
1241.956	443.77
1245.219	452.32
1248.482	450.53
1251.744	450.73
1255.006	452.63
1258.268	441.3
1261.529	435.8
1264.79	431.2
1268.051	429.25
1271.312	424.33
1274.572	417.99
1277.832	413.8
1281.092	405.7
1284.351	403.13
1287.61	402.97
1290.869	396.49
1294.128	393.12
1297.386	393.28
1300.644	388.77
1303.902	390.4
1307.159	387.5
1310.416	388.54
1313.673	389.22
1316.93	393.68
1320.186	393.77
1323.442	395.53
1326.697	403.52
1329.953	403.69
1333.208	406.56
1336.463	411.56
1339.717	412.99
1342.972	416.96
1346.226	420.27
1349.479	420.26
1352.733	423.62
1355.986	425.29
1359.238	425
1362.491	427.53
1365.743	433.21
1368.995	432.78
1372.247	430.46
1375.498	430.99
1378.749	438.23
1382	431.24
1385.251	435.2
1388.501	430.85
1391.751	435.82
1395	432.66
1398.25	429.96
1401.499	428.65
1404.748	428.82
1407.996	425.97
1411.244	423.87
1414.492	421.82
1417.74	420
1420.987	411.98
1424.234	414.25
1427.481	405.98
1430.728	408.08
1433.974	402.79
1437.22	399.16
1440.465	397.31
1443.711	396.15
1446.956	394.43
1450.201	385.97
1453.445	383.11
1456.689	382.57
1459.933	375.16
1463.177	373.97
1466.42	366
1469.663	362.48
1472.906	360.74
1476.148	351.09
1479.391	345.37
1482.633	340.73
1485.874	337.39
1489.115	335.16
1492.356	329.07
1495.597	328.12
1498.838	322.38
1502.078	320.71
1505.318	318.48
1508.557	318.21
1511.797	318.38
1515.036	317.15
1518.274	316.38
1521.513	311.94
1524.751	311.08
1527.989	311.01
1531.227	309.87
1534.464	311.13
1537.701	307.62
1540.938	306.78
1544.174	302.35
1547.41	300.65
1550.646	299.36
1553.882	299.21
1557.117	296.69
1560.352	294.17
1563.587	292.97
1566.821	290.47
1570.055	286.36
1573.289	284.43
1576.523	283.91
1579.756	281.84
1582.989	280.42
1586.222	279.53
1589.454	277.41
1592.686	278.94
1595.918	278.12
1599.15	277.38
1602.381	276.98
1605.612	276.88
1608.843	278.92
1612.073	278.43
1615.303	279.4
1618.533	280.46
1621.762	279.21
1624.992	279.22
1628.221	279.16
1631.449	278.59
1634.678	277.48
1637.906	279.56
1641.134	279.2
1644.361	278.46
1647.588	279.58
1650.815	278.19
1654.042	275.85
1657.269	278.3
1660.495	278.63
1663.72	276.05
1666.946	277.45
1670.171	278.31
1673.396	277.53
1676.621	277.34
1679.845	277.5
1683.069	277.15
1686.293	279.15
1689.517	281.28
1692.74	280.49
1695.963	282.12
1699.185	286.31
1702.408	286.18
1705.63	287.24
1708.852	288.43
1712.073	289.09
1715.294	289.42
1718.515	290.36
1721.736	290.27
1724.956	290.89
1728.176	290.96
1731.396	293.5
1734.616	292.76
1737.835	294.13
1741.054	291.83
1744.272	292.75
1747.491	296.57
1750.709	296.88
1753.927	297.83
1757.144	295.98
1760.361	298.36
1763.578	298.34
1766.795	297.42
1770.011	299.05
1773.227	299.1
1776.443	303.89
1779.658	305.78
1782.874	304.02
1786.089	306.02
1789.303	306.99
1792.518	311.54
1795.732	310.49
1798.945	314.87
1802.159	314.37
1805.372	316.17
1808.585	322.48
1811.797	323.33
1815.01	322.62
1818.222	325.99
1821.434	327.86
1824.645	329.2
1827.856	335.04
1831.067	338.91
1834.278	336.11
1837.488	339.57
1840.698	342.3
1843.908	338.17
1847.117	340.62
1850.326	343.52
1853.535	342.19
1856.744	348.93
1859.952	348.71
1863.16	347.7
1866.368	345.14
1869.575	352.34
1872.782	346.31
1875.989	345.14
1879.196	344.33
1882.402	343.07
1885.608	345.39
1888.814	347.95
1892.019	346.51
1895.224	346.52
1898.429	344.14
1901.634	347.5
1904.838	346.39
1908.042	352.67
1911.246	354.43
1914.449	357.3
1917.652	357.42
1920.855	356.46
1924.058	355.69
1927.26	354.2
1930.462	356.57
1933.664	361.67
1936.865	358
1940.066	359.26
1943.267	355.69
1946.467	355.5
1949.668	358.41
1952.868	362.25
1956.067	361.94
1959.267	362.1
1962.466	363.57
1965.665	360.98
1968.863	361.44
1972.061	366.55
1975.259	369.51
1978.457	373.11
1981.654	375.06
1984.852	376.16
1988.048	374.58
1991.245	378.2
1994.441	383.71
1997.637	385.05
2000.833	392.05
2004.028	397.24
2007.223	399.25
2010.418	403.93
2013.613	409.5
2016.807	414.68
2020.001	416.02
2023.194	422.64
2026.388	431.99
2029.581	440.4
2032.774	445.14
2035.966	454.23
2039.158	455.37
2042.35	464.9
2045.542	466.02
2048.733	473.71
2051.924	479.33
2055.115	487.71
2058.306	488.29
2061.496	494.68
2064.686	493.75
2067.875	503.35
2071.065	505.17
2074.254	502.13
2077.442	506.39
2080.631	510.45
2083.819	515.32
2087.007	515.47
2090.195	522.24
2093.382	527.01
2096.569	521.12
2099.756	531.02
2102.942	531.02
2106.128	537.46
2109.314	549.88
2112.5	548.78
2115.685	558.84
2118.87	559.93
2122.055	572.17
2125.239	576.65
2128.424	586.14
2131.608	589.52
2134.791	596.88
2137.974	599.87
2141.157	601.36
2144.34	601.93
2147.523	611.33
2150.705	607.89
2153.887	611.73
2157.068	613.85
2160.25	607.01
2163.431	606.92
2166.611	614.74
2169.792	627.72
2172.972	635.1
2176.152	636.22
2179.331	646.86
2182.511	658.6
2185.69	667
2188.868	681.62
2192.047	682.27
2195.225	703.08
2198.403	721.01
2201.58	733.99
2204.758	747.37
2207.935	763.08
2211.111	778.47
2214.288	787.16
2217.464	788.9
2220.64	796.77
2223.815	810.8
2226.991	843.19
2230.166	846.21
2233.34	863.16
2236.515	876.59
2239.689	876.23
2242.863	882.3
2246.036	910.15
2249.209	897.38
2252.382	913.07
2255.555	945.76
2258.727	945.15
2261.9	950.11
2265.071	958.22
2268.243	973.2
2271.414	985.73
2274.585	1011.96
2277.756	1019.4
2280.926	1024.07
2284.096	1051.62
2287.266	1075.48
2290.436	1083.78
2293.605	1111.38
2296.774	1149.3
2299.942	1185.19
2303.111	1191.35
2306.279	1220.86
2309.447	1233.84
2312.614	1268.24
2315.781	1304.31
2318.948	1366.5
2322.115	1343.57
2325.281	1415.77
2328.447	1383.56
2331.613	1440.2
2334.779	1424.12
2337.944	1484.49
2341.109	1502.22
2344.274	1542.29
2347.438	1599.12
2350.602	1600.9
2353.766	1647.56
2356.929	1670.54
2360.092	1656.53
2363.255	1785.29
2366.418	1775.4
2369.58	1818.2
2372.742	1926.5
2375.904	1971.7
2379.066	1958.32
2382.227	1913.77
2385.388	2081.41
2388.548	2084.62
2391.709	2117.93
2394.869	2362.8
2398.029	2247.62
2401.188	2314.56
2404.347	2299.6
2407.506	2271.15
2410.665	2333.99
2413.823	2475.84
2416.981	2627.62
2420.139	2529.73
2423.296	2500.98
2426.453	2614.33
2429.61	2508.37
2432.767	2637.46
2435.923	2616.31
2439.079	2837.1
2442.235	2875.27
2445.391	2849.82
2448.546	2840.08
2451.701	2758.2
2454.855	2764.09
2458.009	2928.62
2461.163	3034.89
2464.317	3157.68
2467.471	3238.48
2470.624	3231.26
2473.777	3159.65
2476.929	3082.3
2480.082	3000.68
2483.234	2956.04
2486.385	3090.76
2489.537	3106.22
2492.688	3235.02
2495.839	3132.89
2498.989	3071.38
2502.14	3088.62
2505.29	3128.67
2508.439	3186.07
2511.589	3174.29
2514.738	3446.47
2517.887	3378.77
2521.035	3591.53
2524.183	3599.47
2527.331	3628.7
2530.479	3636.71
2533.627	3650.49
