Data from C_3_HIR_IL_4N_Splice17_14-27-53-800.txt Node
Date: Sat Mar 07 14:27:53 EST 2020
User: sa697716
Spectrometer: NQ5500242
Trigger mode: 0
Integration Time (sec): 1.450000E-1
Scans to average: 20
Nonlinearity correction enabled: false
Boxcar width: 5
Storing dark spectrum: false
XAxis mode: Wavelengths
Number of Pixels in Spectrum: 512
>>>>>Begin Spectral Data<<<<<
187.83	131.79
188.298	154.49
188.766	119.79
189.233	107.25
189.701	118.17
190.169	128.93
190.636	118.09
191.104	80.81
191.571	-189.75
192.039	-117.53
192.506	-349.59
192.974	153.5
193.441	406.41
193.908	113.3
194.375	86.65
194.842	34.57
195.31	47.57
195.777	98.27
196.244	78.46
196.711	75.36
197.177	76.47
197.644	75.93
198.111	75.45
198.578	75.26
199.045	76.46
199.511	76.48
199.978	76.94
200.445	77.18
200.911	77.01
201.378	76.94
201.844	76.78
202.31	76.72
202.777	76.53
203.243	76.47
203.709	75.82
204.176	74.82
204.642	74.35
205.108	73.77
205.574	73.04
206.04	72.42
206.506	71.65
206.972	71.22
207.438	69.93
207.903	69.02
208.369	67.66
208.835	66.55
209.301	65.05
209.766	62.98
210.232	61.3
210.697	59.58
211.163	57.61
211.628	56.17
212.094	54.63
212.559	53.7
213.024	52.22
213.49	51.06
213.955	49.69
214.42	48.31
214.885	46.92
215.35	44.97
215.815	42.26
216.28	39.19
216.745	35.68
217.21	32.17
217.675	28.77
218.14	25.87
218.604	23.35
219.069	21.26
219.534	19.55
219.998	18.13
220.463	16.91
220.927	15.88
221.392	15.1
221.856	14.38
222.32	13.82
222.785	13.34
223.249	12.92
223.713	12.54
224.177	12.21
224.642	11.87
225.106	11.55
225.57	11.28
226.034	10.99
226.497	10.75
226.961	10.53
227.425	10.3
227.889	10.1
228.353	9.9
228.816	9.7
229.28	9.5
229.744	9.34
230.207	9.18
230.671	9.02
231.134	8.89
231.597	8.76
232.061	8.63
232.524	8.49
232.987	8.36
233.45	8.24
233.914	8.12
234.377	8.03
234.84	7.93
235.303	7.85
235.766	7.76
236.229	7.67
236.691	7.59
237.154	7.52
237.617	7.46
238.08	7.39
238.542	7.32
239.005	7.27
239.468	7.19
239.93	7.12
240.393	7.06
240.855	6.98
241.317	6.91
241.78	6.85
242.242	6.77
242.704	6.7
243.166	6.64
243.629	6.59
244.091	6.52
244.553	6.45
245.015	6.39
245.477	6.33
245.939	6.28
246.4	6.23
246.862	6.17
247.324	6.12
247.786	6.06
248.247	6.01
248.709	5.94
249.17	5.87
249.632	5.84
250.093	5.79
250.555	5.74
251.016	5.69
251.477	5.65
251.939	5.61
252.4	5.57
252.861	5.52
253.322	5.5
253.783	5.47
254.244	5.44
254.705	5.4
255.166	5.37
255.627	5.33
256.088	5.3
256.549	5.27
257.009	5.24
257.47	5.2
257.931	5.17
258.391	5.12
258.852	5.08
259.312	5.05
259.773	5
260.233	4.97
260.694	4.93
261.154	4.89
261.614	4.85
262.074	4.8
262.534	4.76
262.994	4.73
263.455	4.71
263.915	4.68
264.374	4.64
264.834	4.62
265.294	4.59
265.754	4.57
266.214	4.55
266.673	4.53
267.133	4.51
267.593	4.5
268.052	4.48
268.512	4.46
268.971	4.45
269.431	4.43
269.89	4.42
270.349	4.41
270.809	4.39
271.268	4.38
271.727	4.37
272.186	4.36
272.645	4.35
273.104	4.34
273.563	4.33
274.022	4.32
274.481	4.32
274.94	4.3
275.399	4.29
275.857	4.29
276.316	4.28
276.775	4.27
277.233	4.27
277.692	4.26
278.15	4.25
278.609	4.25
279.067	4.24
279.525	4.24
279.984	4.23
280.442	4.23
280.9	4.23
281.358	4.23
281.816	4.22
282.274	4.22
282.732	4.22
283.19	4.22
283.648	4.21
284.106	4.21
284.564	4.21
285.021	4.22
285.479	4.21
285.937	4.22
286.394	4.21
286.852	4.21
287.309	4.21
287.767	4.2
288.224	4.19
288.682	4.18
289.139	4.16
289.596	4.14
290.053	4.12
290.511	4.1
290.968	4.08
291.425	4.06
291.882	4.05
292.339	4.03
292.796	4.03
293.252	4.02
293.709	4.01
294.166	4
294.623	4
295.079	3.99
295.536	3.98
295.992	3.98
296.449	3.96
296.905	3.96
297.362	3.96
297.818	3.95
298.274	3.94
298.731	3.94
299.187	3.93
299.643	3.92
300.099	3.92
300.555	3.91
301.011	3.91
301.467	3.91
301.923	3.89
302.379	3.89
302.835	3.89
303.291	3.89
303.746	3.89
304.202	3.89
304.658	3.89
305.113	3.89
305.569	3.9
306.024	3.89
306.479	3.89
306.935	3.89
307.39	3.9
307.845	3.9
308.301	3.91
308.756	3.91
309.211	3.91
309.666	3.93
310.121	3.92
310.576	3.92
311.031	3.93
311.486	3.94
311.94	3.95
312.395	3.95
312.85	3.95
313.305	3.96
313.759	3.96
314.214	3.96
314.668	3.96
315.123	3.97
315.577	3.97
316.032	3.97
316.486	3.96
316.94	3.96
317.394	3.95
317.849	3.94
318.303	3.93
318.757	3.91
319.211	3.9
319.665	3.88
320.119	3.86
320.572	3.85
321.026	3.84
321.48	3.83
321.934	3.81
322.387	3.81
322.841	3.8
323.295	3.81
323.748	3.81
324.202	3.81
324.655	3.81
325.108	3.82
325.562	3.82
326.015	3.83
326.468	3.83
326.921	3.84
327.374	3.84
327.827	3.84
328.28	3.84
328.733	3.84
329.186	3.85
329.639	3.85
330.092	3.86
330.545	3.86
330.997	3.87
331.45	3.87
331.903	3.88
332.355	3.89
332.808	3.9
333.26	3.91
333.713	3.91
334.165	3.92
334.617	3.93
335.069	3.93
335.522	3.94
335.974	3.94
336.426	3.94
336.878	3.94
337.33	3.94
337.782	3.94
338.234	3.95
338.686	3.96
339.137	3.96
339.589	3.95
340.041	3.94
340.493	3.93
340.944	3.92
341.396	3.91
341.847	3.89
342.299	3.87
342.75	3.86
343.201	3.84
343.653	3.82
344.104	3.79
344.555	3.78
345.006	3.76
345.457	3.75
345.908	3.74
346.359	3.74
346.81	3.74
347.261	3.72
347.712	3.72
348.163	3.72
348.613	3.72
349.064	3.72
349.515	3.72
349.965	3.73
350.416	3.74
350.866	3.73
351.317	3.72
351.767	3.73
352.217	3.73
352.668	3.74
353.118	3.74
353.568	3.74
354.018	3.75
354.468	3.75
354.918	3.75
355.368	3.76
355.818	3.77
356.268	3.77
356.718	3.77
357.168	3.78
357.617	3.78
358.067	3.78
358.517	3.79
358.966	3.8
359.416	3.8
359.865	3.79
360.315	3.8
360.764	3.8
361.213	3.8
361.663	3.79
362.112	3.8
362.561	3.81
363.01	3.81
363.459	3.8
363.908	3.79
364.357	3.8
364.806	3.8
365.255	3.81
365.703	3.82
366.152	3.82
366.601	3.84
367.05	3.84
367.498	3.84
367.947	3.86
368.395	3.87
368.844	3.88
369.292	3.88
369.74	3.89
370.189	3.88
370.637	3.89
371.085	3.89
371.533	3.89
371.981	3.89
372.429	3.89
372.877	3.89
373.325	3.9
373.773	3.9
374.221	3.91
374.669	3.92
375.116	3.93
375.564	3.94
376.012	3.94
376.459	3.95
376.907	3.98
377.354	3.99
377.801	4.02
378.249	4.03
378.696	4.05
379.143	4.08
379.591	4.09
380.038	4.11
380.485	4.13
380.932	4.17
381.379	4.18
381.826	4.2
382.273	4.22
382.72	4.22
383.166	4.24
383.613	4.26
384.06	4.27
384.506	4.28
384.953	4.31
385.4	4.33
385.846	4.36
386.292	4.38
386.739	4.4
387.185	4.43
387.631	4.46
388.078	4.48
388.524	4.49
388.97	4.51
389.416	4.55
389.862	4.57
390.308	4.59
390.754	4.62
391.2	4.65
391.645	4.68
392.091	4.71
392.537	4.75
392.983	4.78
393.428	4.81
393.874	4.85
394.319	4.88
394.765	4.88
395.21	4.9
395.655	4.93
396.101	4.95
396.546	4.97
396.991	5
397.436	5.02
397.881	5.05
398.326	5.08
398.771	5.12
399.216	5.15
399.661	5.2
400.106	5.23
400.551	5.23
400.995	5.24
401.44	5.26
401.885	5.27
402.329	5.3
402.774	5.31
403.218	5.35
403.663	5.36
404.107	5.38
404.551	5.4
404.995	5.43
405.44	5.44
405.884	5.47
406.328	5.5
406.772	5.52
407.216	5.53
407.66	5.55
408.104	5.55
408.547	5.57
408.991	5.58
409.435	5.58
409.879	5.59
410.322	5.62
410.766	5.63
411.209	5.66
411.653	5.69
412.096	5.71
412.54	5.73
412.983	5.74
413.426	5.77
413.869	5.8
414.312	5.84
414.756	5.88
415.199	5.89
415.642	5.92
416.085	5.93
416.527	5.93
416.97	5.93
417.413	5.93
417.856	5.94
418.298	5.92
418.741	5.91
419.184	5.9
419.626	5.89
420.069	5.9
420.511	5.9
420.953	5.91
421.396	5.92
421.838	5.94
422.28	5.95
422.722	5.99
423.164	6
423.606	6.02
424.048	6.03
424.49	6.03
424.932	6.04
425.374	6.04
425.816	6.03
426.258	6.02
426.699	6
427.141	5.99
427.582	5.98
428.024	6.01
428.465	6.03
428.907	6.02
429.348	6.02
429.789	6.02
430.231	6.04
430.672	6.07
431.113	6.1
431.554	6.15
431.995	6.18
432.436	6.19
432.877	6.19
433.318	6.21
433.759	6.25
434.2	6.28
434.64	6.31
435.081	6.32
435.522	6.35
435.962	6.37
436.403	6.39
436.843	6.39
437.284	6.4
437.724	6.42
438.164	6.42
438.604	6.42
439.045	6.41
439.485	6.4
439.925	6.39
440.365	6.38
440.805	6.37
441.245	6.37
441.685	6.39
442.125	6.4
442.564	6.4
443.004	6.41
443.444	6.43
443.883	6.45
444.323	6.47
444.762	6.47
445.202	6.49
445.641	6.5
446.081	6.5
446.52	6.48
446.959	6.5
447.398	6.51
447.837	6.52
448.276	6.52
448.716	6.53
449.154	6.55
449.593	6.57
450.032	6.57
450.471	6.55
450.91	6.54
451.349	6.54
451.787	6.51
452.226	6.5
452.664	6.48
453.103	6.46
453.541	6.44
453.98	6.41
454.418	6.37
454.856	6.34
455.295	6.33
455.733	6.29
456.171	6.27
456.609	6.25
457.047	6.21
457.485	6.2
457.923	6.18
458.361	6.16
458.798	6.14
459.236	6.14
459.674	6.12
460.111	6.11
460.549	6.13
460.987	6.13
461.424	6.14
461.862	6.15
462.299	6.16
462.736	6.17
463.173	6.17
463.611	6.16
464.048	6.16
464.485	6.18
464.922	6.18
465.359	6.17
465.796	6.17
466.233	6.17
466.67	6.18
467.106	6.19
467.543	6.18
467.98	6.18
468.416	6.19
468.853	6.19
469.29	6.19
469.726	6.2
470.162	6.19
470.599	6.19
471.035	6.17
471.471	6.15
471.907	6.13
472.344	6.13
472.78	6.13
473.216	6.11
473.652	6.11
474.088	6.08
474.523	6.08
474.959	6.08
475.395	6.06
475.831	6.05
476.266	6.04
476.702	6.02
477.138	6.01
477.573	6
478.008	5.99
478.444	5.96
478.879	5.96
479.314	5.94
479.75	5.92
480.185	5.9
480.62	5.89
481.055	5.87
481.49	5.85
481.925	5.83
482.36	5.81
482.795	5.78
483.229	5.77
483.664	5.76
484.099	5.73
484.534	5.71
484.968	5.7
485.403	5.69
485.837	5.69
486.271	5.69
486.706	5.68
487.14	5.69
487.574	5.69
488.009	5.69
488.443	5.69
488.877	5.69
489.311	5.7
489.745	5.7
490.179	5.71
490.613	5.71
491.046	5.71
491.48	5.72
491.914	5.72
492.348	5.73
492.781	5.75
493.215	5.77
493.648	5.78
494.082	5.8
494.515	5.81
494.948	5.82
495.382	5.84
495.815	5.86
496.248	5.87
496.681	5.9
497.114	5.93
497.547	5.95
497.98	5.97
498.413	5.99
498.846	6.03
499.279	6.06
499.711	6.08
500.144	6.13
500.577	6.17
501.009	6.21
501.442	6.26
501.874	6.31
502.306	6.35
502.739	6.41
503.171	6.47
503.603	6.53
504.036	6.6
504.468	6.67
504.9	6.75
505.332	6.82
505.764	6.91
506.196	7
506.627	7.1
507.059	7.2
507.491	7.29
507.923	7.4
508.354	7.51
508.786	7.63
509.217	7.76
509.649	7.89
510.08	8.02
510.512	8.15
510.943	8.28
511.374	8.42
511.805	8.56
512.237	8.71
512.668	8.87
513.099	9.03
513.53	9.2
513.961	9.36
514.391	9.54
514.822	9.73
515.253	9.91
515.684	10.11
516.114	10.3
516.545	10.5
516.975	10.71
517.406	10.92
517.836	11.13
518.267	11.35
518.697	11.56
519.127	11.76
519.558	11.96
519.988	12.17
520.418	12.38
520.848	12.6
521.278	12.81
521.708	13.11
522.138	13.32
522.567	13.51
522.997	13.71
523.427	13.91
523.857	14.12
524.286	14.31
524.716	14.51
525.145	14.71
525.575	14.89
526.004	15.07
526.433	15.14
526.863	15.31
527.292	15.47
527.721	15.63
528.15	15.77
528.579	15.92
529.008	16.07
529.437	16.17
529.866	16.3
530.295	16.42
530.724	16.53
531.152	16.66
531.581	16.77
532.01	16.87
532.438	16.97
532.867	17.06
533.295	17.15
533.723	17.22
534.152	17.3
534.58	17.37
535.008	17.42
535.436	17.49
535.865	17.53
536.293	17.57
536.721	17.63
537.149	17.68
537.576	17.72
538.004	17.76
538.432	17.81
538.86	17.84
539.287	17.86
539.715	17.91
540.143	17.94
540.57	17.96
540.998	17.99
541.425	18
541.852	18.02
542.28	18.05
542.707	18.09
543.134	18.11
543.561	18.16
543.988	18.19
544.415	18.2
544.842	18.24
545.269	18.28
545.696	18.32
546.123	18.35
546.549	18.39
546.976	18.41
547.403	18.45
547.829	18.47
548.256	18.48
548.682	18.5
549.108	18.52
549.535	18.54
549.961	18.56
550.387	18.57
550.813	18.59
551.24	18.59
551.666	18.61
552.092	18.61
552.518	18.61
552.943	18.6
553.369	18.6
553.795	18.59
554.221	18.57
554.646	18.54
555.072	18.5
555.498	18.45
555.923	18.4
556.349	18.33
556.774	18.28
557.199	18.22
557.625	18.17
558.05	18.1
558.475	18.03
558.9	17.96
559.325	17.88
559.75	17.8
560.175	17.73
560.6	17.64
561.025	17.55
561.449	17.44
561.874	17.34
562.299	17.22
562.723	17.11
563.148	16.99
563.572	16.87
563.997	16.75
564.421	16.61
564.846	16.49
565.27	16.35
565.694	16.23
566.118	16.09
566.542	15.96
566.966	15.82
567.39	15.66
567.814	15.51
568.238	15.36
568.662	15.22
569.086	15.08
569.509	14.94
569.933	14.8
570.357	14.65
570.78	14.5
571.204	14.38
571.627	14.26
572.05	14.13
572.474	14.02
572.897	13.91
573.32	13.8
573.743	13.69
574.166	13.59
574.589	13.5
575.012	13.4
575.435	13.32
575.858	13.24
576.281	13.15
576.704	13.09
577.126	13.01
577.549	12.93
577.972	12.85
578.394	12.77
578.817	12.7
579.239	12.63
579.661	12.57
580.084	12.5
580.506	12.43
580.928	12.37
581.35	12.31
581.772	12.25
582.194	12.2
582.616	12.15
583.038	12.11
583.46	12.06
583.882	12
584.303	11.95
584.725	11.9
585.147	11.85
585.568	11.8
585.99	11.75
586.411	11.71
586.833	11.66
587.254	11.61
587.675	11.57
588.096	11.53
588.518	11.49
588.939	11.47
589.36	11.42
589.781	11.4
590.202	11.36
590.623	11.33
591.043	11.3
591.464	11.27
591.885	11.23
592.305	11.2
592.726	11.18
593.147	11.15
593.567	11.11
593.987	11.09
594.408	11.05
594.828	11.03
595.248	11.01
595.669	11
596.089	10.97
596.509	10.96
596.929	10.93
597.349	10.9
597.769	10.86
598.189	10.83
598.608	10.8
599.028	10.77
599.448	10.74
599.867	10.7
600.287	10.66
600.706	10.62
601.126	10.57
601.545	10.54
601.965	10.51
602.384	10.47
602.803	10.43
603.222	10.39
603.641	10.36
604.061	10.32
604.48	10.27
604.898	10.23
605.317	10.19
605.736	10.14
606.155	10.09
606.574	10.05
606.992	9.99
607.411	9.96
607.829	9.9
608.248	9.84
608.666	9.79
609.085	9.75
609.503	9.71
609.921	9.66
610.339	9.62
610.758	9.58
611.176	9.54
611.594	9.49
612.012	9.44
612.43	9.41
612.847	9.36
613.265	9.31
613.683	9.27
614.101	9.22
614.518	9.18
614.936	9.13
615.353	9.07
615.771	9.03
616.188	8.99
616.606	8.95
617.023	8.9
617.44	8.88
617.857	8.84
618.274	8.8
618.691	8.76
619.108	8.74
619.525	8.7
619.942	8.69
620.359	8.65
620.776	8.63
621.192	8.61
621.609	8.59
622.026	8.56
622.442	8.55
622.859	8.53
623.275	8.51
623.691	8.5
624.108	8.49
624.524	8.48
624.94	8.47
625.356	8.47
625.772	8.46
626.188	8.46
626.604	8.45
627.02	8.44
627.436	8.44
627.852	8.43
628.268	8.42
628.683	8.42
629.099	8.41
629.514	8.4
629.93	8.39
630.345	8.36
630.761	8.33
631.176	8.31
631.591	8.29
632.007	8.27
632.422	8.23
632.837	8.21
633.252	8.17
633.667	8.12
634.082	8.09
634.497	8.05
634.911	8.01
635.326	7.96
635.741	7.91
636.155	7.86
636.57	7.8
636.984	7.75
637.399	7.69
637.813	7.63
638.228	7.57
638.642	7.51
639.056	7.44
639.47	7.39
639.884	7.33
640.298	7.27
640.712	7.22
641.126	7.16
641.54	7.1
641.954	7.04
642.368	6.98
642.781	6.95
643.195	6.9
643.609	6.85
644.022	6.81
644.436	6.76
644.849	6.72
645.262	6.68
645.676	6.64
646.089	6.6
646.502	6.57
646.915	6.54
647.328	6.49
647.741	6.46
648.154	6.44
648.567	6.41
648.98	6.39
649.393	6.37
649.805	6.36
650.218	6.34
650.631	6.33
651.043	6.32
651.456	6.3
651.868	6.3
652.28	6.28
652.693	6.26
653.105	6.26
653.517	6.24
653.929	6.22
654.341	6.19
654.753	6.17
655.165	6.15
655.577	6.13
655.989	6.12
656.401	6.09
656.813	6.07
657.224	6.05
657.636	6.02
658.047	6.01
658.459	5.99
658.87	5.97
659.282	5.94
659.693	5.92
660.104	5.87
660.515	5.84
660.926	5.82
661.338	5.8
661.749	5.77
662.159	5.74
662.57	5.72
662.981	5.71
663.392	5.69
663.803	5.68
664.213	5.67
664.624	5.66
665.035	5.65
665.445	5.65
665.855	5.65
666.266	5.65
666.676	5.66
667.086	5.65
667.497	5.65
667.907	5.65
668.317	5.66
668.727	5.66
669.137	5.68
669.547	5.68
669.956	5.69
670.366	5.69
670.776	5.7
671.186	5.71
671.595	5.72
672.005	5.73
672.414	5.74
672.824	5.76
673.233	5.77
673.642	5.8
674.052	5.81
674.461	5.82
674.87	5.84
675.279	5.87
675.688	5.9
676.097	5.92
676.506	5.95
676.915	5.97
677.323	5.99
677.732	6.01
678.141	6.04
678.549	6.07
678.958	6.09
679.366	6.13
679.775	6.16
680.183	6.19
680.592	6.22
681	6.26
681.408	6.3
681.816	6.34
682.224	6.39
682.632	6.43
683.04	6.48
683.448	6.54
683.856	6.58
684.264	6.64
684.671	6.7
685.079	6.78
685.487	6.89
685.894	6.99
686.302	7.11
686.709	7.24
687.116	7.39
687.524	7.55
687.931	7.73
688.338	7.93
688.745	8.16
689.152	8.39
689.559	8.66
689.966	8.92
690.373	9.22
690.78	9.54
691.187	9.88
691.593	10.24
692	10.62
692.407	11
692.813	11.41
693.22	11.82
693.626	12.26
694.032	12.7
694.439	13.17
694.845	13.65
695.251	14.11
695.657	14.6
696.063	15.09
696.469	15.6
696.875	16.11
697.281	16.64
697.687	17.18
698.093	17.7
698.498	18.23
698.904	18.76
699.31	19.28
699.715	19.83
700.12	20.37
700.526	20.91
700.931	21.45
701.337	21.98
701.742	22.5
702.147	23.03
702.552	23.55
702.957	24.07
703.362	24.58
703.767	25.1
704.172	25.61
704.577	26.11
704.981	26.62
705.386	27.11
705.791	27.63
706.195	28.13
706.6	28.62
707.004	29.11
707.408	29.6
707.813	30.09
708.217	30.58
708.621	31.06
709.025	31.51
709.43	31.95
709.834	32.43
710.237	32.84
710.641	33.27
711.045	33.71
711.449	34.16
711.853	34.6
712.256	35.05
712.66	35.47
713.064	35.89
713.467	36.32
713.87	36.75
714.274	37.14
714.677	37.57
715.08	37.98
715.484	38.38
715.887	38.8
716.29	39.17
716.693	39.54
717.096	39.92
717.499	40.29
717.901	40.67
718.304	41.06
718.707	41.43
719.109	41.8
719.512	42.14
719.915	42.51
720.317	42.79
720.719	43.11
721.122	43.43
721.524	43.74
721.926	44.06
722.328	44.37
722.731	44.63
723.133	44.95
723.535	45.25
723.937	45.54
724.338	45.81
724.74	46.1
725.142	46.43
725.544	46.67
725.945	46.9
726.347	47.14
726.748	47.35
727.15	47.57
727.551	47.79
727.952	47.97
728.354	48.19
728.755	48.36
729.156	48.57
729.557	48.71
729.958	48.86
730.359	49.06
730.76	49.24
731.161	49.42
731.562	49.62
731.962	49.73
732.363	49.89
732.763	50.03
733.164	50.16
733.564	50.29
733.965	50.44
734.365	50.58
734.766	50.69
735.166	50.8
735.566	50.91
735.966	51.01
736.366	51.13
736.766	51.22
737.166	51.32
737.566	51.39
737.966	51.45
738.365	51.52
738.765	51.61
739.165	51.7
739.564	51.78
739.964	51.87
740.363	51.9
740.763	51.96
741.162	52.04
741.561	52.06
741.96	52.12
742.36	52.2
742.759	52.26
743.158	52.32
743.557	52.38
743.955	52.43
744.354	52.46
744.753	52.56
745.152	52.68
745.55	52.73
745.949	52.85
746.348	52.94
746.746	52.99
747.144	53.05
747.543	53.09
747.941	53.14
748.339	53.15
748.737	53.19
749.136	53.19
749.534	53.16
749.932	53.18
750.33	53.17
750.727	53.18
751.125	53.21
751.523	53.21
751.921	53.24
752.318	53.25
752.716	53.29
753.113	53.29
753.511	53.31
753.908	53.35
754.305	53.35
754.703	53.33
755.1	53.34
755.497	53.33
755.894	53.34
756.291	53.33
756.688	53.31
757.085	53.33
757.482	53.33
757.878	53.32
758.275	53.28
758.672	53.3
759.068	53.34
759.465	53.36
759.861	53.38
760.258	53.39
760.654	53.4
761.05	53.41
761.447	53.41
761.843	53.41
762.239	53.43
762.635	53.45
763.031	53.45
763.427	53.42
763.822	53.4
764.218	53.37
764.614	53.35
765.01	53.33
765.405	53.34
765.801	53.31
766.196	53.31
766.592	53.3
766.987	53.3
767.382	53.26
767.778	53.25
768.173	53.29
768.568	53.3
768.963	53.31
769.358	53.31
769.753	53.3
770.148	53.3
770.542	53.32
770.937	53.31
771.332	53.3
771.726	53.35
772.121	53.36
772.515	53.34
772.91	53.34
773.304	53.32
773.699	53.33
774.093	53.32
774.487	53.31
774.881	53.32
775.275	53.32
775.669	53.31
776.063	53.29
776.457	53.28
776.851	53.25
777.245	53.23
777.638	53.26
778.032	53.25
778.425	53.29
778.819	53.3
779.212	53.29
779.606	53.32
779.999	53.32
780.392	53.34
780.786	53.38
781.179	53.44
781.572	53.5
781.965	53.52
782.358	53.57
782.751	53.58
783.143	53.61
783.536	53.62
783.929	53.64
784.322	53.66
784.714	53.66
785.107	53.66
785.499	53.64
785.891	53.63
786.284	53.62
786.676	53.64
787.068	53.62
787.46	53.64
787.852	53.66
788.245	53.65
788.636	53.65
789.028	53.67
789.42	53.66
789.812	53.7
790.204	53.68
790.595	53.73
790.987	53.72
791.378	53.75
791.77	53.75
792.161	53.76
792.553	53.77
792.944	53.8
793.335	53.8
793.726	53.83
794.117	53.79
794.508	53.8
794.899	53.78
795.29	53.78
795.681	53.73
796.072	53.75
796.463	53.74
796.853	53.74
797.244	53.72
797.634	53.75
798.025	53.77
798.415	53.79
798.806	53.82
799.196	53.83
799.586	53.85
799.976	53.9
800.366	53.9
800.756	53.93
801.146	53.94
801.536	53.99
801.926	53.97
802.316	53.97
802.706	54
803.095	54.01
803.485	54.01
803.874	54.03
804.264	54.05
804.653	54.07
805.043	54.08
805.432	54.12
805.821	54.14
806.21	54.17
806.599	54.19
806.988	54.18
807.377	54.2
807.766	54.21
808.155	54.19
808.544	54.2
808.933	54.19
809.321	54.21
809.71	54.18
810.098	54.16
810.487	54.14
810.875	54.16
811.264	54.18
811.652	54.19
812.04	54.19
812.428	54.26
812.816	54.26
813.204	54.27
813.592	54.25
813.98	54.26
814.368	54.28
814.756	54.28
815.144	54.28
815.531	54.28
815.919	54.27
816.306	54.29
816.694	54.24
817.081	54.25
817.469	54.27
817.856	54.28
818.243	54.29
818.63	54.29
819.017	54.3
819.404	54.28
819.791	54.27
820.178	54.29
820.565	54.29
820.952	54.3
821.339	54.29
821.725	54.3
822.112	54.31
822.498	54.34
822.885	54.36
823.271	54.34
823.657	54.31
824.044	54.3
824.43	54.29
824.816	54.3
825.202	54.28
825.588	54.27
825.974	54.23
826.36	54.21
826.746	54.17
827.132	54.14
827.517	54.16
827.903	54.21
828.289	54.21
828.674	54.2
829.06	54.16
829.445	54.15
829.83	54.14
830.216	54.13
830.601	54.11
830.986	54.1
831.371	54.07
831.756	54.04
832.141	54
832.526	53.98
832.911	53.95
833.295	53.93
833.68	53.91
834.065	53.88
834.449	53.85
834.834	53.86
835.218	53.85
835.603	53.85
835.987	53.81
836.371	53.78
836.755	53.77
837.139	53.74
837.524	53.74
837.908	53.76
838.291	53.78
838.675	53.77
839.059	53.73
839.443	53.68
839.827	53.67
840.21	53.66
840.594	53.66
840.977	53.65
841.361	53.64
841.744	53.61
842.127	53.55
842.511	53.51
842.894	53.51
843.277	53.5
843.66	53.48
844.043	53.47
844.426	53.47
844.809	53.46
845.191	53.45
845.574	53.46
845.957	53.48
846.339	53.48
846.722	53.51
847.104	53.49
847.487	53.48
847.869	53.51
848.252	53.51
848.634	53.51
849.016	53.53
849.398	53.55
849.78	53.55
850.162	53.52
850.544	53.51
850.926	53.49
851.307	53.49
851.689	53.5
852.071	53.5
852.452	53.48
852.834	53.49
853.215	53.47
853.597	53.46
853.978	53.45
854.359	53.46
854.741	53.47
855.122	53.47
855.503	53.48
855.884	53.47
856.265	53.48
856.646	53.49
857.026	53.5
857.407	53.52
857.788	53.52
858.169	53.55
858.549	53.54
858.93	53.55
859.31	53.58
859.69	53.59
860.071	53.61
860.451	53.6
860.831	53.59
861.211	53.56
861.591	53.54
861.971	53.53
862.351	53.53
862.731	53.56
863.111	53.55
863.491	53.54
863.87	53.53
864.25	53.52
864.629	53.54
865.009	53.54
865.388	53.55
865.768	53.57
866.147	53.56
866.526	53.57
866.905	53.56
867.284	53.56
867.663	53.56
868.042	53.56
868.421	53.59
868.8	53.59
869.179	53.62
869.558	53.62
869.936	53.62
870.315	53.62
870.693	53.63
871.072	53.62
871.45	53.63
871.828	53.62
872.207	53.63
872.585	53.59
872.963	53.59
873.341	53.55
873.719	53.57
874.097	53.55
874.475	53.58
874.853	53.56
875.23	53.59
875.608	53.57
875.986	53.62
876.363	53.62
876.741	53.63
877.118	53.62
877.495	53.66
877.873	53.64
878.25	53.66
878.627	53.66
879.004	53.66
879.381	53.65
879.758	53.65
880.135	53.63
880.512	53.6
880.889	53.59
881.265	53.59
881.642	53.56
882.019	53.57
882.395	53.55
882.772	53.52
883.148	53.49
883.524	53.48
883.901	53.46
884.277	53.42
884.653	53.4
885.029	53.38
885.405	53.37
885.781	53.36
886.157	53.33
886.532	53.32
886.908	53.29
887.284	53.29
887.659	53.25
888.035	53.23
888.411	53.22
888.786	53.24
889.161	53.27
889.537	53.25
889.912	53.24
890.287	53.22
890.662	53.19
891.037	53.21
891.412	53.17
891.787	53.17
892.162	53.17
892.536	53.16
892.911	53.15
893.286	53.11
893.66	53.12
894.035	53.08
894.409	53.07
894.784	53.07
895.158	53.06
895.532	53.09
895.906	53.07
896.281	53.08
896.655	53.06
897.029	53.04
897.402	53.03
897.776	53.04
898.15	53.07
898.524	53.1
898.898	53.12
899.271	53.13
899.645	53.14
900.018	53.16
900.392	53.17
900.765	53.21
901.138	53.22
901.511	53.24
901.884	53.26
902.258	53.27
902.631	53.27
903.003	53.29
903.376	53.29
903.749	53.27
904.122	53.31
904.495	53.33
904.867	53.34
905.24	53.38
905.612	53.44
905.985	53.43
906.357	53.41
906.729	53.44
907.102	53.44
907.474	53.44
907.846	53.43
908.218	53.43
908.59	53.46
908.962	53.44
909.334	53.45
909.705	53.4
910.077	53.43
910.449	53.42
910.82	53.42
911.192	53.41
911.563	53.41
911.935	53.42
912.306	53.42
912.677	53.41
913.048	53.43
913.419	53.42
913.79	53.46
914.161	53.43
914.532	53.49
914.903	53.51
915.274	53.52
915.645	53.55
916.015	53.57
916.386	53.57
916.756	53.58
917.127	53.57
917.497	53.59
917.868	53.56
918.238	53.55
918.608	53.55
918.978	53.53
919.348	53.53
919.718	53.51
920.088	53.52
920.458	53.53
920.828	53.51
921.198	53.49
921.567	53.48
921.937	53.49
922.306	53.5
922.676	53.52
923.045	53.51
923.415	53.52
923.784	53.53
924.153	53.55
924.522	53.57
924.891	53.56
925.26	53.6
925.629	53.63
925.998	53.65
926.367	53.67
926.736	53.65
927.104	53.68
927.473	53.62
927.842	53.62
928.21	53.58
928.578	53.55
928.947	53.56
929.315	53.51
929.683	53.46
930.051	53.41
930.42	53.38
930.788	53.32
931.156	53.25
931.523	53.27
931.891	53.27
932.259	53.27
932.627	53.28
932.994	53.25
933.362	53.23
933.729	53.22
934.097	53.25
934.464	53.26
934.831	53.29
935.199	53.3
935.566	53.31
935.933	53.31
936.3	53.33
936.667	53.28
937.034	53.3
937.401	53.35
937.767	53.37
938.134	53.34
938.501	53.37
938.867	53.41
939.234	53.46
939.6	53.5
939.967	53.53
940.333	53.53
940.699	53.6
941.065	53.62
941.431	53.66
941.798	53.68
942.163	53.75
942.529	53.74
942.895	53.79
943.261	53.89
943.627	53.87
943.992	53.89
944.358	53.92
944.723	53.93
945.089	53.89
945.454	53.96
945.82	53.99
946.185	53.97
946.55	53.92
946.915	53.88
947.28	53.75
947.645	53.76
948.01	53.72
948.375	53.7
948.74	53.68
949.104	53.73
949.469	53.65
949.834	53.58
950.198	53.57
950.562	53.55
950.927	53.5
951.291	53.41
951.655	53.3
952.02	53.27
952.384	53.22
952.748	53.15
953.112	53.11
953.476	53.05
953.839	53.03
954.203	52.95
954.567	52.91
954.931	52.88
955.294	52.88
955.658	52.94
956.021	52.92
956.385	52.88
956.748	52.82
957.111	52.77
957.474	52.76
957.837	52.74
958.2	52.75
958.563	52.76
958.926	52.76
959.289	52.79
959.652	52.75
960.015	52.75
960.377	52.73
960.74	52.75
961.102	52.77
961.465	52.8
961.827	52.76
962.189	52.8
962.552	52.75
962.914	52.75
963.276	52.8
963.638	52.83
964	52.81
964.362	52.86
964.724	52.84
965.085	52.85
965.447	52.79
965.809	52.79
966.17	52.76
966.532	52.79
966.893	52.8
967.255	52.77
967.616	52.72
967.977	52.67
968.338	52.61
968.699	52.62
969.061	52.56
969.421	52.57
969.782	52.63
970.143	52.62
970.504	52.61
970.865	52.6
971.225	52.53
971.586	52.55
971.946	52.58
972.307	52.59
972.667	52.6
973.027	52.65
973.388	52.72
973.748	52.72
974.108	52.76
974.468	52.74
974.828	52.77
975.188	52.83
975.548	52.8
975.907	52.85
976.267	52.88
976.627	52.92
976.986	52.87
977.346	52.81
977.705	52.74
978.064	52.71
978.424	52.79
978.783	52.7
979.142	52.75
979.501	52.78
979.86	52.75
980.219	52.75
980.578	52.72
980.937	52.75
981.296	52.72
981.654	52.75
982.013	52.81
982.371	52.76
982.73	52.84
983.088	52.81
983.447	52.83
983.805	52.88
984.163	52.89
984.521	52.88
984.879	52.93
985.237	53
985.595	53.09
985.953	53.07
986.311	53.09
986.669	53.04
987.026	53.08
987.384	53.13
987.741	53.11
988.099	53.2
988.456	53.27
988.814	53.32
989.171	53.3
989.528	53.32
989.885	53.32
990.242	53.34
990.599	53.43
990.956	53.51
991.313	53.53
991.67	53.49
992.027	53.5
992.383	53.56
992.74	53.61
993.096	53.62
993.453	53.64
993.809	53.69
994.165	53.73
994.522	53.73
994.878	53.73
995.234	53.77
995.59	53.96
995.946	54.01
996.302	54.09
996.658	54.19
997.013	54.32
997.369	54.26
997.725	54.35
998.08	54.42
998.436	54.51
998.791	54.58
999.147	54.54
999.502	54.5
999.857	54.52
1000.212	54.43
1000.567	54.44
1000.922	54.38
1001.277	54.5
1001.632	54.45
1001.987	54.46
1002.342	54.44
1002.696	54.41
1003.051	54.58
1003.406	54.71
1003.76	54.8
1004.114	54.85
1004.469	54.93
1004.823	55.33
1005.177	55.42
1005.531	55.59
1005.885	55.61
1006.239	55.64
1006.593	55.73
1006.947	55.73
1007.301	55.73
1007.655	55.74
1008.008	55.87
1008.362	55.85
1008.715	55.68
1009.069	55.78
1009.422	55.83
1009.776	55.92
1010.129	56.09
1010.482	56.06
1010.835	56.08
1011.188	56.2
1011.541	56.19
1011.894	56.23
1012.247	56.27
1012.6	56.26
1012.952	56.28
1013.305	56.37
1013.657	56.39
1014.01	56.57
1014.362	56.78
1014.715	56.85
1015.067	56.9
1015.419	57.09
1015.771	57.1
1016.123	57.07
1016.475	57.4
1016.827	57.55
1017.179	57.46
1017.531	57.69
1017.883	57.61
1018.234	57.77
1018.586	57.99
1018.938	58.1
1019.289	58.06
1019.64	58.18
1019.992	58.3
1020.343	58.16
1020.694	58.15
1021.045	58.26
1021.396	58.29
1021.747	58.34
1022.098	58.48
1022.449	58.53
1022.8	58.55
1023.151	58.58
1023.501	58.77
1023.852	59
1024.202	59.13
1024.553	58.96
1024.903	59.06
1025.253	59.31
1025.604	59.47
1025.954	59.28
1026.304	59.32
1026.654	59.46
1027.004	59.62
1027.354	59.51
1027.703	59.3
1028.053	59.4
1028.403	59.78
1028.753	59.88
1029.102	60.16
1029.452	60.57
1029.801	61.11
1030.15	61.21
1030.499	61.22
897.758	1002.46
901.051	1015.15
904.343	1010.56
907.636	1028.42
910.928	999.18
914.22	998.13
917.511	988.17
920.803	944.63
924.094	941.28
927.384	920.91
930.675	890.23
933.965	886.48
937.255	829.52
940.544	799.34
943.834	763
947.123	759.11
950.411	713.67
953.7	698.78
956.988	662.59
960.276	635.69
963.563	627.55
966.851	600.29
970.138	596.71
973.424	581.26
976.711	583.06
979.997	555.33
983.283	551.56
986.568	541.82
989.853	526.1
993.138	516.3
996.423	497.77
999.708	484.33
1002.992	479.16
1006.275	458.11
1009.559	454.31
1012.842	438.65
1016.125	427.16
1019.408	418.63
1022.69	416.28
1025.972	406.83
1029.254	396.26
1032.536	389.52
1035.817	383.43
1039.098	378.87
1042.379	372.32
1045.659	367.59
1048.939	359.29
1052.219	352.12
1055.498	348.72
1058.778	338.91
1062.057	332.93
1065.335	331.2
1068.614	326.84
1071.892	323.33
1075.17	313.66
1078.447	307.36
1081.724	305.16
1085.001	303.21
1088.278	297.47
1091.554	291.28
1094.83	292.81
1098.106	290
1101.382	286.98
1104.657	285.74
1107.932	281.06
1111.206	282.88
1114.481	276.31
1117.755	274.86
1121.029	271.78
1124.302	271.26
1127.575	268.28
1130.848	264.16
1134.121	261.76
1137.393	260.36
1140.665	256.19
1143.937	253.3
1147.208	252.11
1150.48	251.66
1153.75	247.73
1157.021	244.53
1160.291	244.98
1163.561	240.64
1166.831	240.15
1170.101	238.75
1173.37	238.69
1176.639	238.29
1179.907	236.8
1183.176	233.79
1186.444	233.41
1189.711	233.3
1192.979	232.91
1196.246	231.57
1199.513	231.97
1202.78	231.38
1206.046	230.6
1209.312	228.06
1212.578	228.67
1215.843	229.84
1219.108	229.72
1222.373	233.64
1225.638	234.59
1228.902	237.68
1232.166	237.44
1235.43	239.35
1238.693	242.44
1241.956	244.4
1245.219	248
1248.482	247.66
1251.744	248.52
1255.006	247.97
1258.268	243.71
1261.529	242.01
1264.79	241.16
1268.051	239.44
1271.312	237.34
1274.572	233.99
1277.832	232.49
1281.092	228.28
1284.351	227
1287.61	226.73
1290.869	223.27
1294.128	221.48
1297.386	221.06
1300.644	218.72
1303.902	219.53
1307.159	218.84
1310.416	218.77
1313.673	217.6
1316.93	219.86
1320.186	219.74
1323.442	219.72
1326.697	223.36
1329.953	223.76
1333.208	224.65
1336.463	227.15
1339.717	227.57
1342.972	229.13
1346.226	231.29
1349.479	231.72
1352.733	232.71
1355.986	233.82
1359.238	234.13
1362.491	234.45
1365.743	236.72
1368.995	237.13
1372.247	235.47
1375.498	235.46
1378.749	236.44
1382	233.3
1385.251	233.83
1388.501	231.99
1391.751	231.64
1395	230.55
1398.25	228.82
1401.499	226.36
1404.748	225.13
1407.996	223.29
1411.244	221.76
1414.492	220.27
1417.74	218.1
1420.987	214.17
1424.234	213.7
1427.481	210.98
1430.728	210.5
1433.974	208.51
1437.22	206.93
1440.465	206.76
1443.711	204.04
1446.956	203.15
1450.201	201.05
1453.445	199.03
1456.689	198.84
1459.933	195.31
1463.177	194.12
1466.42	190.81
1469.663	188.88
1472.906	187.69
1476.148	182.89
1479.391	181.28
1482.633	179.71
1485.874	177.42
1489.115	176.31
1492.356	174.56
1495.597	174.53
1498.838	172.15
1502.078	171.4
1505.318	170.96
1508.557	171.01
1511.797	170.96
1515.036	168.96
1518.274	168.73
1521.513	167.85
1524.751	167.4
1527.989	167.1
1531.227	166.46
1534.464	166.78
1537.701	166.85
1540.938	166.06
1544.174	163.81
1547.41	164.14
1550.646	163.93
1553.882	163.78
1557.117	161.77
1560.352	161.06
1563.587	161.05
1566.821	160.18
1570.055	159.14
1573.289	157.1
1576.523	157.81
1579.756	157.01
1582.989	156.18
1586.222	156.47
1589.454	156.31
1592.686	157.29
1595.918	157.04
1599.15	156.43
1602.381	156.6
1605.612	156.34
1608.843	156.71
1612.073	156.41
1615.303	157.15
1618.533	157.34
1621.762	156.73
1624.992	157.05
1628.221	156.98
1631.449	156.3
1634.678	156.35
1637.906	157.47
1641.134	157.13
1644.361	157.22
1647.588	157.28
1650.815	157.05
1654.042	156.51
1657.269	157.78
1660.495	157.24
1663.72	156.95
1666.946	158.05
1670.171	158.28
1673.396	157.63
1676.621	157.5
1679.845	158.69
1683.069	158.78
1686.293	159.45
1689.517	159.93
1692.74	159.96
1695.963	160.25
1699.185	161.68
1702.408	161.24
1705.63	161.92
1708.852	162.57
1712.073	163.39
1715.294	162.98
1718.515	163.84
1721.736	163.59
1724.956	163.96
1728.176	163.81
1731.396	165
1734.616	163.97
1737.835	164.93
1741.054	164
1744.272	164.19
1747.491	165.59
1750.709	165.29
1753.927	165.04
1757.144	164.74
1760.361	165.06
1763.578	165.76
1766.795	164.95
1770.011	167.23
1773.227	166.86
1776.443	168.25
1779.658	168.61
1782.874	168.43
1786.089	168.67
1789.303	169.06
1792.518	171.52
1795.732	171.27
1798.945	172.29
1802.159	172.71
1805.372	171.92
1808.585	174.82
1811.797	175.49
1815.01	175.72
1818.222	176.48
1821.434	179.3
1824.645	179.74
1827.856	181.59
1831.067	183.42
1834.278	183.03
1837.488	184.3
1840.698	185.69
1843.908	184.06
1847.117	184.52
1850.326	185.48
1853.535	184.3
1856.744	185.77
1859.952	185.37
1863.16	183.73
1866.368	182.06
1869.575	182.79
1872.782	179.47
1875.989	178.97
1879.196	178.1
1882.402	176.39
1885.608	176.15
1888.814	176.14
1892.019	175.14
1895.224	173.86
1898.429	173.18
1901.634	173.62
1904.838	173.81
1908.042	175.27
1911.246	174.58
1914.449	175.1
1917.652	175.61
1920.855	175.61
1924.058	176.07
1927.26	174.79
1930.462	175.61
1933.664	177.31
1936.865	175.97
1940.066	175.3
1943.267	174.41
1946.467	175.18
1949.668	175.45
1952.868	177.81
1956.067	178.31
1959.267	177.98
1962.466	178.68
1965.665	178
1968.863	178.11
1972.061	181.61
1975.259	183.62
1978.457	184.81
1981.654	186.16
1984.852	187.45
1988.048	186.28
1991.245	188.47
1994.441	190.24
1997.637	191.63
2000.833	195.59
2004.028	198.84
2007.223	198.47
2010.418	200.13
2013.613	204.68
2016.807	206.72
2020.001	208.17
2023.194	212.08
2026.388	215.8
2029.581	221.62
2032.774	223.43
2035.966	226.96
2039.158	227.07
2042.35	231.76
2045.542	232.96
2048.733	236.89
2051.924	239.62
2055.115	244.24
2058.306	244.6
2061.496	246.68
2064.686	246.1
2067.875	250.99
2071.065	252.19
2074.254	250.8
2077.442	255.88
2080.631	257.19
2083.819	258.78
2087.007	259.79
2090.195	263.64
2093.382	265.72
2096.569	264.47
2099.756	269
2102.942	269.74
2106.128	271.73
2109.314	279.26
2112.5	276.74
2115.685	283.15
2118.87	283.87
2122.055	288.87
2125.239	289.35
2128.424	292.82
2131.608	295.81
2134.791	301.09
2137.974	301.88
2141.157	303.36
2144.34	302.93
2147.523	308.7
2150.705	307
2153.887	310.39
2157.068	311.84
2160.25	308.95
2163.431	310.27
2166.611	314.69
2169.792	318.15
2172.972	321.62
2176.152	324.89
2179.331	329.11
2182.511	332.8
2185.69	336.77
2188.868	342.68
2192.047	343.06
2195.225	353.08
2198.403	362.11
2201.58	368.16
2204.758	375.17
2207.935	381.99
2211.111	389.96
2214.288	394.37
2217.464	395.91
2220.64	401.82
2223.815	406.27
2226.991	422.73
2230.166	423.28
2233.34	429.59
2236.515	436.73
2239.689	438.6
2242.863	441.41
2246.036	450.27
2249.209	446.95
2252.382	455.44
2255.555	466.99
2258.727	469.55
2261.9	473.51
2265.071	478.42
2268.243	489.36
2271.414	493.42
2274.585	503.79
2277.756	507.83
2280.926	513.11
2284.096	526.11
2287.266	537.36
2290.436	542.84
2293.605	554.35
2296.774	569.5
2299.942	589.9
2303.111	588.35
2306.279	602.36
2309.447	610.07
2312.614	629.89
2315.781	646.74
2318.948	675.22
2322.115	663.27
2325.281	703.14
2328.447	692.03
2331.613	717.15
2334.779	706.45
2337.944	737.76
2341.109	744.35
2344.274	764.62
2347.438	791.4
2350.602	792.88
2353.766	818.61
2356.929	833.94
2360.092	821.34
2363.255	877.89
2366.418	879.38
2369.58	896.87
2372.742	954.32
2375.904	977.97
2379.066	972.47
2382.227	947.31
2385.388	1026.32
2388.548	1024.29
2391.709	1035.51
2394.869	1157.48
2398.029	1113.04
2401.188	1143.17
2404.347	1136.46
2407.506	1116.81
2410.665	1148.21
2413.823	1217.35
2416.981	1292.82
2420.139	1251.59
2423.296	1230.89
2426.453	1291.18
2429.61	1238.17
2432.767	1289.08
2435.923	1275.56
2439.079	1398.13
2442.235	1418.53
2445.391	1409.16
2448.546	1394.17
2451.701	1358.06
2454.855	1355.75
2458.009	1454.52
2461.163	1500.03
2464.317	1559.82
2467.471	1600.97
2470.624	1601.86
2473.777	1556.15
2476.929	1509.61
2480.082	1463.95
2483.234	1451.22
2486.385	1523.45
2489.537	1527.62
2492.688	1578.71
2495.839	1545.03
2498.989	1506.74
2502.14	1508.9
2505.29	1523.19
2508.439	1547.16
2511.589	1546.71
2514.738	1690.69
2517.887	1653.19
2521.035	1738.56
2524.183	1765.25
2527.331	1771.45
2530.479	1756.11
2533.627	1774.78
