Data from C_3_HIR_WI_4N_Splice17_14-05-43-350.txt Node
Date: Sat Mar 07 14:05:43 EST 2020
User: sa697716
Spectrometer: NQ5500242
Trigger mode: 0
Integration Time (sec): 1.450000E-1
Scans to average: 20
Nonlinearity correction enabled: false
Boxcar width: 5
Storing dark spectrum: false
XAxis mode: Wavelengths
Number of Pixels in Spectrum: 512
>>>>>Begin Spectral Data<<<<<
187.83	161.98
188.298	189.71
188.766	175.77
189.233	148.84
189.701	155.79
190.169	175.7
190.636	198.46
191.104	319.93
191.571	369.17
192.039	69.34
192.506	-459.17
192.974	234.25
193.441	423.51
193.908	174.79
194.375	126.01
194.842	100.98
195.31	123.52
195.777	141.04
196.244	42.73
196.711	49.35
197.177	50.37
197.644	50.5
198.111	50.1
198.578	50.66
199.045	51.23
199.511	51.21
199.978	51.5
200.445	51.76
200.911	51.7
201.378	51.88
201.844	51.87
202.31	51.52
202.777	51.66
203.243	52
203.709	51.57
204.176	51.15
204.642	50.84
205.108	50.57
205.574	50.4
206.04	49.93
206.506	49.51
206.972	49.22
207.438	48.67
207.903	47.89
208.369	46.47
208.835	45.53
209.301	44.84
209.766	43.63
210.232	42.53
210.697	41.11
211.163	39.91
211.628	38.94
212.094	37.6
212.559	36.89
213.024	35.85
213.49	35.26
213.955	34.25
214.42	33.28
214.885	32.26
215.35	30.86
215.815	29.18
216.28	27.09
216.745	24.71
217.21	22.36
217.675	20.08
218.14	18.17
218.604	16.43
219.069	15.06
219.534	13.89
219.998	12.9
220.463	12.06
220.927	11.28
221.392	10.79
221.856	10.3
222.32	9.9
222.785	9.58
223.249	9.25
223.713	8.98
224.177	8.76
224.642	8.51
225.106	8.28
225.57	8.08
226.034	7.93
226.497	7.73
226.961	7.57
227.425	7.41
227.889	7.25
228.353	7.12
228.816	6.97
229.28	6.82
229.744	6.71
230.207	6.61
230.671	6.5
231.134	6.4
231.597	6.32
232.061	6.22
232.524	6.13
232.987	6.04
233.45	5.96
233.914	5.9
234.377	5.82
234.84	5.75
235.303	5.67
235.766	5.62
236.229	5.55
236.691	5.49
237.154	5.43
237.617	5.39
238.08	5.33
238.542	5.27
239.005	5.23
239.468	5.18
239.93	5.13
240.393	5.09
240.855	5.02
241.317	4.97
241.78	4.92
242.242	4.86
242.704	4.81
243.166	4.76
243.629	4.72
244.091	4.66
244.553	4.61
245.015	4.56
245.477	4.51
245.939	4.47
246.4	4.43
246.862	4.38
247.324	4.35
247.786	4.3
248.247	4.26
248.709	4.22
249.17	4.18
249.632	4.16
250.093	4.12
250.555	4.09
251.016	4.06
251.477	4.03
251.939	4
252.4	3.97
252.861	3.95
253.322	3.92
253.783	3.89
254.244	3.87
254.705	3.84
255.166	3.82
255.627	3.79
256.088	3.76
256.549	3.75
257.009	3.72
257.47	3.7
257.931	3.66
258.391	3.62
258.852	3.59
259.312	3.57
259.773	3.54
260.233	3.51
260.694	3.49
261.154	3.46
261.614	3.43
262.074	3.4
262.534	3.37
262.994	3.36
263.455	3.34
263.915	3.33
264.374	3.31
264.834	3.29
265.294	3.27
265.754	3.26
266.214	3.25
266.673	3.23
267.133	3.22
267.593	3.21
268.052	3.2
268.512	3.19
268.971	3.18
269.431	3.17
269.89	3.16
270.349	3.15
270.809	3.13
271.268	3.13
271.727	3.11
272.186	3.1
272.645	3.09
273.104	3.09
273.563	3.08
274.022	3.07
274.481	3.07
274.94	3.07
275.399	3.06
275.857	3.05
276.316	3.05
276.775	3.05
277.233	3.05
277.692	3.05
278.15	3.04
278.609	3.03
279.067	3.03
279.525	3.03
279.984	3.02
280.442	3.02
280.9	3.02
281.358	3.01
281.816	3.01
282.274	3
282.732	2.99
283.19	2.99
283.648	2.98
284.106	2.98
284.564	2.97
285.021	2.97
285.479	2.97
285.937	2.96
286.394	2.96
286.852	2.95
287.309	2.95
287.767	2.95
288.224	2.93
288.682	2.93
289.139	2.91
289.596	2.9
290.053	2.88
290.511	2.86
290.968	2.85
291.425	2.83
291.882	2.82
292.339	2.8
292.796	2.78
293.252	2.78
293.709	2.77
294.166	2.76
294.623	2.75
295.079	2.75
295.536	2.74
295.992	2.74
296.449	2.74
296.905	2.73
297.362	2.73
297.818	2.71
298.274	2.71
298.731	2.71
299.187	2.7
299.643	2.69
300.099	2.68
300.555	2.67
301.011	2.67
301.467	2.66
301.923	2.65
302.379	2.65
302.835	2.66
303.291	2.65
303.746	2.65
304.202	2.65
304.658	2.65
305.113	2.65
305.569	2.65
306.024	2.65
306.479	2.65
306.935	2.64
307.39	2.65
307.845	2.65
308.301	2.65
308.756	2.64
309.211	2.64
309.666	2.66
310.121	2.66
310.576	2.66
311.031	2.66
311.486	2.67
311.94	2.67
312.395	2.68
312.85	2.68
313.305	2.68
313.759	2.68
314.214	2.68
314.668	2.67
315.123	2.67
315.577	2.67
316.032	2.66
316.486	2.66
316.94	2.66
317.394	2.64
317.849	2.63
318.303	2.62
318.757	2.61
319.211	2.6
319.665	2.58
320.119	2.57
320.572	2.56
321.026	2.55
321.48	2.53
321.934	2.52
322.387	2.51
322.841	2.5
323.295	2.5
323.748	2.5
324.202	2.5
324.655	2.5
325.108	2.5
325.562	2.51
326.015	2.51
326.468	2.51
326.921	2.52
327.374	2.52
327.827	2.52
328.28	2.53
328.733	2.52
329.186	2.52
329.639	2.53
330.092	2.53
330.545	2.52
330.997	2.52
331.45	2.52
331.903	2.53
332.355	2.54
332.808	2.54
333.26	2.54
333.713	2.54
334.165	2.54
334.617	2.54
335.069	2.54
335.522	2.54
335.974	2.55
336.426	2.54
336.878	2.53
337.33	2.53
337.782	2.54
338.234	2.54
338.686	2.54
339.137	2.55
339.589	2.54
340.041	2.53
340.493	2.52
340.944	2.5
341.396	2.5
341.847	2.49
342.299	2.48
342.75	2.45
343.201	2.44
343.653	2.43
344.104	2.41
344.555	2.4
345.006	2.39
345.457	2.39
345.908	2.38
346.359	2.37
346.81	2.37
347.261	2.37
347.712	2.37
348.163	2.36
348.613	2.37
349.064	2.37
349.515	2.37
349.965	2.37
350.416	2.37
350.866	2.36
351.317	2.36
351.767	2.35
352.217	2.35
352.668	2.35
353.118	2.35
353.568	2.35
354.018	2.35
354.468	2.36
354.918	2.36
355.368	2.37
355.818	2.37
356.268	2.38
356.718	2.39
357.168	2.38
357.617	2.38
358.067	2.38
358.517	2.39
358.966	2.39
359.416	2.4
359.865	2.39
360.315	2.4
360.764	2.4
361.213	2.4
361.663	2.39
362.112	2.4
362.561	2.41
363.01	2.42
363.459	2.41
363.908	2.41
364.357	2.42
364.806	2.41
365.255	2.42
365.703	2.43
366.152	2.44
366.601	2.46
367.05	2.46
367.498	2.47
367.947	2.48
368.395	2.5
368.844	2.51
369.292	2.52
369.74	2.54
370.189	2.56
370.637	2.57
371.085	2.58
371.533	2.6
371.981	2.61
372.429	2.62
372.877	2.64
373.325	2.65
373.773	2.67
374.221	2.68
374.669	2.7
375.116	2.7
375.564	2.73
376.012	2.75
376.459	2.77
376.907	2.79
377.354	2.82
377.801	2.84
378.249	2.87
378.696	2.88
379.143	2.9
379.591	2.93
380.038	2.96
380.485	2.98
380.932	3
381.379	3.01
381.826	3.03
382.273	3.05
382.72	3.06
383.166	3.08
383.613	3.1
384.06	3.12
384.506	3.14
384.953	3.16
385.4	3.19
385.846	3.22
386.292	3.25
386.739	3.28
387.185	3.3
387.631	3.34
388.078	3.37
388.524	3.4
388.97	3.43
389.416	3.46
389.862	3.49
390.308	3.53
390.754	3.56
391.2	3.59
391.645	3.63
392.091	3.66
392.537	3.7
392.983	3.73
393.428	3.77
393.874	3.8
394.319	3.83
394.765	3.84
395.21	3.86
395.655	3.87
396.101	3.9
396.546	3.92
396.991	3.94
397.436	3.95
397.881	3.98
398.326	4.01
398.771	4.04
399.216	4.06
399.661	4.09
400.106	4.12
400.551	4.14
400.995	4.15
401.44	4.16
401.885	4.17
402.329	4.19
402.774	4.2
403.218	4.21
403.663	4.23
404.107	4.24
404.551	4.24
404.995	4.26
405.44	4.27
405.884	4.28
406.328	4.29
406.772	4.3
407.216	4.32
407.66	4.32
408.104	4.32
408.547	4.33
408.991	4.33
409.435	4.34
409.879	4.35
410.322	4.37
410.766	4.39
411.209	4.4
411.653	4.43
412.096	4.44
412.54	4.46
412.983	4.46
413.426	4.49
413.869	4.5
414.312	4.52
414.756	4.55
415.199	4.54
415.642	4.54
416.085	4.56
416.527	4.56
416.97	4.56
417.413	4.56
417.856	4.56
418.298	4.55
418.741	4.54
419.184	4.54
419.626	4.53
420.069	4.54
420.511	4.53
420.953	4.52
421.396	4.52
421.838	4.52
422.28	4.53
422.722	4.55
423.164	4.55
423.606	4.56
424.048	4.57
424.49	4.57
424.932	4.57
425.374	4.56
425.816	4.54
426.258	4.53
426.699	4.52
427.141	4.51
427.582	4.51
428.024	4.51
428.465	4.51
428.907	4.5
429.348	4.5
429.789	4.5
430.231	4.52
430.672	4.54
431.113	4.56
431.554	4.58
431.995	4.59
432.436	4.59
432.877	4.6
433.318	4.61
433.759	4.61
434.2	4.64
434.64	4.65
435.081	4.66
435.522	4.67
435.962	4.68
436.403	4.72
436.843	4.75
437.284	4.75
437.724	4.76
438.164	4.77
438.604	4.79
439.045	4.79
439.485	4.8
439.925	4.8
440.365	4.81
440.805	4.82
441.245	4.81
441.685	4.82
442.125	4.85
442.564	4.86
443.004	4.87
443.444	4.89
443.883	4.91
444.323	4.92
444.762	4.96
445.202	4.98
445.641	5
446.081	5.04
446.52	5.05
446.959	5.09
447.398	5.12
447.837	5.15
448.276	5.17
448.716	5.2
449.154	5.24
449.593	5.25
450.032	5.26
450.471	5.26
450.91	5.26
451.349	5.27
451.787	5.27
452.226	5.26
452.664	5.27
453.103	5.25
453.541	5.24
453.98	5.24
454.418	5.23
454.856	5.23
455.295	5.23
455.733	5.2
456.171	5.19
456.609	5.18
457.047	5.16
457.485	5.14
457.923	5.14
458.361	5.12
458.798	5.1
459.236	5.09
459.674	5.1
460.111	5.09
460.549	5.1
460.987	5.1
461.424	5.1
461.862	5.11
462.299	5.13
462.736	5.11
463.173	5.12
463.611	5.12
464.048	5.13
464.485	5.12
464.922	5.13
465.359	5.13
465.796	5.13
466.233	5.13
466.67	5.13
467.106	5.14
467.543	5.13
467.98	5.12
468.416	5.13
468.853	5.13
469.29	5.14
469.726	5.14
470.162	5.14
470.599	5.14
471.035	5.13
471.471	5.14
471.907	5.13
472.344	5.14
472.78	5.16
473.216	5.16
473.652	5.16
474.088	5.15
474.523	5.15
474.959	5.16
475.395	5.15
475.831	5.14
476.266	5.14
476.702	5.14
477.138	5.14
477.573	5.13
478.008	5.12
478.444	5.1
478.879	5.1
479.314	5.11
479.75	5.1
480.185	5.09
480.62	5.08
481.055	5.07
481.49	5.07
481.925	5.06
482.36	5.06
482.795	5.05
483.229	5.05
483.664	5.06
484.099	5.05
484.534	5.04
484.968	5.05
485.403	5.07
485.837	5.09
486.271	5.11
486.706	5.12
487.14	5.14
487.574	5.17
488.009	5.19
488.443	5.21
488.877	5.24
489.311	5.28
489.745	5.32
490.179	5.35
490.613	5.38
491.046	5.42
491.48	5.46
491.914	5.5
492.348	5.55
492.781	5.61
493.215	5.66
493.648	5.71
494.082	5.76
494.515	5.81
494.948	5.87
495.382	5.92
495.815	5.99
496.248	6.06
496.681	6.14
497.114	6.22
497.547	6.3
497.98	6.39
498.413	6.48
498.846	6.57
499.279	6.68
499.711	6.78
500.144	6.9
500.577	7.02
501.009	7.14
501.442	7.26
501.874	7.38
502.306	7.52
502.739	7.66
503.171	7.8
503.603	7.95
504.036	8.09
504.468	8.24
504.9	8.39
505.332	8.55
505.764	8.71
506.196	8.89
506.627	9.06
507.059	9.24
507.491	9.42
507.923	9.61
508.354	9.8
508.786	10
509.217	10.22
509.649	10.44
510.08	10.65
510.512	10.88
510.943	11.1
511.374	11.33
511.805	11.56
512.237	11.79
512.668	12.03
513.099	12.27
513.53	12.51
513.961	12.75
514.391	13
514.822	13.25
515.253	13.49
515.684	13.75
516.114	13.99
516.545	14.25
516.975	14.51
517.406	14.76
517.836	15.01
518.267	15.28
518.697	15.52
519.127	15.76
519.558	16.01
519.988	16.25
520.418	16.48
520.848	16.71
521.278	16.94
521.708	17.3
522.138	17.52
522.567	17.73
522.997	17.94
523.427	18.15
523.857	18.35
524.286	18.53
524.716	18.71
525.145	18.9
525.575	19.08
526.004	19.27
526.433	19.29
526.863	19.45
527.292	19.6
527.721	19.75
528.15	19.88
528.579	20.03
529.008	20.16
529.437	20.27
529.866	20.38
530.295	20.49
530.724	20.59
531.152	20.7
531.581	20.8
532.01	20.9
532.438	21
532.867	21.08
533.295	21.15
533.723	21.23
534.152	21.32
534.58	21.39
535.008	21.45
535.436	21.51
535.865	21.54
536.293	21.59
536.721	21.61
537.149	21.65
537.576	21.67
538.004	21.7
538.432	21.73
538.86	21.76
539.287	21.78
539.715	21.82
540.143	21.84
540.57	21.88
540.998	21.88
541.425	21.91
541.852	21.93
542.28	21.98
542.707	22.01
543.134	22.01
543.561	22.04
543.988	22.06
544.415	22.06
544.842	22.09
545.269	22.11
545.696	22.15
546.123	22.17
546.549	22.21
546.976	22.21
547.403	22.24
547.829	22.26
548.256	22.28
548.682	22.3
549.108	22.33
549.535	22.35
549.961	22.36
550.387	22.37
550.813	22.36
551.24	22.35
551.666	22.35
552.092	22.34
552.518	22.34
552.943	22.32
553.369	22.34
553.795	22.31
554.221	22.29
554.646	22.25
555.072	22.22
555.498	22.2
555.923	22.17
556.349	22.14
556.774	22.09
557.199	22.05
557.625	22.01
558.05	21.93
558.475	21.88
558.9	21.83
559.325	21.78
559.75	21.73
560.175	21.66
560.6	21.59
561.025	21.51
561.449	21.43
561.874	21.34
562.299	21.26
562.723	21.16
563.148	21.06
563.572	20.93
563.997	20.83
564.421	20.69
564.846	20.56
565.27	20.44
565.694	20.32
566.118	20.19
566.542	20.05
566.966	19.92
567.39	19.79
567.814	19.65
568.238	19.52
568.662	19.39
569.086	19.26
569.509	19.15
569.933	19.04
570.357	18.91
570.78	18.8
571.204	18.68
571.627	18.55
572.05	18.44
572.474	18.34
572.897	18.24
573.32	18.13
573.743	18.02
574.166	17.91
574.589	17.81
575.012	17.71
575.435	17.61
575.858	17.52
576.281	17.44
576.704	17.35
577.126	17.25
577.549	17.17
577.972	17.09
578.394	17.02
578.817	16.94
579.239	16.88
579.661	16.81
580.084	16.74
580.506	16.67
580.928	16.58
581.35	16.51
581.772	16.45
582.194	16.38
582.616	16.31
583.038	16.25
583.46	16.19
583.882	16.11
584.303	16.05
584.725	15.98
585.147	15.94
585.568	15.89
585.99	15.84
586.411	15.78
586.833	15.73
587.254	15.69
587.675	15.63
588.096	15.58
588.518	15.54
588.939	15.5
589.36	15.45
589.781	15.41
590.202	15.38
590.623	15.34
591.043	15.32
591.464	15.29
591.885	15.25
592.305	15.22
592.726	15.21
593.147	15.18
593.567	15.15
593.987	15.12
594.408	15.08
594.828	15.06
595.248	15.04
595.669	15.01
596.089	14.99
596.509	14.96
596.929	14.93
597.349	14.9
597.769	14.87
598.189	14.83
598.608	14.81
599.028	14.78
599.448	14.75
599.867	14.71
600.287	14.67
600.706	14.62
601.126	14.58
601.545	14.54
601.965	14.49
602.384	14.44
602.803	14.39
603.222	14.33
603.641	14.29
604.061	14.23
604.48	14.17
604.898	14.09
605.317	14.03
605.736	13.96
606.155	13.89
606.574	13.83
606.992	13.76
607.411	13.71
607.829	13.61
608.248	13.54
608.666	13.47
609.085	13.41
609.503	13.36
609.921	13.3
610.339	13.24
610.758	13.19
611.176	13.12
611.594	13.05
612.012	12.97
612.43	12.92
612.847	12.85
613.265	12.78
613.683	12.72
614.101	12.65
614.518	12.58
614.936	12.51
615.353	12.44
615.771	12.39
616.188	12.34
616.606	12.3
617.023	12.24
617.44	12.19
617.857	12.15
618.274	12.1
618.691	12.04
619.108	12.01
619.525	11.97
619.942	11.94
620.359	11.9
620.776	11.86
621.192	11.83
621.609	11.82
622.026	11.79
622.442	11.76
622.859	11.74
623.275	11.72
623.691	11.7
624.108	11.67
624.524	11.65
624.94	11.62
625.356	11.62
625.772	11.6
626.188	11.58
626.604	11.57
627.02	11.57
627.436	11.55
627.852	11.54
628.268	11.53
628.683	11.52
629.099	11.51
629.514	11.5
629.93	11.48
630.345	11.45
630.761	11.42
631.176	11.39
631.591	11.35
632.007	11.32
632.422	11.29
632.837	11.24
633.252	11.17
633.667	11.12
634.082	11.05
634.497	10.99
634.911	10.93
635.326	10.85
635.741	10.77
636.155	10.69
636.57	10.61
636.984	10.52
637.399	10.42
637.813	10.34
638.228	10.24
638.642	10.13
639.056	10.02
639.47	9.92
639.884	9.81
640.298	9.7
640.712	9.59
641.126	9.47
641.54	9.36
641.954	9.26
642.368	9.16
642.781	9.05
643.195	8.95
643.609	8.85
644.022	8.76
644.436	8.67
644.849	8.58
645.262	8.49
645.676	8.41
646.089	8.33
646.502	8.26
646.915	8.19
647.328	8.13
647.741	8.06
648.154	8
648.567	7.94
648.98	7.88
649.393	7.83
649.805	7.79
650.218	7.74
650.631	7.7
651.043	7.66
651.456	7.62
651.868	7.57
652.28	7.53
652.693	7.5
653.105	7.46
653.517	7.41
653.929	7.36
654.341	7.31
654.753	7.25
655.165	7.2
655.577	7.13
655.989	7.06
656.401	7
656.813	6.93
657.224	6.84
657.636	6.75
658.047	6.68
658.459	6.6
658.87	6.52
659.282	6.43
659.693	6.34
660.104	6.24
660.515	6.15
660.926	6.06
661.338	5.97
661.749	5.9
662.159	5.83
662.57	5.75
662.981	5.68
663.392	5.6
663.803	5.54
664.213	5.47
664.624	5.42
665.035	5.37
665.445	5.32
665.855	5.28
666.266	5.25
666.676	5.21
667.086	5.17
667.497	5.14
667.907	5.11
668.317	5.09
668.727	5.08
669.137	5.06
669.547	5.05
669.956	5.03
670.366	5.02
670.776	5
671.186	5
671.595	4.99
672.005	4.99
672.414	5
672.824	5
673.233	5
673.642	5.02
674.052	5.03
674.461	5.04
674.87	5.07
675.279	5.09
675.688	5.11
676.097	5.14
676.506	5.18
676.915	5.21
677.323	5.24
677.732	5.28
678.141	5.32
678.549	5.37
678.958	5.42
679.366	5.48
679.775	5.54
680.183	5.61
680.592	5.7
681	5.78
681.408	5.88
681.816	5.99
682.224	6.11
682.632	6.24
683.04	6.38
683.448	6.54
683.856	6.71
684.264	6.9
684.671	7.11
685.079	7.32
685.487	7.57
685.894	7.84
686.302	8.12
686.709	8.42
687.116	8.73
687.524	9.06
687.931	9.42
688.338	9.8
688.745	10.2
689.152	10.6
689.559	11.04
689.966	11.48
690.373	11.91
690.78	12.38
691.187	12.84
691.593	13.33
692	13.83
692.407	14.3
692.813	14.8
693.22	15.29
693.626	15.79
694.032	16.27
694.439	16.76
694.845	17.27
695.251	17.76
695.657	18.25
696.063	18.72
696.469	19.18
696.875	19.66
697.281	20.13
697.687	20.59
698.093	21.04
698.498	21.47
698.904	21.91
699.31	22.31
699.715	22.72
700.12	23.13
700.526	23.53
700.931	23.94
701.337	24.34
701.742	24.72
702.147	25.09
702.552	25.46
702.957	25.81
703.362	26.15
703.767	26.5
704.172	26.84
704.577	27.16
704.981	27.49
705.386	27.79
705.791	28.09
706.195	28.4
706.6	28.71
707.004	29
707.408	29.31
707.813	29.61
708.217	29.89
708.621	30.17
709.025	30.43
709.43	30.71
709.834	30.96
710.237	31.2
710.641	31.43
711.045	31.64
711.449	31.89
711.853	32.12
712.256	32.33
712.66	32.54
713.064	32.75
713.467	32.96
713.87	33.15
714.274	33.36
714.677	33.57
715.08	33.78
715.484	33.97
715.887	34.16
716.29	34.31
716.693	34.52
717.096	34.71
717.499	34.9
717.901	35.07
718.304	35.26
718.707	35.44
719.109	35.62
719.512	35.77
719.915	35.92
720.317	36.05
720.719	36.16
721.122	36.27
721.524	36.4
721.926	36.53
722.328	36.67
722.731	36.78
723.133	36.9
723.535	37
723.937	37.12
724.338	37.25
724.74	37.4
725.142	37.59
725.544	37.71
725.945	37.83
726.347	37.9
726.748	37.98
727.15	38.07
727.551	38.15
727.952	38.22
728.354	38.31
728.755	38.37
729.156	38.4
729.557	38.41
729.958	38.47
730.359	38.52
730.76	38.61
731.161	38.66
731.562	38.73
731.962	38.78
732.363	38.84
732.763	38.89
733.164	38.94
733.564	39.02
733.965	39.07
734.365	39.12
734.766	39.15
735.166	39.2
735.566	39.24
735.966	39.29
736.366	39.34
736.766	39.37
737.166	39.41
737.566	39.46
737.966	39.48
738.365	39.52
738.765	39.55
739.165	39.59
739.564	39.62
739.964	39.65
740.363	39.67
740.763	39.71
741.162	39.72
741.561	39.74
741.96	39.74
742.36	39.76
742.759	39.8
743.158	39.83
743.557	39.82
743.955	39.84
744.354	39.84
744.753	39.87
745.152	39.9
745.55	39.93
745.949	39.97
746.348	40.03
746.746	40.05
747.144	40.07
747.543	40.08
747.941	40.11
748.339	40.12
748.737	40.15
749.136	40.13
749.534	40.1
749.932	40.13
750.33	40.12
750.727	40.11
751.125	40.1
751.523	40.08
751.921	40.08
752.318	40.11
752.716	40.12
753.113	40.11
753.511	40.12
753.908	40.12
754.305	40.12
754.703	40.11
755.1	40.11
755.497	40.12
755.894	40.1
756.291	40.08
756.688	40.05
757.085	40.03
757.482	40
757.878	40.01
758.275	40
758.672	39.98
759.068	39.99
759.465	39.98
759.861	40
760.258	40.01
760.654	40.02
761.05	40.04
761.447	40.05
761.843	40.07
762.239	40.07
762.635	40.06
763.031	40.08
763.427	40.08
763.822	40.06
764.218	40.07
764.614	40.07
765.01	40.07
765.405	40.07
765.801	40.05
766.196	40.06
766.592	40.05
766.987	40.07
767.382	40.03
767.778	40.04
768.173	40.05
768.568	40.03
768.963	40.05
769.358	40.06
769.753	40.05
770.148	40.06
770.542	40.06
770.937	40.06
771.332	40.07
771.726	40.11
772.121	40.1
772.515	40.09
772.91	40.1
773.304	40.11
773.699	40.11
774.093	40.12
774.487	40.12
774.881	40.14
775.275	40.14
775.669	40.14
776.063	40.11
776.457	40.13
776.851	40.12
777.245	40.09
777.638	40.09
778.032	40.11
778.425	40.15
778.819	40.16
779.212	40.16
779.606	40.18
779.999	40.17
780.392	40.2
780.786	40.2
781.179	40.22
781.572	40.27
781.965	40.28
782.358	40.29
782.751	40.26
783.143	40.28
783.536	40.28
783.929	40.27
784.322	40.28
784.714	40.29
785.107	40.31
785.499	40.33
785.891	40.32
786.284	40.3
786.676	40.32
787.068	40.3
787.46	40.31
787.852	40.31
788.245	40.33
788.636	40.31
789.028	40.3
789.42	40.26
789.812	40.27
790.204	40.28
790.595	40.3
790.987	40.29
791.378	40.34
791.77	40.35
792.161	40.32
792.553	40.32
792.944	40.36
793.335	40.39
793.726	40.43
794.117	40.42
794.508	40.43
794.899	40.42
795.29	40.39
795.681	40.36
796.072	40.37
796.463	40.41
796.853	40.43
797.244	40.42
797.634	40.43
798.025	40.46
798.415	40.46
798.806	40.45
799.196	40.49
799.586	40.53
799.976	40.56
800.366	40.58
800.756	40.59
801.146	40.59
801.536	40.59
801.926	40.6
802.316	40.58
802.706	40.62
803.095	40.63
803.485	40.61
803.874	40.62
804.264	40.62
804.653	40.6
805.043	40.61
805.432	40.64
805.821	40.7
806.21	40.7
806.599	40.71
806.988	40.7
807.377	40.71
807.766	40.75
808.155	40.75
808.544	40.79
808.933	40.8
809.321	40.81
809.71	40.82
810.098	40.79
810.487	40.8
810.875	40.8
811.264	40.8
811.652	40.8
812.04	40.81
812.428	40.85
812.816	40.82
813.204	40.83
813.592	40.82
813.98	40.81
814.368	40.82
814.756	40.83
815.144	40.84
815.531	40.86
815.919	40.87
816.306	40.86
816.694	40.84
817.081	40.84
817.469	40.84
817.856	40.85
818.243	40.86
818.63	40.87
819.017	40.85
819.404	40.87
819.791	40.86
820.178	40.87
820.565	40.89
820.952	40.87
821.339	40.86
821.725	40.86
822.112	40.89
822.498	40.91
822.885	40.93
823.271	40.94
823.657	40.9
824.044	40.92
824.43	40.92
824.816	40.9
825.202	40.93
825.588	40.94
825.974	40.93
826.36	40.92
826.746	40.89
827.132	40.87
827.517	40.88
827.903	40.91
828.289	40.89
828.674	40.88
829.06	40.86
829.445	40.83
829.83	40.8
830.216	40.8
830.601	40.78
830.986	40.75
831.371	40.74
831.756	40.73
832.141	40.69
832.526	40.69
832.911	40.68
833.295	40.7
833.68	40.72
834.065	40.73
834.449	40.72
834.834	40.71
835.218	40.74
835.603	40.72
835.987	40.72
836.371	40.73
836.755	40.71
837.139	40.71
837.524	40.7
837.908	40.7
838.291	40.71
838.675	40.71
839.059	40.71
839.443	40.67
839.827	40.67
840.21	40.65
840.594	40.67
840.977	40.66
841.361	40.65
841.744	40.63
842.127	40.59
842.511	40.56
842.894	40.56
843.277	40.55
843.66	40.56
844.043	40.58
844.426	40.6
844.809	40.58
845.191	40.58
845.574	40.57
845.957	40.58
846.339	40.62
846.722	40.61
847.104	40.63
847.487	40.64
847.869	40.63
848.252	40.6
848.634	40.6
849.016	40.6
849.398	40.62
849.78	40.63
850.162	40.63
850.544	40.63
850.926	40.65
851.307	40.64
851.689	40.64
852.071	40.66
852.452	40.67
852.834	40.68
853.215	40.68
853.597	40.69
853.978	40.67
854.359	40.68
854.741	40.66
855.122	40.65
855.503	40.64
855.884	40.63
856.265	40.63
856.646	40.65
857.026	40.65
857.407	40.66
857.788	40.65
858.169	40.67
858.549	40.68
858.93	40.69
859.31	40.71
859.69	40.73
860.071	40.77
860.451	40.78
860.831	40.78
861.211	40.77
861.591	40.76
861.971	40.75
862.351	40.75
862.731	40.76
863.111	40.73
863.491	40.72
863.87	40.71
864.25	40.67
864.629	40.66
865.009	40.66
865.388	40.67
865.768	40.68
866.147	40.68
866.526	40.66
866.905	40.64
867.284	40.67
867.663	40.68
868.042	40.69
868.421	40.71
868.8	40.72
869.179	40.72
869.558	40.72
869.936	40.72
870.315	40.74
870.693	40.74
871.072	40.75
871.45	40.75
871.828	40.76
872.207	40.79
872.585	40.8
872.963	40.79
873.341	40.76
873.719	40.77
874.097	40.76
874.475	40.76
874.853	40.78
875.23	40.79
875.608	40.81
875.986	40.82
876.363	40.81
876.741	40.79
877.118	40.84
877.495	40.85
877.873	40.85
878.25	40.87
878.627	40.87
879.004	40.87
879.381	40.86
879.758	40.83
880.135	40.82
880.512	40.81
880.889	40.82
881.265	40.79
881.642	40.79
882.019	40.79
882.395	40.76
882.772	40.77
883.148	40.76
883.524	40.75
883.901	40.74
884.277	40.71
884.653	40.69
885.029	40.66
885.405	40.64
885.781	40.64
886.157	40.63
886.532	40.65
886.908	40.64
887.284	40.66
887.659	40.63
888.035	40.61
888.411	40.6
888.786	40.61
889.161	40.61
889.537	40.61
889.912	40.61
890.287	40.6
890.662	40.58
891.037	40.57
891.412	40.53
891.787	40.53
892.162	40.54
892.536	40.57
892.911	40.55
893.286	40.55
893.66	40.55
894.035	40.55
894.409	40.54
894.784	40.54
895.158	40.55
895.532	40.55
895.906	40.56
896.281	40.55
896.655	40.53
897.029	40.54
897.402	40.53
897.776	40.53
898.15	40.53
898.524	40.56
898.898	40.56
899.271	40.56
899.645	40.57
900.018	40.57
900.392	40.56
900.765	40.59
901.138	40.57
901.511	40.59
901.884	40.62
902.258	40.61
902.631	40.58
903.003	40.58
903.376	40.56
903.749	40.55
904.122	40.58
904.495	40.61
904.867	40.58
905.24	40.62
905.612	40.64
905.985	40.62
906.357	40.64
906.729	40.65
907.102	40.67
907.474	40.71
907.846	40.73
908.218	40.71
908.59	40.74
908.962	40.76
909.334	40.77
909.705	40.76
910.077	40.77
910.449	40.77
910.82	40.77
911.192	40.74
911.563	40.71
911.935	40.7
912.306	40.72
912.677	40.72
913.048	40.73
913.419	40.72
913.79	40.7
914.161	40.68
914.532	40.69
914.903	40.7
915.274	40.69
915.645	40.71
916.015	40.71
916.386	40.68
916.756	40.65
917.127	40.62
917.497	40.64
917.868	40.66
918.238	40.67
918.608	40.69
918.978	40.67
919.348	40.71
919.718	40.71
920.088	40.75
920.458	40.78
920.828	40.77
921.198	40.78
921.567	40.76
921.937	40.78
922.306	40.79
922.676	40.75
923.045	40.76
923.415	40.76
923.784	40.76
924.153	40.75
924.522	40.75
924.891	40.77
925.26	40.78
925.629	40.79
925.998	40.78
926.367	40.79
926.736	40.8
927.104	40.8
927.473	40.77
927.842	40.75
928.21	40.74
928.578	40.73
928.947	40.74
929.315	40.71
929.683	40.72
930.051	40.67
930.42	40.65
930.788	40.6
931.156	40.59
931.523	40.59
931.891	40.61
932.259	40.6
932.627	40.57
932.994	40.54
933.362	40.53
933.729	40.52
934.097	40.53
934.464	40.53
934.831	40.54
935.199	40.54
935.566	40.53
935.933	40.46
936.3	40.47
936.667	40.49
937.034	40.51
937.401	40.51
937.767	40.53
938.134	40.56
938.501	40.54
938.867	40.61
939.234	40.6
939.6	40.63
939.967	40.7
940.333	40.7
940.699	40.73
941.065	40.7
941.431	40.74
941.798	40.69
942.163	40.67
942.529	40.68
942.895	40.7
943.261	40.72
943.627	40.72
943.992	40.73
944.358	40.75
944.723	40.78
945.089	40.76
945.454	40.76
945.82	40.77
946.185	40.83
946.55	40.82
946.915	40.78
947.28	40.81
947.645	40.85
948.01	40.87
948.375	40.82
948.74	40.78
949.104	40.82
949.469	40.78
949.834	40.8
950.198	40.75
950.562	40.73
950.927	40.73
951.291	40.63
951.655	40.56
952.02	40.53
952.384	40.54
952.748	40.54
953.112	40.52
953.476	40.48
953.839	40.43
954.203	40.45
954.567	40.43
954.931	40.37
955.294	40.42
955.658	40.43
956.021	40.39
956.385	40.34
956.748	40.31
957.111	40.25
957.474	40.3
957.837	40.26
958.2	40.19
958.563	40.16
958.926	40.2
959.289	40.16
959.652	40.16
960.015	40.11
960.377	40.09
960.74	40.1
961.102	40.11
961.465	40.07
961.827	40.12
962.189	40.18
962.552	40.15
962.914	40.15
963.276	40.21
963.638	40.18
964	40.22
964.362	40.26
964.724	40.19
965.085	40.21
965.447	40.18
965.809	40.12
966.17	40.1
966.532	40.09
966.893	40.07
967.255	40.03
967.616	40.02
967.977	40
968.338	39.99
968.699	40
969.061	39.97
969.421	40.03
969.782	40.07
970.143	39.99
970.504	39.96
970.865	39.99
971.225	39.94
971.586	39.94
971.946	39.96
972.307	39.93
972.667	39.95
973.027	39.96
973.388	39.93
973.748	39.91
974.108	40
974.468	40.03
974.828	40.03
975.188	40.04
975.548	40.05
975.907	40.05
976.267	40.07
976.627	40.07
976.986	40.06
977.346	40.04
977.705	40.04
978.064	39.96
978.424	40
978.783	40
979.142	40
979.501	40.04
979.86	40.03
980.219	40.07
980.578	40.08
980.937	40.09
981.296	40.15
981.654	40.19
982.013	40.25
982.371	40.22
982.73	40.25
983.088	40.24
983.447	40.17
983.805	40.2
984.163	40.21
984.521	40.27
984.879	40.22
985.237	40.17
985.595	40.2
985.953	40.22
986.311	40.25
986.669	40.25
987.026	40.26
987.384	40.38
987.741	40.37
988.099	40.4
988.456	40.37
988.814	40.39
989.171	40.42
989.528	40.41
989.885	40.4
990.242	40.41
990.599	40.41
990.956	40.47
991.313	40.44
991.67	40.48
992.027	40.53
992.383	40.57
992.74	40.65
993.096	40.71
993.453	40.72
993.809	40.75
994.165	40.83
994.522	40.82
994.878	40.84
995.234	40.85
995.59	40.85
995.946	40.82
996.302	40.84
996.658	40.92
997.013	40.92
997.369	40.91
997.725	40.93
998.08	41.02
998.436	41.06
998.791	40.98
999.147	40.97
999.502	41.07
999.857	40.97
1000.212	41.02
1000.567	40.94
1000.922	40.94
1001.277	40.98
1001.632	40.94
1001.987	40.86
1002.342	40.81
1002.696	40.87
1003.051	40.91
1003.406	40.92
1003.76	41.01
1004.114	40.85
1004.469	41.02
1004.823	41.25
1005.177	41.41
1005.531	41.49
1005.885	41.49
1006.239	41.46
1006.593	41.54
1006.947	41.6
1007.301	41.52
1007.655	41.47
1008.008	41.57
1008.362	41.5
1008.715	41.38
1009.069	41.29
1009.422	41.4
1009.776	41.4
1010.129	41.74
1010.482	41.65
1010.835	41.68
1011.188	41.85
1011.541	42.04
1011.894	42.18
1012.247	42.15
1012.6	42.15
1012.952	42.1
1013.305	42.26
1013.657	42.34
1014.01	42.31
1014.362	42.5
1014.715	42.81
1015.067	42.79
1015.419	42.91
1015.771	42.78
1016.123	42.79
1016.475	42.89
1016.827	43
1017.179	42.82
1017.531	42.92
1017.883	42.82
1018.234	42.85
1018.586	42.71
1018.938	43.04
1019.289	42.95
1019.64	42.99
1019.992	43.09
1020.343	43.08
1020.694	43.21
1021.045	43.2
1021.396	43.14
1021.747	43.19
1022.098	43.23
1022.449	42.98
1022.8	42.67
1023.151	42.6
1023.501	42.94
1023.852	43.25
1024.202	43.1
1024.553	42.95
1024.903	43.04
1025.253	43.25
1025.604	43.37
1025.954	43.21
1026.304	43.45
1026.654	43.33
1027.004	43.56
1027.354	43.33
1027.703	43.15
1028.053	43.5
1028.403	43.79
1028.753	43.62
1029.102	43.67
1029.452	43.86
1029.801	44.22
1030.15	44.2
1030.499	44.54
897.758	1283.52
901.051	1286.85
904.343	1287.56
907.636	1309.2
910.928	1274.58
914.22	1271.79
917.511	1253.13
920.803	1201.66
924.094	1194.01
927.384	1164.58
930.675	1117.4
933.965	1110.8
937.255	1043.43
940.544	1000.07
943.834	955.15
947.123	946.69
950.411	889.17
953.7	870.36
956.988	824.35
960.276	789.2
963.563	775.67
966.851	747
970.138	740.3
973.424	718.52
976.711	722.45
979.997	686.23
983.283	682.21
986.568	669.67
989.853	649.32
993.138	636.86
996.423	614.33
999.708	597.08
1002.992	590.23
1006.275	565.68
1009.559	561.07
1012.842	538.95
1016.125	523.25
1019.408	513.13
1022.69	507.31
1025.972	496.99
1029.254	485.04
1032.536	476.66
1035.817	466.63
1039.098	461.37
1042.379	449.59
1045.659	444.33
1048.939	433.93
1052.219	425.36
1055.498	420.75
1058.778	409.92
1062.057	400.59
1065.335	395.38
1068.614	390.3
1071.892	386.42
1075.17	374.67
1078.447	368.55
1081.724	364.71
1085.001	362.4
1088.278	355.19
1091.554	347.66
1094.83	347.37
1098.106	345.35
1101.382	342.05
1104.657	339.38
1107.932	334.15
1111.206	334.5
1114.481	327.25
1117.755	324.46
1121.029	320.92
1124.302	319.61
1127.575	314.4
1130.848	310.79
1134.121	307.18
1137.393	305.6
1140.665	299.53
1143.937	297.21
1147.208	295.53
1150.48	293.8
1153.75	289.87
1157.021	286.51
1160.291	286.82
1163.561	281.83
1166.831	282.86
1170.101	280.47
1173.37	279.86
1176.639	280.53
1179.907	278.09
1183.176	274.8
1186.444	274.46
1189.711	274.11
1192.979	273.75
1196.246	271.86
1199.513	273.34
1202.78	271.45
1206.046	271.27
1209.312	268.77
1212.578	268.97
1215.843	270.91
1219.108	270.21
1222.373	275.61
1225.638	277.92
1228.902	281.17
1232.166	281.72
1235.43	283.35
1238.693	287.11
1241.956	288.69
1245.219	293.28
1248.482	293.54
1251.744	293.6
1255.006	294.51
1258.268	287.8
1261.529	285.04
1264.79	283.09
1268.051	281.25
1271.312	277.78
1274.572	273.92
1277.832	271.15
1281.092	267.05
1284.351	264.78
1287.61	264.73
1290.869	260.02
1294.128	258.29
1297.386	258.85
1300.644	255.59
1303.902	257.2
1307.159	256.16
1310.416	256.29
1313.673	255.82
1316.93	258.75
1320.186	257.95
1323.442	258.86
1326.697	263.63
1329.953	264.77
1333.208	265.08
1336.463	269.34
1339.717	269.2
1342.972	272.58
1346.226	275.12
1349.479	276.09
1352.733	276.78
1355.986	279.04
1359.238	278.62
1362.491	279.69
1365.743	282.12
1368.995	282.44
1372.247	280.76
1375.498	281.27
1378.749	283.27
1382	280.31
1385.251	281.18
1388.501	279.27
1391.751	280.98
1395	279.89
1398.25	277.66
1401.499	276.03
1404.748	275.88
1407.996	274.68
1411.244	272.73
1414.492	271.71
1417.74	267.69
1420.987	264.05
1424.234	264.71
1427.481	260.69
1430.728	260.37
1433.974	257.63
1437.22	255.85
1440.465	254.82
1443.711	252.06
1446.956	250.65
1450.201	246.79
1453.445	246.02
1456.689	244.82
1459.933	240.55
1463.177	238.37
1466.42	235.25
1469.663	233.21
1472.906	231.22
1476.148	225.42
1479.391	222.36
1482.633	220.32
1485.874	217.73
1489.115	215.97
1492.356	213.46
1495.597	212.76
1498.838	209.54
1502.078	207.88
1505.318	206.47
1508.557	206.56
1511.797	206.51
1515.036	204.91
1518.274	204.45
1521.513	202.47
1524.751	202.49
1527.989	201.77
1531.227	200.53
1534.464	201.4
1537.701	199.97
1540.938	199.44
1544.174	196.71
1547.41	196.75
1550.646	196.05
1553.882	195.46
1557.117	193.31
1560.352	192.25
1563.587	191.56
1566.821	190.52
1570.055	189.06
1573.289	187.44
1576.523	187.24
1579.756	185.71
1582.989	184.09
1586.222	184.08
1589.454	183.2
1592.686	184.29
1595.918	182.77
1599.15	182.29
1602.381	182.7
1605.612	181.97
1608.843	182.98
1612.073	182.37
1615.303	183.58
1618.533	183.86
1621.762	183.53
1624.992	184.06
1628.221	183.64
1631.449	183.81
1634.678	183.59
1637.906	184.55
1641.134	184.4
1644.361	183.7
1647.588	184.57
1650.815	183.79
1654.042	183.2
1657.269	184.54
1660.495	184.19
1663.72	183.68
1666.946	184.39
1670.171	184.86
1673.396	183.98
1676.621	184.24
1679.845	184.95
1683.069	185.47
1686.293	186.42
1689.517	187.3
1692.74	186.74
1695.963	187.83
1699.185	189.97
1702.408	189.74
1705.63	190.46
1708.852	191.41
1712.073	191.75
1715.294	192.03
1718.515	192.49
1721.736	192.4
1724.956	193.35
1728.176	193.48
1731.396	194.88
1734.616	193.91
1737.835	194.96
1741.054	193.79
1744.272	193.99
1747.491	195.82
1750.709	196.05
1753.927	195.91
1757.144	195.64
1760.361	195.97
1763.578	196.86
1766.795	196.02
1770.011	197.67
1773.227	197.73
1776.443	199.89
1779.658	200.94
1782.874	199.67
1786.089	200.82
1789.303	201.71
1792.518	204.05
1795.732	203.64
1798.945	205.37
1802.159	205.63
1805.372	205.78
1808.585	209.01
1811.797	209.28
1815.01	209.94
1818.222	212.26
1821.434	214.43
1824.645	214.82
1827.856	218.23
1831.067	220.3
1834.278	219.83
1837.488	221.39
1840.698	222.95
1843.908	221.21
1847.117	222.53
1850.326	224.2
1853.535	223.37
1856.744	225.69
1859.952	225.78
1863.16	223.94
1866.368	222.36
1869.575	224.6
1872.782	221.7
1875.989	221.69
1879.196	220.93
1882.402	219.85
1885.608	219.66
1888.814	220.15
1892.019	219.34
1895.224	218.7
1898.429	219.1
1901.634	220.92
1904.838	220.53
1908.042	223.08
1911.246	223.61
1914.449	224.95
1917.652	225.42
1920.855	224.98
1924.058	225.09
1927.26	224.15
1930.462	225.31
1933.664	226.75
1936.865	224.46
1940.066	224.14
1943.267	222.85
1946.467	222.87
1949.668	224.12
1952.868	226.66
1956.067	227.41
1959.267	227.25
1962.466	228.13
1965.665	226.26
1968.863	227.27
1972.061	230.63
1975.259	232.83
1978.457	234.43
1981.654	236.06
1984.852	236.42
1988.048	235.61
1991.245	238.05
1994.441	240.94
1997.637	242.77
2000.833	247.96
2004.028	251.14
2007.223	252.52
2010.418	255.36
2013.613	260.56
2016.807	263.16
2020.001	266.47
2023.194	270.06
2026.388	276.28
2029.581	281.6
2032.774	283.67
2035.966	289.5
2039.158	289.68
2042.35	294.6
2045.542	296.44
2048.733	300.68
2051.924	304.28
2055.115	308.85
2058.306	310.21
2061.496	311.9
2064.686	313.43
2067.875	319.46
2071.065	320.53
2074.254	318.2
2077.442	324.05
2080.631	324.96
2083.819	327.65
2087.007	328.7
2090.195	332.05
2093.382	335.2
2096.569	333.85
2099.756	337.99
2102.942	339.06
2106.128	341.18
2109.314	351.32
2112.5	348.64
2115.685	356.12
2118.87	356.43
2122.055	364.31
2125.239	366.21
2128.424	370.02
2131.608	373.7
2134.791	378.74
2137.974	381.14
2141.157	382.49
2144.34	381.38
2147.523	387.39
2150.705	384.82
2153.887	388.84
2157.068	388.74
2160.25	385.02
2163.431	387.15
2166.611	390.92
2169.792	398.28
2172.972	402.16
2176.152	405.48
2179.331	411.59
2182.511	418.69
2185.69	423.65
2188.868	431.54
2192.047	432.66
2195.225	446.32
2198.403	456.72
2201.58	464.84
2204.758	475.18
2207.935	482.86
2211.111	493.46
2214.288	497.96
2217.464	498.88
2220.64	506.64
2223.815	513.84
2226.991	535.58
2230.166	536.75
2233.34	546.19
2236.515	555.39
2239.689	554.32
2242.863	558.87
2246.036	573.44
2249.209	568.36
2252.382	579.05
2255.555	596.77
2258.727	599.07
2261.9	601.8
2265.071	607.49
2268.243	617.59
2271.414	625.09
2274.585	639.24
2277.756	645.63
2280.926	648
2284.096	665.26
2287.266	678.63
2290.436	681.84
2293.605	697.87
2296.774	718.79
2299.942	741.69
2303.111	745.96
2306.279	762.93
2309.447	772.55
2312.614	793.16
2315.781	815.75
2318.948	853.88
2322.115	840.8
2325.281	891.04
2328.447	870.76
2331.613	905.52
2334.779	894.92
2337.944	934.01
2341.109	941.78
2344.274	967.49
2347.438	1001.86
2350.602	1004.85
2353.766	1035.39
2356.929	1050.59
2360.092	1043.37
2363.255	1121.78
2366.418	1118.41
2369.58	1139.24
2372.742	1210.17
2375.904	1241.1
2379.066	1234.56
2382.227	1208.76
2385.388	1309.02
2388.548	1308.26
2391.709	1327.83
2394.869	1477.23
2398.029	1410.15
2401.188	1450.7
2404.347	1444.11
2407.506	1418.72
2410.665	1457.19
2413.823	1549.19
2416.981	1642.03
2420.139	1592.81
2423.296	1573.02
2426.453	1642.69
2429.61	1578.61
2432.767	1655.35
2435.923	1638.42
2439.079	1796.54
2442.235	1820.47
2445.391	1806.13
2448.546	1784.55
2451.701	1738.13
2454.855	1730.82
2458.009	1841.92
2461.163	1912.39
2464.317	1983.18
2467.471	2031.09
2470.624	2033.56
2473.777	1979.47
2476.929	1924.12
2480.082	1871.4
2483.234	1855.35
2486.385	1946.73
2489.537	1957.49
2492.688	2025.69
2495.839	1977.18
2498.989	1932.94
2502.14	1940.96
2505.29	1960.23
2508.439	1986.66
2511.589	1985.91
2514.738	2160.14
2517.887	2116.23
2521.035	2235.31
2524.183	2249.03
2527.331	2266.22
2530.479	2247.81
2533.627	2263.27
