Data from C_3_DIV_OH_2N_Splice17_13-48-13-862.txt Node
Date: Sat Mar 07 13:48:13 EST 2020
User: sa697716
Spectrometer: NQ5500242
Trigger mode: 0
Integration Time (sec): 1.450000E-1
Scans to average: 20
Nonlinearity correction enabled: false
Boxcar width: 5
Storing dark spectrum: false
XAxis mode: Wavelengths
Number of Pixels in Spectrum: 512
>>>>>Begin Spectral Data<<<<<
187.83	179.65
188.298	193.66
188.766	183.84
189.233	139.22
189.701	145.34
190.169	185.42
190.636	189.38
191.104	224.79
191.571	-23.96
192.039	-243.54
192.506	-177.62
192.974	-19.38
193.441	-65.04
193.908	-34.1
194.375	-46.87
194.842	-29.44
195.31	99.02
195.777	370.19
196.244	69.83
196.711	43.59
197.177	43.99
197.644	42.97
198.111	41.69
198.578	42.08
199.045	42.57
199.511	42.58
199.978	41.8
200.445	41.63
200.911	41.32
201.378	40.57
201.844	40.84
202.31	40.56
202.777	40.44
203.243	40.74
203.709	40.23
204.176	39.58
204.642	39.23
205.108	39.31
205.574	38.9
206.04	38.23
206.506	38.07
206.972	37.69
207.438	37.49
207.903	36.94
208.369	36.01
208.835	35.58
209.301	34.92
209.766	33.84
210.232	32.92
210.697	32.07
211.163	31.44
211.628	30.85
212.094	29.95
212.559	29.36
213.024	28.7
213.49	28.12
213.955	27.2
214.42	26.56
214.885	25.91
215.35	25.04
215.815	24.02
216.28	22.41
216.745	20.61
217.21	19.08
217.675	17.38
218.14	16.16
218.604	14.99
219.069	14.02
219.534	13.29
219.998	12.63
220.463	12.08
220.927	11.55
221.392	11.22
221.856	10.95
222.32	10.68
222.785	10.51
223.249	10.31
223.713	10.14
224.177	10.01
224.642	9.83
225.106	9.65
225.57	9.49
226.034	9.39
226.497	9.27
226.961	9.16
227.425	9.05
227.889	8.93
228.353	8.82
228.816	8.73
229.28	8.62
229.744	8.53
230.207	8.45
230.671	8.38
231.134	8.26
231.597	8.19
232.061	8.11
232.524	8.02
232.987	7.94
233.45	7.89
233.914	7.8
234.377	7.73
234.84	7.66
235.303	7.61
235.766	7.55
236.229	7.49
236.691	7.41
237.154	7.35
237.617	7.3
238.08	7.23
238.542	7.16
239.005	7.11
239.468	7.05
239.93	6.99
240.393	6.94
240.855	6.87
241.317	6.81
241.78	6.75
242.242	6.69
242.704	6.65
243.166	6.61
243.629	6.57
244.091	6.51
244.553	6.47
245.015	6.42
245.477	6.36
245.939	6.3
246.4	6.27
246.862	6.22
247.324	6.18
247.786	6.12
248.247	6.07
248.709	6.01
249.17	5.95
249.632	5.93
250.093	5.89
250.555	5.86
251.016	5.82
251.477	5.77
251.939	5.74
252.4	5.71
252.861	5.67
253.322	5.65
253.783	5.61
254.244	5.59
254.705	5.55
255.166	5.52
255.627	5.49
256.088	5.47
256.549	5.44
257.009	5.41
257.47	5.37
257.931	5.33
258.391	5.28
258.852	5.25
259.312	5.21
259.773	5.18
260.233	5.15
260.694	5.13
261.154	5.09
261.614	5.07
262.074	5.04
262.534	5.02
262.994	5
263.455	4.98
263.915	4.97
264.374	4.95
264.834	4.93
265.294	4.91
265.754	4.88
266.214	4.87
266.673	4.85
267.133	4.84
267.593	4.83
268.052	4.82
268.512	4.82
268.971	4.81
269.431	4.8
269.89	4.79
270.349	4.79
270.809	4.78
271.268	4.78
271.727	4.77
272.186	4.75
272.645	4.75
273.104	4.73
273.563	4.72
274.022	4.71
274.481	4.7
274.94	4.7
275.399	4.68
275.857	4.67
276.316	4.67
276.775	4.66
277.233	4.66
277.692	4.66
278.15	4.66
278.609	4.65
279.067	4.65
279.525	4.64
279.984	4.64
280.442	4.64
280.9	4.63
281.358	4.62
281.816	4.62
282.274	4.61
282.732	4.59
283.19	4.58
283.648	4.56
284.106	4.55
284.564	4.54
285.021	4.53
285.479	4.51
285.937	4.5
286.394	4.48
286.852	4.47
287.309	4.45
287.767	4.44
288.224	4.43
288.682	4.41
289.139	4.4
289.596	4.39
290.053	4.37
290.511	4.35
290.968	4.34
291.425	4.33
291.882	4.32
292.339	4.31
292.796	4.3
293.252	4.29
293.709	4.29
294.166	4.28
294.623	4.26
295.079	4.25
295.536	4.25
295.992	4.24
296.449	4.23
296.905	4.23
297.362	4.22
297.818	4.21
298.274	4.22
298.731	4.2
299.187	4.19
299.643	4.18
300.099	4.18
300.555	4.17
301.011	4.17
301.467	4.17
301.923	4.15
302.379	4.15
302.835	4.15
303.291	4.14
303.746	4.14
304.202	4.15
304.658	4.15
305.113	4.14
305.569	4.14
306.024	4.13
306.479	4.12
306.935	4.12
307.39	4.12
307.845	4.11
308.301	4.11
308.756	4.1
309.211	4.09
309.666	4.1
310.121	4.1
310.576	4.09
311.031	4.09
311.486	4.09
311.94	4.08
312.395	4.08
312.85	4.08
313.305	4.08
313.759	4.08
314.214	4.08
314.668	4.06
315.123	4.06
315.577	4.06
316.032	4.05
316.486	4.05
316.94	4.04
317.394	4.03
317.849	4.02
318.303	4
318.757	3.99
319.211	3.98
319.665	3.97
320.119	3.95
320.572	3.94
321.026	3.94
321.48	3.92
321.934	3.91
322.387	3.91
322.841	3.9
323.295	3.91
323.748	3.91
324.202	3.91
324.655	3.9
325.108	3.91
325.562	3.92
326.015	3.92
326.468	3.93
326.921	3.93
327.374	3.93
327.827	3.93
328.28	3.93
328.733	3.93
329.186	3.92
329.639	3.92
330.092	3.92
330.545	3.92
330.997	3.92
331.45	3.92
331.903	3.93
332.355	3.93
332.808	3.92
333.26	3.91
333.713	3.91
334.165	3.9
334.617	3.9
335.069	3.89
335.522	3.88
335.974	3.89
336.426	3.88
336.878	3.86
337.33	3.85
337.782	3.85
338.234	3.86
338.686	3.86
339.137	3.87
339.589	3.86
340.041	3.85
340.493	3.84
340.944	3.82
341.396	3.83
341.847	3.82
342.299	3.81
342.75	3.81
343.201	3.79
343.653	3.78
344.104	3.76
344.555	3.75
345.006	3.74
345.457	3.74
345.908	3.73
346.359	3.73
346.81	3.73
347.261	3.73
347.712	3.72
348.163	3.72
348.613	3.73
349.064	3.74
349.515	3.74
349.965	3.73
350.416	3.73
350.866	3.74
351.317	3.73
351.767	3.73
352.217	3.73
352.668	3.73
353.118	3.74
353.568	3.73
354.018	3.74
354.468	3.75
354.918	3.76
355.368	3.77
355.818	3.77
356.268	3.77
356.718	3.78
357.168	3.79
357.617	3.79
358.067	3.79
358.517	3.81
358.966	3.82
359.416	3.82
359.865	3.84
360.315	3.85
360.764	3.86
361.213	3.89
361.663	3.89
362.112	3.91
362.561	3.93
363.01	3.95
363.459	3.94
363.908	3.95
364.357	3.97
364.806	3.97
365.255	3.99
365.703	4.02
366.152	4.04
366.601	4.07
367.05	4.09
367.498	4.11
367.947	4.14
368.395	4.18
368.844	4.21
369.292	4.24
369.74	4.29
370.189	4.32
370.637	4.35
371.085	4.37
371.533	4.4
371.981	4.45
372.429	4.49
372.877	4.54
373.325	4.58
373.773	4.62
374.221	4.66
374.669	4.71
375.116	4.75
375.564	4.8
376.012	4.86
376.459	4.91
376.907	4.96
377.354	5.02
377.801	5.08
378.249	5.14
378.696	5.2
379.143	5.26
379.591	5.33
380.038	5.4
380.485	5.47
380.932	5.52
381.379	5.59
381.826	5.65
382.273	5.7
382.72	5.75
383.166	5.81
383.613	5.87
384.06	5.93
384.506	6
384.953	6.07
385.4	6.14
385.846	6.21
386.292	6.26
386.739	6.33
387.185	6.4
387.631	6.48
388.078	6.55
388.524	6.61
388.97	6.67
389.416	6.75
389.862	6.81
390.308	6.88
390.754	6.95
391.2	7.02
391.645	7.09
392.091	7.17
392.537	7.23
392.983	7.29
393.428	7.35
393.874	7.4
394.319	7.45
394.765	7.5
395.21	7.54
395.655	7.57
396.101	7.61
396.546	7.64
396.991	7.68
397.436	7.72
397.881	7.78
398.326	7.81
398.771	7.85
399.216	7.87
399.661	7.9
400.106	7.92
400.551	7.93
400.995	7.93
401.44	7.94
401.885	7.94
402.329	7.95
402.774	7.95
403.218	7.97
403.663	7.98
404.107	7.99
404.551	7.99
404.995	7.99
405.44	8
405.884	8.01
406.328	8.01
406.772	7.99
407.216	7.98
407.66	7.96
408.104	7.93
408.547	7.92
408.991	7.91
409.435	7.91
409.879	7.91
410.322	7.91
410.766	7.92
411.209	7.93
411.653	7.95
412.096	7.96
412.54	7.98
412.983	7.99
413.426	8.04
413.869	8.04
414.312	8.06
414.756	8.07
415.199	8.06
415.642	8.05
416.085	8.04
416.527	8.02
416.97	8
417.413	7.98
417.856	7.96
418.298	7.93
418.741	7.92
419.184	7.89
419.626	7.88
420.069	7.89
420.511	7.89
420.953	7.88
421.396	7.9
421.838	7.9
422.28	7.9
422.722	7.91
423.164	7.9
423.606	7.9
424.048	7.89
424.49	7.85
424.932	7.82
425.374	7.77
425.816	7.73
426.258	7.71
426.699	7.69
427.141	7.68
427.582	7.66
428.024	7.65
428.465	7.64
428.907	7.62
429.348	7.62
429.789	7.62
430.231	7.66
430.672	7.68
431.113	7.7
431.554	7.7
431.995	7.7
432.436	7.7
432.877	7.71
433.318	7.75
433.759	7.78
434.2	7.8
434.64	7.8
435.081	7.8
435.522	7.81
435.962	7.81
436.403	7.85
436.843	7.87
437.284	7.87
437.724	7.89
438.164	7.87
438.604	7.88
439.045	7.9
439.485	7.93
439.925	7.96
440.365	7.98
440.805	8
441.245	8.04
441.685	8.08
442.125	8.13
442.564	8.17
443.004	8.23
443.444	8.26
443.883	8.32
444.323	8.37
444.762	8.41
445.202	8.45
445.641	8.55
446.081	8.6
446.52	8.64
446.959	8.73
447.398	8.8
447.837	8.84
448.276	8.91
448.716	8.96
449.154	9.03
449.593	9.1
450.032	9.16
450.471	9.17
450.91	9.19
451.349	9.24
451.787	9.24
452.226	9.26
452.664	9.29
453.103	9.32
453.541	9.33
453.98	9.36
454.418	9.35
454.856	9.37
455.295	9.38
455.733	9.38
456.171	9.39
456.609	9.41
457.047	9.4
457.485	9.41
457.923	9.41
458.361	9.41
458.798	9.4
459.236	9.4
459.674	9.39
460.111	9.39
460.549	9.41
460.987	9.4
461.424	9.4
461.862	9.4
462.299	9.41
462.736	9.42
463.173	9.42
463.611	9.44
464.048	9.44
464.485	9.45
464.922	9.45
465.359	9.44
465.796	9.47
466.233	9.48
466.67	9.5
467.106	9.5
467.543	9.49
467.98	9.48
468.416	9.47
468.853	9.47
469.29	9.48
469.726	9.49
470.162	9.48
470.599	9.46
471.035	9.45
471.471	9.44
471.907	9.44
472.344	9.44
472.78	9.46
473.216	9.48
473.652	9.49
474.088	9.49
474.523	9.5
474.959	9.52
475.395	9.51
475.831	9.53
476.266	9.55
476.702	9.56
477.138	9.56
477.573	9.57
478.008	9.57
478.444	9.58
478.879	9.6
479.314	9.61
479.75	9.62
480.185	9.62
480.62	9.62
481.055	9.63
481.49	9.64
481.925	9.66
482.36	9.69
482.795	9.71
483.229	9.72
483.664	9.74
484.099	9.76
484.534	9.79
484.968	9.84
485.403	9.88
485.837	9.91
486.271	9.95
486.706	9.99
487.14	10.02
487.574	10.07
488.009	10.12
488.443	10.18
488.877	10.25
489.311	10.33
489.745	10.39
490.179	10.46
490.613	10.55
491.046	10.63
491.48	10.72
491.914	10.82
492.348	10.91
492.781	11.02
493.215	11.13
493.648	11.23
494.082	11.33
494.515	11.45
494.948	11.58
495.382	11.69
495.815	11.83
496.248	11.97
496.681	12.11
497.114	12.25
497.547	12.39
497.98	12.54
498.413	12.69
498.846	12.86
499.279	13.02
499.711	13.17
500.144	13.34
500.577	13.52
501.009	13.69
501.442	13.89
501.874	14.1
502.306	14.29
502.739	14.52
503.171	14.73
503.603	14.94
504.036	15.16
504.468	15.4
504.9	15.63
505.332	15.86
505.764	16.1
506.196	16.33
506.627	16.57
507.059	16.83
507.491	17.07
507.923	17.32
508.354	17.6
508.786	17.87
509.217	18.13
509.649	18.41
510.08	18.67
510.512	18.97
510.943	19.24
511.374	19.52
511.805	19.8
512.237	20.08
512.668	20.37
513.099	20.65
513.53	20.94
513.961	21.23
514.391	21.52
514.822	21.83
515.253	22.11
515.684	22.4
516.114	22.68
516.545	22.96
516.975	23.25
517.406	23.51
517.836	23.78
518.267	24.06
518.697	24.3
519.127	24.54
519.558	24.78
519.988	25.03
520.418	25.26
520.848	25.49
521.278	25.7
521.708	26.06
522.138	26.27
522.567	26.47
522.997	26.67
523.427	26.87
523.857	27.05
524.286	27.23
524.716	27.4
525.145	27.57
525.575	27.73
526.004	27.9
526.433	27.91
526.863	28.06
527.292	28.22
527.721	28.35
528.15	28.48
528.579	28.61
529.008	28.75
529.437	28.85
529.866	28.97
530.295	29.08
530.724	29.18
531.152	29.28
531.581	29.38
532.01	29.47
532.438	29.56
532.867	29.65
533.295	29.74
533.723	29.81
534.152	29.89
534.58	29.95
535.008	30
535.436	30.07
535.865	30.12
536.293	30.16
536.721	30.19
537.149	30.24
537.576	30.3
538.004	30.34
538.432	30.38
538.86	30.43
539.287	30.44
539.715	30.49
540.143	30.52
540.57	30.55
540.998	30.59
541.425	30.63
541.852	30.65
542.28	30.66
542.707	30.68
543.134	30.72
543.561	30.73
543.988	30.78
544.415	30.8
544.842	30.82
545.269	30.85
545.696	30.88
546.123	30.9
546.549	30.93
546.976	30.95
547.403	30.96
547.829	30.97
548.256	31
548.682	31.01
549.108	31.05
549.535	31.07
549.961	31.08
550.387	31.08
550.813	31.1
551.24	31.11
551.666	31.13
552.092	31.13
552.518	31.15
552.943	31.16
553.369	31.17
553.795	31.15
554.221	31.14
554.646	31.12
555.072	31.13
555.498	31.1
555.923	31.09
556.349	31.04
556.774	31.02
557.199	30.99
557.625	30.94
558.05	30.91
558.475	30.87
558.9	30.85
559.325	30.82
559.75	30.77
560.175	30.71
560.6	30.66
561.025	30.62
561.449	30.58
561.874	30.51
562.299	30.44
562.723	30.38
563.148	30.28
563.572	30.21
563.997	30.1
564.421	30.01
564.846	29.93
565.27	29.85
565.694	29.76
566.118	29.65
566.542	29.56
566.966	29.47
567.39	29.37
567.814	29.29
568.238	29.19
568.662	29.1
569.086	29.02
569.509	28.94
569.933	28.85
570.357	28.77
570.78	28.67
571.204	28.59
571.627	28.5
572.05	28.4
572.474	28.33
572.897	28.25
573.32	28.17
573.743	28.08
574.166	27.99
574.589	27.91
575.012	27.82
575.435	27.75
575.858	27.68
576.281	27.61
576.704	27.53
577.126	27.45
577.549	27.38
577.972	27.29
578.394	27.22
578.817	27.15
579.239	27.08
579.661	27.01
580.084	26.92
580.506	26.86
580.928	26.78
581.35	26.72
581.772	26.66
582.194	26.61
582.616	26.56
583.038	26.49
583.46	26.41
583.882	26.34
584.303	26.27
584.725	26.22
585.147	26.2
585.568	26.15
585.99	26.09
586.411	26.05
586.833	26
587.254	25.93
587.675	25.9
588.096	25.87
588.518	25.84
588.939	25.81
589.36	25.76
589.781	25.71
590.202	25.69
590.623	25.66
591.043	25.6
591.464	25.57
591.885	25.54
592.305	25.51
592.726	25.5
593.147	25.46
593.567	25.42
593.987	25.39
594.408	25.35
594.828	25.3
595.248	25.28
595.669	25.26
596.089	25.23
596.509	25.21
596.929	25.18
597.349	25.13
597.769	25.1
598.189	25.07
598.608	25.05
599.028	25.02
599.448	24.99
599.867	24.96
600.287	24.93
600.706	24.89
601.126	24.86
601.545	24.84
601.965	24.83
602.384	24.8
602.803	24.76
603.222	24.72
603.641	24.66
604.061	24.63
604.48	24.57
604.898	24.51
605.317	24.46
605.736	24.4
606.155	24.33
606.574	24.26
606.992	24.19
607.411	24.12
607.829	24.01
608.248	23.95
608.666	23.86
609.085	23.8
609.503	23.73
609.921	23.65
610.339	23.58
610.758	23.49
611.176	23.4
611.594	23.32
612.012	23.25
612.43	23.21
612.847	23.13
613.265	23.07
613.683	22.99
614.101	22.92
614.518	22.83
614.936	22.75
615.353	22.68
615.771	22.61
616.188	22.53
616.606	22.49
617.023	22.41
617.44	22.36
617.857	22.3
618.274	22.24
618.691	22.19
619.108	22.14
619.525	22.1
619.942	22.06
620.359	22.03
620.776	22.01
621.192	21.97
621.609	21.92
622.026	21.88
622.442	21.86
622.859	21.83
623.275	21.8
623.691	21.79
624.108	21.76
624.524	21.74
624.94	21.71
625.356	21.69
625.772	21.66
626.188	21.66
626.604	21.66
627.02	21.63
627.436	21.61
627.852	21.6
628.268	21.57
628.683	21.56
629.099	21.55
629.514	21.53
629.93	21.51
630.345	21.48
630.761	21.44
631.176	21.4
631.591	21.37
632.007	21.34
632.422	21.29
632.837	21.24
633.252	21.19
633.667	21.13
634.082	21.05
634.497	20.99
634.911	20.91
635.326	20.84
635.741	20.76
636.155	20.65
636.57	20.54
636.984	20.44
637.399	20.33
637.813	20.2
638.228	20.07
638.642	19.94
639.056	19.79
639.47	19.66
639.884	19.51
640.298	19.34
640.712	19.2
641.126	19.05
641.54	18.88
641.954	18.72
642.368	18.57
642.781	18.42
643.195	18.27
643.609	18.11
644.022	17.96
644.436	17.81
644.849	17.67
645.262	17.53
645.676	17.39
646.089	17.28
646.502	17.18
646.915	17.07
647.328	16.96
647.741	16.86
648.154	16.76
648.567	16.69
648.98	16.6
649.393	16.52
649.805	16.43
650.218	16.36
650.631	16.28
651.043	16.21
651.456	16.13
651.868	16.06
652.28	15.98
652.693	15.92
653.105	15.83
653.517	15.75
653.929	15.67
654.341	15.57
654.753	15.46
655.165	15.35
655.577	15.23
655.989	15.11
656.401	14.98
656.813	14.85
657.224	14.68
657.636	14.52
658.047	14.38
658.459	14.22
658.87	14.06
659.282	13.9
659.693	13.73
660.104	13.55
660.515	13.36
660.926	13.17
661.338	12.98
661.749	12.81
662.159	12.65
662.57	12.47
662.981	12.3
663.392	12.12
663.803	11.95
664.213	11.78
664.624	11.63
665.035	11.49
665.445	11.36
665.855	11.25
666.266	11.12
666.676	11.01
667.086	10.89
667.497	10.77
667.907	10.66
668.317	10.57
668.727	10.5
669.137	10.41
669.547	10.34
669.956	10.27
670.366	10.2
670.776	10.15
671.186	10.09
671.595	10.05
672.005	10.01
672.414	10
672.824	9.96
673.233	9.92
673.642	9.91
674.052	9.89
674.461	9.89
674.87	9.88
675.279	9.89
675.688	9.91
676.097	9.93
676.506	9.96
676.915	9.99
677.323	10.05
677.732	10.1
678.141	10.16
678.549	10.23
678.958	10.33
679.366	10.44
679.775	10.55
680.183	10.7
680.592	10.87
681	11.06
681.408	11.26
681.816	11.49
682.224	11.76
682.632	12.05
683.04	12.35
683.448	12.68
683.856	13.03
684.264	13.42
684.671	13.81
685.079	14.24
685.487	14.68
685.894	15.18
686.302	15.68
686.709	16.2
687.116	16.73
687.524	17.3
687.931	17.86
688.338	18.45
688.745	19.05
689.152	19.65
689.559	20.26
689.966	20.89
690.373	21.5
690.78	22.11
691.187	22.71
691.593	23.31
692	23.88
692.407	24.46
692.813	25.05
693.22	25.6
693.626	26.15
694.032	26.69
694.439	27.2
694.845	27.7
695.251	28.19
695.657	28.67
696.063	29.14
696.469	29.61
696.875	30.06
697.281	30.47
697.687	30.89
698.093	31.29
698.498	31.66
698.904	32.03
699.31	32.39
699.715	32.75
700.12	33.09
700.526	33.42
700.931	33.73
701.337	34.03
701.742	34.31
702.147	34.58
702.552	34.85
702.957	35.1
703.362	35.36
703.767	35.59
704.172	35.79
704.577	36.01
704.981	36.21
705.386	36.43
705.791	36.64
706.195	36.84
706.6	37.05
707.004	37.24
707.408	37.42
707.813	37.61
708.217	37.78
708.621	37.97
709.025	38.15
709.43	38.32
709.834	38.48
710.237	38.62
710.641	38.77
711.045	38.91
711.449	39.06
711.853	39.23
712.256	39.34
712.66	39.48
713.064	39.6
713.467	39.73
713.87	39.83
714.274	39.93
714.677	40.04
715.08	40.14
715.484	40.25
715.887	40.39
716.29	40.45
716.693	40.57
717.096	40.66
717.499	40.75
717.901	40.85
718.304	40.98
718.707	41.08
719.109	41.17
719.512	41.24
719.915	41.35
720.317	41.39
720.719	41.46
721.122	41.54
721.524	41.63
721.926	41.71
722.328	41.76
722.731	41.8
723.133	41.86
723.535	41.94
723.937	42.03
724.338	42.07
724.74	42.14
725.142	42.39
725.544	42.42
725.945	42.54
726.347	42.57
726.748	42.64
727.15	42.69
727.551	42.77
727.952	42.78
728.354	42.81
728.755	42.84
729.156	42.86
729.557	42.71
729.958	42.74
730.359	42.7
730.76	42.72
731.161	42.73
731.562	42.76
731.962	42.75
732.363	42.78
732.763	42.81
733.164	42.81
733.564	42.87
733.965	42.88
734.365	42.92
734.766	42.96
735.166	42.99
735.566	43.02
735.966	43.05
736.366	43.07
736.766	43.1
737.166	43.13
737.566	43.18
737.966	43.19
738.365	43.21
738.765	43.24
739.165	43.24
739.564	43.24
739.964	43.23
740.363	43.22
740.763	43.26
741.162	43.29
741.561	43.29
741.96	43.28
742.36	43.29
742.759	43.3
743.158	43.3
743.557	43.3
743.955	43.33
744.354	43.37
744.753	43.39
745.152	43.4
745.55	43.38
745.949	43.38
746.348	43.38
746.746	43.38
747.144	43.41
747.543	43.39
747.941	43.4
748.339	43.38
748.737	43.37
749.136	43.35
749.534	43.31
749.932	43.31
750.33	43.32
750.727	43.34
751.125	43.32
751.523	43.28
751.921	43.33
752.318	43.34
752.716	43.33
753.113	43.35
753.511	43.37
753.908	43.43
754.305	43.47
754.703	43.46
755.1	43.47
755.497	43.49
755.894	43.5
756.291	43.49
756.688	43.49
757.085	43.52
757.482	43.53
757.878	43.55
758.275	43.52
758.672	43.49
759.068	43.52
759.465	43.52
759.861	43.52
760.258	43.54
760.654	43.55
761.05	43.57
761.447	43.57
761.843	43.56
762.239	43.54
762.635	43.53
763.031	43.55
763.427	43.55
763.822	43.55
764.218	43.57
764.614	43.57
765.01	43.55
765.405	43.55
765.801	43.54
766.196	43.55
766.592	43.54
766.987	43.55
767.382	43.56
767.778	43.55
768.173	43.55
768.568	43.54
768.963	43.53
769.358	43.55
769.753	43.56
770.148	43.58
770.542	43.59
770.937	43.61
771.332	43.62
771.726	43.6
772.121	43.62
772.515	43.62
772.91	43.62
773.304	43.63
773.699	43.63
774.093	43.61
774.487	43.62
774.881	43.65
775.275	43.63
775.669	43.62
776.063	43.61
776.457	43.62
776.851	43.59
777.245	43.58
777.638	43.57
778.032	43.55
778.425	43.58
778.819	43.58
779.212	43.57
779.606	43.59
779.999	43.59
780.392	43.62
780.786	43.6
781.179	43.63
781.572	43.66
781.965	43.7
782.358	43.73
782.751	43.7
783.143	43.67
783.536	43.65
783.929	43.66
784.322	43.68
784.714	43.68
785.107	43.68
785.499	43.69
785.891	43.7
786.284	43.64
786.676	43.66
787.068	43.67
787.46	43.7
787.852	43.72
788.245	43.72
788.636	43.71
789.028	43.72
789.42	43.71
789.812	43.7
790.204	43.68
790.595	43.73
790.987	43.72
791.378	43.75
791.77	43.76
792.161	43.77
792.553	43.78
792.944	43.77
793.335	43.78
793.726	43.78
794.117	43.81
794.508	43.79
794.899	43.75
795.29	43.76
795.681	43.75
796.072	43.74
796.463	43.79
796.853	43.8
797.244	43.81
797.634	43.8
798.025	43.83
798.415	43.82
798.806	43.86
799.196	43.89
799.586	43.9
799.976	43.91
800.366	43.91
800.756	43.86
801.146	43.88
801.536	43.88
801.926	43.89
802.316	43.88
802.706	43.92
803.095	43.93
803.485	43.93
803.874	43.9
804.264	43.9
804.653	43.92
805.043	43.95
805.432	43.92
805.821	43.95
806.21	43.97
806.599	43.95
806.988	43.96
807.377	43.94
807.766	43.95
808.155	43.99
808.544	44
808.933	43.99
809.321	43.99
809.71	44
810.098	43.98
810.487	43.96
810.875	43.99
811.264	43.98
811.652	44.03
812.04	44.03
812.428	44.05
812.816	44.04
813.204	44.05
813.592	44.02
813.98	44.02
814.368	44.04
814.756	44.04
815.144	44.06
815.531	44.08
815.919	44.05
816.306	44.05
816.694	44.04
817.081	44.07
817.469	44.08
817.856	44.11
818.243	44.09
818.63	44.07
819.017	44.06
819.404	44.04
819.791	44
820.178	44.01
820.565	43.98
820.952	44
821.339	43.98
821.725	44.01
822.112	44.01
822.498	44.02
822.885	44.06
823.271	44.07
823.657	44.03
824.044	44.07
824.43	44.08
824.816	44.1
825.202	44.08
825.588	44.08
825.974	44.05
826.36	44.04
826.746	44.03
827.132	44.01
827.517	44.02
827.903	44.07
828.289	44.07
828.674	44.04
829.06	44.01
829.445	44
829.83	43.98
830.216	43.99
830.601	44
830.986	44.02
831.371	44.03
831.756	44.03
832.141	44.01
832.526	44.01
832.911	44.02
833.295	44.04
833.68	44.06
834.065	44.08
834.449	44.07
834.834	44.05
835.218	44.05
835.603	44.05
835.987	44.02
836.371	44.02
836.755	43.99
837.139	43.96
837.524	43.96
837.908	43.97
838.291	43.99
838.675	43.98
839.059	43.97
839.443	43.95
839.827	43.93
840.21	43.93
840.594	43.93
840.977	43.94
841.361	43.97
841.744	43.94
842.127	43.9
842.511	43.87
842.894	43.87
843.277	43.86
843.66	43.87
844.043	43.88
844.426	43.88
844.809	43.87
845.191	43.9
845.574	43.88
845.957	43.91
846.339	43.93
846.722	43.93
847.104	43.95
847.487	43.97
847.869	43.98
848.252	43.98
848.634	44
849.016	44.02
849.398	44
849.78	44.01
850.162	44
850.544	43.98
850.926	44
851.307	43.99
851.689	43.97
852.071	43.98
852.452	43.97
852.834	43.97
853.215	43.95
853.597	43.95
853.978	43.94
854.359	43.95
854.741	43.95
855.122	43.94
855.503	43.92
855.884	43.92
856.265	43.93
856.646	43.93
857.026	43.93
857.407	43.93
857.788	43.94
858.169	43.97
858.549	43.97
858.93	43.98
859.31	43.97
859.69	43.99
860.071	44
860.451	43.98
860.831	43.97
861.211	43.94
861.591	43.94
861.971	43.91
862.351	43.92
862.731	43.93
863.111	43.92
863.491	43.93
863.87	43.91
864.25	43.92
864.629	43.94
865.009	43.95
865.388	43.97
865.768	43.98
866.147	43.98
866.526	43.98
866.905	43.99
867.284	44.01
867.663	44
868.042	44.01
868.421	44.01
868.8	44.01
869.179	44.02
869.558	44.02
869.936	44.03
870.315	44.04
870.693	44.05
871.072	44.06
871.45	44.07
871.828	44.09
872.207	44.11
872.585	44.1
872.963	44.09
873.341	44.08
873.719	44.08
874.097	44.08
874.475	44.07
874.853	44.07
875.23	44.09
875.608	44.07
875.986	44.09
876.363	44.07
876.741	44.08
877.118	44.11
877.495	44.11
877.873	44.13
878.25	44.11
878.627	44.12
879.004	44.12
879.381	44.09
879.758	44.06
880.135	44.06
880.512	44.06
880.889	44.06
881.265	44.02
881.642	44.04
882.019	44.02
882.395	44.01
882.772	44.02
883.148	44
883.524	44.01
883.901	44.03
884.277	43.99
884.653	43.96
885.029	43.94
885.405	43.95
885.781	43.94
886.157	43.93
886.532	43.95
886.908	43.94
887.284	43.94
887.659	43.9
888.035	43.89
888.411	43.9
888.786	43.91
889.161	43.93
889.537	43.93
889.912	43.93
890.287	43.92
890.662	43.9
891.037	43.89
891.412	43.87
891.787	43.87
892.162	43.88
892.536	43.86
892.911	43.85
893.286	43.82
893.66	43.82
894.035	43.82
894.409	43.81
894.784	43.83
895.158	43.82
895.532	43.84
895.906	43.88
896.281	43.88
896.655	43.9
897.029	43.91
897.402	43.91
897.776	43.9
898.15	43.91
898.524	43.93
898.898	43.92
899.271	43.94
899.645	43.96
900.018	43.94
900.392	43.94
900.765	43.94
901.138	43.92
901.511	43.95
901.884	43.98
902.258	44.01
902.631	44
903.003	44.02
903.376	44.02
903.749	43.99
904.122	44.01
904.495	44.05
904.867	44.07
905.24	44.1
905.612	44.1
905.985	44.07
906.357	44.04
906.729	44.07
907.102	44.07
907.474	44.07
907.846	44.09
908.218	44.07
908.59	44.07
908.962	44.08
909.334	44.07
909.705	44.07
910.077	44.08
910.449	44.09
910.82	44.07
911.192	44.05
911.563	44.06
911.935	44.05
912.306	44.07
912.677	44.08
913.048	44.1
913.419	44.1
913.79	44.1
914.161	44.12
914.532	44.16
914.903	44.15
915.274	44.17
915.645	44.15
916.015	44.16
916.386	44.14
916.756	44.12
917.127	44.08
917.497	44.08
917.868	44.09
918.238	44.07
918.608	44.03
918.978	44.03
919.348	44.05
919.718	44.05
920.088	44.08
920.458	44.08
920.828	44.06
921.198	44.05
921.567	44.06
921.937	44.07
922.306	44.07
922.676	44.09
923.045	44.11
923.415	44.08
923.784	44.07
924.153	44.07
924.522	44.11
924.891	44.11
925.26	44.11
925.629	44.1
925.998	44.09
926.367	44.11
926.736	44.11
927.104	44.11
927.473	44.1
927.842	44.09
928.21	44.09
928.578	44.07
928.947	44.09
929.315	44.08
929.683	44.11
930.051	44.1
930.42	44.12
930.788	44.11
931.156	44.12
931.523	44.13
931.891	44.18
932.259	44.2
932.627	44.23
932.994	44.24
933.362	44.24
933.729	44.27
934.097	44.28
934.464	44.29
934.831	44.29
935.199	44.27
935.566	44.31
935.933	44.25
936.3	44.24
936.667	44.23
937.034	44.25
937.401	44.26
937.767	44.25
938.134	44.25
938.501	44.28
938.867	44.28
939.234	44.28
939.6	44.24
939.967	44.28
940.333	44.21
940.699	44.19
941.065	44.09
941.431	44.06
941.798	43.97
942.163	43.92
942.529	43.8
942.895	43.77
943.261	43.72
943.627	43.7
943.992	43.65
944.358	43.64
944.723	43.58
945.089	43.5
945.454	43.49
945.82	43.48
946.185	43.5
946.55	43.46
946.915	43.41
947.28	43.38
947.645	43.34
948.01	43.34
948.375	43.34
948.74	43.3
949.104	43.34
949.469	43.29
949.834	43.25
950.198	43.22
950.562	43.19
950.927	43.2
951.291	43.21
951.655	43.15
952.02	43.12
952.384	43.09
952.748	43.16
953.112	43.24
953.476	43.24
953.839	43.25
954.203	43.27
954.567	43.27
954.931	43.23
955.294	43.21
955.658	43.28
956.021	43.29
956.385	43.29
956.748	43.24
957.111	43.15
957.474	43.17
957.837	43.12
958.2	43.06
958.563	43.02
958.926	43.03
959.289	43.04
959.652	43
960.015	42.98
960.377	42.96
960.74	42.99
961.102	42.98
961.465	43.03
961.827	43.18
962.189	43.21
962.552	43.3
962.914	43.28
963.276	43.27
963.638	43.29
964	43.27
964.362	43.32
964.724	43.26
965.085	43.23
965.447	43.15
965.809	43.05
966.17	42.99
966.532	42.93
966.893	42.97
967.255	42.97
967.616	43.02
967.977	43.06
968.338	43.05
968.699	43.11
969.061	43.15
969.421	43.16
969.782	43.19
970.143	43.28
970.504	43.34
970.865	43.37
971.225	43.34
971.586	43.29
971.946	43.23
972.307	43.17
972.667	43.16
973.027	43.16
973.388	43.19
973.748	43.21
974.108	43.25
974.468	43.2
974.828	43.23
975.188	43.29
975.548	43.29
975.907	43.35
976.267	43.38
976.627	43.36
976.986	43.3
977.346	43.29
977.705	43.25
978.064	43.21
978.424	43.23
978.783	43.17
979.142	43.14
979.501	43.16
979.86	43.2
980.219	43.22
980.578	43.23
980.937	43.3
981.296	43.27
981.654	43.26
982.013	43.31
982.371	43.31
982.73	43.35
983.088	43.36
983.447	43.3
983.805	43.28
984.163	43.25
984.521	43.29
984.879	43.28
985.237	43.31
985.595	43.39
985.953	43.31
986.311	43.25
986.669	43.24
987.026	43.23
987.384	43.28
987.741	43.15
988.099	43.28
988.456	43.21
988.814	43.24
989.171	43.23
989.528	43.19
989.885	43.13
990.242	43.23
990.599	43.27
990.956	43.29
991.313	43.3
991.67	43.38
992.027	43.42
992.383	43.48
992.74	43.56
993.096	43.62
993.453	43.61
993.809	43.69
994.165	43.67
994.522	43.76
994.878	43.8
995.234	43.76
995.59	43.7
995.946	43.67
996.302	43.72
996.658	43.7
997.013	43.69
997.369	43.74
997.725	43.8
998.08	43.8
998.436	43.68
998.791	43.66
999.147	43.73
999.502	43.82
999.857	43.71
1000.212	43.57
1000.567	43.54
1000.922	43.49
1001.277	43.55
1001.632	43.42
1001.987	43.44
1002.342	43.31
1002.696	43.26
1003.051	43.34
1003.406	43.47
1003.76	43.47
1004.114	43.59
1004.469	43.59
1004.823	43.92
1005.177	43.79
1005.531	43.92
1005.885	43.91
1006.239	44.05
1006.593	44.3
1006.947	44.39
1007.301	44.21
1007.655	44.3
1008.008	44.25
1008.362	44.34
1008.715	44.2
1009.069	44.28
1009.422	44.3
1009.776	44.29
1010.129	44.46
1010.482	44.28
1010.835	44.17
1011.188	44.3
1011.541	44.19
1011.894	44.27
1012.247	44.21
1012.6	44.07
1012.952	44.14
1013.305	44.1
1013.657	44.17
1014.01	44.09
1014.362	44.13
1014.715	44.33
1015.067	44.44
1015.419	44.59
1015.771	44.62
1016.123	44.76
1016.475	44.72
1016.827	44.72
1017.179	44.82
1017.531	44.83
1017.883	44.75
1018.234	44.91
1018.586	44.86
1018.938	45.17
1019.289	45.13
1019.64	45.14
1019.992	44.89
1020.343	44.92
1020.694	44.91
1021.045	44.8
1021.396	44.92
1021.747	45.04
1022.098	45.02
1022.449	44.73
1022.8	44.57
1023.151	44.68
1023.501	44.84
1023.852	45.05
1024.202	45.06
1024.553	45.11
1024.903	45.18
1025.253	45.41
1025.604	45.5
1025.954	45.3
1026.304	45.44
1026.654	45.19
1027.004	45.18
1027.354	45.04
1027.703	45.03
1028.053	44.95
1028.403	45.22
1028.753	45.02
1029.102	44.8
1029.452	44.72
1029.801	44.92
1030.15	44.9
1030.499	44.84
897.758	2056.23
901.051	2058.31
904.343	2051.33
907.636	2089.96
910.928	2038.04
914.22	2030.63
917.511	2000.26
920.803	1912.94
924.094	1905.14
927.384	1858.36
930.675	1775.86
933.965	1762.73
937.255	1665.17
940.544	1596.16
943.834	1514.93
947.123	1498.62
950.411	1412.22
953.7	1380.96
956.988	1305.07
960.276	1249.67
963.563	1229.23
966.851	1187.75
970.138	1178.56
973.424	1137.58
976.711	1143.83
979.997	1086.96
983.283	1081.58
986.568	1058.04
989.853	1022.37
993.138	1007.1
996.423	967.27
999.708	940.83
1002.992	930.96
1006.275	884.84
1009.559	875.25
1012.842	843.89
1016.125	818.84
1019.408	805.14
1022.69	792.83
1025.972	780.37
1029.254	757.99
1032.536	745.57
1035.817	728.45
1039.098	718.42
1042.379	702.86
1045.659	695.58
1048.939	679.31
1052.219	665.11
1055.498	651.73
1058.778	638.54
1062.057	619.37
1065.335	612.44
1068.614	605.05
1071.892	599.08
1075.17	577
1078.447	566.98
1081.724	562.79
1085.001	556.17
1088.278	545.7
1091.554	534.59
1094.83	533.94
1098.106	531.93
1101.382	526.87
1104.657	522.43
1107.932	513.48
1111.206	518.25
1114.481	503.88
1117.755	498.21
1121.029	495.43
1124.302	495.8
1127.575	485.56
1130.848	478.9
1134.121	473.64
1137.393	472.63
1140.665	461.77
1143.937	459.75
1147.208	453.25
1150.48	454.89
1153.75	448.03
1157.021	439.97
1160.291	439.2
1163.561	435.38
1166.831	434.88
1170.101	432.69
1173.37	428.66
1176.639	430.38
1179.907	425.51
1183.176	421.91
1186.444	420.8
1189.711	421.27
1192.979	420.8
1196.246	416.36
1199.513	418.13
1202.78	415.59
1206.046	414.85
1209.312	412.4
1212.578	413.01
1215.843	416.34
1219.108	413.06
1222.373	421.74
1225.638	425.25
1228.902	432.65
1232.166	432.77
1235.43	436.1
1238.693	443.16
1241.956	444.95
1245.219	453.26
1248.482	451.26
1251.744	451.74
1255.006	454.17
1258.268	442.69
1261.529	437.57
1264.79	432.51
1268.051	430.88
1271.312	425.64
1274.572	419.41
1277.832	415.33
1281.092	407.18
1284.351	405.03
1287.61	404.64
1290.869	397.45
1294.128	394.21
1297.386	394.7
1300.644	390.2
1303.902	392.04
1307.159	389.61
1310.416	390.74
1313.673	390.75
1316.93	394.78
1320.186	394.87
1323.442	396.66
1326.697	405.86
1329.953	405.86
1333.208	407.85
1336.463	413.41
1339.717	414.45
1342.972	418.37
1346.226	421.24
1349.479	421.46
1352.733	425.1
1355.986	426.98
1359.238	426.76
1362.491	429.11
1365.743	434.74
1368.995	434.98
1372.247	431.44
1375.498	432.41
1378.749	438.93
1382	432.97
1385.251	436.45
1388.501	432.39
1391.751	436.8
1395	433.34
1398.25	430.75
1401.499	429.18
1404.748	429.12
1407.996	427.27
1411.244	424.66
1414.492	422.9
1417.74	420.17
1420.987	412.62
1424.234	414.82
1427.481	406.87
1430.728	409.41
1433.974	403.38
1437.22	400.31
1440.465	398.62
1443.711	397.13
1446.956	395.43
1450.201	387.95
1453.445	385.24
1456.689	384.57
1459.933	377.18
1463.177	375.7
1466.42	367.26
1469.663	364.62
1472.906	362.63
1476.148	352.27
1479.391	346.9
1482.633	342.31
1485.874	338.69
1489.115	336.48
1492.356	330.48
1495.597	329.54
1498.838	323.87
1502.078	322.34
1505.318	319.62
1508.557	319.54
1511.797	320.19
1515.036	318.39
1518.274	318.05
1521.513	313.58
1524.751	312.78
1527.989	312.61
1531.227	310.94
1534.464	312.53
1537.701	309.33
1540.938	308.48
1544.174	303.79
1547.41	302
1550.646	301.05
1553.882	300.94
1557.117	297.43
1560.352	295.04
1563.587	294.12
1566.821	291.71
1570.055	287.35
1573.289	285.45
1576.523	285.17
1579.756	283.02
1582.989	281.27
1586.222	280.3
1589.454	277.52
1592.686	279.68
1595.918	278.56
1599.15	277.53
1602.381	277.26
1605.612	277.35
1608.843	278.99
1612.073	278.19
1615.303	279.36
1618.533	280.66
1621.762	279.46
1624.992	279.95
1628.221	279.87
1631.449	279.39
1634.678	278.19
1637.906	280.26
1641.134	279.74
1644.361	279.1
1647.588	280.33
1650.815	278.93
1654.042	276.57
1657.269	278.83
1660.495	279.01
1663.72	276.48
1666.946	278.02
1670.171	279
1673.396	278.57
1676.621	278.29
1679.845	278.24
1683.069	277.95
1686.293	279.97
1689.517	282.24
1692.74	281.54
1695.963	283.17
1699.185	287.1
1702.408	287.16
1705.63	288.19
1708.852	289.01
1712.073	290.12
1715.294	290.68
1718.515	291.39
1721.736	291.5
1724.956	291.73
1728.176	291.72
1731.396	294.2
1734.616	293.59
1737.835	294.51
1741.054	292.48
1744.272	293.52
1747.491	297.05
1750.709	297.57
1753.927	298.58
1757.144	296.85
1760.361	299.68
1763.578	299.74
1766.795	298.65
1770.011	300.63
1773.227	300.86
1776.443	305.17
1779.658	307.12
1782.874	305.44
1786.089	307.38
1789.303	308.38
1792.518	312.36
1795.732	311.64
1798.945	316.02
1802.159	316.03
1805.372	317.44
1808.585	323.42
1811.797	324.96
1815.01	323.87
1818.222	327.14
1821.434	328.81
1824.645	330.54
1827.856	336.73
1831.067	340.23
1834.278	337.29
1837.488	340.57
1840.698	343.4
1843.908	339.61
1847.117	341.75
1850.326	345.07
1853.535	343.92
1856.744	350.78
1859.952	349.59
1863.16	348.6
1866.368	345.97
1869.575	353.45
1872.782	347.37
1875.989	345.7
1879.196	345.14
1882.402	343.97
1885.608	346.13
1888.814	348.52
1892.019	347.45
1895.224	348.01
1898.429	345.84
1901.634	348.96
1904.838	347.9
1908.042	353.63
1911.246	356.29
1914.449	358.86
1917.652	358.94
1920.855	358.02
1924.058	357.45
1927.26	355.68
1930.462	358.04
1933.664	362.94
1936.865	359.58
1940.066	361.04
1943.267	357.88
1946.467	357.25
1949.668	360.45
1952.868	364.42
1956.067	363.93
1959.267	363.74
1962.466	365.15
1965.665	363.19
1968.863	363.06
1972.061	368.02
1975.259	370.72
1978.457	374.53
1981.654	376.66
1984.852	377.34
1988.048	375.67
1991.245	379.74
1994.441	385.16
1997.637	386.88
2000.833	393.7
2004.028	399.28
2007.223	401.56
2010.418	406.54
2013.613	412.39
2016.807	417.35
2020.001	419.46
2023.194	425.77
2026.388	435.08
2029.581	443.78
2032.774	449.16
2035.966	457.52
2039.158	459.2
2042.35	468.06
2045.542	469.09
2048.733	476.78
2051.924	483
2055.115	491.76
2058.306	492.47
2061.496	499.35
2064.686	498.31
2067.875	506.64
2071.065	508.31
2074.254	504.76
2077.442	510.03
2080.631	513.52
2083.819	518.08
2087.007	517.98
2090.195	523.73
2093.382	528.33
2096.569	522.06
2099.756	532.03
2102.942	532.28
2106.128	539.23
2109.314	551.96
2112.5	550.21
2115.685	561.48
2118.87	562.44
2122.055	573.84
2125.239	578.81
2128.424	587.98
2131.608	591.8
2134.791	598.64
2137.974	602.12
2141.157	603.6
2144.34	604.02
2147.523	614.21
2150.705	609.44
2153.887	614.31
2157.068	617
2160.25	608.91
2163.431	610.06
2166.611	617.52
2169.792	631.59
2172.972	637.99
2176.152	639.4
2179.331	650.34
2182.511	661.47
2185.69	670.36
2188.868	684.38
2192.047	685.12
2195.225	706.85
2198.403	723.51
2201.58	737.9
2204.758	749.79
2207.935	766.36
2211.111	781.91
2214.288	790.61
2217.464	793.22
2220.64	800.78
2223.815	814.5
2226.991	847.38
2230.166	850.94
2233.34	868.03
2236.515	880.98
2239.689	882.36
2242.863	887.68
2246.036	915.92
2249.209	903.47
2252.382	917.88
2255.555	950.1
2258.727	950.35
2261.9	955.19
2265.071	963.84
2268.243	978.89
2271.414	989.18
2274.585	1014.19
2277.756	1022.82
2280.926	1027.75
2284.096	1053.79
2287.266	1077.09
2290.436	1087.59
2293.605	1114.13
2296.774	1151.99
2299.942	1187.36
2303.111	1195.22
2306.279	1226.63
2309.447	1240.51
2312.614	1274.77
2315.781	1310.75
2318.948	1373.16
2322.115	1351.93
2325.281	1422.24
2328.447	1392.78
2331.613	1449.12
2334.779	1431.92
2337.944	1493.16
2341.109	1510.16
2344.274	1548.38
2347.438	1605.85
2350.602	1608.71
2353.766	1657.16
2356.929	1679.6
2360.092	1663.56
2363.255	1791.61
2366.418	1782.09
2369.58	1825.52
2372.742	1933.44
2375.904	1978.6
2379.066	1967.79
2382.227	1925.45
2385.388	2087.64
2388.548	2092.14
2391.709	2127.91
2394.869	2377.51
2398.029	2258.45
2401.188	2326.02
2404.347	2310.39
2407.506	2283.57
2410.665	2348.97
2413.823	2492.34
2416.981	2640.52
2420.139	2549.04
2423.296	2513.6
2426.453	2626.8
2429.61	2521.52
2432.767	2652.76
2435.923	2632.67
2439.079	2856.03
2442.235	2889
2445.391	2859.16
2448.546	2846.36
2451.701	2767.23
2454.855	2769.11
2458.009	2941
2461.163	3048.2
2464.317	3167.73
2467.471	3250.65
2470.624	3243.22
2473.777	3172.9
2476.929	3096.68
2480.082	3018.68
2483.234	2973.12
2486.385	3106.66
2489.537	3121.61
2492.688	3251.27
2495.839	3152.1
2498.989	3088.79
2502.14	3103.96
2505.29	3145.2
2508.439	3200.22
2511.589	3189.42
2514.738	3458.36
2517.887	3389.96
2521.035	3604.59
2524.183	3616.61
2527.331	3643.4
2530.479	3643.87
2533.627	3663.88
