Data from C_3_HIR_WI_4N_Splice17_14-05-58-804.txt Node
Date: Sat Mar 07 14:05:58 EST 2020
User: sa697716
Spectrometer: NQ5500242
Trigger mode: 0
Integration Time (sec): 1.450000E-1
Scans to average: 20
Nonlinearity correction enabled: false
Boxcar width: 5
Storing dark spectrum: false
XAxis mode: Wavelengths
Number of Pixels in Spectrum: 512
>>>>>Begin Spectral Data<<<<<
187.83	168.17
188.298	183.79
188.766	136.09
189.233	123.88
189.701	116.47
190.169	127.93
190.636	89.17
191.104	33.42
191.571	-199.49
192.039	-45.99
192.506	-734.43
192.974	259.98
193.441	407.39
193.908	12.62
194.375	38.31
194.842	-40.26
195.31	-74.93
195.777	-306.95
196.244	27.96
196.711	51.44
197.177	56.44
197.644	56.19
198.111	56.79
198.578	57.37
199.045	59.05
199.511	59.21
199.978	59.21
200.445	59.38
200.911	59.41
201.378	59.74
201.844	60.15
202.31	59.8
202.777	60.17
203.243	60.15
203.709	59.85
204.176	59.19
204.642	58.77
205.108	58.81
205.574	58.69
206.04	58.08
206.506	57.78
206.972	57.21
207.438	56.64
207.903	55.71
208.369	54.43
208.835	53.24
209.301	52.11
209.766	50.54
210.232	49.07
210.697	47.48
211.163	46.13
211.628	44.86
212.094	43.47
212.559	42.61
213.024	41.65
213.49	40.75
213.955	39.87
214.42	38.94
214.885	37.96
215.35	36.72
215.815	34.97
216.28	32.59
216.745	29.93
217.21	27.41
217.675	24.95
218.14	22.78
218.604	20.9
219.069	19.3
219.534	17.98
219.998	16.92
220.463	15.99
220.927	15.13
221.392	14.52
221.856	13.97
222.32	13.52
222.785	13.13
223.249	12.76
223.713	12.44
224.177	12.2
224.642	11.94
225.106	11.65
225.57	11.39
226.034	11.21
226.497	11
226.961	10.81
227.425	10.61
227.889	10.43
228.353	10.25
228.816	10.08
229.28	9.9
229.744	9.75
230.207	9.61
230.671	9.46
231.134	9.31
231.597	9.2
232.061	9.08
232.524	8.95
232.987	8.83
233.45	8.75
233.914	8.64
234.377	8.53
234.84	8.43
235.303	8.35
235.766	8.26
236.229	8.19
236.691	8.1
237.154	8.03
237.617	7.96
238.08	7.89
238.542	7.8
239.005	7.74
239.468	7.67
239.93	7.59
240.393	7.52
240.855	7.44
241.317	7.36
241.78	7.29
242.242	7.21
242.704	7.15
243.166	7.08
243.629	7.03
244.091	6.95
244.553	6.9
245.015	6.84
245.477	6.78
245.939	6.73
246.4	6.67
246.862	6.62
247.324	6.57
247.786	6.51
248.247	6.45
248.709	6.39
249.17	6.33
249.632	6.29
250.093	6.25
250.555	6.2
251.016	6.16
251.477	6.1
251.939	6.08
252.4	6.04
252.861	6
253.322	5.97
253.783	5.94
254.244	5.91
254.705	5.87
255.166	5.84
255.627	5.8
256.088	5.77
256.549	5.75
257.009	5.7
257.47	5.66
257.931	5.61
258.391	5.57
258.852	5.53
259.312	5.49
259.773	5.45
260.233	5.41
260.694	5.38
261.154	5.33
261.614	5.29
262.074	5.25
262.534	5.22
262.994	5.2
263.455	5.17
263.915	5.14
264.374	5.11
264.834	5.09
265.294	5.06
265.754	5.04
266.214	5.03
266.673	5.01
267.133	5
267.593	4.99
268.052	4.97
268.512	4.96
268.971	4.95
269.431	4.93
269.89	4.92
270.349	4.9
270.809	4.89
271.268	4.88
271.727	4.86
272.186	4.85
272.645	4.84
273.104	4.83
273.563	4.81
274.022	4.8
274.481	4.8
274.94	4.79
275.399	4.78
275.857	4.77
276.316	4.77
276.775	4.76
277.233	4.75
277.692	4.73
278.15	4.72
278.609	4.72
279.067	4.7
279.525	4.7
279.984	4.68
280.442	4.68
280.9	4.67
281.358	4.66
281.816	4.65
282.274	4.64
282.732	4.63
283.19	4.62
283.648	4.61
284.106	4.6
284.564	4.59
285.021	4.59
285.479	4.58
285.937	4.57
286.394	4.56
286.852	4.55
287.309	4.54
287.767	4.53
288.224	4.52
288.682	4.51
289.139	4.49
289.596	4.47
290.053	4.45
290.511	4.43
290.968	4.41
291.425	4.39
291.882	4.38
292.339	4.36
292.796	4.34
293.252	4.33
293.709	4.32
294.166	4.3
294.623	4.29
295.079	4.28
295.536	4.27
295.992	4.25
296.449	4.24
296.905	4.23
297.362	4.22
297.818	4.2
298.274	4.19
298.731	4.18
299.187	4.17
299.643	4.16
300.099	4.15
300.555	4.14
301.011	4.13
301.467	4.13
301.923	4.12
302.379	4.12
302.835	4.11
303.291	4.1
303.746	4.1
304.202	4.1
304.658	4.1
305.113	4.09
305.569	4.09
306.024	4.08
306.479	4.08
306.935	4.07
307.39	4.07
307.845	4.07
308.301	4.07
308.756	4.07
309.211	4.06
309.666	4.07
310.121	4.07
310.576	4.07
311.031	4.07
311.486	4.06
311.94	4.07
312.395	4.06
312.85	4.07
313.305	4.07
313.759	4.07
314.214	4.06
314.668	4.04
315.123	4.03
315.577	4.03
316.032	4.03
316.486	4.03
316.94	4.03
317.394	4.01
317.849	4
318.303	3.99
318.757	3.97
319.211	3.96
319.665	3.95
320.119	3.94
320.572	3.92
321.026	3.91
321.48	3.9
321.934	3.88
322.387	3.87
322.841	3.86
323.295	3.85
323.748	3.85
324.202	3.85
324.655	3.84
325.108	3.84
325.562	3.84
326.015	3.83
326.468	3.83
326.921	3.82
327.374	3.83
327.827	3.83
328.28	3.83
328.733	3.82
329.186	3.82
329.639	3.82
330.092	3.82
330.545	3.82
330.997	3.82
331.45	3.82
331.903	3.84
332.355	3.84
332.808	3.84
333.26	3.84
333.713	3.83
334.165	3.83
334.617	3.83
335.069	3.82
335.522	3.83
335.974	3.84
336.426	3.83
336.878	3.82
337.33	3.82
337.782	3.81
338.234	3.81
338.686	3.81
339.137	3.83
339.589	3.82
340.041	3.82
340.493	3.81
340.944	3.79
341.396	3.78
341.847	3.77
342.299	3.74
342.75	3.73
343.201	3.71
343.653	3.7
344.104	3.67
344.555	3.65
345.006	3.64
345.457	3.63
345.908	3.62
346.359	3.62
346.81	3.61
347.261	3.61
347.712	3.6
348.163	3.59
348.613	3.6
349.064	3.59
349.515	3.59
349.965	3.59
350.416	3.58
350.866	3.58
351.317	3.57
351.767	3.57
352.217	3.56
352.668	3.57
353.118	3.57
353.568	3.56
354.018	3.57
354.468	3.57
354.918	3.57
355.368	3.57
355.818	3.58
356.268	3.59
356.718	3.59
357.168	3.59
357.617	3.58
358.067	3.59
358.517	3.6
358.966	3.6
359.416	3.6
359.865	3.6
360.315	3.61
360.764	3.61
361.213	3.62
361.663	3.62
362.112	3.63
362.561	3.64
363.01	3.64
363.459	3.64
363.908	3.64
364.357	3.66
364.806	3.67
365.255	3.68
365.703	3.69
366.152	3.7
366.601	3.72
367.05	3.73
367.498	3.75
367.947	3.76
368.395	3.79
368.844	3.81
369.292	3.82
369.74	3.84
370.189	3.85
370.637	3.87
371.085	3.88
371.533	3.89
371.981	3.9
372.429	3.92
372.877	3.95
373.325	3.97
373.773	4
374.221	4.02
374.669	4.04
375.116	4.06
375.564	4.07
376.012	4.1
376.459	4.12
376.907	4.15
377.354	4.18
377.801	4.2
378.249	4.21
378.696	4.23
379.143	4.25
379.591	4.28
380.038	4.32
380.485	4.37
380.932	4.4
381.379	4.44
381.826	4.48
382.273	4.51
382.72	4.54
383.166	4.57
383.613	4.61
384.06	4.65
384.506	4.67
384.953	4.71
385.4	4.73
385.846	4.77
386.292	4.8
386.739	4.83
387.185	4.87
387.631	4.91
388.078	4.95
388.524	4.99
388.97	5.02
389.416	5.07
389.862	5.1
390.308	5.13
390.754	5.18
391.2	5.21
391.645	5.25
392.091	5.29
392.537	5.33
392.983	5.36
393.428	5.4
393.874	5.43
394.319	5.46
394.765	5.49
395.21	5.5
395.655	5.52
396.101	5.55
396.546	5.57
396.991	5.6
397.436	5.62
397.881	5.65
398.326	5.69
398.771	5.72
399.216	5.75
399.661	5.78
400.106	5.81
400.551	5.82
400.995	5.83
401.44	5.83
401.885	5.84
402.329	5.85
402.774	5.86
403.218	5.88
403.663	5.89
404.107	5.89
404.551	5.89
404.995	5.89
405.44	5.9
405.884	5.91
406.328	5.93
406.772	5.92
407.216	5.93
407.66	5.93
408.104	5.91
408.547	5.91
408.991	5.91
409.435	5.92
409.879	5.92
410.322	5.93
410.766	5.93
411.209	5.95
411.653	5.97
412.096	5.98
412.54	5.99
412.983	6
413.426	6.03
413.869	6.06
414.312	6.08
414.756	6.1
415.199	6.09
415.642	6.1
416.085	6.1
416.527	6.08
416.97	6.08
417.413	6.07
417.856	6.05
418.298	6.03
418.741	6.02
419.184	6.02
419.626	6.04
420.069	6.06
420.511	6.06
420.953	6.06
421.396	6.07
421.838	6.07
422.28	6.09
422.722	6.12
423.164	6.12
423.606	6.12
424.048	6.11
424.49	6.1
424.932	6.08
425.374	6.06
425.816	6.03
426.258	6.01
426.699	5.99
427.141	5.97
427.582	5.95
428.024	5.96
428.465	5.95
428.907	5.95
429.348	5.93
429.789	5.91
430.231	5.93
430.672	5.93
431.113	5.94
431.554	5.95
431.995	5.96
432.436	5.96
432.877	5.96
433.318	5.97
433.759	5.99
434.2	6.01
434.64	6.04
435.081	6.05
435.522	6.05
435.962	6.07
436.403	6.1
436.843	6.11
437.284	6.13
437.724	6.14
438.164	6.14
438.604	6.15
439.045	6.15
439.485	6.17
439.925	6.18
440.365	6.19
440.805	6.22
441.245	6.25
441.685	6.27
442.125	6.29
442.564	6.32
443.004	6.35
443.444	6.37
443.883	6.39
444.323	6.39
444.762	6.43
445.202	6.45
445.641	6.47
446.081	6.49
446.52	6.51
446.959	6.55
447.398	6.58
447.837	6.62
448.276	6.64
448.716	6.66
449.154	6.71
449.593	6.74
450.032	6.78
450.471	6.79
450.91	6.8
451.349	6.82
451.787	6.81
452.226	6.8
452.664	6.8
453.103	6.8
453.541	6.8
453.98	6.79
454.418	6.77
454.856	6.75
455.295	6.74
455.733	6.71
456.171	6.7
456.609	6.7
457.047	6.69
457.485	6.68
457.923	6.67
458.361	6.66
458.798	6.64
459.236	6.63
459.674	6.64
460.111	6.64
460.549	6.65
460.987	6.66
461.424	6.64
461.862	6.65
462.299	6.65
462.736	6.64
463.173	6.64
463.611	6.65
464.048	6.65
464.485	6.65
464.922	6.65
465.359	6.63
465.796	6.64
466.233	6.65
466.67	6.66
467.106	6.67
467.543	6.66
467.98	6.66
468.416	6.65
468.853	6.65
469.29	6.65
469.726	6.65
470.162	6.65
470.599	6.65
471.035	6.64
471.471	6.64
471.907	6.63
472.344	6.64
472.78	6.65
473.216	6.65
473.652	6.65
474.088	6.64
474.523	6.64
474.959	6.66
475.395	6.64
475.831	6.64
476.266	6.64
476.702	6.64
477.138	6.64
477.573	6.63
478.008	6.64
478.444	6.62
478.879	6.62
479.314	6.61
479.75	6.6
480.185	6.6
480.62	6.6
481.055	6.6
481.49	6.59
481.925	6.59
482.36	6.6
482.795	6.59
483.229	6.6
483.664	6.63
484.099	6.63
484.534	6.64
484.968	6.66
485.403	6.67
485.837	6.68
486.271	6.71
486.706	6.73
487.14	6.74
487.574	6.77
488.009	6.81
488.443	6.83
488.877	6.87
489.311	6.91
489.745	6.95
490.179	7
490.613	7.06
491.046	7.11
491.48	7.16
491.914	7.22
492.348	7.28
492.781	7.34
493.215	7.41
493.648	7.48
494.082	7.56
494.515	7.63
494.948	7.71
495.382	7.79
495.815	7.89
496.248	7.98
496.681	8.09
497.114	8.19
497.547	8.3
497.98	8.42
498.413	8.53
498.846	8.66
499.279	8.77
499.711	8.91
500.144	9.05
500.577	9.19
501.009	9.33
501.442	9.47
501.874	9.63
502.306	9.79
502.739	9.96
503.171	10.13
503.603	10.31
504.036	10.5
504.468	10.69
504.9	10.88
505.332	11.08
505.764	11.29
506.196	11.51
506.627	11.74
507.059	11.96
507.491	12.19
507.923	12.43
508.354	12.68
508.786	12.94
509.217	13.19
509.649	13.46
510.08	13.73
510.512	14.01
510.943	14.28
511.374	14.55
511.805	14.84
512.237	15.12
512.668	15.43
513.099	15.72
513.53	16.02
513.961	16.32
514.391	16.63
514.822	16.94
515.253	17.26
515.684	17.56
516.114	17.87
516.545	18.19
516.975	18.51
517.406	18.81
517.836	19.1
518.267	19.42
518.697	19.73
519.127	20.02
519.558	20.32
519.988	20.62
520.418	20.92
520.848	21.21
521.278	21.49
521.708	21.9
522.138	22.18
522.567	22.46
522.997	22.71
523.427	22.95
523.857	23.2
524.286	23.42
524.716	23.65
525.145	23.88
525.575	24.09
526.004	24.31
526.433	24.38
526.863	24.57
527.292	24.76
527.721	24.92
528.15	25.1
528.579	25.27
529.008	25.44
529.437	25.58
529.866	25.71
530.295	25.86
530.724	25.97
531.152	26.1
531.581	26.21
532.01	26.34
532.438	26.46
532.867	26.57
533.295	26.65
533.723	26.74
534.152	26.81
534.58	26.9
535.008	26.96
535.436	27.04
535.865	27.1
536.293	27.15
536.721	27.18
537.149	27.23
537.576	27.26
538.004	27.31
538.432	27.35
538.86	27.38
539.287	27.4
539.715	27.45
540.143	27.47
540.57	27.5
540.998	27.53
541.425	27.55
541.852	27.58
542.28	27.63
542.707	27.66
543.134	27.69
543.561	27.74
543.988	27.79
544.415	27.82
544.842	27.83
545.269	27.86
545.696	27.9
546.123	27.93
546.549	27.95
546.976	27.97
547.403	27.99
547.829	28.02
548.256	28.03
548.682	28.05
549.108	28.08
549.535	28.12
549.961	28.14
550.387	28.15
550.813	28.17
551.24	28.18
551.666	28.19
552.092	28.18
552.518	28.19
552.943	28.18
553.369	28.19
553.795	28.16
554.221	28.14
554.646	28.1
555.072	28.08
555.498	28.05
555.923	28
556.349	27.94
556.774	27.9
557.199	27.84
557.625	27.78
558.05	27.7
558.475	27.64
558.9	27.54
559.325	27.48
559.75	27.4
560.175	27.3
560.6	27.21
561.025	27.12
561.449	27.02
561.874	26.92
562.299	26.81
562.723	26.69
563.148	26.56
563.572	26.43
563.997	26.29
564.421	26.16
564.846	26.03
565.27	25.88
565.694	25.73
566.118	25.58
566.542	25.43
566.966	25.28
567.39	25.13
567.814	24.98
568.238	24.83
568.662	24.68
569.086	24.51
569.509	24.36
569.933	24.22
570.357	24.07
570.78	23.92
571.204	23.76
571.627	23.61
572.05	23.46
572.474	23.33
572.897	23.19
573.32	23.06
573.743	22.93
574.166	22.8
574.589	22.69
575.012	22.56
575.435	22.45
575.858	22.33
576.281	22.22
576.704	22.12
577.126	22
577.549	21.91
577.972	21.81
578.394	21.7
578.817	21.61
579.239	21.51
579.661	21.43
580.084	21.34
580.506	21.26
580.928	21.17
581.35	21.08
581.772	21.01
582.194	20.92
582.616	20.84
583.038	20.77
583.46	20.68
583.882	20.61
584.303	20.53
584.725	20.45
585.147	20.38
585.568	20.32
585.99	20.26
586.411	20.19
586.833	20.14
587.254	20.07
587.675	20.02
588.096	19.97
588.518	19.92
588.939	19.87
589.36	19.81
589.781	19.78
590.202	19.73
590.623	19.68
591.043	19.62
591.464	19.58
591.885	19.53
592.305	19.49
592.726	19.45
593.147	19.41
593.567	19.37
593.987	19.34
594.408	19.3
594.828	19.26
595.248	19.24
595.669	19.21
596.089	19.18
596.509	19.16
596.929	19.13
597.349	19.09
597.769	19.05
598.189	19.01
598.608	18.98
599.028	18.95
599.448	18.92
599.867	18.87
600.287	18.83
600.706	18.79
601.126	18.71
601.545	18.67
601.965	18.62
602.384	18.57
602.803	18.51
603.222	18.45
603.641	18.38
604.061	18.33
604.48	18.27
604.898	18.2
605.317	18.12
605.736	18.06
606.155	17.99
606.574	17.91
606.992	17.83
607.411	17.75
607.829	17.65
608.248	17.55
608.666	17.44
609.085	17.35
609.503	17.26
609.921	17.18
610.339	17.1
610.758	17.01
611.176	16.91
611.594	16.83
612.012	16.73
612.43	16.66
612.847	16.6
613.265	16.53
613.683	16.45
614.101	16.38
614.518	16.3
614.936	16.23
615.353	16.16
615.771	16.1
616.188	16.02
616.606	15.97
617.023	15.91
617.44	15.85
617.857	15.8
618.274	15.75
618.691	15.68
619.108	15.63
619.525	15.57
619.942	15.53
620.359	15.47
620.776	15.46
621.192	15.42
621.609	15.38
622.026	15.35
622.442	15.3
622.859	15.28
623.275	15.25
623.691	15.23
624.108	15.21
624.524	15.19
624.94	15.17
625.356	15.14
625.772	15.12
626.188	15.11
626.604	15.09
627.02	15.07
627.436	15.06
627.852	15.04
628.268	15.02
628.683	15.01
629.099	14.99
629.514	14.97
629.93	14.94
630.345	14.91
630.761	14.87
631.176	14.83
631.591	14.79
632.007	14.74
632.422	14.69
632.837	14.64
633.252	14.57
633.667	14.49
634.082	14.42
634.497	14.33
634.911	14.26
635.326	14.18
635.741	14.09
636.155	13.99
636.57	13.89
636.984	13.78
637.399	13.66
637.813	13.55
638.228	13.43
638.642	13.3
639.056	13.18
639.47	13.06
639.884	12.92
640.298	12.78
640.712	12.65
641.126	12.52
641.54	12.38
641.954	12.24
642.368	12.11
642.781	11.97
643.195	11.84
643.609	11.71
644.022	11.58
644.436	11.46
644.849	11.34
645.262	11.22
645.676	11.11
646.089	11.01
646.502	10.92
646.915	10.84
647.328	10.76
647.741	10.67
648.154	10.6
648.567	10.54
648.98	10.48
649.393	10.42
649.805	10.38
650.218	10.32
650.631	10.27
651.043	10.22
651.456	10.17
651.868	10.12
652.28	10.07
652.693	10.02
653.105	9.95
653.517	9.89
653.929	9.82
654.341	9.75
654.753	9.67
655.165	9.6
655.577	9.52
655.989	9.43
656.401	9.34
656.813	9.26
657.224	9.16
657.636	9.06
658.047	8.96
658.459	8.85
658.87	8.74
659.282	8.63
659.693	8.53
660.104	8.4
660.515	8.29
660.926	8.19
661.338	8.07
661.749	7.97
662.159	7.87
662.57	7.78
662.981	7.7
663.392	7.61
663.803	7.53
664.213	7.44
664.624	7.37
665.035	7.31
665.445	7.24
665.855	7.19
666.266	7.13
666.676	7.09
667.086	7.03
667.497	6.99
667.907	6.95
668.317	6.91
668.727	6.89
669.137	6.87
669.547	6.85
669.956	6.83
670.366	6.81
670.776	6.8
671.186	6.79
671.595	6.79
672.005	6.79
672.414	6.79
672.824	6.79
673.233	6.79
673.642	6.8
674.052	6.81
674.461	6.83
674.87	6.85
675.279	6.87
675.688	6.89
676.097	6.92
676.506	6.96
676.915	7
677.323	7.06
677.732	7.11
678.141	7.17
678.549	7.24
678.958	7.3
679.366	7.39
679.775	7.47
680.183	7.56
680.592	7.66
681	7.77
681.408	7.9
681.816	8.03
682.224	8.19
682.632	8.35
683.04	8.53
683.448	8.74
683.856	8.95
684.264	9.19
684.671	9.46
685.079	9.74
685.487	10.05
685.894	10.39
686.302	10.75
686.709	11.14
687.116	11.54
687.524	11.97
687.931	12.42
688.338	12.89
688.745	13.38
689.152	13.88
689.559	14.42
689.966	14.96
690.373	15.52
690.78	16.1
691.187	16.67
691.593	17.27
692	17.88
692.407	18.47
692.813	19.08
693.22	19.69
693.626	20.31
694.032	20.93
694.439	21.55
694.845	22.15
695.251	22.74
695.657	23.32
696.063	23.9
696.469	24.48
696.875	25.08
697.281	25.64
697.687	26.2
698.093	26.75
698.498	27.25
698.904	27.78
699.31	28.29
699.715	28.81
700.12	29.3
700.526	29.79
700.931	30.27
701.337	30.72
701.742	31.16
702.147	31.62
702.552	32.07
702.957	32.5
703.362	32.93
703.767	33.33
704.172	33.74
704.577	34.14
704.981	34.55
705.386	34.92
705.791	35.29
706.195	35.68
706.6	36.04
707.004	36.38
707.408	36.74
707.813	37.07
708.217	37.4
708.621	37.73
709.025	38.04
709.43	38.32
709.834	38.64
710.237	38.94
710.641	39.2
711.045	39.48
711.449	39.78
711.853	40.06
712.256	40.34
712.66	40.6
713.064	40.86
713.467	41.11
713.87	41.38
714.274	41.59
714.677	41.85
715.08	42.09
715.484	42.31
715.887	42.51
716.29	42.72
716.693	42.94
717.096	43.15
717.499	43.35
717.901	43.57
718.304	43.76
718.707	43.97
719.109	44.16
719.512	44.34
719.915	44.54
720.317	44.69
720.719	44.82
721.122	44.98
721.524	45.14
721.926	45.31
722.328	45.47
722.731	45.62
723.133	45.79
723.535	45.94
723.937	46.06
724.338	46.17
724.74	46.33
725.142	46.56
725.544	46.67
725.945	46.8
726.347	46.87
726.748	46.94
727.15	47.03
727.551	47.12
727.952	47.2
728.354	47.32
728.755	47.41
729.156	47.48
729.557	47.5
729.958	47.56
730.359	47.64
730.76	47.72
731.161	47.83
731.562	47.93
731.962	47.97
732.363	48.07
732.763	48.13
733.164	48.2
733.564	48.25
733.965	48.31
734.365	48.4
734.766	48.46
735.166	48.5
735.566	48.55
735.966	48.57
736.366	48.63
736.766	48.63
737.166	48.69
737.566	48.72
737.966	48.77
738.365	48.81
738.765	48.85
739.165	48.87
739.564	48.93
739.964	48.95
740.363	48.97
740.763	49
741.162	49.04
741.561	49.05
741.96	49.06
742.36	49.07
742.759	49.11
743.158	49.11
743.557	49.1
743.955	49.11
744.354	49.13
744.753	49.17
745.152	49.23
745.55	49.26
745.949	49.27
746.348	49.32
746.746	49.34
747.144	49.38
747.543	49.4
747.941	49.44
748.339	49.42
748.737	49.45
749.136	49.47
749.534	49.44
749.932	49.45
750.33	49.46
750.727	49.45
751.125	49.45
751.523	49.43
751.921	49.41
752.318	49.42
752.716	49.45
753.113	49.45
753.511	49.44
753.908	49.47
754.305	49.45
754.703	49.44
755.1	49.43
755.497	49.43
755.894	49.44
756.291	49.46
756.688	49.43
757.085	49.43
757.482	49.41
757.878	49.39
758.275	49.37
758.672	49.39
759.068	49.39
759.465	49.37
759.861	49.35
760.258	49.35
760.654	49.35
761.05	49.36
761.447	49.35
761.843	49.35
762.239	49.33
762.635	49.34
763.031	49.33
763.427	49.32
763.822	49.34
764.218	49.34
764.614	49.34
765.01	49.32
765.405	49.29
765.801	49.27
766.196	49.27
766.592	49.29
766.987	49.3
767.382	49.29
767.778	49.3
768.173	49.3
768.568	49.31
768.963	49.3
769.358	49.32
769.753	49.35
770.148	49.35
770.542	49.35
770.937	49.35
771.332	49.35
771.726	49.37
772.121	49.35
772.515	49.36
772.91	49.37
773.304	49.39
773.699	49.39
774.093	49.38
774.487	49.38
774.881	49.39
775.275	49.37
775.669	49.36
776.063	49.32
776.457	49.36
776.851	49.35
777.245	49.32
777.638	49.31
778.032	49.31
778.425	49.35
778.819	49.35
779.212	49.36
779.606	49.38
779.999	49.39
780.392	49.42
780.786	49.4
781.179	49.42
781.572	49.47
781.965	49.49
782.358	49.49
782.751	49.45
783.143	49.47
783.536	49.48
783.929	49.45
784.322	49.5
784.714	49.5
785.107	49.5
785.499	49.48
785.891	49.48
786.284	49.46
786.676	49.48
787.068	49.49
787.46	49.52
787.852	49.53
788.245	49.53
788.636	49.49
789.028	49.49
789.42	49.51
789.812	49.55
790.204	49.55
790.595	49.57
790.987	49.57
791.378	49.62
791.77	49.6
792.161	49.57
792.553	49.59
792.944	49.6
793.335	49.63
793.726	49.63
794.117	49.62
794.508	49.61
794.899	49.61
795.29	49.6
795.681	49.55
796.072	49.55
796.463	49.58
796.853	49.57
797.244	49.59
797.634	49.57
798.025	49.58
798.415	49.58
798.806	49.6
799.196	49.63
799.586	49.64
799.976	49.69
800.366	49.7
800.756	49.72
801.146	49.76
801.536	49.75
801.926	49.74
802.316	49.73
802.706	49.74
803.095	49.77
803.485	49.76
803.874	49.76
804.264	49.76
804.653	49.77
805.043	49.79
805.432	49.79
805.821	49.81
806.21	49.85
806.599	49.89
806.988	49.9
807.377	49.86
807.766	49.88
808.155	49.91
808.544	49.9
808.933	49.93
809.321	49.94
809.71	49.94
810.098	49.94
810.487	49.94
810.875	49.93
811.264	49.92
811.652	49.95
812.04	49.94
812.428	49.96
812.816	49.97
813.204	49.95
813.592	49.92
813.98	49.95
814.368	49.97
814.756	49.97
815.144	49.98
815.531	50
815.919	50
816.306	50
816.694	49.99
817.081	50
817.469	50.03
817.856	50.07
818.243	50.04
818.63	50.01
819.017	50
819.404	50
819.791	50
820.178	50.02
820.565	50
820.952	50
821.339	49.99
821.725	50
822.112	50.01
822.498	50.03
822.885	50.08
823.271	50.08
823.657	50.04
824.044	50.03
824.43	50.03
824.816	50.05
825.202	50.03
825.588	50.03
825.974	50
826.36	49.98
826.746	49.97
827.132	49.95
827.517	49.97
827.903	50.02
828.289	50.03
828.674	50.01
829.06	49.99
829.445	50
829.83	50.01
830.216	49.96
830.601	49.95
830.986	49.95
831.371	49.91
831.756	49.9
832.141	49.87
832.526	49.86
832.911	49.84
833.295	49.82
833.68	49.81
834.065	49.79
834.449	49.82
834.834	49.8
835.218	49.8
835.603	49.82
835.987	49.79
836.371	49.75
836.755	49.71
837.139	49.69
837.524	49.72
837.908	49.73
838.291	49.73
838.675	49.72
839.059	49.73
839.443	49.7
839.827	49.67
840.21	49.67
840.594	49.7
840.977	49.7
841.361	49.7
841.744	49.65
842.127	49.61
842.511	49.59
842.894	49.58
843.277	49.56
843.66	49.56
844.043	49.58
844.426	49.57
844.809	49.56
845.191	49.58
845.574	49.59
845.957	49.61
846.339	49.63
846.722	49.62
847.104	49.64
847.487	49.65
847.869	49.66
848.252	49.63
848.634	49.65
849.016	49.67
849.398	49.68
849.78	49.67
850.162	49.66
850.544	49.66
850.926	49.68
851.307	49.67
851.689	49.65
852.071	49.65
852.452	49.65
852.834	49.63
853.215	49.61
853.597	49.61
853.978	49.62
854.359	49.63
854.741	49.62
855.122	49.6
855.503	49.59
855.884	49.57
856.265	49.58
856.646	49.58
857.026	49.6
857.407	49.6
857.788	49.6
858.169	49.61
858.549	49.62
858.93	49.64
859.31	49.66
859.69	49.7
860.071	49.74
860.451	49.72
860.831	49.73
861.211	49.72
861.591	49.72
861.971	49.7
862.351	49.68
862.731	49.67
863.111	49.65
863.491	49.65
863.87	49.62
864.25	49.6
864.629	49.63
865.009	49.64
865.388	49.65
865.768	49.67
866.147	49.67
866.526	49.68
866.905	49.69
867.284	49.72
867.663	49.72
868.042	49.73
868.421	49.75
868.8	49.75
869.179	49.72
869.558	49.69
869.936	49.67
870.315	49.67
870.693	49.68
871.072	49.67
871.45	49.66
871.828	49.67
872.207	49.67
872.585	49.63
872.963	49.65
873.341	49.65
873.719	49.65
874.097	49.65
874.475	49.66
874.853	49.66
875.23	49.68
875.608	49.69
875.986	49.69
876.363	49.69
876.741	49.7
877.118	49.68
877.495	49.7
877.873	49.71
878.25	49.74
878.627	49.76
879.004	49.76
879.381	49.75
879.758	49.73
880.135	49.72
880.512	49.72
880.889	49.71
881.265	49.7
881.642	49.69
882.019	49.69
882.395	49.66
882.772	49.64
883.148	49.63
883.524	49.61
883.901	49.64
884.277	49.62
884.653	49.6
885.029	49.6
885.405	49.6
885.781	49.59
886.157	49.58
886.532	49.57
886.908	49.55
887.284	49.54
887.659	49.5
888.035	49.44
888.411	49.43
888.786	49.42
889.161	49.43
889.537	49.39
889.912	49.39
890.287	49.38
890.662	49.37
891.037	49.38
891.412	49.37
891.787	49.36
892.162	49.37
892.536	49.36
892.911	49.35
893.286	49.33
893.66	49.35
894.035	49.36
894.409	49.32
894.784	49.31
895.158	49.28
895.532	49.28
895.906	49.3
896.281	49.3
896.655	49.29
897.029	49.3
897.402	49.29
897.776	49.29
898.15	49.27
898.524	49.31
898.898	49.33
899.271	49.35
899.645	49.35
900.018	49.36
900.392	49.39
900.765	49.43
901.138	49.41
901.511	49.42
901.884	49.42
902.258	49.45
902.631	49.45
903.003	49.48
903.376	49.46
903.749	49.46
904.122	49.47
904.495	49.46
904.867	49.47
905.24	49.5
905.612	49.54
905.985	49.55
906.357	49.54
906.729	49.56
907.102	49.54
907.474	49.57
907.846	49.56
908.218	49.56
908.59	49.59
908.962	49.59
909.334	49.58
909.705	49.55
910.077	49.56
910.449	49.57
910.82	49.55
911.192	49.55
911.563	49.53
911.935	49.55
912.306	49.56
912.677	49.55
913.048	49.56
913.419	49.57
913.79	49.59
914.161	49.6
914.532	49.61
914.903	49.64
915.274	49.65
915.645	49.69
916.015	49.73
916.386	49.74
916.756	49.74
917.127	49.75
917.497	49.75
917.868	49.73
918.238	49.73
918.608	49.75
918.978	49.76
919.348	49.79
919.718	49.8
920.088	49.77
920.458	49.77
920.828	49.75
921.198	49.71
921.567	49.73
921.937	49.74
922.306	49.73
922.676	49.71
923.045	49.68
923.415	49.64
923.784	49.62
924.153	49.65
924.522	49.63
924.891	49.64
925.26	49.65
925.629	49.64
925.998	49.64
926.367	49.62
926.736	49.6
927.104	49.59
927.473	49.58
927.842	49.55
928.21	49.54
928.578	49.52
928.947	49.53
929.315	49.5
929.683	49.49
930.051	49.5
930.42	49.49
930.788	49.47
931.156	49.44
931.523	49.45
931.891	49.48
932.259	49.46
932.627	49.48
932.994	49.48
933.362	49.47
933.729	49.47
934.097	49.43
934.464	49.42
934.831	49.42
935.199	49.43
935.566	49.44
935.933	49.4
936.3	49.36
936.667	49.34
937.034	49.34
937.401	49.38
937.767	49.39
938.134	49.38
938.501	49.42
938.867	49.48
939.234	49.5
939.6	49.56
939.967	49.62
940.333	49.69
940.699	49.76
941.065	49.75
941.431	49.74
941.798	49.76
942.163	49.8
942.529	49.82
942.895	49.88
943.261	49.89
943.627	49.84
943.992	49.87
944.358	49.9
944.723	49.88
945.089	49.84
945.454	49.88
945.82	49.86
946.185	49.92
946.55	49.85
946.915	49.82
947.28	49.81
947.645	49.83
948.01	49.8
948.375	49.71
948.74	49.7
949.104	49.75
949.469	49.72
949.834	49.67
950.198	49.59
950.562	49.62
950.927	49.53
951.291	49.44
951.655	49.38
952.02	49.35
952.384	49.33
952.748	49.3
953.112	49.24
953.476	49.2
953.839	49.2
954.203	49.2
954.567	49.14
954.931	49.13
955.294	49.14
955.658	49.2
956.021	49.2
956.385	49.15
956.748	49.12
957.111	49.08
957.474	49.05
957.837	48.98
958.2	48.96
958.563	48.92
958.926	48.94
959.289	48.97
959.652	48.88
960.015	48.84
960.377	48.87
960.74	48.87
961.102	48.89
961.465	48.95
961.827	49
962.189	49
962.552	49.01
962.914	49.01
963.276	49
963.638	49.02
964	48.98
964.362	49.03
964.724	49.03
965.085	49.01
965.447	48.92
965.809	48.94
966.17	48.92
966.532	48.9
966.893	48.87
967.255	48.9
967.616	48.84
967.977	48.86
968.338	48.79
968.699	48.78
969.061	48.8
969.421	48.85
969.782	48.83
970.143	48.81
970.504	48.85
970.865	48.9
971.225	48.84
971.586	48.86
971.946	48.86
972.307	48.88
972.667	48.88
973.027	48.89
973.388	48.83
973.748	48.85
974.108	48.88
974.468	48.85
974.828	48.84
975.188	48.89
975.548	48.92
975.907	48.91
976.267	48.92
976.627	48.92
976.986	48.91
977.346	48.95
977.705	48.91
978.064	48.97
978.424	48.96
978.783	48.95
979.142	48.92
979.501	48.92
979.86	48.98
980.219	48.95
980.578	48.97
980.937	48.95
981.296	48.91
981.654	48.88
982.013	48.84
982.371	48.82
982.73	48.83
983.088	48.89
983.447	48.85
983.805	48.84
984.163	48.91
984.521	48.95
984.879	48.93
985.237	49
985.595	49.11
985.953	49.12
986.311	49.2
986.669	49.18
987.026	49.16
987.384	49.24
987.741	49.18
988.099	49.19
988.456	49.09
988.814	49.15
989.171	49.12
989.528	49.13
989.885	49.17
990.242	49.14
990.599	49.21
990.956	49.25
991.313	49.29
991.67	49.34
992.027	49.41
992.383	49.53
992.74	49.65
993.096	49.63
993.453	49.63
993.809	49.64
994.165	49.66
994.522	49.67
994.878	49.66
995.234	49.57
995.59	49.57
995.946	49.54
996.302	49.53
996.658	49.51
997.013	49.54
997.369	49.58
997.725	49.64
998.08	49.7
998.436	49.67
998.791	49.6
999.147	49.65
999.502	49.71
999.857	49.78
1000.212	49.78
1000.567	49.76
1000.922	49.89
1001.277	49.88
1001.632	49.8
1001.987	49.78
1002.342	49.78
1002.696	49.85
1003.051	49.99
1003.406	50.11
1003.76	50.06
1004.114	50.06
1004.469	50.1
1004.823	50.25
1005.177	50.21
1005.531	50.38
1005.885	50.42
1006.239	50.39
1006.593	50.57
1006.947	50.44
1007.301	50.25
1007.655	50.27
1008.008	50.39
1008.362	50.53
1008.715	50.37
1009.069	50.54
1009.422	50.47
1009.776	50.58
1010.129	50.84
1010.482	50.78
1010.835	50.96
1011.188	51.18
1011.541	51.31
1011.894	51.31
1012.247	51.25
1012.6	51.34
1012.952	51.25
1013.305	51.38
1013.657	51.42
1014.01	51.3
1014.362	51.22
1014.715	51.25
1015.067	51.3
1015.419	51.18
1015.771	51.21
1016.123	51.29
1016.475	51.21
1016.827	51.29
1017.179	51.36
1017.531	51.27
1017.883	51.37
1018.234	51.64
1018.586	51.71
1018.938	51.77
1019.289	51.67
1019.64	51.75
1019.992	51.79
1020.343	51.86
1020.694	52.02
1021.045	51.96
1021.396	52.1
1021.747	52.19
1022.098	52.25
1022.449	52.18
1022.8	52.24
1023.151	52.52
1023.501	52.56
1023.852	52.69
1024.202	52.71
1024.553	52.71
1024.903	52.62
1025.253	52.75
1025.604	52.63
1025.954	52.63
1026.304	52.84
1026.654	52.91
1027.004	52.97
1027.354	53
1027.703	52.94
1028.053	53.19
1028.403	53.28
1028.753	53.39
1029.102	53.74
1029.452	54.29
1029.801	54.64
1030.15	54.67
1030.499	54.73
897.758	1286.99
901.051	1289.4
904.343	1288.42
907.636	1309.12
910.928	1273.7
914.22	1269.84
917.511	1252.05
920.803	1197.43
924.094	1191.24
927.384	1164.13
930.675	1115.46
933.965	1108.81
937.255	1043.68
940.544	1000.8
943.834	956.01
947.123	947.22
950.411	893.72
953.7	875.53
956.988	832.09
960.276	796.91
963.563	782.64
966.851	754.76
970.138	747.34
973.424	726.08
976.711	731.15
979.997	695.98
983.283	692.58
986.568	678.73
989.853	657.6
993.138	644.24
996.423	621.8
999.708	605.68
1002.992	599.21
1006.275	574.45
1009.559	568.58
1012.842	547.45
1016.125	531.37
1019.408	521.46
1022.69	516.18
1025.972	506.37
1029.254	494.63
1032.536	486.14
1035.817	475.61
1039.098	470.7
1042.379	459.69
1045.659	455.34
1048.939	444.37
1052.219	435.38
1055.498	430.9
1058.778	420.07
1062.057	409.94
1065.335	404.68
1068.614	401.26
1071.892	397.69
1075.17	385.31
1078.447	378.74
1081.724	375.16
1085.001	371.76
1088.278	366.3
1091.554	357.76
1094.83	357.58
1098.106	355.71
1101.382	352.93
1104.657	349.47
1107.932	344.03
1111.206	345.14
1114.481	337.68
1117.755	334.47
1121.029	331.88
1124.302	330.69
1127.575	325.44
1130.848	321.77
1134.121	318.72
1137.393	317.22
1140.665	310.41
1143.937	308.53
1147.208	306.57
1150.48	305.71
1153.75	301.43
1157.021	298.1
1160.291	297.44
1163.561	293.54
1166.831	293.76
1170.101	291.43
1173.37	290.54
1176.639	291.48
1179.907	288.87
1183.176	286.03
1186.444	285.61
1189.711	285.61
1192.979	284.38
1196.246	282.85
1199.513	283.66
1202.78	282.42
1206.046	282.1
1209.312	279.4
1212.578	279.55
1215.843	281.2
1219.108	279.9
1222.373	285.2
1225.638	287.23
1228.902	291.01
1232.166	290.63
1235.43	293.17
1238.693	297.07
1241.956	298.82
1245.219	303.96
1248.482	304.29
1251.744	305.01
1255.006	304.97
1258.268	298.19
1261.529	295.53
1264.79	293.97
1268.051	292.72
1271.312	289.08
1274.572	284.45
1277.832	282.74
1281.092	277.24
1284.351	275.32
1287.61	274.99
1290.869	270.69
1294.128	269.08
1297.386	269.43
1300.644	265.92
1303.902	267.37
1307.159	266.59
1310.416	266.82
1313.673	265.91
1316.93	268.86
1320.186	268.02
1323.442	269.15
1326.697	274.25
1329.953	275.1
1333.208	275.77
1336.463	279.3
1339.717	279.35
1342.972	282.4
1346.226	285.14
1349.479	285.64
1352.733	287.14
1355.986	289.14
1359.238	288.47
1362.491	289.88
1365.743	292.15
1368.995	292.19
1372.247	291.41
1375.498	291.52
1378.749	294.03
1382	290.24
1385.251	291.36
1388.501	289.8
1391.751	290.93
1395	289.26
1398.25	287.25
1401.499	284.99
1404.748	284.83
1407.996	282.51
1411.244	281.01
1414.492	278.73
1417.74	275.8
1420.987	271.99
1424.234	271.91
1427.481	267.78
1430.728	267.96
1433.974	264.94
1437.22	264.16
1440.465	262.55
1443.711	260.37
1446.956	259.35
1450.201	255.35
1453.445	254.5
1456.689	253.08
1459.933	248.82
1463.177	247.23
1466.42	244.21
1469.663	241.62
1472.906	239.56
1476.148	233.9
1479.391	231.3
1482.633	228.91
1485.874	226.97
1489.115	224.96
1492.356	222.69
1495.597	221.9
1498.838	218.92
1502.078	217.01
1505.318	216.06
1508.557	215.78
1511.797	216.18
1515.036	214.27
1518.274	213.69
1521.513	211.47
1524.751	211.62
1527.989	211.28
1531.227	210.22
1534.464	210.82
1537.701	209.66
1540.938	208.86
1544.174	206.39
1547.41	206.73
1550.646	206.29
1553.882	206.2
1557.117	203.86
1560.352	202.62
1563.587	201.89
1566.821	200.73
1570.055	199.19
1573.289	197.78
1576.523	197.73
1579.756	196.24
1582.989	194.33
1586.222	194.45
1589.454	193.59
1592.686	194.77
1595.918	193.52
1599.15	192.93
1602.381	193.21
1605.612	192.72
1608.843	193.45
1612.073	193.13
1615.303	194.45
1618.533	195.24
1621.762	194.04
1624.992	194.77
1628.221	194.77
1631.449	194.87
1634.678	194.57
1637.906	195.6
1641.134	195.67
1644.361	195.08
1647.588	196.01
1650.815	195.13
1654.042	194
1657.269	195.87
1660.495	195.12
1663.72	194.45
1666.946	195.18
1670.171	195.67
1673.396	194.99
1676.621	195.24
1679.845	195.41
1683.069	195.61
1686.293	196.55
1689.517	197.84
1692.74	197.34
1695.963	198.35
1699.185	200.51
1702.408	200.33
1705.63	200.87
1708.852	201.89
1712.073	201.97
1715.294	202.82
1718.515	203.48
1721.736	203.61
1724.956	204.11
1728.176	204.09
1731.396	205.56
1734.616	204.25
1737.835	205.35
1741.054	203.61
1744.272	204.17
1747.491	205.68
1750.709	206.39
1753.927	206.1
1757.144	205.53
1760.361	205.91
1763.578	206.56
1766.795	205.8
1770.011	207.82
1773.227	207.85
1776.443	210.79
1779.658	211.48
1782.874	210.62
1786.089	210.96
1789.303	211.78
1792.518	214.43
1795.732	213.96
1798.945	215.73
1802.159	216.29
1805.372	216.2
1808.585	219.66
1811.797	219.61
1815.01	220.26
1818.222	222.52
1821.434	224.82
1824.645	225.03
1827.856	228.3
1831.067	230.86
1834.278	230.31
1837.488	231.46
1840.698	233.39
1843.908	231.14
1847.117	232.72
1850.326	234.1
1853.535	233.51
1856.744	235.7
1859.952	235.63
1863.16	233.89
1866.368	231.75
1869.575	233.61
1872.782	230.24
1875.989	229.46
1879.196	228.37
1882.402	226.99
1885.608	226.31
1888.814	225.98
1892.019	224.81
1895.224	223.94
1898.429	223.9
1901.634	224.85
1904.838	224.64
1908.042	226.49
1911.246	227.36
1914.449	228.42
1917.652	228.76
1920.855	228.89
1924.058	228.61
1927.26	227.55
1930.462	228.72
1933.664	229.93
1936.865	228.03
1940.066	228.43
1943.267	227.25
1946.467	227.19
1949.668	228.05
1952.868	230.9
1956.067	231.42
1959.267	231.89
1962.466	232.95
1965.665	230.98
1968.863	232.35
1972.061	235.43
1975.259	237.88
1978.457	239.95
1981.654	241.14
1984.852	242.44
1988.048	240.92
1991.245	243.6
1994.441	246.46
1997.637	247.84
2000.833	253.48
2004.028	256.4
2007.223	259.24
2010.418	260.87
2013.613	265.53
2016.807	268.8
2020.001	271.22
2023.194	275.56
2026.388	281.77
2029.581	288.02
2032.774	290.51
2035.966	295.9
2039.158	296.55
2042.35	301.23
2045.542	303.15
2048.733	308.24
2051.924	311.62
2055.115	316.26
2058.306	317.24
2061.496	319.39
2064.686	319.73
2067.875	325.62
2071.065	326.85
2074.254	324.68
2077.442	329.37
2080.631	331.06
2083.819	333.86
2087.007	335.47
2090.195	339.07
2093.382	342.61
2096.569	340.68
2099.756	345.53
2102.942	347.04
2106.128	349.8
2109.314	358.97
2112.5	356.52
2115.685	364.98
2118.87	365.16
2122.055	371.67
2125.239	374.22
2128.424	377.72
2131.608	381.89
2134.791	386.54
2137.974	388.52
2141.157	389.56
2144.34	389.39
2147.523	397.53
2150.705	393.62
2153.887	397.07
2157.068	397.78
2160.25	394.86
2163.431	396.5
2166.611	399.55
2169.792	407.13
2172.972	411.79
2176.152	414.55
2179.331	420.18
2182.511	425.35
2185.69	429.97
2188.868	438.42
2192.047	439.12
2195.225	451.73
2198.403	462.14
2201.58	470.99
2204.758	480.97
2207.935	490.2
2211.111	498.97
2214.288	503.6
2217.464	504.4
2220.64	513.43
2223.815	520.28
2226.991	542.49
2230.166	543.41
2233.34	552.74
2236.515	561.78
2239.689	560.77
2242.863	563.33
2246.036	580.07
2249.209	575.56
2252.382	587.23
2255.555	603.54
2258.727	605.96
2261.9	609.86
2265.071	615.45
2268.243	624.95
2271.414	632.55
2274.585	646.32
2277.756	652.9
2280.926	655.64
2284.096	672.35
2287.266	683.97
2290.436	688.89
2293.605	702.69
2296.774	720.31
2299.942	744.52
2303.111	749.82
2306.279	764.83
2309.447	775.85
2312.614	794.99
2315.781	816.77
2318.948	856.19
2322.115	842.43
2325.281	891.33
2328.447	874.07
2331.613	909.02
2334.779	897.69
2337.944	935.61
2341.109	943.45
2344.274	966.56
2347.438	1001.17
2350.602	1006.36
2353.766	1031.02
2356.929	1048.54
2360.092	1039.98
2363.255	1116.34
2366.418	1114.24
2369.58	1135.29
2372.742	1204.7
2375.904	1236.52
2379.066	1231.12
2382.227	1205.21
2385.388	1302.07
2388.548	1306.61
2391.709	1323.9
2394.869	1473.31
2398.029	1408.6
2401.188	1451.51
2404.347	1440.62
2407.506	1418.07
2410.665	1456.24
2413.823	1548.1
2416.981	1640.67
2420.139	1589.41
2423.296	1569.07
2426.453	1638.13
2429.61	1573.41
2432.767	1648.84
2435.923	1631.21
2439.079	1790.66
2442.235	1813.69
2445.391	1800.88
2448.546	1777.6
2451.701	1732.08
2454.855	1729.3
2458.009	1838.81
2461.163	1907.98
2464.317	1976.84
2467.471	2025.31
2470.624	2027.61
2473.777	1972.81
2476.929	1920.79
2480.082	1860.77
2483.234	1846.77
2486.385	1929.64
2489.537	1939.77
2492.688	2008.98
2495.839	1956.63
2498.989	1917.59
2502.14	1923.28
2505.29	1941.65
2508.439	1963.76
2511.589	1961.16
2514.738	2141.43
2517.887	2097.82
2521.035	2216.16
2524.183	2235.59
2527.331	2248.38
2530.479	2237.5
2533.627	2248.54
