Data from C_3_HIR_WI_4N_Splice17_14-02-07-055.txt Node
Date: Sat Mar 07 14:02:07 EST 2020
User: sa697716
Spectrometer: NQ5500242
Trigger mode: 0
Integration Time (sec): 1.450000E-1
Scans to average: 20
Nonlinearity correction enabled: false
Boxcar width: 5
Storing dark spectrum: false
XAxis mode: Wavelengths
Number of Pixels in Spectrum: 512
>>>>>Begin Spectral Data<<<<<
187.83	134.47
188.298	149.15
188.766	151.89
189.233	126.54
189.701	130.24
190.169	151.3
190.636	168
191.104	104.14
191.571	42.68
192.039	12.48
192.506	89.46
192.974	90.01
193.441	127.26
193.908	120.02
194.375	94.52
194.842	69.22
195.31	116.33
195.777	137.69
196.244	37.14
196.711	47.22
197.177	47.66
197.644	48.06
198.111	47.59
198.578	48.39
199.045	48.57
199.511	48.03
199.978	48.12
200.445	48.16
200.911	48.55
201.378	48.66
201.844	48.62
202.31	48.49
202.777	48.59
203.243	48.45
203.709	47.71
204.176	47.35
204.642	47.4
205.108	46.94
205.574	46.84
206.04	45.94
206.506	45.22
206.972	44.98
207.438	44.51
207.903	43.83
208.369	42.9
208.835	42.18
209.301	41.27
209.766	39.82
210.232	38.74
210.697	37.37
211.163	36.42
211.628	35.64
212.094	34.42
212.559	33.46
213.024	32.33
213.49	31.64
213.955	30.64
214.42	29.55
214.885	28.6
215.35	27.48
215.815	25.89
216.28	23.94
216.745	21.72
217.21	19.57
217.675	17.56
218.14	15.86
218.604	14.37
219.069	13.1
219.534	12.06
219.998	11.17
220.463	10.39
220.927	9.73
221.392	9.21
221.856	8.78
222.32	8.41
222.785	8.08
223.249	7.8
223.713	7.51
224.177	7.3
224.642	7.09
225.106	6.88
225.57	6.69
226.034	6.53
226.497	6.41
226.961	6.26
227.425	6.13
227.889	6.03
228.353	5.92
228.816	5.81
229.28	5.7
229.744	5.61
230.207	5.53
230.671	5.44
231.134	5.35
231.597	5.27
232.061	5.19
232.524	5.11
232.987	5.02
233.45	4.96
233.914	4.89
234.377	4.84
234.84	4.77
235.303	4.72
235.766	4.68
236.229	4.63
236.691	4.58
237.154	4.53
237.617	4.49
238.08	4.45
238.542	4.4
239.005	4.37
239.468	4.33
239.93	4.3
240.393	4.26
240.855	4.21
241.317	4.16
241.78	4.12
242.242	4.07
242.704	4.05
243.166	4
243.629	3.97
244.091	3.93
244.553	3.88
245.015	3.84
245.477	3.79
245.939	3.76
246.4	3.73
246.862	3.7
247.324	3.69
247.786	3.65
248.247	3.63
248.709	3.58
249.17	3.55
249.632	3.53
250.093	3.51
250.555	3.49
251.016	3.47
251.477	3.45
251.939	3.42
252.4	3.39
252.861	3.36
253.322	3.35
253.783	3.33
254.244	3.31
254.705	3.29
255.166	3.26
255.627	3.24
256.088	3.23
256.549	3.2
257.009	3.18
257.47	3.16
257.931	3.13
258.391	3.1
258.852	3.07
259.312	3.05
259.773	3.03
260.233	3.01
260.694	2.99
261.154	2.96
261.614	2.94
262.074	2.91
262.534	2.89
262.994	2.88
263.455	2.86
263.915	2.85
264.374	2.83
264.834	2.81
265.294	2.8
265.754	2.79
266.214	2.78
266.673	2.76
267.133	2.76
267.593	2.75
268.052	2.74
268.512	2.73
268.971	2.72
269.431	2.7
269.89	2.7
270.349	2.7
270.809	2.68
271.268	2.67
271.727	2.67
272.186	2.65
272.645	2.64
273.104	2.64
273.563	2.63
274.022	2.63
274.481	2.63
274.94	2.62
275.399	2.62
275.857	2.62
276.316	2.61
276.775	2.61
277.233	2.61
277.692	2.61
278.15	2.61
278.609	2.6
279.067	2.6
279.525	2.6
279.984	2.59
280.442	2.59
280.9	2.59
281.358	2.59
281.816	2.59
282.274	2.59
282.732	2.59
283.19	2.58
283.648	2.58
284.106	2.58
284.564	2.57
285.021	2.57
285.479	2.56
285.937	2.56
286.394	2.55
286.852	2.54
287.309	2.54
287.767	2.53
288.224	2.52
288.682	2.52
289.139	2.5
289.596	2.5
290.053	2.48
290.511	2.47
290.968	2.46
291.425	2.45
291.882	2.44
292.339	2.43
292.796	2.43
293.252	2.42
293.709	2.41
294.166	2.41
294.623	2.41
295.079	2.41
295.536	2.41
295.992	2.4
296.449	2.4
296.905	2.4
297.362	2.39
297.818	2.38
298.274	2.38
298.731	2.37
299.187	2.36
299.643	2.35
300.099	2.35
300.555	2.34
301.011	2.33
301.467	2.33
301.923	2.32
302.379	2.33
302.835	2.33
303.291	2.33
303.746	2.33
304.202	2.33
304.658	2.33
305.113	2.33
305.569	2.34
306.024	2.34
306.479	2.33
306.935	2.33
307.39	2.33
307.845	2.33
308.301	2.33
308.756	2.33
309.211	2.33
309.666	2.34
310.121	2.35
310.576	2.34
311.031	2.35
311.486	2.36
311.94	2.37
312.395	2.37
312.85	2.37
313.305	2.37
313.759	2.38
314.214	2.38
314.668	2.37
315.123	2.36
315.577	2.35
316.032	2.35
316.486	2.34
316.94	2.34
317.394	2.32
317.849	2.32
318.303	2.31
318.757	2.3
319.211	2.29
319.665	2.29
320.119	2.28
320.572	2.28
321.026	2.28
321.48	2.27
321.934	2.27
322.387	2.26
322.841	2.26
323.295	2.26
323.748	2.26
324.202	2.26
324.655	2.26
325.108	2.26
325.562	2.26
326.015	2.27
326.468	2.26
326.921	2.26
327.374	2.26
327.827	2.26
328.28	2.26
328.733	2.26
329.186	2.25
329.639	2.25
330.092	2.24
330.545	2.24
330.997	2.23
331.45	2.24
331.903	2.24
332.355	2.25
332.808	2.26
333.26	2.26
333.713	2.26
334.165	2.27
334.617	2.27
335.069	2.27
335.522	2.27
335.974	2.28
336.426	2.28
336.878	2.27
337.33	2.27
337.782	2.26
338.234	2.27
338.686	2.27
339.137	2.28
339.589	2.27
340.041	2.27
340.493	2.26
340.944	2.25
341.396	2.25
341.847	2.24
342.299	2.24
342.75	2.23
343.201	2.22
343.653	2.21
344.104	2.19
344.555	2.18
345.006	2.18
345.457	2.18
345.908	2.17
346.359	2.17
346.81	2.17
347.261	2.17
347.712	2.16
348.163	2.15
348.613	2.15
349.064	2.15
349.515	2.16
349.965	2.15
350.416	2.15
350.866	2.15
351.317	2.14
351.767	2.14
352.217	2.14
352.668	2.14
353.118	2.13
353.568	2.13
354.018	2.13
354.468	2.13
354.918	2.13
355.368	2.14
355.818	2.14
356.268	2.16
356.718	2.16
357.168	2.15
357.617	2.16
358.067	2.16
358.517	2.17
358.966	2.18
359.416	2.18
359.865	2.18
360.315	2.19
360.764	2.19
361.213	2.19
361.663	2.2
362.112	2.22
362.561	2.22
363.01	2.23
363.459	2.22
363.908	2.22
364.357	2.23
364.806	2.23
365.255	2.24
365.703	2.26
366.152	2.27
366.601	2.28
367.05	2.28
367.498	2.29
367.947	2.31
368.395	2.33
368.844	2.35
369.292	2.35
369.74	2.37
370.189	2.38
370.637	2.38
371.085	2.39
371.533	2.39
371.981	2.4
372.429	2.41
372.877	2.42
373.325	2.43
373.773	2.44
374.221	2.44
374.669	2.46
375.116	2.46
375.564	2.47
376.012	2.49
376.459	2.51
376.907	2.54
377.354	2.56
377.801	2.58
378.249	2.6
378.696	2.62
379.143	2.64
379.591	2.66
380.038	2.68
380.485	2.71
380.932	2.73
381.379	2.75
381.826	2.77
382.273	2.78
382.72	2.8
383.166	2.82
383.613	2.84
384.06	2.84
384.506	2.86
384.953	2.88
385.4	2.89
385.846	2.92
386.292	2.94
386.739	2.96
387.185	2.98
387.631	3
388.078	3.01
388.524	3.04
388.97	3.07
389.416	3.09
389.862	3.11
390.308	3.16
390.754	3.18
391.2	3.21
391.645	3.22
392.091	3.25
392.537	3.28
392.983	3.3
393.428	3.32
393.874	3.35
394.319	3.38
394.765	3.4
395.21	3.4
395.655	3.42
396.101	3.45
396.546	3.47
396.991	3.49
397.436	3.52
397.881	3.56
398.326	3.58
398.771	3.6
399.216	3.62
399.661	3.65
400.106	3.67
400.551	3.69
400.995	3.7
401.44	3.71
401.885	3.72
402.329	3.74
402.774	3.75
403.218	3.78
403.663	3.79
404.107	3.81
404.551	3.81
404.995	3.81
405.44	3.82
405.884	3.83
406.328	3.85
406.772	3.84
407.216	3.86
407.66	3.86
408.104	3.85
408.547	3.86
408.991	3.87
409.435	3.88
409.879	3.9
410.322	3.92
410.766	3.95
411.209	3.96
411.653	3.99
412.096	4
412.54	4.02
412.983	4.04
413.426	4.06
413.869	4.08
414.312	4.12
414.756	4.13
415.199	4.13
415.642	4.14
416.085	4.14
416.527	4.14
416.97	4.14
417.413	4.14
417.856	4.14
418.298	4.13
418.741	4.12
419.184	4.11
419.626	4.11
420.069	4.12
420.511	4.11
420.953	4.13
421.396	4.14
421.838	4.13
422.28	4.15
422.722	4.18
423.164	4.18
423.606	4.19
424.048	4.2
424.49	4.2
424.932	4.2
425.374	4.17
425.816	4.14
426.258	4.11
426.699	4.1
427.141	4.07
427.582	4.07
428.024	4.08
428.465	4.09
428.907	4.09
429.348	4.08
429.789	4.07
430.231	4.1
430.672	4.15
431.113	4.19
431.554	4.22
431.995	4.25
432.436	4.26
432.877	4.27
433.318	4.29
433.759	4.31
434.2	4.34
434.64	4.38
435.081	4.4
435.522	4.41
435.962	4.42
436.403	4.45
436.843	4.46
437.284	4.45
437.724	4.47
438.164	4.47
438.604	4.49
439.045	4.51
439.485	4.52
439.925	4.53
440.365	4.55
440.805	4.56
441.245	4.57
441.685	4.59
442.125	4.64
442.564	4.66
443.004	4.67
443.444	4.68
443.883	4.68
444.323	4.7
444.762	4.71
445.202	4.72
445.641	4.75
446.081	4.78
446.52	4.78
446.959	4.81
447.398	4.83
447.837	4.84
448.276	4.85
448.716	4.88
449.154	4.89
449.593	4.93
450.032	4.94
450.471	4.94
450.91	4.93
451.349	4.95
451.787	4.94
452.226	4.93
452.664	4.94
453.103	4.94
453.541	4.93
453.98	4.93
454.418	4.9
454.856	4.89
455.295	4.88
455.733	4.85
456.171	4.83
456.609	4.83
457.047	4.81
457.485	4.79
457.923	4.79
458.361	4.78
458.798	4.77
459.236	4.76
459.674	4.75
460.111	4.76
460.549	4.77
460.987	4.78
461.424	4.78
461.862	4.8
462.299	4.81
462.736	4.8
463.173	4.81
463.611	4.81
464.048	4.83
464.485	4.84
464.922	4.85
465.359	4.86
465.796	4.87
466.233	4.87
466.67	4.88
467.106	4.89
467.543	4.91
467.98	4.92
468.416	4.93
468.853	4.94
469.29	4.95
469.726	4.96
470.162	4.97
470.599	4.98
471.035	4.98
471.471	4.99
471.907	4.99
472.344	4.99
472.78	5
473.216	5.01
473.652	5
474.088	4.99
474.523	5
474.959	5
475.395	5
475.831	5
476.266	5
476.702	4.98
477.138	4.99
477.573	4.98
478.008	4.97
478.444	4.96
478.879	4.96
479.314	4.94
479.75	4.93
480.185	4.91
480.62	4.9
481.055	4.88
481.49	4.86
481.925	4.83
482.36	4.8
482.795	4.79
483.229	4.78
483.664	4.77
484.099	4.75
484.534	4.74
484.968	4.75
485.403	4.75
485.837	4.76
486.271	4.78
486.706	4.8
487.14	4.81
487.574	4.83
488.009	4.84
488.443	4.87
488.877	4.89
489.311	4.92
489.745	4.94
490.179	4.97
490.613	5.02
491.046	5.04
491.48	5.08
491.914	5.12
492.348	5.16
492.781	5.21
493.215	5.26
493.648	5.31
494.082	5.35
494.515	5.4
494.948	5.46
495.382	5.5
495.815	5.57
496.248	5.62
496.681	5.68
497.114	5.74
497.547	5.81
497.98	5.88
498.413	5.95
498.846	6.03
499.279	6.11
499.711	6.19
500.144	6.29
500.577	6.38
501.009	6.49
501.442	6.6
501.874	6.72
502.306	6.84
502.739	6.97
503.171	7.09
503.603	7.22
504.036	7.35
504.468	7.49
504.9	7.61
505.332	7.76
505.764	7.9
506.196	8.05
506.627	8.21
507.059	8.37
507.491	8.54
507.923	8.71
508.354	8.9
508.786	9.09
509.217	9.27
509.649	9.46
510.08	9.66
510.512	9.85
510.943	10.05
511.374	10.25
511.805	10.45
512.237	10.64
512.668	10.84
513.099	11.04
513.53	11.23
513.961	11.44
514.391	11.66
514.822	11.88
515.253	12.12
515.684	12.34
516.114	12.57
516.545	12.81
516.975	13.06
517.406	13.32
517.836	13.56
518.267	13.82
518.697	14.06
519.127	14.29
519.558	14.52
519.988	14.75
520.418	14.98
520.848	15.2
521.278	15.42
521.708	15.76
522.138	15.96
522.567	16.15
522.997	16.33
523.427	16.51
523.857	16.7
524.286	16.89
524.716	17.08
525.145	17.25
525.575	17.42
526.004	17.59
526.433	17.62
526.863	17.79
527.292	17.95
527.721	18.09
528.15	18.22
528.579	18.36
529.008	18.47
529.437	18.57
529.866	18.67
530.295	18.79
530.724	18.89
531.152	18.98
531.581	19.07
532.01	19.17
532.438	19.25
532.867	19.34
533.295	19.4
533.723	19.48
534.152	19.53
534.58	19.6
535.008	19.62
535.436	19.66
535.865	19.69
536.293	19.71
536.721	19.73
537.149	19.75
537.576	19.8
538.004	19.83
538.432	19.86
538.86	19.89
539.287	19.91
539.715	19.95
540.143	19.99
540.57	20.04
540.998	20.08
541.425	20.12
541.852	20.16
542.28	20.19
542.707	20.21
543.134	20.24
543.561	20.27
543.988	20.31
544.415	20.34
544.842	20.36
545.269	20.37
545.696	20.42
546.123	20.45
546.549	20.48
546.976	20.51
547.403	20.53
547.829	20.56
548.256	20.58
548.682	20.6
549.108	20.63
549.535	20.67
549.961	20.69
550.387	20.69
550.813	20.69
551.24	20.7
551.666	20.71
552.092	20.7
552.518	20.69
552.943	20.68
553.369	20.67
553.795	20.64
554.221	20.61
554.646	20.57
555.072	20.55
555.498	20.5
555.923	20.46
556.349	20.4
556.774	20.37
557.199	20.32
557.625	20.25
558.05	20.19
558.475	20.12
558.9	20.07
559.325	20.01
559.75	19.95
560.175	19.88
560.6	19.81
561.025	19.73
561.449	19.63
561.874	19.53
562.299	19.45
562.723	19.35
563.148	19.24
563.572	19.12
563.997	19.01
564.421	18.88
564.846	18.76
565.27	18.63
565.694	18.52
566.118	18.38
566.542	18.28
566.966	18.15
567.39	18.03
567.814	17.89
568.238	17.77
568.662	17.64
569.086	17.51
569.509	17.39
569.933	17.27
570.357	17.15
570.78	17.05
571.204	16.93
571.627	16.8
572.05	16.69
572.474	16.6
572.897	16.48
573.32	16.39
573.743	16.3
574.166	16.19
574.589	16.09
575.012	15.99
575.435	15.89
575.858	15.81
576.281	15.73
576.704	15.66
577.126	15.58
577.549	15.51
577.972	15.43
578.394	15.35
578.817	15.29
579.239	15.24
579.661	15.17
580.084	15.12
580.506	15.07
580.928	15.01
581.35	14.94
581.772	14.89
582.194	14.84
582.616	14.78
583.038	14.72
583.46	14.66
583.882	14.59
584.303	14.53
584.725	14.46
585.147	14.4
585.568	14.34
585.99	14.29
586.411	14.22
586.833	14.17
587.254	14.12
587.675	14.06
588.096	14.01
588.518	13.96
588.939	13.93
589.36	13.88
589.781	13.85
590.202	13.82
590.623	13.78
591.043	13.74
591.464	13.72
591.885	13.66
592.305	13.64
592.726	13.62
593.147	13.6
593.567	13.57
593.987	13.53
594.408	13.49
594.828	13.46
595.248	13.43
595.669	13.41
596.089	13.38
596.509	13.36
596.929	13.33
597.349	13.29
597.769	13.25
598.189	13.22
598.608	13.21
599.028	13.19
599.448	13.16
599.867	13.13
600.287	13.09
600.706	13.05
601.126	13.01
601.545	12.98
601.965	12.94
602.384	12.9
602.803	12.86
603.222	12.82
603.641	12.77
604.061	12.72
604.48	12.66
604.898	12.61
605.317	12.55
605.736	12.49
606.155	12.42
606.574	12.37
606.992	12.3
607.411	12.23
607.829	12.13
608.248	12.05
608.666	11.98
609.085	11.91
609.503	11.85
609.921	11.78
610.339	11.72
610.758	11.66
611.176	11.59
611.594	11.52
612.012	11.45
612.43	11.4
612.847	11.33
613.265	11.27
613.683	11.22
614.101	11.16
614.518	11.1
614.936	11.04
615.353	10.97
615.771	10.92
616.188	10.87
616.606	10.83
617.023	10.79
617.44	10.76
617.857	10.71
618.274	10.66
618.691	10.61
619.108	10.56
619.525	10.51
619.942	10.47
620.359	10.43
620.776	10.39
621.192	10.36
621.609	10.33
622.026	10.3
622.442	10.28
622.859	10.25
623.275	10.24
623.691	10.23
624.108	10.21
624.524	10.2
624.94	10.19
625.356	10.18
625.772	10.15
626.188	10.14
626.604	10.12
627.02	10.11
627.436	10.1
627.852	10.09
628.268	10.07
628.683	10.06
629.099	10.06
629.514	10.04
629.93	10.03
630.345	10.02
630.761	9.98
631.176	9.96
631.591	9.94
632.007	9.9
632.422	9.87
632.837	9.83
633.252	9.77
633.667	9.72
634.082	9.66
634.497	9.6
634.911	9.54
635.326	9.49
635.741	9.42
636.155	9.36
636.57	9.29
636.984	9.22
637.399	9.14
637.813	9.07
638.228	8.98
638.642	8.9
639.056	8.81
639.47	8.72
639.884	8.63
640.298	8.53
640.712	8.44
641.126	8.34
641.54	8.24
641.954	8.15
642.368	8.06
642.781	7.96
643.195	7.87
643.609	7.79
644.022	7.71
644.436	7.63
644.849	7.55
645.262	7.47
645.676	7.4
646.089	7.33
646.502	7.27
646.915	7.21
647.328	7.16
647.741	7.11
648.154	7.06
648.567	7.01
648.98	6.96
649.393	6.93
649.805	6.9
650.218	6.86
650.631	6.83
651.043	6.78
651.456	6.75
651.868	6.7
652.28	6.66
652.693	6.61
653.105	6.57
653.517	6.53
653.929	6.49
654.341	6.43
654.753	6.39
655.165	6.33
655.577	6.29
655.989	6.23
656.401	6.17
656.813	6.12
657.224	6.06
657.636	6
658.047	5.93
658.459	5.86
658.87	5.79
659.282	5.71
659.693	5.65
660.104	5.57
660.515	5.5
660.926	5.43
661.338	5.36
661.749	5.3
662.159	5.23
662.57	5.18
662.981	5.12
663.392	5.06
663.803	5.01
664.213	4.94
664.624	4.89
665.035	4.84
665.445	4.81
665.855	4.77
666.266	4.73
666.676	4.7
667.086	4.66
667.497	4.64
667.907	4.62
668.317	4.6
668.727	4.58
669.137	4.56
669.547	4.54
669.956	4.53
670.366	4.52
670.776	4.51
671.186	4.5
671.595	4.49
672.005	4.49
672.414	4.48
672.824	4.48
673.233	4.5
673.642	4.52
674.052	4.52
674.461	4.53
674.87	4.54
675.279	4.55
675.688	4.57
676.097	4.6
676.506	4.61
676.915	4.64
677.323	4.67
677.732	4.7
678.141	4.72
678.549	4.76
678.958	4.8
679.366	4.85
679.775	4.9
680.183	4.95
680.592	5.02
681	5.09
681.408	5.17
681.816	5.26
682.224	5.35
682.632	5.45
683.04	5.55
683.448	5.67
683.856	5.79
684.264	5.94
684.671	6.1
685.079	6.26
685.487	6.46
685.894	6.67
686.302	6.9
686.709	7.14
687.116	7.41
687.524	7.71
687.931	8.02
688.338	8.34
688.745	8.68
689.152	9.04
689.559	9.42
689.966	9.8
690.373	10.19
690.78	10.58
691.187	10.99
691.593	11.42
692	11.85
692.407	12.27
692.813	12.7
693.22	13.14
693.626	13.56
694.032	13.99
694.439	14.43
694.845	14.88
695.251	15.31
695.657	15.73
696.063	16.15
696.469	16.56
696.875	16.99
697.281	17.39
697.687	17.79
698.093	18.2
698.498	18.58
698.904	18.97
699.31	19.34
699.715	19.73
700.12	20.09
700.526	20.47
700.931	20.82
701.337	21.17
701.742	21.52
702.147	21.85
702.552	22.19
702.957	22.5
703.362	22.83
703.767	23.12
704.172	23.42
704.577	23.73
704.981	24.02
705.386	24.3
705.791	24.58
706.195	24.87
706.6	25.14
707.004	25.4
707.408	25.69
707.813	25.96
708.217	26.21
708.621	26.47
709.025	26.71
709.43	26.93
709.834	27.18
710.237	27.42
710.641	27.65
711.045	27.88
711.449	28.11
711.853	28.33
712.256	28.52
712.66	28.73
713.064	28.92
713.467	29.11
713.87	29.3
714.274	29.48
714.677	29.63
715.08	29.77
715.484	29.94
715.887	30.12
716.29	30.27
716.693	30.44
717.096	30.63
717.499	30.83
717.901	31.03
718.304	31.21
718.707	31.38
719.109	31.55
719.512	31.74
719.915	31.91
720.317	32.06
720.719	32.18
721.122	32.32
721.524	32.43
721.926	32.54
722.328	32.65
722.731	32.76
723.133	32.9
723.535	33.03
723.937	33.12
724.338	33.23
724.74	33.34
725.142	33.54
725.544	33.62
725.945	33.75
726.347	33.82
726.748	33.9
727.15	33.99
727.551	34.08
727.952	34.15
728.354	34.26
728.755	34.34
729.156	34.39
729.557	34.38
729.958	34.47
730.359	34.52
730.76	34.62
731.161	34.68
731.562	34.76
731.962	34.77
732.363	34.86
732.763	34.91
733.164	34.98
733.564	35.05
733.965	35.12
734.365	35.17
734.766	35.19
735.166	35.24
735.566	35.28
735.966	35.31
736.366	35.38
736.766	35.4
737.166	35.44
737.566	35.47
737.966	35.5
738.365	35.52
738.765	35.55
739.165	35.61
739.564	35.65
739.964	35.67
740.363	35.69
740.763	35.71
741.162	35.72
741.561	35.72
741.96	35.73
742.36	35.74
742.759	35.76
743.158	35.78
743.557	35.78
743.955	35.8
744.354	35.82
744.753	35.84
745.152	35.87
745.55	35.89
745.949	35.9
746.348	35.94
746.746	35.96
747.144	35.96
747.543	35.97
747.941	35.98
748.339	35.99
748.737	36.02
749.136	36.03
749.534	36.03
749.932	36.03
750.33	36.06
750.727	36.06
751.125	36.04
751.523	36.06
751.921	36.07
752.318	36.07
752.716	36.06
753.113	36.06
753.511	36.07
753.908	36.08
754.305	36.08
754.703	36.03
755.1	35.99
755.497	35.91
755.894	35.81
756.291	35.69
756.688	35.55
757.085	35.45
757.482	35.34
757.878	35.23
758.275	35.12
758.672	35.03
759.068	34.97
759.465	34.91
759.861	34.89
760.258	34.9
760.654	34.94
761.05	35.01
761.447	35.06
761.843	35.1
762.239	35.15
762.635	35.21
763.031	35.27
763.427	35.31
763.822	35.39
764.218	35.46
764.614	35.55
765.01	35.59
765.405	35.63
765.801	35.66
766.196	35.71
766.592	35.74
766.987	35.76
767.382	35.78
767.778	35.8
768.173	35.82
768.568	35.83
768.963	35.82
769.358	35.85
769.753	35.86
770.148	35.86
770.542	35.86
770.937	35.88
771.332	35.9
771.726	35.9
772.121	35.89
772.515	35.85
772.91	35.84
773.304	35.85
773.699	35.82
774.093	35.82
774.487	35.81
774.881	35.83
775.275	35.79
775.669	35.74
776.063	35.75
776.457	35.75
776.851	35.75
777.245	35.74
777.638	35.73
778.032	35.75
778.425	35.78
778.819	35.78
779.212	35.77
779.606	35.79
779.999	35.81
780.392	35.81
780.786	35.81
781.179	35.84
781.572	35.85
781.965	35.86
782.358	35.84
782.751	35.81
783.143	35.81
783.536	35.8
783.929	35.79
784.322	35.8
784.714	35.8
785.107	35.8
785.499	35.77
785.891	35.77
786.284	35.79
786.676	35.78
787.068	35.77
787.46	35.78
787.852	35.78
788.245	35.79
788.636	35.77
789.028	35.77
789.42	35.75
789.812	35.76
790.204	35.75
790.595	35.75
790.987	35.73
791.378	35.74
791.77	35.74
792.161	35.72
792.553	35.71
792.944	35.7
793.335	35.68
793.726	35.69
794.117	35.67
794.508	35.64
794.899	35.6
795.29	35.61
795.681	35.59
796.072	35.59
796.463	35.61
796.853	35.61
797.244	35.61
797.634	35.6
798.025	35.62
798.415	35.65
798.806	35.65
799.196	35.66
799.586	35.66
799.976	35.67
800.366	35.64
800.756	35.62
801.146	35.64
801.536	35.64
801.926	35.62
802.316	35.61
802.706	35.62
803.095	35.64
803.485	35.64
803.874	35.64
804.264	35.66
804.653	35.65
805.043	35.67
805.432	35.66
805.821	35.67
806.21	35.69
806.599	35.69
806.988	35.69
807.377	35.7
807.766	35.68
808.155	35.65
808.544	35.63
808.933	35.63
809.321	35.63
809.71	35.64
810.098	35.62
810.487	35.6
810.875	35.59
811.264	35.57
811.652	35.54
812.04	35.51
812.428	35.56
812.816	35.53
813.204	35.52
813.592	35.47
813.98	35.45
814.368	35.45
814.756	35.42
815.144	35.4
815.531	35.37
815.919	35.37
816.306	35.39
816.694	35.38
817.081	35.39
817.469	35.39
817.856	35.39
818.243	35.38
818.63	35.36
819.017	35.36
819.404	35.35
819.791	35.35
820.178	35.34
820.565	35.33
820.952	35.31
821.339	35.29
821.725	35.3
822.112	35.31
822.498	35.31
822.885	35.32
823.271	35.33
823.657	35.31
824.044	35.31
824.43	35.33
824.816	35.33
825.202	35.34
825.588	35.31
825.974	35.28
826.36	35.25
826.746	35.24
827.132	35.22
827.517	35.2
827.903	35.21
828.289	35.22
828.674	35.2
829.06	35.17
829.445	35.15
829.83	35.14
830.216	35.14
830.601	35.14
830.986	35.13
831.371	35.11
831.756	35.11
832.141	35.09
832.526	35.07
832.911	35.05
833.295	35.05
833.68	35.05
834.065	35.04
834.449	35.04
834.834	35.02
835.218	35
835.603	35
835.987	35
836.371	34.99
836.755	34.94
837.139	34.93
837.524	34.94
837.908	34.95
838.291	34.97
838.675	34.96
839.059	34.96
839.443	34.95
839.827	34.94
840.21	34.91
840.594	34.91
840.977	34.93
841.361	34.92
841.744	34.89
842.127	34.86
842.511	34.84
842.894	34.83
843.277	34.82
843.66	34.81
844.043	34.82
844.426	34.85
844.809	34.86
845.191	34.87
845.574	34.88
845.957	34.88
846.339	34.9
846.722	34.89
847.104	34.89
847.487	34.89
847.869	34.88
848.252	34.87
848.634	34.86
849.016	34.84
849.398	34.84
849.78	34.82
850.162	34.82
850.544	34.8
850.926	34.82
851.307	34.82
851.689	34.82
852.071	34.83
852.452	34.82
852.834	34.84
853.215	34.84
853.597	34.83
853.978	34.84
854.359	34.83
854.741	34.84
855.122	34.81
855.503	34.79
855.884	34.79
856.265	34.81
856.646	34.8
857.026	34.8
857.407	34.82
857.788	34.82
858.169	34.82
858.549	34.83
858.93	34.85
859.31	34.86
859.69	34.9
860.071	34.91
860.451	34.91
860.831	34.91
861.211	34.88
861.591	34.86
861.971	34.85
862.351	34.85
862.731	34.84
863.111	34.83
863.491	34.82
863.87	34.78
864.25	34.76
864.629	34.74
865.009	34.74
865.388	34.75
865.768	34.75
866.147	34.76
866.526	34.76
866.905	34.76
867.284	34.76
867.663	34.75
868.042	34.77
868.421	34.78
868.8	34.78
869.179	34.77
869.558	34.76
869.936	34.75
870.315	34.75
870.693	34.73
871.072	34.74
871.45	34.74
871.828	34.76
872.207	34.76
872.585	34.75
872.963	34.75
873.341	34.74
873.719	34.75
874.097	34.77
874.475	34.77
874.853	34.79
875.23	34.8
875.608	34.79
875.986	34.78
876.363	34.78
876.741	34.8
877.118	34.82
877.495	34.83
877.873	34.82
878.25	34.83
878.627	34.85
879.004	34.85
879.381	34.84
879.758	34.83
880.135	34.84
880.512	34.82
880.889	34.81
881.265	34.79
881.642	34.8
882.019	34.8
882.395	34.78
882.772	34.77
883.148	34.74
883.524	34.74
883.901	34.73
884.277	34.69
884.653	34.67
885.029	34.65
885.405	34.66
885.781	34.66
886.157	34.65
886.532	34.66
886.908	34.64
887.284	34.64
887.659	34.61
888.035	34.58
888.411	34.59
888.786	34.59
889.161	34.6
889.537	34.59
889.912	34.6
890.287	34.59
890.662	34.57
891.037	34.56
891.412	34.56
891.787	34.55
892.162	34.56
892.536	34.55
892.911	34.54
893.286	34.53
893.66	34.52
894.035	34.49
894.409	34.48
894.784	34.46
895.158	34.46
895.532	34.46
895.906	34.46
896.281	34.45
896.655	34.45
897.029	34.46
897.402	34.46
897.776	34.46
898.15	34.47
898.524	34.48
898.898	34.47
899.271	34.46
899.645	34.49
900.018	34.5
900.392	34.51
900.765	34.5
901.138	34.5
901.511	34.48
901.884	34.49
902.258	34.47
902.631	34.47
903.003	34.5
903.376	34.52
903.749	34.49
904.122	34.5
904.495	34.51
904.867	34.54
905.24	34.57
905.612	34.59
905.985	34.58
906.357	34.58
906.729	34.61
907.102	34.58
907.474	34.58
907.846	34.59
908.218	34.58
908.59	34.58
908.962	34.57
909.334	34.54
909.705	34.55
910.077	34.57
910.449	34.55
910.82	34.54
911.192	34.57
911.563	34.53
911.935	34.53
912.306	34.55
912.677	34.58
913.048	34.59
913.419	34.58
913.79	34.56
914.161	34.56
914.532	34.59
914.903	34.59
915.274	34.59
915.645	34.65
916.015	34.66
916.386	34.67
916.756	34.65
917.127	34.66
917.497	34.67
917.868	34.68
918.238	34.69
918.608	34.68
918.978	34.68
919.348	34.7
919.718	34.67
920.088	34.68
920.458	34.68
920.828	34.65
921.198	34.6
921.567	34.61
921.937	34.63
922.306	34.63
922.676	34.63
923.045	34.63
923.415	34.59
923.784	34.58
924.153	34.58
924.522	34.58
924.891	34.61
925.26	34.64
925.629	34.62
925.998	34.61
926.367	34.62
926.736	34.61
927.104	34.59
927.473	34.6
927.842	34.59
928.21	34.59
928.578	34.57
928.947	34.58
929.315	34.59
929.683	34.6
930.051	34.6
930.42	34.56
930.788	34.53
931.156	34.53
931.523	34.53
931.891	34.57
932.259	34.53
932.627	34.53
932.994	34.48
933.362	34.45
933.729	34.45
934.097	34.45
934.464	34.49
934.831	34.5
935.199	34.51
935.566	34.48
935.933	34.49
936.3	34.49
936.667	34.47
937.034	34.52
937.401	34.54
937.767	34.53
938.134	34.54
938.501	34.54
938.867	34.58
939.234	34.57
939.6	34.64
939.967	34.62
940.333	34.63
940.699	34.7
941.065	34.63
941.431	34.68
941.798	34.69
942.163	34.69
942.529	34.7
942.895	34.7
943.261	34.72
943.627	34.7
943.992	34.74
944.358	34.82
944.723	34.84
945.089	34.83
945.454	34.81
945.82	34.78
946.185	34.8
946.55	34.78
946.915	34.79
947.28	34.79
947.645	34.8
948.01	34.8
948.375	34.71
948.74	34.68
949.104	34.72
949.469	34.7
949.834	34.7
950.198	34.66
950.562	34.64
950.927	34.58
951.291	34.55
951.655	34.5
952.02	34.43
952.384	34.43
952.748	34.4
953.112	34.38
953.476	34.33
953.839	34.29
954.203	34.33
954.567	34.3
954.931	34.27
955.294	34.26
955.658	34.29
956.021	34.25
956.385	34.24
956.748	34.23
957.111	34.21
957.474	34.18
957.837	34.12
958.2	34.05
958.563	34.07
958.926	34.1
959.289	34.11
959.652	34.09
960.015	34.13
960.377	34.12
960.74	34.11
961.102	34.11
961.465	34.13
961.827	34.25
962.189	34.27
962.552	34.28
962.914	34.27
963.276	34.28
963.638	34.3
964	34.26
964.362	34.29
964.724	34.28
965.085	34.28
965.447	34.29
965.809	34.25
966.17	34.22
966.532	34.21
966.893	34.22
967.255	34.14
967.616	34.12
967.977	34.14
968.338	34.1
968.699	34.12
969.061	34.06
969.421	34.1
969.782	34.11
970.143	34.14
970.504	34.17
970.865	34.15
971.225	34.15
971.586	34.13
971.946	34.13
972.307	34.12
972.667	34.11
973.027	34.17
973.388	34.13
973.748	34.11
974.108	34.11
974.468	34.05
974.828	34.12
975.188	34.15
975.548	34.18
975.907	34.17
976.267	34.23
976.627	34.25
976.986	34.2
977.346	34.15
977.705	34.13
978.064	34.1
978.424	34.1
978.783	33.99
979.142	33.98
979.501	34
979.86	34.04
980.219	33.99
980.578	33.97
980.937	34
981.296	34.06
981.654	34.06
982.013	34.1
982.371	34.12
982.73	34.21
983.088	34.26
983.447	34.2
983.805	34.17
984.163	34.2
984.521	34.25
984.879	34.21
985.237	34.2
985.595	34.29
985.953	34.27
986.311	34.28
986.669	34.29
987.026	34.21
987.384	34.25
987.741	34.3
988.099	34.36
988.456	34.33
988.814	34.39
989.171	34.45
989.528	34.44
989.885	34.46
990.242	34.45
990.599	34.51
990.956	34.51
991.313	34.56
991.67	34.58
992.027	34.68
992.383	34.79
992.74	34.93
993.096	34.86
993.453	34.86
993.809	34.87
994.165	34.95
994.522	34.9
994.878	34.93
995.234	34.89
995.59	34.88
995.946	34.82
996.302	34.81
996.658	34.7
997.013	34.79
997.369	34.83
997.725	34.79
998.08	34.82
998.436	34.8
998.791	34.94
999.147	35
999.502	35.04
999.857	35.02
1000.212	34.94
1000.567	34.99
1000.922	34.93
1001.277	34.85
1001.632	34.89
1001.987	34.94
1002.342	34.93
1002.696	34.86
1003.051	34.95
1003.406	35
1003.76	35
1004.114	34.98
1004.469	35.02
1004.823	35.32
1005.177	35.34
1005.531	35.47
1005.885	35.48
1006.239	35.55
1006.593	35.73
1006.947	35.59
1007.301	35.51
1007.655	35.55
1008.008	35.66
1008.362	35.71
1008.715	35.52
1009.069	35.78
1009.422	35.74
1009.776	35.74
1010.129	35.79
1010.482	35.65
1010.835	35.82
1011.188	36.07
1011.541	36.1
1011.894	36.26
1012.247	36.16
1012.6	36.37
1012.952	36.21
1013.305	36.35
1013.657	36.54
1014.01	36.7
1014.362	36.9
1014.715	36.94
1015.067	36.76
1015.419	36.9
1015.771	36.78
1016.123	36.83
1016.475	36.64
1016.827	36.68
1017.179	36.71
1017.531	36.61
1017.883	36.45
1018.234	36.51
1018.586	36.5
1018.938	36.8
1019.289	36.76
1019.64	36.84
1019.992	36.97
1020.343	37.06
1020.694	37.17
1021.045	37
1021.396	37.01
1021.747	37.32
1022.098	37.49
1022.449	37.53
1022.8	37.43
1023.151	37.33
1023.501	37.47
1023.852	37.5
1024.202	37.8
1024.553	37.75
1024.903	38.15
1025.253	38.33
1025.604	38.28
1025.954	37.91
1026.304	38.07
1026.654	37.93
1027.004	38.11
1027.354	38.17
1027.703	38.33
1028.053	38.18
1028.403	38.31
1028.753	37.95
1029.102	37.76
1029.452	37.58
1029.801	37.68
1030.15	37.51
1030.499	37.6
897.758	1361
901.051	1361.77
904.343	1363.86
907.636	1384.63
910.928	1346.69
914.22	1343.82
917.511	1321.51
920.803	1267
924.094	1260.7
927.384	1229.22
930.675	1176.71
933.965	1168.07
937.255	1103.23
940.544	1054.22
943.834	1006.35
947.123	997.14
950.411	938.75
953.7	921.07
956.988	874.42
960.276	837.63
963.563	824.15
966.851	794.62
970.138	787.6
973.424	761.88
976.711	768.92
979.997	727.46
983.283	725.35
986.568	711.31
989.853	688.85
993.138	675.72
996.423	652
999.708	635.07
1002.992	628.38
1006.275	600.08
1009.559	595.07
1012.842	573.17
1016.125	559.65
1019.408	548.51
1022.69	540.91
1025.972	530.99
1029.254	518.21
1032.536	509.14
1035.817	498.02
1039.098	492.32
1042.379	481.45
1045.659	476.62
1048.939	464.14
1052.219	454.94
1055.498	448.86
1058.778	438.83
1062.057	427.8
1065.335	422.09
1068.614	417.15
1071.892	413.28
1075.17	400.25
1078.447	394.51
1081.724	390.24
1085.001	387.61
1088.278	380.84
1091.554	372.22
1094.83	372.54
1098.106	370.93
1101.382	367.82
1104.657	364.67
1107.932	358.4
1111.206	361.01
1114.481	351.23
1117.755	348.87
1121.029	345.72
1124.302	345.24
1127.575	339.43
1130.848	335.33
1134.121	331.77
1137.393	330.17
1140.665	324.48
1143.937	322.19
1147.208	319.49
1150.48	319.91
1153.75	315.06
1157.021	310.36
1160.291	310.35
1163.561	307.01
1166.831	306.64
1170.101	304.59
1173.37	302.94
1176.639	303.42
1179.907	300.71
1183.176	297.17
1186.444	296.4
1189.711	296.94
1192.979	295.51
1196.246	293.89
1199.513	295.6
1202.78	293.12
1206.046	292.99
1209.312	291.56
1212.578	291.72
1215.843	294
1219.108	292.65
1222.373	298.25
1225.638	299.89
1228.902	305.17
1232.166	304.45
1235.43	305.95
1238.693	311.19
1241.956	312.24
1245.219	316.95
1248.482	316.51
1251.744	316.76
1255.006	318.05
1258.268	309.71
1261.529	306.68
1264.79	305.08
1268.051	303.75
1271.312	299.86
1274.572	295.66
1277.832	293.37
1281.092	288.23
1284.351	286.38
1287.61	286.05
1290.869	281.36
1294.128	280.58
1297.386	281.15
1300.644	277.26
1303.902	278.82
1307.159	277.68
1310.416	277.98
1313.673	277.37
1316.93	279.99
1320.186	280.17
1323.442	281.08
1326.697	285.67
1329.953	286.41
1333.208	286.89
1336.463	291.47
1339.717	290.96
1342.972	294.48
1346.226	296.84
1349.479	297.64
1352.733	299.44
1355.986	300.83
1359.238	300.54
1362.491	302.52
1365.743	305.45
1368.995	305.4
1372.247	303.07
1375.498	303.17
1378.749	305.98
1382	303
1385.251	304.01
1388.501	302.08
1391.751	303.54
1395	302.01
1398.25	299.48
1401.499	297.71
1404.748	297.5
1407.996	295.36
1411.244	294.04
1414.492	292.02
1417.74	289.09
1420.987	284.61
1424.234	284.53
1427.481	280.11
1430.728	279.98
1433.974	276.89
1437.22	274.84
1440.465	273.77
1443.711	271.72
1446.956	270.44
1450.201	266.74
1453.445	264.14
1456.689	262.98
1459.933	258.6
1463.177	256.4
1466.42	252.98
1469.663	250.76
1472.906	249
1476.148	241.89
1479.391	239.6
1482.633	237.37
1485.874	235.2
1489.115	233.86
1492.356	231.23
1495.597	230.49
1498.838	227.42
1502.078	225.78
1505.318	224.51
1508.557	224.41
1511.797	225.51
1515.036	223.33
1518.274	222.72
1521.513	220.27
1524.751	219.96
1527.989	219.98
1531.227	218.67
1534.464	219.55
1537.701	218.13
1540.938	217.55
1544.174	214.86
1547.41	214.16
1550.646	213.89
1553.882	213.38
1557.117	211.02
1560.352	210.26
1563.587	209.15
1566.821	208.12
1570.055	205.76
1573.289	204.97
1576.523	204.29
1579.756	203.04
1582.989	202.11
1586.222	201.62
1589.454	201.27
1592.686	202.96
1595.918	201.24
1599.15	200.78
1602.381	200.98
1605.612	201.18
1608.843	201.03
1612.073	201.69
1615.303	202.5
1618.533	202.63
1621.762	202.07
1624.992	202.31
1628.221	201.6
1631.449	201.86
1634.678	201.53
1637.906	202.57
1641.134	202.19
1644.361	202.01
1647.588	202.35
1650.815	201.72
1654.042	200.98
1657.269	202.53
1660.495	201.78
1663.72	201.01
1666.946	201.95
1670.171	202.6
1673.396	202.16
1676.621	202.61
1679.845	202.59
1683.069	202.18
1686.293	203.38
1689.517	204.57
1692.74	204.21
1695.963	205.11
1699.185	207.38
1702.408	207.09
1705.63	207.89
1708.852	208.62
1712.073	208.91
1715.294	209.51
1718.515	211.08
1721.736	210.66
1724.956	211.1
1728.176	210.82
1731.396	212.97
1734.616	211.86
1737.835	212.98
1741.054	211.07
1744.272	211.58
1747.491	213.46
1750.709	214.01
1753.927	213.77
1757.144	213.04
1760.361	214.14
1763.578	214.81
1766.795	213.51
1770.011	215.5
1773.227	215.52
1776.443	218.64
1779.658	219.71
1782.874	218.15
1786.089	219.38
1789.303	219.86
1792.518	223.26
1795.732	222.1
1798.945	224.52
1802.159	224.69
1805.372	224.52
1808.585	228.3
1811.797	228.65
1815.01	228.62
1818.222	231.5
1821.434	233.25
1824.645	234
1827.856	237.22
1831.067	240.01
1834.278	238.7
1837.488	240.72
1840.698	242.48
1843.908	240.07
1847.117	241.69
1850.326	243.63
1853.535	242.22
1856.744	244.87
1859.952	244.99
1863.16	243.19
1866.368	241.53
1869.575	244.24
1872.782	239.98
1875.989	238.72
1879.196	238
1882.402	235.42
1885.608	236.08
1888.814	236.66
1892.019	235.27
1895.224	233.82
1898.429	232.76
1901.634	233.98
1904.838	233.45
1908.042	236.02
1911.246	237.29
1914.449	238.1
1917.652	238.51
1920.855	237.54
1924.058	238.06
1927.26	237.11
1930.462	238.01
1933.664	240.68
1936.865	238.84
1940.066	238.81
1943.267	236.94
1946.467	237.62
1949.668	238.9
1952.868	242.14
1956.067	242.49
1959.267	241.85
1962.466	242.74
1965.665	241.27
1968.863	242.01
1972.061	245.06
1975.259	247.34
1978.457	249.99
1981.654	250.72
1984.852	251.77
1988.048	250.82
1991.245	253.19
1994.441	256.51
1997.637	258.39
2000.833	263.97
2004.028	267.89
2007.223	269.19
2010.418	271.95
2013.613	276.46
2016.807	280.45
2020.001	282.91
2023.194	286.79
2026.388	293.55
2029.581	299.75
2032.774	301.83
2035.966	307.3
2039.158	307.1
2042.35	313.46
2045.542	315.44
2048.733	319.83
2051.924	323.67
2055.115	327.87
2058.306	329.31
2061.496	331.73
2064.686	333.8
2067.875	339.31
2071.065	341.1
2074.254	339.53
2077.442	344.41
2080.631	345.5
2083.819	349.78
2087.007	348.08
2090.195	353.35
2093.382	356.92
2096.569	355.12
2099.756	359.52
2102.942	361.45
2106.128	364.45
2109.314	373.57
2112.5	371.15
2115.685	380.03
2118.87	380.2
2122.055	390.93
2125.239	392.61
2128.424	396.23
2131.608	399.31
2134.791	403.65
2137.974	405.26
2141.157	407.25
2144.34	407.08
2147.523	413.77
2150.705	410.58
2153.887	413.29
2157.068	413.14
2160.25	410.24
2163.431	412.1
2166.611	416.72
2169.792	425.21
2172.972	429.9
2176.152	431.01
2179.331	437.53
2182.511	443.87
2185.69	449.14
2188.868	458.68
2192.047	459.72
2195.225	472.97
2198.403	485.42
2201.58	493.07
2204.758	503.08
2207.935	512.21
2211.111	524.48
2214.288	529.03
2217.464	530.49
2220.64	537.71
2223.815	545.32
2226.991	568.09
2230.166	569.04
2233.34	578.5
2236.515	588.85
2239.689	586.7
2242.863	591
2246.036	607.28
2249.209	600.73
2252.382	611.85
2255.555	629.3
2258.727	632.03
2261.9	635.83
2265.071	642.01
2268.243	651.4
2271.414	658.38
2274.585	673.78
2277.756	680.8
2280.926	683.5
2284.096	703.52
2287.266	717.73
2290.436	723.43
2293.605	740.25
2296.774	760.67
2299.942	783.62
2303.111	789.09
2306.279	805.53
2309.447	818.53
2312.614	840.6
2315.781	862.41
2318.948	900.95
2322.115	886.31
2325.281	936.56
2328.447	914.99
2331.613	954.39
2334.779	944.12
2337.944	983.71
2341.109	994.69
2344.274	1018.09
2347.438	1052.22
2350.602	1055.16
2353.766	1083.8
2356.929	1102.7
2360.092	1094.73
2363.255	1177.15
2366.418	1170.26
2369.58	1190.74
2372.742	1269.81
2375.904	1301.74
2379.066	1295.47
2382.227	1269.2
2385.388	1374.45
2388.548	1378.19
2391.709	1394.14
2394.869	1553.13
2398.029	1484.48
2401.188	1525.86
2404.347	1525.71
2407.506	1494.03
2410.665	1532.34
2413.823	1626.79
2416.981	1723.89
2420.139	1668.72
2423.296	1647.5
2426.453	1724.76
2429.61	1662.8
2432.767	1737.89
2435.923	1721.07
2439.079	1876.02
2442.235	1900.05
2445.391	1889.06
2448.546	1867.96
2451.701	1820.84
2454.855	1819.27
2458.009	1939.52
2461.163	2010.94
2464.317	2073.05
2467.471	2131.94
2470.624	2130.24
2473.777	2076.07
2476.929	2021.89
2480.082	1960.98
2483.234	1945.14
2486.385	2029.96
2489.537	2041.46
2492.688	2111.99
2495.839	2053.18
2498.989	2016.24
2502.14	2021.74
2505.29	2046.44
2508.439	2073.52
2511.589	2071.37
2514.738	2260.98
2517.887	2206.77
2521.035	2341.18
2524.183	2356.58
2527.331	2373.6
2530.479	2364.06
2533.627	2375.5
