Data from C_3_DEC_OH_4N_Splice17_14-21-16-041.txt Node
Date: Sat Mar 07 14:21:16 EST 2020
User: sa697716
Spectrometer: NQ5500242
Trigger mode: 0
Integration Time (sec): 1.450000E-1
Scans to average: 20
Nonlinearity correction enabled: false
Boxcar width: 5
Storing dark spectrum: false
XAxis mode: Wavelengths
Number of Pixels in Spectrum: 512
>>>>>Begin Spectral Data<<<<<
187.83	202.87
188.298	227.53
188.766	208.8
189.233	177.76
189.701	186.49
190.169	227.24
190.636	269.8
191.104	371.93
191.571	276.74
192.039	119.97
192.506	141.04
192.974	135.6
193.441	212.32
193.908	108.18
194.375	112.38
194.842	89.95
195.31	98.28
195.777	35.19
196.244	65.86
196.711	72.56
197.177	75.56
197.644	76.48
198.111	76.38
198.578	76.85
199.045	77.87
199.511	77.52
199.978	77.52
200.445	78.13
200.911	78.62
201.378	78.5
201.844	78.24
202.31	77.82
202.777	77.48
203.243	77.34
203.709	76.89
204.176	75.85
204.642	75.57
205.108	75.13
205.574	74.53
206.04	73.47
206.506	72.92
206.972	72.63
207.438	71.6
207.903	70.51
208.369	68.73
208.835	67.09
209.301	65.5
209.766	63.32
210.232	61.42
210.697	59.56
211.163	58.07
211.628	56.57
212.094	54.84
212.559	53.47
213.024	52.16
213.49	51
213.955	49.87
214.42	48.48
214.885	47
215.35	45.07
215.815	42.28
216.28	39.03
216.745	35.41
217.21	31.87
217.675	28.62
218.14	25.79
218.604	23.27
219.069	21.13
219.534	19.38
219.998	17.92
220.463	16.73
220.927	15.73
221.392	14.92
221.856	14.24
222.32	13.68
222.785	13.16
223.249	12.68
223.713	12.28
224.177	11.95
224.642	11.63
225.106	11.29
225.57	10.98
226.034	10.73
226.497	10.47
226.961	10.23
227.425	10
227.889	9.81
228.353	9.63
228.816	9.43
229.28	9.23
229.744	9.07
230.207	8.93
230.671	8.78
231.134	8.65
231.597	8.53
232.061	8.39
232.524	8.26
232.987	8.12
233.45	8.02
233.914	7.92
234.377	7.82
234.84	7.72
235.303	7.63
235.766	7.54
236.229	7.45
236.691	7.37
237.154	7.3
237.617	7.25
238.08	7.18
238.542	7.1
239.005	7.05
239.468	6.99
239.93	6.93
240.393	6.87
240.855	6.79
241.317	6.74
241.78	6.67
242.242	6.6
242.704	6.54
243.166	6.47
243.629	6.41
244.091	6.36
244.553	6.3
245.015	6.23
245.477	6.17
245.939	6.12
246.4	6.07
246.862	6.02
247.324	5.97
247.786	5.91
248.247	5.86
248.709	5.81
249.17	5.75
249.632	5.72
250.093	5.68
250.555	5.64
251.016	5.61
251.477	5.57
251.939	5.54
252.4	5.51
252.861	5.48
253.322	5.46
253.783	5.43
254.244	5.41
254.705	5.36
255.166	5.33
255.627	5.3
256.088	5.28
256.549	5.25
257.009	5.22
257.47	5.18
257.931	5.14
258.391	5.1
258.852	5.05
259.312	5.03
259.773	5
260.233	4.96
260.694	4.93
261.154	4.89
261.614	4.86
262.074	4.82
262.534	4.8
262.994	4.78
263.455	4.76
263.915	4.73
264.374	4.7
264.834	4.68
265.294	4.65
265.754	4.64
266.214	4.63
266.673	4.6
267.133	4.59
267.593	4.58
268.052	4.57
268.512	4.55
268.971	4.54
269.431	4.53
269.89	4.52
270.349	4.51
270.809	4.5
271.268	4.49
271.727	4.48
272.186	4.47
272.645	4.47
273.104	4.45
273.563	4.44
274.022	4.44
274.481	4.44
274.94	4.43
275.399	4.41
275.857	4.4
276.316	4.4
276.775	4.39
277.233	4.39
277.692	4.38
278.15	4.37
278.609	4.35
279.067	4.35
279.525	4.34
279.984	4.33
280.442	4.33
280.9	4.33
281.358	4.33
281.816	4.33
282.274	4.32
282.732	4.32
283.19	4.32
283.648	4.32
284.106	4.31
284.564	4.31
285.021	4.31
285.479	4.3
285.937	4.3
286.394	4.29
286.852	4.28
287.309	4.27
287.767	4.26
288.224	4.25
288.682	4.23
289.139	4.22
289.596	4.2
290.053	4.18
290.511	4.16
290.968	4.14
291.425	4.12
291.882	4.11
292.339	4.1
292.796	4.08
293.252	4.07
293.709	4.06
294.166	4.05
294.623	4.03
295.079	4.02
295.536	4.01
295.992	4
296.449	3.99
296.905	3.98
297.362	3.97
297.818	3.97
298.274	3.96
298.731	3.94
299.187	3.93
299.643	3.92
300.099	3.91
300.555	3.91
301.011	3.9
301.467	3.9
301.923	3.88
302.379	3.88
302.835	3.88
303.291	3.88
303.746	3.88
304.202	3.89
304.658	3.89
305.113	3.89
305.569	3.89
306.024	3.89
306.479	3.88
306.935	3.88
307.39	3.88
307.845	3.88
308.301	3.88
308.756	3.88
309.211	3.88
309.666	3.89
310.121	3.89
310.576	3.89
311.031	3.89
311.486	3.9
311.94	3.91
312.395	3.91
312.85	3.92
313.305	3.92
313.759	3.93
314.214	3.93
314.668	3.92
315.123	3.92
315.577	3.92
316.032	3.91
316.486	3.9
316.94	3.89
317.394	3.87
317.849	3.86
318.303	3.84
318.757	3.82
319.211	3.81
319.665	3.8
320.119	3.79
320.572	3.79
321.026	3.77
321.48	3.77
321.934	3.76
322.387	3.75
322.841	3.75
323.295	3.75
323.748	3.75
324.202	3.74
324.655	3.74
325.108	3.73
325.562	3.73
326.015	3.73
326.468	3.73
326.921	3.72
327.374	3.72
327.827	3.71
328.28	3.71
328.733	3.72
329.186	3.71
329.639	3.71
330.092	3.72
330.545	3.72
330.997	3.72
331.45	3.73
331.903	3.74
332.355	3.76
332.808	3.77
333.26	3.77
333.713	3.77
334.165	3.79
334.617	3.8
335.069	3.81
335.522	3.81
335.974	3.82
336.426	3.82
336.878	3.81
337.33	3.81
337.782	3.81
338.234	3.81
338.686	3.81
339.137	3.81
339.589	3.8
340.041	3.8
340.493	3.79
340.944	3.78
341.396	3.77
341.847	3.76
342.299	3.75
342.75	3.73
343.201	3.72
343.653	3.71
344.104	3.69
344.555	3.68
345.006	3.67
345.457	3.66
345.908	3.65
346.359	3.64
346.81	3.64
347.261	3.63
347.712	3.62
348.163	3.61
348.613	3.61
349.064	3.61
349.515	3.62
349.965	3.62
350.416	3.61
350.866	3.62
351.317	3.62
351.767	3.62
352.217	3.62
352.668	3.62
353.118	3.63
353.568	3.63
354.018	3.63
354.468	3.64
354.918	3.64
355.368	3.65
355.818	3.65
356.268	3.65
356.718	3.65
357.168	3.65
357.617	3.65
358.067	3.65
358.517	3.67
358.966	3.67
359.416	3.67
359.865	3.67
360.315	3.67
360.764	3.67
361.213	3.67
361.663	3.67
362.112	3.68
362.561	3.69
363.01	3.68
363.459	3.67
363.908	3.67
364.357	3.68
364.806	3.66
365.255	3.67
365.703	3.67
366.152	3.68
366.601	3.69
367.05	3.69
367.498	3.68
367.947	3.69
368.395	3.7
368.844	3.71
369.292	3.7
369.74	3.71
370.189	3.71
370.637	3.7
371.085	3.7
371.533	3.7
371.981	3.7
372.429	3.71
372.877	3.71
373.325	3.7
373.773	3.7
374.221	3.7
374.669	3.7
375.116	3.7
375.564	3.7
376.012	3.7
376.459	3.71
376.907	3.72
377.354	3.73
377.801	3.74
378.249	3.76
378.696	3.77
379.143	3.78
379.591	3.79
380.038	3.81
380.485	3.82
380.932	3.83
381.379	3.84
381.826	3.85
382.273	3.86
382.72	3.85
383.166	3.86
383.613	3.87
384.06	3.87
384.506	3.88
384.953	3.88
385.4	3.89
385.846	3.9
386.292	3.91
386.739	3.93
387.185	3.95
387.631	3.97
388.078	3.99
388.524	3.99
388.97	4.02
389.416	4.05
389.862	4.07
390.308	4.1
390.754	4.12
391.2	4.15
391.645	4.16
392.091	4.17
392.537	4.2
392.983	4.22
393.428	4.26
393.874	4.27
394.319	4.28
394.765	4.29
395.21	4.3
395.655	4.31
396.101	4.33
396.546	4.36
396.991	4.39
397.436	4.4
397.881	4.43
398.326	4.45
398.771	4.48
399.216	4.52
399.661	4.56
400.106	4.59
400.551	4.6
400.995	4.61
401.44	4.62
401.885	4.63
402.329	4.64
402.774	4.65
403.218	4.67
403.663	4.68
404.107	4.69
404.551	4.69
404.995	4.7
405.44	4.71
405.884	4.73
406.328	4.74
406.772	4.74
407.216	4.76
407.66	4.77
408.104	4.76
408.547	4.76
408.991	4.77
409.435	4.78
409.879	4.77
410.322	4.79
410.766	4.8
411.209	4.82
411.653	4.85
412.096	4.86
412.54	4.87
412.983	4.88
413.426	4.91
413.869	4.92
414.312	4.95
414.756	4.98
415.199	4.99
415.642	5
416.085	5.01
416.527	5.01
416.97	5.01
417.413	5.01
417.856	5
418.298	4.99
418.741	4.99
419.184	4.98
419.626	4.98
420.069	4.99
420.511	4.99
420.953	4.99
421.396	4.98
421.838	5
422.28	5.02
422.722	5.05
423.164	5.06
423.606	5.07
424.048	5.08
424.49	5.09
424.932	5.08
425.374	5.07
425.816	5.06
426.258	5.04
426.699	5.02
427.141	5
427.582	4.99
428.024	5
428.465	5.01
428.907	5.01
429.348	4.99
429.789	4.98
430.231	4.99
430.672	5
431.113	5.04
431.554	5.06
431.995	5.08
432.436	5.08
432.877	5.07
433.318	5.07
433.759	5.08
434.2	5.1
434.64	5.12
435.081	5.13
435.522	5.15
435.962	5.17
436.403	5.2
436.843	5.21
437.284	5.22
437.724	5.24
438.164	5.24
438.604	5.25
439.045	5.26
439.485	5.26
439.925	5.26
440.365	5.26
440.805	5.27
441.245	5.27
441.685	5.29
442.125	5.3
442.564	5.31
443.004	5.31
443.444	5.32
443.883	5.33
444.323	5.31
444.762	5.33
445.202	5.33
445.641	5.33
446.081	5.34
446.52	5.33
446.959	5.35
447.398	5.36
447.837	5.37
448.276	5.37
448.716	5.39
449.154	5.43
449.593	5.45
450.032	5.45
450.471	5.44
450.91	5.43
451.349	5.44
451.787	5.42
452.226	5.42
452.664	5.41
453.103	5.4
453.541	5.39
453.98	5.39
454.418	5.35
454.856	5.34
455.295	5.32
455.733	5.29
456.171	5.27
456.609	5.26
457.047	5.22
457.485	5.2
457.923	5.19
458.361	5.17
458.798	5.15
459.236	5.15
459.674	5.13
460.111	5.12
460.549	5.14
460.987	5.14
461.424	5.14
461.862	5.15
462.299	5.16
462.736	5.16
463.173	5.18
463.611	5.19
464.048	5.19
464.485	5.21
464.922	5.21
465.359	5.21
465.796	5.22
466.233	5.22
466.67	5.22
467.106	5.23
467.543	5.23
467.98	5.22
468.416	5.21
468.853	5.21
469.29	5.2
469.726	5.2
470.162	5.2
470.599	5.21
471.035	5.21
471.471	5.2
471.907	5.2
472.344	5.21
472.78	5.21
473.216	5.21
473.652	5.22
474.088	5.2
474.523	5.21
474.959	5.21
475.395	5.19
475.831	5.18
476.266	5.18
476.702	5.17
477.138	5.16
477.573	5.15
478.008	5.14
478.444	5.11
478.879	5.12
479.314	5.1
479.75	5.1
480.185	5.08
480.62	5.06
481.055	5.04
481.49	5.04
481.925	5.02
482.36	5.01
482.795	5
483.229	4.99
483.664	4.99
484.099	4.99
484.534	4.98
484.968	4.99
485.403	5
485.837	5.01
486.271	5.02
486.706	5.03
487.14	5.04
487.574	5.06
488.009	5.08
488.443	5.09
488.877	5.11
489.311	5.13
489.745	5.15
490.179	5.18
490.613	5.21
491.046	5.23
491.48	5.27
491.914	5.3
492.348	5.33
492.781	5.37
493.215	5.42
493.648	5.47
494.082	5.51
494.515	5.55
494.948	5.59
495.382	5.64
495.815	5.69
496.248	5.76
496.681	5.82
497.114	5.88
497.547	5.95
497.98	6.01
498.413	6.08
498.846	6.16
499.279	6.25
499.711	6.34
500.144	6.43
500.577	6.52
501.009	6.62
501.442	6.73
501.874	6.85
502.306	6.94
502.739	7.07
503.171	7.19
503.603	7.31
504.036	7.44
504.468	7.58
504.9	7.71
505.332	7.85
505.764	7.99
506.196	8.14
506.627	8.29
507.059	8.46
507.491	8.62
507.923	8.8
508.354	8.98
508.786	9.17
509.217	9.35
509.649	9.54
510.08	9.74
510.512	9.94
510.943	10.14
511.374	10.36
511.805	10.58
512.237	10.79
512.668	11.01
513.099	11.25
513.53	11.47
513.961	11.71
514.391	11.94
514.822	12.19
515.253	12.43
515.684	12.67
516.114	12.91
516.545	13.15
516.975	13.4
517.406	13.63
517.836	13.88
518.267	14.12
518.697	14.35
519.127	14.58
519.558	14.83
519.988	15.06
520.418	15.28
520.848	15.5
521.278	15.73
521.708	16.05
522.138	16.28
522.567	16.48
522.997	16.68
523.427	16.9
523.857	17.09
524.286	17.27
524.716	17.46
525.145	17.64
525.575	17.83
526.004	18
526.433	18.07
526.863	18.23
527.292	18.4
527.721	18.55
528.15	18.67
528.579	18.82
529.008	18.97
529.437	19.09
529.866	19.21
530.295	19.32
530.724	19.43
531.152	19.53
531.581	19.62
532.01	19.71
532.438	19.8
532.867	19.88
533.295	19.96
533.723	20.01
534.152	20.07
534.58	20.14
535.008	20.19
535.436	20.25
535.865	20.28
536.293	20.32
536.721	20.37
537.149	20.41
537.576	20.45
538.004	20.48
538.432	20.52
538.86	20.55
539.287	20.57
539.715	20.6
540.143	20.62
540.57	20.66
540.998	20.68
541.425	20.7
541.852	20.72
542.28	20.74
542.707	20.76
543.134	20.79
543.561	20.83
543.988	20.87
544.415	20.88
544.842	20.9
545.269	20.93
545.696	20.95
546.123	20.97
546.549	20.99
546.976	21.02
547.403	21.05
547.829	21.07
548.256	21.08
548.682	21.09
549.108	21.11
549.535	21.14
549.961	21.16
550.387	21.17
550.813	21.2
551.24	21.21
551.666	21.2
552.092	21.2
552.518	21.2
552.943	21.19
553.369	21.19
553.795	21.19
554.221	21.15
554.646	21.12
555.072	21.09
555.498	21.04
555.923	21
556.349	20.95
556.774	20.9
557.199	20.84
557.625	20.78
558.05	20.72
558.475	20.66
558.9	20.61
559.325	20.53
559.75	20.47
560.175	20.4
560.6	20.32
561.025	20.24
561.449	20.15
561.874	20.06
562.299	19.97
562.723	19.86
563.148	19.74
563.572	19.62
563.997	19.51
564.421	19.39
564.846	19.25
565.27	19.13
565.694	19.01
566.118	18.87
566.542	18.74
566.966	18.59
567.39	18.46
567.814	18.32
568.238	18.19
568.662	18.05
569.086	17.92
569.509	17.77
569.933	17.64
570.357	17.5
570.78	17.36
571.204	17.24
571.627	17.11
572.05	16.99
572.474	16.88
572.897	16.78
573.32	16.66
573.743	16.56
574.166	16.47
574.589	16.37
575.012	16.27
575.435	16.18
575.858	16.09
576.281	16.01
576.704	15.93
577.126	15.85
577.549	15.75
577.972	15.67
578.394	15.59
578.817	15.5
579.239	15.44
579.661	15.37
580.084	15.29
580.506	15.22
580.928	15.15
581.35	15.08
581.772	15
582.194	14.96
582.616	14.91
583.038	14.85
583.46	14.79
583.882	14.73
584.303	14.67
584.725	14.63
585.147	14.56
585.568	14.52
585.99	14.47
586.411	14.41
586.833	14.35
587.254	14.28
587.675	14.22
588.096	14.17
588.518	14.12
588.939	14.09
589.36	14.04
589.781	14.01
590.202	13.95
590.623	13.91
591.043	13.87
591.464	13.84
591.885	13.8
592.305	13.8
592.726	13.77
593.147	13.74
593.567	13.71
593.987	13.68
594.408	13.65
594.828	13.62
595.248	13.6
595.669	13.57
596.089	13.53
596.509	13.51
596.929	13.47
597.349	13.44
597.769	13.4
598.189	13.37
598.608	13.34
599.028	13.3
599.448	13.26
599.867	13.22
600.287	13.18
600.706	13.15
601.126	13.11
601.545	13.07
601.965	13.03
602.384	12.98
602.803	12.92
603.222	12.88
603.641	12.83
604.061	12.79
604.48	12.74
604.898	12.69
605.317	12.64
605.736	12.59
606.155	12.53
606.574	12.48
606.992	12.43
607.411	12.38
607.829	12.31
608.248	12.23
608.666	12.16
609.085	12.1
609.503	12.05
609.921	11.99
610.339	11.93
610.758	11.88
611.176	11.81
611.594	11.75
612.012	11.69
612.43	11.64
612.847	11.6
613.265	11.54
613.683	11.48
614.101	11.43
614.518	11.37
614.936	11.31
615.353	11.25
615.771	11.22
616.188	11.16
616.606	11.11
617.023	11.07
617.44	11.03
617.857	11
618.274	10.95
618.691	10.91
619.108	10.86
619.525	10.83
619.942	10.8
620.359	10.75
620.776	10.72
621.192	10.69
621.609	10.67
622.026	10.64
622.442	10.61
622.859	10.6
623.275	10.58
623.691	10.56
624.108	10.54
624.524	10.53
624.94	10.52
625.356	10.52
625.772	10.5
626.188	10.49
626.604	10.48
627.02	10.47
627.436	10.45
627.852	10.44
628.268	10.43
628.683	10.42
629.099	10.41
629.514	10.4
629.93	10.37
630.345	10.35
630.761	10.31
631.176	10.28
631.591	10.24
632.007	10.2
632.422	10.16
632.837	10.12
633.252	10.07
633.667	10
634.082	9.94
634.497	9.88
634.911	9.81
635.326	9.75
635.741	9.67
636.155	9.6
636.57	9.52
636.984	9.42
637.399	9.33
637.813	9.24
638.228	9.14
638.642	9.04
639.056	8.94
639.47	8.84
639.884	8.74
640.298	8.64
640.712	8.53
641.126	8.43
641.54	8.34
641.954	8.22
642.368	8.12
642.781	8.03
643.195	7.94
643.609	7.85
644.022	7.77
644.436	7.69
644.849	7.6
645.262	7.52
645.676	7.45
646.089	7.39
646.502	7.34
646.915	7.29
647.328	7.24
647.741	7.19
648.154	7.15
648.567	7.1
648.98	7.05
649.393	7.03
649.805	6.99
650.218	6.97
650.631	6.94
651.043	6.9
651.456	6.88
651.868	6.85
652.28	6.82
652.693	6.79
653.105	6.77
653.517	6.74
653.929	6.71
654.341	6.67
654.753	6.62
655.165	6.57
655.577	6.53
655.989	6.49
656.401	6.44
656.813	6.4
657.224	6.34
657.636	6.27
658.047	6.22
658.459	6.16
658.87	6.11
659.282	6.06
659.693	6
660.104	5.94
660.515	5.87
660.926	5.81
661.338	5.75
661.749	5.7
662.159	5.66
662.57	5.61
662.981	5.57
663.392	5.51
663.803	5.47
664.213	5.42
664.624	5.38
665.035	5.35
665.445	5.32
665.855	5.28
666.266	5.26
666.676	5.24
667.086	5.2
667.497	5.17
667.907	5.16
668.317	5.15
668.727	5.14
669.137	5.14
669.547	5.14
669.956	5.13
670.366	5.13
670.776	5.12
671.186	5.13
671.595	5.13
672.005	5.14
672.414	5.15
672.824	5.14
673.233	5.15
673.642	5.16
674.052	5.17
674.461	5.19
674.87	5.2
675.279	5.22
675.688	5.24
676.097	5.26
676.506	5.29
676.915	5.32
677.323	5.35
677.732	5.38
678.141	5.41
678.549	5.45
678.958	5.5
679.366	5.55
679.775	5.6
680.183	5.66
680.592	5.73
681	5.8
681.408	5.87
681.816	5.96
682.224	6.06
682.632	6.17
683.04	6.28
683.448	6.4
683.856	6.53
684.264	6.69
684.671	6.86
685.079	7.04
685.487	7.24
685.894	7.46
686.302	7.71
686.709	7.97
687.116	8.25
687.524	8.55
687.931	8.88
688.338	9.24
688.745	9.6
689.152	9.97
689.559	10.38
689.966	10.8
690.373	11.24
690.78	11.68
691.187	12.14
691.593	12.61
692	13.08
692.407	13.56
692.813	14.04
693.22	14.54
693.626	15.04
694.032	15.53
694.439	16.03
694.845	16.54
695.251	17.05
695.657	17.55
696.063	18.05
696.469	18.55
696.875	19.05
697.281	19.56
697.687	20.07
698.093	20.56
698.498	21.03
698.904	21.53
699.31	21.98
699.715	22.45
700.12	22.91
700.526	23.36
700.931	23.8
701.337	24.23
701.742	24.65
702.147	25.06
702.552	25.47
702.957	25.87
703.362	26.27
703.767	26.67
704.172	27.05
704.577	27.42
704.981	27.81
705.386	28.18
705.791	28.52
706.195	28.87
706.6	29.21
707.004	29.54
707.408	29.88
707.813	30.2
708.217	30.53
708.621	30.85
709.025	31.15
709.43	31.44
709.834	31.74
710.237	32.05
710.641	32.32
711.045	32.6
711.449	32.91
711.853	33.19
712.256	33.46
712.66	33.73
713.064	33.99
713.467	34.22
713.87	34.48
714.274	34.72
714.677	34.99
715.08	35.24
715.484	35.48
715.887	35.7
716.29	35.91
716.693	36.13
717.096	36.32
717.499	36.53
717.901	36.78
718.304	36.99
718.707	37.19
719.109	37.38
719.512	37.57
719.915	37.75
720.317	37.91
720.719	38.07
721.122	38.25
721.524	38.43
721.926	38.61
722.328	38.75
722.731	38.89
723.133	39.05
723.535	39.18
723.937	39.33
724.338	39.46
724.74	39.63
725.142	39.8
725.544	39.91
725.945	40.03
726.347	40.14
726.748	40.23
727.15	40.36
727.551	40.46
727.952	40.57
728.354	40.65
728.755	40.75
729.156	40.85
729.557	40.91
729.958	40.99
730.359	41.08
730.76	41.17
731.161	41.27
731.562	41.34
731.962	41.39
732.363	41.47
732.763	41.57
733.164	41.65
733.564	41.7
733.965	41.76
734.365	41.86
734.766	41.91
735.166	41.96
735.566	42.01
735.966	42.07
736.366	42.11
736.766	42.16
737.166	42.18
737.566	42.24
737.966	42.25
738.365	42.29
738.765	42.32
739.165	42.36
739.564	42.39
739.964	42.43
740.363	42.44
740.763	42.48
741.162	42.52
741.561	42.53
741.96	42.53
742.36	42.6
742.759	42.63
743.158	42.65
743.557	42.66
743.955	42.7
744.354	42.72
744.753	42.76
745.152	42.82
745.55	42.85
745.949	42.91
746.348	42.93
746.746	42.93
747.144	42.97
747.543	42.97
747.941	43.02
748.339	43.02
748.737	43.03
749.136	43.04
749.534	43.03
749.932	43.02
750.33	43.01
750.727	43.03
751.125	43.05
751.523	43.02
751.921	43.02
752.318	43
752.716	43.01
753.113	42.98
753.511	42.97
753.908	43
754.305	43
754.703	42.99
755.1	42.98
755.497	42.97
755.894	42.96
756.291	42.96
756.688	42.94
757.085	42.93
757.482	42.92
757.878	42.9
758.275	42.87
758.672	42.86
759.068	42.88
759.465	42.86
759.861	42.86
760.258	42.87
760.654	42.85
761.05	42.88
761.447	42.89
761.843	42.9
762.239	42.92
762.635	42.91
763.031	42.92
763.427	42.91
763.822	42.92
764.218	42.94
764.614	42.94
765.01	42.96
765.405	42.93
765.801	42.92
766.196	42.92
766.592	42.92
766.987	42.91
767.382	42.88
767.778	42.91
768.173	42.9
768.568	42.89
768.963	42.88
769.358	42.89
769.753	42.92
770.148	42.92
770.542	42.92
770.937	42.94
771.332	42.98
771.726	42.98
772.121	42.95
772.515	42.96
772.91	42.96
773.304	42.98
773.699	42.98
774.093	42.96
774.487	42.98
774.881	43
775.275	42.99
775.669	42.96
776.063	42.98
776.457	43
776.851	42.98
777.245	42.96
777.638	42.95
778.032	42.95
778.425	42.97
778.819	42.96
779.212	42.96
779.606	42.97
779.999	42.98
780.392	43.01
780.786	43.01
781.179	43.06
781.572	43.1
781.965	43.13
782.358	43.15
782.751	43.13
783.143	43.16
783.536	43.16
783.929	43.16
784.322	43.16
784.714	43.17
785.107	43.17
785.499	43.14
785.891	43.14
786.284	43.14
786.676	43.13
787.068	43.14
787.46	43.14
787.852	43.12
788.245	43.14
788.636	43.13
789.028	43.14
789.42	43.14
789.812	43.17
790.204	43.16
790.595	43.16
790.987	43.2
791.378	43.23
791.77	43.25
792.161	43.28
792.553	43.28
792.944	43.31
793.335	43.33
793.726	43.33
794.117	43.32
794.508	43.32
794.899	43.34
795.29	43.32
795.681	43.3
796.072	43.29
796.463	43.29
796.853	43.31
797.244	43.32
797.634	43.32
798.025	43.35
798.415	43.36
798.806	43.34
799.196	43.37
799.586	43.37
799.976	43.4
800.366	43.42
800.756	43.44
801.146	43.48
801.536	43.51
801.926	43.52
802.316	43.52
802.706	43.55
803.095	43.58
803.485	43.58
803.874	43.6
804.264	43.6
804.653	43.6
805.043	43.61
805.432	43.58
805.821	43.58
806.21	43.58
806.599	43.62
806.988	43.63
807.377	43.65
807.766	43.66
808.155	43.64
808.544	43.67
808.933	43.67
809.321	43.66
809.71	43.69
810.098	43.7
810.487	43.71
810.875	43.7
811.264	43.69
811.652	43.69
812.04	43.69
812.428	43.73
812.816	43.72
813.204	43.71
813.592	43.72
813.98	43.72
814.368	43.72
814.756	43.72
815.144	43.71
815.531	43.71
815.919	43.71
816.306	43.71
816.694	43.69
817.081	43.7
817.469	43.74
817.856	43.76
818.243	43.73
818.63	43.73
819.017	43.71
819.404	43.73
819.791	43.74
820.178	43.73
820.565	43.74
820.952	43.74
821.339	43.71
821.725	43.68
822.112	43.67
822.498	43.7
822.885	43.7
823.271	43.69
823.657	43.64
824.044	43.65
824.43	43.68
824.816	43.65
825.202	43.64
825.588	43.66
825.974	43.64
826.36	43.62
826.746	43.59
827.132	43.57
827.517	43.58
827.903	43.6
828.289	43.59
828.674	43.56
829.06	43.55
829.445	43.54
829.83	43.52
830.216	43.52
830.601	43.51
830.986	43.49
831.371	43.48
831.756	43.47
832.141	43.45
832.526	43.44
832.911	43.43
833.295	43.42
833.68	43.43
834.065	43.42
834.449	43.41
834.834	43.4
835.218	43.4
835.603	43.38
835.987	43.34
836.371	43.35
836.755	43.31
837.139	43.28
837.524	43.28
837.908	43.25
838.291	43.24
838.675	43.23
839.059	43.22
839.443	43.2
839.827	43.19
840.21	43.19
840.594	43.19
840.977	43.17
841.361	43.16
841.744	43.11
842.127	43.1
842.511	43.08
842.894	43.06
843.277	43.05
843.66	43.03
844.043	43.03
844.426	43.03
844.809	43.01
845.191	43.04
845.574	43.05
845.957	43.08
846.339	43.08
846.722	43.08
847.104	43.1
847.487	43.09
847.869	43.11
848.252	43.11
848.634	43.11
849.016	43.12
849.398	43.1
849.78	43.11
850.162	43.11
850.544	43.1
850.926	43.1
851.307	43.09
851.689	43.12
852.071	43.12
852.452	43.12
852.834	43.15
853.215	43.12
853.597	43.14
853.978	43.13
854.359	43.12
854.741	43.14
855.122	43.14
855.503	43.14
855.884	43.13
856.265	43.13
856.646	43.14
857.026	43.12
857.407	43.14
857.788	43.13
858.169	43.14
858.549	43.16
858.93	43.17
859.31	43.16
859.69	43.17
860.071	43.19
860.451	43.19
860.831	43.19
861.211	43.2
861.591	43.19
861.971	43.18
862.351	43.19
862.731	43.19
863.111	43.16
863.491	43.19
863.87	43.19
864.25	43.18
864.629	43.2
865.009	43.21
865.388	43.2
865.768	43.22
866.147	43.22
866.526	43.2
866.905	43.19
867.284	43.2
867.663	43.18
868.042	43.19
868.421	43.19
868.8	43.19
869.179	43.18
869.558	43.17
869.936	43.16
870.315	43.16
870.693	43.18
871.072	43.2
871.45	43.21
871.828	43.21
872.207	43.21
872.585	43.2
872.963	43.19
873.341	43.19
873.719	43.21
874.097	43.21
874.475	43.23
874.853	43.2
875.23	43.2
875.608	43.19
875.986	43.24
876.363	43.24
876.741	43.23
877.118	43.24
877.495	43.25
877.873	43.24
878.25	43.24
878.627	43.26
879.004	43.27
879.381	43.28
879.758	43.29
880.135	43.26
880.512	43.23
880.889	43.25
881.265	43.22
881.642	43.23
882.019	43.25
882.395	43.23
882.772	43.2
883.148	43.18
883.524	43.17
883.901	43.17
884.277	43.15
884.653	43.14
885.029	43.12
885.405	43.13
885.781	43.1
886.157	43.07
886.532	43.07
886.908	43.05
887.284	43.04
887.659	42.99
888.035	42.97
888.411	42.95
888.786	42.95
889.161	42.95
889.537	42.94
889.912	42.93
890.287	42.91
890.662	42.9
891.037	42.91
891.412	42.89
891.787	42.9
892.162	42.88
892.536	42.86
892.911	42.85
893.286	42.82
893.66	42.81
894.035	42.8
894.409	42.79
894.784	42.8
895.158	42.78
895.532	42.78
895.906	42.76
896.281	42.75
896.655	42.75
897.029	42.75
897.402	42.75
897.776	42.74
898.15	42.74
898.524	42.78
898.898	42.77
899.271	42.78
899.645	42.8
900.018	42.83
900.392	42.84
900.765	42.88
901.138	42.86
901.511	42.88
901.884	42.88
902.258	42.91
902.631	42.87
903.003	42.88
903.376	42.88
903.749	42.85
904.122	42.86
904.495	42.88
904.867	42.91
905.24	42.94
905.612	42.98
905.985	42.99
906.357	42.96
906.729	42.97
907.102	42.97
907.474	43.01
907.846	43.04
908.218	43.03
908.59	43.06
908.962	43.02
909.334	43.02
909.705	43.02
910.077	43.04
910.449	43.06
910.82	43.07
911.192	43.06
911.563	43.05
911.935	43.04
912.306	43.07
912.677	43.06
913.048	43.09
913.419	43.09
913.79	43.09
914.161	43.09
914.532	43.08
914.903	43.08
915.274	43.12
915.645	43.15
916.015	43.14
916.386	43.14
916.756	43.14
917.127	43.18
917.497	43.18
917.868	43.17
918.238	43.19
918.608	43.23
918.978	43.23
919.348	43.22
919.718	43.18
920.088	43.18
920.458	43.17
920.828	43.13
921.198	43.09
921.567	43.13
921.937	43.15
922.306	43.14
922.676	43.11
923.045	43.11
923.415	43.14
923.784	43.16
924.153	43.19
924.522	43.22
924.891	43.25
925.26	43.25
925.629	43.25
925.998	43.23
926.367	43.2
926.736	43.22
927.104	43.2
927.473	43.16
927.842	43.14
928.21	43.16
928.578	43.12
928.947	43.15
929.315	43.16
929.683	43.12
930.051	43.1
930.42	43.12
930.788	43.1
931.156	43.09
931.523	43.1
931.891	43.11
932.259	43.08
932.627	43.06
932.994	43.02
933.362	42.99
933.729	42.99
934.097	42.97
934.464	42.97
934.831	42.94
935.199	42.95
935.566	42.97
935.933	42.98
936.3	42.95
936.667	42.99
937.034	43.03
937.401	43.12
937.767	43.16
938.134	43.21
938.501	43.27
938.867	43.42
939.234	43.47
939.6	43.52
939.967	43.54
940.333	43.61
940.699	43.68
941.065	43.75
941.431	43.74
941.798	43.76
942.163	43.81
942.529	43.84
942.895	43.9
943.261	43.92
943.627	43.99
943.992	44.03
944.358	44.11
944.723	44.12
945.089	44.04
945.454	44.07
945.82	44.08
946.185	44.11
946.55	44.07
946.915	44.01
947.28	43.98
947.645	43.95
948.01	43.92
948.375	43.86
948.74	43.82
949.104	43.85
949.469	43.81
949.834	43.77
950.198	43.66
950.562	43.64
950.927	43.58
951.291	43.58
951.655	43.48
952.02	43.47
952.384	43.41
952.748	43.4
953.112	43.35
953.476	43.28
953.839	43.26
954.203	43.28
954.567	43.26
954.931	43.19
955.294	43.1
955.658	43.13
956.021	43.07
956.385	42.98
956.748	42.87
957.111	42.83
957.474	42.79
957.837	42.69
958.2	42.7
958.563	42.64
958.926	42.69
959.289	42.71
959.652	42.67
960.015	42.69
960.377	42.77
960.74	42.87
961.102	42.89
961.465	42.98
961.827	43.03
962.189	43.01
962.552	43.05
962.914	43.01
963.276	43.03
963.638	43
964	42.94
964.362	42.94
964.724	42.88
965.085	42.85
965.447	42.77
965.809	42.77
966.17	42.77
966.532	42.65
966.893	42.68
967.255	42.64
967.616	42.69
967.977	42.74
968.338	42.68
968.699	42.66
969.061	42.66
969.421	42.68
969.782	42.7
970.143	42.68
970.504	42.79
970.865	42.79
971.225	42.76
971.586	42.7
971.946	42.67
972.307	42.65
972.667	42.66
973.027	42.7
973.388	42.71
973.748	42.7
974.108	42.78
974.468	42.73
974.828	42.71
975.188	42.78
975.548	42.81
975.907	42.88
976.267	42.95
976.627	43
976.986	42.91
977.346	42.89
977.705	42.86
978.064	42.81
978.424	42.83
978.783	42.81
979.142	42.78
979.501	42.79
979.86	42.84
980.219	42.84
980.578	42.87
980.937	42.94
981.296	42.92
981.654	43
982.013	42.98
982.371	43.04
982.73	43.13
983.088	43.12
983.447	43.15
983.805	43.02
984.163	43.01
984.521	43.02
984.879	43.01
985.237	43.12
985.595	43.17
985.953	43.16
986.311	43.1
986.669	43.1
987.026	43.12
987.384	43.09
987.741	43.14
988.099	43.19
988.456	43.18
988.814	43.23
989.171	43.2
989.528	43.14
989.885	43.19
990.242	43.33
990.599	43.32
990.956	43.45
991.313	43.58
991.67	43.61
992.027	43.71
992.383	43.83
992.74	43.92
993.096	43.88
993.453	43.95
993.809	43.98
994.165	43.93
994.522	43.96
994.878	43.97
995.234	43.97
995.59	44.03
995.946	44
996.302	43.92
996.658	43.94
997.013	44.01
997.369	43.97
997.725	44.07
998.08	44.19
998.436	44.22
998.791	44.16
999.147	44.1
999.502	44.16
999.857	44.28
1000.212	44.35
1000.567	44.41
1000.922	44.57
1001.277	44.75
1001.632	44.65
1001.987	44.69
1002.342	44.84
1002.696	44.9
1003.051	45.04
1003.406	45.13
1003.76	45.09
1004.114	45.18
1004.469	45.17
1004.823	45.42
1005.177	45.44
1005.531	45.66
1005.885	45.65
1006.239	45.67
1006.593	45.81
1006.947	45.92
1007.301	45.98
1007.655	46.05
1008.008	46.07
1008.362	46.23
1008.715	46.17
1009.069	46.13
1009.422	46.08
1009.776	46.02
1010.129	45.92
1010.482	46.03
1010.835	46.09
1011.188	46.13
1011.541	46.24
1011.894	46.34
1012.247	46.37
1012.6	46.3
1012.952	46.51
1013.305	46.7
1013.657	46.97
1014.01	47.28
1014.362	47.4
1014.715	47.55
1015.067	47.53
1015.419	47.67
1015.771	47.69
1016.123	47.84
1016.475	48.09
1016.827	48.14
1017.179	48.23
1017.531	48.54
1017.883	48.68
1018.234	48.81
1018.586	48.93
1018.938	49.12
1019.289	49.06
1019.64	49.17
1019.992	49.16
1020.343	49.09
1020.694	49.14
1021.045	49.24
1021.396	49.08
1021.747	49.14
1022.098	49.3
1022.449	49.31
1022.8	49.81
1023.151	50
1023.501	50.29
1023.852	50.45
1024.202	50.49
1024.553	50.64
1024.903	50.61
1025.253	50.83
1025.604	50.96
1025.954	50.71
1026.304	50.84
1026.654	50.59
1027.004	50.74
1027.354	50.67
1027.703	50.77
1028.053	51.08
1028.403	51.17
1028.753	51.23
1029.102	51.59
1029.452	51.84
1029.801	52.4
1030.15	52.39
1030.499	52.51
897.758	942.24
901.051	943.23
904.343	947.27
907.636	962.17
910.928	936.39
914.22	931.52
917.511	919.43
920.803	880.94
924.094	876.59
927.384	855.68
930.675	825.9
933.965	820.11
937.255	774.6
940.544	741.02
943.834	706.4
947.123	701.16
950.411	662.96
953.7	650.64
956.988	614.8
960.276	589.09
963.563	580.86
966.851	556.58
970.138	552.94
973.424	536.23
976.711	539.67
979.997	511.81
983.283	508.53
986.568	498.39
989.853	484.53
993.138	474.34
996.423	459.53
999.708	446.55
1002.992	441.41
1006.275	422.59
1009.559	419.54
1012.842	402.79
1016.125	394.48
1019.408	386.36
1022.69	382.5
1025.972	374.25
1029.254	365.83
1032.536	358.48
1035.817	352.64
1039.098	348.63
1042.379	341.66
1045.659	337.21
1048.939	329.76
1052.219	323.02
1055.498	320.15
1058.778	311.33
1062.057	304.96
1065.335	302.63
1068.614	299.67
1071.892	295.58
1075.17	287.65
1078.447	282.84
1081.724	280.44
1085.001	277.58
1088.278	272.46
1091.554	267.06
1094.83	268.89
1098.106	266.31
1101.382	263.26
1104.657	260.74
1107.932	256.9
1111.206	258.4
1114.481	251.13
1117.755	249.27
1121.029	247.8
1124.302	247.34
1127.575	243.09
1130.848	239.1
1134.121	237.43
1137.393	236.68
1140.665	232.04
1143.937	229.51
1147.208	227.73
1150.48	227.88
1153.75	224.11
1157.021	221.61
1160.291	221.86
1163.561	218.61
1166.831	218.68
1170.101	216.64
1173.37	216.36
1176.639	217.02
1179.907	215.91
1183.176	213.33
1186.444	212.7
1189.711	213.1
1192.979	212.69
1196.246	211.1
1199.513	211.96
1202.78	210.79
1206.046	211.03
1209.312	208.17
1212.578	208.2
1215.843	209.26
1219.108	209.52
1222.373	213.37
1225.638	214.43
1228.902	216.99
1232.166	216.72
1235.43	217.84
1238.693	220.71
1241.956	221.86
1245.219	225.98
1248.482	226.19
1251.744	226.46
1255.006	226.35
1258.268	221.38
1261.529	219.75
1264.79	218.98
1268.051	217.26
1271.312	215.14
1274.572	212.33
1277.832	210.56
1281.092	207.32
1284.351	206.02
1287.61	205.99
1290.869	202.28
1294.128	201.29
1297.386	200.86
1300.644	198.98
1303.902	200.35
1307.159	199.36
1310.416	199.47
1313.673	198.29
1316.93	200.25
1320.186	199.49
1323.442	199.78
1326.697	203
1329.953	203.54
1333.208	204.15
1336.463	206.6
1339.717	206.73
1342.972	209.47
1346.226	211.12
1349.479	212.33
1352.733	212.81
1355.986	215.17
1359.238	214.53
1362.491	215.13
1365.743	217.45
1368.995	217.78
1372.247	216.41
1375.498	216.23
1378.749	217.16
1382	214.85
1385.251	215.27
1388.501	214.45
1391.751	213.53
1395	212.76
1398.25	211.22
1401.499	209.4
1404.748	209.08
1407.996	207.03
1411.244	206.28
1414.492	204.49
1417.74	202.2
1420.987	199.02
1424.234	197.87
1427.481	196.23
1430.728	196.32
1433.974	194.18
1437.22	192.39
1440.465	192.05
1443.711	189.88
1446.956	188.46
1450.201	186.88
1453.445	185.9
1456.689	185.26
1459.933	182.5
1463.177	180.45
1466.42	178.59
1469.663	176.6
1472.906	175.56
1476.148	170.73
1479.391	169.09
1482.633	167.87
1485.874	165.5
1489.115	164.15
1492.356	162.34
1495.597	162.32
1498.838	160.09
1502.078	158.53
1505.318	158.31
1508.557	158.66
1511.797	158.58
1515.036	157.09
1518.274	156.34
1521.513	156.01
1524.751	155.29
1527.989	155.5
1531.227	154.73
1534.464	155.08
1537.701	154.79
1540.938	154.3
1544.174	151.95
1547.41	152.48
1550.646	152.39
1553.882	152.45
1557.117	150.21
1560.352	149.83
1563.587	149.35
1566.821	148.32
1570.055	147.57
1573.289	145.95
1576.523	146.23
1579.756	145.56
1582.989	144.17
1586.222	144.17
1589.454	143.42
1592.686	144.53
1595.918	143.85
1599.15	143.27
1602.381	143.31
1605.612	142.98
1608.843	143.53
1612.073	142.96
1615.303	143.78
1618.533	144.22
1621.762	144.16
1624.992	145.02
1628.221	144.61
1631.449	143.97
1634.678	144.21
1637.906	145.31
1641.134	145.12
1644.361	144.85
1647.588	145.45
1650.815	145.01
1654.042	144.86
1657.269	145.37
1660.495	145.06
1663.72	144.47
1666.946	145.5
1670.171	145.62
1673.396	145.51
1676.621	145.08
1679.845	146.22
1683.069	146.2
1686.293	146.92
1689.517	146.87
1692.74	146.88
1695.963	147.58
1699.185	149.02
1702.408	148.93
1705.63	149.12
1708.852	149.28
1712.073	150.38
1715.294	149.73
1718.515	151.24
1721.736	150.83
1724.956	151.77
1728.176	151.83
1731.396	152.3
1734.616	151.77
1737.835	152.69
1741.054	151.79
1744.272	152.19
1747.491	153.34
1750.709	153.61
1753.927	152.59
1757.144	152.72
1760.361	152.93
1763.578	153.17
1766.795	152.83
1770.011	154.13
1773.227	154.02
1776.443	156.16
1779.658	156.35
1782.874	155.98
1786.089	155.57
1789.303	156.09
1792.518	157.99
1795.732	157.79
1798.945	158.84
1802.159	159.17
1805.372	159.06
1808.585	161.57
1811.797	161.99
1815.01	162.44
1818.222	163.65
1821.434	166.23
1824.645	166.39
1827.856	168.68
1831.067	169.94
1834.278	169.55
1837.488	171.05
1840.698	171.99
1843.908	170.58
1847.117	170.29
1850.326	171.44
1853.535	170.67
1856.744	171.85
1859.952	172.57
1863.16	171.09
1866.368	170.02
1869.575	171.46
1872.782	168.26
1875.989	168.05
1879.196	167.58
1882.402	166.78
1885.608	166.19
1888.814	165.84
1892.019	165.89
1895.224	164.28
1898.429	163.5
1901.634	163.84
1904.838	163.83
1908.042	165.41
1911.246	165.69
1914.449	165.67
1917.652	166.1
1920.855	165.48
1924.058	166.65
1927.26	165.35
1930.462	166.4
1933.664	168.03
1936.865	167.18
1940.066	166.41
1943.267	166.13
1946.467	165.89
1949.668	166.47
1952.868	168.27
1956.067	169.58
1959.267	168.43
1962.466	168.98
1965.665	167.91
1968.863	168.72
1972.061	171.71
1975.259	173.73
1978.457	174.35
1981.654	175.98
1984.852	177.11
1988.048	176.62
1991.245	178.71
1994.441	180.89
1997.637	181.98
2000.833	186.01
2004.028	187.82
2007.223	188.01
2010.418	189.48
2013.613	192.44
2016.807	194.31
2020.001	195.16
2023.194	199.11
2026.388	202.49
2029.581	207.97
2032.774	210.22
2035.966	214.01
2039.158	214.77
2042.35	218.93
2045.542	221.15
2048.733	225.15
2051.924	228.57
2055.115	232.7
2058.306	232.96
2061.496	234.89
2064.686	234.65
2067.875	238.64
2071.065	239.99
2074.254	238.22
2077.442	241.87
2080.631	242.14
2083.819	244.62
2087.007	244.32
2090.195	248
2093.382	250.07
2096.569	248.98
2099.756	253.13
2102.942	253.48
2106.128	254.94
2109.314	262.11
2112.5	261.07
2115.685	266.54
2118.87	267.25
2122.055	272.87
2125.239	274.07
2128.424	277.38
2131.608	279.14
2134.791	283.17
2137.974	284.67
2141.157	285.61
2144.34	285.67
2147.523	290.92
2150.705	289.83
2153.887	292.5
2157.068	292.87
2160.25	289.44
2163.431	291.35
2166.611	295.18
2169.792	299.45
2172.972	302.52
2176.152	305.55
2179.331	308.9
2182.511	311.9
2185.69	315.32
2188.868	321.91
2192.047	322.96
2195.225	334.47
2198.403	341.91
2201.58	346.7
2204.758	353.41
2207.935	360.15
2211.111	367.05
2214.288	370.69
2217.464	372.2
2220.64	378.79
2223.815	382.16
2226.991	398.6
2230.166	397.85
2233.34	403.7
2236.515	409.55
2239.689	412.03
2242.863	414.91
2246.036	423.69
2249.209	421.16
2252.382	429.91
2255.555	439.92
2258.727	442.94
2261.9	443.87
2265.071	448.24
2268.243	457.34
2271.414	465.62
2274.585	471.44
2277.756	475.71
2280.926	479
2284.096	492.01
2287.266	500.9
2290.436	507.67
2293.605	517.24
2296.774	532.54
2299.942	550.2
2303.111	551.58
2306.279	561.77
2309.447	572.12
2312.614	587.88
2315.781	604.2
2318.948	632.7
2322.115	623.69
2325.281	656.55
2328.447	646.44
2331.613	668.6
2334.779	660.82
2337.944	689.79
2341.109	697.4
2344.274	715.78
2347.438	741.82
2350.602	743.96
2353.766	762.78
2356.929	774.99
2360.092	768.64
2363.255	821.03
2366.418	824.49
2369.58	839.5
2372.742	889.85
2375.904	912.8
2379.066	907.1
2382.227	886.51
2385.388	961.38
2388.548	957.39
2391.709	971.41
2394.869	1080.18
2398.029	1039.57
2401.188	1066.41
2404.347	1061.72
2407.506	1041.6
2410.665	1073.53
2413.823	1136.5
2416.981	1201.79
2420.139	1166.47
2423.296	1155.89
2426.453	1211.32
2429.61	1171.12
2432.767	1217.76
2435.923	1204.7
2439.079	1323.79
2442.235	1348.08
2445.391	1332.9
2448.546	1321.12
2451.701	1285.01
2454.855	1281.5
2458.009	1369.19
2461.163	1413.64
2464.317	1454.07
2467.471	1496.14
2470.624	1500.52
2473.777	1450.04
2476.929	1407.85
2480.082	1367.05
2483.234	1357.44
2486.385	1423.35
2489.537	1427.2
2492.688	1473.14
2495.839	1437.6
2498.989	1406.84
2502.14	1409.25
2505.29	1424.47
2508.439	1446.45
2511.589	1443.71
2514.738	1578.57
2517.887	1542.1
2521.035	1626.1
2524.183	1645.18
2527.331	1652.42
2530.479	1638.43
2533.627	1655.31
