Data from C_3_DEC_ON_6N_Splice17_14-24-17-092.txt Node
Date: Sat Mar 07 14:24:17 EST 2020
User: sa697716
Spectrometer: NQ5500242
Trigger mode: 0
Integration Time (sec): 1.450000E-1
Scans to average: 20
Nonlinearity correction enabled: false
Boxcar width: 5
Storing dark spectrum: false
XAxis mode: Wavelengths
Number of Pixels in Spectrum: 512
>>>>>Begin Spectral Data<<<<<
187.83	190.2
188.298	190.65
188.766	159.35
189.233	137.61
189.701	134.82
190.169	163.75
190.636	200.33
191.104	295.9
191.571	365.93
192.039	363.25
192.506	478.64
192.974	72.95
193.441	42.46
193.908	23.76
194.375	48.39
194.842	-4.53
195.31	74.17
195.777	97.43
196.244	65.9
196.711	72.06
197.177	73.52
197.644	72.94
198.111	72.27
198.578	72.32
199.045	72.24
199.511	72.23
199.978	72.34
200.445	72.38
200.911	72.66
201.378	73.05
201.844	72.89
202.31	72.53
202.777	72.67
203.243	72.72
203.709	72.31
204.176	71.64
204.642	71.01
205.108	70.67
205.574	69.97
206.04	69.13
206.506	68.25
206.972	67.83
207.438	67.07
207.903	65.74
208.369	64.3
208.835	63.02
209.301	61.59
209.766	59.88
210.232	58.06
210.697	56.41
211.163	55.12
211.628	53.8
212.094	52.13
212.559	50.91
213.024	49.53
213.49	48.28
213.955	47.05
214.42	45.89
214.885	44.56
215.35	42.83
215.815	40.62
216.28	37.64
216.745	34.48
217.21	31.45
217.675	28.57
218.14	26.07
218.604	23.86
219.069	22.03
219.534	20.49
219.998	19.2
220.463	18.13
220.927	17.14
221.392	16.38
221.856	15.72
222.32	15.15
222.785	14.63
223.249	14.2
223.713	13.8
224.177	13.45
224.642	13.12
225.106	12.79
225.57	12.51
226.034	12.28
226.497	12.03
226.961	11.8
227.425	11.59
227.889	11.41
228.353	11.22
228.816	11.02
229.28	10.83
229.744	10.65
230.207	10.48
230.671	10.3
231.134	10.13
231.597	10.02
232.061	9.87
232.524	9.74
232.987	9.6
233.45	9.48
233.914	9.37
234.377	9.25
234.84	9.15
235.303	9.08
235.766	8.98
236.229	8.9
236.691	8.79
237.154	8.72
237.617	8.64
238.08	8.55
238.542	8.46
239.005	8.38
239.468	8.3
239.93	8.22
240.393	8.14
240.855	8.07
241.317	7.99
241.78	7.92
242.242	7.84
242.704	7.77
243.166	7.69
243.629	7.63
244.091	7.55
244.553	7.49
245.015	7.42
245.477	7.34
245.939	7.28
246.4	7.2
246.862	7.13
247.324	7.07
247.786	7
248.247	6.95
248.709	6.89
249.17	6.83
249.632	6.79
250.093	6.73
250.555	6.67
251.016	6.62
251.477	6.56
251.939	6.52
252.4	6.48
252.861	6.45
253.322	6.42
253.783	6.39
254.244	6.35
254.705	6.3
255.166	6.27
255.627	6.23
256.088	6.21
256.549	6.18
257.009	6.14
257.47	6.11
257.931	6.06
258.391	6.01
258.852	5.95
259.312	5.91
259.773	5.87
260.233	5.84
260.694	5.8
261.154	5.76
261.614	5.72
262.074	5.68
262.534	5.64
262.994	5.6
263.455	5.58
263.915	5.55
264.374	5.52
264.834	5.5
265.294	5.48
265.754	5.46
266.214	5.43
266.673	5.41
267.133	5.4
267.593	5.38
268.052	5.37
268.512	5.36
268.971	5.35
269.431	5.34
269.89	5.32
270.349	5.31
270.809	5.29
271.268	5.29
271.727	5.28
272.186	5.27
272.645	5.26
273.104	5.24
273.563	5.23
274.022	5.23
274.481	5.22
274.94	5.21
275.399	5.2
275.857	5.19
276.316	5.19
276.775	5.17
277.233	5.17
277.692	5.15
278.15	5.14
278.609	5.13
279.067	5.12
279.525	5.11
279.984	5.1
280.442	5.09
280.9	5.09
281.358	5.07
281.816	5.07
282.274	5.07
282.732	5.06
283.19	5.05
283.648	5.05
284.106	5.04
284.564	5.04
285.021	5.04
285.479	5.03
285.937	5.03
286.394	5.04
286.852	5.03
287.309	5.02
287.767	5.02
288.224	5.01
288.682	4.99
289.139	4.98
289.596	4.96
290.053	4.94
290.511	4.92
290.968	4.9
291.425	4.88
291.882	4.86
292.339	4.83
292.796	4.82
293.252	4.81
293.709	4.8
294.166	4.79
294.623	4.78
295.079	4.77
295.536	4.76
295.992	4.75
296.449	4.75
296.905	4.74
297.362	4.74
297.818	4.73
298.274	4.72
298.731	4.71
299.187	4.7
299.643	4.68
300.099	4.68
300.555	4.67
301.011	4.66
301.467	4.65
301.923	4.64
302.379	4.63
302.835	4.63
303.291	4.62
303.746	4.62
304.202	4.62
304.658	4.62
305.113	4.62
305.569	4.63
306.024	4.62
306.479	4.62
306.935	4.62
307.39	4.62
307.845	4.62
308.301	4.63
308.756	4.64
309.211	4.64
309.666	4.66
310.121	4.66
310.576	4.66
311.031	4.67
311.486	4.68
311.94	4.69
312.395	4.7
312.85	4.7
313.305	4.71
313.759	4.71
314.214	4.7
314.668	4.69
315.123	4.69
315.577	4.69
316.032	4.69
316.486	4.68
316.94	4.66
317.394	4.65
317.849	4.63
318.303	4.62
318.757	4.6
319.211	4.6
319.665	4.58
320.119	4.57
320.572	4.56
321.026	4.54
321.48	4.53
321.934	4.52
322.387	4.51
322.841	4.51
323.295	4.52
323.748	4.51
324.202	4.51
324.655	4.5
325.108	4.5
325.562	4.5
326.015	4.5
326.468	4.5
326.921	4.51
327.374	4.5
327.827	4.51
328.28	4.5
328.733	4.51
329.186	4.51
329.639	4.51
330.092	4.52
330.545	4.52
330.997	4.52
331.45	4.53
331.903	4.53
332.355	4.55
332.808	4.55
333.26	4.56
333.713	4.56
334.165	4.56
334.617	4.57
335.069	4.57
335.522	4.58
335.974	4.59
336.426	4.59
336.878	4.58
337.33	4.57
337.782	4.57
338.234	4.57
338.686	4.57
339.137	4.58
339.589	4.57
340.041	4.56
340.493	4.55
340.944	4.53
341.396	4.51
341.847	4.5
342.299	4.49
342.75	4.47
343.201	4.44
343.653	4.43
344.104	4.41
344.555	4.39
345.006	4.38
345.457	4.37
345.908	4.37
346.359	4.36
346.81	4.36
347.261	4.35
347.712	4.35
348.163	4.35
348.613	4.35
349.064	4.35
349.515	4.36
349.965	4.35
350.416	4.34
350.866	4.34
351.317	4.34
351.767	4.34
352.217	4.35
352.668	4.34
353.118	4.34
353.568	4.33
354.018	4.34
354.468	4.34
354.918	4.34
355.368	4.36
355.818	4.36
356.268	4.36
356.718	4.36
357.168	4.35
357.617	4.35
358.067	4.36
358.517	4.38
358.966	4.38
359.416	4.39
359.865	4.39
360.315	4.39
360.764	4.39
361.213	4.4
361.663	4.39
362.112	4.4
362.561	4.41
363.01	4.41
363.459	4.4
363.908	4.39
364.357	4.39
364.806	4.39
365.255	4.39
365.703	4.4
366.152	4.4
366.601	4.41
367.05	4.42
367.498	4.43
367.947	4.43
368.395	4.44
368.844	4.45
369.292	4.46
369.74	4.47
370.189	4.47
370.637	4.47
371.085	4.47
371.533	4.47
371.981	4.47
372.429	4.47
372.877	4.49
373.325	4.5
373.773	4.49
374.221	4.49
374.669	4.49
375.116	4.49
375.564	4.49
376.012	4.49
376.459	4.49
376.907	4.51
377.354	4.51
377.801	4.52
378.249	4.53
378.696	4.53
379.143	4.55
379.591	4.57
380.038	4.59
380.485	4.61
380.932	4.61
381.379	4.63
381.826	4.65
382.273	4.66
382.72	4.66
383.166	4.67
383.613	4.68
384.06	4.68
384.506	4.69
384.953	4.7
385.4	4.71
385.846	4.74
386.292	4.75
386.739	4.75
387.185	4.77
387.631	4.79
388.078	4.8
388.524	4.81
388.97	4.83
389.416	4.85
389.862	4.86
390.308	4.88
390.754	4.9
391.2	4.92
391.645	4.95
392.091	4.98
392.537	5.01
392.983	5.04
393.428	5.07
393.874	5.09
394.319	5.11
394.765	5.12
395.21	5.13
395.655	5.15
396.101	5.17
396.546	5.17
396.991	5.18
397.436	5.18
397.881	5.2
398.326	5.22
398.771	5.25
399.216	5.28
399.661	5.31
400.106	5.33
400.551	5.33
400.995	5.32
401.44	5.34
401.885	5.34
402.329	5.36
402.774	5.36
403.218	5.38
403.663	5.39
404.107	5.4
404.551	5.4
404.995	5.41
405.44	5.42
405.884	5.43
406.328	5.44
406.772	5.46
407.216	5.47
407.66	5.48
408.104	5.47
408.547	5.48
408.991	5.49
409.435	5.5
409.879	5.5
410.322	5.51
410.766	5.53
411.209	5.55
411.653	5.57
412.096	5.58
412.54	5.58
412.983	5.59
413.426	5.63
413.869	5.63
414.312	5.65
414.756	5.68
415.199	5.69
415.642	5.71
416.085	5.72
416.527	5.72
416.97	5.72
417.413	5.73
417.856	5.73
418.298	5.7
418.741	5.7
419.184	5.69
419.626	5.68
420.069	5.69
420.511	5.68
420.953	5.68
421.396	5.68
421.838	5.69
422.28	5.7
422.722	5.73
423.164	5.75
423.606	5.76
424.048	5.79
424.49	5.8
424.932	5.8
425.374	5.8
425.816	5.79
426.258	5.78
426.699	5.76
427.141	5.74
427.582	5.74
428.024	5.74
428.465	5.75
428.907	5.75
429.348	5.75
429.789	5.73
430.231	5.74
430.672	5.75
431.113	5.77
431.554	5.79
431.995	5.82
432.436	5.82
432.877	5.82
433.318	5.83
433.759	5.85
434.2	5.86
434.64	5.9
435.081	5.92
435.522	5.94
435.962	5.97
436.403	6.01
436.843	6.02
437.284	6.03
437.724	6.04
438.164	6.05
438.604	6.07
439.045	6.08
439.485	6.08
439.925	6.09
440.365	6.11
440.805	6.11
441.245	6.11
441.685	6.12
442.125	6.15
442.564	6.17
443.004	6.18
443.444	6.16
443.883	6.18
444.323	6.19
444.762	6.2
445.202	6.21
445.641	6.23
446.081	6.24
446.52	6.25
446.959	6.28
447.398	6.29
447.837	6.3
448.276	6.31
448.716	6.34
449.154	6.36
449.593	6.36
450.032	6.36
450.471	6.36
450.91	6.36
451.349	6.35
451.787	6.33
452.226	6.31
452.664	6.3
453.103	6.29
453.541	6.26
453.98	6.25
454.418	6.22
454.856	6.2
455.295	6.19
455.733	6.15
456.171	6.14
456.609	6.12
457.047	6.1
457.485	6.08
457.923	6.07
458.361	6.05
458.798	6.03
459.236	6.02
459.674	6.02
460.111	6.01
460.549	6.02
460.987	6.01
461.424	6.02
461.862	6.03
462.299	6.03
462.736	6.02
463.173	6.03
463.611	6.03
464.048	6.04
464.485	6.04
464.922	6.02
465.359	6.02
465.796	6.02
466.233	6.04
466.67	6.03
467.106	6.04
467.543	6.04
467.98	6.04
468.416	6.06
468.853	6.07
469.29	6.07
469.726	6.08
470.162	6.09
470.599	6.1
471.035	6.08
471.471	6.08
471.907	6.08
472.344	6.09
472.78	6.09
473.216	6.07
473.652	6.06
474.088	6.04
474.523	6.05
474.959	6.04
475.395	6.02
475.831	6.01
476.266	6.01
476.702	6
477.138	5.98
477.573	5.97
478.008	5.97
478.444	5.95
478.879	5.96
479.314	5.94
479.75	5.94
480.185	5.93
480.62	5.93
481.055	5.92
481.49	5.9
481.925	5.89
482.36	5.88
482.795	5.87
483.229	5.87
483.664	5.86
484.099	5.85
484.534	5.84
484.968	5.83
485.403	5.82
485.837	5.82
486.271	5.83
486.706	5.83
487.14	5.83
487.574	5.84
488.009	5.85
488.443	5.86
488.877	5.87
489.311	5.89
489.745	5.92
490.179	5.94
490.613	5.96
491.046	5.98
491.48	6
491.914	6.03
492.348	6.06
492.781	6.09
493.215	6.12
493.648	6.16
494.082	6.19
494.515	6.21
494.948	6.25
495.382	6.3
495.815	6.35
496.248	6.4
496.681	6.46
497.114	6.52
497.547	6.57
497.98	6.64
498.413	6.7
498.846	6.77
499.279	6.84
499.711	6.91
500.144	6.99
500.577	7.06
501.009	7.14
501.442	7.22
501.874	7.31
502.306	7.4
502.739	7.51
503.171	7.62
503.603	7.73
504.036	7.84
504.468	7.96
504.9	8.08
505.332	8.21
505.764	8.34
506.196	8.49
506.627	8.64
507.059	8.8
507.491	8.95
507.923	9.12
508.354	9.29
508.786	9.47
509.217	9.66
509.649	9.86
510.08	10.06
510.512	10.26
510.943	10.46
511.374	10.66
511.805	10.86
512.237	11.07
512.668	11.29
513.099	11.52
513.53	11.75
513.961	11.97
514.391	12.21
514.822	12.46
515.253	12.71
515.684	12.95
516.114	13.22
516.545	13.48
516.975	13.73
517.406	13.99
517.836	14.24
518.267	14.51
518.697	14.77
519.127	15
519.558	15.25
519.988	15.5
520.418	15.76
520.848	15.99
521.278	16.22
521.708	16.56
522.138	16.8
522.567	17.03
522.997	17.24
523.427	17.47
523.857	17.7
524.286	17.9
524.716	18.11
525.145	18.3
525.575	18.49
526.004	18.69
526.433	18.77
526.863	18.95
527.292	19.13
527.721	19.29
528.15	19.43
528.579	19.58
529.008	19.73
529.437	19.87
529.866	19.99
530.295	20.13
530.724	20.27
531.152	20.38
531.581	20.48
532.01	20.58
532.438	20.69
532.867	20.8
533.295	20.88
533.723	20.96
534.152	21.04
534.58	21.13
535.008	21.2
535.436	21.26
535.865	21.31
536.293	21.36
536.721	21.4
537.149	21.44
537.576	21.47
538.004	21.53
538.432	21.56
538.86	21.59
539.287	21.61
539.715	21.64
540.143	21.66
540.57	21.69
540.998	21.71
541.425	21.76
541.852	21.78
542.28	21.82
542.707	21.84
543.134	21.87
543.561	21.9
543.988	21.93
544.415	21.96
544.842	21.98
545.269	22.02
545.696	22.07
546.123	22.09
546.549	22.12
546.976	22.15
547.403	22.2
547.829	22.22
548.256	22.23
548.682	22.25
549.108	22.26
549.535	22.31
549.961	22.33
550.387	22.34
550.813	22.36
551.24	22.38
551.666	22.39
552.092	22.4
552.518	22.41
552.943	22.4
553.369	22.4
553.795	22.4
554.221	22.37
554.646	22.33
555.072	22.3
555.498	22.26
555.923	22.22
556.349	22.15
556.774	22.1
557.199	22.05
557.625	21.99
558.05	21.92
558.475	21.86
558.9	21.81
559.325	21.74
559.75	21.67
560.175	21.57
560.6	21.48
561.025	21.4
561.449	21.31
561.874	21.21
562.299	21.11
562.723	21.01
563.148	20.88
563.572	20.75
563.997	20.6
564.421	20.46
564.846	20.34
565.27	20.19
565.694	20.06
566.118	19.92
566.542	19.76
566.966	19.6
567.39	19.44
567.814	19.3
568.238	19.15
568.662	19.02
569.086	18.88
569.509	18.74
569.933	18.59
570.357	18.45
570.78	18.29
571.204	18.17
571.627	18.04
572.05	17.92
572.474	17.8
572.897	17.68
573.32	17.56
573.743	17.45
574.166	17.33
574.589	17.23
575.012	17.12
575.435	17.03
575.858	16.93
576.281	16.84
576.704	16.74
577.126	16.65
577.549	16.57
577.972	16.48
578.394	16.4
578.817	16.33
579.239	16.26
579.661	16.2
580.084	16.13
580.506	16.07
580.928	16.01
581.35	15.94
581.772	15.87
582.194	15.79
582.616	15.73
583.038	15.66
583.46	15.59
583.882	15.52
584.303	15.46
584.725	15.39
585.147	15.31
585.568	15.26
585.99	15.2
586.411	15.15
586.833	15.09
587.254	15.04
587.675	14.99
588.096	14.94
588.518	14.89
588.939	14.86
589.36	14.82
589.781	14.77
590.202	14.74
590.623	14.7
591.043	14.66
591.464	14.62
591.885	14.59
592.305	14.55
592.726	14.51
593.147	14.48
593.567	14.44
593.987	14.4
594.408	14.36
594.828	14.33
595.248	14.29
595.669	14.26
596.089	14.24
596.509	14.2
596.929	14.17
597.349	14.13
597.769	14.1
598.189	14.06
598.608	14.03
599.028	14
599.448	13.96
599.867	13.92
600.287	13.88
600.706	13.84
601.126	13.79
601.545	13.75
601.965	13.71
602.384	13.65
602.803	13.6
603.222	13.54
603.641	13.49
604.061	13.45
604.48	13.4
604.898	13.34
605.317	13.29
605.736	13.24
606.155	13.18
606.574	13.12
606.992	13.07
607.411	13.02
607.829	12.94
608.248	12.87
608.666	12.8
609.085	12.75
609.503	12.68
609.921	12.61
610.339	12.56
610.758	12.5
611.176	12.43
611.594	12.38
612.012	12.32
612.43	12.28
612.847	12.22
613.265	12.15
613.683	12.09
614.101	12.05
614.518	12
614.936	11.93
615.353	11.87
615.771	11.83
616.188	11.77
616.606	11.71
617.023	11.67
617.44	11.63
617.857	11.59
618.274	11.54
618.691	11.49
619.108	11.45
619.525	11.42
619.942	11.39
620.359	11.35
620.776	11.33
621.192	11.31
621.609	11.29
622.026	11.27
622.442	11.25
622.859	11.23
623.275	11.22
623.691	11.21
624.108	11.2
624.524	11.17
624.94	11.17
625.356	11.15
625.772	11.13
626.188	11.13
626.604	11.12
627.02	11.11
627.436	11.1
627.852	11.09
628.268	11.07
628.683	11.06
629.099	11.06
629.514	11.04
629.93	11.03
630.345	11.01
630.761	10.97
631.176	10.93
631.591	10.89
632.007	10.85
632.422	10.81
632.837	10.76
633.252	10.7
633.667	10.64
634.082	10.56
634.497	10.49
634.911	10.41
635.326	10.32
635.741	10.25
636.155	10.16
636.57	10.07
636.984	9.97
637.399	9.86
637.813	9.76
638.228	9.65
638.642	9.55
639.056	9.44
639.47	9.33
639.884	9.24
640.298	9.13
640.712	9.03
641.126	8.93
641.54	8.83
641.954	8.73
642.368	8.64
642.781	8.56
643.195	8.47
643.609	8.38
644.022	8.3
644.436	8.22
644.849	8.13
645.262	8.05
645.676	7.97
646.089	7.91
646.502	7.84
646.915	7.79
647.328	7.73
647.741	7.68
648.154	7.63
648.567	7.59
648.98	7.55
649.393	7.53
649.805	7.5
650.218	7.47
650.631	7.46
651.043	7.43
651.456	7.41
651.868	7.38
652.28	7.37
652.693	7.35
653.105	7.34
653.517	7.32
653.929	7.29
654.341	7.27
654.753	7.24
655.165	7.2
655.577	7.17
655.989	7.13
656.401	7.09
656.813	7.05
657.224	7.01
657.636	6.94
658.047	6.9
658.459	6.85
658.87	6.81
659.282	6.74
659.693	6.71
660.104	6.65
660.515	6.6
660.926	6.55
661.338	6.5
661.749	6.44
662.159	6.4
662.57	6.36
662.981	6.32
663.392	6.27
663.803	6.24
664.213	6.2
664.624	6.17
665.035	6.15
665.445	6.13
665.855	6.1
666.266	6.09
666.676	6.09
667.086	6.06
667.497	6.05
667.907	6.04
668.317	6.03
668.727	6.02
669.137	6.02
669.547	6.02
669.956	6.01
670.366	6.02
670.776	6.01
671.186	6.01
671.595	6.02
672.005	6.02
672.414	6.04
672.824	6.05
673.233	6.06
673.642	6.08
674.052	6.09
674.461	6.1
674.87	6.12
675.279	6.14
675.688	6.18
676.097	6.2
676.506	6.24
676.915	6.27
677.323	6.31
677.732	6.34
678.141	6.39
678.549	6.43
678.958	6.49
679.366	6.54
679.775	6.59
680.183	6.64
680.592	6.71
681	6.79
681.408	6.86
681.816	6.94
682.224	7.04
682.632	7.13
683.04	7.25
683.448	7.37
683.856	7.51
684.264	7.66
684.671	7.82
685.079	7.99
685.487	8.18
685.894	8.42
686.302	8.66
686.709	8.92
687.116	9.21
687.524	9.52
687.931	9.85
688.338	10.2
688.745	10.58
689.152	10.98
689.559	11.42
689.966	11.86
690.373	12.31
690.78	12.79
691.187	13.27
691.593	13.79
692	14.3
692.407	14.82
692.813	15.36
693.22	15.9
693.626	16.46
694.032	17.02
694.439	17.57
694.845	18.15
695.251	18.72
695.657	19.28
696.063	19.86
696.469	20.43
696.875	21
697.281	21.55
697.687	22.13
698.093	22.69
698.498	23.24
698.904	23.79
699.31	24.32
699.715	24.85
700.12	25.38
700.526	25.89
700.931	26.4
701.337	26.91
701.742	27.39
702.147	27.86
702.552	28.33
702.957	28.76
703.362	29.21
703.767	29.65
704.172	30.09
704.577	30.51
704.981	30.93
705.386	31.32
705.791	31.71
706.195	32.13
706.6	32.53
707.004	32.91
707.408	33.31
707.813	33.71
708.217	34.05
708.621	34.43
709.025	34.77
709.43	35.13
709.834	35.49
710.237	35.82
710.641	36.13
711.045	36.44
711.449	36.76
711.853	37.09
712.256	37.39
712.66	37.7
713.064	37.99
713.467	38.29
713.87	38.57
714.274	38.85
714.677	39.15
715.08	39.41
715.484	39.7
715.887	39.97
716.29	40.22
716.693	40.49
717.096	40.75
717.499	41
717.901	41.27
718.304	41.51
718.707	41.76
719.109	42
719.512	42.23
719.915	42.48
720.317	42.68
720.719	42.85
721.122	43.01
721.524	43.22
721.926	43.44
722.328	43.62
722.731	43.79
723.133	43.98
723.535	44.14
723.937	44.29
724.338	44.44
724.74	44.63
725.142	44.85
725.544	45.01
725.945	45.15
726.347	45.25
726.748	45.4
727.15	45.52
727.551	45.63
727.952	45.75
728.354	45.89
728.755	45.98
729.156	46.07
729.557	46.13
729.958	46.24
730.359	46.35
730.76	46.46
731.161	46.53
731.562	46.64
731.962	46.72
732.363	46.8
732.763	46.9
733.164	46.98
733.564	47.05
733.965	47.11
734.365	47.17
734.766	47.22
735.166	47.27
735.566	47.33
735.966	47.39
736.366	47.44
736.766	47.49
737.166	47.52
737.566	47.58
737.966	47.63
738.365	47.69
738.765	47.76
739.165	47.81
739.564	47.88
739.964	47.92
740.363	47.95
740.763	48.02
741.162	48.07
741.561	48.1
741.96	48.12
742.36	48.14
742.759	48.16
743.158	48.18
743.557	48.19
743.955	48.22
744.354	48.26
744.753	48.31
745.152	48.35
745.55	48.37
745.949	48.41
746.348	48.45
746.746	48.48
747.144	48.54
747.543	48.56
747.941	48.61
748.339	48.61
748.737	48.64
749.136	48.64
749.534	48.63
749.932	48.64
750.33	48.65
750.727	48.68
751.125	48.7
751.523	48.7
751.921	48.69
752.318	48.7
752.716	48.69
753.113	48.68
753.511	48.69
753.908	48.71
754.305	48.68
754.703	48.68
755.1	48.65
755.497	48.64
755.894	48.62
756.291	48.61
756.688	48.59
757.085	48.6
757.482	48.59
757.878	48.58
758.275	48.55
758.672	48.58
759.068	48.59
759.465	48.58
759.861	48.61
760.258	48.63
760.654	48.64
761.05	48.64
761.447	48.66
761.843	48.66
762.239	48.65
762.635	48.65
763.031	48.65
763.427	48.62
763.822	48.63
764.218	48.63
764.614	48.61
765.01	48.6
765.405	48.59
765.801	48.55
766.196	48.56
766.592	48.56
766.987	48.57
767.382	48.55
767.778	48.55
768.173	48.57
768.568	48.54
768.963	48.54
769.358	48.56
769.753	48.56
770.148	48.56
770.542	48.57
770.937	48.59
771.332	48.59
771.726	48.61
772.121	48.61
772.515	48.62
772.91	48.62
773.304	48.63
773.699	48.61
774.093	48.63
774.487	48.66
774.881	48.68
775.275	48.65
775.669	48.66
776.063	48.64
776.457	48.65
776.851	48.63
777.245	48.62
777.638	48.62
778.032	48.64
778.425	48.68
778.819	48.68
779.212	48.69
779.606	48.73
779.999	48.75
780.392	48.79
780.786	48.8
781.179	48.82
781.572	48.88
781.965	48.9
782.358	48.9
782.751	48.89
783.143	48.88
783.536	48.87
783.929	48.85
784.322	48.86
784.714	48.88
785.107	48.91
785.499	48.91
785.891	48.89
786.284	48.93
786.676	48.94
787.068	48.93
787.46	48.97
787.852	48.98
788.245	49.01
788.636	49.01
789.028	49.02
789.42	49.03
789.812	49.06
790.204	49.07
790.595	49.06
790.987	49.08
791.378	49.1
791.77	49.1
792.161	49.1
792.553	49.1
792.944	49.11
793.335	49.1
793.726	49.1
794.117	49.11
794.508	49.07
794.899	49.09
795.29	49.12
795.681	49.13
796.072	49.14
796.463	49.17
796.853	49.15
797.244	49.17
797.634	49.17
798.025	49.2
798.415	49.23
798.806	49.25
799.196	49.26
799.586	49.25
799.976	49.26
800.366	49.27
800.756	49.3
801.146	49.36
801.536	49.39
801.926	49.42
802.316	49.42
802.706	49.41
803.095	49.45
803.485	49.44
803.874	49.47
804.264	49.48
804.653	49.5
805.043	49.51
805.432	49.51
805.821	49.49
806.21	49.51
806.599	49.53
806.988	49.53
807.377	49.54
807.766	49.56
808.155	49.52
808.544	49.54
808.933	49.56
809.321	49.55
809.71	49.59
810.098	49.62
810.487	49.58
810.875	49.59
811.264	49.6
811.652	49.61
812.04	49.62
812.428	49.67
812.816	49.68
813.204	49.66
813.592	49.67
813.98	49.66
814.368	49.68
814.756	49.7
815.144	49.69
815.531	49.7
815.919	49.71
816.306	49.74
816.694	49.74
817.081	49.75
817.469	49.77
817.856	49.78
818.243	49.79
818.63	49.79
819.017	49.79
819.404	49.8
819.791	49.8
820.178	49.81
820.565	49.79
820.952	49.79
821.339	49.76
821.725	49.74
822.112	49.75
822.498	49.76
822.885	49.76
823.271	49.75
823.657	49.73
824.044	49.74
824.43	49.75
824.816	49.74
825.202	49.74
825.588	49.75
825.974	49.76
826.36	49.73
826.746	49.71
827.132	49.69
827.517	49.7
827.903	49.74
828.289	49.73
828.674	49.68
829.06	49.65
829.445	49.62
829.83	49.62
830.216	49.61
830.601	49.61
830.986	49.59
831.371	49.57
831.756	49.55
832.141	49.5
832.526	49.48
832.911	49.49
833.295	49.5
833.68	49.5
834.065	49.48
834.449	49.46
834.834	49.43
835.218	49.43
835.603	49.4
835.987	49.38
836.371	49.37
836.755	49.34
837.139	49.31
837.524	49.32
837.908	49.34
838.291	49.35
838.675	49.33
839.059	49.34
839.443	49.32
839.827	49.33
840.21	49.32
840.594	49.33
840.977	49.34
841.361	49.33
841.744	49.29
842.127	49.24
842.511	49.21
842.894	49.22
843.277	49.21
843.66	49.18
844.043	49.19
844.426	49.2
844.809	49.18
845.191	49.17
845.574	49.17
845.957	49.2
846.339	49.21
846.722	49.2
847.104	49.23
847.487	49.23
847.869	49.27
848.252	49.26
848.634	49.29
849.016	49.32
849.398	49.32
849.78	49.34
850.162	49.32
850.544	49.33
850.926	49.36
851.307	49.33
851.689	49.32
852.071	49.3
852.452	49.3
852.834	49.29
853.215	49.3
853.597	49.3
853.978	49.29
854.359	49.31
854.741	49.3
855.122	49.29
855.503	49.33
855.884	49.32
856.265	49.35
856.646	49.35
857.026	49.36
857.407	49.37
857.788	49.37
858.169	49.41
858.549	49.4
858.93	49.42
859.31	49.42
859.69	49.42
860.071	49.45
860.451	49.43
860.831	49.44
861.211	49.43
861.591	49.4
861.971	49.4
862.351	49.4
862.731	49.4
863.111	49.41
863.491	49.41
863.87	49.39
864.25	49.36
864.629	49.36
865.009	49.36
865.388	49.36
865.768	49.36
866.147	49.36
866.526	49.35
866.905	49.34
867.284	49.33
867.663	49.34
868.042	49.35
868.421	49.36
868.8	49.37
869.179	49.37
869.558	49.37
869.936	49.34
870.315	49.34
870.693	49.34
871.072	49.35
871.45	49.37
871.828	49.36
872.207	49.33
872.585	49.32
872.963	49.34
873.341	49.34
873.719	49.32
874.097	49.35
874.475	49.36
874.853	49.37
875.23	49.39
875.608	49.34
875.986	49.35
876.363	49.38
876.741	49.39
877.118	49.38
877.495	49.38
877.873	49.41
878.25	49.45
878.627	49.45
879.004	49.45
879.381	49.45
879.758	49.47
880.135	49.49
880.512	49.48
880.889	49.49
881.265	49.49
881.642	49.48
882.019	49.47
882.395	49.44
882.772	49.41
883.148	49.39
883.524	49.36
883.901	49.35
884.277	49.32
884.653	49.29
885.029	49.25
885.405	49.26
885.781	49.25
886.157	49.23
886.532	49.24
886.908	49.22
887.284	49.23
887.659	49.2
888.035	49.17
888.411	49.18
888.786	49.18
889.161	49.19
889.537	49.16
889.912	49.15
890.287	49.14
890.662	49.1
891.037	49.1
891.412	49.06
891.787	49.05
892.162	49.05
892.536	49.02
892.911	48.99
893.286	48.98
893.66	48.96
894.035	48.95
894.409	48.94
894.784	48.94
895.158	48.94
895.532	48.94
895.906	48.96
896.281	48.96
896.655	48.98
897.029	49
897.402	49.01
897.776	49.02
898.15	49.03
898.524	49.02
898.898	49.04
899.271	49.03
899.645	49.06
900.018	49.06
900.392	49.03
900.765	49.03
901.138	49.02
901.511	49.01
901.884	49.01
902.258	49.02
902.631	49.02
903.003	49.05
903.376	49.06
903.749	49.04
904.122	49.07
904.495	49.11
904.867	49.12
905.24	49.16
905.612	49.18
905.985	49.18
906.357	49.18
906.729	49.2
907.102	49.18
907.474	49.21
907.846	49.22
908.218	49.19
908.59	49.22
908.962	49.21
909.334	49.19
909.705	49.19
910.077	49.23
910.449	49.23
910.82	49.24
911.192	49.26
911.563	49.26
911.935	49.26
912.306	49.3
912.677	49.31
913.048	49.33
913.419	49.33
913.79	49.33
914.161	49.31
914.532	49.34
914.903	49.35
915.274	49.33
915.645	49.32
916.015	49.34
916.386	49.32
916.756	49.29
917.127	49.28
917.497	49.28
917.868	49.3
918.238	49.27
918.608	49.25
918.978	49.25
919.348	49.28
919.718	49.28
920.088	49.3
920.458	49.32
920.828	49.33
921.198	49.32
921.567	49.3
921.937	49.34
922.306	49.36
922.676	49.38
923.045	49.35
923.415	49.33
923.784	49.35
924.153	49.35
924.522	49.35
924.891	49.36
925.26	49.37
925.629	49.4
925.998	49.38
926.367	49.4
926.736	49.39
927.104	49.41
927.473	49.4
927.842	49.37
928.21	49.38
928.578	49.35
928.947	49.35
929.315	49.35
929.683	49.32
930.051	49.29
930.42	49.27
930.788	49.2
931.156	49.16
931.523	49.13
931.891	49.16
932.259	49.13
932.627	49.11
932.994	49.06
933.362	49.04
933.729	49.04
934.097	49.02
934.464	48.98
934.831	49
935.199	49.02
935.566	49.05
935.933	49.03
936.3	49.01
936.667	48.99
937.034	49.01
937.401	49.03
937.767	49.08
938.134	49.06
938.501	49.16
938.867	49.24
939.234	49.28
939.6	49.29
939.967	49.32
940.333	49.37
940.699	49.47
941.065	49.52
941.431	49.6
941.798	49.63
942.163	49.69
942.529	49.7
942.895	49.74
943.261	49.74
943.627	49.81
943.992	49.87
944.358	49.91
944.723	49.94
945.089	49.93
945.454	49.92
945.82	49.87
946.185	49.94
946.55	49.91
946.915	49.89
947.28	49.86
947.645	49.78
948.01	49.7
948.375	49.66
948.74	49.6
949.104	49.65
949.469	49.63
949.834	49.58
950.198	49.47
950.562	49.45
950.927	49.41
951.291	49.38
951.655	49.36
952.02	49.35
952.384	49.28
952.748	49.29
953.112	49.18
953.476	49.11
953.839	49.07
954.203	49.03
954.567	48.99
954.931	48.89
955.294	48.86
955.658	48.83
956.021	48.79
956.385	48.78
956.748	48.67
957.111	48.62
957.474	48.57
957.837	48.52
958.2	48.55
958.563	48.51
958.926	48.51
959.289	48.51
959.652	48.46
960.015	48.43
960.377	48.45
960.74	48.47
961.102	48.53
961.465	48.56
961.827	48.58
962.189	48.52
962.552	48.53
962.914	48.51
963.276	48.56
963.638	48.57
964	48.54
964.362	48.47
964.724	48.49
965.085	48.44
965.447	48.36
965.809	48.37
966.17	48.38
966.532	48.37
966.893	48.44
967.255	48.39
967.616	48.37
967.977	48.37
968.338	48.39
968.699	48.37
969.061	48.4
969.421	48.42
969.782	48.45
970.143	48.42
970.504	48.41
970.865	48.39
971.225	48.4
971.586	48.45
971.946	48.45
972.307	48.45
972.667	48.42
973.027	48.41
973.388	48.48
973.748	48.47
974.108	48.54
974.468	48.59
974.828	48.61
975.188	48.57
975.548	48.58
975.907	48.61
976.267	48.65
976.627	48.68
976.986	48.67
977.346	48.59
977.705	48.56
978.064	48.56
978.424	48.53
978.783	48.47
979.142	48.48
979.501	48.44
979.86	48.46
980.219	48.45
980.578	48.46
980.937	48.48
981.296	48.52
981.654	48.54
982.013	48.58
982.371	48.58
982.73	48.64
983.088	48.65
983.447	48.65
983.805	48.62
984.163	48.64
984.521	48.62
984.879	48.63
985.237	48.65
985.595	48.71
985.953	48.72
986.311	48.68
986.669	48.63
987.026	48.71
987.384	48.78
987.741	48.78
988.099	48.82
988.456	48.85
988.814	48.89
989.171	48.88
989.528	48.88
989.885	48.84
990.242	48.88
990.599	48.96
990.956	48.94
991.313	48.96
991.67	49.03
992.027	49.06
992.383	49.18
992.74	49.29
993.096	49.31
993.453	49.31
993.809	49.36
994.165	49.46
994.522	49.46
994.878	49.53
995.234	49.51
995.59	49.54
995.946	49.61
996.302	49.58
996.658	49.48
997.013	49.49
997.369	49.54
997.725	49.6
998.08	49.69
998.436	49.74
998.791	49.73
999.147	49.75
999.502	49.82
999.857	49.82
1000.212	49.72
1000.567	49.88
1000.922	49.91
1001.277	49.95
1001.632	50.01
1001.987	49.97
1002.342	49.88
1002.696	49.84
1003.051	49.98
1003.406	50.08
1003.76	49.99
1004.114	50.09
1004.469	50.11
1004.823	50.55
1005.177	50.61
1005.531	50.65
1005.885	50.74
1006.239	51.01
1006.593	51.15
1006.947	51.18
1007.301	51
1007.655	51.14
1008.008	51.22
1008.362	51.32
1008.715	51.04
1009.069	51.16
1009.422	51.18
1009.776	51.23
1010.129	51.26
1010.482	51.3
1010.835	51.43
1011.188	51.59
1011.541	51.76
1011.894	51.8
1012.247	51.73
1012.6	51.9
1012.952	51.93
1013.305	52.07
1013.657	52.18
1014.01	52.15
1014.362	52.3
1014.715	52.29
1015.067	52.55
1015.419	52.69
1015.771	52.72
1016.123	52.88
1016.475	52.84
1016.827	52.83
1017.179	52.91
1017.531	53.06
1017.883	53.17
1018.234	53.14
1018.586	53.2
1018.938	53.12
1019.289	52.99
1019.64	53.26
1019.992	53.22
1020.343	53.33
1020.694	53.47
1021.045	53.47
1021.396	53.52
1021.747	53.6
1022.098	53.72
1022.449	53.58
1022.8	53.98
1023.151	54.02
1023.501	54.16
1023.852	54.34
1024.202	54.44
1024.553	54.49
1024.903	54.61
1025.253	54.73
1025.604	54.92
1025.954	54.85
1026.304	55.38
1026.654	55.33
1027.004	55.65
1027.354	55.5
1027.703	55.59
1028.053	55.58
1028.403	55.61
1028.753	55.29
1029.102	55.56
1029.452	55.79
1029.801	56.34
1030.15	56.23
1030.499	56.12
897.758	944.7
901.051	949.49
904.343	950.21
907.636	965.13
910.928	937.89
914.22	937.8
917.511	926.76
920.803	885.6
924.094	882.14
927.384	859.85
930.675	827.7
933.965	823.95
937.255	774.84
940.544	743.2
943.834	709.74
947.123	705.25
950.411	664.57
953.7	652.18
956.988	616.15
960.276	590.27
963.563	583.63
966.851	559.86
970.138	556.72
973.424	541.04
976.711	544.09
979.997	518.52
983.283	515.17
986.568	504.8
989.853	490.73
993.138	482.87
996.423	466.5
999.708	452.74
1002.992	448.39
1006.275	428.95
1009.559	425.73
1012.842	410.6
1016.125	398.88
1019.408	390.52
1022.69	387.29
1025.972	378.51
1029.254	369.31
1032.536	363.17
1035.817	356.6
1039.098	352.24
1042.379	344.5
1045.659	340.72
1048.939	332.24
1052.219	326.11
1055.498	323.3
1058.778	314.48
1062.057	309.01
1065.335	306.45
1068.614	303.4
1071.892	299.71
1075.17	291.33
1078.447	286.11
1081.724	283.74
1085.001	281.82
1088.278	276.35
1091.554	270.86
1094.83	272.21
1098.106	270.07
1101.382	266.65
1104.657	264.35
1107.932	260.23
1111.206	261.74
1114.481	256.07
1117.755	254.18
1121.029	251.85
1124.302	251.91
1127.575	247.86
1130.848	244.2
1134.121	241.38
1137.393	240.59
1140.665	236.73
1143.937	234.67
1147.208	233.03
1150.48	232.44
1153.75	228.69
1157.021	225.81
1160.291	225.86
1163.561	222.52
1166.831	222.97
1170.101	221.12
1173.37	220.74
1176.639	220.42
1179.907	219.07
1183.176	216.53
1186.444	216.28
1189.711	216.46
1192.979	216.67
1196.246	214.72
1199.513	215.65
1202.78	213.3
1206.046	213.39
1209.312	212.33
1212.578	212.39
1215.843	213.33
1219.108	212.54
1222.373	215.92
1225.638	217.08
1228.902	219.06
1232.166	219.45
1235.43	221.12
1238.693	224.18
1241.956	225.85
1245.219	228.1
1248.482	228.9
1251.744	229.09
1255.006	229.97
1258.268	225.03
1261.529	223.49
1264.79	223.08
1268.051	221.46
1271.312	218.93
1274.572	216.59
1277.832	214.53
1281.092	211.52
1284.351	209.45
1287.61	209.67
1290.869	206.31
1294.128	205.59
1297.386	205.12
1300.644	202.28
1303.902	203.29
1307.159	202.64
1310.416	202.07
1313.673	201.35
1316.93	203.4
1320.186	203.34
1323.442	203.17
1326.697	206.53
1329.953	207.5
1333.208	208.15
1336.463	210.5
1339.717	210.81
1342.972	213.19
1346.226	214.95
1349.479	215.94
1352.733	216.24
1355.986	217.32
1359.238	217.28
1362.491	217.25
1365.743	219.3
1368.995	219.44
1372.247	218.34
1375.498	218.5
1378.749	218.45
1382	216.67
1385.251	216.8
1388.501	215.29
1391.751	215.07
1395	214.07
1398.25	212.21
1401.499	209.82
1404.748	208.76
1407.996	207.17
1411.244	205.93
1414.492	205.04
1417.74	201.71
1420.987	198.71
1424.234	198.33
1427.481	196.28
1430.728	196.03
1433.974	194.82
1437.22	191.99
1440.465	191.71
1443.711	189.36
1446.956	188.12
1450.201	185.54
1453.445	184.6
1456.689	183.88
1459.933	180.66
1463.177	178.88
1466.42	176.96
1469.663	174.2
1472.906	174.1
1476.148	169.72
1479.391	168.21
1482.633	167
1485.874	164.91
1489.115	163.74
1492.356	161.94
1495.597	161.7
1498.838	159.7
1502.078	158.26
1505.318	158.06
1508.557	158.22
1511.797	158.17
1515.036	156.27
1518.274	155.73
1521.513	155.23
1524.751	155.21
1527.989	154.82
1531.227	154.27
1534.464	154.59
1537.701	154.82
1540.938	154.29
1544.174	152.21
1547.41	152.55
1550.646	152.39
1553.882	152.33
1557.117	150.38
1560.352	149.55
1563.587	149.39
1566.821	148.49
1570.055	147.88
1573.289	145.7
1576.523	146
1579.756	145.21
1582.989	144.34
1586.222	144.58
1589.454	143.52
1592.686	144.92
1595.918	144.34
1599.15	143.62
1602.381	144.29
1605.612	143.71
1608.843	144.09
1612.073	144.23
1615.303	144.97
1618.533	145.16
1621.762	144.89
1624.992	146.14
1628.221	145.66
1631.449	145
1634.678	145.7
1637.906	145.88
1641.134	145.74
1644.361	146.01
1647.588	146.12
1650.815	145.69
1654.042	145.33
1657.269	146.24
1660.495	145.84
1663.72	145.47
1666.946	146.43
1670.171	146.51
1673.396	146.82
1676.621	146.45
1679.845	146.86
1683.069	147.09
1686.293	147.64
1689.517	148.16
1692.74	147.84
1695.963	148.11
1699.185	149.76
1702.408	149.52
1705.63	149.85
1708.852	150.04
1712.073	150.51
1715.294	150.71
1718.515	151.28
1721.736	151.26
1724.956	151.86
1728.176	151.88
1731.396	152.7
1734.616	151.78
1737.835	152.9
1741.054	151.97
1744.272	151.94
1747.491	153.7
1750.709	153.66
1753.927	153.3
1757.144	153.5
1760.361	153.46
1763.578	153.65
1766.795	153.13
1770.011	154.66
1773.227	153.97
1776.443	155.9
1779.658	156.51
1782.874	156.17
1786.089	156.04
1789.303	156.53
1792.518	158.02
1795.732	157.81
1798.945	159.27
1802.159	159.48
1805.372	159.09
1808.585	162.39
1811.797	161.97
1815.01	162.65
1818.222	163.56
1821.434	166.52
1824.645	166.88
1827.856	168.76
1831.067	169.9
1834.278	170.15
1837.488	171.93
1840.698	173
1843.908	171.29
1847.117	171.96
1850.326	172.94
1853.535	171.58
1856.744	172.35
1859.952	172.25
1863.16	170.81
1866.368	169.98
1869.575	170.58
1872.782	167.87
1875.989	167.39
1879.196	166.76
1882.402	165.38
1885.608	164.87
1888.814	165.17
1892.019	164.42
1895.224	163.59
1898.429	163.23
1901.634	163.7
1904.838	162.86
1908.042	164.18
1911.246	163.73
1914.449	164.03
1917.652	164.97
1920.855	164.3
1924.058	164.43
1927.26	163.61
1930.462	164.06
1933.664	164.81
1936.865	163.23
1940.066	163.68
1943.267	162.62
1946.467	163.61
1949.668	163.97
1952.868	165.57
1956.067	166.85
1959.267	166.97
1962.466	167.73
1965.665	166.81
1968.863	167.8
1972.061	171.66
1975.259	172.69
1978.457	174.43
1981.654	174.99
1984.852	175.92
1988.048	175.21
1991.245	177.3
1994.441	178.56
1997.637	180.34
2000.833	184.21
2004.028	186.03
2007.223	186.21
2010.418	188.23
2013.613	191.54
2016.807	194.07
2020.001	195.14
2023.194	199.17
2026.388	202.58
2029.581	208.28
2032.774	208.75
2035.966	212.48
2039.158	213.34
2042.35	217.29
2045.542	218.28
2048.733	220.99
2051.924	224.76
2055.115	228.46
2058.306	228.13
2061.496	230.46
2064.686	230.26
2067.875	235.72
2071.065	236.67
2074.254	234.54
2077.442	238.82
2080.631	240.71
2083.819	243
2087.007	242.32
2090.195	245.93
2093.382	248.28
2096.569	246.8
2099.756	250.52
2102.942	250.91
2106.128	252.48
2109.314	260.41
2112.5	258.18
2115.685	264.81
2118.87	265.67
2122.055	270.94
2125.239	272.32
2128.424	275.3
2131.608	277.02
2134.791	281.4
2137.974	282.19
2141.157	284
2144.34	283.94
2147.523	289.3
2150.705	286.15
2153.887	289.63
2157.068	290.07
2160.25	288.7
2163.431	290.27
2166.611	293.75
2169.792	299
2172.972	301.47
2176.152	304.77
2179.331	307.95
2182.511	310.67
2185.69	314.38
2188.868	319.8
2192.047	319.82
2195.225	328.6
2198.403	336.91
2201.58	344.02
2204.758	350.22
2207.935	356.87
2211.111	364.12
2214.288	368.32
2217.464	369.67
2220.64	376.64
2223.815	379.84
2226.991	397.8
2230.166	398.54
2233.34	402.93
2236.515	408.91
2239.689	410.71
2242.863	412.71
2246.036	420.63
2249.209	418.69
2252.382	427.92
2255.555	439.51
2258.727	443.1
2261.9	445.28
2265.071	449.22
2268.243	458.83
2271.414	464.15
2274.585	471.55
2277.756	477.48
2280.926	481.92
2284.096	494.2
2287.266	503
2290.436	505.22
2293.605	516.41
2296.774	529.94
2299.942	546.79
2303.111	548.48
2306.279	558.56
2309.447	568.76
2312.614	584.68
2315.781	599.98
2318.948	626.24
2322.115	617.5
2325.281	654.27
2328.447	640.53
2331.613	665.06
2334.779	657.79
2337.944	689.68
2341.109	697.73
2344.274	714.86
2347.438	740.16
2350.602	741.51
2353.766	762.88
2356.929	774.63
2360.092	768.72
2363.255	823.9
2366.418	823.61
2369.58	837.71
2372.742	891.03
2375.904	913.66
2379.066	909.49
2382.227	888.79
2385.388	961.02
2388.548	962.51
2391.709	977.64
2394.869	1081.86
2398.029	1042.61
2401.188	1073.1
2404.347	1066.59
2407.506	1041.88
2410.665	1072.28
2413.823	1133.28
2416.981	1201.48
2420.139	1166.21
2423.296	1150.93
2426.453	1201.74
2429.61	1167.86
2432.767	1213.71
2435.923	1201.59
2439.079	1320.81
2442.235	1341.89
2445.391	1327.42
2448.546	1317.06
2451.701	1281.61
2454.855	1280.56
2458.009	1364.62
2461.163	1415.65
2464.317	1454.37
2467.471	1495.03
2470.624	1496.54
2473.777	1454.55
2476.929	1410.98
2480.082	1369.05
2483.234	1358.95
2486.385	1431.72
2489.537	1435.91
2492.688	1486.19
2495.839	1453.49
2498.989	1418.86
2502.14	1423.6
2505.29	1436.37
2508.439	1451.74
2511.589	1450.65
2514.738	1585.91
2517.887	1550.73
2521.035	1629.1
2524.183	1648.93
2527.331	1657.11
2530.479	1635.4
2533.627	1653.55
