Data from C_3_DEC_NC_4N_Splice17_13-58-18-114.txt Node
Date: Sat Mar 07 13:58:18 EST 2020
User: sa697716
Spectrometer: NQ5500242
Trigger mode: 0
Integration Time (sec): 1.450000E-1
Scans to average: 20
Nonlinearity correction enabled: false
Boxcar width: 5
Storing dark spectrum: false
XAxis mode: Wavelengths
Number of Pixels in Spectrum: 512
>>>>>Begin Spectral Data<<<<<
187.83	159.32
188.298	185.58
188.766	162.48
189.233	123.28
189.701	130.62
190.169	134.75
190.636	116.01
191.104	-15.79
191.571	-317.85
192.039	-457.04
192.506	-1081.14
192.974	164.94
193.441	274.73
193.908	120.05
194.375	61.16
194.842	-13.4
195.31	-71.94
195.777	-260.89
196.244	19.48
196.711	37.91
197.177	40.82
197.644	41.95
198.111	42.06
198.578	43.05
199.045	44.02
199.511	43.73
199.978	44.03
200.445	44.33
200.911	44.41
201.378	44.47
201.844	44.78
202.31	44.47
202.777	44.41
203.243	44.8
203.709	44.31
204.176	43.64
204.642	43.59
205.108	43.57
205.574	43.18
206.04	42.54
206.506	42.12
206.972	41.6
207.438	41.55
207.903	40.99
208.369	39.98
208.835	39.48
209.301	38.71
209.766	37.52
210.232	36.38
210.697	35.56
211.163	34.94
211.628	33.98
212.094	33.27
212.559	32.66
213.024	31.87
213.49	31.21
213.955	30.39
214.42	29.82
214.885	29.1
215.35	28.22
215.815	26.91
216.28	25.04
216.745	23.04
217.21	21.17
217.675	19.33
218.14	17.85
218.604	16.5
219.069	15.38
219.534	14.45
219.998	13.69
220.463	12.99
220.927	12.38
221.392	11.95
221.856	11.61
222.32	11.25
222.785	10.97
223.249	10.67
223.713	10.47
224.177	10.28
224.642	10.08
225.106	9.87
225.57	9.71
226.034	9.56
226.497	9.39
226.961	9.24
227.425	9.09
227.889	8.96
228.353	8.83
228.816	8.7
229.28	8.58
229.744	8.46
230.207	8.36
230.671	8.24
231.134	8.14
231.597	8.05
232.061	7.95
232.524	7.87
232.987	7.78
233.45	7.7
233.914	7.61
234.377	7.51
234.84	7.41
235.303	7.33
235.766	7.25
236.229	7.17
236.691	7.1
237.154	7.02
237.617	6.95
238.08	6.88
238.542	6.8
239.005	6.75
239.468	6.68
239.93	6.63
240.393	6.57
240.855	6.49
241.317	6.43
241.78	6.37
242.242	6.31
242.704	6.26
243.166	6.2
243.629	6.16
244.091	6.09
244.553	6.04
245.015	5.99
245.477	5.94
245.939	5.9
246.4	5.86
246.862	5.8
247.324	5.77
247.786	5.71
248.247	5.67
248.709	5.62
249.17	5.57
249.632	5.54
250.093	5.5
250.555	5.46
251.016	5.42
251.477	5.37
251.939	5.34
252.4	5.31
252.861	5.28
253.322	5.25
253.783	5.22
254.244	5.19
254.705	5.16
255.166	5.12
255.627	5.09
256.088	5.07
256.549	5.05
257.009	5.02
257.47	4.98
257.931	4.95
258.391	4.91
258.852	4.87
259.312	4.84
259.773	4.81
260.233	4.79
260.694	4.75
261.154	4.72
261.614	4.69
262.074	4.66
262.534	4.64
262.994	4.62
263.455	4.6
263.915	4.57
264.374	4.55
264.834	4.52
265.294	4.5
265.754	4.48
266.214	4.46
266.673	4.45
267.133	4.43
267.593	4.42
268.052	4.41
268.512	4.39
268.971	4.38
269.431	4.37
269.89	4.36
270.349	4.36
270.809	4.34
271.268	4.33
271.727	4.32
272.186	4.31
272.645	4.29
273.104	4.28
273.563	4.27
274.022	4.26
274.481	4.25
274.94	4.24
275.399	4.23
275.857	4.22
276.316	4.21
276.775	4.2
277.233	4.2
277.692	4.18
278.15	4.17
278.609	4.17
279.067	4.15
279.525	4.15
279.984	4.14
280.442	4.13
280.9	4.13
281.358	4.12
281.816	4.11
282.274	4.09
282.732	4.09
283.19	4.08
283.648	4.06
284.106	4.05
284.564	4.04
285.021	4.04
285.479	4.02
285.937	4
286.394	4
286.852	3.99
287.309	3.98
287.767	3.97
288.224	3.96
288.682	3.94
289.139	3.92
289.596	3.91
290.053	3.89
290.511	3.87
290.968	3.86
291.425	3.83
291.882	3.82
292.339	3.81
292.796	3.8
293.252	3.79
293.709	3.78
294.166	3.77
294.623	3.76
295.079	3.75
295.536	3.74
295.992	3.74
296.449	3.73
296.905	3.72
297.362	3.71
297.818	3.69
298.274	3.69
298.731	3.68
299.187	3.66
299.643	3.65
300.099	3.65
300.555	3.65
301.011	3.64
301.467	3.63
301.923	3.61
302.379	3.61
302.835	3.61
303.291	3.6
303.746	3.6
304.202	3.61
304.658	3.61
305.113	3.6
305.569	3.59
306.024	3.59
306.479	3.58
306.935	3.58
307.39	3.58
307.845	3.57
308.301	3.57
308.756	3.56
309.211	3.55
309.666	3.56
310.121	3.56
310.576	3.55
311.031	3.55
311.486	3.55
311.94	3.56
312.395	3.55
312.85	3.55
313.305	3.55
313.759	3.55
314.214	3.54
314.668	3.53
315.123	3.52
315.577	3.51
316.032	3.51
316.486	3.5
316.94	3.49
317.394	3.49
317.849	3.47
318.303	3.46
318.757	3.45
319.211	3.45
319.665	3.44
320.119	3.43
320.572	3.42
321.026	3.4
321.48	3.39
321.934	3.38
322.387	3.37
322.841	3.36
323.295	3.37
323.748	3.36
324.202	3.35
324.655	3.34
325.108	3.34
325.562	3.34
326.015	3.34
326.468	3.34
326.921	3.35
327.374	3.34
327.827	3.34
328.28	3.33
328.733	3.33
329.186	3.34
329.639	3.34
330.092	3.33
330.545	3.33
330.997	3.33
331.45	3.33
331.903	3.33
332.355	3.34
332.808	3.33
333.26	3.33
333.713	3.33
334.165	3.33
334.617	3.33
335.069	3.33
335.522	3.33
335.974	3.33
336.426	3.32
336.878	3.31
337.33	3.31
337.782	3.32
338.234	3.33
338.686	3.33
339.137	3.33
339.589	3.31
340.041	3.31
340.493	3.31
340.944	3.28
341.396	3.28
341.847	3.27
342.299	3.26
342.75	3.25
343.201	3.23
343.653	3.22
344.104	3.21
344.555	3.2
345.006	3.18
345.457	3.18
345.908	3.18
346.359	3.19
346.81	3.18
347.261	3.17
347.712	3.16
348.163	3.15
348.613	3.14
349.064	3.14
349.515	3.14
349.965	3.13
350.416	3.12
350.866	3.12
351.317	3.1
351.767	3.1
352.217	3.1
352.668	3.1
353.118	3.11
353.568	3.1
354.018	3.12
354.468	3.12
354.918	3.12
355.368	3.13
355.818	3.13
356.268	3.14
356.718	3.15
357.168	3.14
357.617	3.13
358.067	3.13
358.517	3.14
358.966	3.14
359.416	3.14
359.865	3.14
360.315	3.14
360.764	3.14
361.213	3.14
361.663	3.13
362.112	3.14
362.561	3.15
363.01	3.15
363.459	3.14
363.908	3.13
364.357	3.12
364.806	3.12
365.255	3.12
365.703	3.13
366.152	3.14
366.601	3.14
367.05	3.14
367.498	3.14
367.947	3.16
368.395	3.17
368.844	3.18
369.292	3.19
369.74	3.21
370.189	3.21
370.637	3.21
371.085	3.21
371.533	3.21
371.981	3.22
372.429	3.23
372.877	3.23
373.325	3.23
373.773	3.24
374.221	3.25
374.669	3.26
375.116	3.27
375.564	3.28
376.012	3.3
376.459	3.31
376.907	3.33
377.354	3.35
377.801	3.37
378.249	3.39
378.696	3.41
379.143	3.42
379.591	3.43
380.038	3.46
380.485	3.47
380.932	3.5
381.379	3.52
381.826	3.53
382.273	3.55
382.72	3.56
383.166	3.59
383.613	3.61
384.06	3.62
384.506	3.65
384.953	3.67
385.4	3.7
385.846	3.73
386.292	3.75
386.739	3.77
387.185	3.79
387.631	3.82
388.078	3.84
388.524	3.86
388.97	3.88
389.416	3.91
389.862	3.92
390.308	3.95
390.754	3.97
391.2	3.99
391.645	4.01
392.091	4.04
392.537	4.06
392.983	4.08
393.428	4.11
393.874	4.14
394.319	4.16
394.765	4.17
395.21	4.18
395.655	4.2
396.101	4.22
396.546	4.23
396.991	4.25
397.436	4.27
397.881	4.29
398.326	4.3
398.771	4.31
399.216	4.32
399.661	4.33
400.106	4.34
400.551	4.35
400.995	4.34
401.44	4.35
401.885	4.34
402.329	4.34
402.774	4.33
403.218	4.35
403.663	4.35
404.107	4.36
404.551	4.37
404.995	4.36
405.44	4.36
405.884	4.37
406.328	4.37
406.772	4.37
407.216	4.36
407.66	4.35
408.104	4.33
408.547	4.33
408.991	4.33
409.435	4.32
409.879	4.31
410.322	4.32
410.766	4.32
411.209	4.33
411.653	4.35
412.096	4.36
412.54	4.36
412.983	4.36
413.426	4.39
413.869	4.4
414.312	4.42
414.756	4.44
415.199	4.43
415.642	4.44
416.085	4.43
416.527	4.42
416.97	4.41
417.413	4.42
417.856	4.41
418.298	4.39
418.741	4.38
419.184	4.36
419.626	4.35
420.069	4.35
420.511	4.35
420.953	4.36
421.396	4.36
421.838	4.36
422.28	4.37
422.722	4.4
423.164	4.4
423.606	4.41
424.048	4.41
424.49	4.41
424.932	4.41
425.374	4.39
425.816	4.35
426.258	4.34
426.699	4.34
427.141	4.32
427.582	4.3
428.024	4.3
428.465	4.29
428.907	4.28
429.348	4.26
429.789	4.27
430.231	4.28
430.672	4.3
431.113	4.3
431.554	4.31
431.995	4.33
432.436	4.34
432.877	4.33
433.318	4.35
433.759	4.37
434.2	4.4
434.64	4.4
435.081	4.42
435.522	4.44
435.962	4.47
436.403	4.48
436.843	4.49
437.284	4.49
437.724	4.51
438.164	4.5
438.604	4.52
439.045	4.52
439.485	4.55
439.925	4.54
440.365	4.55
440.805	4.54
441.245	4.56
441.685	4.57
442.125	4.6
442.564	4.6
443.004	4.61
443.444	4.59
443.883	4.6
444.323	4.59
444.762	4.6
445.202	4.6
445.641	4.63
446.081	4.65
446.52	4.65
446.959	4.67
447.398	4.71
447.837	4.73
448.276	4.76
448.716	4.77
449.154	4.8
449.593	4.82
450.032	4.84
450.471	4.83
450.91	4.83
451.349	4.86
451.787	4.85
452.226	4.83
452.664	4.83
453.103	4.83
453.541	4.83
453.98	4.84
454.418	4.82
454.856	4.81
455.295	4.79
455.733	4.78
456.171	4.76
456.609	4.76
457.047	4.74
457.485	4.74
457.923	4.73
458.361	4.73
458.798	4.73
459.236	4.72
459.674	4.72
460.111	4.72
460.549	4.72
460.987	4.72
461.424	4.73
461.862	4.74
462.299	4.76
462.736	4.76
463.173	4.76
463.611	4.77
464.048	4.78
464.485	4.79
464.922	4.8
465.359	4.81
465.796	4.83
466.233	4.82
466.67	4.83
467.106	4.84
467.543	4.83
467.98	4.83
468.416	4.82
468.853	4.81
469.29	4.8
469.726	4.81
470.162	4.81
470.599	4.79
471.035	4.78
471.471	4.78
471.907	4.77
472.344	4.78
472.78	4.79
473.216	4.79
473.652	4.79
474.088	4.79
474.523	4.78
474.959	4.78
475.395	4.77
475.831	4.77
476.266	4.76
476.702	4.75
477.138	4.75
477.573	4.75
478.008	4.75
478.444	4.74
478.879	4.76
479.314	4.76
479.75	4.76
480.185	4.76
480.62	4.76
481.055	4.75
481.49	4.75
481.925	4.76
482.36	4.76
482.795	4.76
483.229	4.76
483.664	4.76
484.099	4.74
484.534	4.75
484.968	4.77
485.403	4.78
485.837	4.8
486.271	4.83
486.706	4.84
487.14	4.84
487.574	4.86
488.009	4.89
488.443	4.91
488.877	4.95
489.311	4.99
489.745	5.02
490.179	5.05
490.613	5.09
491.046	5.12
491.48	5.17
491.914	5.23
492.348	5.27
492.781	5.34
493.215	5.4
493.648	5.46
494.082	5.51
494.515	5.56
494.948	5.64
495.382	5.71
495.815	5.79
496.248	5.87
496.681	5.95
497.114	6.04
497.547	6.11
497.98	6.2
498.413	6.29
498.846	6.4
499.279	6.51
499.711	6.61
500.144	6.72
500.577	6.84
501.009	6.95
501.442	7.07
501.874	7.2
502.306	7.34
502.739	7.5
503.171	7.65
503.603	7.8
504.036	7.97
504.468	8.15
504.9	8.3
505.332	8.48
505.764	8.67
506.196	8.86
506.627	9.05
507.059	9.26
507.491	9.45
507.923	9.66
508.354	9.88
508.786	10.09
509.217	10.31
509.649	10.55
510.08	10.78
510.512	11.03
510.943	11.27
511.374	11.52
511.805	11.77
512.237	12.03
512.668	12.3
513.099	12.57
513.53	12.84
513.961	13.11
514.391	13.39
514.822	13.68
515.253	13.96
515.684	14.25
516.114	14.53
516.545	14.82
516.975	15.1
517.406	15.37
517.836	15.65
518.267	15.95
518.697	16.22
519.127	16.48
519.558	16.75
519.988	17.02
520.418	17.28
520.848	17.54
521.278	17.79
521.708	18.2
522.138	18.46
522.567	18.69
522.997	18.92
523.427	19.16
523.857	19.39
524.286	19.61
524.716	19.83
525.145	20.03
525.575	20.25
526.004	20.46
526.433	20.49
526.863	20.68
527.292	20.87
527.721	21.05
528.15	21.2
528.579	21.36
529.008	21.51
529.437	21.65
529.866	21.78
530.295	21.9
530.724	22.02
531.152	22.14
531.581	22.24
532.01	22.34
532.438	22.43
532.867	22.52
533.295	22.61
533.723	22.68
534.152	22.75
534.58	22.83
535.008	22.9
535.436	22.97
535.865	23.02
536.293	23.08
536.721	23.12
537.149	23.17
537.576	23.23
538.004	23.27
538.432	23.3
538.86	23.33
539.287	23.35
539.715	23.39
540.143	23.4
540.57	23.42
540.998	23.43
541.425	23.45
541.852	23.46
542.28	23.48
542.707	23.5
543.134	23.53
543.561	23.57
543.988	23.61
544.415	23.62
544.842	23.65
545.269	23.68
545.696	23.71
546.123	23.74
546.549	23.79
546.976	23.82
547.403	23.85
547.829	23.85
548.256	23.87
548.682	23.89
549.108	23.91
549.535	23.92
549.961	23.92
550.387	23.93
550.813	23.93
551.24	23.93
551.666	23.92
552.092	23.92
552.518	23.94
552.943	23.92
553.369	23.9
553.795	23.88
554.221	23.87
554.646	23.84
555.072	23.82
555.498	23.79
555.923	23.75
556.349	23.7
556.774	23.64
557.199	23.58
557.625	23.53
558.05	23.49
558.475	23.43
558.9	23.36
559.325	23.29
559.75	23.22
560.175	23.12
560.6	23.04
561.025	22.95
561.449	22.87
561.874	22.77
562.299	22.66
562.723	22.55
563.148	22.42
563.572	22.29
563.997	22.16
564.421	22.02
564.846	21.89
565.27	21.75
565.694	21.62
566.118	21.47
566.542	21.33
566.966	21.18
567.39	21.05
567.814	20.9
568.238	20.75
568.662	20.61
569.086	20.48
569.509	20.35
569.933	20.21
570.357	20.06
570.78	19.92
571.204	19.78
571.627	19.65
572.05	19.51
572.474	19.39
572.897	19.28
573.32	19.17
573.743	19.06
574.166	18.93
574.589	18.82
575.012	18.72
575.435	18.62
575.858	18.5
576.281	18.4
576.704	18.31
577.126	18.21
577.549	18.11
577.972	18
578.394	17.9
578.817	17.81
579.239	17.73
579.661	17.64
580.084	17.56
580.506	17.49
580.928	17.41
581.35	17.33
581.772	17.25
582.194	17.18
582.616	17.12
583.038	17.04
583.46	16.95
583.882	16.89
584.303	16.82
584.725	16.75
585.147	16.69
585.568	16.63
585.99	16.57
586.411	16.51
586.833	16.44
587.254	16.37
587.675	16.33
588.096	16.27
588.518	16.21
588.939	16.16
589.36	16.1
589.781	16.04
590.202	16
590.623	15.93
591.043	15.87
591.464	15.84
591.885	15.8
592.305	15.76
592.726	15.74
593.147	15.69
593.567	15.66
593.987	15.63
594.408	15.59
594.828	15.54
595.248	15.53
595.669	15.49
596.089	15.46
596.509	15.43
596.929	15.4
597.349	15.36
597.769	15.33
598.189	15.29
598.608	15.27
599.028	15.24
599.448	15.21
599.867	15.18
600.287	15.14
600.706	15.1
601.126	15.05
601.545	15.01
601.965	14.96
602.384	14.9
602.803	14.86
603.222	14.8
603.641	14.74
604.061	14.68
604.48	14.62
604.898	14.56
605.317	14.51
605.736	14.46
606.155	14.4
606.574	14.33
606.992	14.28
607.411	14.22
607.829	14.14
608.248	14.06
608.666	13.99
609.085	13.92
609.503	13.85
609.921	13.78
610.339	13.7
610.758	13.63
611.176	13.54
611.594	13.47
612.012	13.38
612.43	13.32
612.847	13.25
613.265	13.19
613.683	13.12
614.101	13.05
614.518	12.97
614.936	12.9
615.353	12.83
615.771	12.77
616.188	12.71
616.606	12.65
617.023	12.59
617.44	12.55
617.857	12.48
618.274	12.42
618.691	12.36
619.108	12.32
619.525	12.27
619.942	12.22
620.359	12.18
620.776	12.14
621.192	12.11
621.609	12.09
622.026	12.06
622.442	12.03
622.859	12
623.275	11.99
623.691	11.97
624.108	11.97
624.524	11.96
624.94	11.94
625.356	11.93
625.772	11.9
626.188	11.88
626.604	11.87
627.02	11.85
627.436	11.84
627.852	11.83
628.268	11.81
628.683	11.79
629.099	11.77
629.514	11.75
629.93	11.73
630.345	11.7
630.761	11.67
631.176	11.64
631.591	11.6
632.007	11.56
632.422	11.5
632.837	11.45
633.252	11.38
633.667	11.31
634.082	11.22
634.497	11.14
634.911	11.05
635.326	10.96
635.741	10.86
636.155	10.75
636.57	10.66
636.984	10.55
637.399	10.44
637.813	10.33
638.228	10.19
638.642	10.08
639.056	9.95
639.47	9.84
639.884	9.72
640.298	9.58
640.712	9.46
641.126	9.32
641.54	9.19
641.954	9.06
642.368	8.93
642.781	8.82
643.195	8.7
643.609	8.59
644.022	8.48
644.436	8.37
644.849	8.27
645.262	8.17
645.676	8.08
646.089	7.99
646.502	7.91
646.915	7.85
647.328	7.78
647.741	7.72
648.154	7.66
648.567	7.6
648.98	7.55
649.393	7.51
649.805	7.47
650.218	7.43
650.631	7.4
651.043	7.36
651.456	7.32
651.868	7.28
652.28	7.25
652.693	7.21
653.105	7.18
653.517	7.14
653.929	7.09
654.341	7.04
654.753	6.98
655.165	6.93
655.577	6.88
655.989	6.81
656.401	6.74
656.813	6.67
657.224	6.6
657.636	6.5
658.047	6.43
658.459	6.35
658.87	6.27
659.282	6.19
659.693	6.1
660.104	6.01
660.515	5.93
660.926	5.86
661.338	5.78
661.749	5.71
662.159	5.65
662.57	5.58
662.981	5.51
663.392	5.44
663.803	5.38
664.213	5.33
664.624	5.27
665.035	5.22
665.445	5.17
665.855	5.12
666.266	5.09
666.676	5.06
667.086	5.02
667.497	5
667.907	4.98
668.317	4.95
668.727	4.93
669.137	4.91
669.547	4.9
669.956	4.89
670.366	4.89
670.776	4.88
671.186	4.88
671.595	4.89
672.005	4.89
672.414	4.89
672.824	4.91
673.233	4.93
673.642	4.95
674.052	4.97
674.461	4.99
674.87	5.01
675.279	5.03
675.688	5.06
676.097	5.1
676.506	5.13
676.915	5.18
677.323	5.21
677.732	5.26
678.141	5.3
678.549	5.35
678.958	5.4
679.366	5.47
679.775	5.53
680.183	5.61
680.592	5.69
681	5.78
681.408	5.87
681.816	5.97
682.224	6.09
682.632	6.23
683.04	6.37
683.448	6.54
683.856	6.7
684.264	6.89
684.671	7.09
685.079	7.31
685.487	7.55
685.894	7.84
686.302	8.13
686.709	8.45
687.116	8.79
687.524	9.14
687.931	9.53
688.338	9.95
688.745	10.39
689.152	10.84
689.559	11.33
689.966	11.81
690.373	12.31
690.78	12.83
691.187	13.36
691.593	13.91
692	14.46
692.407	14.99
692.813	15.55
693.22	16.1
693.626	16.66
694.032	17.22
694.439	17.8
694.845	18.36
695.251	18.92
695.657	19.47
696.063	20.02
696.469	20.59
696.875	21.15
697.281	21.69
697.687	22.22
698.093	22.75
698.498	23.27
698.904	23.78
699.31	24.28
699.715	24.8
700.12	25.28
700.526	25.74
700.931	26.2
701.337	26.65
701.742	27.09
702.147	27.54
702.552	27.97
702.957	28.36
703.362	28.76
703.767	29.15
704.172	29.53
704.577	29.92
704.981	30.29
705.386	30.65
705.791	31
706.195	31.34
706.6	31.68
707.004	32.02
707.408	32.35
707.813	32.68
708.217	33.01
708.621	33.34
709.025	33.65
709.43	33.96
709.834	34.26
710.237	34.57
710.641	34.86
711.045	35.13
711.449	35.42
711.853	35.72
712.256	35.95
712.66	36.2
713.064	36.45
713.467	36.69
713.87	36.94
714.274	37.16
714.677	37.39
715.08	37.61
715.484	37.83
715.887	38.06
716.29	38.26
716.693	38.51
717.096	38.72
717.499	38.93
717.901	39.13
718.304	39.33
718.707	39.52
719.109	39.73
719.512	39.94
719.915	40.15
720.317	40.3
720.719	40.45
721.122	40.62
721.524	40.77
721.926	40.94
722.328	41.09
722.731	41.24
723.133	41.39
723.535	41.51
723.937	41.63
724.338	41.76
724.74	41.94
725.142	42.16
725.544	42.28
725.945	42.43
726.347	42.51
726.748	42.62
727.15	42.71
727.551	42.84
727.952	42.93
728.354	43.02
728.755	43.11
729.156	43.17
729.557	43.15
729.958	43.21
730.359	43.26
730.76	43.38
731.161	43.45
731.562	43.54
731.962	43.58
732.363	43.65
732.763	43.72
733.164	43.79
733.564	43.83
733.965	43.89
734.365	43.95
734.766	44
735.166	44.02
735.566	44.08
735.966	44.11
736.366	44.14
736.766	44.16
737.166	44.21
737.566	44.22
737.966	44.26
738.365	44.29
738.765	44.34
739.165	44.39
739.564	44.44
739.964	44.45
740.363	44.47
740.763	44.53
741.162	44.57
741.561	44.58
741.96	44.59
742.36	44.62
742.759	44.67
743.158	44.67
743.557	44.66
743.955	44.68
744.354	44.71
744.753	44.76
745.152	44.8
745.55	44.82
745.949	44.86
746.348	44.9
746.746	44.88
747.144	44.91
747.543	44.94
747.941	44.97
748.339	44.95
748.737	44.96
749.136	44.96
749.534	44.94
749.932	44.93
750.33	44.93
750.727	44.95
751.125	44.98
751.523	44.95
751.921	44.96
752.318	44.97
752.716	44.98
753.113	44.99
753.511	45.01
753.908	45.03
754.305	45.03
754.703	45.03
755.1	45.03
755.497	45.03
755.894	45.05
756.291	45.03
756.688	45
757.085	45.03
757.482	45.02
757.878	45
758.275	44.99
758.672	44.98
759.068	45.01
759.465	45.01
759.861	45.01
760.258	45.01
760.654	45.03
761.05	45.06
761.447	45.04
761.843	45.03
762.239	45.02
762.635	45.04
763.031	45.04
763.427	45
763.822	44.99
764.218	44.98
764.614	44.98
765.01	44.96
765.405	44.95
765.801	44.93
766.196	44.95
766.592	44.94
766.987	44.94
767.382	44.93
767.778	44.94
768.173	44.95
768.568	44.95
768.963	44.94
769.358	44.95
769.753	44.95
770.148	44.97
770.542	44.95
770.937	44.97
771.332	44.94
771.726	44.95
772.121	44.95
772.515	44.95
772.91	44.95
773.304	44.96
773.699	44.93
774.093	44.9
774.487	44.89
774.881	44.92
775.275	44.92
775.669	44.92
776.063	44.92
776.457	44.9
776.851	44.87
777.245	44.84
777.638	44.85
778.032	44.86
778.425	44.93
778.819	44.92
779.212	44.9
779.606	44.91
779.999	44.93
780.392	44.94
780.786	44.96
781.179	44.99
781.572	45.04
781.965	45.04
782.358	45.05
782.751	45.03
783.143	45.04
783.536	45.05
783.929	45.06
784.322	45.1
784.714	45.11
785.107	45.13
785.499	45.13
785.891	45.13
786.284	45.12
786.676	45.13
787.068	45.12
787.46	45.12
787.852	45.13
788.245	45.14
788.636	45.07
789.028	45.07
789.42	45.04
789.812	45.03
790.204	45.03
790.595	45.05
790.987	45.08
791.378	45.1
791.77	45.11
792.161	45.09
792.553	45.1
792.944	45.12
793.335	45.12
793.726	45.14
794.117	45.14
794.508	45.15
794.899	45.15
795.29	45.13
795.681	45.1
796.072	45.11
796.463	45.16
796.853	45.15
797.244	45.13
797.634	45.11
798.025	45.13
798.415	45.11
798.806	45.09
799.196	45.08
799.586	45.09
799.976	45.11
800.366	45.12
800.756	45.09
801.146	45.09
801.536	45.11
801.926	45.14
802.316	45.15
802.706	45.2
803.095	45.24
803.485	45.27
803.874	45.27
804.264	45.27
804.653	45.27
805.043	45.27
805.432	45.3
805.821	45.32
806.21	45.33
806.599	45.32
806.988	45.33
807.377	45.33
807.766	45.34
808.155	45.34
808.544	45.37
808.933	45.4
809.321	45.42
809.71	45.4
810.098	45.38
810.487	45.37
810.875	45.37
811.264	45.39
811.652	45.41
812.04	45.39
812.428	45.42
812.816	45.41
813.204	45.4
813.592	45.37
813.98	45.38
814.368	45.39
814.756	45.43
815.144	45.44
815.531	45.42
815.919	45.4
816.306	45.39
816.694	45.37
817.081	45.38
817.469	45.38
817.856	45.38
818.243	45.37
818.63	45.35
819.017	45.33
819.404	45.31
819.791	45.31
820.178	45.3
820.565	45.29
820.952	45.29
821.339	45.28
821.725	45.29
822.112	45.32
822.498	45.35
822.885	45.37
823.271	45.36
823.657	45.33
824.044	45.34
824.43	45.36
824.816	45.38
825.202	45.38
825.588	45.38
825.974	45.37
826.36	45.34
826.746	45.32
827.132	45.3
827.517	45.32
827.903	45.36
828.289	45.37
828.674	45.37
829.06	45.36
829.445	45.34
829.83	45.34
830.216	45.31
830.601	45.32
830.986	45.31
831.371	45.31
831.756	45.32
832.141	45.3
832.526	45.26
832.911	45.24
833.295	45.23
833.68	45.24
834.065	45.23
834.449	45.22
834.834	45.22
835.218	45.21
835.603	45.2
835.987	45.17
836.371	45.17
836.755	45.19
837.139	45.18
837.524	45.19
837.908	45.2
838.291	45.21
838.675	45.21
839.059	45.18
839.443	45.18
839.827	45.15
840.21	45.12
840.594	45.12
840.977	45.1
841.361	45.09
841.744	45.05
842.127	45
842.511	44.98
842.894	44.96
843.277	44.97
843.66	44.94
844.043	44.96
844.426	44.98
844.809	44.96
845.191	44.96
845.574	44.96
845.957	44.98
846.339	45
846.722	45.01
847.104	45.04
847.487	45.03
847.869	45.03
848.252	45.02
848.634	45.03
849.016	45.05
849.398	45.07
849.78	45.07
850.162	45.05
850.544	45.05
850.926	45.05
851.307	45.05
851.689	45.06
852.071	45.07
852.452	45.06
852.834	45.05
853.215	45.04
853.597	45.03
853.978	45.03
854.359	45.05
854.741	45.04
855.122	45.03
855.503	44.99
855.884	45
856.265	44.99
856.646	45
857.026	45.02
857.407	45.01
857.788	45.02
858.169	45.04
858.549	45.02
858.93	45.04
859.31	45.04
859.69	45.07
860.071	45.08
860.451	45.11
860.831	45.1
861.211	45.08
861.591	45.08
861.971	45.05
862.351	45.04
862.731	45.07
863.111	45.08
863.491	45.08
863.87	45.06
864.25	45.03
864.629	45.02
865.009	45.04
865.388	45.05
865.768	45.05
866.147	45.05
866.526	45.06
866.905	45.03
867.284	45.02
867.663	45.03
868.042	45.03
868.421	45.04
868.8	45.05
869.179	45.06
869.558	45.06
869.936	45.05
870.315	45.05
870.693	45.03
871.072	45.04
871.45	45.05
871.828	45.05
872.207	45.08
872.585	45.08
872.963	45.07
873.341	45.06
873.719	45.06
874.097	45.06
874.475	45.05
874.853	45.06
875.23	45.09
875.608	45.09
875.986	45.11
876.363	45.11
876.741	45.11
877.118	45.11
877.495	45.09
877.873	45.11
878.25	45.11
878.627	45.13
879.004	45.12
879.381	45.09
879.758	45.06
880.135	45.05
880.512	45.04
880.889	45.05
881.265	45.02
881.642	45.03
882.019	45.02
882.395	45
882.772	44.99
883.148	44.98
883.524	44.96
883.901	44.95
884.277	44.93
884.653	44.89
885.029	44.87
885.405	44.88
885.781	44.86
886.157	44.86
886.532	44.88
886.908	44.87
887.284	44.86
887.659	44.84
888.035	44.84
888.411	44.83
888.786	44.83
889.161	44.85
889.537	44.84
889.912	44.84
890.287	44.84
890.662	44.82
891.037	44.83
891.412	44.81
891.787	44.79
892.162	44.78
892.536	44.77
892.911	44.76
893.286	44.74
893.66	44.74
894.035	44.74
894.409	44.7
894.784	44.71
895.158	44.69
895.532	44.72
895.906	44.75
896.281	44.74
896.655	44.76
897.029	44.76
897.402	44.76
897.776	44.75
898.15	44.75
898.524	44.77
898.898	44.73
899.271	44.77
899.645	44.76
900.018	44.75
900.392	44.76
900.765	44.75
901.138	44.75
901.511	44.74
901.884	44.75
902.258	44.78
902.631	44.78
903.003	44.84
903.376	44.81
903.749	44.77
904.122	44.78
904.495	44.81
904.867	44.81
905.24	44.85
905.612	44.88
905.985	44.87
906.357	44.84
906.729	44.86
907.102	44.85
907.474	44.86
907.846	44.88
908.218	44.87
908.59	44.9
908.962	44.91
909.334	44.89
909.705	44.86
910.077	44.87
910.449	44.9
910.82	44.87
911.192	44.85
911.563	44.85
911.935	44.86
912.306	44.86
912.677	44.83
913.048	44.85
913.419	44.84
913.79	44.85
914.161	44.88
914.532	44.86
914.903	44.88
915.274	44.88
915.645	44.89
916.015	44.9
916.386	44.89
916.756	44.89
917.127	44.89
917.497	44.91
917.868	44.92
918.238	44.9
918.608	44.92
918.978	44.92
919.348	44.95
919.718	44.96
920.088	44.97
920.458	44.98
920.828	44.96
921.198	44.91
921.567	44.87
921.937	44.88
922.306	44.84
922.676	44.83
923.045	44.8
923.415	44.74
923.784	44.72
924.153	44.7
924.522	44.72
924.891	44.74
925.26	44.78
925.629	44.83
925.998	44.82
926.367	44.84
926.736	44.85
927.104	44.89
927.473	44.92
927.842	44.92
928.21	44.89
928.578	44.86
928.947	44.84
929.315	44.82
929.683	44.76
930.051	44.72
930.42	44.72
930.788	44.68
931.156	44.62
931.523	44.58
931.891	44.59
932.259	44.61
932.627	44.62
932.994	44.64
933.362	44.63
933.729	44.65
934.097	44.66
934.464	44.66
934.831	44.65
935.199	44.69
935.566	44.73
935.933	44.7
936.3	44.71
936.667	44.7
937.034	44.71
937.401	44.76
937.767	44.75
938.134	44.74
938.501	44.74
938.867	44.77
939.234	44.74
939.6	44.76
939.967	44.77
940.333	44.72
940.699	44.75
941.065	44.7
941.431	44.67
941.798	44.67
942.163	44.67
942.529	44.68
942.895	44.73
943.261	44.75
943.627	44.73
943.992	44.71
944.358	44.76
944.723	44.76
945.089	44.69
945.454	44.72
945.82	44.75
946.185	44.75
946.55	44.68
946.915	44.6
947.28	44.57
947.645	44.6
948.01	44.63
948.375	44.59
948.74	44.55
949.104	44.58
949.469	44.52
949.834	44.45
950.198	44.44
950.562	44.44
950.927	44.46
951.291	44.43
951.655	44.3
952.02	44.27
952.384	44.27
952.748	44.25
953.112	44.21
953.476	44.17
953.839	44.14
954.203	44.1
954.567	44.07
954.931	43.99
955.294	44
955.658	44.08
956.021	44.06
956.385	44.05
956.748	44
957.111	44.02
957.474	44
957.837	43.99
958.2	43.95
958.563	43.95
958.926	43.93
959.289	43.94
959.652	43.88
960.015	43.87
960.377	43.82
960.74	43.84
961.102	43.86
961.465	43.92
961.827	43.98
962.189	44.06
962.552	44.08
962.914	44.09
963.276	44.07
963.638	44.08
964	44.02
964.362	44.07
964.724	44.06
965.085	44.01
965.447	43.88
965.809	43.82
966.17	43.78
966.532	43.76
966.893	43.79
967.255	43.77
967.616	43.74
967.977	43.8
968.338	43.75
968.699	43.73
969.061	43.76
969.421	43.83
969.782	43.84
970.143	43.78
970.504	43.81
970.865	43.81
971.225	43.75
971.586	43.79
971.946	43.82
972.307	43.8
972.667	43.8
973.027	43.83
973.388	43.82
973.748	43.83
974.108	43.87
974.468	43.84
974.828	43.92
975.188	43.96
975.548	43.93
975.907	43.88
976.267	43.89
976.627	43.88
976.986	43.83
977.346	43.82
977.705	43.74
978.064	43.85
978.424	43.85
978.783	43.71
979.142	43.7
979.501	43.71
979.86	43.71
980.219	43.74
980.578	43.75
980.937	43.77
981.296	43.81
981.654	43.86
982.013	43.78
982.371	43.77
982.73	43.83
983.088	43.86
983.447	43.89
983.805	43.85
984.163	43.82
984.521	43.82
984.879	43.83
985.237	43.77
985.595	43.85
985.953	43.88
986.311	43.85
986.669	43.83
987.026	43.79
987.384	43.77
987.741	43.74
988.099	43.84
988.456	43.84
988.814	43.9
989.171	43.94
989.528	43.94
989.885	43.87
990.242	43.91
990.599	43.99
990.956	44.05
991.313	44.09
991.67	44.21
992.027	44.25
992.383	44.26
992.74	44.21
993.096	44.21
993.453	44.18
993.809	44.23
994.165	44.28
994.522	44.23
994.878	44.22
995.234	44.16
995.59	44.14
995.946	44.06
996.302	44.05
996.658	44.07
997.013	44.15
997.369	44.18
997.725	44.23
998.08	44.2
998.436	44.23
998.791	44.31
999.147	44.34
999.502	44.35
999.857	44.35
1000.212	44.3
1000.567	44.4
1000.922	44.31
1001.277	44.26
1001.632	44.17
1001.987	44.19
1002.342	44.19
1002.696	44.07
1003.051	44.14
1003.406	44.33
1003.76	44.28
1004.114	44.32
1004.469	44.23
1004.823	44.53
1005.177	44.58
1005.531	44.75
1005.885	44.77
1006.239	44.76
1006.593	44.95
1006.947	44.85
1007.301	44.61
1007.655	44.67
1008.008	44.76
1008.362	44.81
1008.715	44.56
1009.069	44.66
1009.422	44.64
1009.776	44.66
1010.129	44.75
1010.482	44.73
1010.835	44.87
1011.188	44.99
1011.541	45.04
1011.894	45
1012.247	44.96
1012.6	44.97
1012.952	44.96
1013.305	45
1013.657	45.07
1014.01	45.16
1014.362	45.21
1014.715	45.27
1015.067	45.5
1015.419	45.68
1015.771	45.6
1016.123	45.72
1016.475	45.79
1016.827	45.87
1017.179	45.78
1017.531	45.65
1017.883	45.55
1018.234	45.74
1018.586	45.82
1018.938	45.72
1019.289	45.59
1019.64	45.77
1019.992	45.78
1020.343	45.74
1020.694	45.67
1021.045	45.85
1021.396	46.08
1021.747	46.36
1022.098	46.28
1022.449	46.08
1022.8	46.09
1023.151	46.01
1023.501	46.01
1023.852	46.15
1024.202	46.26
1024.553	46.24
1024.903	46.28
1025.253	46.36
1025.604	46.08
1025.954	45.76
1026.304	46.07
1026.654	45.98
1027.004	45.94
1027.354	45.99
1027.703	45.71
1028.053	45.73
1028.403	45.65
1028.753	45.28
1029.102	45.32
1029.452	45.47
1029.801	45.85
1030.15	45.63
1030.499	45.62
897.758	1507.15
901.051	1508.89
904.343	1509.43
907.636	1532.95
910.928	1494
914.22	1494.06
917.511	1468.2
920.803	1406.81
924.094	1397.96
927.384	1365.81
930.675	1309.39
933.965	1300.64
937.255	1227.55
940.544	1175.38
943.834	1119.59
947.123	1108.05
950.411	1040.01
953.7	1019.65
956.988	967.58
960.276	926.28
963.563	912.03
966.851	879.77
970.138	871.72
973.424	843.52
976.711	848.06
979.997	804.81
983.283	802.61
986.568	786.3
989.853	762.43
993.138	747
996.423	719.92
999.708	699.16
1002.992	691.92
1006.275	661.14
1009.559	654.15
1012.842	632.36
1016.125	615.77
1019.408	603.15
1022.69	596.09
1025.972	584.63
1029.254	570.51
1032.536	561.03
1035.817	549.71
1039.098	542.12
1042.379	530.32
1045.659	525.19
1048.939	510.85
1052.219	499.83
1055.498	492.91
1058.778	480.76
1062.057	468.81
1065.335	463.48
1068.614	457.38
1071.892	453.1
1075.17	437.35
1078.447	429.73
1081.724	426.57
1085.001	422.99
1088.278	415.84
1091.554	406.72
1094.83	407.48
1098.106	404.52
1101.382	400.44
1104.657	397.68
1107.932	390.47
1111.206	393.21
1114.481	382.87
1117.755	378.81
1121.029	376.15
1124.302	374.95
1127.575	367.75
1130.848	362.83
1134.121	358.92
1137.393	357.75
1140.665	350.58
1143.937	348.57
1147.208	345.99
1150.48	345.88
1153.75	340.99
1157.021	335.26
1160.291	335.7
1163.561	332.24
1166.831	331.71
1170.101	329.51
1173.37	327.6
1176.639	328.36
1179.907	325.07
1183.176	321.83
1186.444	321.48
1189.711	321.01
1192.979	320.63
1196.246	317.91
1199.513	319.69
1202.78	317.72
1206.046	317.97
1209.312	315.24
1212.578	315.15
1215.843	317.7
1219.108	315.51
1222.373	321.97
1225.638	324.5
1228.902	329.38
1232.166	329.09
1235.43	331.38
1238.693	336.26
1241.956	337.32
1245.219	342.99
1248.482	342.78
1251.744	342.88
1255.006	344.14
1258.268	336.02
1261.529	332.6
1264.79	330.42
1268.051	329.44
1271.312	324.67
1274.572	320.19
1277.832	317.74
1281.092	312.64
1284.351	310.86
1287.61	310.53
1290.869	305.4
1294.128	302.94
1297.386	303.34
1300.644	299.31
1303.902	300.83
1307.159	298.95
1310.416	299.51
1313.673	298.86
1316.93	301.4
1320.186	301.45
1323.442	302.44
1326.697	308.15
1329.953	308.76
1333.208	309.93
1336.463	314.11
1339.717	313.88
1342.972	318.67
1346.226	321.22
1349.479	321.98
1352.733	323.68
1355.986	324.78
1359.238	324.81
1362.491	326.99
1365.743	329.84
1368.995	329.89
1372.247	328.48
1375.498	328.86
1378.749	331.58
1382	327.39
1385.251	329.47
1388.501	327.1
1391.751	329.41
1395	327.5
1398.25	324.42
1401.499	323.81
1404.748	323.43
1407.996	320.55
1411.244	318.99
1414.492	317.04
1417.74	315.08
1420.987	309.3
1424.234	310.39
1427.481	304.7
1430.728	305.55
1433.974	301.85
1437.22	298.41
1440.465	297.7
1443.711	295.77
1446.956	294.59
1450.201	290.25
1453.445	287.17
1456.689	286.64
1459.933	280.7
1463.177	279.61
1466.42	274.66
1469.663	272.33
1472.906	270.98
1476.148	263.62
1479.391	260.12
1482.633	257.21
1485.874	253.55
1489.115	252
1492.356	248.84
1495.597	248.89
1498.838	244.81
1502.078	243.1
1505.318	241.79
1508.557	241.79
1511.797	241.82
1515.036	240.77
1518.274	239.51
1521.513	237.48
1524.751	236.98
1527.989	235.76
1531.227	234.38
1534.464	235.61
1537.701	233.56
1540.938	232.68
1544.174	229.47
1547.41	229.34
1550.646	228.03
1553.882	227.94
1557.117	225.64
1560.352	223.86
1563.587	223.94
1566.821	222.34
1570.055	219.42
1573.289	218.4
1576.523	218.32
1579.756	216.86
1582.989	215.27
1586.222	214.65
1589.454	213.65
1592.686	215.18
1595.918	214.7
1599.15	213.43
1602.381	213.96
1605.612	213.88
1608.843	214.48
1612.073	213.93
1615.303	215.49
1618.533	215.56
1621.762	215.62
1624.992	215.87
1628.221	215.19
1631.449	214.46
1634.678	214.61
1637.906	215.44
1641.134	215.4
1644.361	215.01
1647.588	215.76
1650.815	214.39
1654.042	213.77
1657.269	215.24
1660.495	215.16
1663.72	214.08
1666.946	215.04
1670.171	215.24
1673.396	214.65
1676.621	214.47
1679.845	214.9
1683.069	214.6
1686.293	216.51
1689.517	217.5
1692.74	216.92
1695.963	217.81
1699.185	220.5
1702.408	220.78
1705.63	221.32
1708.852	222.17
1712.073	223
1715.294	223.28
1718.515	224.67
1721.736	223.98
1724.956	224.78
1728.176	224.78
1731.396	226.69
1734.616	225.42
1737.835	226.5
1741.054	225.09
1744.272	225.99
1747.491	227.64
1750.709	228.73
1753.927	228.65
1757.144	227.92
1760.361	229.22
1763.578	229.34
1766.795	228.69
1770.011	230.4
1773.227	230.29
1776.443	233.67
1779.658	234.64
1782.874	234.21
1786.089	234.64
1789.303	235.47
1792.518	238.39
1795.732	237.71
1798.945	240.88
1802.159	240.62
1805.372	241.56
1808.585	245.52
1811.797	246.56
1815.01	246.06
1818.222	248.42
1821.434	250.18
1824.645	251.48
1827.856	255.1
1831.067	257.98
1834.278	256.52
1837.488	258.45
1840.698	260.68
1843.908	258.5
1847.117	259.6
1850.326	262.08
1853.535	260.23
1856.744	264.23
1859.952	264.13
1863.16	262.8
1866.368	261
1869.575	264.64
1872.782	260.71
1875.989	260.02
1879.196	259.38
1882.402	257.36
1885.608	258.43
1888.814	260.16
1892.019	258.75
1895.224	257.6
1898.429	257.36
1901.634	258.48
1904.838	258.23
1908.042	261.74
1911.246	262.26
1914.449	263.52
1917.652	263.59
1920.855	263.09
1924.058	263.52
1927.26	262.45
1930.462	263.93
1933.664	265.92
1936.865	263.63
1940.066	263.6
1943.267	262.13
1946.467	261.93
1949.668	263.63
1952.868	267.59
1956.067	267.63
1959.267	267.18
1962.466	268.25
1965.665	265.95
1968.863	266.83
1972.061	271.22
1975.259	273.5
1978.457	275.04
1981.654	277.07
1984.852	277.99
1988.048	276.46
1991.245	278.96
1994.441	282.52
1997.637	284.33
2000.833	291.21
2004.028	294.78
2007.223	295.34
2010.418	298.72
2013.613	304.71
2016.807	308.11
2020.001	310.64
2023.194	315.29
2026.388	322.31
2029.581	328.83
2032.774	331.32
2035.966	336.82
2039.158	338.15
2042.35	346.01
2045.542	346.67
2048.733	352.23
2051.924	357.3
2055.115	362.2
2058.306	363.23
2061.496	367.1
2064.686	368.22
2067.875	374.94
2071.065	375.65
2074.254	373.8
2077.442	378.14
2080.631	379.82
2083.819	383.03
2087.007	383.5
2090.195	388.23
2093.382	391.74
2096.569	388.76
2099.756	394.91
2102.942	395.91
2106.128	400.46
2109.314	410.22
2112.5	408.4
2115.685	417.41
2118.87	417.41
2122.055	425.39
2125.239	428.94
2128.424	435.13
2131.608	437.5
2134.791	442.09
2137.974	444.44
2141.157	445.81
2144.34	445.39
2147.523	453.61
2150.705	450.98
2153.887	454.64
2157.068	455.49
2160.25	451.31
2163.431	452.3
2166.611	458.95
2169.792	467.38
2172.972	473.07
2176.152	476.53
2179.331	483.41
2182.511	489.89
2185.69	496.1
2188.868	506.85
2192.047	507.61
2195.225	522.65
2198.403	535.07
2201.58	544.96
2204.758	556.31
2207.935	567.12
2211.111	577.62
2214.288	583.33
2217.464	585.07
2220.64	594.84
2223.815	603.62
2226.991	628.8
2230.166	630.35
2233.34	643.04
2236.515	650.72
2239.689	651.03
2242.863	654.45
2246.036	673.64
2249.209	667.88
2252.382	679.41
2255.555	698.34
2258.727	699.7
2261.9	704.16
2265.071	710.56
2268.243	720.7
2271.414	731.51
2274.585	747.08
2277.756	755.98
2280.926	759.55
2284.096	778.04
2287.266	795.46
2290.436	801.36
2293.605	820.21
2296.774	846.23
2299.942	871.01
2303.111	875.51
2306.279	895.04
2309.447	907.84
2312.614	929.6
2315.781	955.56
2318.948	1000.5
2322.115	984.69
2325.281	1038.39
2328.447	1017.89
2331.613	1058.42
2334.779	1047.88
2337.944	1094.57
2341.109	1104.16
2344.274	1133.79
2347.438	1178.69
2350.602	1177.4
2353.766	1213.02
2356.929	1232.44
2360.092	1222.45
2363.255	1313.76
2366.418	1306.71
2369.58	1335.78
2372.742	1420.43
2375.904	1456.35
2379.066	1449.4
2382.227	1414.39
2385.388	1535.43
2388.548	1538.42
2391.709	1555.69
2394.869	1735.74
2398.029	1657.46
2401.188	1704.07
2404.347	1694.26
2407.506	1662.23
2410.665	1715.57
2413.823	1813.26
2416.981	1921.65
2420.139	1859.04
2423.296	1831.4
2426.453	1917.12
2429.61	1848.21
2432.767	1933.96
2435.923	1918.76
2439.079	2095.25
2442.235	2127.03
2445.391	2100
2448.546	2090.68
2451.701	2034.87
2454.855	2035.06
2458.009	2167.49
2461.163	2252.11
2464.317	2328.14
2467.471	2387.44
2470.624	2385.74
2473.777	2322.85
2476.929	2258.3
2480.082	2198.53
2483.234	2171.75
2486.385	2273.59
2489.537	2285.63
2492.688	2367.69
2495.839	2299.22
2498.989	2251.23
2502.14	2261.57
2505.29	2289.75
2508.439	2319.57
2511.589	2316.54
2514.738	2522.26
2517.887	2470.4
2521.035	2611.06
2524.183	2630.11
2527.331	2650.73
2530.479	2640.38
2533.627	2656.89
