Data from C_3_DIV_IL_4N_Splice17_14-15-16-860.txt Node
Date: Sat Mar 07 14:15:16 EST 2020
User: sa697716
Spectrometer: NQ5500242
Trigger mode: 0
Integration Time (sec): 1.450000E-1
Scans to average: 20
Nonlinearity correction enabled: false
Boxcar width: 5
Storing dark spectrum: false
XAxis mode: Wavelengths
Number of Pixels in Spectrum: 512
>>>>>Begin Spectral Data<<<<<
187.83	151.93
188.298	172.21
188.766	142.73
189.233	134.18
189.701	145.97
190.169	160.96
190.636	185.62
191.104	246.01
191.571	202.04
192.039	78.16
192.506	-242.61
192.974	134.76
193.441	274.77
193.908	96.72
194.375	103.43
194.842	92.64
195.31	60.94
195.777	-291.84
196.244	23.43
196.711	58.35
197.177	63.05
197.644	63.89
198.111	65.33
198.578	66.61
199.045	67.35
199.511	67.55
199.978	67.75
200.445	68.12
200.911	68.66
201.378	69.13
201.844	68.69
202.31	68.37
202.777	68.29
203.243	68.17
203.709	67.43
204.176	66.84
204.642	66.33
205.108	65.89
205.574	65.68
206.04	65.33
206.506	64.65
206.972	64.36
207.438	64.16
207.903	63.35
208.369	62.13
208.835	61.11
209.301	59.98
209.766	58.38
210.232	56.88
210.697	55.23
211.163	53.82
211.628	52.61
212.094	51.19
212.559	49.84
213.024	48.85
213.49	47.87
213.955	46.8
214.42	45.75
214.885	44.94
215.35	43.65
215.815	41.61
216.28	39.2
216.745	36.46
217.21	34.03
217.675	31.57
218.14	29.34
218.604	27.45
219.069	25.84
219.534	24.48
219.998	23.3
220.463	22.31
220.927	21.49
221.392	20.78
221.856	20.25
222.32	19.75
222.785	19.28
223.249	18.87
223.713	18.51
224.177	18.18
224.642	17.88
225.106	17.55
225.57	17.23
226.034	16.96
226.497	16.68
226.961	16.43
227.425	16.17
227.889	15.94
228.353	15.71
228.816	15.47
229.28	15.24
229.744	15.02
230.207	14.83
230.671	14.65
231.134	14.44
231.597	14.3
232.061	14.12
232.524	13.95
232.987	13.78
233.45	13.63
233.914	13.47
234.377	13.3
234.84	13.15
235.303	13.01
235.766	12.89
236.229	12.77
236.691	12.64
237.154	12.53
237.617	12.42
238.08	12.31
238.542	12.19
239.005	12.09
239.468	11.99
239.93	11.9
240.393	11.82
240.855	11.7
241.317	11.58
241.78	11.48
242.242	11.36
242.704	11.26
243.166	11.17
243.629	11.08
244.091	10.97
244.553	10.88
245.015	10.78
245.477	10.67
245.939	10.58
246.4	10.5
246.862	10.42
247.324	10.33
247.786	10.25
248.247	10.16
248.709	10.07
249.17	9.99
249.632	9.92
250.093	9.86
250.555	9.78
251.016	9.72
251.477	9.65
251.939	9.59
252.4	9.53
252.861	9.47
253.322	9.42
253.783	9.37
254.244	9.33
254.705	9.27
255.166	9.22
255.627	9.17
256.088	9.11
256.549	9.07
257.009	9.02
257.47	8.95
257.931	8.89
258.391	8.83
258.852	8.77
259.312	8.72
259.773	8.67
260.233	8.62
260.694	8.57
261.154	8.52
261.614	8.47
262.074	8.42
262.534	8.39
262.994	8.36
263.455	8.32
263.915	8.28
264.374	8.25
264.834	8.22
265.294	8.18
265.754	8.15
266.214	8.13
266.673	8.1
267.133	8.08
267.593	8.06
268.052	8.04
268.512	8.01
268.971	7.99
269.431	7.96
269.89	7.93
270.349	7.92
270.809	7.89
271.268	7.87
271.727	7.86
272.186	7.84
272.645	7.83
273.104	7.81
273.563	7.8
274.022	7.78
274.481	7.77
274.94	7.75
275.399	7.73
275.857	7.72
276.316	7.7
276.775	7.68
277.233	7.65
277.692	7.63
278.15	7.61
278.609	7.6
279.067	7.58
279.525	7.56
279.984	7.53
280.442	7.52
280.9	7.5
281.358	7.48
281.816	7.46
282.274	7.44
282.732	7.41
283.19	7.39
283.648	7.36
284.106	7.33
284.564	7.32
285.021	7.31
285.479	7.29
285.937	7.27
286.394	7.26
286.852	7.24
287.309	7.21
287.767	7.19
288.224	7.17
288.682	7.15
289.139	7.13
289.596	7.11
290.053	7.07
290.511	7.05
290.968	7.03
291.425	6.99
291.882	6.97
292.339	6.95
292.796	6.93
293.252	6.91
293.709	6.89
294.166	6.87
294.623	6.84
295.079	6.83
295.536	6.8
295.992	6.79
296.449	6.78
296.905	6.76
297.362	6.75
297.818	6.73
298.274	6.72
298.731	6.7
299.187	6.69
299.643	6.67
300.099	6.65
300.555	6.63
301.011	6.62
301.467	6.61
301.923	6.59
302.379	6.57
302.835	6.56
303.291	6.54
303.746	6.53
304.202	6.52
304.658	6.52
305.113	6.51
305.569	6.51
306.024	6.49
306.479	6.48
306.935	6.47
307.39	6.48
307.845	6.46
308.301	6.46
308.756	6.45
309.211	6.44
309.666	6.43
310.121	6.42
310.576	6.42
311.031	6.41
311.486	6.41
311.94	6.4
312.395	6.39
312.85	6.4
313.305	6.39
313.759	6.39
314.214	6.38
314.668	6.37
315.123	6.37
315.577	6.36
316.032	6.34
316.486	6.33
316.94	6.32
317.394	6.29
317.849	6.27
318.303	6.25
318.757	6.22
319.211	6.21
319.665	6.19
320.119	6.16
320.572	6.14
321.026	6.12
321.48	6.11
321.934	6.09
322.387	6.08
322.841	6.06
323.295	6.04
323.748	6.03
324.202	6.02
324.655	6
325.108	5.99
325.562	5.98
326.015	5.97
326.468	5.96
326.921	5.95
327.374	5.94
327.827	5.94
328.28	5.93
328.733	5.92
329.186	5.91
329.639	5.91
330.092	5.9
330.545	5.89
330.997	5.88
331.45	5.88
331.903	5.88
332.355	5.87
332.808	5.87
333.26	5.86
333.713	5.86
334.165	5.86
334.617	5.85
335.069	5.85
335.522	5.85
335.974	5.85
336.426	5.85
336.878	5.84
337.33	5.84
337.782	5.84
338.234	5.85
338.686	5.85
339.137	5.86
339.589	5.84
340.041	5.85
340.493	5.84
340.944	5.82
341.396	5.8
341.847	5.79
342.299	5.76
342.75	5.74
343.201	5.72
343.653	5.69
344.104	5.66
344.555	5.64
345.006	5.62
345.457	5.6
345.908	5.59
346.359	5.58
346.81	5.57
347.261	5.56
347.712	5.55
348.163	5.55
348.613	5.54
349.064	5.54
349.515	5.54
349.965	5.54
350.416	5.53
350.866	5.52
351.317	5.51
351.767	5.5
352.217	5.51
352.668	5.51
353.118	5.51
353.568	5.51
354.018	5.5
354.468	5.51
354.918	5.51
355.368	5.52
355.818	5.52
356.268	5.52
356.718	5.53
357.168	5.51
357.617	5.5
358.067	5.49
358.517	5.51
358.966	5.51
359.416	5.5
359.865	5.5
360.315	5.51
360.764	5.51
361.213	5.5
361.663	5.5
362.112	5.5
362.561	5.51
363.01	5.51
363.459	5.5
363.908	5.5
364.357	5.51
364.806	5.51
365.255	5.51
365.703	5.51
366.152	5.52
366.601	5.53
367.05	5.54
367.498	5.54
367.947	5.54
368.395	5.56
368.844	5.57
369.292	5.57
369.74	5.57
370.189	5.57
370.637	5.58
371.085	5.57
371.533	5.57
371.981	5.57
372.429	5.58
372.877	5.6
373.325	5.61
373.773	5.61
374.221	5.62
374.669	5.63
375.116	5.63
375.564	5.64
376.012	5.66
376.459	5.67
376.907	5.69
377.354	5.7
377.801	5.72
378.249	5.73
378.696	5.75
379.143	5.76
379.591	5.78
380.038	5.8
380.485	5.83
380.932	5.86
381.379	5.89
381.826	5.9
382.273	5.92
382.72	5.93
383.166	5.96
383.613	5.98
384.06	6
384.506	6.02
384.953	6.04
385.4	6.07
385.846	6.1
386.292	6.12
386.739	6.14
387.185	6.17
387.631	6.2
388.078	6.23
388.524	6.26
388.97	6.28
389.416	6.31
389.862	6.35
390.308	6.38
390.754	6.42
391.2	6.45
391.645	6.48
392.091	6.51
392.537	6.55
392.983	6.58
393.428	6.61
393.874	6.65
394.319	6.68
394.765	6.7
395.21	6.71
395.655	6.73
396.101	6.77
396.546	6.79
396.991	6.82
397.436	6.85
397.881	6.89
398.326	6.92
398.771	6.96
399.216	6.99
399.661	7.03
400.106	7.08
400.551	7.1
400.995	7.12
401.44	7.14
401.885	7.16
402.329	7.17
402.774	7.19
403.218	7.24
403.663	7.26
404.107	7.29
404.551	7.3
404.995	7.32
405.44	7.33
405.884	7.35
406.328	7.37
406.772	7.38
407.216	7.4
407.66	7.4
408.104	7.4
408.547	7.39
408.991	7.4
409.435	7.41
409.879	7.42
410.322	7.44
410.766	7.45
411.209	7.48
411.653	7.51
412.096	7.52
412.54	7.54
412.983	7.56
413.426	7.61
413.869	7.62
414.312	7.65
414.756	7.69
415.199	7.7
415.642	7.73
416.085	7.75
416.527	7.75
416.97	7.75
417.413	7.76
417.856	7.75
418.298	7.73
418.741	7.73
419.184	7.74
419.626	7.74
420.069	7.75
420.511	7.74
420.953	7.74
421.396	7.75
421.838	7.75
422.28	7.76
422.722	7.79
423.164	7.81
423.606	7.82
424.048	7.82
424.49	7.83
424.932	7.83
425.374	7.84
425.816	7.8
426.258	7.78
426.699	7.77
427.141	7.75
427.582	7.73
428.024	7.73
428.465	7.73
428.907	7.73
429.348	7.72
429.789	7.68
430.231	7.69
430.672	7.71
431.113	7.73
431.554	7.76
431.995	7.78
432.436	7.78
432.877	7.77
433.318	7.76
433.759	7.77
434.2	7.78
434.64	7.82
435.081	7.83
435.522	7.82
435.962	7.84
436.403	7.86
436.843	7.89
437.284	7.9
437.724	7.91
438.164	7.91
438.604	7.92
439.045	7.92
439.485	7.91
439.925	7.9
440.365	7.91
440.805	7.91
441.245	7.91
441.685	7.91
442.125	7.93
442.564	7.93
443.004	7.94
443.444	7.94
443.883	7.96
444.323	7.97
444.762	7.98
445.202	7.99
445.641	8
446.081	8
446.52	7.99
446.959	8.02
447.398	8.04
447.837	8.06
448.276	8.06
448.716	8.08
449.154	8.1
449.593	8.13
450.032	8.13
450.471	8.13
450.91	8.13
451.349	8.14
451.787	8.12
452.226	8.1
452.664	8.09
453.103	8.08
453.541	8.06
453.98	8.04
454.418	8.01
454.856	7.98
455.295	7.96
455.733	7.93
456.171	7.9
456.609	7.88
457.047	7.85
457.485	7.84
457.923	7.82
458.361	7.8
458.798	7.78
459.236	7.77
459.674	7.77
460.111	7.75
460.549	7.76
460.987	7.77
461.424	7.77
461.862	7.78
462.299	7.77
462.736	7.77
463.173	7.78
463.611	7.77
464.048	7.77
464.485	7.77
464.922	7.77
465.359	7.77
465.796	7.77
466.233	7.77
466.67	7.77
467.106	7.78
467.543	7.79
467.98	7.79
468.416	7.8
468.853	7.79
469.29	7.78
469.726	7.79
470.162	7.79
470.599	7.79
471.035	7.78
471.471	7.78
471.907	7.77
472.344	7.76
472.78	7.76
473.216	7.75
473.652	7.75
474.088	7.76
474.523	7.76
474.959	7.75
475.395	7.74
475.831	7.74
476.266	7.75
476.702	7.75
477.138	7.74
477.573	7.74
478.008	7.74
478.444	7.73
478.879	7.73
479.314	7.73
479.75	7.72
480.185	7.71
480.62	7.69
481.055	7.68
481.49	7.67
481.925	7.67
482.36	7.65
482.795	7.64
483.229	7.64
483.664	7.63
484.099	7.62
484.534	7.61
484.968	7.62
485.403	7.62
485.837	7.61
486.271	7.62
486.706	7.62
487.14	7.63
487.574	7.63
488.009	7.64
488.443	7.64
488.877	7.65
489.311	7.67
489.745	7.69
490.179	7.71
490.613	7.74
491.046	7.76
491.48	7.78
491.914	7.81
492.348	7.85
492.781	7.89
493.215	7.93
493.648	7.97
494.082	8.01
494.515	8.04
494.948	8.09
495.382	8.14
495.815	8.18
496.248	8.23
496.681	8.29
497.114	8.35
497.547	8.39
497.98	8.45
498.413	8.51
498.846	8.57
499.279	8.63
499.711	8.7
500.144	8.78
500.577	8.86
501.009	8.95
501.442	9.02
501.874	9.12
502.306	9.22
502.739	9.33
503.171	9.45
503.603	9.56
504.036	9.7
504.468	9.83
504.9	9.95
505.332	10.08
505.764	10.23
506.196	10.39
506.627	10.54
507.059	10.7
507.491	10.85
507.923	11.02
508.354	11.2
508.786	11.37
509.217	11.55
509.649	11.76
510.08	11.96
510.512	12.15
510.943	12.36
511.374	12.56
511.805	12.78
512.237	12.99
512.668	13.21
513.099	13.44
513.53	13.67
513.961	13.9
514.391	14.14
514.822	14.38
515.253	14.62
515.684	14.86
516.114	15.11
516.545	15.38
516.975	15.64
517.406	15.91
517.836	16.16
518.267	16.43
518.697	16.69
519.127	16.93
519.558	17.18
519.988	17.45
520.418	17.7
520.848	17.95
521.278	18.19
521.708	18.51
522.138	18.74
522.567	18.97
522.997	19.19
523.427	19.41
523.857	19.64
524.286	19.86
524.716	20.06
525.145	20.28
525.575	20.48
526.004	20.69
526.433	20.8
526.863	21
527.292	21.18
527.721	21.35
528.15	21.51
528.579	21.66
529.008	21.8
529.437	21.93
529.866	22.06
530.295	22.19
530.724	22.29
531.152	22.41
531.581	22.51
532.01	22.61
532.438	22.72
532.867	22.82
533.295	22.92
533.723	23
534.152	23.08
534.58	23.15
535.008	23.21
535.436	23.27
535.865	23.32
536.293	23.36
536.721	23.42
537.149	23.46
537.576	23.48
538.004	23.51
538.432	23.55
538.86	23.58
539.287	23.6
539.715	23.64
540.143	23.67
540.57	23.71
540.998	23.75
541.425	23.77
541.852	23.8
542.28	23.85
542.707	23.88
543.134	23.9
543.561	23.94
543.988	23.97
544.415	24
544.842	24.01
545.269	24.03
545.696	24.07
546.123	24.11
546.549	24.13
546.976	24.15
547.403	24.19
547.829	24.22
548.256	24.24
548.682	24.27
549.108	24.29
549.535	24.35
549.961	24.37
550.387	24.38
550.813	24.39
551.24	24.39
551.666	24.4
552.092	24.39
552.518	24.39
552.943	24.37
553.369	24.36
553.795	24.33
554.221	24.29
554.646	24.25
555.072	24.22
555.498	24.19
555.923	24.15
556.349	24.1
556.774	24.04
557.199	23.98
557.625	23.94
558.05	23.89
558.475	23.84
558.9	23.79
559.325	23.72
559.75	23.63
560.175	23.55
560.6	23.45
561.025	23.37
561.449	23.29
561.874	23.19
562.299	23.07
562.723	22.94
563.148	22.82
563.572	22.68
563.997	22.55
564.421	22.43
564.846	22.3
565.27	22.17
565.694	22.02
566.118	21.86
566.542	21.72
566.966	21.58
567.39	21.43
567.814	21.28
568.238	21.12
568.662	20.97
569.086	20.82
569.509	20.68
569.933	20.53
570.357	20.38
570.78	20.24
571.204	20.1
571.627	19.96
572.05	19.81
572.474	19.7
572.897	19.58
573.32	19.45
573.743	19.33
574.166	19.21
574.589	19.1
575.012	18.99
575.435	18.9
575.858	18.8
576.281	18.7
576.704	18.62
577.126	18.53
577.549	18.45
577.972	18.37
578.394	18.28
578.817	18.2
579.239	18.12
579.661	18.04
580.084	17.96
580.506	17.89
580.928	17.82
581.35	17.75
581.772	17.67
582.194	17.6
582.616	17.55
583.038	17.49
583.46	17.42
583.882	17.37
584.303	17.3
584.725	17.24
585.147	17.19
585.568	17.14
585.99	17.07
586.411	17.02
586.833	16.96
587.254	16.9
587.675	16.86
588.096	16.83
588.518	16.78
588.939	16.76
589.36	16.72
589.781	16.68
590.202	16.64
590.623	16.62
591.043	16.58
591.464	16.56
591.885	16.52
592.305	16.5
592.726	16.47
593.147	16.44
593.567	16.4
593.987	16.39
594.408	16.36
594.828	16.32
595.248	16.29
595.669	16.27
596.089	16.24
596.509	16.22
596.929	16.18
597.349	16.15
597.769	16.12
598.189	16.07
598.608	16.03
599.028	15.99
599.448	15.95
599.867	15.92
600.287	15.89
600.706	15.85
601.126	15.8
601.545	15.76
601.965	15.72
602.384	15.68
602.803	15.63
603.222	15.57
603.641	15.52
604.061	15.47
604.48	15.42
604.898	15.35
605.317	15.28
605.736	15.23
606.155	15.17
606.574	15.11
606.992	15.04
607.411	14.99
607.829	14.9
608.248	14.83
608.666	14.77
609.085	14.7
609.503	14.62
609.921	14.56
610.339	14.49
610.758	14.43
611.176	14.34
611.594	14.27
612.012	14.2
612.43	14.16
612.847	14.1
613.265	14.03
613.683	13.96
614.101	13.9
614.518	13.83
614.936	13.76
615.353	13.7
615.771	13.65
616.188	13.58
616.606	13.53
617.023	13.48
617.44	13.43
617.857	13.4
618.274	13.37
618.691	13.32
619.108	13.27
619.525	13.24
619.942	13.2
620.359	13.17
620.776	13.15
621.192	13.12
621.609	13.09
622.026	13.05
622.442	13.03
622.859	12.99
623.275	12.97
623.691	12.96
624.108	12.94
624.524	12.92
624.94	12.91
625.356	12.89
625.772	12.87
626.188	12.87
626.604	12.86
627.02	12.84
627.436	12.83
627.852	12.83
628.268	12.82
628.683	12.81
629.099	12.8
629.514	12.78
629.93	12.77
630.345	12.74
630.761	12.71
631.176	12.69
631.591	12.65
632.007	12.62
632.422	12.59
632.837	12.54
633.252	12.49
633.667	12.44
634.082	12.39
634.497	12.34
634.911	12.28
635.326	12.23
635.741	12.16
636.155	12.1
636.57	12.04
636.984	11.96
637.399	11.87
637.813	11.8
638.228	11.71
638.642	11.64
639.056	11.54
639.47	11.46
639.884	11.36
640.298	11.27
640.712	11.18
641.126	11.09
641.54	11
641.954	10.92
642.368	10.84
642.781	10.76
643.195	10.67
643.609	10.59
644.022	10.5
644.436	10.43
644.849	10.36
645.262	10.29
645.676	10.22
646.089	10.16
646.502	10.1
646.915	10.05
647.328	10
647.741	9.95
648.154	9.91
648.567	9.89
648.98	9.85
649.393	9.81
649.805	9.78
650.218	9.75
650.631	9.71
651.043	9.68
651.456	9.64
651.868	9.6
652.28	9.57
652.693	9.53
653.105	9.49
653.517	9.45
653.929	9.42
654.341	9.37
654.753	9.32
655.165	9.27
655.577	9.22
655.989	9.16
656.401	9.12
656.813	9.06
657.224	8.99
657.636	8.92
658.047	8.86
658.459	8.79
658.87	8.71
659.282	8.64
659.693	8.58
660.104	8.5
660.515	8.43
660.926	8.37
661.338	8.3
661.749	8.25
662.159	8.19
662.57	8.14
662.981	8.09
663.392	8.04
663.803	8
664.213	7.95
664.624	7.92
665.035	7.88
665.445	7.86
665.855	7.83
666.266	7.8
666.676	7.79
667.086	7.75
667.497	7.74
667.907	7.72
668.317	7.7
668.727	7.68
669.137	7.68
669.547	7.67
669.956	7.66
670.366	7.65
670.776	7.64
671.186	7.64
671.595	7.65
672.005	7.65
672.414	7.66
672.824	7.68
673.233	7.69
673.642	7.7
674.052	7.71
674.461	7.73
674.87	7.74
675.279	7.76
675.688	7.79
676.097	7.81
676.506	7.82
676.915	7.84
677.323	7.88
677.732	7.91
678.141	7.94
678.549	7.97
678.958	8.02
679.366	8.07
679.775	8.11
680.183	8.16
680.592	8.22
681	8.29
681.408	8.36
681.816	8.44
682.224	8.53
682.632	8.62
683.04	8.73
683.448	8.84
683.856	8.96
684.264	9.1
684.671	9.26
685.079	9.41
685.487	9.59
685.894	9.8
686.302	10.01
686.709	10.24
687.116	10.5
687.524	10.77
687.931	11.07
688.338	11.39
688.745	11.73
689.152	12.08
689.559	12.47
689.966	12.86
690.373	13.27
690.78	13.7
691.187	14.15
691.593	14.61
692	15.07
692.407	15.55
692.813	16.03
693.22	16.52
693.626	17.03
694.032	17.54
694.439	18.06
694.845	18.58
695.251	19.1
695.657	19.62
696.063	20.15
696.469	20.68
696.875	21.2
697.281	21.71
697.687	22.24
698.093	22.75
698.498	23.26
698.904	23.78
699.31	24.27
699.715	24.76
700.12	25.27
700.526	25.74
700.931	26.22
701.337	26.71
701.742	27.18
702.147	27.64
702.552	28.1
702.957	28.53
703.362	28.95
703.767	29.39
704.172	29.83
704.577	30.24
704.981	30.64
705.386	31.04
705.791	31.42
706.195	31.83
706.6	32.23
707.004	32.61
707.408	33
707.813	33.36
708.217	33.74
708.621	34.1
709.025	34.44
709.43	34.79
709.834	35.15
710.237	35.48
710.641	35.82
711.045	36.13
711.449	36.45
711.853	36.76
712.256	37.08
712.66	37.36
713.064	37.66
713.467	37.96
713.87	38.28
714.274	38.56
714.677	38.85
715.08	39.12
715.484	39.4
715.887	39.68
716.29	39.96
716.693	40.22
717.096	40.48
717.499	40.73
717.901	40.98
718.304	41.21
718.707	41.46
719.109	41.7
719.512	41.96
719.915	42.19
720.317	42.41
720.719	42.6
721.122	42.83
721.524	43.06
721.926	43.26
722.328	43.47
722.731	43.67
723.133	43.87
723.535	44.08
723.937	44.24
724.338	44.37
724.74	44.54
725.142	44.75
725.544	44.89
725.945	45.06
726.347	45.2
726.748	45.34
727.15	45.46
727.551	45.6
727.952	45.7
728.354	45.86
728.755	45.98
729.156	46.08
729.557	46.17
729.958	46.27
730.359	46.36
730.76	46.47
731.161	46.56
731.562	46.67
731.962	46.72
732.363	46.83
732.763	46.88
733.164	46.97
733.564	47.06
733.965	47.14
734.365	47.23
734.766	47.32
735.166	47.37
735.566	47.46
735.966	47.51
736.366	47.6
736.766	47.65
737.166	47.72
737.566	47.77
737.966	47.82
738.365	47.89
738.765	47.94
739.165	47.98
739.564	48.04
739.964	48.08
740.363	48.11
740.763	48.14
741.162	48.16
741.561	48.18
741.96	48.21
742.36	48.24
742.759	48.26
743.158	48.28
743.557	48.3
743.955	48.34
744.354	48.36
744.753	48.43
745.152	48.49
745.55	48.53
745.949	48.58
746.348	48.62
746.746	48.66
747.144	48.69
747.543	48.71
747.941	48.74
748.339	48.74
748.737	48.75
749.136	48.75
749.534	48.74
749.932	48.76
750.33	48.77
750.727	48.77
751.125	48.79
751.523	48.79
751.921	48.8
752.318	48.83
752.716	48.84
753.113	48.85
753.511	48.87
753.908	48.89
754.305	48.91
754.703	48.9
755.1	48.92
755.497	48.88
755.894	48.88
756.291	48.86
756.688	48.78
757.085	48.76
757.482	48.74
757.878	48.71
758.275	48.68
758.672	48.69
759.068	48.69
759.465	48.67
759.861	48.66
760.258	48.67
760.654	48.67
761.05	48.71
761.447	48.75
761.843	48.74
762.239	48.76
762.635	48.74
763.031	48.71
763.427	48.69
763.822	48.71
764.218	48.74
764.614	48.74
765.01	48.75
765.405	48.74
765.801	48.72
766.196	48.74
766.592	48.72
766.987	48.75
767.382	48.73
767.778	48.73
768.173	48.72
768.568	48.7
768.963	48.7
769.358	48.73
769.753	48.73
770.148	48.75
770.542	48.73
770.937	48.75
771.332	48.72
771.726	48.76
772.121	48.78
772.515	48.79
772.91	48.79
773.304	48.8
773.699	48.8
774.093	48.79
774.487	48.78
774.881	48.82
775.275	48.81
775.669	48.8
776.063	48.8
776.457	48.79
776.851	48.75
777.245	48.74
777.638	48.76
778.032	48.74
778.425	48.77
778.819	48.76
779.212	48.75
779.606	48.78
779.999	48.78
780.392	48.79
780.786	48.81
781.179	48.85
781.572	48.9
781.965	48.89
782.358	48.91
782.751	48.92
783.143	48.93
783.536	48.93
783.929	48.94
784.322	48.97
784.714	48.95
785.107	48.96
785.499	48.95
785.891	48.93
786.284	48.94
786.676	48.96
787.068	48.96
787.46	48.98
787.852	48.99
788.245	49.02
788.636	49.01
789.028	49.06
789.42	49.04
789.812	49.05
790.204	49.08
790.595	49.1
790.987	49.12
791.378	49.17
791.77	49.17
792.161	49.19
792.553	49.19
792.944	49.2
793.335	49.21
793.726	49.24
794.117	49.23
794.508	49.2
794.899	49.22
795.29	49.2
795.681	49.17
796.072	49.19
796.463	49.18
796.853	49.16
797.244	49.16
797.634	49.16
798.025	49.18
798.415	49.21
798.806	49.21
799.196	49.21
799.586	49.21
799.976	49.23
800.366	49.21
800.756	49.26
801.146	49.31
801.536	49.34
801.926	49.33
802.316	49.31
802.706	49.34
803.095	49.4
803.485	49.4
803.874	49.42
804.264	49.42
804.653	49.42
805.043	49.43
805.432	49.4
805.821	49.42
806.21	49.45
806.599	49.48
806.988	49.49
807.377	49.5
807.766	49.52
808.155	49.53
808.544	49.56
808.933	49.59
809.321	49.58
809.71	49.62
810.098	49.61
810.487	49.6
810.875	49.61
811.264	49.61
811.652	49.6
812.04	49.6
812.428	49.64
812.816	49.62
813.204	49.63
813.592	49.64
813.98	49.64
814.368	49.67
814.756	49.69
815.144	49.67
815.531	49.67
815.919	49.7
816.306	49.71
816.694	49.7
817.081	49.71
817.469	49.72
817.856	49.72
818.243	49.71
818.63	49.72
819.017	49.72
819.404	49.75
819.791	49.76
820.178	49.75
820.565	49.76
820.952	49.74
821.339	49.74
821.725	49.72
822.112	49.76
822.498	49.78
822.885	49.77
823.271	49.75
823.657	49.71
824.044	49.71
824.43	49.73
824.816	49.73
825.202	49.72
825.588	49.72
825.974	49.71
826.36	49.68
826.746	49.66
827.132	49.67
827.517	49.67
827.903	49.69
828.289	49.66
828.674	49.64
829.06	49.62
829.445	49.63
829.83	49.62
830.216	49.6
830.601	49.61
830.986	49.61
831.371	49.58
831.756	49.56
832.141	49.55
832.526	49.54
832.911	49.53
833.295	49.52
833.68	49.5
834.065	49.5
834.449	49.49
834.834	49.44
835.218	49.41
835.603	49.41
835.987	49.38
836.371	49.37
836.755	49.35
837.139	49.33
837.524	49.34
837.908	49.37
838.291	49.37
838.675	49.37
839.059	49.38
839.443	49.37
839.827	49.36
840.21	49.39
840.594	49.39
840.977	49.38
841.361	49.4
841.744	49.36
842.127	49.33
842.511	49.29
842.894	49.28
843.277	49.28
843.66	49.28
844.043	49.28
844.426	49.24
844.809	49.25
845.191	49.26
845.574	49.26
845.957	49.28
846.339	49.29
846.722	49.31
847.104	49.31
847.487	49.31
847.869	49.31
848.252	49.31
848.634	49.34
849.016	49.35
849.398	49.36
849.78	49.36
850.162	49.35
850.544	49.35
850.926	49.33
851.307	49.35
851.689	49.37
852.071	49.38
852.452	49.39
852.834	49.4
853.215	49.39
853.597	49.42
853.978	49.43
854.359	49.44
854.741	49.45
855.122	49.46
855.503	49.44
855.884	49.43
856.265	49.43
856.646	49.43
857.026	49.46
857.407	49.48
857.788	49.45
858.169	49.46
858.549	49.45
858.93	49.46
859.31	49.48
859.69	49.52
860.071	49.55
860.451	49.56
860.831	49.57
861.211	49.53
861.591	49.5
861.971	49.5
862.351	49.51
862.731	49.54
863.111	49.53
863.491	49.5
863.87	49.48
864.25	49.46
864.629	49.47
865.009	49.46
865.388	49.47
865.768	49.47
866.147	49.49
866.526	49.5
866.905	49.49
867.284	49.51
867.663	49.53
868.042	49.55
868.421	49.57
868.8	49.56
869.179	49.57
869.558	49.58
869.936	49.6
870.315	49.6
870.693	49.6
871.072	49.6
871.45	49.6
871.828	49.61
872.207	49.63
872.585	49.6
872.963	49.59
873.341	49.59
873.719	49.58
874.097	49.57
874.475	49.55
874.853	49.55
875.23	49.58
875.608	49.57
875.986	49.59
876.363	49.57
876.741	49.58
877.118	49.62
877.495	49.63
877.873	49.66
878.25	49.69
878.627	49.72
879.004	49.72
879.381	49.72
879.758	49.72
880.135	49.71
880.512	49.7
880.889	49.69
881.265	49.67
881.642	49.67
882.019	49.66
882.395	49.63
882.772	49.6
883.148	49.56
883.524	49.51
883.901	49.49
884.277	49.43
884.653	49.42
885.029	49.41
885.405	49.39
885.781	49.37
886.157	49.36
886.532	49.35
886.908	49.33
887.284	49.33
887.659	49.31
888.035	49.3
888.411	49.32
888.786	49.32
889.161	49.33
889.537	49.34
889.912	49.34
890.287	49.32
890.662	49.31
891.037	49.31
891.412	49.29
891.787	49.29
892.162	49.28
892.536	49.28
892.911	49.25
893.286	49.23
893.66	49.21
894.035	49.18
894.409	49.18
894.784	49.17
895.158	49.16
895.532	49.18
895.906	49.18
896.281	49.19
896.655	49.17
897.029	49.17
897.402	49.18
897.776	49.19
898.15	49.19
898.524	49.21
898.898	49.2
899.271	49.21
899.645	49.23
900.018	49.25
900.392	49.27
900.765	49.28
901.138	49.29
901.511	49.31
901.884	49.34
902.258	49.36
902.631	49.35
903.003	49.38
903.376	49.37
903.749	49.34
904.122	49.36
904.495	49.39
904.867	49.41
905.24	49.45
905.612	49.46
905.985	49.43
906.357	49.42
906.729	49.42
907.102	49.43
907.474	49.45
907.846	49.47
908.218	49.44
908.59	49.43
908.962	49.43
909.334	49.42
909.705	49.39
910.077	49.42
910.449	49.44
910.82	49.46
911.192	49.44
911.563	49.43
911.935	49.42
912.306	49.47
912.677	49.46
913.048	49.45
913.419	49.43
913.79	49.44
914.161	49.45
914.532	49.44
914.903	49.47
915.274	49.48
915.645	49.5
916.015	49.52
916.386	49.49
916.756	49.5
917.127	49.5
917.497	49.51
917.868	49.5
918.238	49.47
918.608	49.5
918.978	49.49
919.348	49.51
919.718	49.48
920.088	49.48
920.458	49.51
920.828	49.5
921.198	49.48
921.567	49.52
921.937	49.53
922.306	49.55
922.676	49.53
923.045	49.52
923.415	49.47
923.784	49.49
924.153	49.49
924.522	49.47
924.891	49.45
925.26	49.48
925.629	49.46
925.998	49.46
926.367	49.46
926.736	49.46
927.104	49.45
927.473	49.44
927.842	49.42
928.21	49.44
928.578	49.42
928.947	49.43
929.315	49.37
929.683	49.33
930.051	49.29
930.42	49.24
930.788	49.21
931.156	49.16
931.523	49.16
931.891	49.16
932.259	49.14
932.627	49.11
932.994	49.09
933.362	49.06
933.729	49.05
934.097	49.03
934.464	49.02
934.831	48.96
935.199	48.97
935.566	48.93
935.933	48.85
936.3	48.77
936.667	48.75
937.034	48.71
937.401	48.76
937.767	48.75
938.134	48.81
938.501	48.83
938.867	48.89
939.234	48.88
939.6	49.02
939.967	49.14
940.333	49.22
940.699	49.37
941.065	49.46
941.431	49.53
941.798	49.59
942.163	49.64
942.529	49.69
942.895	49.79
943.261	49.85
943.627	49.79
943.992	49.8
944.358	49.81
944.723	49.75
945.089	49.72
945.454	49.7
945.82	49.75
946.185	49.74
946.55	49.7
946.915	49.65
947.28	49.63
947.645	49.65
948.01	49.64
948.375	49.63
948.74	49.6
949.104	49.6
949.469	49.58
949.834	49.51
950.198	49.5
950.562	49.47
950.927	49.43
951.291	49.37
951.655	49.29
952.02	49.29
952.384	49.25
952.748	49.23
953.112	49.15
953.476	49.09
953.839	48.97
954.203	48.91
954.567	48.88
954.931	48.83
955.294	48.8
955.658	48.83
956.021	48.76
956.385	48.67
956.748	48.6
957.111	48.61
957.474	48.62
957.837	48.61
958.2	48.57
958.563	48.58
958.926	48.58
959.289	48.57
959.652	48.49
960.015	48.5
960.377	48.51
960.74	48.5
961.102	48.44
961.465	48.38
961.827	48.41
962.189	48.42
962.552	48.34
962.914	48.33
963.276	48.3
963.638	48.31
964	48.25
964.362	48.23
964.724	48.26
965.085	48.27
965.447	48.26
965.809	48.27
966.17	48.25
966.532	48.28
966.893	48.28
967.255	48.33
967.616	48.29
967.977	48.29
968.338	48.29
968.699	48.26
969.061	48.27
969.421	48.31
969.782	48.26
970.143	48.22
970.504	48.17
970.865	48.18
971.225	48.09
971.586	48.05
971.946	48
972.307	48
972.667	47.99
973.027	48.01
973.388	47.97
973.748	48.01
974.108	48.09
974.468	48.15
974.828	48.17
975.188	48.23
975.548	48.26
975.907	48.29
976.267	48.26
976.627	48.2
976.986	48.15
977.346	48.08
977.705	48.06
978.064	47.98
978.424	47.97
978.783	47.96
979.142	47.88
979.501	47.91
979.86	47.95
980.219	48.03
980.578	48.09
980.937	48.11
981.296	48.15
981.654	48.18
982.013	48.23
982.371	48.24
982.73	48.21
983.088	48.28
983.447	48.26
983.805	48.27
984.163	48.19
984.521	48.17
984.879	48.13
985.237	48.2
985.595	48.18
985.953	48.12
986.311	48.05
986.669	48.03
987.026	48.03
987.384	48.1
987.741	48.06
988.099	48.12
988.456	48.17
988.814	48.3
989.171	48.27
989.528	48.35
989.885	48.41
990.242	48.44
990.599	48.56
990.956	48.61
991.313	48.55
991.67	48.5
992.027	48.55
992.383	48.61
992.74	48.57
993.096	48.5
993.453	48.44
993.809	48.4
994.165	48.46
994.522	48.4
994.878	48.39
995.234	48.36
995.59	48.44
995.946	48.49
996.302	48.46
996.658	48.56
997.013	48.62
997.369	48.59
997.725	48.7
998.08	48.76
998.436	48.8
998.791	48.79
999.147	48.82
999.502	48.9
999.857	48.86
1000.212	48.91
1000.567	48.93
1000.922	48.96
1001.277	49.08
1001.632	49
1001.987	49.05
1002.342	49.02
1002.696	49.1
1003.051	49.3
1003.406	49.37
1003.76	49.35
1004.114	49.3
1004.469	49.33
1004.823	49.59
1005.177	49.61
1005.531	49.78
1005.885	49.66
1006.239	49.7
1006.593	49.78
1006.947	49.72
1007.301	49.73
1007.655	49.79
1008.008	49.85
1008.362	49.9
1008.715	49.79
1009.069	49.86
1009.422	49.72
1009.776	49.91
1010.129	49.99
1010.482	49.98
1010.835	49.97
1011.188	49.98
1011.541	50.11
1011.894	50.23
1012.247	50.34
1012.6	50.33
1012.952	50.34
1013.305	50.59
1013.657	50.7
1014.01	50.87
1014.362	50.88
1014.715	51.03
1015.067	51.02
1015.419	50.99
1015.771	50.8
1016.123	50.73
1016.475	50.81
1016.827	50.95
1017.179	51.02
1017.531	50.86
1017.883	50.82
1018.234	50.95
1018.586	50.8
1018.938	50.87
1019.289	50.91
1019.64	51.09
1019.992	51.09
1020.343	51.06
1020.694	50.9
1021.045	50.97
1021.396	51.2
1021.747	51.36
1022.098	51.24
1022.449	51.38
1022.8	51.58
1023.151	51.7
1023.501	51.96
1023.852	52.21
1024.202	52.24
1024.553	52.32
1024.903	52.4
1025.253	52.41
1025.604	52.19
1025.954	52.3
1026.304	52.6
1026.654	52.69
1027.004	52.77
1027.354	52.85
1027.703	52.72
1028.053	53.11
1028.403	53.33
1028.753	53.05
1029.102	53.19
1029.452	53.45
1029.801	53.63
1030.15	53.45
1030.499	53.34
897.758	974.38
901.051	980.51
904.343	979.34
907.636	993.75
910.928	967.96
914.22	965.63
917.511	950.74
920.803	914.52
924.094	910.51
927.384	889.21
930.675	856.49
933.965	851.72
937.255	801.03
940.544	770.59
943.834	736.39
947.123	730
950.411	690.44
953.7	676.53
956.988	637.52
960.276	615.4
963.563	606.91
966.851	582
970.138	578.1
973.424	562.44
976.711	563.17
979.997	537.75
983.283	535.5
986.568	523.66
989.853	509.03
993.138	500.84
996.423	480.84
999.708	468.12
1002.992	463.74
1006.275	445.27
1009.559	440.53
1012.842	425.55
1016.125	413.55
1019.408	405.23
1022.69	400.94
1025.972	392.37
1029.254	383.97
1032.536	378.13
1035.817	369.65
1039.098	365.76
1042.379	358.09
1045.659	354.18
1048.939	347.5
1052.219	340.19
1055.498	336.93
1058.778	329.35
1062.057	323.09
1065.335	319.61
1068.614	315.93
1071.892	314.17
1075.17	305.17
1078.447	300.18
1081.724	297.9
1085.001	294.71
1088.278	290.23
1091.554	284.74
1094.83	284.63
1098.106	282.36
1101.382	279.73
1104.657	277.24
1107.932	272.84
1111.206	273.96
1114.481	266.86
1117.755	265.7
1121.029	263.48
1124.302	263.21
1127.575	258.05
1130.848	255.29
1134.121	252.74
1137.393	251.2
1140.665	246.86
1143.937	244.11
1147.208	243.81
1150.48	243.38
1153.75	238.46
1157.021	236.32
1160.291	235.86
1163.561	233.41
1166.831	232.39
1170.101	231.1
1173.37	231.46
1176.639	231.94
1179.907	230.61
1183.176	227.03
1186.444	227.26
1189.711	227.93
1192.979	226.62
1196.246	225.23
1199.513	226.79
1202.78	226.56
1206.046	225.9
1209.312	223.42
1212.578	223.68
1215.843	225.24
1219.108	224.11
1222.373	228.04
1225.638	229.41
1228.902	232.72
1232.166	232.86
1235.43	233.24
1238.693	236.29
1241.956	238.2
1245.219	241.52
1248.482	241.89
1251.744	241.89
1255.006	243.18
1258.268	237.45
1261.529	235.5
1264.79	234.62
1268.051	232.75
1271.312	230.73
1274.572	227.55
1277.832	225.74
1281.092	222.35
1284.351	220.66
1287.61	220.95
1290.869	217.22
1294.128	216.17
1297.386	216.33
1300.644	213.36
1303.902	215.07
1307.159	213.74
1310.416	214.48
1313.673	213.36
1316.93	215.34
1320.186	214.87
1323.442	215.32
1326.697	218.45
1329.953	219.34
1333.208	219.38
1336.463	222.78
1339.717	222.61
1342.972	225.28
1346.226	226.71
1349.479	227.69
1352.733	228.23
1355.986	230.2
1359.238	229.16
1362.491	230.06
1365.743	232.04
1368.995	233.01
1372.247	232.13
1375.498	232.1
1378.749	233.59
1382	230.18
1385.251	230.48
1388.501	229.39
1391.751	228.68
1395	227.83
1398.25	225.8
1401.499	222.89
1404.748	221.9
1407.996	217.99
1411.244	216.69
1414.492	214.67
1417.74	212.55
1420.987	209.09
1424.234	208.27
1427.481	206.14
1430.728	205.43
1433.974	203.93
1437.22	202.74
1440.465	201.81
1443.711	200.14
1446.956	199.29
1450.201	197.32
1453.445	195.39
1456.689	194.67
1459.933	192.19
1463.177	190.05
1466.42	187.95
1469.663	185.46
1472.906	184.37
1476.148	180.2
1479.391	178.33
1482.633	176.73
1485.874	174.61
1489.115	173.76
1492.356	172
1495.597	171.02
1498.838	169.79
1502.078	168.49
1505.318	168.36
1508.557	168.12
1511.797	168.59
1515.036	167.74
1518.274	167.19
1521.513	166.12
1524.751	165.87
1527.989	166.16
1531.227	165.52
1534.464	165.47
1537.701	165.77
1540.938	165.31
1544.174	164
1547.41	163.86
1550.646	163.5
1553.882	163.52
1557.117	161.35
1560.352	161.2
1563.587	160.59
1566.821	159.66
1570.055	159.15
1573.289	157.43
1576.523	157.47
1579.756	156.42
1582.989	155.27
1586.222	155.27
1589.454	154.94
1592.686	156.57
1595.918	155.58
1599.15	155.1
1602.381	155.53
1605.612	154.87
1608.843	155.31
1612.073	155.57
1615.303	156.31
1618.533	156.95
1621.762	156.38
1624.992	156.83
1628.221	156.29
1631.449	156.04
1634.678	156.17
1637.906	157.19
1641.134	157.05
1644.361	156.56
1647.588	156.94
1650.815	156.69
1654.042	155.66
1657.269	156.69
1660.495	156.27
1663.72	155.9
1666.946	156.71
1670.171	157.19
1673.396	156.83
1676.621	156.47
1679.845	157.17
1683.069	157.05
1686.293	157.88
1689.517	159.16
1692.74	159.04
1695.963	159.31
1699.185	161.04
1702.408	161.16
1705.63	161.27
1708.852	161.63
1712.073	162.23
1715.294	162.44
1718.515	163.11
1721.736	162.79
1724.956	162.96
1728.176	163.24
1731.396	164.42
1734.616	163.32
1737.835	163.9
1741.054	163.14
1744.272	162.96
1747.491	164.39
1750.709	164.89
1753.927	164.36
1757.144	164.16
1760.361	164.24
1763.578	164.56
1766.795	164.05
1770.011	165.45
1773.227	165.26
1776.443	166.69
1779.658	167
1782.874	167.47
1786.089	166.88
1789.303	167.83
1792.518	168.97
1795.732	169.24
1798.945	170.14
1802.159	170.43
1805.372	170.54
1808.585	173.12
1811.797	173.81
1815.01	174.82
1818.222	174.91
1821.434	177.96
1824.645	177.8
1827.856	180.52
1831.067	181.92
1834.278	182.14
1837.488	183.05
1840.698	184.1
1843.908	182.55
1847.117	182.79
1850.326	183.68
1853.535	182.15
1856.744	183.36
1859.952	183.61
1863.16	181.93
1866.368	180.35
1869.575	180.24
1872.782	177.83
1875.989	176.36
1879.196	175.46
1882.402	174.04
1885.608	173.24
1888.814	173.79
1892.019	172.29
1895.224	170.92
1898.429	170.28
1901.634	170.47
1904.838	170.82
1908.042	171.82
1911.246	172.48
1914.449	172.85
1917.652	172.92
1920.855	172.89
1924.058	172.65
1927.26	171.87
1930.462	172.16
1933.664	174.17
1936.865	172.26
1940.066	171.77
1943.267	170.8
1946.467	170.96
1949.668	172.24
1952.868	174.17
1956.067	174.94
1959.267	174.5
1962.466	175.22
1965.665	174.61
1968.863	175.05
1972.061	179.38
1975.259	180.35
1978.457	182.36
1981.654	183.71
1984.852	184.11
1988.048	183.74
1991.245	185.34
1994.441	187.6
1997.637	189.46
2000.833	193.71
2004.028	196.14
2007.223	195.5
2010.418	198.45
2013.613	201.08
2016.807	203.26
2020.001	204.71
2023.194	207.89
2026.388	212.31
2029.581	218.05
2032.774	218.87
2035.966	222.74
2039.158	223.27
2042.35	227.96
2045.542	229.36
2048.733	232.8
2051.924	236.53
2055.115	240.82
2058.306	241.55
2061.496	242.97
2064.686	243.43
2067.875	248.32
2071.065	249.52
2074.254	246.99
2077.442	251.97
2080.631	253.03
2083.819	255.91
2087.007	256.13
2090.195	259.17
2093.382	262.13
2096.569	261.07
2099.756	265.24
2102.942	265.66
2106.128	266.96
2109.314	275.54
2112.5	272.94
2115.685	279.3
2118.87	279.29
2122.055	285.7
2125.239	286.49
2128.424	289.21
2131.608	292.28
2134.791	296.76
2137.974	297.79
2141.157	299.16
2144.34	298.62
2147.523	304.01
2150.705	301.87
2153.887	306.04
2157.068	305.21
2160.25	304.01
2163.431	305.84
2166.611	308.52
2169.792	312.53
2172.972	316.49
2176.152	318.82
2179.331	322.56
2182.511	326.83
2185.69	329.88
2188.868	335.13
2192.047	336.91
2195.225	346.33
2198.403	353.98
2201.58	360.4
2204.758	368.5
2207.935	373.23
2211.111	383.2
2214.288	386.43
2217.464	386.89
2220.64	393.57
2223.815	398.41
2226.991	412.6
2230.166	413.28
2233.34	418.97
2236.515	425.28
2239.689	424.93
2242.863	430.15
2246.036	436.71
2249.209	435.21
2252.382	442.85
2255.555	454.58
2258.727	456.59
2261.9	459.42
2265.071	463.37
2268.243	470.87
2271.414	477.65
2274.585	486.03
2277.756	489.52
2280.926	493.23
2284.096	505.95
2287.266	517.37
2290.436	521.1
2293.605	532.54
2296.774	550.23
2299.942	565.35
2303.111	570.52
2306.279	580.67
2309.447	591.72
2312.614	607.68
2315.781	624.62
2318.948	652.79
2322.115	641.33
2325.281	678.51
2328.447	664.46
2331.613	686.97
2334.779	682.71
2337.944	709.84
2341.109	717.65
2344.274	735.86
2347.438	760.61
2350.602	762.65
2353.766	784.31
2356.929	798.72
2360.092	790.27
2363.255	847.22
2366.418	846.04
2369.58	861.6
2372.742	915.98
2375.904	939.89
2379.066	932.22
2382.227	915.79
2385.388	991.11
2388.548	988.28
2391.709	1001.75
2394.869	1113.72
2398.029	1070.43
2401.188	1101.94
2404.347	1094.7
2407.506	1073.56
2410.665	1100.58
2413.823	1168.64
2416.981	1235.18
2420.139	1199.84
2423.296	1185.5
2426.453	1241.61
2429.61	1196.02
2432.767	1242.61
2435.923	1229.62
2439.079	1344.82
2442.235	1368.99
2445.391	1364.37
2448.546	1345.99
2451.701	1314.11
2454.855	1310.53
2458.009	1396.15
2461.163	1447.21
2464.317	1498.4
2467.471	1540.17
2470.624	1542.21
2473.777	1502.54
2476.929	1458.23
2480.082	1407.31
2483.234	1398.51
2486.385	1464.76
2489.537	1471.87
2492.688	1523.64
2495.839	1481.09
2498.989	1448.82
2502.14	1453.34
2505.29	1466.09
2508.439	1486.74
2511.589	1485.36
2514.738	1624.15
2517.887	1588.71
2521.035	1672.42
2524.183	1686.78
2527.331	1697.95
2530.479	1683.93
2533.627	1698.31
