Data from C_3_DIV_PA_2N_Splice17_14-12-48-423.txt Node
Date: Sat Mar 07 14:12:48 EST 2020
User: sa697716
Spectrometer: NQ5500242
Trigger mode: 0
Integration Time (sec): 1.450000E-1
Scans to average: 20
Nonlinearity correction enabled: false
Boxcar width: 5
Storing dark spectrum: false
XAxis mode: Wavelengths
Number of Pixels in Spectrum: 512
>>>>>Begin Spectral Data<<<<<
187.83	94.72
188.298	104.94
188.766	83.13
189.233	74.13
189.701	64.25
190.169	83.32
190.636	56.89
191.104	-28.96
191.571	-273.83
192.039	-179.64
192.506	-636.67
192.974	151.54
193.441	190.3
193.908	52.12
194.375	28.51
194.842	-24.3
195.31	-44.74
195.777	-278.03
196.244	37.34
196.711	62.27
197.177	67.89
197.644	67.98
198.111	69.56
198.578	70.2
199.045	70.96
199.511	71.03
199.978	71.15
200.445	71.49
200.911	71.63
201.378	71.83
201.844	71.9
202.31	71.78
202.777	72.05
203.243	71.71
203.709	71.68
204.176	71.17
204.642	71.03
205.108	70.73
205.574	70.34
206.04	70.06
206.506	69.52
206.972	69.34
207.438	68.6
207.903	67.71
208.369	66.47
208.835	65.04
209.301	63.79
209.766	62.2
210.232	60.83
210.697	59.58
211.163	58.27
211.628	57.19
212.094	55.81
212.559	54.8
213.024	53.77
213.49	53.02
213.955	52.2
214.42	51.5
214.885	50.72
215.35	49.45
215.815	47.56
216.28	45.21
216.745	42.55
217.21	39.8
217.675	37.24
218.14	34.79
218.604	32.69
219.069	30.87
219.534	29.27
219.998	27.96
220.463	26.87
220.927	25.89
221.392	25.07
221.856	24.43
222.32	23.86
222.785	23.32
223.249	22.87
223.713	22.42
224.177	22.05
224.642	21.71
225.106	21.31
225.57	20.93
226.034	20.62
226.497	20.3
226.961	19.95
227.425	19.65
227.889	19.36
228.353	19.09
228.816	18.79
229.28	18.51
229.744	18.25
230.207	18.01
230.671	17.77
231.134	17.51
231.597	17.29
232.061	17.07
232.524	16.85
232.987	16.61
233.45	16.4
233.914	16.21
234.377	16
234.84	15.81
235.303	15.64
235.766	15.45
236.229	15.29
236.691	15.13
237.154	14.99
237.617	14.83
238.08	14.7
238.542	14.55
239.005	14.43
239.468	14.29
239.93	14.17
240.393	14.04
240.855	13.88
241.317	13.75
241.78	13.61
242.242	13.44
242.704	13.32
243.166	13.18
243.629	13.05
244.091	12.89
244.553	12.75
245.015	12.61
245.477	12.49
245.939	12.38
246.4	12.25
246.862	12.13
247.324	12.02
247.786	11.9
248.247	11.77
248.709	11.63
249.17	11.51
249.632	11.38
250.093	11.26
250.555	11.13
251.016	11.01
251.477	10.89
251.939	10.78
252.4	10.66
252.861	10.54
253.322	10.43
253.783	10.35
254.244	10.26
254.705	10.17
255.166	10.08
255.627	10
256.088	9.91
256.549	9.84
257.009	9.75
257.47	9.67
257.931	9.59
258.391	9.5
258.852	9.42
259.312	9.34
259.773	9.25
260.233	9.17
260.694	9.08
261.154	9
261.614	8.91
262.074	8.84
262.534	8.75
262.994	8.69
263.455	8.63
263.915	8.56
264.374	8.51
264.834	8.45
265.294	8.39
265.754	8.34
266.214	8.3
266.673	8.25
267.133	8.21
267.593	8.17
268.052	8.14
268.512	8.1
268.971	8.06
269.431	8.02
269.89	7.99
270.349	7.97
270.809	7.94
271.268	7.91
271.727	7.88
272.186	7.85
272.645	7.84
273.104	7.81
273.563	7.78
274.022	7.75
274.481	7.73
274.94	7.7
275.399	7.67
275.857	7.65
276.316	7.62
276.775	7.6
277.233	7.58
277.692	7.54
278.15	7.52
278.609	7.5
279.067	7.48
279.525	7.46
279.984	7.44
280.442	7.43
280.9	7.41
281.358	7.4
281.816	7.39
282.274	7.37
282.732	7.37
283.19	7.36
283.648	7.35
284.106	7.35
284.564	7.35
285.021	7.34
285.479	7.33
285.937	7.33
286.394	7.33
286.852	7.32
287.309	7.31
287.767	7.29
288.224	7.25
288.682	7.23
289.139	7.19
289.596	7.15
290.053	7.11
290.511	7.07
290.968	7.02
291.425	6.98
291.882	6.94
292.339	6.9
292.796	6.87
293.252	6.84
293.709	6.81
294.166	6.78
294.623	6.76
295.079	6.74
295.536	6.72
295.992	6.7
296.449	6.68
296.905	6.67
297.362	6.65
297.818	6.63
298.274	6.62
298.731	6.6
299.187	6.58
299.643	6.56
300.099	6.55
300.555	6.53
301.011	6.52
301.467	6.5
301.923	6.48
302.379	6.47
302.835	6.46
303.291	6.45
303.746	6.44
304.202	6.43
304.658	6.43
305.113	6.41
305.569	6.41
306.024	6.4
306.479	6.4
306.935	6.39
307.39	6.4
307.845	6.39
308.301	6.39
308.756	6.39
309.211	6.38
309.666	6.39
310.121	6.39
310.576	6.39
311.031	6.39
311.486	6.39
311.94	6.39
312.395	6.4
312.85	6.39
313.305	6.39
313.759	6.39
314.214	6.39
314.668	6.38
315.123	6.38
315.577	6.38
316.032	6.37
316.486	6.36
316.94	6.35
317.394	6.32
317.849	6.3
318.303	6.29
318.757	6.26
319.211	6.24
319.665	6.21
320.119	6.19
320.572	6.16
321.026	6.13
321.48	6.11
321.934	6.09
322.387	6.07
322.841	6.06
323.295	6.05
323.748	6.04
324.202	6.03
324.655	6.03
325.108	6.02
325.562	6.01
326.015	6.02
326.468	6.01
326.921	6.02
327.374	6.01
327.827	6
328.28	5.98
328.733	5.97
329.186	5.97
329.639	5.96
330.092	5.96
330.545	5.96
330.997	5.95
331.45	5.96
331.903	5.95
332.355	5.97
332.808	5.98
333.26	6
333.713	6.01
334.165	6.01
334.617	6.02
335.069	6.03
335.522	6.03
335.974	6.04
336.426	6.04
336.878	6.04
337.33	6.04
337.782	6.04
338.234	6.05
338.686	6.05
339.137	6.06
339.589	6.04
340.041	6.03
340.493	6.02
340.944	6.01
341.396	5.99
341.847	5.97
342.299	5.94
342.75	5.92
343.201	5.88
343.653	5.85
344.104	5.82
344.555	5.79
345.006	5.77
345.457	5.75
345.908	5.74
346.359	5.73
346.81	5.72
347.261	5.71
347.712	5.7
348.163	5.69
348.613	5.71
349.064	5.71
349.515	5.71
349.965	5.71
350.416	5.71
350.866	5.71
351.317	5.7
351.767	5.71
352.217	5.71
352.668	5.71
353.118	5.72
353.568	5.71
354.018	5.72
354.468	5.72
354.918	5.73
355.368	5.74
355.818	5.75
356.268	5.75
356.718	5.75
357.168	5.75
357.617	5.75
358.067	5.76
358.517	5.77
358.966	5.77
359.416	5.78
359.865	5.77
360.315	5.78
360.764	5.78
361.213	5.78
361.663	5.79
362.112	5.8
362.561	5.81
363.01	5.82
363.459	5.81
363.908	5.81
364.357	5.82
364.806	5.82
365.255	5.83
365.703	5.84
366.152	5.86
366.601	5.87
367.05	5.88
367.498	5.88
367.947	5.89
368.395	5.9
368.844	5.92
369.292	5.93
369.74	5.95
370.189	5.95
370.637	5.95
371.085	5.95
371.533	5.96
371.981	5.96
372.429	5.97
372.877	5.97
373.325	5.98
373.773	5.99
374.221	5.99
374.669	5.99
375.116	6
375.564	5.99
376.012	6
376.459	6.01
376.907	6.03
377.354	6.04
377.801	6.06
378.249	6.06
378.696	6.07
379.143	6.08
379.591	6.1
380.038	6.11
380.485	6.13
380.932	6.15
381.379	6.16
381.826	6.16
382.273	6.17
382.72	6.17
383.166	6.18
383.613	6.19
384.06	6.19
384.506	6.19
384.953	6.21
385.4	6.23
385.846	6.25
386.292	6.27
386.739	6.29
387.185	6.32
387.631	6.34
388.078	6.37
388.524	6.39
388.97	6.41
389.416	6.44
389.862	6.47
390.308	6.5
390.754	6.53
391.2	6.55
391.645	6.58
392.091	6.61
392.537	6.65
392.983	6.68
393.428	6.73
393.874	6.77
394.319	6.81
394.765	6.84
395.21	6.86
395.655	6.9
396.101	6.94
396.546	6.98
396.991	7.02
397.436	7.05
397.881	7.11
398.326	7.15
398.771	7.2
399.216	7.25
399.661	7.3
400.106	7.36
400.551	7.4
400.995	7.42
401.44	7.46
401.885	7.48
402.329	7.51
402.774	7.55
403.218	7.6
403.663	7.63
404.107	7.67
404.551	7.71
404.995	7.74
405.44	7.78
405.884	7.84
406.328	7.88
406.772	7.93
407.216	7.98
407.66	8.01
408.104	8.04
408.547	8.08
408.991	8.12
409.435	8.16
409.879	8.21
410.322	8.27
410.766	8.32
411.209	8.38
411.653	8.44
412.096	8.48
412.54	8.53
412.983	8.58
413.426	8.65
413.869	8.71
414.312	8.78
414.756	8.85
415.199	8.91
415.642	8.95
416.085	9
416.527	9.03
416.97	9.07
417.413	9.09
417.856	9.11
418.298	9.12
418.741	9.13
419.184	9.14
419.626	9.16
420.069	9.17
420.511	9.18
420.953	9.2
421.396	9.23
421.838	9.26
422.28	9.3
422.722	9.37
423.164	9.41
423.606	9.43
424.048	9.47
424.49	9.51
424.932	9.54
425.374	9.54
425.816	9.55
426.258	9.53
426.699	9.54
427.141	9.54
427.582	9.54
428.024	9.57
428.465	9.6
428.907	9.61
429.348	9.61
429.789	9.62
430.231	9.67
430.672	9.72
431.113	9.78
431.554	9.83
431.995	9.87
432.436	9.9
432.877	9.93
433.318	9.95
433.759	10
434.2	10.05
434.64	10.09
435.081	10.12
435.522	10.16
435.962	10.19
436.403	10.26
436.843	10.31
437.284	10.31
437.724	10.34
438.164	10.36
438.604	10.4
439.045	10.41
439.485	10.43
439.925	10.44
440.365	10.47
440.805	10.46
441.245	10.47
441.685	10.49
442.125	10.53
442.564	10.57
443.004	10.57
443.444	10.59
443.883	10.62
444.323	10.64
444.762	10.66
445.202	10.68
445.641	10.72
446.081	10.75
446.52	10.76
446.959	10.79
447.398	10.81
447.837	10.85
448.276	10.84
448.716	10.88
449.154	10.93
449.593	10.96
450.032	10.97
450.471	10.98
450.91	10.96
451.349	10.98
451.787	10.96
452.226	10.97
452.664	10.95
453.103	10.95
453.541	10.93
453.98	10.9
454.418	10.87
454.856	10.85
455.295	10.82
455.733	10.78
456.171	10.75
456.609	10.73
457.047	10.69
457.485	10.67
457.923	10.66
458.361	10.62
458.798	10.63
459.236	10.61
459.674	10.6
460.111	10.58
460.549	10.61
460.987	10.6
461.424	10.61
461.862	10.61
462.299	10.61
462.736	10.6
463.173	10.61
463.611	10.59
464.048	10.59
464.485	10.59
464.922	10.59
465.359	10.58
465.796	10.58
466.233	10.59
466.67	10.59
467.106	10.61
467.543	10.62
467.98	10.59
468.416	10.58
468.853	10.58
469.29	10.57
469.726	10.56
470.162	10.56
470.599	10.55
471.035	10.54
471.471	10.54
471.907	10.52
472.344	10.53
472.78	10.54
473.216	10.55
473.652	10.56
474.088	10.54
474.523	10.55
474.959	10.54
475.395	10.53
475.831	10.52
476.266	10.52
476.702	10.5
477.138	10.49
477.573	10.49
478.008	10.47
478.444	10.45
478.879	10.45
479.314	10.44
479.75	10.44
480.185	10.42
480.62	10.42
481.055	10.39
481.49	10.37
481.925	10.36
482.36	10.34
482.795	10.33
483.229	10.32
483.664	10.32
484.099	10.31
484.534	10.31
484.968	10.32
485.403	10.31
485.837	10.32
486.271	10.34
486.706	10.35
487.14	10.37
487.574	10.38
488.009	10.39
488.443	10.4
488.877	10.42
489.311	10.43
489.745	10.44
490.179	10.47
490.613	10.5
491.046	10.52
491.48	10.55
491.914	10.58
492.348	10.62
492.781	10.66
493.215	10.7
493.648	10.76
494.082	10.81
494.515	10.85
494.948	10.89
495.382	10.94
495.815	11
496.248	11.05
496.681	11.11
497.114	11.17
497.547	11.23
497.98	11.29
498.413	11.34
498.846	11.41
499.279	11.49
499.711	11.58
500.144	11.66
500.577	11.74
501.009	11.81
501.442	11.9
501.874	12
502.306	12.09
502.739	12.2
503.171	12.31
503.603	12.41
504.036	12.52
504.468	12.64
504.9	12.76
505.332	12.88
505.764	13.03
506.196	13.17
506.627	13.29
507.059	13.44
507.491	13.6
507.923	13.76
508.354	13.94
508.786	14.12
509.217	14.29
509.649	14.46
510.08	14.64
510.512	14.82
510.943	15.01
511.374	15.21
511.805	15.42
512.237	15.62
512.668	15.84
513.099	16.06
513.53	16.27
513.961	16.5
514.391	16.73
514.822	16.97
515.253	17.19
515.684	17.42
516.114	17.65
516.545	17.89
516.975	18.13
517.406	18.35
517.836	18.58
518.267	18.82
518.697	19.03
519.127	19.25
519.558	19.48
519.988	19.7
520.418	19.93
520.848	20.15
521.278	20.37
521.708	20.59
522.138	20.81
522.567	21.02
522.997	21.22
523.427	21.43
523.857	21.64
524.286	21.83
524.716	22.04
525.145	22.23
525.575	22.42
526.004	22.62
526.433	22.77
526.863	22.93
527.292	23.1
527.721	23.24
528.15	23.39
528.579	23.53
529.008	23.68
529.437	23.8
529.866	23.92
530.295	24.05
530.724	24.15
531.152	24.26
531.581	24.39
532.01	24.5
532.438	24.6
532.867	24.7
533.295	24.8
533.723	24.87
534.152	24.95
534.58	25.03
535.008	25.09
535.436	25.16
535.865	25.21
536.293	25.24
536.721	25.28
537.149	25.34
537.576	25.37
538.004	25.41
538.432	25.43
538.86	25.48
539.287	25.5
539.715	25.55
540.143	25.58
540.57	25.63
540.998	25.66
541.425	25.69
541.852	25.72
542.28	25.76
542.707	25.79
543.134	25.84
543.561	25.87
543.988	25.91
544.415	25.93
544.842	25.95
545.269	25.98
545.696	26.02
546.123	26.04
546.549	26.08
546.976	26.11
547.403	26.13
547.829	26.17
548.256	26.21
548.682	26.24
549.108	26.28
549.535	26.33
549.961	26.36
550.387	26.4
550.813	26.42
551.24	26.45
551.666	26.47
552.092	26.51
552.518	26.52
552.943	26.52
553.369	26.53
553.795	26.53
554.221	26.52
554.646	26.52
555.072	26.49
555.498	26.49
555.923	26.46
556.349	26.43
556.774	26.37
557.199	26.33
557.625	26.29
558.05	26.22
558.475	26.16
558.9	26.11
559.325	26.05
559.75	25.97
560.175	25.88
560.6	25.8
561.025	25.72
561.449	25.65
561.874	25.55
562.299	25.45
562.723	25.35
563.148	25.22
563.572	25.1
563.997	24.97
564.421	24.84
564.846	24.72
565.27	24.6
565.694	24.46
566.118	24.3
566.542	24.16
566.966	24.02
567.39	23.87
567.814	23.74
568.238	23.59
568.662	23.45
569.086	23.31
569.509	23.18
569.933	23.04
570.357	22.9
570.78	22.77
571.204	22.64
571.627	22.52
572.05	22.4
572.474	22.3
572.897	22.2
573.32	22.09
573.743	21.98
574.166	21.88
574.589	21.78
575.012	21.7
575.435	21.6
575.858	21.54
576.281	21.45
576.704	21.38
577.126	21.31
577.549	21.23
577.972	21.16
578.394	21.1
578.817	21.03
579.239	20.97
579.661	20.9
580.084	20.84
580.506	20.76
580.928	20.7
581.35	20.62
581.772	20.55
582.194	20.49
582.616	20.43
583.038	20.38
583.46	20.33
583.882	20.26
584.303	20.19
584.725	20.16
585.147	20.11
585.568	20.06
585.99	20.01
586.411	19.96
586.833	19.91
587.254	19.87
587.675	19.82
588.096	19.76
588.518	19.72
588.939	19.68
589.36	19.63
589.781	19.61
590.202	19.57
590.623	19.53
591.043	19.49
591.464	19.47
591.885	19.42
592.305	19.4
592.726	19.38
593.147	19.35
593.567	19.31
593.987	19.28
594.408	19.25
594.828	19.22
595.248	19.19
595.669	19.16
596.089	19.13
596.509	19.11
596.929	19.08
597.349	19.03
597.769	19
598.189	18.97
598.608	18.95
599.028	18.9
599.448	18.87
599.867	18.84
600.287	18.81
600.706	18.79
601.126	18.75
601.545	18.72
601.965	18.71
602.384	18.69
602.803	18.67
603.222	18.63
603.641	18.62
604.061	18.59
604.48	18.55
604.898	18.52
605.317	18.48
605.736	18.44
606.155	18.41
606.574	18.36
606.992	18.32
607.411	18.27
607.829	18.2
608.248	18.14
608.666	18.08
609.085	18.05
609.503	18.02
609.921	17.97
610.339	17.93
610.758	17.87
611.176	17.82
611.594	17.78
612.012	17.72
612.43	17.69
612.847	17.65
613.265	17.6
613.683	17.55
614.101	17.5
614.518	17.44
614.936	17.38
615.353	17.32
615.771	17.28
616.188	17.23
616.606	17.2
617.023	17.14
617.44	17.11
617.857	17.07
618.274	17.03
618.691	16.99
619.108	16.96
619.525	16.93
619.942	16.91
620.359	16.88
620.776	16.85
621.192	16.81
621.609	16.8
622.026	16.77
622.442	16.75
622.859	16.74
623.275	16.72
623.691	16.7
624.108	16.69
624.524	16.67
624.94	16.66
625.356	16.66
625.772	16.65
626.188	16.63
626.604	16.61
627.02	16.6
627.436	16.58
627.852	16.58
628.268	16.56
628.683	16.55
629.099	16.54
629.514	16.51
629.93	16.49
630.345	16.46
630.761	16.42
631.176	16.38
631.591	16.33
632.007	16.27
632.422	16.21
632.837	16.13
633.252	16.06
633.667	15.99
634.082	15.91
634.497	15.82
634.911	15.73
635.326	15.63
635.741	15.52
636.155	15.42
636.57	15.3
636.984	15.18
637.399	15.06
637.813	14.93
638.228	14.79
638.642	14.64
639.056	14.5
639.47	14.36
639.884	14.24
640.298	14.1
640.712	13.96
641.126	13.82
641.54	13.69
641.954	13.56
642.368	13.44
642.781	13.32
643.195	13.21
643.609	13.09
644.022	12.98
644.436	12.88
644.849	12.8
645.262	12.7
645.676	12.62
646.089	12.56
646.502	12.48
646.915	12.42
647.328	12.37
647.741	12.31
648.154	12.27
648.567	12.24
648.98	12.2
649.393	12.17
649.805	12.15
650.218	12.12
650.631	12.1
651.043	12.08
651.456	12.05
651.868	12.02
652.28	11.99
652.693	11.97
653.105	11.94
653.517	11.92
653.929	11.89
654.341	11.86
654.753	11.83
655.165	11.8
655.577	11.77
655.989	11.73
656.401	11.71
656.813	11.67
657.224	11.63
657.636	11.57
658.047	11.52
658.459	11.45
658.87	11.4
659.282	11.33
659.693	11.26
660.104	11.2
660.515	11.13
660.926	11.07
661.338	11
661.749	10.94
662.159	10.88
662.57	10.84
662.981	10.78
663.392	10.72
663.803	10.68
664.213	10.63
664.624	10.58
665.035	10.54
665.445	10.5
665.855	10.47
666.266	10.44
666.676	10.4
667.086	10.35
667.497	10.33
667.907	10.3
668.317	10.28
668.727	10.25
669.137	10.25
669.547	10.24
669.956	10.22
670.366	10.22
670.776	10.21
671.186	10.21
671.595	10.21
672.005	10.2
672.414	10.22
672.824	10.22
673.233	10.24
673.642	10.25
674.052	10.25
674.461	10.26
674.87	10.28
675.279	10.31
675.688	10.34
676.097	10.37
676.506	10.41
676.915	10.44
677.323	10.48
677.732	10.51
678.141	10.56
678.549	10.61
678.958	10.67
679.366	10.75
679.775	10.81
680.183	10.89
680.592	10.99
681	11.1
681.408	11.21
681.816	11.35
682.224	11.49
682.632	11.63
683.04	11.79
683.448	11.96
683.856	12.13
684.264	12.35
684.671	12.59
685.079	12.84
685.487	13.11
685.894	13.42
686.302	13.74
686.709	14.08
687.116	14.46
687.524	14.88
687.931	15.31
688.338	15.79
688.745	16.28
689.152	16.79
689.559	17.33
689.966	17.89
690.373	18.46
690.78	19.07
691.187	19.71
691.593	20.34
692	20.99
692.407	21.66
692.813	22.34
693.22	23.02
693.626	23.72
694.032	24.44
694.439	25.15
694.845	25.87
695.251	26.59
695.657	27.27
696.063	28
696.469	28.72
696.875	29.44
697.281	30.13
697.687	30.84
698.093	31.52
698.498	32.19
698.904	32.86
699.31	33.52
699.715	34.19
700.12	34.88
700.526	35.53
700.931	36.17
701.337	36.79
701.742	37.41
702.147	38.02
702.552	38.62
702.957	39.21
703.362	39.8
703.767	40.34
704.172	40.9
704.577	41.43
704.981	41.94
705.386	42.46
705.791	42.97
706.195	43.48
706.6	44
707.004	44.49
707.408	44.97
707.813	45.44
708.217	45.93
708.621	46.4
709.025	46.85
709.43	47.3
709.834	47.76
710.237	48.18
710.641	48.58
711.045	48.99
711.449	49.38
711.853	49.76
712.256	50.13
712.66	50.46
713.064	50.78
713.467	51.1
713.87	51.4
714.274	51.67
714.677	51.96
715.08	52.22
715.484	52.47
715.887	52.76
716.29	53.02
716.693	53.3
717.096	53.62
717.499	53.93
717.901	54.23
718.304	54.55
718.707	54.86
719.109	55.18
719.512	55.51
719.915	55.8
720.317	56.04
720.719	56.27
721.122	56.52
721.524	56.77
721.926	57
722.328	57.22
722.731	57.43
723.133	57.63
723.535	57.83
723.937	58
724.338	58.18
724.74	58.38
725.142	58.62
725.544	58.78
725.945	58.93
726.347	59.07
726.748	59.2
727.15	59.32
727.551	59.51
727.952	59.65
728.354	59.82
728.755	59.99
729.156	60.15
729.557	60.26
729.958	60.4
730.359	60.56
730.76	60.73
731.161	60.9
731.562	61.06
731.962	61.14
732.363	61.24
732.763	61.35
733.164	61.42
733.564	61.49
733.965	61.56
734.365	61.63
734.766	61.67
735.166	61.72
735.566	61.77
735.966	61.83
736.366	61.9
736.766	61.92
737.166	61.98
737.566	62.08
737.966	62.14
738.365	62.19
738.765	62.27
739.165	62.34
739.564	62.39
739.964	62.45
740.363	62.46
740.763	62.51
741.162	62.55
741.561	62.58
741.96	62.58
742.36	62.63
742.759	62.69
743.158	62.72
743.557	62.71
743.955	62.76
744.354	62.78
744.753	62.83
745.152	62.87
745.55	62.93
745.949	62.97
746.348	63.01
746.746	63.05
747.144	63.1
747.543	63.12
747.941	63.2
748.339	63.2
748.737	63.22
749.136	63.25
749.534	63.25
749.932	63.26
750.33	63.24
750.727	63.26
751.125	63.26
751.523	63.2
751.921	63.18
752.318	63.14
752.716	63.14
753.113	63.11
753.511	63.1
753.908	63.08
754.305	63.01
754.703	62.91
755.1	62.73
755.497	62.46
755.894	62.16
756.291	61.81
756.688	61.4
757.085	61.04
757.482	60.72
757.878	60.42
758.275	60.11
758.672	59.84
759.068	59.63
759.465	59.46
759.861	59.42
760.258	59.47
760.654	59.58
761.05	59.76
761.447	59.93
761.843	60.06
762.239	60.22
762.635	60.39
763.031	60.57
763.427	60.76
763.822	61.02
764.218	61.23
764.614	61.44
765.01	61.63
765.405	61.81
765.801	61.94
766.196	62.08
766.592	62.17
766.987	62.26
767.382	62.33
767.778	62.39
768.173	62.43
768.568	62.46
768.963	62.47
769.358	62.5
769.753	62.52
770.148	62.52
770.542	62.55
770.937	62.56
771.332	62.57
771.726	62.57
772.121	62.55
772.515	62.55
772.91	62.54
773.304	62.53
773.699	62.5
774.093	62.47
774.487	62.47
774.881	62.44
775.275	62.42
775.669	62.42
776.063	62.42
776.457	62.43
776.851	62.4
777.245	62.35
777.638	62.34
778.032	62.35
778.425	62.37
778.819	62.35
779.212	62.32
779.606	62.31
779.999	62.28
780.392	62.3
780.786	62.29
781.179	62.34
781.572	62.37
781.965	62.36
782.358	62.36
782.751	62.33
783.143	62.34
783.536	62.31
783.929	62.33
784.322	62.32
784.714	62.31
785.107	62.3
785.499	62.23
785.891	62.19
786.284	62.21
786.676	62.18
787.068	62.16
787.46	62.13
787.852	62.16
788.245	62.12
788.636	62.08
789.028	62.04
789.42	61.99
789.812	62
790.204	61.97
790.595	61.91
790.987	61.88
791.378	61.86
791.77	61.82
792.161	61.77
792.553	61.77
792.944	61.74
793.335	61.72
793.726	61.71
794.117	61.63
794.508	61.61
794.899	61.59
795.29	61.56
795.681	61.51
796.072	61.49
796.463	61.43
796.853	61.38
797.244	61.36
797.634	61.3
798.025	61.27
798.415	61.27
798.806	61.22
799.196	61.2
799.586	61.19
799.976	61.15
800.366	61.1
800.756	61.11
801.146	61.12
801.536	61.13
801.926	61.13
802.316	61.11
802.706	61.1
803.095	61.11
803.485	61.09
803.874	61.03
804.264	61.02
804.653	61.01
805.043	60.95
805.432	60.87
805.821	60.8
806.21	60.75
806.599	60.71
806.988	60.64
807.377	60.58
807.766	60.53
808.155	60.46
808.544	60.44
808.933	60.39
809.321	60.36
809.71	60.31
810.098	60.25
810.487	60.2
810.875	60.16
811.264	60.14
811.652	60.09
812.04	60.03
812.428	60.02
812.816	59.96
813.204	59.9
813.592	59.83
813.98	59.84
814.368	59.79
814.756	59.71
815.144	59.65
815.531	59.6
815.919	59.58
816.306	59.57
816.694	59.54
817.081	59.52
817.469	59.53
817.856	59.49
818.243	59.41
818.63	59.36
819.017	59.33
819.404	59.29
819.791	59.26
820.178	59.24
820.565	59.14
820.952	59.08
821.339	59.03
821.725	58.99
822.112	59
822.498	59.02
822.885	59.05
823.271	59.03
823.657	58.96
824.044	58.92
824.43	58.87
824.816	58.84
825.202	58.81
825.588	58.76
825.974	58.69
826.36	58.62
826.746	58.55
827.132	58.46
827.517	58.42
827.903	58.44
828.289	58.39
828.674	58.36
829.06	58.32
829.445	58.27
829.83	58.23
830.216	58.18
830.601	58.14
830.986	58.1
831.371	58.06
831.756	58.01
832.141	57.94
832.526	57.9
832.911	57.83
833.295	57.79
833.68	57.77
834.065	57.71
834.449	57.66
834.834	57.62
835.218	57.59
835.603	57.54
835.987	57.5
836.371	57.46
836.755	57.44
837.139	57.4
837.524	57.39
837.908	57.37
838.291	57.38
838.675	57.35
839.059	57.32
839.443	57.26
839.827	57.23
840.21	57.21
840.594	57.19
840.977	57.15
841.361	57.14
841.744	57.08
842.127	57.02
842.511	56.96
842.894	56.91
843.277	56.89
843.66	56.86
844.043	56.86
844.426	56.84
844.809	56.83
845.191	56.81
845.574	56.78
845.957	56.76
846.339	56.75
846.722	56.75
847.104	56.75
847.487	56.71
847.869	56.7
848.252	56.67
848.634	56.64
849.016	56.62
849.398	56.59
849.78	56.56
850.162	56.55
850.544	56.52
850.926	56.51
851.307	56.5
851.689	56.51
852.071	56.49
852.452	56.47
852.834	56.47
853.215	56.45
853.597	56.43
853.978	56.42
854.359	56.42
854.741	56.42
855.122	56.4
855.503	56.38
855.884	56.36
856.265	56.35
856.646	56.35
857.026	56.36
857.407	56.35
857.788	56.35
858.169	56.38
858.549	56.35
858.93	56.35
859.31	56.34
859.69	56.35
860.071	56.36
860.451	56.33
860.831	56.32
861.211	56.27
861.591	56.24
861.971	56.21
862.351	56.19
862.731	56.2
863.111	56.16
863.491	56.16
863.87	56.11
864.25	56.09
864.629	56.09
865.009	56.08
865.388	56.09
865.768	56.09
866.147	56.1
866.526	56.07
866.905	56.06
867.284	56.09
867.663	56.06
868.042	56.07
868.421	56.08
868.8	56.09
869.179	56.07
869.558	56.05
869.936	56.05
870.315	56.03
870.693	56.03
871.072	56.04
871.45	56.02
871.828	56.01
872.207	56.01
872.585	55.97
872.963	55.95
873.341	55.93
873.719	55.93
874.097	55.91
874.475	55.9
874.853	55.88
875.23	55.85
875.608	55.83
875.986	55.82
876.363	55.82
876.741	55.83
877.118	55.85
877.495	55.85
877.873	55.83
878.25	55.87
878.627	55.86
879.004	55.88
879.381	55.88
879.758	55.86
880.135	55.86
880.512	55.86
880.889	55.85
881.265	55.8
881.642	55.8
882.019	55.82
882.395	55.78
882.772	55.78
883.148	55.73
883.524	55.7
883.901	55.69
884.277	55.67
884.653	55.64
885.029	55.61
885.405	55.62
885.781	55.61
886.157	55.57
886.532	55.56
886.908	55.51
887.284	55.49
887.659	55.44
888.035	55.4
888.411	55.38
888.786	55.35
889.161	55.35
889.537	55.3
889.912	55.27
890.287	55.22
890.662	55.19
891.037	55.2
891.412	55.16
891.787	55.14
892.162	55.11
892.536	55.08
892.911	55.04
893.286	54.99
893.66	54.98
894.035	54.95
894.409	54.91
894.784	54.86
895.158	54.81
895.532	54.79
895.906	54.76
896.281	54.73
896.655	54.72
897.029	54.7
897.402	54.69
897.776	54.68
898.15	54.66
898.524	54.69
898.898	54.7
899.271	54.7
899.645	54.75
900.018	54.8
900.392	54.85
900.765	54.88
901.138	54.91
901.511	54.96
901.884	54.97
902.258	55.01
902.631	55.03
903.003	55.05
903.376	55.09
903.749	55.06
904.122	55.06
904.495	55.06
904.867	55.06
905.24	55.07
905.612	55.06
905.985	55.05
906.357	55.02
906.729	55.03
907.102	55.03
907.474	55.03
907.846	55.06
908.218	55.05
908.59	55.06
908.962	55.08
909.334	55.1
909.705	55.1
910.077	55.14
910.449	55.18
910.82	55.21
911.192	55.21
911.563	55.2
911.935	55.19
912.306	55.2
912.677	55.21
913.048	55.23
913.419	55.18
913.79	55.2
914.161	55.2
914.532	55.16
914.903	55.14
915.274	55.15
915.645	55.18
916.015	55.19
916.386	55.21
916.756	55.19
917.127	55.18
917.497	55.21
917.868	55.22
918.238	55.21
918.608	55.28
918.978	55.27
919.348	55.31
919.718	55.3
920.088	55.32
920.458	55.31
920.828	55.34
921.198	55.3
921.567	55.31
921.937	55.29
922.306	55.27
922.676	55.24
923.045	55.22
923.415	55.16
923.784	55.16
924.153	55.15
924.522	55.15
924.891	55.12
925.26	55.17
925.629	55.13
925.998	55.13
926.367	55.13
926.736	55.09
927.104	55.08
927.473	55.04
927.842	55
928.21	54.97
928.578	54.92
928.947	54.93
929.315	54.87
929.683	54.84
930.051	54.78
930.42	54.76
930.788	54.7
931.156	54.64
931.523	54.61
931.891	54.61
932.259	54.54
932.627	54.49
932.994	54.41
933.362	54.33
933.729	54.3
934.097	54.26
934.464	54.21
934.831	54.21
935.199	54.23
935.566	54.2
935.933	54.09
936.3	54.06
936.667	54.04
937.034	54.03
937.401	54.06
937.767	54.06
938.134	54.03
938.501	53.96
938.867	53.99
939.234	53.96
939.6	53.93
939.967	54
940.333	54.04
940.699	54.1
941.065	54.1
941.431	54.09
941.798	54.03
942.163	54.07
942.529	54.17
942.895	54.16
943.261	54.16
943.627	54.2
943.992	54.22
944.358	54.23
944.723	54.17
945.089	54.11
945.454	54.11
945.82	54.19
946.185	54.2
946.55	54.07
946.915	54.1
947.28	54.08
947.645	54.03
948.01	54.02
948.375	53.96
948.74	53.93
949.104	53.97
949.469	53.93
949.834	53.85
950.198	53.79
950.562	53.86
950.927	53.75
951.291	53.66
951.655	53.65
952.02	53.53
952.384	53.53
952.748	53.49
953.112	53.43
953.476	53.36
953.839	53.33
954.203	53.34
954.567	53.28
954.931	53.28
955.294	53.28
955.658	53.31
956.021	53.29
956.385	53.27
956.748	53.2
957.111	53.18
957.474	53.22
957.837	53.18
958.2	53.09
958.563	53.09
958.926	53.09
959.289	53.11
959.652	53.09
960.015	53.13
960.377	53.1
960.74	53.21
961.102	53.22
961.465	53.24
961.827	53.26
962.189	53.33
962.552	53.34
962.914	53.36
963.276	53.39
963.638	53.37
964	53.34
964.362	53.39
964.724	53.34
965.085	53.31
965.447	53.32
965.809	53.36
966.17	53.34
966.532	53.33
966.893	53.32
967.255	53.3
967.616	53.3
967.977	53.34
968.338	53.35
968.699	53.37
969.061	53.41
969.421	53.43
969.782	53.43
970.143	53.45
970.504	53.52
970.865	53.58
971.225	53.59
971.586	53.59
971.946	53.59
972.307	53.59
972.667	53.61
973.027	53.66
973.388	53.64
973.748	53.66
974.108	53.76
974.468	53.74
974.828	53.69
975.188	53.73
975.548	53.75
975.907	53.81
976.267	53.83
976.627	53.83
976.986	53.8
977.346	53.81
977.705	53.8
978.064	53.81
978.424	53.83
978.783	53.81
979.142	53.77
979.501	53.83
979.86	53.87
980.219	53.85
980.578	53.92
980.937	53.98
981.296	53.98
981.654	54.03
982.013	54
982.371	53.98
982.73	54.11
983.088	54.18
983.447	54.12
983.805	54.06
984.163	54.13
984.521	54.14
984.879	54.11
985.237	54.16
985.595	54.22
985.953	54.21
986.311	54.25
986.669	54.17
987.026	54.19
987.384	54.24
987.741	54.24
988.099	54.33
988.456	54.26
988.814	54.34
989.171	54.3
989.528	54.27
989.885	54.37
990.242	54.39
990.599	54.47
990.956	54.55
991.313	54.64
991.67	54.76
992.027	54.73
992.383	54.85
992.74	54.96
993.096	55.03
993.453	55.12
993.809	55.17
994.165	55.23
994.522	55.31
994.878	55.37
995.234	55.36
995.59	55.33
995.946	55.36
996.302	55.42
996.658	55.51
997.013	55.62
997.369	55.65
997.725	55.7
998.08	55.84
998.436	55.92
998.791	55.99
999.147	56.05
999.502	56.14
999.857	56.21
1000.212	56.15
1000.567	56.09
1000.922	56.08
1001.277	56.14
1001.632	56.13
1001.987	56.06
1002.342	56.02
1002.696	55.92
1003.051	56.06
1003.406	56.11
1003.76	56.14
1004.114	56.16
1004.469	56.27
1004.823	56.53
1005.177	56.44
1005.531	56.47
1005.885	56.48
1006.239	56.46
1006.593	56.58
1006.947	56.52
1007.301	56.49
1007.655	56.61
1008.008	56.81
1008.362	56.79
1008.715	56.74
1009.069	57.05
1009.422	57.1
1009.776	57.21
1010.129	57.45
1010.482	57.54
1010.835	57.71
1011.188	57.82
1011.541	57.79
1011.894	57.92
1012.247	58.21
1012.6	58.15
1012.952	58
1013.305	58.23
1013.657	58.29
1014.01	58.17
1014.362	58.12
1014.715	58.19
1015.067	58.28
1015.419	58.45
1015.771	58.35
1016.123	58.15
1016.475	58.29
1016.827	58.39
1017.179	58.34
1017.531	58.42
1017.883	58.66
1018.234	58.9
1018.586	58.93
1018.938	59.15
1019.289	59.05
1019.64	59.18
1019.992	59.28
1020.343	59.25
1020.694	59.3
1021.045	59.38
1021.396	59.65
1021.747	59.72
1022.098	59.94
1022.449	59.92
1022.8	59.97
1023.151	60.05
1023.501	60.34
1023.852	60.39
1024.202	60.38
1024.553	60.51
1024.903	60.61
1025.253	60.45
1025.604	60.59
1025.954	60.1
1026.304	60.38
1026.654	60.26
1027.004	60.27
1027.354	60.05
1027.703	59.73
1028.053	59.92
1028.403	60.07
1028.753	59.97
1029.102	60.12
1029.452	60.05
1029.801	60.46
1030.15	60.3
1030.499	60.3
897.758	993.07
901.051	1000.54
904.343	997.29
907.636	1013.92
910.928	990.15
914.22	989
917.511	971.27
920.803	934.58
924.094	929.7
927.384	910.43
930.675	875.29
933.965	869.79
937.255	820.61
940.544	789.26
943.834	752.59
947.123	744.43
950.411	700.8
953.7	689.21
956.988	652.06
960.276	626.33
963.563	617.68
966.851	595.21
970.138	589.95
973.424	571.26
976.711	575.55
979.997	547.65
983.283	545.79
986.568	535.64
989.853	518.96
993.138	508.72
996.423	491.07
999.708	477.73
1002.992	471.92
1006.275	453.66
1009.559	449.14
1012.842	431.69
1016.125	420.74
1019.408	412.5
1022.69	410.3
1025.972	401.59
1029.254	392.87
1032.536	386.48
1035.817	380
1039.098	375.32
1042.379	367.62
1045.659	363.41
1048.939	356.05
1052.219	350.07
1055.498	346
1058.778	336.08
1062.057	330.13
1065.335	326.53
1068.614	322.9
1071.892	318.87
1075.17	310.11
1078.447	305.39
1081.724	303.33
1085.001	301.04
1088.278	295.26
1091.554	288.84
1094.83	290.26
1098.106	287.94
1101.382	284.96
1104.657	282.79
1107.932	278.78
1111.206	280.26
1114.481	272.85
1117.755	270.71
1121.029	268.07
1124.302	267.26
1127.575	263.17
1130.848	259.35
1134.121	256.76
1137.393	256.1
1140.665	250.6
1143.937	247.99
1147.208	246.91
1150.48	246.3
1153.75	242.87
1157.021	239.98
1160.291	240.16
1163.561	237.56
1166.831	236
1170.101	234.25
1173.37	234.43
1176.639	235.1
1179.907	233.11
1183.176	230.45
1186.444	230.25
1189.711	230.33
1192.979	229.57
1196.246	228.15
1199.513	228.65
1202.78	228.65
1206.046	228.43
1209.312	225.42
1212.578	225.52
1215.843	227.62
1219.108	225.77
1222.373	230.21
1225.638	231.54
1228.902	234.48
1232.166	234.48
1235.43	235.91
1238.693	239.14
1241.956	240.82
1245.219	244.69
1248.482	245.44
1251.744	245.1
1255.006	246.75
1258.268	240.08
1261.529	238.28
1264.79	237.75
1268.051	236.05
1271.312	232.51
1274.572	229.76
1277.832	228.15
1281.092	223.99
1284.351	222.3
1287.61	222.52
1290.869	218.29
1294.128	217.75
1297.386	217.19
1300.644	214.03
1303.902	215
1307.159	214.76
1310.416	214.5
1313.673	212.88
1316.93	215.17
1320.186	214.24
1323.442	214.12
1326.697	218.11
1329.953	218.63
1333.208	219.27
1336.463	222.35
1339.717	222.33
1342.972	225.53
1346.226	226.48
1349.479	227.61
1352.733	228.26
1355.986	229.82
1359.238	229.48
1362.491	229.33
1365.743	231.04
1368.995	231.1
1372.247	229
1375.498	229.38
1378.749	228.55
1382	225.12
1385.251	225.83
1388.501	223.23
1391.751	222.21
1395	221.17
1398.25	219.23
1401.499	216.16
1404.748	215.13
1407.996	212.79
1411.244	211.27
1414.492	209.98
1417.74	207.35
1420.987	203.67
1424.234	203.79
1427.481	202.05
1430.728	201.54
1433.974	199.84
1437.22	199.04
1440.465	197.82
1443.711	195.95
1446.956	194.69
1450.201	192.81
1453.445	191.71
1456.689	191.02
1459.933	187.92
1463.177	185.26
1466.42	182.62
1469.663	180.14
1472.906	178.64
1476.148	174.29
1479.391	172.4
1482.633	170.97
1485.874	168.45
1489.115	167.52
1492.356	165.52
1495.597	165.39
1498.838	163.62
1502.078	162.84
1505.318	162.49
1508.557	162.62
1511.797	162.55
1515.036	161.53
1518.274	160.62
1521.513	159.45
1524.751	159.42
1527.989	159.83
1531.227	158.73
1534.464	159.36
1537.701	158.79
1540.938	158.41
1544.174	156.03
1547.41	156.74
1550.646	156.06
1553.882	156.26
1557.117	154.95
1560.352	154.14
1563.587	153.5
1566.821	152.65
1570.055	151.89
1573.289	150.33
1576.523	150.44
1579.756	149.98
1582.989	148.82
1586.222	149.18
1589.454	149.09
1592.686	149.96
1595.918	149.24
1599.15	148.7
1602.381	149.3
1605.612	148.78
1608.843	149.09
1612.073	148.87
1615.303	149.84
1618.533	150.16
1621.762	149.97
1624.992	149.8
1628.221	149.69
1631.449	149.31
1634.678	149.69
1637.906	150.6
1641.134	150.15
1644.361	150.3
1647.588	151.1
1650.815	150.65
1654.042	150.15
1657.269	150.95
1660.495	150.98
1663.72	150.31
1666.946	151.16
1670.171	151.27
1673.396	150.57
1676.621	151.33
1679.845	151.98
1683.069	152.02
1686.293	152.54
1689.517	153.31
1692.74	153.16
1695.963	153.59
1699.185	155.33
1702.408	155.17
1705.63	155.47
1708.852	155.9
1712.073	156.23
1715.294	156.16
1718.515	156.44
1721.736	156.39
1724.956	156.8
1728.176	156.84
1731.396	157.71
1734.616	156.57
1737.835	157.48
1741.054	156.25
1744.272	156.82
1747.491	157.85
1750.709	158.08
1753.927	157.94
1757.144	157.32
1760.361	157.49
1763.578	157.38
1766.795	156.78
1770.011	158.65
1773.227	157.9
1776.443	159.65
1779.658	159.69
1782.874	159.17
1786.089	159.14
1789.303	159.54
1792.518	161.94
1795.732	161.43
1798.945	162.75
1802.159	163.14
1805.372	162.81
1808.585	165.88
1811.797	166.29
1815.01	166.73
1818.222	167.91
1821.434	170.78
1824.645	170.85
1827.856	172.8
1831.067	174.57
1834.278	174.2
1837.488	175.83
1840.698	176.62
1843.908	175.16
1847.117	175.61
1850.326	176.73
1853.535	175.24
1856.744	176.1
1859.952	176.57
1863.16	174.75
1866.368	172.98
1869.575	173.73
1872.782	170.39
1875.989	170.7
1879.196	169.55
1882.402	168.8
1885.608	168.72
1888.814	169.3
1892.019	168.62
1895.224	167.66
1898.429	167.98
1901.634	168.87
1904.838	169.86
1908.042	171.95
1911.246	171.37
1914.449	173.04
1917.652	173.54
1920.855	173.45
1924.058	173.38
1927.26	172.63
1930.462	173.34
1933.664	175.09
1936.865	173.41
1940.066	172.29
1943.267	171.74
1946.467	172.17
1949.668	172.86
1952.868	174.24
1956.067	174.64
1959.267	174.22
1962.466	174.91
1965.665	173.59
1968.863	173.86
1972.061	177.28
1975.259	179.04
1978.457	180.15
1981.654	181.76
1984.852	182.39
1988.048	181.95
1991.245	183.65
1994.441	185.96
1997.637	187.05
2000.833	191.58
2004.028	193.95
2007.223	193.92
2010.418	196.25
2013.613	199.79
2016.807	201.47
2020.001	204.19
2023.194	206.66
2026.388	210.8
2029.581	215.73
2032.774	218.22
2035.966	222.01
2039.158	222.34
2042.35	227.52
2045.542	229.03
2048.733	231.84
2051.924	235.14
2055.115	237.76
2058.306	239.52
2061.496	241.34
2064.686	241.78
2067.875	245.95
2071.065	246.57
2074.254	244.6
2077.442	248.88
2080.631	249.13
2083.819	251.65
2087.007	252.54
2090.195	255.34
2093.382	257.68
2096.569	256.82
2099.756	260.13
2102.942	260.48
2106.128	262.01
2109.314	270.77
2112.5	268.67
2115.685	274.46
2118.87	274.95
2122.055	280.34
2125.239	282.13
2128.424	284.54
2131.608	287.67
2134.791	291.41
2137.974	292.57
2141.157	294.57
2144.34	293.24
2147.523	298.32
2150.705	297.03
2153.887	300.13
2157.068	300
2160.25	298.17
2163.431	300.15
2166.611	302.84
2169.792	308.69
2172.972	312.21
2176.152	315.51
2179.331	318.9
2182.511	323.24
2185.69	327.17
2188.868	332.4
2192.047	334.23
2195.225	343.73
2198.403	352.09
2201.58	358.03
2204.758	364.54
2207.935	371.39
2211.111	377.32
2214.288	381.48
2217.464	382.32
2220.64	388.18
2223.815	394.2
2226.991	408.26
2230.166	408.9
2233.34	415.68
2236.515	423.28
2239.689	425.92
2242.863	428.56
2246.036	439.08
2249.209	435.18
2252.382	444.32
2255.555	456.79
2258.727	458.99
2261.9	462.52
2265.071	466.22
2268.243	474.59
2271.414	480.46
2274.585	488.46
2277.756	493.36
2280.926	498.35
2284.096	511.15
2287.266	519.83
2290.436	525.01
2293.605	535.5
2296.774	554.45
2299.942	571
2303.111	572.84
2306.279	584.82
2309.447	595.45
2312.614	610.19
2315.781	626.16
2318.948	657.73
2322.115	649
2325.281	684.47
2328.447	672.76
2331.613	695.04
2334.779	689.98
2337.944	719.26
2341.109	725.75
2344.274	744.72
2347.438	772.68
2350.602	772.32
2353.766	796.26
2356.929	808.47
2360.092	805.27
2363.255	864.03
2366.418	862.05
2369.58	880.22
2372.742	933.36
2375.904	957.16
2379.066	953.01
2382.227	930.66
2385.388	1012.64
2388.548	1011.66
2391.709	1023.44
2394.869	1133.63
2398.029	1088.92
2401.188	1120.97
2404.347	1113.09
2407.506	1095.95
2410.665	1126.37
2413.823	1194.39
2416.981	1268.52
2420.139	1225.18
2423.296	1210.02
2426.453	1269.85
2429.61	1228.7
2432.767	1278.08
2435.923	1266.45
2439.079	1387.66
2442.235	1412.67
2445.391	1402.62
2448.546	1386.79
2451.701	1348.28
2454.855	1348.11
2458.009	1431.25
2461.163	1485.54
2464.317	1528.94
2467.471	1565.96
2470.624	1565.87
2473.777	1521.45
2476.929	1475.56
2480.082	1425.74
2483.234	1413.75
2486.385	1487.88
2489.537	1496.56
2492.688	1549.84
2495.839	1502.23
2498.989	1470.38
2502.14	1479.74
2505.29	1494.05
2508.439	1513
2511.589	1512.26
2514.738	1658.4
2517.887	1618.88
2521.035	1706.13
2524.183	1714.67
2527.331	1727.61
2530.479	1720.39
2533.627	1734.75
