Data from C_3_DIV_PA_2N_Splice17_14-13-02-227.txt Node
Date: Sat Mar 07 14:13:02 EST 2020
User: sa697716
Spectrometer: NQ5500242
Trigger mode: 0
Integration Time (sec): 1.450000E-1
Scans to average: 20
Nonlinearity correction enabled: false
Boxcar width: 5
Storing dark spectrum: false
XAxis mode: Wavelengths
Number of Pixels in Spectrum: 512
>>>>>Begin Spectral Data<<<<<
187.83	190.93
188.298	192.4
188.766	163.43
189.233	142.82
189.701	141.01
190.169	157.38
190.636	163.67
191.104	295.77
191.571	278.13
192.039	327.27
192.506	222.15
192.974	20.65
193.441	-11.02
193.908	-8.41
194.375	53.08
194.842	5.66
195.31	-12.19
195.777	-263.83
196.244	66.6
196.711	69.37
197.177	71.86
197.644	71.2
198.111	71.66
198.578	71.79
199.045	71.8
199.511	71.81
199.978	72.29
200.445	72.72
200.911	72.87
201.378	72.45
201.844	72.26
202.31	71.93
202.777	72.11
203.243	72.01
203.709	71.96
204.176	71.51
204.642	71
205.108	70.75
205.574	70.09
206.04	69.42
206.506	69.26
206.972	69.18
207.438	68.72
207.903	67.9
208.369	66.78
208.835	65.37
209.301	64.1
209.766	62.47
210.232	60.7
210.697	59.36
211.163	58.21
211.628	56.98
212.094	55.81
212.559	54.85
213.024	53.75
213.49	52.83
213.955	52.09
214.42	51.29
214.885	50.44
215.35	49.4
215.815	47.52
216.28	45.24
216.745	42.36
217.21	39.58
217.675	36.85
218.14	34.47
218.604	32.31
219.069	30.51
219.534	29
219.998	27.71
220.463	26.63
220.927	25.68
221.392	24.88
221.856	24.24
222.32	23.63
222.785	23.16
223.249	22.67
223.713	22.26
224.177	21.88
224.642	21.52
225.106	21.16
225.57	20.78
226.034	20.46
226.497	20.12
226.961	19.81
227.425	19.52
227.889	19.23
228.353	18.96
228.816	18.68
229.28	18.39
229.744	18.13
230.207	17.87
230.671	17.61
231.134	17.35
231.597	17.14
232.061	16.92
232.524	16.69
232.987	16.47
233.45	16.27
233.914	16.06
234.377	15.87
234.84	15.66
235.303	15.49
235.766	15.32
236.229	15.17
236.691	14.99
237.154	14.83
237.617	14.68
238.08	14.54
238.542	14.39
239.005	14.27
239.468	14.14
239.93	14.02
240.393	13.88
240.855	13.74
241.317	13.61
241.78	13.48
242.242	13.34
242.704	13.2
243.166	13.07
243.629	12.96
244.091	12.81
244.553	12.67
245.015	12.53
245.477	12.4
245.939	12.28
246.4	12.15
246.862	12.02
247.324	11.9
247.786	11.78
248.247	11.64
248.709	11.5
249.17	11.36
249.632	11.24
250.093	11.13
250.555	11.01
251.016	10.89
251.477	10.76
251.939	10.64
252.4	10.53
252.861	10.41
253.322	10.31
253.783	10.22
254.244	10.14
254.705	10.04
255.166	9.96
255.627	9.88
256.088	9.8
256.549	9.73
257.009	9.65
257.47	9.56
257.931	9.48
258.391	9.39
258.852	9.3
259.312	9.21
259.773	9.13
260.233	9.04
260.694	8.96
261.154	8.88
261.614	8.81
262.074	8.73
262.534	8.65
262.994	8.59
263.455	8.54
263.915	8.47
264.374	8.41
264.834	8.36
265.294	8.3
265.754	8.25
266.214	8.2
266.673	8.15
267.133	8.1
267.593	8.06
268.052	8.02
268.512	7.99
268.971	7.95
269.431	7.92
269.89	7.88
270.349	7.86
270.809	7.82
271.268	7.79
271.727	7.76
272.186	7.75
272.645	7.73
273.104	7.69
273.563	7.66
274.022	7.64
274.481	7.62
274.94	7.59
275.399	7.56
275.857	7.54
276.316	7.51
276.775	7.49
277.233	7.46
277.692	7.43
278.15	7.41
278.609	7.38
279.067	7.36
279.525	7.35
279.984	7.33
280.442	7.31
280.9	7.3
281.358	7.29
281.816	7.28
282.274	7.27
282.732	7.26
283.19	7.25
283.648	7.25
284.106	7.25
284.564	7.25
285.021	7.25
285.479	7.26
285.937	7.26
286.394	7.25
286.852	7.24
287.309	7.23
287.767	7.2
288.224	7.18
288.682	7.15
289.139	7.11
289.596	7.07
290.053	7.03
290.511	6.97
290.968	6.93
291.425	6.88
291.882	6.84
292.339	6.79
292.796	6.76
293.252	6.73
293.709	6.71
294.166	6.69
294.623	6.67
295.079	6.65
295.536	6.63
295.992	6.61
296.449	6.6
296.905	6.58
297.362	6.57
297.818	6.55
298.274	6.53
298.731	6.51
299.187	6.48
299.643	6.46
300.099	6.44
300.555	6.42
301.011	6.41
301.467	6.39
301.923	6.37
302.379	6.36
302.835	6.35
303.291	6.34
303.746	6.32
304.202	6.32
304.658	6.32
305.113	6.31
305.569	6.3
306.024	6.3
306.479	6.29
306.935	6.28
307.39	6.29
307.845	6.28
308.301	6.27
308.756	6.28
309.211	6.28
309.666	6.28
310.121	6.28
310.576	6.28
311.031	6.28
311.486	6.28
311.94	6.29
312.395	6.29
312.85	6.3
313.305	6.31
313.759	6.31
314.214	6.3
314.668	6.29
315.123	6.29
315.577	6.28
316.032	6.28
316.486	6.27
316.94	6.25
317.394	6.23
317.849	6.22
318.303	6.19
318.757	6.16
319.211	6.15
319.665	6.12
320.119	6.1
320.572	6.06
321.026	6.05
321.48	6.03
321.934	6
322.387	5.98
322.841	5.97
323.295	5.95
323.748	5.95
324.202	5.94
324.655	5.93
325.108	5.92
325.562	5.93
326.015	5.92
326.468	5.91
326.921	5.92
327.374	5.9
327.827	5.9
328.28	5.89
328.733	5.88
329.186	5.87
329.639	5.87
330.092	5.87
330.545	5.87
330.997	5.87
331.45	5.88
331.903	5.88
332.355	5.89
332.808	5.89
333.26	5.9
333.713	5.9
334.165	5.91
334.617	5.92
335.069	5.92
335.522	5.92
335.974	5.93
336.426	5.93
336.878	5.92
337.33	5.91
337.782	5.91
338.234	5.91
338.686	5.91
339.137	5.91
339.589	5.89
340.041	5.89
340.493	5.87
340.944	5.85
341.396	5.84
341.847	5.82
342.299	5.8
342.75	5.78
343.201	5.75
343.653	5.73
344.104	5.71
344.555	5.69
345.006	5.66
345.457	5.65
345.908	5.65
346.359	5.64
346.81	5.63
347.261	5.62
347.712	5.62
348.163	5.61
348.613	5.6
349.064	5.6
349.515	5.6
349.965	5.6
350.416	5.59
350.866	5.58
351.317	5.57
351.767	5.58
352.217	5.58
352.668	5.59
353.118	5.61
353.568	5.61
354.018	5.62
354.468	5.62
354.918	5.63
355.368	5.64
355.818	5.65
356.268	5.66
356.718	5.66
357.168	5.66
357.617	5.66
358.067	5.65
358.517	5.66
358.966	5.67
359.416	5.66
359.865	5.67
360.315	5.67
360.764	5.67
361.213	5.67
361.663	5.67
362.112	5.68
362.561	5.69
363.01	5.7
363.459	5.7
363.908	5.69
364.357	5.7
364.806	5.71
365.255	5.72
365.703	5.73
366.152	5.74
366.601	5.76
367.05	5.76
367.498	5.76
367.947	5.76
368.395	5.77
368.844	5.79
369.292	5.8
369.74	5.81
370.189	5.81
370.637	5.81
371.085	5.81
371.533	5.82
371.981	5.82
372.429	5.83
372.877	5.84
373.325	5.84
373.773	5.85
374.221	5.85
374.669	5.84
375.116	5.84
375.564	5.84
376.012	5.85
376.459	5.86
376.907	5.87
377.354	5.89
377.801	5.91
378.249	5.91
378.696	5.92
379.143	5.95
379.591	5.96
380.038	5.98
380.485	5.99
380.932	6
381.379	6.01
381.826	6.01
382.273	6.02
382.72	6.01
383.166	6.02
383.613	6.02
384.06	6.01
384.506	6.02
384.953	6.03
385.4	6.05
385.846	6.08
386.292	6.1
386.739	6.13
387.185	6.14
387.631	6.18
388.078	6.2
388.524	6.23
388.97	6.26
389.416	6.28
389.862	6.32
390.308	6.36
390.754	6.38
391.2	6.4
391.645	6.43
392.091	6.48
392.537	6.52
392.983	6.55
393.428	6.59
393.874	6.63
394.319	6.68
394.765	6.7
395.21	6.73
395.655	6.76
396.101	6.8
396.546	6.83
396.991	6.87
397.436	6.9
397.881	6.95
398.326	7
398.771	7.04
399.216	7.09
399.661	7.14
400.106	7.18
400.551	7.22
400.995	7.25
401.44	7.27
401.885	7.3
402.329	7.32
402.774	7.36
403.218	7.42
403.663	7.46
404.107	7.5
404.551	7.54
404.995	7.58
405.44	7.62
405.884	7.68
406.328	7.75
406.772	7.8
407.216	7.85
407.66	7.89
408.104	7.91
408.547	7.95
408.991	7.99
409.435	8.03
409.879	8.08
410.322	8.13
410.766	8.17
411.209	8.22
411.653	8.28
412.096	8.33
412.54	8.38
412.983	8.43
413.426	8.5
413.869	8.57
414.312	8.66
414.756	8.71
415.199	8.76
415.642	8.81
416.085	8.85
416.527	8.88
416.97	8.91
417.413	8.94
417.856	8.96
418.298	8.97
418.741	8.97
419.184	8.98
419.626	9
420.069	9.03
420.511	9.05
420.953	9.06
421.396	9.09
421.838	9.12
422.28	9.15
422.722	9.2
423.164	9.23
423.606	9.27
424.048	9.29
424.49	9.33
424.932	9.36
425.374	9.36
425.816	9.35
426.258	9.35
426.699	9.34
427.141	9.34
427.582	9.35
428.024	9.38
428.465	9.41
428.907	9.43
429.348	9.43
429.789	9.45
430.231	9.49
430.672	9.55
431.113	9.61
431.554	9.67
431.995	9.72
432.436	9.76
432.877	9.78
433.318	9.81
433.759	9.86
434.2	9.92
434.64	9.95
435.081	10
435.522	10.03
435.962	10.06
436.403	10.12
436.843	10.16
437.284	10.17
437.724	10.18
438.164	10.19
438.604	10.22
439.045	10.24
439.485	10.25
439.925	10.26
440.365	10.27
440.805	10.29
441.245	10.3
441.685	10.33
442.125	10.37
442.564	10.41
443.004	10.43
443.444	10.44
443.883	10.47
444.323	10.51
444.762	10.54
445.202	10.56
445.641	10.59
446.081	10.62
446.52	10.63
446.959	10.67
447.398	10.7
447.837	10.73
448.276	10.75
448.716	10.77
449.154	10.81
449.593	10.84
450.032	10.84
450.471	10.85
450.91	10.83
451.349	10.85
451.787	10.85
452.226	10.84
452.664	10.82
453.103	10.81
453.541	10.78
453.98	10.75
454.418	10.71
454.856	10.69
455.295	10.68
455.733	10.65
456.171	10.61
456.609	10.58
457.047	10.55
457.485	10.53
457.923	10.52
458.361	10.5
458.798	10.49
459.236	10.48
459.674	10.46
460.111	10.44
460.549	10.44
460.987	10.43
461.424	10.43
461.862	10.42
462.299	10.42
462.736	10.4
463.173	10.4
463.611	10.4
464.048	10.4
464.485	10.39
464.922	10.4
465.359	10.4
465.796	10.39
466.233	10.4
466.67	10.4
467.106	10.41
467.543	10.41
467.98	10.41
468.416	10.4
468.853	10.41
469.29	10.43
469.726	10.43
470.162	10.43
470.599	10.44
471.035	10.43
471.471	10.42
471.907	10.4
472.344	10.4
472.78	10.4
473.216	10.4
473.652	10.39
474.088	10.36
474.523	10.36
474.959	10.35
475.395	10.33
475.831	10.32
476.266	10.34
476.702	10.34
477.138	10.33
477.573	10.32
478.008	10.32
478.444	10.3
478.879	10.3
479.314	10.29
479.75	10.28
480.185	10.26
480.62	10.26
481.055	10.24
481.49	10.22
481.925	10.21
482.36	10.19
482.795	10.17
483.229	10.17
483.664	10.16
484.099	10.15
484.534	10.16
484.968	10.16
485.403	10.17
485.837	10.17
486.271	10.19
486.706	10.19
487.14	10.2
487.574	10.22
488.009	10.23
488.443	10.24
488.877	10.26
489.311	10.27
489.745	10.3
490.179	10.32
490.613	10.34
491.046	10.36
491.48	10.39
491.914	10.43
492.348	10.46
492.781	10.5
493.215	10.55
493.648	10.59
494.082	10.63
494.515	10.66
494.948	10.7
495.382	10.74
495.815	10.8
496.248	10.86
496.681	10.92
497.114	10.97
497.547	11.03
497.98	11.09
498.413	11.15
498.846	11.22
499.279	11.3
499.711	11.38
500.144	11.46
500.577	11.54
501.009	11.61
501.442	11.71
501.874	11.81
502.306	11.9
502.739	12.03
503.171	12.14
503.603	12.24
504.036	12.36
504.468	12.47
504.9	12.59
505.332	12.72
505.764	12.86
506.196	12.99
506.627	13.13
507.059	13.27
507.491	13.41
507.923	13.57
508.354	13.75
508.786	13.93
509.217	14.1
509.649	14.29
510.08	14.47
510.512	14.66
510.943	14.86
511.374	15.05
511.805	15.26
512.237	15.46
512.668	15.67
513.099	15.86
513.53	16.08
513.961	16.31
514.391	16.53
514.822	16.77
515.253	16.99
515.684	17.21
516.114	17.45
516.545	17.69
516.975	17.93
517.406	18.15
517.836	18.39
518.267	18.64
518.697	18.84
519.127	19.07
519.558	19.3
519.988	19.53
520.418	19.76
520.848	19.99
521.278	20.2
521.708	20.44
522.138	20.66
522.567	20.87
522.997	21.07
523.427	21.3
523.857	21.47
524.286	21.66
524.716	21.86
525.145	22.06
525.575	22.24
526.004	22.43
526.433	22.59
526.863	22.75
527.292	22.92
527.721	23.06
528.15	23.21
528.579	23.37
529.008	23.5
529.437	23.63
529.866	23.76
530.295	23.89
530.724	24
531.152	24.12
531.581	24.24
532.01	24.33
532.438	24.44
532.867	24.53
533.295	24.63
533.723	24.71
534.152	24.78
534.58	24.85
535.008	24.9
535.436	24.96
535.865	25.01
536.293	25.07
536.721	25.13
537.149	25.18
537.576	25.23
538.004	25.26
538.432	25.31
538.86	25.35
539.287	25.37
539.715	25.42
540.143	25.46
540.57	25.49
540.998	25.52
541.425	25.56
541.852	25.58
542.28	25.61
542.707	25.64
543.134	25.67
543.561	25.72
543.988	25.76
544.415	25.77
544.842	25.81
545.269	25.85
545.696	25.86
546.123	25.9
546.549	25.94
546.976	25.97
547.403	26.02
547.829	26.05
548.256	26.09
548.682	26.11
549.108	26.15
549.535	26.19
549.961	26.22
550.387	26.25
550.813	26.26
551.24	26.28
551.666	26.3
552.092	26.31
552.518	26.32
552.943	26.32
553.369	26.31
553.795	26.32
554.221	26.31
554.646	26.29
555.072	26.27
555.498	26.24
555.923	26.21
556.349	26.18
556.774	26.15
557.199	26.1
557.625	26.06
558.05	26.03
558.475	25.97
558.9	25.92
559.325	25.86
559.75	25.8
560.175	25.74
560.6	25.66
561.025	25.58
561.449	25.49
561.874	25.38
562.299	25.28
562.723	25.18
563.148	25.08
563.572	24.94
563.997	24.83
564.421	24.69
564.846	24.57
565.27	24.42
565.694	24.29
566.118	24.15
566.542	24.01
566.966	23.85
567.39	23.71
567.814	23.56
568.238	23.42
568.662	23.27
569.086	23.13
569.509	22.98
569.933	22.87
570.357	22.73
570.78	22.59
571.204	22.48
571.627	22.37
572.05	22.24
572.474	22.14
572.897	22.04
573.32	21.93
573.743	21.84
574.166	21.74
574.589	21.63
575.012	21.54
575.435	21.46
575.858	21.39
576.281	21.31
576.704	21.23
577.126	21.14
577.549	21.05
577.972	20.99
578.394	20.9
578.817	20.84
579.239	20.77
579.661	20.69
580.084	20.62
580.506	20.55
580.928	20.49
581.35	20.41
581.772	20.36
582.194	20.3
582.616	20.26
583.038	20.21
583.46	20.15
583.882	20.08
584.303	20.02
584.725	19.97
585.147	19.92
585.568	19.87
585.99	19.83
586.411	19.79
586.833	19.72
587.254	19.67
587.675	19.64
588.096	19.59
588.518	19.56
588.939	19.53
589.36	19.5
589.781	19.46
590.202	19.42
590.623	19.38
591.043	19.33
591.464	19.32
591.885	19.28
592.305	19.23
592.726	19.2
593.147	19.17
593.567	19.14
593.987	19.11
594.408	19.07
594.828	19.04
595.248	19.02
595.669	18.99
596.089	18.95
596.509	18.92
596.929	18.9
597.349	18.88
597.769	18.84
598.189	18.81
598.608	18.78
599.028	18.76
599.448	18.72
599.867	18.69
600.287	18.66
600.706	18.63
601.126	18.6
601.545	18.57
601.965	18.55
602.384	18.53
602.803	18.5
603.222	18.47
603.641	18.43
604.061	18.4
604.48	18.37
604.898	18.32
605.317	18.31
605.736	18.26
606.155	18.23
606.574	18.17
606.992	18.12
607.411	18.08
607.829	18.01
608.248	17.96
608.666	17.91
609.085	17.87
609.503	17.84
609.921	17.79
610.339	17.74
610.758	17.69
611.176	17.64
611.594	17.59
612.012	17.55
612.43	17.52
612.847	17.47
613.265	17.42
613.683	17.37
614.101	17.32
614.518	17.26
614.936	17.2
615.353	17.14
615.771	17.1
616.188	17.05
616.606	17.01
617.023	16.98
617.44	16.95
617.857	16.91
618.274	16.86
618.691	16.81
619.108	16.77
619.525	16.74
619.942	16.72
620.359	16.69
620.776	16.66
621.192	16.62
621.609	16.59
622.026	16.58
622.442	16.57
622.859	16.56
623.275	16.55
623.691	16.53
624.108	16.52
624.524	16.51
624.94	16.5
625.356	16.49
625.772	16.48
626.188	16.49
626.604	16.47
627.02	16.44
627.436	16.42
627.852	16.42
628.268	16.41
628.683	16.4
629.099	16.38
629.514	16.37
629.93	16.33
630.345	16.31
630.761	16.26
631.176	16.22
631.591	16.16
632.007	16.13
632.422	16.07
632.837	16.01
633.252	15.92
633.667	15.84
634.082	15.73
634.497	15.65
634.911	15.55
635.326	15.46
635.741	15.35
636.155	15.24
636.57	15.11
636.984	14.98
637.399	14.86
637.813	14.73
638.228	14.59
638.642	14.46
639.056	14.33
639.47	14.19
639.884	14.06
640.298	13.92
640.712	13.78
641.126	13.66
641.54	13.53
641.954	13.4
642.368	13.28
642.781	13.18
643.195	13.06
643.609	12.95
644.022	12.84
644.436	12.74
644.849	12.65
645.262	12.56
645.676	12.47
646.089	12.4
646.502	12.34
646.915	12.27
647.328	12.21
647.741	12.16
648.154	12.1
648.567	12.06
648.98	12.01
649.393	11.97
649.805	11.95
650.218	11.93
650.631	11.91
651.043	11.88
651.456	11.85
651.868	11.82
652.28	11.8
652.693	11.79
653.105	11.76
653.517	11.73
653.929	11.71
654.341	11.68
654.753	11.65
655.165	11.61
655.577	11.56
655.989	11.54
656.401	11.5
656.813	11.46
657.224	11.4
657.636	11.36
658.047	11.31
658.459	11.26
658.87	11.21
659.282	11.14
659.693	11.08
660.104	11.01
660.515	10.94
660.926	10.88
661.338	10.82
661.749	10.76
662.159	10.7
662.57	10.64
662.981	10.58
663.392	10.51
663.803	10.46
664.213	10.41
664.624	10.37
665.035	10.32
665.445	10.28
665.855	10.24
666.266	10.19
666.676	10.17
667.086	10.14
667.497	10.11
667.907	10.1
668.317	10.07
668.727	10.06
669.137	10.04
669.547	10.03
669.956	10.03
670.366	10.03
670.776	10.02
671.186	10.02
671.595	10.01
672.005	10.01
672.414	10.02
672.824	10.01
673.233	10.02
673.642	10.04
674.052	10.05
674.461	10.05
674.87	10.06
675.279	10.1
675.688	10.12
676.097	10.16
676.506	10.19
676.915	10.22
677.323	10.27
677.732	10.31
678.141	10.36
678.549	10.41
678.958	10.47
679.366	10.54
679.775	10.61
680.183	10.7
680.592	10.8
681	10.9
681.408	11
681.816	11.13
682.224	11.27
682.632	11.4
683.04	11.55
683.448	11.73
683.856	11.91
684.264	12.12
684.671	12.34
685.079	12.58
685.487	12.85
685.894	13.15
686.302	13.48
686.709	13.84
687.116	14.23
687.524	14.65
687.931	15.09
688.338	15.56
688.745	16.06
689.152	16.58
689.559	17.13
689.966	17.69
690.373	18.28
690.78	18.89
691.187	19.51
691.593	20.15
692	20.81
692.407	21.47
692.813	22.15
693.22	22.82
693.626	23.53
694.032	24.24
694.439	24.95
694.845	25.68
695.251	26.38
695.657	27.09
696.063	27.83
696.469	28.54
696.875	29.25
697.281	29.95
697.687	30.65
698.093	31.34
698.498	32.02
698.904	32.71
699.31	33.38
699.715	34.06
700.12	34.73
700.526	35.37
700.931	36.02
701.337	36.65
701.742	37.27
702.147	37.9
702.552	38.54
702.957	39.11
703.362	39.68
703.767	40.23
704.172	40.77
704.577	41.31
704.981	41.85
705.386	42.39
705.791	42.93
706.195	43.45
706.6	43.96
707.004	44.42
707.408	44.93
707.813	45.42
708.217	45.91
708.621	46.4
709.025	46.83
709.43	47.25
709.834	47.71
710.237	48.11
710.641	48.53
711.045	48.92
711.449	49.34
711.853	49.73
712.256	50.09
712.66	50.46
713.064	50.79
713.467	51.12
713.87	51.46
714.274	51.73
714.677	52.04
715.08	52.3
715.484	52.56
715.887	52.84
716.29	53.11
716.693	53.41
717.096	53.7
717.499	54.02
717.901	54.35
718.304	54.65
718.707	54.97
719.109	55.27
719.512	55.57
719.915	55.88
720.317	56.14
720.719	56.39
721.122	56.63
721.524	56.85
721.926	57.05
722.328	57.27
722.731	57.49
723.133	57.71
723.535	57.92
723.937	58.14
724.338	58.32
724.74	58.5
725.142	58.73
725.544	58.9
725.945	59.07
726.347	59.22
726.748	59.35
727.15	59.49
727.551	59.67
727.952	59.81
728.354	59.95
728.755	60.1
729.156	60.27
729.557	60.38
729.958	60.51
730.359	60.67
730.76	60.81
731.161	60.97
731.562	61.12
731.962	61.21
732.363	61.35
732.763	61.45
733.164	61.54
733.564	61.63
733.965	61.7
734.365	61.8
734.766	61.84
735.166	61.93
735.566	61.98
735.966	62.03
736.366	62.08
736.766	62.11
737.166	62.17
737.566	62.22
737.966	62.25
738.365	62.33
738.765	62.38
739.165	62.44
739.564	62.49
739.964	62.52
740.363	62.55
740.763	62.61
741.162	62.66
741.561	62.68
741.96	62.72
742.36	62.77
742.759	62.81
743.158	62.84
743.557	62.86
743.955	62.9
744.354	62.95
744.753	63.02
745.152	63.06
745.55	63.09
745.949	63.14
746.348	63.19
746.746	63.23
747.144	63.28
747.543	63.32
747.941	63.36
748.339	63.36
748.737	63.38
749.136	63.38
749.534	63.39
749.932	63.4
750.33	63.4
750.727	63.4
751.125	63.39
751.523	63.36
751.921	63.32
752.318	63.32
752.716	63.29
753.113	63.25
753.511	63.24
753.908	63.24
754.305	63.19
754.703	63.09
755.1	62.93
755.497	62.68
755.894	62.34
756.291	62
756.688	61.59
757.085	61.29
757.482	60.99
757.878	60.65
758.275	60.34
758.672	60.04
759.068	59.81
759.465	59.63
759.861	59.59
760.258	59.66
760.654	59.75
761.05	59.92
761.447	60.07
761.843	60.2
762.239	60.35
762.635	60.52
763.031	60.75
763.427	60.97
763.822	61.2
764.218	61.41
764.614	61.65
765.01	61.85
765.405	62.01
765.801	62.11
766.196	62.3
766.592	62.44
766.987	62.52
767.382	62.58
767.778	62.63
768.173	62.67
768.568	62.69
768.963	62.68
769.358	62.73
769.753	62.73
770.148	62.77
770.542	62.75
770.937	62.76
771.332	62.74
771.726	62.75
772.121	62.73
772.515	62.73
772.91	62.75
773.304	62.78
773.699	62.76
774.093	62.74
774.487	62.72
774.881	62.74
775.275	62.73
775.669	62.76
776.063	62.74
776.457	62.76
776.851	62.74
777.245	62.7
777.638	62.64
778.032	62.65
778.425	62.67
778.819	62.62
779.212	62.58
779.606	62.55
779.999	62.49
780.392	62.49
780.786	62.45
781.179	62.46
781.572	62.49
781.965	62.49
782.358	62.46
782.751	62.43
783.143	62.45
783.536	62.44
783.929	62.43
784.322	62.45
784.714	62.43
785.107	62.48
785.499	62.46
785.891	62.41
786.284	62.4
786.676	62.38
787.068	62.36
787.46	62.32
787.852	62.31
788.245	62.28
788.636	62.21
789.028	62.18
789.42	62.11
789.812	62.07
790.204	62.05
790.595	62.01
790.987	61.99
791.378	61.98
791.77	61.99
792.161	61.95
792.553	61.94
792.944	61.94
793.335	61.91
793.726	61.93
794.117	61.9
794.508	61.85
794.899	61.82
795.29	61.78
795.681	61.74
796.072	61.69
796.463	61.65
796.853	61.61
797.244	61.58
797.634	61.59
798.025	61.58
798.415	61.56
798.806	61.58
799.196	61.56
799.586	61.55
799.976	61.51
800.366	61.5
800.756	61.49
801.146	61.49
801.536	61.48
801.926	61.43
802.316	61.37
802.706	61.36
803.095	61.3
803.485	61.29
803.874	61.27
804.264	61.23
804.653	61.21
805.043	61.19
805.432	61.15
805.821	61.12
806.21	61.09
806.599	61.08
806.988	61
807.377	60.98
807.766	60.95
808.155	60.86
808.544	60.84
808.933	60.77
809.321	60.7
809.71	60.65
810.098	60.59
810.487	60.49
810.875	60.44
811.264	60.38
811.652	60.32
812.04	60.23
812.428	60.2
812.816	60.12
813.204	60.06
813.592	59.99
813.98	59.94
814.368	59.9
814.756	59.88
815.144	59.81
815.531	59.78
815.919	59.75
816.306	59.72
816.694	59.66
817.081	59.68
817.469	59.67
817.856	59.64
818.243	59.59
818.63	59.53
819.017	59.45
819.404	59.42
819.791	59.35
820.178	59.32
820.565	59.27
820.952	59.26
821.339	59.21
821.725	59.19
822.112	59.17
822.498	59.16
822.885	59.17
823.271	59.15
823.657	59.1
824.044	59.1
824.43	59.07
824.816	59.01
825.202	58.95
825.588	58.9
825.974	58.84
826.36	58.78
826.746	58.71
827.132	58.66
827.517	58.65
827.903	58.61
828.289	58.56
828.674	58.51
829.06	58.48
829.445	58.43
829.83	58.36
830.216	58.32
830.601	58.27
830.986	58.24
831.371	58.15
831.756	58.11
832.141	58.09
832.526	58.04
832.911	58.01
833.295	57.97
833.68	57.95
834.065	57.93
834.449	57.88
834.834	57.85
835.218	57.8
835.603	57.8
835.987	57.75
836.371	57.69
836.755	57.66
837.139	57.62
837.524	57.58
837.908	57.57
838.291	57.56
838.675	57.53
839.059	57.49
839.443	57.47
839.827	57.41
840.21	57.39
840.594	57.37
840.977	57.34
841.361	57.31
841.744	57.27
842.127	57.21
842.511	57.15
842.894	57.13
843.277	57.09
843.66	57.03
844.043	57.03
844.426	56.99
844.809	56.96
845.191	56.92
845.574	56.9
845.957	56.87
846.339	56.88
846.722	56.87
847.104	56.87
847.487	56.87
847.869	56.87
848.252	56.87
848.634	56.86
849.016	56.85
849.398	56.85
849.78	56.82
850.162	56.79
850.544	56.75
850.926	56.71
851.307	56.68
851.689	56.68
852.071	56.67
852.452	56.63
852.834	56.61
853.215	56.58
853.597	56.58
853.978	56.59
854.359	56.61
854.741	56.6
855.122	56.6
855.503	56.59
855.884	56.58
856.265	56.56
856.646	56.56
857.026	56.57
857.407	56.57
857.788	56.55
858.169	56.57
858.549	56.55
858.93	56.54
859.31	56.53
859.69	56.54
860.071	56.55
860.451	56.55
860.831	56.54
861.211	56.49
861.591	56.47
861.971	56.43
862.351	56.41
862.731	56.39
863.111	56.36
863.491	56.35
863.87	56.34
864.25	56.29
864.629	56.26
865.009	56.25
865.388	56.27
865.768	56.28
866.147	56.29
866.526	56.3
866.905	56.3
867.284	56.29
867.663	56.28
868.042	56.27
868.421	56.27
868.8	56.26
869.179	56.25
869.558	56.21
869.936	56.19
870.315	56.16
870.693	56.12
871.072	56.12
871.45	56.14
871.828	56.13
872.207	56.13
872.585	56.12
872.963	56.11
873.341	56.1
873.719	56.11
874.097	56.09
874.475	56.11
874.853	56.1
875.23	56.12
875.608	56.11
875.986	56.12
876.363	56.13
876.741	56.14
877.118	56.15
877.495	56.16
877.873	56.17
878.25	56.21
878.627	56.22
879.004	56.2
879.381	56.18
879.758	56.15
880.135	56.12
880.512	56.09
880.889	56.07
881.265	56.03
881.642	56
882.019	55.98
882.395	55.92
882.772	55.87
883.148	55.86
883.524	55.83
883.901	55.81
884.277	55.79
884.653	55.74
885.029	55.71
885.405	55.69
885.781	55.69
886.157	55.67
886.532	55.69
886.908	55.68
887.284	55.68
887.659	55.64
888.035	55.62
888.411	55.58
888.786	55.59
889.161	55.59
889.537	55.59
889.912	55.56
890.287	55.52
890.662	55.48
891.037	55.45
891.412	55.39
891.787	55.35
892.162	55.33
892.536	55.29
892.911	55.23
893.286	55.18
893.66	55.13
894.035	55.09
894.409	55.05
894.784	55
895.158	54.95
895.532	54.95
895.906	54.94
896.281	54.91
896.655	54.91
897.029	54.9
897.402	54.87
897.776	54.89
898.15	54.87
898.524	54.89
898.898	54.91
899.271	54.92
899.645	54.91
900.018	54.93
900.392	54.95
900.765	54.98
901.138	54.99
901.511	55.03
901.884	55.05
902.258	55.06
902.631	55.07
903.003	55.09
903.376	55.11
903.749	55.1
904.122	55.12
904.495	55.14
904.867	55.15
905.24	55.13
905.612	55.14
905.985	55.12
906.357	55.14
906.729	55.15
907.102	55.14
907.474	55.17
907.846	55.21
908.218	55.2
908.59	55.19
908.962	55.19
909.334	55.24
909.705	55.26
910.077	55.29
910.449	55.3
910.82	55.31
911.192	55.33
911.563	55.31
911.935	55.3
912.306	55.32
912.677	55.36
913.048	55.37
913.419	55.35
913.79	55.33
914.161	55.35
914.532	55.33
914.903	55.33
915.274	55.34
915.645	55.35
916.015	55.38
916.386	55.39
916.756	55.36
917.127	55.38
917.497	55.41
917.868	55.4
918.238	55.38
918.608	55.43
918.978	55.45
919.348	55.46
919.718	55.46
920.088	55.46
920.458	55.44
920.828	55.44
921.198	55.41
921.567	55.41
921.937	55.46
922.306	55.45
922.676	55.43
923.045	55.42
923.415	55.38
923.784	55.38
924.153	55.38
924.522	55.37
924.891	55.37
925.26	55.38
925.629	55.39
925.998	55.35
926.367	55.34
926.736	55.33
927.104	55.31
927.473	55.29
927.842	55.24
928.21	55.24
928.578	55.21
928.947	55.19
929.315	55.14
929.683	55.03
930.051	54.95
930.42	54.92
930.788	54.82
931.156	54.75
931.523	54.71
931.891	54.7
932.259	54.62
932.627	54.58
932.994	54.54
933.362	54.48
933.729	54.47
934.097	54.47
934.464	54.44
934.831	54.45
935.199	54.46
935.566	54.42
935.933	54.28
936.3	54.25
936.667	54.22
937.034	54.17
937.401	54.19
937.767	54.2
938.134	54.16
938.501	54.21
938.867	54.24
939.234	54.22
939.6	54.26
939.967	54.34
940.333	54.37
940.699	54.4
941.065	54.41
941.431	54.43
941.798	54.4
942.163	54.44
942.529	54.42
942.895	54.4
943.261	54.37
943.627	54.33
943.992	54.32
944.358	54.33
944.723	54.27
945.089	54.18
945.454	54.19
945.82	54.18
946.185	54.16
946.55	54.09
946.915	54.11
947.28	54.1
947.645	54.12
948.01	54.12
948.375	54.09
948.74	54.12
949.104	54.19
949.469	54.15
949.834	54.1
950.198	54.06
950.562	54.06
950.927	54
951.291	53.94
951.655	53.83
952.02	53.81
952.384	53.76
952.748	53.69
953.112	53.63
953.476	53.55
953.839	53.52
954.203	53.47
954.567	53.41
954.931	53.33
955.294	53.31
955.658	53.37
956.021	53.33
956.385	53.32
956.748	53.3
957.111	53.28
957.474	53.26
957.837	53.24
958.2	53.28
958.563	53.3
958.926	53.31
959.289	53.3
959.652	53.27
960.015	53.26
960.377	53.26
960.74	53.27
961.102	53.3
961.465	53.4
961.827	53.41
962.189	53.39
962.552	53.38
962.914	53.41
963.276	53.44
963.638	53.45
964	53.45
964.362	53.46
964.724	53.51
965.085	53.51
965.447	53.45
965.809	53.48
966.17	53.44
966.532	53.45
966.893	53.46
967.255	53.49
967.616	53.51
967.977	53.59
968.338	53.6
968.699	53.57
969.061	53.54
969.421	53.59
969.782	53.61
970.143	53.64
970.504	53.66
970.865	53.68
971.225	53.66
971.586	53.62
971.946	53.58
972.307	53.57
972.667	53.56
973.027	53.64
973.388	53.65
973.748	53.69
974.108	53.8
974.468	53.82
974.828	53.81
975.188	53.86
975.548	53.94
975.907	54.01
976.267	54.05
976.627	54.06
976.986	54.01
977.346	53.97
977.705	53.94
978.064	53.95
978.424	53.97
978.783	53.99
979.142	53.95
979.501	53.97
979.86	54.01
980.219	54.04
980.578	54.12
980.937	54.2
981.296	54.25
981.654	54.26
982.013	54.23
982.371	54.2
982.73	54.24
983.088	54.32
983.447	54.29
983.805	54.28
984.163	54.27
984.521	54.23
984.879	54.21
985.237	54.21
985.595	54.33
985.953	54.33
986.311	54.31
986.669	54.27
987.026	54.23
987.384	54.24
987.741	54.25
988.099	54.28
988.456	54.32
988.814	54.36
989.171	54.4
989.528	54.4
989.885	54.42
990.242	54.48
990.599	54.55
990.956	54.63
991.313	54.77
991.67	54.83
992.027	54.92
992.383	54.95
992.74	55.03
993.096	54.99
993.453	54.98
993.809	55.07
994.165	55.22
994.522	55.25
994.878	55.26
995.234	55.32
995.59	55.35
995.946	55.41
996.302	55.52
996.658	55.57
997.013	55.62
997.369	55.66
997.725	55.66
998.08	55.74
998.436	55.81
998.791	55.9
999.147	55.84
999.502	55.81
999.857	55.83
1000.212	55.82
1000.567	55.92
1000.922	56.07
1001.277	56.12
1001.632	56.13
1001.987	56.11
1002.342	56.11
1002.696	56.19
1003.051	56.43
1003.406	56.55
1003.76	56.64
1004.114	56.65
1004.469	56.68
1004.823	56.99
1005.177	57
1005.531	57.11
1005.885	57.15
1006.239	57.31
1006.593	57.4
1006.947	57.38
1007.301	57.46
1007.655	57.39
1008.008	57.55
1008.362	57.67
1008.715	57.51
1009.069	57.73
1009.422	57.7
1009.776	57.7
1010.129	57.79
1010.482	57.76
1010.835	57.89
1011.188	57.98
1011.541	58.05
1011.894	58.15
1012.247	57.89
1012.6	57.84
1012.952	57.69
1013.305	57.97
1013.657	58
1014.01	58.08
1014.362	58.05
1014.715	57.9
1015.067	57.95
1015.419	58.19
1015.771	57.93
1016.123	58.11
1016.475	58.3
1016.827	58.55
1017.179	58.51
1017.531	58.7
1017.883	58.68
1018.234	58.87
1018.586	59
1018.938	59.19
1019.289	59.1
1019.64	59.37
1019.992	59.51
1020.343	59.47
1020.694	59.47
1021.045	59.5
1021.396	59.62
1021.747	59.79
1022.098	59.87
1022.449	60.05
1022.8	59.84
1023.151	59.93
1023.501	60.16
1023.852	60.38
1024.202	60.4
1024.553	60.45
1024.903	60.5
1025.253	60.74
1025.604	60.73
1025.954	60.43
1026.304	60.43
1026.654	60.52
1027.004	60.41
1027.354	60.37
1027.703	60.13
1028.053	60.27
1028.403	60.45
1028.753	60.56
1029.102	60.5
1029.452	60.54
1029.801	61.03
1030.15	61
1030.499	61.07
897.758	992.38
901.051	998.45
904.343	999.66
907.636	1012.02
910.928	988.33
914.22	988.56
917.511	972.23
920.803	933.38
924.094	929.1
927.384	907.25
930.675	872.09
933.965	866.51
937.255	819.53
940.544	785.96
943.834	752.5
947.123	743.25
950.411	699.26
953.7	688.01
956.988	651.68
960.276	625.53
963.563	614.35
966.851	593.04
970.138	588.08
973.424	567.67
976.711	574.15
979.997	544.53
983.283	543.84
986.568	533.76
989.853	517.47
993.138	507.09
996.423	489.31
999.708	477.43
1002.992	471.53
1006.275	453.26
1009.559	449.26
1012.842	430.12
1016.125	420.17
1019.408	411.13
1022.69	408.48
1025.972	399.5
1029.254	390.74
1032.536	384.79
1035.817	378.29
1039.098	373.56
1042.379	365.02
1045.659	361.08
1048.939	354.04
1052.219	347.51
1055.498	343.98
1058.778	333.97
1062.057	328.81
1065.335	325.51
1068.614	321.57
1071.892	317.87
1075.17	308.98
1078.447	304.44
1081.724	302.21
1085.001	299.34
1088.278	294.65
1091.554	288.38
1094.83	289.33
1098.106	286.58
1101.382	284.08
1104.657	281.72
1107.932	277.84
1111.206	279.4
1114.481	272.24
1117.755	270.14
1121.029	267.95
1124.302	266.26
1127.575	262.13
1130.848	258.7
1134.121	255.45
1137.393	254.61
1140.665	249.73
1143.937	247.07
1147.208	245.12
1150.48	244.77
1153.75	241.29
1157.021	238.65
1160.291	239.25
1163.561	236.38
1166.831	235.73
1170.101	234.22
1173.37	233.67
1176.639	234.17
1179.907	233.02
1183.176	230.5
1186.444	230.17
1189.711	230.32
1192.979	229.14
1196.246	227.56
1199.513	228.64
1202.78	227.68
1206.046	227.89
1209.312	225.55
1212.578	225.96
1215.843	226.84
1219.108	225.71
1222.373	229.84
1225.638	231.15
1228.902	234.71
1232.166	234.39
1235.43	235.59
1238.693	239.37
1241.956	240.87
1245.219	244.15
1248.482	244.47
1251.744	244.72
1255.006	245.81
1258.268	239.8
1261.529	237.98
1264.79	236.9
1268.051	235.61
1271.312	232.67
1274.572	229.79
1277.832	228.02
1281.092	223.9
1284.351	222.25
1287.61	222.41
1290.869	218.71
1294.128	217.91
1297.386	217.03
1300.644	214.24
1303.902	215.29
1307.159	214.28
1310.416	213.94
1313.673	212.73
1316.93	215.34
1320.186	214.55
1323.442	214.78
1326.697	218.65
1329.953	218.93
1333.208	219.68
1336.463	222.37
1339.717	222.23
1342.972	224.91
1346.226	226.14
1349.479	227.08
1352.733	227.86
1355.986	229.42
1359.238	228.39
1362.491	228.64
1365.743	230.09
1368.995	230.94
1372.247	228.64
1375.498	228.49
1378.749	228.35
1382	224.9
1385.251	225.67
1388.501	222.36
1391.751	221.27
1395	221.15
1398.25	218.8
1401.499	216.09
1404.748	214.32
1407.996	212.16
1411.244	211.04
1414.492	210.08
1417.74	207.3
1420.987	203.3
1424.234	204.05
1427.481	201.68
1430.728	200.74
1433.974	199.05
1437.22	198.22
1440.465	197.22
1443.711	195.4
1446.956	194.13
1450.201	191.66
1453.445	190.87
1456.689	190.16
1459.933	187.12
1463.177	185.3
1466.42	182.34
1469.663	180.38
1472.906	178.9
1476.148	174.69
1479.391	172.97
1482.633	171.64
1485.874	169.24
1489.115	167.85
1492.356	165.87
1495.597	165.57
1498.838	163.45
1502.078	162.94
1505.318	162.32
1508.557	161.92
1511.797	162.15
1515.036	160.97
1518.274	160.07
1521.513	159.24
1524.751	159.08
1527.989	159.33
1531.227	158.55
1534.464	159.38
1537.701	158.58
1540.938	158.13
1544.174	156.58
1547.41	156.6
1550.646	156.06
1553.882	155.95
1557.117	154.78
1560.352	154.07
1563.587	153.81
1566.821	153.03
1570.055	152.05
1573.289	150.35
1576.523	150.37
1579.756	149.73
1582.989	148.85
1586.222	148.89
1589.454	149.07
1592.686	149.89
1595.918	149.21
1599.15	148.42
1602.381	148.95
1605.612	148.41
1608.843	148.78
1612.073	148.97
1615.303	149.9
1618.533	150.13
1621.762	150.13
1624.992	150.34
1628.221	149.9
1631.449	149.81
1634.678	150.1
1637.906	150.89
1641.134	150.34
1644.361	150.48
1647.588	150.98
1650.815	150.58
1654.042	149.92
1657.269	151.04
1660.495	150.76
1663.72	150.71
1666.946	151.04
1670.171	151.37
1673.396	150.66
1676.621	151.51
1679.845	151.85
1683.069	151.67
1686.293	152.38
1689.517	153.74
1692.74	153.2
1695.963	153.83
1699.185	154.73
1702.408	155.17
1705.63	155.19
1708.852	155.52
1712.073	155.87
1715.294	156.34
1718.515	156.71
1721.736	156.42
1724.956	156.2
1728.176	156.46
1731.396	156.85
1734.616	155.88
1737.835	156.58
1741.054	155.59
1744.272	156.05
1747.491	157.19
1750.709	157.58
1753.927	157.31
1757.144	156.99
1760.361	157.1
1763.578	156.78
1766.795	156.5
1770.011	158.19
1773.227	157.96
1776.443	159.58
1779.658	159.65
1782.874	159.2
1786.089	159.17
1789.303	159.61
1792.518	161.98
1795.732	161.7
1798.945	163.32
1802.159	163.65
1805.372	163.66
1808.585	165.97
1811.797	166.55
1815.01	166.83
1818.222	167.67
1821.434	170.53
1824.645	170.37
1827.856	172.04
1831.067	173.45
1834.278	173.42
1837.488	174.16
1840.698	175.45
1843.908	174.2
1847.117	174.24
1850.326	175.76
1853.535	174.43
1856.744	174.93
1859.952	175.68
1863.16	173.77
1866.368	172.57
1869.575	172.74
1872.782	170.31
1875.989	170.12
1879.196	168.92
1882.402	168.4
1885.608	168.2
1888.814	168.71
1892.019	168.14
1895.224	167.34
1898.429	167.28
1901.634	168.06
1904.838	168.94
1908.042	170.82
1911.246	170.69
1914.449	172
1917.652	172.67
1920.855	172.7
1924.058	172.49
1927.26	171.64
1930.462	172.08
1933.664	174.4
1936.865	172.81
1940.066	172.17
1943.267	171.65
1946.467	171.75
1949.668	172.44
1952.868	173.83
1956.067	174.16
1959.267	174.16
1962.466	175.06
1965.665	173.66
1968.863	174.5
1972.061	177.3
1975.259	178.93
1978.457	179.98
1981.654	181.14
1984.852	182.07
1988.048	181.57
1991.245	183.18
1994.441	185.05
1997.637	186.01
2000.833	191.05
2004.028	192.07
2007.223	193.24
2010.418	195.16
2013.613	198.55
2016.807	200.73
2020.001	203.52
2023.194	205.4
2026.388	210.09
2029.581	215.71
2032.774	217.56
2035.966	220.97
2039.158	221.77
2042.35	225.79
2045.542	227.51
2048.733	230.7
2051.924	234.13
2055.115	235.71
2058.306	238.18
2061.496	239.12
2064.686	239.21
2067.875	244.53
2071.065	245.05
2074.254	243.08
2077.442	247.32
2080.631	247.64
2083.819	250.04
2087.007	250.36
2090.195	254
2093.382	256.64
2096.569	256.04
2099.756	259.31
2102.942	259.2
2106.128	261.25
2109.314	269.28
2112.5	267.44
2115.685	272.96
2118.87	273.46
2122.055	279.55
2125.239	280.91
2128.424	283.51
2131.608	285.47
2134.791	289.9
2137.974	290.73
2141.157	292.04
2144.34	291.36
2147.523	296.86
2150.705	296.16
2153.887	298.94
2157.068	298.54
2160.25	296.75
2163.431	297.75
2166.611	301.96
2169.792	307.3
2172.972	310.94
2176.152	314.13
2179.331	317.65
2182.511	321.48
2185.69	325.12
2188.868	331.58
2192.047	332.47
2195.225	342.12
2198.403	351.3
2201.58	356.93
2204.758	363.07
2207.935	370.07
2211.111	377.11
2214.288	381.23
2217.464	382.59
2220.64	388.73
2223.815	392.68
2226.991	408.88
2230.166	409.34
2233.34	414.61
2236.515	422
2239.689	424.39
2242.863	427.2
2246.036	436.17
2249.209	433.92
2252.382	441.36
2255.555	454.19
2258.727	456.95
2261.9	459.67
2265.071	464.09
2268.243	473.67
2271.414	479.92
2274.585	488.3
2277.756	492.92
2280.926	496.59
2284.096	509.22
2287.266	519.01
2290.436	523.62
2293.605	534.97
2296.774	553.61
2299.942	567.86
2303.111	571.92
2306.279	582.72
2309.447	591.83
2312.614	607.67
2315.781	625.17
2318.948	655.27
2322.115	647.3
2325.281	681.92
2328.447	667.79
2331.613	690.8
2334.779	688.35
2337.944	714.48
2341.109	721.69
2344.274	742.84
2347.438	767.54
2350.602	769.24
2353.766	789.92
2356.929	802.9
2360.092	800.21
2363.255	860.08
2366.418	857.35
2369.58	873.67
2372.742	927.45
2375.904	952.51
2379.066	946.46
2382.227	927.03
2385.388	1005.95
2388.548	1008.96
2391.709	1020.55
2394.869	1128.41
2398.029	1086.06
2401.188	1114.37
2404.347	1110.86
2407.506	1091.34
2410.665	1124.07
2413.823	1191.45
2416.981	1265.23
2420.139	1224.9
2423.296	1208.48
2426.453	1268.81
2429.61	1220.71
2432.767	1269.21
2435.923	1259.48
2439.079	1377.67
2442.235	1402.06
2445.391	1385.8
2448.546	1370.47
2451.701	1334.72
2454.855	1331.59
2458.009	1414.05
2461.163	1466.72
2464.317	1520.67
2467.471	1555.34
2470.624	1560.07
2473.777	1512.99
2476.929	1470.09
2480.082	1423.07
2483.234	1411.33
2486.385	1480.08
2489.537	1489.89
2492.688	1544.24
2495.839	1496.8
2498.989	1464.37
2502.14	1475.77
2505.29	1484.37
2508.439	1505.4
2511.589	1506.34
2514.738	1645.05
2517.887	1608.3
2521.035	1697.95
2524.183	1706.91
2527.331	1718.78
2530.479	1709.03
2533.627	1722.72
