Data from C_3_HIR_WI_4N_Splice17_14-02-27-832.txt Node
Date: Sat Mar 07 14:02:27 EST 2020
User: sa697716
Spectrometer: NQ5500242
Trigger mode: 0
Integration Time (sec): 1.450000E-1
Scans to average: 20
Nonlinearity correction enabled: false
Boxcar width: 5
Storing dark spectrum: false
XAxis mode: Wavelengths
Number of Pixels in Spectrum: 512
>>>>>Begin Spectral Data<<<<<
187.83	162.22
188.298	168.52
188.766	156.96
189.233	145.06
189.701	132.75
190.169	154.45
190.636	173.02
191.104	200.71
191.571	116.3
192.039	112.11
192.506	-16.62
192.974	190.19
193.441	266.8
193.908	124.29
194.375	148.64
194.842	40.91
195.31	53.55
195.777	149.69
196.244	55.23
196.711	54.18
197.177	55.61
197.644	55.19
198.111	54.04
198.578	54.53
199.045	55.36
199.511	55.1
199.978	55.42
200.445	55.45
200.911	55.4
201.378	55.31
201.844	55.29
202.31	54.86
202.777	55.07
203.243	55.3
203.709	54.77
204.176	54.26
204.642	53.96
205.108	53.52
205.574	53.33
206.04	52.66
206.506	52.29
206.972	51.94
207.438	51.65
207.903	50.73
208.369	49.48
208.835	48.69
209.301	47.47
209.766	46.17
210.232	44.83
210.697	43.5
211.163	42.59
211.628	41.52
212.094	40.45
212.559	39.34
213.024	38.49
213.49	37.78
213.955	36.75
214.42	35.88
214.885	34.97
215.35	33.94
215.815	32.28
216.28	29.89
216.745	27.53
217.21	25.09
217.675	22.84
218.14	20.92
218.604	19.21
219.069	17.84
219.534	16.62
219.998	15.59
220.463	14.74
220.927	13.99
221.392	13.43
221.856	12.92
222.32	12.47
222.785	12.13
223.249	11.75
223.713	11.45
224.177	11.16
224.642	10.93
225.106	10.66
225.57	10.42
226.034	10.2
226.497	10.01
226.961	9.84
227.425	9.68
227.889	9.52
228.353	9.38
228.816	9.2
229.28	9.05
229.744	8.91
230.207	8.78
230.671	8.65
231.134	8.54
231.597	8.44
232.061	8.33
232.524	8.21
232.987	8.08
233.45	7.97
233.914	7.87
234.377	7.77
234.84	7.68
235.303	7.6
235.766	7.51
236.229	7.42
236.691	7.32
237.154	7.23
237.617	7.17
238.08	7.11
238.542	7.04
239.005	6.99
239.468	6.92
239.93	6.85
240.393	6.79
240.855	6.72
241.317	6.65
241.78	6.6
242.242	6.54
242.704	6.49
243.166	6.42
243.629	6.37
244.091	6.31
244.553	6.25
245.015	6.2
245.477	6.15
245.939	6.1
246.4	6.04
246.862	5.99
247.324	5.95
247.786	5.89
248.247	5.84
248.709	5.78
249.17	5.72
249.632	5.69
250.093	5.65
250.555	5.6
251.016	5.56
251.477	5.52
251.939	5.49
252.4	5.45
252.861	5.42
253.322	5.39
253.783	5.36
254.244	5.34
254.705	5.3
255.166	5.28
255.627	5.25
256.088	5.22
256.549	5.19
257.009	5.16
257.47	5.12
257.931	5.08
258.391	5.05
258.852	5.01
259.312	4.98
259.773	4.94
260.233	4.91
260.694	4.88
261.154	4.84
261.614	4.82
262.074	4.78
262.534	4.75
262.994	4.73
263.455	4.7
263.915	4.67
264.374	4.65
264.834	4.63
265.294	4.61
265.754	4.59
266.214	4.57
266.673	4.56
267.133	4.55
267.593	4.54
268.052	4.53
268.512	4.52
268.971	4.51
269.431	4.5
269.89	4.49
270.349	4.48
270.809	4.47
271.268	4.46
271.727	4.45
272.186	4.44
272.645	4.43
273.104	4.42
273.563	4.4
274.022	4.39
274.481	4.38
274.94	4.37
275.399	4.36
275.857	4.35
276.316	4.33
276.775	4.32
277.233	4.31
277.692	4.31
278.15	4.3
278.609	4.29
279.067	4.28
279.525	4.28
279.984	4.27
280.442	4.26
280.9	4.26
281.358	4.26
281.816	4.26
282.274	4.25
282.732	4.24
283.19	4.23
283.648	4.22
284.106	4.22
284.564	4.21
285.021	4.21
285.479	4.2
285.937	4.2
286.394	4.19
286.852	4.17
287.309	4.17
287.767	4.17
288.224	4.15
288.682	4.14
289.139	4.13
289.596	4.11
290.053	4.09
290.511	4.07
290.968	4.06
291.425	4.04
291.882	4.03
292.339	4.01
292.796	3.99
293.252	3.98
293.709	3.97
294.166	3.96
294.623	3.95
295.079	3.94
295.536	3.94
295.992	3.93
296.449	3.92
296.905	3.91
297.362	3.9
297.818	3.89
298.274	3.88
298.731	3.87
299.187	3.86
299.643	3.85
300.099	3.84
300.555	3.83
301.011	3.82
301.467	3.81
301.923	3.8
302.379	3.79
302.835	3.79
303.291	3.78
303.746	3.77
304.202	3.77
304.658	3.77
305.113	3.76
305.569	3.75
306.024	3.75
306.479	3.75
306.935	3.74
307.39	3.73
307.845	3.72
308.301	3.72
308.756	3.72
309.211	3.72
309.666	3.72
310.121	3.72
310.576	3.72
311.031	3.72
311.486	3.72
311.94	3.72
312.395	3.72
312.85	3.72
313.305	3.71
313.759	3.71
314.214	3.7
314.668	3.69
315.123	3.69
315.577	3.69
316.032	3.68
316.486	3.67
316.94	3.66
317.394	3.65
317.849	3.64
318.303	3.63
318.757	3.61
319.211	3.6
319.665	3.58
320.119	3.56
320.572	3.55
321.026	3.54
321.48	3.53
321.934	3.51
322.387	3.5
322.841	3.5
323.295	3.5
323.748	3.49
324.202	3.48
324.655	3.48
325.108	3.48
325.562	3.48
326.015	3.47
326.468	3.47
326.921	3.47
327.374	3.46
327.827	3.46
328.28	3.45
328.733	3.46
329.186	3.45
329.639	3.45
330.092	3.45
330.545	3.45
330.997	3.45
331.45	3.45
331.903	3.45
332.355	3.45
332.808	3.45
333.26	3.46
333.713	3.45
334.165	3.46
334.617	3.47
335.069	3.46
335.522	3.47
335.974	3.48
336.426	3.48
336.878	3.48
337.33	3.47
337.782	3.46
338.234	3.46
338.686	3.46
339.137	3.46
339.589	3.44
340.041	3.44
340.493	3.42
340.944	3.4
341.396	3.39
341.847	3.37
342.299	3.36
342.75	3.35
343.201	3.33
343.653	3.31
344.104	3.29
344.555	3.28
345.006	3.26
345.457	3.25
345.908	3.24
346.359	3.24
346.81	3.24
347.261	3.23
347.712	3.23
348.163	3.23
348.613	3.23
349.064	3.24
349.515	3.24
349.965	3.24
350.416	3.22
350.866	3.22
351.317	3.21
351.767	3.21
352.217	3.21
352.668	3.21
353.118	3.21
353.568	3.2
354.018	3.2
354.468	3.2
354.918	3.21
355.368	3.22
355.818	3.23
356.268	3.22
356.718	3.23
357.168	3.22
357.617	3.23
358.067	3.23
358.517	3.25
358.966	3.25
359.416	3.25
359.865	3.25
360.315	3.26
360.764	3.26
361.213	3.27
361.663	3.27
362.112	3.28
362.561	3.29
363.01	3.29
363.459	3.29
363.908	3.3
364.357	3.31
364.806	3.31
365.255	3.31
365.703	3.32
366.152	3.34
366.601	3.34
367.05	3.36
367.498	3.37
367.947	3.39
368.395	3.41
368.844	3.42
369.292	3.43
369.74	3.45
370.189	3.47
370.637	3.49
371.085	3.49
371.533	3.51
371.981	3.53
372.429	3.56
372.877	3.58
373.325	3.59
373.773	3.61
374.221	3.63
374.669	3.65
375.116	3.67
375.564	3.68
376.012	3.71
376.459	3.74
376.907	3.76
377.354	3.78
377.801	3.8
378.249	3.82
378.696	3.85
379.143	3.88
379.591	3.91
380.038	3.95
380.485	3.98
380.932	4.01
381.379	4.05
381.826	4.08
382.273	4.12
382.72	4.15
383.166	4.19
383.613	4.21
384.06	4.24
384.506	4.27
384.953	4.3
385.4	4.34
385.846	4.38
386.292	4.41
386.739	4.44
387.185	4.47
387.631	4.51
388.078	4.54
388.524	4.57
388.97	4.61
389.416	4.65
389.862	4.68
390.308	4.7
390.754	4.73
391.2	4.78
391.645	4.81
392.091	4.84
392.537	4.88
392.983	4.9
393.428	4.94
393.874	4.97
394.319	5
394.765	5.03
395.21	5.05
395.655	5.08
396.101	5.1
396.546	5.12
396.991	5.15
397.436	5.17
397.881	5.21
398.326	5.24
398.771	5.27
399.216	5.3
399.661	5.33
400.106	5.35
400.551	5.36
400.995	5.36
401.44	5.38
401.885	5.37
402.329	5.38
402.774	5.38
403.218	5.4
403.663	5.4
404.107	5.4
404.551	5.39
404.995	5.4
405.44	5.4
405.884	5.4
406.328	5.42
406.772	5.42
407.216	5.42
407.66	5.43
408.104	5.4
408.547	5.41
408.991	5.42
409.435	5.41
409.879	5.41
410.322	5.43
410.766	5.43
411.209	5.45
411.653	5.45
412.096	5.47
412.54	5.48
412.983	5.49
413.426	5.51
413.869	5.52
414.312	5.55
414.756	5.56
415.199	5.56
415.642	5.57
416.085	5.57
416.527	5.56
416.97	5.55
417.413	5.54
417.856	5.54
418.298	5.53
418.741	5.52
419.184	5.51
419.626	5.5
420.069	5.52
420.511	5.51
420.953	5.51
421.396	5.5
421.838	5.49
422.28	5.5
422.722	5.52
423.164	5.53
423.606	5.54
424.048	5.55
424.49	5.55
424.932	5.53
425.374	5.52
425.816	5.5
426.258	5.49
426.699	5.47
427.141	5.46
427.582	5.44
428.024	5.44
428.465	5.42
428.907	5.4
429.348	5.39
429.789	5.37
430.231	5.39
430.672	5.41
431.113	5.44
431.554	5.45
431.995	5.44
432.436	5.45
432.877	5.46
433.318	5.47
433.759	5.49
434.2	5.51
434.64	5.53
435.081	5.52
435.522	5.53
435.962	5.54
436.403	5.57
436.843	5.6
437.284	5.6
437.724	5.6
438.164	5.61
438.604	5.61
439.045	5.63
439.485	5.64
439.925	5.65
440.365	5.67
440.805	5.68
441.245	5.69
441.685	5.73
442.125	5.77
442.564	5.8
443.004	5.82
443.444	5.86
443.883	5.88
444.323	5.9
444.762	5.94
445.202	5.98
445.641	6.01
446.081	6.06
446.52	6.06
446.959	6.1
447.398	6.14
447.837	6.17
448.276	6.19
448.716	6.23
449.154	6.27
449.593	6.3
450.032	6.32
450.471	6.32
450.91	6.32
451.349	6.35
451.787	6.33
452.226	6.34
452.664	6.35
453.103	6.36
453.541	6.35
453.98	6.36
454.418	6.34
454.856	6.33
455.295	6.32
455.733	6.29
456.171	6.28
456.609	6.29
457.047	6.27
457.485	6.27
457.923	6.26
458.361	6.24
458.798	6.24
459.236	6.24
459.674	6.24
460.111	6.24
460.549	6.25
460.987	6.24
461.424	6.25
461.862	6.24
462.299	6.24
462.736	6.24
463.173	6.25
463.611	6.26
464.048	6.26
464.485	6.27
464.922	6.27
465.359	6.27
465.796	6.28
466.233	6.28
466.67	6.29
467.106	6.31
467.543	6.29
467.98	6.28
468.416	6.27
468.853	6.28
469.29	6.28
469.726	6.29
470.162	6.3
470.599	6.29
471.035	6.3
471.471	6.29
471.907	6.29
472.344	6.3
472.78	6.31
473.216	6.32
473.652	6.32
474.088	6.3
474.523	6.3
474.959	6.3
475.395	6.29
475.831	6.28
476.266	6.29
476.702	6.27
477.138	6.26
477.573	6.27
478.008	6.27
478.444	6.26
478.879	6.27
479.314	6.26
479.75	6.26
480.185	6.26
480.62	6.26
481.055	6.26
481.49	6.26
481.925	6.27
482.36	6.27
482.795	6.27
483.229	6.28
483.664	6.29
484.099	6.29
484.534	6.3
484.968	6.32
485.403	6.33
485.837	6.36
486.271	6.38
486.706	6.4
487.14	6.42
487.574	6.45
488.009	6.48
488.443	6.51
488.877	6.55
489.311	6.6
489.745	6.64
490.179	6.69
490.613	6.74
491.046	6.79
491.48	6.85
491.914	6.92
492.348	6.99
492.781	7.06
493.215	7.13
493.648	7.21
494.082	7.28
494.515	7.36
494.948	7.45
495.382	7.54
495.815	7.64
496.248	7.73
496.681	7.84
497.114	7.94
497.547	8.05
497.98	8.16
498.413	8.29
498.846	8.41
499.279	8.54
499.711	8.67
500.144	8.81
500.577	8.95
501.009	9.09
501.442	9.24
501.874	9.41
502.306	9.57
502.739	9.76
503.171	9.94
503.603	10.13
504.036	10.32
504.468	10.52
504.9	10.71
505.332	10.93
505.764	11.16
506.196	11.39
506.627	11.61
507.059	11.86
507.491	12.08
507.923	12.33
508.354	12.59
508.786	12.85
509.217	13.13
509.649	13.41
510.08	13.69
510.512	13.96
510.943	14.24
511.374	14.53
511.805	14.83
512.237	15.12
512.668	15.43
513.099	15.72
513.53	16.03
513.961	16.34
514.391	16.66
514.822	16.98
515.253	17.3
515.684	17.62
516.114	17.93
516.545	18.24
516.975	18.57
517.406	18.88
517.836	19.19
518.267	19.52
518.697	19.81
519.127	20.11
519.558	20.42
519.988	20.74
520.418	21.04
520.848	21.34
521.278	21.63
521.708	22.05
522.138	22.33
522.567	22.61
522.997	22.87
523.427	23.13
523.857	23.38
524.286	23.61
524.716	23.83
525.145	24.07
525.575	24.28
526.004	24.49
526.433	24.56
526.863	24.76
527.292	24.94
527.721	25.12
528.15	25.28
528.579	25.44
529.008	25.61
529.437	25.77
529.866	25.91
530.295	26.07
530.724	26.21
531.152	26.34
531.581	26.46
532.01	26.59
532.438	26.69
532.867	26.82
533.295	26.9
533.723	26.99
534.152	27.08
534.58	27.15
535.008	27.2
535.436	27.28
535.865	27.34
536.293	27.4
536.721	27.45
537.149	27.5
537.576	27.53
538.004	27.59
538.432	27.63
538.86	27.65
539.287	27.68
539.715	27.72
540.143	27.75
540.57	27.77
540.998	27.79
541.425	27.82
541.852	27.85
542.28	27.88
542.707	27.91
543.134	27.96
543.561	28
543.988	28.02
544.415	28.05
544.842	28.06
545.269	28.1
545.696	28.13
546.123	28.16
546.549	28.18
546.976	28.21
547.403	28.23
547.829	28.26
548.256	28.29
548.682	28.31
549.108	28.32
549.535	28.36
549.961	28.37
550.387	28.39
550.813	28.4
551.24	28.4
551.666	28.42
552.092	28.41
552.518	28.39
552.943	28.38
553.369	28.37
553.795	28.37
554.221	28.34
554.646	28.31
555.072	28.29
555.498	28.23
555.923	28.2
556.349	28.12
556.774	28.08
557.199	28.01
557.625	27.96
558.05	27.9
558.475	27.82
558.9	27.76
559.325	27.69
559.75	27.6
560.175	27.53
560.6	27.44
561.025	27.36
561.449	27.26
561.874	27.15
562.299	27.04
562.723	26.93
563.148	26.8
563.572	26.67
563.997	26.54
564.421	26.4
564.846	26.27
565.27	26.14
565.694	26
566.118	25.85
566.542	25.72
566.966	25.55
567.39	25.39
567.814	25.23
568.238	25.08
568.662	24.91
569.086	24.74
569.509	24.58
569.933	24.41
570.357	24.24
570.78	24.07
571.204	23.91
571.627	23.77
572.05	23.63
572.474	23.51
572.897	23.37
573.32	23.23
573.743	23.1
574.166	22.96
574.589	22.85
575.012	22.72
575.435	22.62
575.858	22.51
576.281	22.39
576.704	22.28
577.126	22.16
577.549	22.05
577.972	21.93
578.394	21.83
578.817	21.74
579.239	21.64
579.661	21.55
580.084	21.45
580.506	21.37
580.928	21.28
581.35	21.19
581.772	21.11
582.194	21.03
582.616	20.96
583.038	20.9
583.46	20.81
583.882	20.73
584.303	20.65
584.725	20.58
585.147	20.51
585.568	20.44
585.99	20.38
586.411	20.31
586.833	20.25
587.254	20.2
587.675	20.12
588.096	20.08
588.518	20.03
588.939	20
589.36	19.93
589.781	19.87
590.202	19.83
590.623	19.78
591.043	19.74
591.464	19.7
591.885	19.65
592.305	19.61
592.726	19.58
593.147	19.55
593.567	19.51
593.987	19.5
594.408	19.45
594.828	19.4
595.248	19.38
595.669	19.35
596.089	19.31
596.509	19.28
596.929	19.25
597.349	19.2
597.769	19.15
598.189	19.11
598.608	19.07
599.028	19.04
599.448	19.01
599.867	18.95
600.287	18.9
600.706	18.86
601.126	18.81
601.545	18.76
601.965	18.71
602.384	18.66
602.803	18.59
603.222	18.53
603.641	18.46
604.061	18.39
604.48	18.33
604.898	18.26
605.317	18.18
605.736	18.11
606.155	18.03
606.574	17.94
606.992	17.85
607.411	17.77
607.829	17.67
608.248	17.58
608.666	17.5
609.085	17.41
609.503	17.33
609.921	17.25
610.339	17.16
610.758	17.08
611.176	16.98
611.594	16.9
612.012	16.82
612.43	16.75
612.847	16.66
613.265	16.58
613.683	16.5
614.101	16.41
614.518	16.33
614.936	16.26
615.353	16.17
615.771	16.11
616.188	16.03
616.606	15.95
617.023	15.9
617.44	15.85
617.857	15.79
618.274	15.73
618.691	15.67
619.108	15.62
619.525	15.55
619.942	15.51
620.359	15.46
620.776	15.43
621.192	15.4
621.609	15.36
622.026	15.31
622.442	15.27
622.859	15.23
623.275	15.2
623.691	15.18
624.108	15.17
624.524	15.15
624.94	15.13
625.356	15.11
625.772	15.08
626.188	15.07
626.604	15.07
627.02	15.06
627.436	15.05
627.852	15.04
628.268	15.03
628.683	15.01
629.099	14.99
629.514	14.97
629.93	14.95
630.345	14.92
630.761	14.88
631.176	14.84
631.591	14.8
632.007	14.76
632.422	14.71
632.837	14.64
633.252	14.58
633.667	14.52
634.082	14.44
634.497	14.36
634.911	14.28
635.326	14.19
635.741	14.11
636.155	14.01
636.57	13.9
636.984	13.79
637.399	13.67
637.813	13.55
638.228	13.41
638.642	13.28
639.056	13.15
639.47	13.02
639.884	12.89
640.298	12.75
640.712	12.61
641.126	12.47
641.54	12.33
641.954	12.2
642.368	12.07
642.781	11.95
643.195	11.83
643.609	11.7
644.022	11.57
644.436	11.45
644.849	11.33
645.262	11.21
645.676	11.09
646.089	11
646.502	10.91
646.915	10.82
647.328	10.72
647.741	10.65
648.154	10.58
648.567	10.52
648.98	10.44
649.393	10.39
649.805	10.34
650.218	10.29
650.631	10.23
651.043	10.18
651.456	10.14
651.868	10.08
652.28	10.03
652.693	9.96
653.105	9.9
653.517	9.85
653.929	9.79
654.341	9.72
654.753	9.64
655.165	9.56
655.577	9.47
655.989	9.38
656.401	9.28
656.813	9.19
657.224	9.1
657.636	8.98
658.047	8.87
658.459	8.75
658.87	8.63
659.282	8.52
659.693	8.42
660.104	8.3
660.515	8.19
660.926	8.08
661.338	7.97
661.749	7.87
662.159	7.78
662.57	7.68
662.981	7.59
663.392	7.5
663.803	7.43
664.213	7.34
664.624	7.27
665.035	7.21
665.445	7.15
665.855	7.09
666.266	7.03
666.676	6.98
667.086	6.93
667.497	6.89
667.907	6.85
668.317	6.81
668.727	6.77
669.137	6.73
669.547	6.71
669.956	6.68
670.366	6.67
670.776	6.64
671.186	6.63
671.595	6.63
672.005	6.62
672.414	6.63
672.824	6.63
673.233	6.64
673.642	6.66
674.052	6.68
674.461	6.68
674.87	6.7
675.279	6.74
675.688	6.77
676.097	6.81
676.506	6.85
676.915	6.88
677.323	6.93
677.732	6.97
678.141	7.02
678.549	7.07
678.958	7.13
679.366	7.22
679.775	7.28
680.183	7.37
680.592	7.47
681	7.58
681.408	7.7
681.816	7.85
682.224	8.01
682.632	8.18
683.04	8.37
683.448	8.57
683.856	8.78
684.264	9.02
684.671	9.28
685.079	9.56
685.487	9.88
685.894	10.23
686.302	10.59
686.709	10.97
687.116	11.39
687.524	11.82
687.931	12.28
688.338	12.76
688.745	13.27
689.152	13.79
689.559	14.36
689.966	14.91
690.373	15.47
690.78	16.06
691.187	16.65
691.593	17.25
692	17.86
692.407	18.47
692.813	19.11
693.22	19.71
693.626	20.32
694.032	20.92
694.439	21.52
694.845	22.14
695.251	22.74
695.657	23.34
696.063	23.94
696.469	24.53
696.875	25.12
697.281	25.68
697.687	26.28
698.093	26.85
698.498	27.38
698.904	27.93
699.31	28.47
699.715	29
700.12	29.51
700.526	30
700.931	30.47
701.337	30.95
701.742	31.4
702.147	31.83
702.552	32.27
702.957	32.7
703.362	33.11
703.767	33.5
704.172	33.89
704.577	34.29
704.981	34.67
705.386	35.05
705.791	35.42
706.195	35.78
706.6	36.15
707.004	36.48
707.408	36.83
707.813	37.18
708.217	37.53
708.621	37.86
709.025	38.14
709.43	38.46
709.834	38.78
710.237	39.07
710.641	39.37
711.045	39.65
711.449	39.95
711.853	40.23
712.256	40.49
712.66	40.73
713.064	40.99
713.467	41.26
713.87	41.5
714.274	41.74
714.677	41.99
715.08	42.22
715.484	42.47
715.887	42.7
716.29	42.9
716.693	43.14
717.096	43.4
717.499	43.6
717.901	43.81
718.304	44.02
718.707	44.21
719.109	44.4
719.512	44.59
719.915	44.77
720.317	44.95
720.719	45.1
721.122	45.28
721.524	45.43
721.926	45.59
722.328	45.73
722.731	45.89
723.133	46.04
723.535	46.18
723.937	46.3
724.338	46.42
724.74	46.54
725.142	46.77
725.544	46.85
725.945	46.97
726.347	47.07
726.748	47.17
727.15	47.27
727.551	47.39
727.952	47.48
728.354	47.59
728.755	47.69
729.156	47.77
729.557	47.79
729.958	47.87
730.359	47.92
730.76	48.01
731.161	48.11
731.562	48.18
731.962	48.22
732.363	48.32
732.763	48.35
733.164	48.38
733.564	48.44
733.965	48.49
734.365	48.56
734.766	48.63
735.166	48.68
735.566	48.73
735.966	48.78
736.366	48.84
736.766	48.85
737.166	48.93
737.566	49
737.966	49.04
738.365	49.07
738.765	49.11
739.165	49.13
739.564	49.18
739.964	49.21
740.363	49.23
740.763	49.25
741.162	49.28
741.561	49.28
741.96	49.27
742.36	49.32
742.759	49.34
743.158	49.35
743.557	49.35
743.955	49.37
744.354	49.37
744.753	49.41
745.152	49.46
745.55	49.5
745.949	49.52
746.348	49.56
746.746	49.56
747.144	49.61
747.543	49.63
747.941	49.66
748.339	49.66
748.737	49.7
749.136	49.7
749.534	49.67
749.932	49.68
750.33	49.7
750.727	49.73
751.125	49.74
751.523	49.72
751.921	49.74
752.318	49.75
752.716	49.77
753.113	49.76
753.511	49.76
753.908	49.79
754.305	49.77
754.703	49.74
755.1	49.73
755.497	49.73
755.894	49.73
756.291	49.71
756.688	49.7
757.085	49.69
757.482	49.67
757.878	49.64
758.275	49.59
758.672	49.61
759.068	49.64
759.465	49.62
759.861	49.61
760.258	49.59
760.654	49.61
761.05	49.63
761.447	49.66
761.843	49.66
762.239	49.67
762.635	49.69
763.031	49.69
763.427	49.66
763.822	49.68
764.218	49.7
764.614	49.71
765.01	49.67
765.405	49.64
765.801	49.62
766.196	49.62
766.592	49.6
766.987	49.62
767.382	49.59
767.778	49.61
768.173	49.6
768.568	49.58
768.963	49.56
769.358	49.6
769.753	49.6
770.148	49.59
770.542	49.59
770.937	49.6
771.332	49.6
771.726	49.62
772.121	49.6
772.515	49.58
772.91	49.56
773.304	49.62
773.699	49.6
774.093	49.61
774.487	49.6
774.881	49.63
775.275	49.61
775.669	49.59
776.063	49.59
776.457	49.61
776.851	49.59
777.245	49.6
777.638	49.57
778.032	49.57
778.425	49.6
778.819	49.6
779.212	49.6
779.606	49.63
779.999	49.64
780.392	49.66
780.786	49.67
781.179	49.71
781.572	49.74
781.965	49.76
782.358	49.78
782.751	49.75
783.143	49.76
783.536	49.75
783.929	49.76
784.322	49.78
784.714	49.78
785.107	49.8
785.499	49.8
785.891	49.78
786.284	49.77
786.676	49.79
787.068	49.82
787.46	49.82
787.852	49.86
788.245	49.87
788.636	49.84
789.028	49.83
789.42	49.82
789.812	49.83
790.204	49.87
790.595	49.89
790.987	49.9
791.378	49.91
791.77	49.91
792.161	49.87
792.553	49.87
792.944	49.89
793.335	49.91
793.726	49.92
794.117	49.91
794.508	49.9
794.899	49.86
795.29	49.84
795.681	49.79
796.072	49.79
796.463	49.82
796.853	49.83
797.244	49.84
797.634	49.81
798.025	49.8
798.415	49.81
798.806	49.82
799.196	49.84
799.586	49.86
799.976	49.89
800.366	49.91
800.756	49.93
801.146	49.94
801.536	49.97
801.926	50
802.316	50.02
802.706	50.03
803.095	50.04
803.485	50.05
803.874	50.06
804.264	50.07
804.653	50.09
805.043	50.1
805.432	50.09
805.821	50.07
806.21	50.07
806.599	50.09
806.988	50.12
807.377	50.11
807.766	50.11
808.155	50.12
808.544	50.14
808.933	50.16
809.321	50.16
809.71	50.17
810.098	50.19
810.487	50.17
810.875	50.17
811.264	50.16
811.652	50.21
812.04	50.21
812.428	50.22
812.816	50.21
813.204	50.2
813.592	50.2
813.98	50.2
814.368	50.2
814.756	50.24
815.144	50.22
815.531	50.21
815.919	50.18
816.306	50.21
816.694	50.2
817.081	50.21
817.469	50.25
817.856	50.24
818.243	50.24
818.63	50.23
819.017	50.23
819.404	50.26
819.791	50.27
820.178	50.29
820.565	50.26
820.952	50.26
821.339	50.25
821.725	50.22
822.112	50.22
822.498	50.24
822.885	50.26
823.271	50.23
823.657	50.2
824.044	50.2
824.43	50.22
824.816	50.23
825.202	50.21
825.588	50.2
825.974	50.22
826.36	50.22
826.746	50.19
827.132	50.19
827.517	50.22
827.903	50.26
828.289	50.28
828.674	50.26
829.06	50.25
829.445	50.23
829.83	50.25
830.216	50.23
830.601	50.21
830.986	50.22
831.371	50.21
831.756	50.19
832.141	50.16
832.526	50.14
832.911	50.11
833.295	50.14
833.68	50.17
834.065	50.15
834.449	50.13
834.834	50.1
835.218	50.09
835.603	50.07
835.987	50.05
836.371	50.02
836.755	50
837.139	49.97
837.524	49.93
837.908	49.91
838.291	49.92
838.675	49.95
839.059	49.97
839.443	49.94
839.827	49.95
840.21	49.94
840.594	49.97
840.977	49.95
841.361	49.96
841.744	49.92
842.127	49.9
842.511	49.87
842.894	49.82
843.277	49.79
843.66	49.79
844.043	49.78
844.426	49.76
844.809	49.73
845.191	49.75
845.574	49.76
845.957	49.77
846.339	49.79
846.722	49.79
847.104	49.82
847.487	49.83
847.869	49.83
848.252	49.82
848.634	49.83
849.016	49.85
849.398	49.85
849.78	49.84
850.162	49.85
850.544	49.82
850.926	49.82
851.307	49.83
851.689	49.85
852.071	49.86
852.452	49.87
852.834	49.87
853.215	49.85
853.597	49.85
853.978	49.85
854.359	49.87
854.741	49.88
855.122	49.86
855.503	49.83
855.884	49.83
856.265	49.85
856.646	49.86
857.026	49.89
857.407	49.92
857.788	49.91
858.169	49.93
858.549	49.93
858.93	49.93
859.31	49.95
859.69	49.98
860.071	49.98
860.451	49.96
860.831	49.96
861.211	49.91
861.591	49.9
861.971	49.9
862.351	49.92
862.731	49.91
863.111	49.92
863.491	49.91
863.87	49.9
864.25	49.88
864.629	49.89
865.009	49.89
865.388	49.89
865.768	49.9
866.147	49.91
866.526	49.88
866.905	49.88
867.284	49.89
867.663	49.88
868.042	49.89
868.421	49.91
868.8	49.91
869.179	49.91
869.558	49.92
869.936	49.91
870.315	49.9
870.693	49.92
871.072	49.92
871.45	49.93
871.828	49.95
872.207	49.95
872.585	49.93
872.963	49.93
873.341	49.92
873.719	49.92
874.097	49.94
874.475	50
874.853	50
875.23	50.02
875.608	49.97
875.986	49.99
876.363	50.01
876.741	50.02
877.118	50.03
877.495	50.06
877.873	50.1
878.25	50.11
878.627	50.1
879.004	50.1
879.381	50.12
879.758	50.14
880.135	50.14
880.512	50.13
880.889	50.13
881.265	50.1
881.642	50.07
882.019	50.03
882.395	50.01
882.772	49.95
883.148	49.92
883.524	49.91
883.901	49.92
884.277	49.88
884.653	49.86
885.029	49.82
885.405	49.84
885.781	49.82
886.157	49.82
886.532	49.83
886.908	49.83
887.284	49.84
887.659	49.78
888.035	49.72
888.411	49.72
888.786	49.74
889.161	49.76
889.537	49.75
889.912	49.76
890.287	49.74
890.662	49.7
891.037	49.7
891.412	49.68
891.787	49.68
892.162	49.68
892.536	49.67
892.911	49.65
893.286	49.63
893.66	49.61
894.035	49.59
894.409	49.59
894.784	49.6
895.158	49.58
895.532	49.62
895.906	49.63
896.281	49.62
896.655	49.61
897.029	49.62
897.402	49.63
897.776	49.64
898.15	49.66
898.524	49.67
898.898	49.67
899.271	49.67
899.645	49.66
900.018	49.7
900.392	49.71
900.765	49.74
901.138	49.74
901.511	49.74
901.884	49.73
902.258	49.75
902.631	49.75
903.003	49.77
903.376	49.79
903.749	49.76
904.122	49.76
904.495	49.78
904.867	49.8
905.24	49.8
905.612	49.81
905.985	49.83
906.357	49.81
906.729	49.82
907.102	49.83
907.474	49.82
907.846	49.86
908.218	49.83
908.59	49.84
908.962	49.83
909.334	49.88
909.705	49.88
910.077	49.9
910.449	49.93
910.82	49.93
911.192	49.93
911.563	49.94
911.935	49.94
912.306	49.97
912.677	50.01
913.048	50.03
913.419	49.98
913.79	50
914.161	49.97
914.532	49.97
914.903	49.96
915.274	49.94
915.645	49.96
916.015	49.97
916.386	49.95
916.756	49.93
917.127	49.92
917.497	49.94
917.868	49.93
918.238	49.95
918.608	49.98
918.978	49.98
919.348	50
919.718	49.96
920.088	49.97
920.458	49.96
920.828	49.95
921.198	49.93
921.567	49.93
921.937	49.93
922.306	49.92
922.676	49.91
923.045	49.92
923.415	49.92
923.784	49.96
924.153	49.98
924.522	49.99
924.891	49.97
925.26	49.99
925.629	49.99
925.998	49.98
926.367	49.99
926.736	49.95
927.104	49.92
927.473	49.9
927.842	49.84
928.21	49.84
928.578	49.8
928.947	49.82
929.315	49.77
929.683	49.75
930.051	49.73
930.42	49.73
930.788	49.7
931.156	49.7
931.523	49.67
931.891	49.72
932.259	49.69
932.627	49.7
932.994	49.68
933.362	49.66
933.729	49.68
934.097	49.65
934.464	49.65
934.831	49.65
935.199	49.67
935.566	49.7
935.933	49.67
936.3	49.65
936.667	49.64
937.034	49.67
937.401	49.74
937.767	49.73
938.134	49.77
938.501	49.75
938.867	49.78
939.234	49.81
939.6	49.84
939.967	49.85
940.333	49.85
940.699	49.93
941.065	49.93
941.431	49.94
941.798	49.93
942.163	49.95
942.529	49.94
942.895	49.95
943.261	49.94
943.627	49.94
943.992	49.97
944.358	49.99
944.723	49.96
945.089	49.9
945.454	49.88
945.82	49.86
946.185	49.83
946.55	49.81
946.915	49.84
947.28	49.82
947.645	49.8
948.01	49.76
948.375	49.74
948.74	49.76
949.104	49.79
949.469	49.79
949.834	49.78
950.198	49.76
950.562	49.75
950.927	49.68
951.291	49.64
951.655	49.55
952.02	49.53
952.384	49.49
952.748	49.39
953.112	49.33
953.476	49.28
953.839	49.22
954.203	49.24
954.567	49.21
954.931	49.2
955.294	49.19
955.658	49.29
956.021	49.27
956.385	49.23
956.748	49.22
957.111	49.21
957.474	49.2
957.837	49.2
958.2	49.16
958.563	49.15
958.926	49.13
959.289	49.14
959.652	49.04
960.015	48.99
960.377	49
960.74	49.01
961.102	49.04
961.465	49.07
961.827	49.12
962.189	49.12
962.552	49.1
962.914	49.14
963.276	49.12
963.638	49.14
964	49.13
964.362	49.16
964.724	49.12
965.085	49.06
965.447	49.02
965.809	48.99
966.17	48.98
966.532	49.01
966.893	48.99
967.255	48.99
967.616	48.99
967.977	49.03
968.338	49.02
968.699	49.08
969.061	49.11
969.421	49.13
969.782	49.11
970.143	49.12
970.504	49.12
970.865	49.09
971.225	49.05
971.586	49.07
971.946	49.05
972.307	49
972.667	48.95
973.027	48.95
973.388	48.94
973.748	48.88
974.108	48.94
974.468	48.91
974.828	48.98
975.188	48.97
975.548	48.92
975.907	48.94
976.267	48.99
976.627	49.03
976.986	49.05
977.346	49
977.705	49.04
978.064	49.01
978.424	49.06
978.783	48.97
979.142	49
979.501	49.03
979.86	49.05
980.219	48.98
980.578	48.95
980.937	48.92
981.296	48.92
981.654	48.93
982.013	48.88
982.371	48.84
982.73	48.86
983.088	48.86
983.447	48.8
983.805	48.82
984.163	48.85
984.521	48.91
984.879	48.89
985.237	48.92
985.595	48.92
985.953	48.91
986.311	48.94
986.669	48.94
987.026	48.93
987.384	49.03
987.741	48.98
988.099	48.99
988.456	48.95
988.814	49.07
989.171	49.05
989.528	49.1
989.885	49.07
990.242	49.03
990.599	49.04
990.956	49.09
991.313	49.1
991.67	49.1
992.027	49.19
992.383	49.23
992.74	49.22
993.096	49.23
993.453	49.23
993.809	49.27
994.165	49.36
994.522	49.39
994.878	49.41
995.234	49.44
995.59	49.46
995.946	49.52
996.302	49.61
996.658	49.61
997.013	49.7
997.369	49.72
997.725	49.85
998.08	49.91
998.436	49.97
998.791	49.9
999.147	49.86
999.502	49.92
999.857	49.87
1000.212	49.8
1000.567	49.74
1000.922	49.72
1001.277	49.76
1001.632	49.59
1001.987	49.56
1002.342	49.48
1002.696	49.55
1003.051	49.71
1003.406	49.9
1003.76	49.85
1004.114	49.82
1004.469	49.98
1004.823	50.26
1005.177	50.32
1005.531	50.58
1005.885	50.64
1006.239	50.74
1006.593	50.79
1006.947	50.69
1007.301	50.46
1007.655	50.39
1008.008	50.41
1008.362	50.42
1008.715	50.11
1009.069	50.2
1009.422	50.09
1009.776	50.1
1010.129	50.13
1010.482	50.13
1010.835	50.19
1011.188	50.3
1011.541	50.49
1011.894	50.5
1012.247	50.54
1012.6	50.51
1012.952	50.44
1013.305	50.5
1013.657	50.45
1014.01	50.51
1014.362	50.56
1014.715	50.49
1015.067	50.54
1015.419	50.58
1015.771	50.62
1016.123	50.69
1016.475	50.94
1016.827	51.04
1017.179	51.08
1017.531	51.14
1017.883	51.08
1018.234	51.2
1018.586	51.4
1018.938	51.52
1019.289	51.47
1019.64	51.61
1019.992	51.59
1020.343	51.56
1020.694	51.52
1021.045	51.56
1021.396	51.74
1021.747	51.78
1022.098	51.85
1022.449	51.86
1022.8	51.96
1023.151	52.01
1023.501	51.98
1023.852	51.96
1024.202	52.25
1024.553	52.13
1024.903	52.39
1025.253	52.36
1025.604	52.6
1025.954	52.36
1026.304	52.41
1026.654	52.36
1027.004	52.4
1027.354	52.54
1027.703	52.55
1028.053	52.17
1028.403	52.33
1028.753	52.02
1029.102	52.08
1029.452	51.96
1029.801	52.19
1030.15	52.12
1030.499	51.99
897.758	1336.97
901.051	1336.41
904.343	1338.46
907.636	1360.49
910.928	1323.77
914.22	1321.32
917.511	1301.57
920.803	1247.68
924.094	1240.78
927.384	1211.4
930.675	1161.13
933.965	1153.75
937.255	1091.87
940.544	1044.13
943.834	997.08
947.123	987.26
950.411	930.68
953.7	912.22
956.988	865.86
960.276	828.11
963.563	814.9
966.851	784.67
970.138	778.35
973.424	752.44
976.711	759.62
979.997	719.36
983.283	716.64
986.568	700.63
989.853	678.8
993.138	665.87
996.423	643.04
999.708	626.98
1002.992	619.58
1006.275	591.07
1009.559	585.28
1012.842	563.97
1016.125	549.38
1019.408	539.38
1022.69	532.61
1025.972	522.99
1029.254	509.59
1032.536	501.48
1035.817	490.1
1039.098	484.82
1042.379	474.99
1045.659	470.48
1048.939	458.52
1052.219	449.09
1055.498	442.91
1058.778	433.37
1062.057	422.56
1065.335	417.86
1068.614	412.81
1071.892	407.97
1075.17	395.01
1078.447	388.77
1081.724	385.48
1085.001	381.59
1088.278	374.95
1091.554	367.29
1094.83	367.47
1098.106	365.78
1101.382	361.5
1104.657	358.98
1107.932	354.18
1111.206	356.29
1114.481	346.59
1117.755	343.77
1121.029	341.11
1124.302	340.52
1127.575	334.62
1130.848	330.61
1134.121	326.65
1137.393	326.1
1140.665	319.67
1143.937	317.12
1147.208	314.07
1150.48	314.78
1153.75	310
1157.021	305.47
1160.291	305.6
1163.561	301.72
1166.831	301.38
1170.101	299.26
1173.37	297.85
1176.639	298.46
1179.907	295.05
1183.176	292.41
1186.444	291.73
1189.711	291.54
1192.979	290.9
1196.246	289.04
1199.513	290.78
1202.78	288.89
1206.046	289.12
1209.312	286.74
1212.578	286.83
1215.843	289.65
1219.108	287.65
1222.373	293.53
1225.638	295.52
1228.902	299.82
1232.166	299.65
1235.43	301.29
1238.693	305.75
1241.956	306.96
1245.219	311.83
1248.482	311.78
1251.744	312.09
1255.006	313
1258.268	305.27
1261.529	302.57
1264.79	300.66
1268.051	299.44
1271.312	296.27
1274.572	291.51
1277.832	288.92
1281.092	284.33
1284.351	282.33
1287.61	281.85
1290.869	277.67
1294.128	275.93
1297.386	275.76
1300.644	273.08
1303.902	273.93
1307.159	272.35
1310.416	273.09
1313.673	272.53
1316.93	275.5
1320.186	274.82
1323.442	275.91
1326.697	280.34
1329.953	281.3
1333.208	282.47
1336.463	285.77
1339.717	285.6
1342.972	289.85
1346.226	291.99
1349.479	292.95
1352.733	294.21
1355.986	296.51
1359.238	295.66
1362.491	297.85
1365.743	300.49
1368.995	301
1372.247	298.84
1375.498	299.35
1378.749	300.46
1382	298
1385.251	299.17
1388.501	296.83
1391.751	298.07
1395	296.8
1398.25	294.41
1401.499	292.27
1404.748	291.71
1407.996	290.38
1411.244	288.83
1414.492	287.26
1417.74	284.38
1420.987	279.46
1424.234	279.99
1427.481	275.58
1430.728	275.47
1433.974	272.69
1437.22	270.77
1440.465	269.52
1443.711	266.96
1446.956	265.44
1450.201	262.21
1453.445	259.5
1456.689	258.59
1459.933	254.1
1463.177	252.37
1466.42	249.16
1469.663	246.5
1472.906	244.97
1476.148	238.5
1479.391	235.81
1482.633	233.85
1485.874	231
1489.115	229.84
1492.356	227.15
1495.597	226.2
1498.838	223.35
1502.078	221.81
1505.318	220.76
1508.557	220.58
1511.797	221.08
1515.036	219.81
1518.274	218.54
1521.513	216.89
1524.751	216.41
1527.989	216.23
1531.227	215.34
1534.464	215.68
1537.701	213.91
1540.938	213.29
1544.174	210.9
1547.41	210.66
1550.646	209.75
1553.882	209.84
1557.117	207.18
1560.352	206.35
1563.587	205.5
1566.821	204.26
1570.055	202.16
1573.289	201.19
1576.523	200.9
1579.756	199.52
1582.989	198.5
1586.222	198.19
1589.454	197.8
1592.686	199.38
1595.918	197.87
1599.15	197.28
1602.381	197.45
1605.612	197.44
1608.843	197.94
1612.073	197.79
1615.303	198.88
1618.533	198.8
1621.762	198.47
1624.992	198.29
1628.221	197.66
1631.449	197.65
1634.678	197.71
1637.906	198.78
1641.134	198.8
1644.361	198.3
1647.588	198.93
1650.815	197.93
1654.042	197.62
1657.269	198.91
1660.495	198.54
1663.72	197.64
1666.946	198.7
1670.171	199.06
1673.396	198.73
1676.621	198.79
1679.845	199.38
1683.069	199.23
1686.293	200.23
1689.517	200.97
1692.74	200.69
1695.963	201.58
1699.185	204.19
1702.408	204.34
1705.63	205.22
1708.852	205.62
1712.073	206.06
1715.294	206.23
1718.515	207.67
1721.736	207.39
1724.956	208.07
1728.176	207.95
1731.396	209.96
1734.616	208.31
1737.835	209.06
1741.054	207.15
1744.272	207.96
1747.491	209.81
1750.709	210.51
1753.927	210.13
1757.144	209.78
1760.361	210.54
1763.578	210.98
1766.795	209.99
1770.011	212.29
1773.227	211.98
1776.443	215.04
1779.658	215.8
1782.874	214.6
1786.089	215.35
1789.303	216.18
1792.518	219.09
1795.732	218.35
1798.945	220.74
1802.159	221.24
1805.372	220.97
1808.585	224.85
1811.797	225.05
1815.01	225.26
1818.222	227.54
1821.434	229.44
1824.645	229.63
1827.856	232.85
1831.067	235.69
1834.278	234.6
1837.488	235.82
1840.698	237.4
1843.908	235.28
1847.117	237.31
1850.326	239.2
1853.535	237.56
1856.744	240.63
1859.952	240.69
1863.16	239.21
1866.368	236.97
1869.575	239.49
1872.782	236.18
1875.989	234.98
1879.196	234.12
1882.402	231.25
1885.608	231.77
1888.814	232.44
1892.019	230.99
1895.224	230.15
1898.429	228.72
1901.634	229.64
1904.838	229.29
1908.042	231.12
1911.246	232.58
1914.449	233.72
1917.652	234.36
1920.855	233.68
1924.058	234.17
1927.26	232.89
1930.462	233.65
1933.664	236.57
1936.865	234.65
1940.066	234.83
1943.267	233.29
1946.467	233.01
1949.668	234.23
1952.868	237.11
1956.067	237.41
1959.267	237.47
1962.466	238.28
1965.665	236.68
1968.863	237.84
1972.061	241.49
1975.259	243.22
1978.457	245.77
1981.654	247.1
1984.852	247.86
1988.048	247.09
1991.245	249.22
1994.441	251.93
1997.637	253.42
2000.833	259.61
2004.028	262.04
2007.223	263.84
2010.418	266.55
2013.613	270.67
2016.807	274.51
2020.001	277.45
2023.194	281.07
2026.388	287.59
2029.581	293.78
2032.774	296.2
2035.966	301.2
2039.158	302.53
2042.35	307.15
2045.542	309.82
2048.733	314.87
2051.924	318.56
2055.115	323.1
2058.306	324.62
2061.496	327.23
2064.686	329.05
2067.875	334.98
2071.065	335.63
2074.254	333.77
2077.442	339.52
2080.631	340.49
2083.819	343.77
2087.007	343.91
2090.195	347.4
2093.382	350.89
2096.569	348.79
2099.756	353.73
2102.942	355.6
2106.128	358.66
2109.314	367.86
2112.5	365.19
2115.685	374.11
2118.87	374.91
2122.055	384.83
2125.239	387.51
2128.424	391.02
2131.608	394.05
2134.791	398.68
2137.974	398.91
2141.157	401.81
2144.34	401.24
2147.523	407.73
2150.705	404.01
2153.887	407.1
2157.068	406.07
2160.25	403.34
2163.431	405.35
2166.611	409.76
2169.792	417.81
2172.972	423.42
2176.152	425.26
2179.331	431.08
2182.511	437.76
2185.69	442.57
2188.868	452.34
2192.047	453.28
2195.225	466.44
2198.403	478.72
2201.58	487.86
2204.758	496.6
2207.935	505.73
2211.111	517.47
2214.288	522.57
2217.464	524.43
2220.64	532.21
2223.815	538.31
2226.991	560.48
2230.166	561.32
2233.34	571.94
2236.515	579.25
2239.689	578.68
2242.863	582.87
2246.036	598.06
2249.209	593.02
2252.382	601.78
2255.555	619.54
2258.727	622.75
2261.9	626.23
2265.071	631.97
2268.243	640.81
2271.414	648.98
2274.585	663.89
2277.756	671.01
2280.926	671.81
2284.096	691.08
2287.266	706.48
2290.436	710.81
2293.605	726.81
2296.774	747.46
2299.942	771.63
2303.111	775.39
2306.279	793.32
2309.447	802.8
2312.614	824.45
2315.781	849.13
2318.948	885.29
2322.115	871.44
2325.281	922.12
2328.447	903.22
2331.613	941.03
2334.779	930.19
2337.944	969.03
2341.109	977.79
2344.274	1003.97
2347.438	1039.82
2350.602	1041.1
2353.766	1070.69
2356.929	1088.61
2360.092	1078.67
2363.255	1157.41
2366.418	1151.96
2369.58	1172.81
2372.742	1250.83
2375.904	1283.22
2379.066	1278.2
2382.227	1245.39
2385.388	1352.39
2388.548	1358.31
2391.709	1374.04
2394.869	1530.72
2398.029	1465.77
2401.188	1503.71
2404.347	1500.63
2407.506	1469.6
2410.665	1511.18
2413.823	1605.19
2416.981	1704.6
2420.139	1647.65
2423.296	1619.73
2426.453	1698.64
2429.61	1634.55
2432.767	1707.39
2435.923	1694.37
2439.079	1854.01
2442.235	1880
2445.391	1867.09
2448.546	1843.45
2451.701	1795.6
2454.855	1794.26
2458.009	1916.88
2461.163	1987.48
2464.317	2055.11
2467.471	2109.41
2470.624	2109.79
2473.777	2050.88
2476.929	1996.41
2480.082	1931.55
2483.234	1917.26
2486.385	2005.2
2489.537	2014.84
2492.688	2083.73
2495.839	2021.26
2498.989	1983.69
2502.14	1989.72
2505.29	2008.58
2508.439	2039.03
2511.589	2036.93
2514.738	2224.92
2517.887	2175.48
2521.035	2305.14
2524.183	2318.29
2527.331	2336.01
2530.479	2329.88
2533.627	2342.21
