Data from C_3_DIV_OH_2N_Splice17_13-47-42-060.txt Node
Date: Sat Mar 07 13:47:42 EST 2020
User: sa697716
Spectrometer: NQ5500242
Trigger mode: 0
Integration Time (sec): 1.450000E-1
Scans to average: 20
Nonlinearity correction enabled: false
Boxcar width: 5
Storing dark spectrum: false
XAxis mode: Wavelengths
Number of Pixels in Spectrum: 512
>>>>>Begin Spectral Data<<<<<
187.83	244.44
188.298	263.07
188.766	257.94
189.233	202.77
189.701	202.5
190.169	240.31
190.636	298.73
191.104	419.9
191.571	314.5
192.039	-54.72
192.506	-407.82
192.974	-2.52
193.441	40.84
193.908	72.79
194.375	22.85
194.842	-12.3
195.31	56.74
195.777	398.08
196.244	52.4
196.711	37.05
197.177	37.37
197.644	34.89
198.111	35.05
198.578	35.36
199.045	35.74
199.511	36.2
199.978	35.88
200.445	35.8
200.911	35.4
201.378	35.09
201.844	34.99
202.31	34.64
202.777	34.91
203.243	34.84
203.709	34.58
204.176	34.05
204.642	33.69
205.108	33.81
205.574	33.23
206.04	32.67
206.506	32.57
206.972	32.63
207.438	32.47
207.903	31.99
208.369	31.12
208.835	30.47
209.301	30.13
209.766	28.84
210.232	27.96
210.697	27.13
211.163	26.51
211.628	25.81
212.094	25.07
212.559	24.52
213.024	23.93
213.49	23.73
213.955	23.1
214.42	22.35
214.885	21.97
215.35	21.18
215.815	20.57
216.28	19.39
216.745	17.84
217.21	16.43
217.675	15.11
218.14	14.05
218.604	12.96
219.069	12.17
219.534	11.56
219.998	11.02
220.463	10.54
220.927	10.05
221.392	9.7
221.856	9.49
222.32	9.25
222.785	9.09
223.249	8.9
223.713	8.78
224.177	8.67
224.642	8.52
225.106	8.37
225.57	8.24
226.034	8.19
226.497	8.11
226.961	8.02
227.425	7.94
227.889	7.83
228.353	7.74
228.816	7.64
229.28	7.55
229.744	7.47
230.207	7.4
230.671	7.33
231.134	7.24
231.597	7.19
232.061	7.12
232.524	7.04
232.987	6.98
233.45	6.93
233.914	6.88
234.377	6.81
234.84	6.75
235.303	6.7
235.766	6.66
236.229	6.6
236.691	6.53
237.154	6.48
237.617	6.44
238.08	6.38
238.542	6.33
239.005	6.28
239.468	6.23
239.93	6.2
240.393	6.15
240.855	6.09
241.317	6.03
241.78	5.98
242.242	5.94
242.704	5.91
243.166	5.86
243.629	5.83
244.091	5.79
244.553	5.74
245.015	5.69
245.477	5.65
245.939	5.61
246.4	5.58
246.862	5.54
247.324	5.5
247.786	5.46
248.247	5.42
248.709	5.37
249.17	5.32
249.632	5.3
250.093	5.28
250.555	5.25
251.016	5.22
251.477	5.19
251.939	5.16
252.4	5.13
252.861	5.11
253.322	5.09
253.783	5.06
254.244	5.04
254.705	5.01
255.166	4.96
255.627	4.94
256.088	4.93
256.549	4.9
257.009	4.87
257.47	4.84
257.931	4.8
258.391	4.76
258.852	4.74
259.312	4.71
259.773	4.68
260.233	4.66
260.694	4.63
261.154	4.6
261.614	4.59
262.074	4.57
262.534	4.55
262.994	4.53
263.455	4.52
263.915	4.5
264.374	4.5
264.834	4.49
265.294	4.47
265.754	4.46
266.214	4.45
266.673	4.44
267.133	4.43
267.593	4.42
268.052	4.42
268.512	4.42
268.971	4.42
269.431	4.41
269.89	4.4
270.349	4.4
270.809	4.39
271.268	4.39
271.727	4.38
272.186	4.37
272.645	4.37
273.104	4.36
273.563	4.35
274.022	4.33
274.481	4.33
274.94	4.33
275.399	4.31
275.857	4.3
276.316	4.29
276.775	4.29
277.233	4.28
277.692	4.28
278.15	4.27
278.609	4.27
279.067	4.27
279.525	4.26
279.984	4.25
280.442	4.25
280.9	4.25
281.358	4.24
281.816	4.25
282.274	4.24
282.732	4.23
283.19	4.22
283.648	4.2
284.106	4.19
284.564	4.18
285.021	4.18
285.479	4.17
285.937	4.15
286.394	4.13
286.852	4.12
287.309	4.1
287.767	4.09
288.224	4.08
288.682	4.07
289.139	4.06
289.596	4.05
290.053	4.03
290.511	4.02
290.968	4.02
291.425	4
291.882	3.99
292.339	3.98
292.796	3.98
293.252	3.97
293.709	3.97
294.166	3.96
294.623	3.95
295.079	3.94
295.536	3.94
295.992	3.93
296.449	3.93
296.905	3.92
297.362	3.92
297.818	3.91
298.274	3.91
298.731	3.9
299.187	3.89
299.643	3.88
300.099	3.88
300.555	3.87
301.011	3.87
301.467	3.87
301.923	3.86
302.379	3.86
302.835	3.85
303.291	3.85
303.746	3.85
304.202	3.85
304.658	3.85
305.113	3.84
305.569	3.84
306.024	3.84
306.479	3.82
306.935	3.82
307.39	3.81
307.845	3.81
308.301	3.81
308.756	3.81
309.211	3.8
309.666	3.79
310.121	3.79
310.576	3.79
311.031	3.79
311.486	3.78
311.94	3.78
312.395	3.78
312.85	3.78
313.305	3.77
313.759	3.78
314.214	3.78
314.668	3.78
315.123	3.78
315.577	3.77
316.032	3.76
316.486	3.76
316.94	3.76
317.394	3.75
317.849	3.74
318.303	3.73
318.757	3.71
319.211	3.7
319.665	3.68
320.119	3.67
320.572	3.67
321.026	3.66
321.48	3.66
321.934	3.64
322.387	3.63
322.841	3.63
323.295	3.64
323.748	3.64
324.202	3.63
324.655	3.63
325.108	3.64
325.562	3.64
326.015	3.64
326.468	3.63
326.921	3.64
327.374	3.63
327.827	3.63
328.28	3.63
328.733	3.63
329.186	3.62
329.639	3.62
330.092	3.61
330.545	3.6
330.997	3.6
331.45	3.62
331.903	3.63
332.355	3.64
332.808	3.63
333.26	3.63
333.713	3.62
334.165	3.62
334.617	3.62
335.069	3.61
335.522	3.61
335.974	3.61
336.426	3.59
336.878	3.58
337.33	3.57
337.782	3.56
338.234	3.57
338.686	3.57
339.137	3.58
339.589	3.57
340.041	3.57
340.493	3.57
340.944	3.56
341.396	3.55
341.847	3.55
342.299	3.54
342.75	3.53
343.201	3.51
343.653	3.5
344.104	3.48
344.555	3.46
345.006	3.46
345.457	3.45
345.908	3.45
346.359	3.46
346.81	3.45
347.261	3.45
347.712	3.45
348.163	3.45
348.613	3.46
349.064	3.47
349.515	3.47
349.965	3.47
350.416	3.46
350.866	3.46
351.317	3.46
351.767	3.47
352.217	3.47
352.668	3.47
353.118	3.48
353.568	3.47
354.018	3.48
354.468	3.48
354.918	3.49
355.368	3.5
355.818	3.5
356.268	3.5
356.718	3.51
357.168	3.51
357.617	3.51
358.067	3.51
358.517	3.53
358.966	3.53
359.416	3.54
359.865	3.54
360.315	3.56
360.764	3.57
361.213	3.58
361.663	3.59
362.112	3.61
362.561	3.62
363.01	3.64
363.459	3.63
363.908	3.64
364.357	3.67
364.806	3.68
365.255	3.7
365.703	3.72
366.152	3.75
366.601	3.77
367.05	3.78
367.498	3.81
367.947	3.83
368.395	3.86
368.844	3.9
369.292	3.92
369.74	3.96
370.189	3.99
370.637	4.01
371.085	4.03
371.533	4.06
371.981	4.1
372.429	4.14
372.877	4.18
373.325	4.21
373.773	4.25
374.221	4.28
374.669	4.32
375.116	4.35
375.564	4.4
376.012	4.45
376.459	4.5
376.907	4.55
377.354	4.59
377.801	4.66
378.249	4.72
378.696	4.78
379.143	4.83
379.591	4.89
380.038	4.96
380.485	5.02
380.932	5.08
381.379	5.14
381.826	5.21
382.273	5.27
382.72	5.31
383.166	5.37
383.613	5.42
384.06	5.48
384.506	5.54
384.953	5.59
385.4	5.65
385.846	5.72
386.292	5.78
386.739	5.83
387.185	5.87
387.631	5.94
388.078	6.01
388.524	6.08
388.97	6.14
389.416	6.21
389.862	6.29
390.308	6.35
390.754	6.41
391.2	6.47
391.645	6.54
392.091	6.63
392.537	6.7
392.983	6.74
393.428	6.81
393.874	6.87
394.319	6.92
394.765	6.96
395.21	7.01
395.655	7.06
396.101	7.11
396.546	7.16
396.991	7.19
397.436	7.23
397.881	7.28
398.326	7.32
398.771	7.37
399.216	7.4
399.661	7.44
400.106	7.46
400.551	7.48
400.995	7.49
401.44	7.52
401.885	7.53
402.329	7.55
402.774	7.56
403.218	7.59
403.663	7.6
404.107	7.62
404.551	7.63
404.995	7.65
405.44	7.65
405.884	7.66
406.328	7.66
406.772	7.67
407.216	7.67
407.66	7.66
408.104	7.64
408.547	7.63
408.991	7.64
409.435	7.63
409.879	7.62
410.322	7.63
410.766	7.64
411.209	7.66
411.653	7.67
412.096	7.68
412.54	7.7
412.983	7.72
413.426	7.76
413.869	7.76
414.312	7.8
414.756	7.82
415.199	7.82
415.642	7.82
416.085	7.81
416.527	7.8
416.97	7.76
417.413	7.76
417.856	7.76
418.298	7.72
418.741	7.71
419.184	7.69
419.626	7.67
420.069	7.69
420.511	7.69
420.953	7.69
421.396	7.71
421.838	7.71
422.28	7.72
422.722	7.71
423.164	7.72
423.606	7.71
424.048	7.71
424.49	7.69
424.932	7.64
425.374	7.57
425.816	7.52
426.258	7.48
426.699	7.46
427.141	7.45
427.582	7.43
428.024	7.41
428.465	7.41
428.907	7.38
429.348	7.37
429.789	7.39
430.231	7.44
430.672	7.48
431.113	7.51
431.554	7.52
431.995	7.52
432.436	7.55
432.877	7.58
433.318	7.59
433.759	7.62
434.2	7.64
434.64	7.65
435.081	7.65
435.522	7.67
435.962	7.67
436.403	7.7
436.843	7.71
437.284	7.7
437.724	7.7
438.164	7.71
438.604	7.74
439.045	7.77
439.485	7.81
439.925	7.84
440.365	7.86
440.805	7.9
441.245	7.94
441.685	7.97
442.125	8.03
442.564	8.06
443.004	8.11
443.444	8.15
443.883	8.2
444.323	8.23
444.762	8.27
445.202	8.31
445.641	8.37
446.081	8.44
446.52	8.49
446.959	8.55
447.398	8.61
447.837	8.67
448.276	8.71
448.716	8.76
449.154	8.83
449.593	8.88
450.032	8.92
450.471	8.94
450.91	8.96
451.349	9.02
451.787	9.01
452.226	9.02
452.664	9.03
453.103	9.03
453.541	9.04
453.98	9.05
454.418	9.04
454.856	9.05
455.295	9.05
455.733	9.04
456.171	9.02
456.609	9.04
457.047	9.03
457.485	9.03
457.923	9.03
458.361	9.03
458.798	9.02
459.236	9.02
459.674	9.02
460.111	9.03
460.549	9.06
460.987	9.06
461.424	9.06
461.862	9.08
462.299	9.08
462.736	9.09
463.173	9.09
463.611	9.11
464.048	9.12
464.485	9.13
464.922	9.14
465.359	9.13
465.796	9.17
466.233	9.19
466.67	9.21
467.106	9.24
467.543	9.25
467.98	9.26
468.416	9.25
468.853	9.24
469.29	9.25
469.726	9.26
470.162	9.27
470.599	9.27
471.035	9.26
471.471	9.26
471.907	9.26
472.344	9.28
472.78	9.3
473.216	9.31
473.652	9.34
474.088	9.34
474.523	9.37
474.959	9.38
475.395	9.37
475.831	9.38
476.266	9.39
476.702	9.4
477.138	9.4
477.573	9.41
478.008	9.42
478.444	9.42
478.879	9.45
479.314	9.44
479.75	9.44
480.185	9.45
480.62	9.45
481.055	9.43
481.49	9.42
481.925	9.41
482.36	9.42
482.795	9.41
483.229	9.41
483.664	9.42
484.099	9.42
484.534	9.43
484.968	9.45
485.403	9.47
485.837	9.52
486.271	9.57
486.706	9.61
487.14	9.64
487.574	9.7
488.009	9.74
488.443	9.8
488.877	9.86
489.311	9.92
489.745	9.99
490.179	10.07
490.613	10.15
491.046	10.22
491.48	10.3
491.914	10.39
492.348	10.48
492.781	10.57
493.215	10.67
493.648	10.76
494.082	10.85
494.515	10.96
494.948	11.07
495.382	11.16
495.815	11.27
496.248	11.38
496.681	11.5
497.114	11.62
497.547	11.75
497.98	11.89
498.413	12.03
498.846	12.18
499.279	12.31
499.711	12.45
500.144	12.61
500.577	12.78
501.009	12.95
501.442	13.13
501.874	13.31
502.306	13.49
502.739	13.69
503.171	13.88
503.603	14.08
504.036	14.29
504.468	14.51
504.9	14.71
505.332	14.93
505.764	15.16
506.196	15.38
506.627	15.61
507.059	15.84
507.491	16.07
507.923	16.31
508.354	16.57
508.786	16.82
509.217	17.07
509.649	17.32
510.08	17.55
510.512	17.81
510.943	18.06
511.374	18.3
511.805	18.55
512.237	18.8
512.668	19.05
513.099	19.28
513.53	19.52
513.961	19.76
514.391	20.03
514.822	20.29
515.253	20.55
515.684	20.82
516.114	21.09
516.545	21.35
516.975	21.62
517.406	21.88
517.836	22.14
518.267	22.41
518.697	22.67
519.127	22.93
519.558	23.17
519.988	23.4
520.418	23.62
520.848	23.83
521.278	24.04
521.708	24.4
522.138	24.6
522.567	24.78
522.997	24.96
523.427	25.13
523.857	25.3
524.286	25.46
524.716	25.62
525.145	25.8
525.575	25.97
526.004	26.14
526.433	26.13
526.863	26.29
527.292	26.46
527.721	26.6
528.15	26.73
528.579	26.84
529.008	26.98
529.437	27.07
529.866	27.15
530.295	27.24
530.724	27.33
531.152	27.42
531.581	27.5
532.01	27.57
532.438	27.65
532.867	27.72
533.295	27.79
533.723	27.86
534.152	27.93
534.58	28.01
535.008	28.05
535.436	28.11
535.865	28.14
536.293	28.17
536.721	28.21
537.149	28.26
537.576	28.31
538.004	28.36
538.432	28.38
538.86	28.42
539.287	28.44
539.715	28.49
540.143	28.52
540.57	28.55
540.998	28.59
541.425	28.63
541.852	28.65
542.28	28.68
542.707	28.71
543.134	28.74
543.561	28.76
543.988	28.81
544.415	28.82
544.842	28.84
545.269	28.87
545.696	28.91
546.123	28.92
546.549	28.95
546.976	28.97
547.403	28.99
547.829	29.01
548.256	29.04
548.682	29.05
549.108	29.09
549.535	29.13
549.961	29.14
550.387	29.16
550.813	29.19
551.24	29.2
551.666	29.21
552.092	29.23
552.518	29.23
552.943	29.22
553.369	29.22
553.795	29.2
554.221	29.17
554.646	29.15
555.072	29.13
555.498	29.1
555.923	29.07
556.349	29.04
556.774	29
557.199	28.96
557.625	28.92
558.05	28.86
558.475	28.81
558.9	28.81
559.325	28.77
559.75	28.73
560.175	28.68
560.6	28.61
561.025	28.55
561.449	28.47
561.874	28.41
562.299	28.35
562.723	28.29
563.148	28.22
563.572	28.1
563.997	28
564.421	27.9
564.846	27.8
565.27	27.72
565.694	27.62
566.118	27.53
566.542	27.43
566.966	27.33
567.39	27.24
567.814	27.14
568.238	27.06
568.662	26.97
569.086	26.89
569.509	26.81
569.933	26.73
570.357	26.63
570.78	26.54
571.204	26.45
571.627	26.36
572.05	26.27
572.474	26.21
572.897	26.14
573.32	26.05
573.743	25.96
574.166	25.89
574.589	25.8
575.012	25.73
575.435	25.65
575.858	25.59
576.281	25.51
576.704	25.44
577.126	25.35
577.549	25.28
577.972	25.21
578.394	25.14
578.817	25.09
579.239	25.05
579.661	24.99
580.084	24.96
580.506	24.9
580.928	24.85
581.35	24.79
581.772	24.73
582.194	24.66
582.616	24.61
583.038	24.55
583.46	24.48
583.882	24.4
584.303	24.34
584.725	24.26
585.147	24.21
585.568	24.15
585.99	24.1
586.411	24.05
586.833	23.99
587.254	23.94
587.675	23.88
588.096	23.85
588.518	23.8
588.939	23.76
589.36	23.73
589.781	23.67
590.202	23.66
590.623	23.62
591.043	23.57
591.464	23.55
591.885	23.52
592.305	23.49
592.726	23.47
593.147	23.45
593.567	23.43
593.987	23.4
594.408	23.37
594.828	23.33
595.248	23.31
595.669	23.3
596.089	23.26
596.509	23.24
596.929	23.21
597.349	23.18
597.769	23.14
598.189	23.1
598.608	23.08
599.028	23.05
599.448	23.01
599.867	22.98
600.287	22.95
600.706	22.91
601.126	22.88
601.545	22.85
601.965	22.81
602.384	22.78
602.803	22.75
603.222	22.7
603.641	22.65
604.061	22.62
604.48	22.54
604.898	22.49
605.317	22.45
605.736	22.38
606.155	22.32
606.574	22.25
606.992	22.17
607.411	22.11
607.829	22.01
608.248	21.94
608.666	21.86
609.085	21.81
609.503	21.74
609.921	21.67
610.339	21.59
610.758	21.52
611.176	21.45
611.594	21.38
612.012	21.3
612.43	21.26
612.847	21.19
613.265	21.11
613.683	21.05
614.101	20.98
614.518	20.91
614.936	20.84
615.353	20.76
615.771	20.7
616.188	20.63
616.606	20.57
617.023	20.52
617.44	20.47
617.857	20.42
618.274	20.36
618.691	20.31
619.108	20.25
619.525	20.2
619.942	20.16
620.359	20.11
620.776	20.06
621.192	20.02
621.609	19.98
622.026	19.94
622.442	19.9
622.859	19.87
623.275	19.83
623.691	19.79
624.108	19.76
624.524	19.75
624.94	19.72
625.356	19.71
625.772	19.69
626.188	19.67
626.604	19.66
627.02	19.65
627.436	19.63
627.852	19.63
628.268	19.62
628.683	19.62
629.099	19.6
629.514	19.6
629.93	19.59
630.345	19.57
630.761	19.55
631.176	19.51
631.591	19.48
632.007	19.45
632.422	19.4
632.837	19.35
633.252	19.3
633.667	19.24
634.082	19.17
634.497	19.12
634.911	19.04
635.326	18.96
635.741	18.9
636.155	18.8
636.57	18.72
636.984	18.63
637.399	18.53
637.813	18.44
638.228	18.32
638.642	18.19
639.056	18.05
639.47	17.93
639.884	17.8
640.298	17.64
640.712	17.52
641.126	17.38
641.54	17.24
641.954	17.09
642.368	16.94
642.781	16.8
643.195	16.68
643.609	16.55
644.022	16.41
644.436	16.27
644.849	16.14
645.262	16.02
645.676	15.89
646.089	15.79
646.502	15.7
646.915	15.6
647.328	15.51
647.741	15.42
648.154	15.32
648.567	15.23
648.98	15.17
649.393	15.11
649.805	15.05
650.218	14.99
650.631	14.92
651.043	14.84
651.456	14.77
651.868	14.69
652.28	14.61
652.693	14.55
653.105	14.49
653.517	14.4
653.929	14.31
654.341	14.21
654.753	14.1
655.165	14
655.577	13.9
655.989	13.8
656.401	13.68
656.813	13.59
657.224	13.46
657.636	13.31
658.047	13.2
658.459	13.06
658.87	12.9
659.282	12.76
659.693	12.62
660.104	12.47
660.515	12.31
660.926	12.16
661.338	11.98
661.749	11.82
662.159	11.67
662.57	11.51
662.981	11.36
663.392	11.21
663.803	11.07
664.213	10.92
664.624	10.78
665.035	10.65
665.445	10.53
665.855	10.41
666.266	10.31
666.676	10.22
667.086	10.11
667.497	10.01
667.907	9.91
668.317	9.81
668.727	9.75
669.137	9.67
669.547	9.6
669.956	9.53
670.366	9.46
670.776	9.4
671.186	9.34
671.595	9.3
672.005	9.26
672.414	9.23
672.824	9.21
673.233	9.18
673.642	9.16
674.052	9.16
674.461	9.16
674.87	9.16
675.279	9.17
675.688	9.18
676.097	9.21
676.506	9.24
676.915	9.26
677.323	9.31
677.732	9.36
678.141	9.42
678.549	9.48
678.958	9.56
679.366	9.66
679.775	9.76
680.183	9.9
680.592	10.04
681	10.2
681.408	10.39
681.816	10.59
682.224	10.82
682.632	11.06
683.04	11.34
683.448	11.62
683.856	11.92
684.264	12.27
684.671	12.62
685.079	12.98
685.487	13.38
685.894	13.8
686.302	14.22
686.709	14.67
687.116	15.14
687.524	15.63
687.931	16.13
688.338	16.65
688.745	17.16
689.152	17.68
689.559	18.23
689.966	18.77
690.373	19.3
690.78	19.84
691.187	20.37
691.593	20.9
692	21.41
692.407	21.9
692.813	22.4
693.22	22.89
693.626	23.37
694.032	23.85
694.439	24.3
694.845	24.75
695.251	25.17
695.657	25.57
696.063	25.97
696.469	26.38
696.875	26.79
697.281	27.15
697.687	27.52
698.093	27.85
698.498	28.16
698.904	28.49
699.31	28.8
699.715	29.12
700.12	29.42
700.526	29.71
700.931	29.99
701.337	30.26
701.742	30.54
702.147	30.78
702.552	31.03
702.957	31.27
703.362	31.49
703.767	31.67
704.172	31.88
704.577	32.07
704.981	32.26
705.386	32.44
705.791	32.61
706.195	32.79
706.6	32.96
707.004	33.13
707.408	33.3
707.813	33.46
708.217	33.63
708.621	33.8
709.025	33.93
709.43	34.07
709.834	34.2
710.237	34.35
710.641	34.45
711.045	34.58
711.449	34.72
711.853	34.86
712.256	34.96
712.66	35.07
713.064	35.17
713.467	35.29
713.87	35.4
714.274	35.48
714.677	35.56
715.08	35.64
715.484	35.73
715.887	35.8
716.29	35.84
716.693	35.95
717.096	36.04
717.499	36.13
717.901	36.22
718.304	36.3
718.707	36.41
719.109	36.5
719.512	36.6
719.915	36.68
720.317	36.74
720.719	36.81
721.122	36.87
721.524	36.94
721.926	37
722.328	37.06
722.731	37.11
723.133	37.14
723.535	37.18
723.937	37.24
724.338	37.28
724.74	37.34
725.142	37.63
725.544	37.65
725.945	37.74
726.347	37.77
726.748	37.83
727.15	37.86
727.551	37.94
727.952	37.99
728.354	38.03
728.755	38.09
729.156	38.12
729.557	37.94
729.958	37.99
730.359	37.99
730.76	38.05
731.161	38.07
731.562	38.13
731.962	38.13
732.363	38.16
732.763	38.18
733.164	38.21
733.564	38.27
733.965	38.3
734.365	38.33
734.766	38.33
735.166	38.35
735.566	38.36
735.966	38.38
736.366	38.39
736.766	38.4
737.166	38.41
737.566	38.42
737.966	38.42
738.365	38.44
738.765	38.47
739.165	38.5
739.564	38.51
739.964	38.54
740.363	38.55
740.763	38.6
741.162	38.63
741.561	38.66
741.96	38.66
742.36	38.66
742.759	38.67
743.158	38.66
743.557	38.66
743.955	38.67
744.354	38.68
744.753	38.68
745.152	38.67
745.55	38.67
745.949	38.68
746.348	38.69
746.746	38.69
747.144	38.7
747.543	38.67
747.941	38.67
748.339	38.66
748.737	38.63
749.136	38.61
749.534	38.59
749.932	38.6
750.33	38.59
750.727	38.6
751.125	38.61
751.523	38.62
751.921	38.65
752.318	38.65
752.716	38.64
753.113	38.66
753.511	38.68
753.908	38.71
754.305	38.73
754.703	38.71
755.1	38.68
755.497	38.63
755.894	38.53
756.291	38.42
756.688	38.33
757.085	38.24
757.482	38.14
757.878	38.06
758.275	37.97
758.672	37.85
759.068	37.78
759.465	37.7
759.861	37.65
760.258	37.65
760.654	37.68
761.05	37.74
761.447	37.8
761.843	37.84
762.239	37.9
762.635	37.91
763.031	37.97
763.427	38.02
763.822	38.12
764.218	38.21
764.614	38.29
765.01	38.32
765.405	38.37
765.801	38.37
766.196	38.43
766.592	38.45
766.987	38.5
767.382	38.52
767.778	38.56
768.173	38.56
768.568	38.56
768.963	38.57
769.358	38.61
769.753	38.62
770.148	38.67
770.542	38.67
770.937	38.68
771.332	38.69
771.726	38.69
772.121	38.69
772.515	38.7
772.91	38.69
773.304	38.7
773.699	38.69
774.093	38.68
774.487	38.66
774.881	38.66
775.275	38.65
775.669	38.65
776.063	38.65
776.457	38.64
776.851	38.64
777.245	38.62
777.638	38.6
778.032	38.59
778.425	38.63
778.819	38.64
779.212	38.66
779.606	38.65
779.999	38.63
780.392	38.63
780.786	38.64
781.179	38.63
781.572	38.66
781.965	38.68
782.358	38.72
782.751	38.7
783.143	38.67
783.536	38.65
783.929	38.65
784.322	38.67
784.714	38.67
785.107	38.68
785.499	38.69
785.891	38.69
786.284	38.68
786.676	38.64
787.068	38.6
787.46	38.61
787.852	38.6
788.245	38.58
788.636	38.55
789.028	38.54
789.42	38.52
789.812	38.46
790.204	38.46
790.595	38.44
790.987	38.44
791.378	38.47
791.77	38.46
792.161	38.42
792.553	38.42
792.944	38.42
793.335	38.42
793.726	38.39
794.117	38.4
794.508	38.35
794.899	38.35
795.29	38.35
795.681	38.34
796.072	38.35
796.463	38.44
796.853	38.43
797.244	38.44
797.634	38.41
798.025	38.44
798.415	38.45
798.806	38.48
799.196	38.48
799.586	38.47
799.976	38.45
800.366	38.45
800.756	38.35
801.146	38.37
801.536	38.36
801.926	38.39
802.316	38.38
802.706	38.38
803.095	38.35
803.485	38.33
803.874	38.32
804.264	38.32
804.653	38.3
805.043	38.33
805.432	38.33
805.821	38.34
806.21	38.31
806.599	38.31
806.988	38.31
807.377	38.31
807.766	38.3
808.155	38.3
808.544	38.28
808.933	38.28
809.321	38.27
809.71	38.24
810.098	38.2
810.487	38.16
810.875	38.14
811.264	38.1
811.652	38.14
812.04	38.12
812.428	38.12
812.816	38.09
813.204	38.05
813.592	38.01
813.98	38.02
814.368	38.02
814.756	38.01
815.144	37.98
815.531	38
815.919	37.95
816.306	37.96
816.694	37.94
817.081	37.95
817.469	37.97
817.856	37.95
818.243	37.92
818.63	37.9
819.017	37.92
819.404	37.9
819.791	37.88
820.178	37.88
820.565	37.86
820.952	37.86
821.339	37.84
821.725	37.84
822.112	37.84
822.498	37.88
822.885	37.88
823.271	37.9
823.657	37.91
824.044	37.92
824.43	37.89
824.816	37.91
825.202	37.89
825.588	37.88
825.974	37.87
826.36	37.86
826.746	37.82
827.132	37.81
827.517	37.79
827.903	37.8
828.289	37.8
828.674	37.81
829.06	37.79
829.445	37.77
829.83	37.77
830.216	37.76
830.601	37.76
830.986	37.76
831.371	37.75
831.756	37.74
832.141	37.72
832.526	37.72
832.911	37.71
833.295	37.7
833.68	37.7
834.065	37.7
834.449	37.68
834.834	37.67
835.218	37.67
835.603	37.67
835.987	37.64
836.371	37.64
836.755	37.61
837.139	37.6
837.524	37.59
837.908	37.59
838.291	37.6
838.675	37.6
839.059	37.59
839.443	37.58
839.827	37.57
840.21	37.56
840.594	37.57
840.977	37.57
841.361	37.57
841.744	37.55
842.127	37.53
842.511	37.48
842.894	37.48
843.277	37.48
843.66	37.47
844.043	37.49
844.426	37.5
844.809	37.46
845.191	37.46
845.574	37.48
845.957	37.49
846.339	37.49
846.722	37.5
847.104	37.51
847.487	37.5
847.869	37.51
848.252	37.48
848.634	37.48
849.016	37.5
849.398	37.5
849.78	37.47
850.162	37.45
850.544	37.44
850.926	37.43
851.307	37.42
851.689	37.41
852.071	37.4
852.452	37.42
852.834	37.42
853.215	37.42
853.597	37.42
853.978	37.43
854.359	37.44
854.741	37.45
855.122	37.46
855.503	37.46
855.884	37.47
856.265	37.49
856.646	37.46
857.026	37.47
857.407	37.47
857.788	37.44
858.169	37.46
858.549	37.47
858.93	37.46
859.31	37.47
859.69	37.48
860.071	37.5
860.451	37.49
860.831	37.5
861.211	37.48
861.591	37.46
861.971	37.45
862.351	37.44
862.731	37.43
863.111	37.42
863.491	37.43
863.87	37.41
864.25	37.39
864.629	37.4
865.009	37.41
865.388	37.42
865.768	37.44
866.147	37.46
866.526	37.44
866.905	37.44
867.284	37.43
867.663	37.41
868.042	37.43
868.421	37.43
868.8	37.42
869.179	37.42
869.558	37.41
869.936	37.4
870.315	37.38
870.693	37.39
871.072	37.41
871.45	37.42
871.828	37.45
872.207	37.45
872.585	37.44
872.963	37.45
873.341	37.43
873.719	37.43
874.097	37.43
874.475	37.46
874.853	37.48
875.23	37.47
875.608	37.47
875.986	37.48
876.363	37.48
876.741	37.49
877.118	37.5
877.495	37.51
877.873	37.52
878.25	37.54
878.627	37.52
879.004	37.5
879.381	37.5
879.758	37.48
880.135	37.46
880.512	37.44
880.889	37.41
881.265	37.36
881.642	37.35
882.019	37.34
882.395	37.32
882.772	37.34
883.148	37.3
883.524	37.28
883.901	37.29
884.277	37.29
884.653	37.27
885.029	37.28
885.405	37.31
885.781	37.29
886.157	37.29
886.532	37.28
886.908	37.26
887.284	37.27
887.659	37.25
888.035	37.23
888.411	37.21
888.786	37.22
889.161	37.21
889.537	37.21
889.912	37.21
890.287	37.21
890.662	37.21
891.037	37.21
891.412	37.21
891.787	37.22
892.162	37.24
892.536	37.24
892.911	37.24
893.286	37.25
893.66	37.23
894.035	37.22
894.409	37.21
894.784	37.22
895.158	37.21
895.532	37.22
895.906	37.23
896.281	37.22
896.655	37.22
897.029	37.23
897.402	37.21
897.776	37.24
898.15	37.24
898.524	37.25
898.898	37.24
899.271	37.26
899.645	37.25
900.018	37.24
900.392	37.25
900.765	37.25
901.138	37.22
901.511	37.23
901.884	37.24
902.258	37.27
902.631	37.28
903.003	37.3
903.376	37.3
903.749	37.3
904.122	37.3
904.495	37.3
904.867	37.33
905.24	37.36
905.612	37.38
905.985	37.35
906.357	37.33
906.729	37.33
907.102	37.3
907.474	37.32
907.846	37.31
908.218	37.32
908.59	37.35
908.962	37.32
909.334	37.3
909.705	37.31
910.077	37.33
910.449	37.33
910.82	37.34
911.192	37.33
911.563	37.3
911.935	37.29
912.306	37.3
912.677	37.29
913.048	37.31
913.419	37.3
913.79	37.29
914.161	37.28
914.532	37.26
914.903	37.26
915.274	37.28
915.645	37.28
916.015	37.29
916.386	37.26
916.756	37.24
917.127	37.23
917.497	37.24
917.868	37.24
918.238	37.23
918.608	37.25
918.978	37.25
919.348	37.26
919.718	37.26
920.088	37.26
920.458	37.29
920.828	37.24
921.198	37.23
921.567	37.23
921.937	37.22
922.306	37.22
922.676	37.22
923.045	37.24
923.415	37.24
923.784	37.24
924.153	37.29
924.522	37.29
924.891	37.33
925.26	37.36
925.629	37.39
925.998	37.39
926.367	37.41
926.736	37.42
927.104	37.39
927.473	37.34
927.842	37.34
928.21	37.29
928.578	37.28
928.947	37.28
929.315	37.25
929.683	37.22
930.051	37.18
930.42	37.17
930.788	37.15
931.156	37.14
931.523	37.15
931.891	37.18
932.259	37.22
932.627	37.25
932.994	37.25
933.362	37.29
933.729	37.33
934.097	37.38
934.464	37.41
934.831	37.4
935.199	37.4
935.566	37.44
935.933	37.39
936.3	37.38
936.667	37.38
937.034	37.42
937.401	37.39
937.767	37.36
938.134	37.37
938.501	37.34
938.867	37.36
939.234	37.36
939.6	37.3
939.967	37.32
940.333	37.26
940.699	37.22
941.065	37.12
941.431	37.1
941.798	37.1
942.163	37.08
942.529	37.04
942.895	37.06
943.261	37.06
943.627	37.05
943.992	37.06
944.358	37.05
944.723	37.04
945.089	36.98
945.454	37
945.82	36.96
946.185	36.91
946.55	36.9
946.915	36.9
947.28	36.88
947.645	36.9
948.01	36.89
948.375	36.91
948.74	36.88
949.104	36.9
949.469	36.81
949.834	36.79
950.198	36.82
950.562	36.77
950.927	36.7
951.291	36.64
951.655	36.57
952.02	36.55
952.384	36.49
952.748	36.48
953.112	36.5
953.476	36.49
953.839	36.46
954.203	36.43
954.567	36.41
954.931	36.37
955.294	36.39
955.658	36.42
956.021	36.42
956.385	36.42
956.748	36.41
957.111	36.38
957.474	36.4
957.837	36.38
958.2	36.34
958.563	36.32
958.926	36.37
959.289	36.44
959.652	36.39
960.015	36.36
960.377	36.34
960.74	36.36
961.102	36.36
961.465	36.41
961.827	36.55
962.189	36.58
962.552	36.63
962.914	36.6
963.276	36.59
963.638	36.61
964	36.61
964.362	36.68
964.724	36.68
965.085	36.67
965.447	36.63
965.809	36.54
966.17	36.51
966.532	36.47
966.893	36.5
967.255	36.46
967.616	36.46
967.977	36.48
968.338	36.44
968.699	36.45
969.061	36.48
969.421	36.46
969.782	36.46
970.143	36.52
970.504	36.59
970.865	36.61
971.225	36.61
971.586	36.61
971.946	36.65
972.307	36.68
972.667	36.64
973.027	36.65
973.388	36.65
973.748	36.66
974.108	36.65
974.468	36.62
974.828	36.65
975.188	36.65
975.548	36.69
975.907	36.66
976.267	36.62
976.627	36.65
976.986	36.64
977.346	36.69
977.705	36.64
978.064	36.69
978.424	36.74
978.783	36.63
979.142	36.62
979.501	36.65
979.86	36.67
980.219	36.7
980.578	36.73
980.937	36.73
981.296	36.67
981.654	36.71
982.013	36.67
982.371	36.69
982.73	36.79
983.088	36.78
983.447	36.72
983.805	36.71
984.163	36.69
984.521	36.64
984.879	36.57
985.237	36.58
985.595	36.68
985.953	36.63
986.311	36.52
986.669	36.48
987.026	36.49
987.384	36.58
987.741	36.54
988.099	36.63
988.456	36.64
988.814	36.75
989.171	36.79
989.528	36.71
989.885	36.68
990.242	36.78
990.599	36.76
990.956	36.8
991.313	36.78
991.67	36.85
992.027	36.96
992.383	37.05
992.74	37.12
993.096	37.13
993.453	37.08
993.809	37.11
994.165	37.09
994.522	37.23
994.878	37.26
995.234	37.21
995.59	37.19
995.946	37.08
996.302	37.02
996.658	37.02
997.013	37.03
997.369	37.16
997.725	37.25
998.08	37.31
998.436	37.18
998.791	37.12
999.147	37.16
999.502	37.16
999.857	37.08
1000.212	37.01
1000.567	36.95
1000.922	36.92
1001.277	36.86
1001.632	36.72
1001.987	36.61
1002.342	36.56
1002.696	36.56
1003.051	36.59
1003.406	36.74
1003.76	36.67
1004.114	36.69
1004.469	36.7
1004.823	37.08
1005.177	37.11
1005.531	37.29
1005.885	37.48
1006.239	37.69
1006.593	37.84
1006.947	37.86
1007.301	37.67
1007.655	37.66
1008.008	37.69
1008.362	37.78
1008.715	37.43
1009.069	37.37
1009.422	37.37
1009.776	37.25
1010.129	37.13
1010.482	36.99
1010.835	36.96
1011.188	37.05
1011.541	37.13
1011.894	37.18
1012.247	37.06
1012.6	37.13
1012.952	37.17
1013.305	37.05
1013.657	37.14
1014.01	37.37
1014.362	37.41
1014.715	37.51
1015.067	37.69
1015.419	37.76
1015.771	37.66
1016.123	37.84
1016.475	37.89
1016.827	38.01
1017.179	38.2
1017.531	38.1
1017.883	37.92
1018.234	38.21
1018.586	38.27
1018.938	38.4
1019.289	38.52
1019.64	38.5
1019.992	38.45
1020.343	38.47
1020.694	38.35
1021.045	38.23
1021.396	38.28
1021.747	38.57
1022.098	38.28
1022.449	38.28
1022.8	37.98
1023.151	37.88
1023.501	38.03
1023.852	37.9
1024.202	37.72
1024.553	37.55
1024.903	37.7
1025.253	38.12
1025.604	38.02
1025.954	37.91
1026.304	37.82
1026.654	38.05
1027.004	37.89
1027.354	38.03
1027.703	37.93
1028.053	37.87
1028.403	38.3
1028.753	37.87
1029.102	37.72
1029.452	37.61
1029.801	37.94
1030.15	37.91
1030.499	37.57
897.758	2089.31
901.051	2081.3
904.343	2071.42
907.636	2115.37
910.928	2061.1
914.22	2053.43
917.511	2020.77
920.803	1931.69
924.094	1923.48
927.384	1879.82
930.675	1791.5
933.965	1775.69
937.255	1681.95
940.544	1614.07
943.834	1528.92
947.123	1513.91
950.411	1424.6
953.7	1392.88
956.988	1316.94
960.276	1260.17
963.563	1240.37
966.851	1200.17
970.138	1190.43
973.424	1148.37
976.711	1155.85
979.997	1096.46
983.283	1091.66
986.568	1069.84
989.853	1032.44
993.138	1016.49
996.423	975.87
999.708	948.95
1002.992	939.54
1006.275	894.12
1009.559	883.95
1012.842	850.76
1016.125	827.32
1019.408	812.77
1022.69	800.49
1025.972	788.39
1029.254	766.23
1032.536	754.5
1035.817	736.33
1039.098	725.43
1042.379	708.94
1045.659	701.97
1048.939	684.49
1052.219	671.14
1055.498	656.51
1058.778	643.76
1062.057	624.81
1065.335	617.53
1068.614	609.68
1071.892	604.87
1075.17	582.01
1078.447	571.82
1081.724	568.64
1085.001	563.14
1088.278	550.54
1091.554	540.7
1094.83	539.53
1098.106	537.58
1101.382	532.43
1104.657	528.2
1107.932	518.48
1111.206	524.2
1114.481	509.86
1117.755	503.66
1121.029	500.25
1124.302	501.26
1127.575	490.51
1130.848	483.44
1134.121	478.26
1137.393	476.66
1140.665	466.21
1143.937	464.11
1147.208	457.13
1150.48	458.33
1153.75	451.9
1157.021	444.17
1160.291	444
1163.561	440.11
1166.831	439.16
1170.101	437.06
1173.37	433.48
1176.639	434.75
1179.907	429.32
1183.176	426.6
1186.444	425.78
1189.711	425.29
1192.979	424.34
1196.246	419.82
1199.513	421.77
1202.78	419.7
1206.046	419.08
1209.312	415.74
1212.578	416.45
1215.843	420.76
1219.108	417.21
1222.373	425.96
1225.638	429.68
1228.902	438.08
1232.166	437.58
1235.43	441.65
1238.693	447.94
1241.956	449.28
1245.219	458.61
1248.482	456.74
1251.744	456.44
1255.006	458.93
1258.268	446.87
1261.529	441.73
1264.79	435.8
1268.051	435.01
1271.312	428.82
1274.572	422.64
1277.832	418.43
1281.092	410.04
1284.351	407.94
1287.61	407.56
1290.869	401.09
1294.128	398.27
1297.386	397.68
1300.644	393.67
1303.902	395.29
1307.159	392.5
1310.416	394.18
1313.673	394.26
1316.93	398.49
1320.186	398.63
1323.442	400.42
1326.697	407.76
1329.953	408.65
1333.208	411.85
1336.463	417.21
1339.717	417.8
1342.972	422.84
1346.226	425.55
1349.479	425.78
1352.733	429.8
1355.986	431.31
1359.238	430.91
1362.491	433.92
1365.743	439.37
1368.995	438.47
1372.247	435.9
1375.498	437.44
1378.749	443.47
1382	437.77
1385.251	441.58
1388.501	436.94
1391.751	441.34
1395	439.09
1398.25	436.97
1401.499	434.85
1404.748	435.71
1407.996	433.38
1411.244	430.28
1414.492	429.04
1417.74	426.62
1420.987	418.47
1424.234	420.95
1427.481	413.41
1430.728	414.7
1433.974	408.82
1437.22	405.45
1440.465	403.8
1443.711	402.3
1446.956	400.62
1450.201	392.85
1453.445	389.78
1456.689	389.26
1459.933	381.65
1463.177	379.86
1466.42	372.36
1469.663	368.5
1472.906	366.7
1476.148	356.34
1479.391	351.03
1482.633	346.29
1485.874	342.43
1489.115	340.07
1492.356	334.13
1495.597	333.09
1498.838	326.98
1502.078	324.95
1505.318	323.03
1508.557	323.04
1511.797	323.59
1515.036	321.37
1518.274	320.45
1521.513	315.83
1524.751	315.34
1527.989	314.99
1531.227	313.34
1534.464	315.18
1537.701	311.91
1540.938	310.82
1544.174	305.74
1547.41	304.18
1550.646	302.87
1553.882	303.35
1557.117	299.7
1560.352	297.03
1563.587	296.22
1566.821	293.97
1570.055	289.29
1573.289	287.34
1576.523	287.04
1579.756	285.27
1582.989	283.8
1586.222	283.29
1589.454	280.8
1592.686	282.67
1595.918	281.85
1599.15	281.04
1602.381	280.52
1605.612	280.83
1608.843	282.49
1612.073	281.81
1615.303	282.91
1618.533	283.4
1621.762	282.6
1624.992	282.65
1628.221	282.9
1631.449	282.03
1634.678	280.98
1637.906	282.91
1641.134	282.62
1644.361	282.16
1647.588	282.71
1650.815	281.41
1654.042	279.41
1657.269	281.74
1660.495	282.04
1663.72	278.86
1666.946	280.6
1670.171	281.44
1673.396	280.78
1676.621	280.91
1679.845	280.67
1683.069	280.64
1686.293	282.77
1689.517	284.62
1692.74	283.45
1695.963	284.95
1699.185	289.92
1702.408	289.52
1705.63	290.46
1708.852	291.7
1712.073	292.35
1715.294	292.93
1718.515	294.12
1721.736	293.91
1724.956	294.7
1728.176	294.69
1731.396	297.54
1734.616	296.56
1737.835	297.7
1741.054	295.93
1744.272	296.59
1747.491	300.19
1750.709	300.92
1753.927	301.98
1757.144	299.64
1760.361	302.09
1763.578	302.49
1766.795	301.24
1770.011	302.92
1773.227	303.83
1776.443	307.57
1779.658	310.27
1782.874	308.69
1786.089	310.29
1789.303	311.35
1792.518	316.27
1795.732	315.63
1798.945	319.63
1802.159	319.5
1805.372	321.42
1808.585	326.91
1811.797	328.47
1815.01	327.54
1818.222	330.39
1821.434	332.45
1824.645	333.96
1827.856	339.99
1831.067	343.78
1834.278	340.86
1837.488	344.06
1840.698	347.19
1843.908	343.44
1847.117	345.77
1850.326	348.59
1853.535	347.87
1856.744	354.1
1859.952	353.92
1863.16	352.88
1866.368	350.2
1869.575	357.65
1872.782	351.99
1875.989	350.49
1879.196	349.65
1882.402	348.43
1885.608	350.64
1888.814	353.23
1892.019	352.57
1895.224	352.51
1898.429	350.51
1901.634	354.03
1904.838	353.29
1908.042	359.05
1911.246	361.23
1914.449	364.33
1917.652	364.41
1920.855	363.87
1924.058	362.23
1927.26	360.97
1930.462	363.18
1933.664	367.51
1936.865	364.43
1940.066	365.26
1943.267	362.31
1946.467	361.22
1949.668	364.25
1952.868	368.24
1956.067	367.45
1959.267	368.47
1962.466	369.68
1965.665	367.15
1968.863	367.9
1972.061	371.55
1975.259	375.46
1978.457	378.45
1981.654	381.37
1984.852	382.43
1988.048	381.02
1991.245	384.77
1994.441	389.62
1997.637	391.15
2000.833	399.25
2004.028	404.44
2007.223	407.46
2010.418	411.96
2013.613	417.83
2016.807	422.58
2020.001	424.34
2023.194	430.8
2026.388	440.27
2029.581	449.31
2032.774	454.61
2035.966	462.21
2039.158	463.59
2042.35	473.33
2045.542	474.67
2048.733	481.7
2051.924	488.43
2055.115	496.92
2058.306	497.51
2061.496	504.73
2064.686	503.3
2067.875	511.61
2071.065	513.56
2074.254	510.15
2077.442	514.91
2080.631	517.75
2083.819	524.41
2087.007	522.43
2090.195	528.84
2093.382	534.27
2096.569	528.13
2099.756	537.99
2102.942	538.81
2106.128	544.98
2109.314	558.7
2112.5	556.54
2115.685	568.41
2118.87	568.34
2122.055	582.2
2125.239	587.23
2128.424	595.17
2131.608	599.03
2134.791	607.19
2137.974	611.01
2141.157	613.19
2144.34	613.47
2147.523	623.18
2150.705	618.21
2153.887	623.46
2157.068	625.02
2160.25	618.86
2163.431	619.63
2166.611	626.82
2169.792	639.07
2172.972	645.41
2176.152	647.43
2179.331	657.67
2182.511	670.12
2185.69	678.62
2188.868	692.89
2192.047	694.55
2195.225	713.84
2198.403	733.05
2201.58	747.09
2204.758	760.35
2207.935	776.83
2211.111	791.94
2214.288	801.25
2217.464	802.94
2220.64	812.34
2223.815	824.76
2226.991	858.34
2230.166	861.5
2233.34	878.7
2236.515	892.21
2239.689	892.86
2242.863	898.89
2246.036	926.77
2249.209	915.37
2252.382	929.64
2255.555	961.39
2258.727	963.18
2261.9	966.96
2265.071	976.79
2268.243	989.38
2271.414	1001.77
2274.585	1028.18
2277.756	1037.07
2280.926	1041.22
2284.096	1065.91
2287.266	1092.04
2290.436	1099.08
2293.605	1127.17
2296.774	1165.63
2299.942	1201.51
2303.111	1212.13
2306.279	1241.1
2309.447	1254.45
2312.614	1288.69
2315.781	1326.75
2318.948	1390.61
2322.115	1366.73
2325.281	1443.27
2328.447	1409.49
2331.613	1465.24
2334.779	1448
2337.944	1510.52
2341.109	1528.19
2344.274	1569.09
2347.438	1626.71
2350.602	1629.02
2353.766	1677.52
2356.929	1703
2360.092	1683.73
2363.255	1818.09
2366.418	1811.38
2369.58	1853.09
2372.742	1957.1
2375.904	2005.52
2379.066	1993.01
2382.227	1948.11
2385.388	2110.93
2388.548	2116.84
2391.709	2149.84
2394.869	2403.12
2398.029	2282.92
2401.188	2348.58
2404.347	2334.49
2407.506	2306.99
2410.665	2372.78
2413.823	2518.16
2416.981	2671.17
2420.139	2579.37
2423.296	2545.27
2426.453	2657.53
2429.61	2545.62
2432.767	2674.29
2435.923	2658.46
2439.079	2884.54
2442.235	2923.48
2445.391	2893.61
2448.546	2879.4
2451.701	2797.3
2454.855	2800.31
2458.009	2971.91
2461.163	3076.97
2464.317	3207.63
2467.471	3287.77
2470.624	3282.28
2473.777	3205.37
2476.929	3127.04
2480.082	3044.19
2483.234	2997.17
2486.385	3139.38
2489.537	3153.24
2492.688	3279.39
2495.839	3180.19
2498.989	3116.68
2502.14	3136.11
2505.29	3175.09
2508.439	3228.77
2511.589	3217.35
2514.738	3494.08
2517.887	3425.84
2521.035	3632.54
2524.183	3652.94
2527.331	3684.63
2530.479	3691.79
2533.627	3708.59
