Data from C_3_DIV_WI_4N_Splice17_13-51-11-123.txt Node
Date: Sat Mar 07 13:51:11 EST 2020
User: sa697716
Spectrometer: NQ5500242
Trigger mode: 0
Integration Time (sec): 1.450000E-1
Scans to average: 20
Nonlinearity correction enabled: false
Boxcar width: 5
Storing dark spectrum: false
XAxis mode: Wavelengths
Number of Pixels in Spectrum: 512
>>>>>Begin Spectral Data<<<<<
187.83	193.41
188.298	235.41
188.766	197.93
189.233	168.09
189.701	173.01
190.169	194.42
190.636	239.04
191.104	365.74
191.571	364.26
192.039	241.7
192.506	-223.63
192.974	80.7
193.441	262.31
193.908	65.4
194.375	70.06
194.842	17.52
195.31	40.55
195.777	161.17
196.244	49.46
196.711	43.06
197.177	45.24
197.644	42.92
198.111	42.31
198.578	42.47
199.045	43.03
199.511	43.22
199.978	43.24
200.445	43.43
200.911	43.36
201.378	43.08
201.844	43.03
202.31	42.81
202.777	42.85
203.243	42.9
203.709	42.87
204.176	42.45
204.642	42.3
205.108	42.28
205.574	41.89
206.04	41.47
206.506	41.56
206.972	41.66
207.438	41.21
207.903	40.61
208.369	39.69
208.835	39.04
209.301	38.36
209.766	37
210.232	35.87
210.697	35.01
211.163	34.39
211.628	33.27
212.094	32.22
212.559	31.73
213.024	31.05
213.49	30.58
213.955	29.67
214.42	28.81
214.885	28.2
215.35	27.4
215.815	26.36
216.28	24.67
216.745	22.96
217.21	21.27
217.675	19.54
218.14	18.12
218.604	16.86
219.069	15.88
219.534	15.09
219.998	14.38
220.463	13.79
220.927	13.2
221.392	12.77
221.856	12.42
222.32	12.08
222.785	11.83
223.249	11.59
223.713	11.36
224.177	11.19
224.642	11
225.106	10.8
225.57	10.59
226.034	10.43
226.497	10.29
226.961	10.15
227.425	10.01
227.889	9.88
228.353	9.74
228.816	9.59
229.28	9.44
229.744	9.3
230.207	9.17
230.671	9.07
231.134	8.94
231.597	8.84
232.061	8.73
232.524	8.62
232.987	8.5
233.45	8.43
233.914	8.34
234.377	8.26
234.84	8.17
235.303	8.09
235.766	8.01
236.229	7.92
236.691	7.84
237.154	7.76
237.617	7.69
238.08	7.62
238.542	7.54
239.005	7.48
239.468	7.4
239.93	7.35
240.393	7.28
240.855	7.21
241.317	7.14
241.78	7.07
242.242	7.01
242.704	6.96
243.166	6.9
243.629	6.85
244.091	6.78
244.553	6.72
245.015	6.66
245.477	6.6
245.939	6.53
246.4	6.48
246.862	6.43
247.324	6.38
247.786	6.32
248.247	6.26
248.709	6.19
249.17	6.14
249.632	6.1
250.093	6.07
250.555	6.03
251.016	6
251.477	5.96
251.939	5.93
252.4	5.9
252.861	5.86
253.322	5.83
253.783	5.81
254.244	5.78
254.705	5.73
255.166	5.69
255.627	5.66
256.088	5.64
256.549	5.6
257.009	5.57
257.47	5.53
257.931	5.5
258.391	5.45
258.852	5.42
259.312	5.38
259.773	5.35
260.233	5.32
260.694	5.29
261.154	5.25
261.614	5.22
262.074	5.18
262.534	5.15
262.994	5.13
263.455	5.1
263.915	5.08
264.374	5.06
264.834	5.04
265.294	5
265.754	4.99
266.214	4.98
266.673	4.96
267.133	4.95
267.593	4.94
268.052	4.93
268.512	4.92
268.971	4.91
269.431	4.9
269.89	4.89
270.349	4.89
270.809	4.87
271.268	4.87
271.727	4.86
272.186	4.84
272.645	4.83
273.104	4.81
273.563	4.8
274.022	4.78
274.481	4.78
274.94	4.77
275.399	4.75
275.857	4.73
276.316	4.71
276.775	4.7
277.233	4.69
277.692	4.68
278.15	4.67
278.609	4.66
279.067	4.65
279.525	4.65
279.984	4.64
280.442	4.63
280.9	4.63
281.358	4.63
281.816	4.63
282.274	4.62
282.732	4.6
283.19	4.59
283.648	4.57
284.106	4.56
284.564	4.54
285.021	4.53
285.479	4.51
285.937	4.49
286.394	4.48
286.852	4.46
287.309	4.44
287.767	4.43
288.224	4.41
288.682	4.4
289.139	4.38
289.596	4.36
290.053	4.33
290.511	4.32
290.968	4.31
291.425	4.28
291.882	4.27
292.339	4.26
292.796	4.24
293.252	4.23
293.709	4.21
294.166	4.2
294.623	4.19
295.079	4.18
295.536	4.17
295.992	4.16
296.449	4.15
296.905	4.14
297.362	4.13
297.818	4.12
298.274	4.12
298.731	4.1
299.187	4.09
299.643	4.08
300.099	4.08
300.555	4.07
301.011	4.06
301.467	4.05
301.923	4.04
302.379	4.03
302.835	4.02
303.291	4.02
303.746	4.01
304.202	4.01
304.658	4
305.113	3.99
305.569	3.98
306.024	3.97
306.479	3.96
306.935	3.96
307.39	3.95
307.845	3.95
308.301	3.95
308.756	3.94
309.211	3.94
309.666	3.94
310.121	3.94
310.576	3.94
311.031	3.95
311.486	3.94
311.94	3.94
312.395	3.94
312.85	3.93
313.305	3.92
313.759	3.92
314.214	3.91
314.668	3.9
315.123	3.89
315.577	3.88
316.032	3.87
316.486	3.86
316.94	3.85
317.394	3.84
317.849	3.83
318.303	3.82
318.757	3.8
319.211	3.79
319.665	3.78
320.119	3.76
320.572	3.75
321.026	3.74
321.48	3.73
321.934	3.71
322.387	3.7
322.841	3.7
323.295	3.7
323.748	3.69
324.202	3.69
324.655	3.68
325.108	3.68
325.562	3.68
326.015	3.68
326.468	3.68
326.921	3.68
327.374	3.67
327.827	3.67
328.28	3.66
328.733	3.66
329.186	3.66
329.639	3.65
330.092	3.65
330.545	3.65
330.997	3.65
331.45	3.65
331.903	3.66
332.355	3.66
332.808	3.65
333.26	3.65
333.713	3.65
334.165	3.65
334.617	3.66
335.069	3.64
335.522	3.64
335.974	3.64
336.426	3.63
336.878	3.62
337.33	3.61
337.782	3.61
338.234	3.61
338.686	3.61
339.137	3.61
339.589	3.6
340.041	3.6
340.493	3.58
340.944	3.57
341.396	3.55
341.847	3.55
342.299	3.54
342.75	3.53
343.201	3.51
343.653	3.5
344.104	3.48
344.555	3.46
345.006	3.45
345.457	3.44
345.908	3.44
346.359	3.44
346.81	3.42
347.261	3.42
347.712	3.41
348.163	3.4
348.613	3.4
349.064	3.4
349.515	3.4
349.965	3.4
350.416	3.39
350.866	3.39
351.317	3.38
351.767	3.38
352.217	3.38
352.668	3.38
353.118	3.38
353.568	3.38
354.018	3.38
354.468	3.38
354.918	3.38
355.368	3.38
355.818	3.39
356.268	3.39
356.718	3.39
357.168	3.39
357.617	3.38
358.067	3.38
358.517	3.38
358.966	3.38
359.416	3.38
359.865	3.38
360.315	3.38
360.764	3.38
361.213	3.38
361.663	3.37
362.112	3.37
362.561	3.38
363.01	3.38
363.459	3.37
363.908	3.37
364.357	3.38
364.806	3.38
365.255	3.38
365.703	3.39
366.152	3.4
366.601	3.41
367.05	3.42
367.498	3.42
367.947	3.44
368.395	3.44
368.844	3.45
369.292	3.45
369.74	3.47
370.189	3.47
370.637	3.47
371.085	3.47
371.533	3.47
371.981	3.48
372.429	3.49
372.877	3.5
373.325	3.51
373.773	3.52
374.221	3.53
374.669	3.54
375.116	3.55
375.564	3.57
376.012	3.59
376.459	3.61
376.907	3.63
377.354	3.65
377.801	3.68
378.249	3.69
378.696	3.71
379.143	3.73
379.591	3.75
380.038	3.77
380.485	3.78
380.932	3.8
381.379	3.82
381.826	3.84
382.273	3.85
382.72	3.85
383.166	3.88
383.613	3.9
384.06	3.91
384.506	3.93
384.953	3.95
385.4	3.98
385.846	4.01
386.292	4.03
386.739	4.05
387.185	4.07
387.631	4.1
388.078	4.13
388.524	4.16
388.97	4.18
389.416	4.22
389.862	4.25
390.308	4.28
390.754	4.3
391.2	4.33
391.645	4.36
392.091	4.4
392.537	4.43
392.983	4.45
393.428	4.49
393.874	4.52
394.319	4.55
394.765	4.57
395.21	4.6
395.655	4.63
396.101	4.66
396.546	4.69
396.991	4.7
397.436	4.74
397.881	4.78
398.326	4.79
398.771	4.81
399.216	4.83
399.661	4.86
400.106	4.88
400.551	4.89
400.995	4.9
401.44	4.91
401.885	4.93
402.329	4.94
402.774	4.95
403.218	4.99
403.663	5.01
404.107	5.02
404.551	5.01
404.995	5.03
405.44	5.03
405.884	5.05
406.328	5.07
406.772	5.07
407.216	5.08
407.66	5.09
408.104	5.06
408.547	5.07
408.991	5.08
409.435	5.1
409.879	5.1
410.322	5.11
410.766	5.14
411.209	5.15
411.653	5.17
412.096	5.19
412.54	5.19
412.983	5.21
413.426	5.25
413.869	5.25
414.312	5.28
414.756	5.3
415.199	5.3
415.642	5.3
416.085	5.31
416.527	5.3
416.97	5.27
417.413	5.27
417.856	5.27
418.298	5.24
418.741	5.24
419.184	5.24
419.626	5.23
420.069	5.25
420.511	5.26
420.953	5.26
421.396	5.29
421.838	5.31
422.28	5.32
422.722	5.35
423.164	5.36
423.606	5.37
424.048	5.37
424.49	5.37
424.932	5.35
425.374	5.32
425.816	5.3
426.258	5.29
426.699	5.27
427.141	5.25
427.582	5.24
428.024	5.25
428.465	5.25
428.907	5.24
429.348	5.22
429.789	5.23
430.231	5.26
430.672	5.27
431.113	5.29
431.554	5.29
431.995	5.31
432.436	5.32
432.877	5.34
433.318	5.35
433.759	5.37
434.2	5.4
434.64	5.41
435.081	5.42
435.522	5.44
435.962	5.45
436.403	5.47
436.843	5.49
437.284	5.47
437.724	5.47
438.164	5.46
438.604	5.46
439.045	5.47
439.485	5.48
439.925	5.47
440.365	5.47
440.805	5.46
441.245	5.47
441.685	5.48
442.125	5.51
442.564	5.51
443.004	5.53
443.444	5.54
443.883	5.55
444.323	5.54
444.762	5.56
445.202	5.55
445.641	5.6
446.081	5.61
446.52	5.62
446.959	5.64
447.398	5.66
447.837	5.69
448.276	5.7
448.716	5.72
449.154	5.76
449.593	5.78
450.032	5.79
450.471	5.77
450.91	5.77
451.349	5.79
451.787	5.77
452.226	5.76
452.664	5.76
453.103	5.75
453.541	5.75
453.98	5.74
454.418	5.72
454.856	5.73
455.295	5.73
455.733	5.72
456.171	5.7
456.609	5.71
457.047	5.69
457.485	5.68
457.923	5.69
458.361	5.67
458.798	5.65
459.236	5.64
459.674	5.63
460.111	5.62
460.549	5.62
460.987	5.63
461.424	5.63
461.862	5.63
462.299	5.63
462.736	5.63
463.173	5.64
463.611	5.65
464.048	5.66
464.485	5.68
464.922	5.68
465.359	5.68
465.796	5.7
466.233	5.7
466.67	5.71
467.106	5.72
467.543	5.7
467.98	5.69
468.416	5.67
468.853	5.67
469.29	5.66
469.726	5.65
470.162	5.64
470.599	5.62
471.035	5.61
471.471	5.59
471.907	5.57
472.344	5.58
472.78	5.59
473.216	5.59
473.652	5.58
474.088	5.56
474.523	5.56
474.959	5.56
475.395	5.55
475.831	5.55
476.266	5.56
476.702	5.55
477.138	5.55
477.573	5.54
478.008	5.54
478.444	5.54
478.879	5.56
479.314	5.55
479.75	5.56
480.185	5.54
480.62	5.54
481.055	5.54
481.49	5.54
481.925	5.54
482.36	5.55
482.795	5.54
483.229	5.54
483.664	5.55
484.099	5.54
484.534	5.54
484.968	5.55
485.403	5.55
485.837	5.55
486.271	5.56
486.706	5.56
487.14	5.56
487.574	5.58
488.009	5.59
488.443	5.6
488.877	5.62
489.311	5.64
489.745	5.66
490.179	5.69
490.613	5.72
491.046	5.74
491.48	5.76
491.914	5.8
492.348	5.83
492.781	5.88
493.215	5.92
493.648	5.95
494.082	6
494.515	6.04
494.948	6.08
495.382	6.12
495.815	6.19
496.248	6.25
496.681	6.31
497.114	6.37
497.547	6.43
497.98	6.49
498.413	6.57
498.846	6.64
499.279	6.72
499.711	6.79
500.144	6.88
500.577	6.97
501.009	7.04
501.442	7.14
501.874	7.24
502.306	7.34
502.739	7.47
503.171	7.58
503.603	7.7
504.036	7.82
504.468	7.95
504.9	8.08
505.332	8.2
505.764	8.35
506.196	8.5
506.627	8.65
507.059	8.81
507.491	8.96
507.923	9.13
508.354	9.31
508.786	9.49
509.217	9.69
509.649	9.89
510.08	10.1
510.512	10.31
510.943	10.52
511.374	10.73
511.805	10.96
512.237	11.17
512.668	11.4
513.099	11.61
513.53	11.85
513.961	12.08
514.391	12.32
514.822	12.57
515.253	12.81
515.684	13.06
516.114	13.33
516.545	13.59
516.975	13.85
517.406	14.11
517.836	14.38
518.267	14.66
518.697	14.91
519.127	15.16
519.558	15.41
519.988	15.67
520.418	15.92
520.848	16.15
521.278	16.41
521.708	16.89
522.138	17.13
522.567	17.35
522.997	17.57
523.427	17.79
523.857	18.02
524.286	18.24
524.716	18.45
525.145	18.66
525.575	18.87
526.004	19.05
526.433	18.98
526.863	19.17
527.292	19.35
527.721	19.52
528.15	19.67
528.579	19.81
529.008	19.96
529.437	20.08
529.866	20.22
530.295	20.34
530.724	20.46
531.152	20.59
531.581	20.7
532.01	20.81
532.438	20.91
532.867	21.01
533.295	21.11
533.723	21.2
534.152	21.29
534.58	21.37
535.008	21.43
535.436	21.51
535.865	21.57
536.293	21.62
536.721	21.66
537.149	21.72
537.576	21.75
538.004	21.81
538.432	21.84
538.86	21.87
539.287	21.88
539.715	21.94
540.143	21.96
540.57	21.98
540.998	21.99
541.425	22.02
541.852	22.05
542.28	22.08
542.707	22.1
543.134	22.12
543.561	22.15
543.988	22.18
544.415	22.19
544.842	22.22
545.269	22.26
545.696	22.3
546.123	22.33
546.549	22.35
546.976	22.38
547.403	22.41
547.829	22.43
548.256	22.45
548.682	22.47
549.108	22.5
549.535	22.51
549.961	22.5
550.387	22.51
550.813	22.51
551.24	22.51
551.666	22.5
552.092	22.49
552.518	22.49
552.943	22.49
553.369	22.47
553.795	22.44
554.221	22.42
554.646	22.4
555.072	22.37
555.498	22.32
555.923	22.28
556.349	22.23
556.774	22.17
557.199	22.1
557.625	22.03
558.05	21.96
558.475	21.88
558.9	21.81
559.325	21.74
559.75	21.67
560.175	21.59
560.6	21.51
561.025	21.4
561.449	21.32
561.874	21.21
562.299	21.11
562.723	20.99
563.148	20.88
563.572	20.75
563.997	20.61
564.421	20.47
564.846	20.35
565.27	20.21
565.694	20.09
566.118	19.94
566.542	19.82
566.966	19.67
567.39	19.55
567.814	19.41
568.238	19.26
568.662	19.11
569.086	18.97
569.509	18.84
569.933	18.71
570.357	18.57
570.78	18.43
571.204	18.3
571.627	18.18
572.05	18.05
572.474	17.95
572.897	17.85
573.32	17.74
573.743	17.63
574.166	17.52
574.589	17.4
575.012	17.29
575.435	17.2
575.858	17.1
576.281	16.99
576.704	16.88
577.126	16.78
577.549	16.67
577.972	16.58
578.394	16.5
578.817	16.42
579.239	16.33
579.661	16.26
580.084	16.17
580.506	16.09
580.928	16.02
581.35	15.94
581.772	15.87
582.194	15.8
582.616	15.74
583.038	15.67
583.46	15.58
583.882	15.51
584.303	15.44
584.725	15.37
585.147	15.32
585.568	15.28
585.99	15.23
586.411	15.17
586.833	15.13
587.254	15.06
587.675	15
588.096	14.95
588.518	14.9
588.939	14.87
589.36	14.82
589.781	14.75
590.202	14.72
590.623	14.68
591.043	14.64
591.464	14.61
591.885	14.57
592.305	14.54
592.726	14.52
593.147	14.48
593.567	14.45
593.987	14.41
594.408	14.38
594.828	14.33
595.248	14.3
595.669	14.26
596.089	14.22
596.509	14.2
596.929	14.16
597.349	14.12
597.769	14.09
598.189	14.05
598.608	14.04
599.028	14
599.448	13.97
599.867	13.93
600.287	13.9
600.706	13.88
601.126	13.84
601.545	13.81
601.965	13.78
602.384	13.74
602.803	13.69
603.222	13.64
603.641	13.59
604.061	13.55
604.48	13.49
604.898	13.43
605.317	13.36
605.736	13.3
606.155	13.24
606.574	13.18
606.992	13.11
607.411	13.05
607.829	12.95
608.248	12.87
608.666	12.79
609.085	12.73
609.503	12.66
609.921	12.59
610.339	12.53
610.758	12.47
611.176	12.39
611.594	12.33
612.012	12.26
612.43	12.22
612.847	12.17
613.265	12.09
613.683	12.04
614.101	11.97
614.518	11.91
614.936	11.84
615.353	11.77
615.771	11.71
616.188	11.65
616.606	11.59
617.023	11.53
617.44	11.49
617.857	11.43
618.274	11.38
618.691	11.34
619.108	11.29
619.525	11.25
619.942	11.21
620.359	11.17
620.776	11.12
621.192	11.11
621.609	11.09
622.026	11.06
622.442	11.05
622.859	11.03
623.275	11.01
623.691	11
624.108	10.98
624.524	10.97
624.94	10.95
625.356	10.96
625.772	10.93
626.188	10.91
626.604	10.89
627.02	10.87
627.436	10.86
627.852	10.85
628.268	10.83
628.683	10.81
629.099	10.81
629.514	10.79
629.93	10.78
630.345	10.76
630.761	10.73
631.176	10.72
631.591	10.7
632.007	10.68
632.422	10.65
632.837	10.61
633.252	10.58
633.667	10.53
634.082	10.48
634.497	10.43
634.911	10.38
635.326	10.32
635.741	10.25
636.155	10.17
636.57	10.1
636.984	10.02
637.399	9.94
637.813	9.84
638.228	9.75
638.642	9.65
639.056	9.55
639.47	9.46
639.884	9.36
640.298	9.26
640.712	9.16
641.126	9.06
641.54	8.95
641.954	8.84
642.368	8.75
642.781	8.66
643.195	8.58
643.609	8.5
644.022	8.4
644.436	8.33
644.849	8.24
645.262	8.17
645.676	8.09
646.089	8.03
646.502	7.97
646.915	7.91
647.328	7.86
647.741	7.8
648.154	7.75
648.567	7.7
648.98	7.65
649.393	7.62
649.805	7.58
650.218	7.55
650.631	7.52
651.043	7.47
651.456	7.44
651.868	7.39
652.28	7.36
652.693	7.32
653.105	7.29
653.517	7.24
653.929	7.2
654.341	7.15
654.753	7.1
655.165	7.05
655.577	7.01
655.989	6.95
656.401	6.89
656.813	6.83
657.224	6.77
657.636	6.69
658.047	6.64
658.459	6.57
658.87	6.49
659.282	6.43
659.693	6.36
660.104	6.28
660.515	6.22
660.926	6.16
661.338	6.09
661.749	6.03
662.159	5.97
662.57	5.91
662.981	5.85
663.392	5.8
663.803	5.75
664.213	5.7
664.624	5.67
665.035	5.63
665.445	5.6
665.855	5.57
666.266	5.56
666.676	5.54
667.086	5.51
667.497	5.49
667.907	5.48
668.317	5.46
668.727	5.46
669.137	5.44
669.547	5.44
669.956	5.42
670.366	5.43
670.776	5.42
671.186	5.42
671.595	5.42
672.005	5.43
672.414	5.44
672.824	5.45
673.233	5.46
673.642	5.48
674.052	5.5
674.461	5.51
674.87	5.52
675.279	5.54
675.688	5.57
676.097	5.59
676.506	5.62
676.915	5.64
677.323	5.66
677.732	5.67
678.141	5.7
678.549	5.73
678.958	5.78
679.366	5.83
679.775	5.86
680.183	5.91
680.592	5.98
681	6.04
681.408	6.12
681.816	6.2
682.224	6.29
682.632	6.4
683.04	6.5
683.448	6.6
683.856	6.71
684.264	6.85
684.671	6.98
685.079	7.13
685.487	7.31
685.894	7.5
686.302	7.71
686.709	7.96
687.116	8.2
687.524	8.48
687.931	8.79
688.338	9.12
688.745	9.46
689.152	9.82
689.559	10.22
689.966	10.62
690.373	11.05
690.78	11.49
691.187	11.94
691.593	12.4
692	12.87
692.407	13.35
692.813	13.86
693.22	14.35
693.626	14.86
694.032	15.39
694.439	15.91
694.845	16.45
695.251	16.98
695.657	17.5
696.063	18.04
696.469	18.58
696.875	19.12
697.281	19.64
697.687	20.2
698.093	20.73
698.498	21.23
698.904	21.74
699.31	22.24
699.715	22.75
700.12	23.25
700.526	23.75
700.931	24.23
701.337	24.72
701.742	25.19
702.147	25.65
702.552	26.12
702.957	26.57
703.362	27.02
703.767	27.43
704.172	27.86
704.577	28.28
704.981	28.71
705.386	29.13
705.791	29.52
706.195	29.92
706.6	30.3
707.004	30.67
707.408	31.05
707.813	31.44
708.217	31.84
708.621	32.21
709.025	32.56
709.43	32.92
709.834	33.27
710.237	33.61
710.641	33.95
711.045	34.29
711.449	34.64
711.853	35.01
712.256	35.3
712.66	35.6
713.064	35.89
713.467	36.2
713.87	36.49
714.274	36.74
714.677	37.02
715.08	37.28
715.484	37.57
715.887	37.84
716.29	38.06
716.693	38.33
717.096	38.6
717.499	38.86
717.901	39.1
718.304	39.34
718.707	39.59
719.109	39.84
719.512	40.07
719.915	40.29
720.317	40.46
720.719	40.66
721.122	40.86
721.524	41.04
721.926	41.26
722.328	41.43
722.731	41.61
723.133	41.81
723.535	41.99
723.937	42.16
724.338	42.31
724.74	42.5
725.142	42.81
725.544	42.95
725.945	43.14
726.347	43.26
726.748	43.41
727.15	43.54
727.551	43.68
727.952	43.76
728.354	43.88
728.755	43.99
729.156	44.1
729.557	44.03
729.958	44.13
730.359	44.18
730.76	44.29
731.161	44.38
731.562	44.48
731.962	44.52
732.363	44.65
732.763	44.71
733.164	44.81
733.564	44.89
733.965	44.98
734.365	45.07
734.766	45.15
735.166	45.2
735.566	45.27
735.966	45.34
736.366	45.42
736.766	45.43
737.166	45.52
737.566	45.57
737.966	45.6
738.365	45.66
738.765	45.74
739.165	45.77
739.564	45.85
739.964	45.88
740.363	45.92
740.763	45.97
741.162	46.03
741.561	46.04
741.96	46.05
742.36	46.09
742.759	46.11
743.158	46.09
743.557	46.13
743.955	46.13
744.354	46.15
744.753	46.18
745.152	46.21
745.55	46.24
745.949	46.29
746.348	46.35
746.746	46.34
747.144	46.37
747.543	46.39
747.941	46.42
748.339	46.41
748.737	46.41
749.136	46.43
749.534	46.41
749.932	46.4
750.33	46.4
750.727	46.39
751.125	46.39
751.523	46.38
751.921	46.41
752.318	46.44
752.716	46.46
753.113	46.49
753.511	46.49
753.908	46.52
754.305	46.57
754.703	46.57
755.1	46.59
755.497	46.61
755.894	46.61
756.291	46.6
756.688	46.58
757.085	46.59
757.482	46.59
757.878	46.62
758.275	46.63
758.672	46.59
759.068	46.62
759.465	46.62
759.861	46.61
760.258	46.65
760.654	46.67
761.05	46.69
761.447	46.7
761.843	46.68
762.239	46.67
762.635	46.66
763.031	46.68
763.427	46.66
763.822	46.66
764.218	46.69
764.614	46.68
765.01	46.65
765.405	46.62
765.801	46.61
766.196	46.63
766.592	46.62
766.987	46.6
767.382	46.58
767.778	46.6
768.173	46.59
768.568	46.56
768.963	46.56
769.358	46.59
769.753	46.59
770.148	46.58
770.542	46.56
770.937	46.57
771.332	46.6
771.726	46.59
772.121	46.57
772.515	46.6
772.91	46.59
773.304	46.58
773.699	46.57
774.093	46.56
774.487	46.58
774.881	46.61
775.275	46.6
775.669	46.59
776.063	46.6
776.457	46.59
776.851	46.57
777.245	46.57
777.638	46.58
778.032	46.59
778.425	46.63
778.819	46.62
779.212	46.61
779.606	46.61
779.999	46.58
780.392	46.62
780.786	46.61
781.179	46.62
781.572	46.65
781.965	46.66
782.358	46.67
782.751	46.66
783.143	46.68
783.536	46.68
783.929	46.67
784.322	46.71
784.714	46.7
785.107	46.72
785.499	46.74
785.891	46.73
786.284	46.74
786.676	46.74
787.068	46.76
787.46	46.75
787.852	46.75
788.245	46.74
788.636	46.74
789.028	46.73
789.42	46.71
789.812	46.71
790.204	46.71
790.595	46.7
790.987	46.69
791.378	46.7
791.77	46.69
792.161	46.69
792.553	46.74
792.944	46.72
793.335	46.73
793.726	46.76
794.117	46.74
794.508	46.72
794.899	46.71
795.29	46.7
795.681	46.66
796.072	46.67
796.463	46.71
796.853	46.68
797.244	46.68
797.634	46.67
798.025	46.68
798.415	46.68
798.806	46.71
799.196	46.73
799.586	46.76
799.976	46.78
800.366	46.79
800.756	46.75
801.146	46.79
801.536	46.84
801.926	46.85
802.316	46.87
802.706	46.9
803.095	46.91
803.485	46.91
803.874	46.91
804.264	46.9
804.653	46.9
805.043	46.94
805.432	46.95
805.821	46.93
806.21	46.94
806.599	46.94
806.988	46.95
807.377	46.93
807.766	46.93
808.155	46.95
808.544	46.98
808.933	46.99
809.321	46.97
809.71	46.96
810.098	46.98
810.487	46.97
810.875	46.96
811.264	46.95
811.652	46.99
812.04	46.99
812.428	47.01
812.816	46.99
813.204	46.98
813.592	46.98
813.98	46.98
814.368	46.99
814.756	47.01
815.144	46.99
815.531	47.02
815.919	46.97
816.306	46.99
816.694	46.95
817.081	46.96
817.469	47
817.856	46.99
818.243	46.98
818.63	46.97
819.017	46.95
819.404	46.96
819.791	46.93
820.178	46.94
820.565	46.91
820.952	46.92
821.339	46.91
821.725	46.9
822.112	46.94
822.498	46.96
822.885	46.97
823.271	46.98
823.657	46.97
824.044	47
824.43	47.01
824.816	47.04
825.202	47.05
825.588	47.08
825.974	47.06
826.36	47.07
826.746	47.04
827.132	47.04
827.517	47.03
827.903	47.04
828.289	47.05
828.674	47.04
829.06	47.01
829.445	46.99
829.83	46.99
830.216	46.97
830.601	46.93
830.986	46.94
831.371	46.93
831.756	46.95
832.141	46.96
832.526	46.95
832.911	46.94
833.295	46.95
833.68	46.93
834.065	46.92
834.449	46.93
834.834	46.94
835.218	46.93
835.603	46.96
835.987	46.92
836.371	46.89
836.755	46.86
837.139	46.85
837.524	46.86
837.908	46.88
838.291	46.89
838.675	46.88
839.059	46.9
839.443	46.87
839.827	46.84
840.21	46.85
840.594	46.87
840.977	46.87
841.361	46.87
841.744	46.83
842.127	46.83
842.511	46.8
842.894	46.79
843.277	46.77
843.66	46.76
844.043	46.77
844.426	46.76
844.809	46.75
845.191	46.74
845.574	46.75
845.957	46.8
846.339	46.8
846.722	46.81
847.104	46.83
847.487	46.85
847.869	46.85
848.252	46.84
848.634	46.84
849.016	46.87
849.398	46.88
849.78	46.87
850.162	46.84
850.544	46.84
850.926	46.84
851.307	46.82
851.689	46.81
852.071	46.83
852.452	46.84
852.834	46.85
853.215	46.84
853.597	46.81
853.978	46.81
854.359	46.82
854.741	46.83
855.122	46.82
855.503	46.82
855.884	46.79
856.265	46.8
856.646	46.8
857.026	46.82
857.407	46.82
857.788	46.86
858.169	46.87
858.549	46.88
858.93	46.89
859.31	46.9
859.69	46.92
860.071	46.96
860.451	46.96
860.831	46.97
861.211	46.92
861.591	46.92
861.971	46.92
862.351	46.91
862.731	46.9
863.111	46.88
863.491	46.9
863.87	46.89
864.25	46.87
864.629	46.88
865.009	46.87
865.388	46.89
865.768	46.87
866.147	46.85
866.526	46.84
866.905	46.84
867.284	46.86
867.663	46.85
868.042	46.85
868.421	46.85
868.8	46.84
869.179	46.84
869.558	46.84
869.936	46.85
870.315	46.84
870.693	46.86
871.072	46.88
871.45	46.88
871.828	46.89
872.207	46.89
872.585	46.87
872.963	46.88
873.341	46.87
873.719	46.87
874.097	46.87
874.475	46.9
874.853	46.89
875.23	46.88
875.608	46.85
875.986	46.87
876.363	46.9
876.741	46.91
877.118	46.92
877.495	46.92
877.873	46.92
878.25	46.93
878.627	46.91
879.004	46.91
879.381	46.91
879.758	46.91
880.135	46.89
880.512	46.85
880.889	46.84
881.265	46.83
881.642	46.81
882.019	46.81
882.395	46.79
882.772	46.81
883.148	46.79
883.524	46.78
883.901	46.76
884.277	46.76
884.653	46.73
885.029	46.74
885.405	46.74
885.781	46.75
886.157	46.75
886.532	46.76
886.908	46.72
887.284	46.72
887.659	46.7
888.035	46.7
888.411	46.69
888.786	46.7
889.161	46.69
889.537	46.7
889.912	46.67
890.287	46.65
890.662	46.63
891.037	46.67
891.412	46.67
891.787	46.66
892.162	46.67
892.536	46.66
892.911	46.66
893.286	46.65
893.66	46.63
894.035	46.64
894.409	46.65
894.784	46.66
895.158	46.65
895.532	46.65
895.906	46.67
896.281	46.65
896.655	46.66
897.029	46.68
897.402	46.68
897.776	46.7
898.15	46.69
898.524	46.72
898.898	46.71
899.271	46.72
899.645	46.72
900.018	46.74
900.392	46.77
900.765	46.79
901.138	46.75
901.511	46.74
901.884	46.75
902.258	46.76
902.631	46.74
903.003	46.77
903.376	46.74
903.749	46.75
904.122	46.74
904.495	46.75
904.867	46.76
905.24	46.8
905.612	46.83
905.985	46.79
906.357	46.78
906.729	46.8
907.102	46.77
907.474	46.81
907.846	46.78
908.218	46.78
908.59	46.78
908.962	46.76
909.334	46.76
909.705	46.73
910.077	46.76
910.449	46.8
910.82	46.8
911.192	46.82
911.563	46.82
911.935	46.8
912.306	46.8
912.677	46.79
913.048	46.79
913.419	46.77
913.79	46.79
914.161	46.79
914.532	46.78
914.903	46.79
915.274	46.78
915.645	46.75
916.015	46.77
916.386	46.78
916.756	46.78
917.127	46.78
917.497	46.83
917.868	46.82
918.238	46.8
918.608	46.83
918.978	46.8
919.348	46.81
919.718	46.83
920.088	46.85
920.458	46.87
920.828	46.87
921.198	46.86
921.567	46.82
921.937	46.85
922.306	46.81
922.676	46.79
923.045	46.82
923.415	46.8
923.784	46.79
924.153	46.81
924.522	46.82
924.891	46.81
925.26	46.84
925.629	46.85
925.998	46.81
926.367	46.84
926.736	46.81
927.104	46.8
927.473	46.79
927.842	46.76
928.21	46.78
928.578	46.73
928.947	46.75
929.315	46.71
929.683	46.73
930.051	46.74
930.42	46.75
930.788	46.77
931.156	46.75
931.523	46.77
931.891	46.83
932.259	46.79
932.627	46.79
932.994	46.8
933.362	46.83
933.729	46.84
934.097	46.83
934.464	46.91
934.831	46.89
935.199	46.9
935.566	46.91
935.933	46.83
936.3	46.81
936.667	46.84
937.034	46.86
937.401	46.83
937.767	46.82
938.134	46.85
938.501	46.77
938.867	46.78
939.234	46.83
939.6	46.81
939.967	46.84
940.333	46.86
940.699	46.84
941.065	46.73
941.431	46.69
941.798	46.64
942.163	46.6
942.529	46.56
942.895	46.51
943.261	46.44
943.627	46.39
943.992	46.41
944.358	46.38
944.723	46.37
945.089	46.36
945.454	46.36
945.82	46.33
946.185	46.35
946.55	46.32
946.915	46.32
947.28	46.3
947.645	46.32
948.01	46.33
948.375	46.3
948.74	46.29
949.104	46.37
949.469	46.36
949.834	46.33
950.198	46.32
950.562	46.32
950.927	46.34
951.291	46.25
951.655	46.18
952.02	46.15
952.384	46.13
952.748	46.09
953.112	46.08
953.476	46.05
953.839	45.98
954.203	45.97
954.567	46
954.931	45.93
955.294	45.98
955.658	46.03
956.021	46.04
956.385	46
956.748	45.98
957.111	45.94
957.474	45.99
957.837	46
958.2	45.94
958.563	45.91
958.926	45.9
959.289	45.92
959.652	45.86
960.015	45.82
960.377	45.82
960.74	45.87
961.102	45.84
961.465	45.88
961.827	45.99
962.189	46.02
962.552	45.99
962.914	46.02
963.276	46.06
963.638	46.11
964	46.15
964.362	46.19
964.724	46.11
965.085	46.13
965.447	46.09
965.809	46.01
966.17	45.98
966.532	45.98
966.893	46.01
967.255	45.95
967.616	45.94
967.977	45.92
968.338	45.89
968.699	45.89
969.061	45.88
969.421	45.85
969.782	45.93
970.143	45.92
970.504	45.97
970.865	45.96
971.225	45.97
971.586	45.96
971.946	45.94
972.307	45.9
972.667	45.92
973.027	45.94
973.388	45.95
973.748	45.93
974.108	46.02
974.468	45.98
974.828	46.03
975.188	45.99
975.548	45.99
975.907	46.05
976.267	46.09
976.627	46.17
976.986	46.1
977.346	46.06
977.705	46.01
978.064	45.96
978.424	45.99
978.783	45.9
979.142	45.92
979.501	45.91
979.86	45.89
980.219	45.9
980.578	45.85
980.937	45.92
981.296	45.97
981.654	46
982.013	45.97
982.371	45.97
982.73	46.04
983.088	46.05
983.447	46.05
983.805	46.04
984.163	46.02
984.521	46.02
984.879	45.95
985.237	45.95
985.595	45.99
985.953	45.95
986.311	45.91
986.669	45.86
987.026	45.89
987.384	45.94
987.741	45.86
988.099	45.92
988.456	45.92
988.814	45.98
989.171	45.98
989.528	45.91
989.885	45.98
990.242	46.03
990.599	46.04
990.956	45.96
991.313	45.94
991.67	46.09
992.027	46.26
992.383	46.32
992.74	46.41
993.096	46.33
993.453	46.38
993.809	46.34
994.165	46.36
994.522	46.49
994.878	46.55
995.234	46.62
995.59	46.55
995.946	46.42
996.302	46.4
996.658	46.35
997.013	46.46
997.369	46.48
997.725	46.58
998.08	46.59
998.436	46.47
998.791	46.47
999.147	46.52
999.502	46.6
999.857	46.52
1000.212	46.47
1000.567	46.47
1000.922	46.33
1001.277	46.37
1001.632	46.29
1001.987	46.32
1002.342	46.38
1002.696	46.44
1003.051	46.37
1003.406	46.44
1003.76	46.42
1004.114	46.44
1004.469	46.51
1004.823	46.9
1005.177	46.76
1005.531	46.76
1005.885	46.83
1006.239	46.91
1006.593	47.03
1006.947	47.15
1007.301	46.94
1007.655	46.98
1008.008	47.01
1008.362	47.07
1008.715	46.88
1009.069	46.94
1009.422	47.07
1009.776	46.85
1010.129	46.82
1010.482	46.7
1010.835	46.56
1011.188	46.7
1011.541	46.77
1011.894	46.95
1012.247	46.86
1012.6	46.92
1012.952	46.98
1013.305	46.92
1013.657	47
1014.01	46.96
1014.362	46.99
1014.715	47.15
1015.067	47.09
1015.419	47.14
1015.771	47
1016.123	47.08
1016.475	47.04
1016.827	47.05
1017.179	47.15
1017.531	47.16
1017.883	47.04
1018.234	47.24
1018.586	47.13
1018.938	47.45
1019.289	47.26
1019.64	47.27
1019.992	47.17
1020.343	47.14
1020.694	47.24
1021.045	47.17
1021.396	47.31
1021.747	47.49
1022.098	47.22
1022.449	47.2
1022.8	47.02
1023.151	47.21
1023.501	47.45
1023.852	47.51
1024.202	47.42
1024.553	47.37
1024.903	47.64
1025.253	47.68
1025.604	47.77
1025.954	47.72
1026.304	47.76
1026.654	47.85
1027.004	47.9
1027.354	47.69
1027.703	47.65
1028.053	47.96
1028.403	47.98
1028.753	47.4
1029.102	47.56
1029.452	47.71
1029.801	48.07
1030.15	48.14
1030.499	47.99
897.758	1875.07
901.051	1873.19
904.343	1867.03
907.636	1903.12
910.928	1855.16
914.22	1848.9
917.511	1822.46
920.803	1744.82
924.094	1735.18
927.384	1695.93
930.675	1621.85
933.965	1609.2
937.255	1519.81
940.544	1456.89
943.834	1383.99
947.123	1369.51
950.411	1290.05
953.7	1261.69
956.988	1190.78
960.276	1143.31
963.563	1125.73
966.851	1084.13
970.138	1075.4
973.424	1040.03
976.711	1045.58
979.997	994.36
983.283	990.18
986.568	969.61
989.853	935.45
993.138	922.72
996.423	885.79
999.708	861.09
1002.992	853.75
1006.275	813.44
1009.559	805.21
1012.842	777.96
1016.125	754.44
1019.408	740.34
1022.69	730.22
1025.972	719.04
1029.254	699
1032.536	688.24
1035.817	672.47
1039.098	662.88
1042.379	648.23
1045.659	641.98
1048.939	625.09
1052.219	613.83
1055.498	601.94
1058.778	588.3
1062.057	572.47
1065.335	565.87
1068.614	558.51
1071.892	553.55
1075.17	534.12
1078.447	524.02
1081.724	519.85
1085.001	516.47
1088.278	504.57
1091.554	496
1094.83	495.97
1098.106	493.52
1101.382	489.3
1104.657	485.69
1107.932	477.41
1111.206	480.79
1114.481	469.14
1117.755	463.86
1121.029	459.67
1124.302	460.85
1127.575	450.8
1130.848	445.09
1134.121	440.39
1137.393	438.68
1140.665	429.33
1143.937	427.31
1147.208	421.9
1150.48	422.86
1153.75	417.17
1157.021	410.06
1160.291	409.17
1163.561	405.86
1166.831	405.6
1170.101	402.97
1173.37	400.04
1176.639	401.21
1179.907	396.63
1183.176	394.17
1186.444	393.01
1189.711	392.78
1192.979	392.07
1196.246	388.25
1199.513	389.95
1202.78	387.56
1206.046	387.42
1209.312	383.87
1212.578	384.47
1215.843	388.1
1219.108	384.17
1222.373	392.32
1225.638	395.75
1228.902	402.95
1232.166	403.47
1235.43	406.3
1238.693	411.44
1241.956	413.27
1245.219	421.51
1248.482	419.9
1251.744	419.78
1255.006	422.33
1258.268	411.67
1261.529	406.74
1264.79	401.95
1268.051	401.05
1271.312	396.04
1274.572	390.58
1277.832	386.58
1281.092	379.83
1284.351	377.76
1287.61	377.17
1290.869	371.41
1294.128	368.46
1297.386	368.68
1300.644	365.17
1303.902	365.88
1307.159	364.09
1310.416	365.41
1313.673	365.04
1316.93	368.59
1320.186	368.72
1323.442	370.19
1326.697	377.65
1329.953	378.26
1333.208	380.26
1336.463	384.76
1339.717	385.63
1342.972	389.32
1346.226	391.99
1349.479	392.58
1352.733	395.03
1355.986	396.27
1359.238	396.19
1362.491	398.79
1365.743	403.07
1368.995	402.83
1372.247	400.59
1375.498	400.76
1378.749	406.23
1382	401.04
1385.251	404.09
1388.501	400.58
1391.751	404.4
1395	401.91
1398.25	398.65
1401.499	397.18
1404.748	397.01
1407.996	394.7
1411.244	393.01
1414.492	390.8
1417.74	388.76
1420.987	381.32
1424.234	382.98
1427.481	376.24
1430.728	377.47
1433.974	372.61
1437.22	369.42
1440.465	368.2
1443.711	366.29
1446.956	364.72
1450.201	358.05
1453.445	354.93
1456.689	354.92
1459.933	347.73
1463.177	345.84
1466.42	339.13
1469.663	335.91
1472.906	334.09
1476.148	325.55
1479.391	321.02
1482.633	316.93
1485.874	313.2
1489.115	311.04
1492.356	306.1
1495.597	305.79
1498.838	300.37
1502.078	298.92
1505.318	297.26
1508.557	297.18
1511.797	297.56
1515.036	295.13
1518.274	295.06
1521.513	291.54
1524.751	291.01
1527.989	290.74
1531.227	289.28
1534.464	290.99
1537.701	287.88
1540.938	287.01
1544.174	282.61
1547.41	281.62
1550.646	280.87
1553.882	280.54
1557.117	277.48
1560.352	275.13
1563.587	274.56
1566.821	272.39
1570.055	268.72
1573.289	266.69
1576.523	266.35
1579.756	264.72
1582.989	263
1586.222	262.76
1589.454	260.95
1592.686	262.61
1595.918	261.82
1599.15	260.54
1602.381	260.58
1605.612	260.78
1608.843	262.96
1612.073	262.01
1615.303	263.16
1618.533	263.53
1621.762	262.47
1624.992	262.15
1628.221	262.34
1631.449	262.25
1634.678	261.47
1637.906	263.14
1641.134	262.59
1644.361	261.59
1647.588	263.21
1650.815	262.02
1654.042	259.96
1657.269	262.12
1660.495	262.64
1663.72	259.99
1666.946	261.25
1670.171	261.87
1673.396	260.88
1676.621	261.53
1679.845	261.37
1683.069	261.03
1686.293	262.89
1689.517	265.26
1692.74	264.43
1695.963	265.77
1699.185	270.3
1702.408	269.88
1705.63	270.67
1708.852	272.06
1712.073	272.59
1715.294	273.41
1718.515	274.37
1721.736	274.28
1724.956	274.6
1728.176	274.44
1731.396	276.75
1734.616	275.46
1737.835	276.78
1741.054	274.62
1744.272	275.7
1747.491	278.18
1750.709	279.05
1753.927	279.45
1757.144	278.16
1760.361	280.23
1763.578	280.52
1766.795	279.6
1770.011	281.18
1773.227	281.36
1776.443	285.76
1779.658	287.01
1782.874	285.85
1786.089	286.99
1789.303	288.19
1792.518	291.63
1795.732	290.75
1798.945	294.58
1802.159	294.52
1805.372	296.16
1808.585	301.61
1811.797	302.3
1815.01	302.24
1818.222	305.36
1821.434	306.73
1824.645	308.2
1827.856	313.68
1831.067	317.19
1834.278	314.2
1837.488	317.36
1840.698	319.96
1843.908	316.08
1847.117	318.32
1850.326	320.73
1853.535	319.59
1856.744	325.59
1859.952	324.86
1863.16	324.05
1866.368	321.06
1869.575	328.38
1872.782	322.23
1875.989	320.24
1879.196	319.98
1882.402	318.51
1885.608	320.06
1888.814	321.79
1892.019	320.46
1895.224	319.99
1898.429	317.91
1901.634	320.98
1904.838	319.46
1908.042	324.77
1911.246	326.55
1914.449	328.54
1917.652	327.97
1920.855	327.55
1924.058	326.03
1927.26	325
1930.462	327.06
1933.664	330.93
1936.865	327.5
1940.066	328.59
1943.267	325.59
1946.467	325.47
1949.668	327.58
1952.868	332.3
1956.067	331.7
1959.267	333.11
1962.466	334.22
1965.665	331.68
1968.863	332.01
1972.061	336.5
1975.259	339.41
1978.457	342.73
1981.654	345.23
1984.852	346.46
1988.048	344.74
1991.245	347.98
1994.441	352.62
1997.637	353.99
2000.833	361.74
2004.028	366.78
2007.223	368.87
2010.418	372.08
2013.613	377.65
2016.807	381.82
2020.001	384.16
2023.194	390.27
2026.388	398.91
2029.581	406.75
2032.774	411.73
2035.966	419.2
2039.158	420.25
2042.35	429.79
2045.542	430.92
2048.733	436.99
2051.924	442.6
2055.115	450.2
2058.306	450.47
2061.496	455.9
2064.686	455.34
2067.875	463.04
2071.065	464.07
2074.254	461.54
2077.442	465.72
2080.631	469.76
2083.819	475.29
2087.007	475.2
2090.195	481.54
2093.382	486.15
2096.569	481.61
2099.756	491.01
2102.942	491.46
2106.128	497.72
2109.314	509.73
2112.5	508.48
2115.685	518.88
2118.87	519.63
2122.055	530.21
2125.239	533.47
2128.424	541.28
2131.608	545.1
2134.791	550.99
2137.974	553.74
2141.157	555.29
2144.34	555.42
2147.523	564.05
2150.705	559.13
2153.887	563.36
2157.068	565.53
2160.25	560.3
2163.431	560.13
2166.611	566.32
2169.792	578.64
2172.972	585.6
2176.152	586.95
2179.331	595.78
2182.511	606.68
2185.69	615.85
2188.868	628.39
2192.047	629.68
2195.225	647.34
2198.403	664.7
2201.58	677.31
2204.758	689.22
2207.935	703.23
2211.111	718.38
2214.288	726.16
2217.464	728.17
2220.64	734.74
2223.815	748.76
2226.991	777.37
2230.166	781.33
2233.34	796.5
2236.515	806.94
2239.689	807.73
2242.863	812.52
2246.036	835.97
2249.209	825.08
2252.382	839.09
2255.555	866.98
2258.727	866.8
2261.9	872.7
2265.071	879.73
2268.243	892.34
2271.414	906.26
2274.585	927.91
2277.756	936.68
2280.926	943.51
2284.096	968.17
2287.266	989.59
2290.436	997.48
2293.605	1021.06
2296.774	1055.37
2299.942	1088.87
2303.111	1095.73
2306.279	1122.75
2309.447	1135.01
2312.614	1162.3
2315.781	1194.2
2318.948	1253.9
2322.115	1232.69
2325.281	1296.99
2328.447	1268.49
2331.613	1320.74
2334.779	1304.18
2337.944	1361.95
2341.109	1372.23
2344.274	1408.63
2347.438	1464.35
2350.602	1465.14
2353.766	1505.65
2356.929	1529.24
2360.092	1516.98
2363.255	1635.97
2366.418	1625.43
2369.58	1662.11
2372.742	1756.24
2375.904	1802.58
2379.066	1792.16
2382.227	1756.75
2385.388	1903.02
2388.548	1906.67
2391.709	1933.68
2394.869	2163.29
2398.029	2052.9
2401.188	2114.46
2404.347	2104.1
2407.506	2080.99
2410.665	2139.2
2413.823	2270.04
2416.981	2401.97
2420.139	2321.23
2423.296	2293.29
2426.453	2394.78
2429.61	2297.42
2432.767	2417.07
2435.923	2397.97
2439.079	2602.64
2442.235	2637.13
2445.391	2612.65
2448.546	2595.58
2451.701	2523.11
2454.855	2524.46
2458.009	2682.34
2461.163	2780.83
2464.317	2888.12
2467.471	2964.88
2470.624	2957.79
2473.777	2887.68
2476.929	2817.32
2480.082	2740.81
2483.234	2703.57
2486.385	2834.02
2489.537	2844.46
2492.688	2955.25
2495.839	2872.13
2498.989	2814.05
2502.14	2825.87
2505.29	2864.86
2508.439	2912.47
2511.589	2902.87
2514.738	3155.74
2517.887	3093.86
2521.035	3271.32
2524.183	3289.07
2527.331	3312.82
2530.479	3307.89
2533.627	3325.11
