Data from C_3_HIR_WI_4N_Splice17_14-02-12-991.txt Node
Date: Sat Mar 07 14:02:12 EST 2020
User: sa697716
Spectrometer: NQ5500242
Trigger mode: 0
Integration Time (sec): 1.450000E-1
Scans to average: 20
Nonlinearity correction enabled: false
Boxcar width: 5
Storing dark spectrum: false
XAxis mode: Wavelengths
Number of Pixels in Spectrum: 512
>>>>>Begin Spectral Data<<<<<
187.83	45.22
188.298	68.07
188.766	43.92
189.233	30.42
189.701	26.81
190.169	32.58
190.636	17.34
191.104	21.69
191.571	85.91
192.039	-47.74
192.506	-539.85
192.974	144.92
193.441	325.99
193.908	52.79
194.375	-12.6
194.842	-52.31
195.31	-48.04
195.777	-238.02
196.244	44.55
196.711	54.84
197.177	58.18
197.644	56.7
198.111	56.56
198.578	56.67
199.045	57.53
199.511	57.75
199.978	57.84
200.445	57.91
200.911	58.11
201.378	58.05
201.844	57.76
202.31	57.31
202.777	57.61
203.243	57.56
203.709	57.29
204.176	56.84
204.642	56.65
205.108	56.48
205.574	55.93
206.04	55.23
206.506	54.75
206.972	54.83
207.438	54.23
207.903	53.36
208.369	52.41
208.835	51.35
209.301	50.23
209.766	48.68
210.232	47.36
210.697	46.11
211.163	44.92
211.628	43.82
212.094	42.5
212.559	41.63
213.024	40.65
213.49	39.55
213.955	38.54
214.42	37.78
214.885	36.85
215.35	35.46
215.815	33.73
216.28	31.47
216.745	28.83
217.21	26.39
217.675	24
218.14	21.94
218.604	20.2
219.069	18.68
219.534	17.35
219.998	16.22
220.463	15.35
220.927	14.52
221.392	13.91
221.856	13.43
222.32	12.97
222.785	12.58
223.249	12.23
223.713	11.91
224.177	11.63
224.642	11.35
225.106	11.08
225.57	10.83
226.034	10.64
226.497	10.45
226.961	10.27
227.425	10.08
227.889	9.91
228.353	9.73
228.816	9.57
229.28	9.43
229.744	9.3
230.207	9.16
230.671	9.02
231.134	8.9
231.597	8.76
232.061	8.63
232.524	8.51
232.987	8.4
233.45	8.31
233.914	8.21
234.377	8.09
234.84	7.98
235.303	7.91
235.766	7.83
236.229	7.74
236.691	7.66
237.154	7.58
237.617	7.52
238.08	7.44
238.542	7.36
239.005	7.29
239.468	7.23
239.93	7.17
240.393	7.1
240.855	7.02
241.317	6.95
241.78	6.89
242.242	6.81
242.704	6.75
243.166	6.69
243.629	6.64
244.091	6.57
244.553	6.51
245.015	6.45
245.477	6.39
245.939	6.33
246.4	6.27
246.862	6.22
247.324	6.18
247.786	6.13
248.247	6.07
248.709	6
249.17	5.96
249.632	5.93
250.093	5.9
250.555	5.86
251.016	5.83
251.477	5.78
251.939	5.75
252.4	5.72
252.861	5.68
253.322	5.65
253.783	5.63
254.244	5.6
254.705	5.56
255.166	5.53
255.627	5.49
256.088	5.46
256.549	5.43
257.009	5.39
257.47	5.36
257.931	5.33
258.391	5.28
258.852	5.24
259.312	5.21
259.773	5.18
260.233	5.15
260.694	5.11
261.154	5.08
261.614	5.06
262.074	5.02
262.534	4.98
262.994	4.95
263.455	4.93
263.915	4.91
264.374	4.88
264.834	4.86
265.294	4.83
265.754	4.82
266.214	4.8
266.673	4.78
267.133	4.76
267.593	4.76
268.052	4.74
268.512	4.74
268.971	4.72
269.431	4.71
269.89	4.7
270.349	4.69
270.809	4.67
271.268	4.66
271.727	4.65
272.186	4.64
272.645	4.62
273.104	4.61
273.563	4.6
274.022	4.59
274.481	4.58
274.94	4.57
275.399	4.55
275.857	4.54
276.316	4.53
276.775	4.53
277.233	4.52
277.692	4.51
278.15	4.5
278.609	4.5
279.067	4.49
279.525	4.49
279.984	4.48
280.442	4.47
280.9	4.47
281.358	4.46
281.816	4.46
282.274	4.45
282.732	4.44
283.19	4.44
283.648	4.43
284.106	4.42
284.564	4.41
285.021	4.42
285.479	4.42
285.937	4.42
286.394	4.41
286.852	4.4
287.309	4.39
287.767	4.38
288.224	4.36
288.682	4.35
289.139	4.33
289.596	4.31
290.053	4.28
290.511	4.26
290.968	4.24
291.425	4.22
291.882	4.2
292.339	4.18
292.796	4.17
293.252	4.15
293.709	4.14
294.166	4.13
294.623	4.13
295.079	4.11
295.536	4.11
295.992	4.09
296.449	4.08
296.905	4.08
297.362	4.07
297.818	4.05
298.274	4.04
298.731	4.03
299.187	4.02
299.643	4
300.099	4
300.555	3.98
301.011	3.97
301.467	3.96
301.923	3.95
302.379	3.94
302.835	3.94
303.291	3.94
303.746	3.93
304.202	3.93
304.658	3.93
305.113	3.92
305.569	3.92
306.024	3.92
306.479	3.92
306.935	3.91
307.39	3.91
307.845	3.9
308.301	3.9
308.756	3.9
309.211	3.89
309.666	3.9
310.121	3.9
310.576	3.9
311.031	3.9
311.486	3.9
311.94	3.9
312.395	3.9
312.85	3.9
313.305	3.9
313.759	3.9
314.214	3.9
314.668	3.88
315.123	3.88
315.577	3.87
316.032	3.86
316.486	3.85
316.94	3.85
317.394	3.84
317.849	3.82
318.303	3.81
318.757	3.8
319.211	3.79
319.665	3.77
320.119	3.76
320.572	3.75
321.026	3.74
321.48	3.73
321.934	3.71
322.387	3.69
322.841	3.69
323.295	3.68
323.748	3.67
324.202	3.66
324.655	3.66
325.108	3.65
325.562	3.65
326.015	3.65
326.468	3.64
326.921	3.65
327.374	3.64
327.827	3.64
328.28	3.63
328.733	3.62
329.186	3.62
329.639	3.61
330.092	3.61
330.545	3.62
330.997	3.61
331.45	3.61
331.903	3.61
332.355	3.62
332.808	3.63
333.26	3.63
333.713	3.63
334.165	3.63
334.617	3.65
335.069	3.65
335.522	3.66
335.974	3.66
336.426	3.67
336.878	3.66
337.33	3.66
337.782	3.65
338.234	3.66
338.686	3.67
339.137	3.68
339.589	3.67
340.041	3.66
340.493	3.65
340.944	3.63
341.396	3.62
341.847	3.62
342.299	3.6
342.75	3.6
343.201	3.57
343.653	3.56
344.104	3.53
344.555	3.52
345.006	3.5
345.457	3.5
345.908	3.49
346.359	3.49
346.81	3.48
347.261	3.48
347.712	3.47
348.163	3.48
348.613	3.48
349.064	3.48
349.515	3.48
349.965	3.47
350.416	3.47
350.866	3.47
351.317	3.47
351.767	3.47
352.217	3.47
352.668	3.47
353.118	3.47
353.568	3.46
354.018	3.47
354.468	3.48
354.918	3.48
355.368	3.48
355.818	3.49
356.268	3.48
356.718	3.48
357.168	3.47
357.617	3.47
358.067	3.48
358.517	3.49
358.966	3.5
359.416	3.51
359.865	3.51
360.315	3.52
360.764	3.53
361.213	3.54
361.663	3.54
362.112	3.56
362.561	3.57
363.01	3.58
363.459	3.57
363.908	3.56
364.357	3.56
364.806	3.57
365.255	3.57
365.703	3.59
366.152	3.6
366.601	3.61
367.05	3.62
367.498	3.62
367.947	3.64
368.395	3.66
368.844	3.69
369.292	3.71
369.74	3.73
370.189	3.75
370.637	3.76
371.085	3.77
371.533	3.79
371.981	3.81
372.429	3.84
372.877	3.85
373.325	3.87
373.773	3.89
374.221	3.91
374.669	3.92
375.116	3.94
375.564	3.96
376.012	3.98
376.459	4.02
376.907	4.05
377.354	4.08
377.801	4.11
378.249	4.15
378.696	4.17
379.143	4.2
379.591	4.23
380.038	4.27
380.485	4.3
380.932	4.33
381.379	4.37
381.826	4.39
382.273	4.42
382.72	4.45
383.166	4.48
383.613	4.51
384.06	4.53
384.506	4.57
384.953	4.6
385.4	4.64
385.846	4.68
386.292	4.7
386.739	4.73
387.185	4.77
387.631	4.8
388.078	4.83
388.524	4.87
388.97	4.91
389.416	4.94
389.862	4.98
390.308	5.01
390.754	5.05
391.2	5.09
391.645	5.12
392.091	5.16
392.537	5.21
392.983	5.24
393.428	5.29
393.874	5.31
394.319	5.35
394.765	5.37
395.21	5.38
395.655	5.41
396.101	5.44
396.546	5.46
396.991	5.49
397.436	5.5
397.881	5.54
398.326	5.57
398.771	5.6
399.216	5.62
399.661	5.65
400.106	5.68
400.551	5.69
400.995	5.69
401.44	5.71
401.885	5.71
402.329	5.72
402.774	5.71
403.218	5.73
403.663	5.75
404.107	5.77
404.551	5.77
404.995	5.77
405.44	5.78
405.884	5.78
406.328	5.79
406.772	5.79
407.216	5.79
407.66	5.79
408.104	5.78
408.547	5.78
408.991	5.77
409.435	5.77
409.879	5.77
410.322	5.8
410.766	5.81
411.209	5.82
411.653	5.85
412.096	5.85
412.54	5.86
412.983	5.86
413.426	5.89
413.869	5.91
414.312	5.94
414.756	5.96
415.199	5.94
415.642	5.95
416.085	5.96
416.527	5.96
416.97	5.96
417.413	5.96
417.856	5.96
418.298	5.94
418.741	5.93
419.184	5.92
419.626	5.92
420.069	5.93
420.511	5.93
420.953	5.93
421.396	5.92
421.838	5.93
422.28	5.94
422.722	5.97
423.164	5.96
423.606	5.98
424.048	5.98
424.49	5.98
424.932	5.97
425.374	5.95
425.816	5.93
426.258	5.91
426.699	5.89
427.141	5.87
427.582	5.86
428.024	5.86
428.465	5.85
428.907	5.84
429.348	5.83
429.789	5.82
430.231	5.84
430.672	5.87
431.113	5.89
431.554	5.9
431.995	5.92
432.436	5.92
432.877	5.94
433.318	5.96
433.759	5.98
434.2	6.01
434.64	6.03
435.081	6.03
435.522	6.04
435.962	6.07
436.403	6.09
436.843	6.12
437.284	6.14
437.724	6.14
438.164	6.15
438.604	6.16
439.045	6.18
439.485	6.19
439.925	6.2
440.365	6.21
440.805	6.22
441.245	6.24
441.685	6.27
442.125	6.29
442.564	6.31
443.004	6.33
443.444	6.35
443.883	6.37
444.323	6.37
444.762	6.4
445.202	6.42
445.641	6.46
446.081	6.48
446.52	6.49
446.959	6.52
447.398	6.55
447.837	6.59
448.276	6.6
448.716	6.63
449.154	6.68
449.593	6.72
450.032	6.73
450.471	6.72
450.91	6.72
451.349	6.76
451.787	6.77
452.226	6.78
452.664	6.79
453.103	6.79
453.541	6.8
453.98	6.8
454.418	6.79
454.856	6.79
455.295	6.79
455.733	6.77
456.171	6.75
456.609	6.74
457.047	6.72
457.485	6.71
457.923	6.7
458.361	6.68
458.798	6.67
459.236	6.67
459.674	6.67
460.111	6.68
460.549	6.69
460.987	6.7
461.424	6.69
461.862	6.7
462.299	6.71
462.736	6.7
463.173	6.71
463.611	6.71
464.048	6.71
464.485	6.71
464.922	6.71
465.359	6.71
465.796	6.72
466.233	6.72
466.67	6.73
467.106	6.74
467.543	6.75
467.98	6.73
468.416	6.74
468.853	6.75
469.29	6.74
469.726	6.74
470.162	6.74
470.599	6.73
471.035	6.73
471.471	6.73
471.907	6.72
472.344	6.73
472.78	6.74
473.216	6.72
473.652	6.73
474.088	6.72
474.523	6.73
474.959	6.73
475.395	6.72
475.831	6.73
476.266	6.72
476.702	6.72
477.138	6.72
477.573	6.72
478.008	6.73
478.444	6.73
478.879	6.74
479.314	6.73
479.75	6.73
480.185	6.73
480.62	6.72
481.055	6.73
481.49	6.72
481.925	6.73
482.36	6.73
482.795	6.73
483.229	6.73
483.664	6.74
484.099	6.75
484.534	6.75
484.968	6.76
485.403	6.77
485.837	6.79
486.271	6.82
486.706	6.84
487.14	6.86
487.574	6.89
488.009	6.92
488.443	6.95
488.877	6.99
489.311	7.03
489.745	7.08
490.179	7.14
490.613	7.19
491.046	7.25
491.48	7.3
491.914	7.36
492.348	7.42
492.781	7.48
493.215	7.56
493.648	7.63
494.082	7.69
494.515	7.76
494.948	7.84
495.382	7.92
495.815	8
496.248	8.1
496.681	8.2
497.114	8.29
497.547	8.39
497.98	8.5
498.413	8.62
498.846	8.74
499.279	8.87
499.711	8.99
500.144	9.13
500.577	9.27
501.009	9.4
501.442	9.55
501.874	9.71
502.306	9.88
502.739	10.05
503.171	10.22
503.603	10.39
504.036	10.58
504.468	10.78
504.9	10.97
505.332	11.16
505.764	11.39
506.196	11.6
506.627	11.82
507.059	12.05
507.491	12.29
507.923	12.53
508.354	12.8
508.786	13.07
509.217	13.32
509.649	13.59
510.08	13.87
510.512	14.15
510.943	14.44
511.374	14.74
511.805	15.02
512.237	15.31
512.668	15.61
513.099	15.89
513.53	16.18
513.961	16.49
514.391	16.8
514.822	17.13
515.253	17.42
515.684	17.73
516.114	18.04
516.545	18.34
516.975	18.67
517.406	18.99
517.836	19.31
518.267	19.63
518.697	19.94
519.127	20.24
519.558	20.55
519.988	20.86
520.418	21.15
520.848	21.44
521.278	21.73
521.708	22.15
522.138	22.43
522.567	22.71
522.997	22.97
523.427	23.24
523.857	23.49
524.286	23.7
524.716	23.94
525.145	24.17
525.575	24.41
526.004	24.63
526.433	24.7
526.863	24.88
527.292	25.07
527.721	25.25
528.15	25.42
528.579	25.58
529.008	25.77
529.437	25.92
529.866	26.06
530.295	26.21
530.724	26.32
531.152	26.43
531.581	26.57
532.01	26.68
532.438	26.8
532.867	26.91
533.295	27
533.723	27.09
534.152	27.17
534.58	27.26
535.008	27.32
535.436	27.4
535.865	27.47
536.293	27.51
536.721	27.57
537.149	27.61
537.576	27.65
538.004	27.72
538.432	27.75
538.86	27.79
539.287	27.82
539.715	27.86
540.143	27.89
540.57	27.92
540.998	27.95
541.425	27.97
541.852	28.02
542.28	28.06
542.707	28.08
543.134	28.1
543.561	28.14
543.988	28.18
544.415	28.18
544.842	28.21
545.269	28.25
545.696	28.29
546.123	28.32
546.549	28.34
546.976	28.36
547.403	28.38
547.829	28.41
548.256	28.45
548.682	28.46
549.108	28.5
549.535	28.54
549.961	28.54
550.387	28.55
550.813	28.59
551.24	28.61
551.666	28.63
552.092	28.64
552.518	28.64
552.943	28.63
553.369	28.63
553.795	28.61
554.221	28.56
554.646	28.53
555.072	28.49
555.498	28.42
555.923	28.38
556.349	28.3
556.774	28.24
557.199	28.17
557.625	28.11
558.05	28.04
558.475	27.97
558.9	27.91
559.325	27.85
559.75	27.78
560.175	27.71
560.6	27.62
561.025	27.54
561.449	27.45
561.874	27.36
562.299	27.24
562.723	27.12
563.148	27
563.572	26.86
563.997	26.72
564.421	26.58
564.846	26.43
565.27	26.29
565.694	26.15
566.118	26
566.542	25.84
566.966	25.7
567.39	25.54
567.814	25.39
568.238	25.23
568.662	25.08
569.086	24.92
569.509	24.78
569.933	24.62
570.357	24.45
570.78	24.3
571.204	24.14
571.627	24
572.05	23.85
572.474	23.73
572.897	23.6
573.32	23.47
573.743	23.33
574.166	23.21
574.589	23.08
575.012	22.97
575.435	22.84
575.858	22.73
576.281	22.61
576.704	22.5
577.126	22.38
577.549	22.28
577.972	22.17
578.394	22.07
578.817	21.97
579.239	21.87
579.661	21.78
580.084	21.69
580.506	21.61
580.928	21.52
581.35	21.44
581.772	21.35
582.194	21.26
582.616	21.19
583.038	21.12
583.46	21.04
583.882	20.97
584.303	20.89
584.725	20.85
585.147	20.78
585.568	20.71
585.99	20.63
586.411	20.57
586.833	20.49
587.254	20.42
587.675	20.35
588.096	20.29
588.518	20.24
588.939	20.19
589.36	20.11
589.781	20.06
590.202	20.01
590.623	19.98
591.043	19.93
591.464	19.92
591.885	19.88
592.305	19.85
592.726	19.81
593.147	19.75
593.567	19.72
593.987	19.68
594.408	19.65
594.828	19.62
595.248	19.58
595.669	19.55
596.089	19.52
596.509	19.48
596.929	19.45
597.349	19.41
597.769	19.39
598.189	19.36
598.608	19.34
599.028	19.3
599.448	19.26
599.867	19.22
600.287	19.18
600.706	19.13
601.126	19.08
601.545	19.05
601.965	19.01
602.384	18.95
602.803	18.88
603.222	18.81
603.641	18.74
604.061	18.7
604.48	18.62
604.898	18.55
605.317	18.48
605.736	18.41
606.155	18.33
606.574	18.25
606.992	18.18
607.411	18.1
607.829	18
608.248	17.9
608.666	17.8
609.085	17.73
609.503	17.65
609.921	17.56
610.339	17.48
610.758	17.39
611.176	17.29
611.594	17.21
612.012	17.13
612.43	17.06
612.847	16.99
613.265	16.91
613.683	16.83
614.101	16.75
614.518	16.67
614.936	16.59
615.353	16.5
615.771	16.44
616.188	16.37
616.606	16.31
617.023	16.25
617.44	16.2
617.857	16.15
618.274	16.08
618.691	16.02
619.108	15.97
619.525	15.92
619.942	15.88
620.359	15.83
620.776	15.79
621.192	15.76
621.609	15.72
622.026	15.68
622.442	15.65
622.859	15.62
623.275	15.6
623.691	15.57
624.108	15.55
624.524	15.53
624.94	15.52
625.356	15.51
625.772	15.48
626.188	15.47
626.604	15.45
627.02	15.44
627.436	15.43
627.852	15.41
628.268	15.41
628.683	15.39
629.099	15.38
629.514	15.35
629.93	15.33
630.345	15.3
630.761	15.26
631.176	15.22
631.591	15.17
632.007	15.12
632.422	15.07
632.837	15.01
633.252	14.94
633.667	14.86
634.082	14.77
634.497	14.7
634.911	14.62
635.326	14.54
635.741	14.44
636.155	14.33
636.57	14.24
636.984	14.13
637.399	14.01
637.813	13.91
638.228	13.79
638.642	13.66
639.056	13.52
639.47	13.39
639.884	13.27
640.298	13.13
640.712	13.01
641.126	12.88
641.54	12.74
641.954	12.61
642.368	12.48
642.781	12.35
643.195	12.23
643.609	12.11
644.022	11.99
644.436	11.87
644.849	11.75
645.262	11.64
645.676	11.53
646.089	11.43
646.502	11.33
646.915	11.26
647.328	11.17
647.741	11.09
648.154	11.03
648.567	10.97
648.98	10.91
649.393	10.86
649.805	10.81
650.218	10.76
650.631	10.71
651.043	10.66
651.456	10.61
651.868	10.57
652.28	10.51
652.693	10.45
653.105	10.39
653.517	10.33
653.929	10.27
654.341	10.2
654.753	10.12
655.165	10.05
655.577	9.96
655.989	9.88
656.401	9.78
656.813	9.71
657.224	9.61
657.636	9.5
658.047	9.41
658.459	9.3
658.87	9.19
659.282	9.09
659.693	8.98
660.104	8.87
660.515	8.76
660.926	8.66
661.338	8.55
661.749	8.46
662.159	8.37
662.57	8.27
662.981	8.19
663.392	8.11
663.803	8.03
664.213	7.95
664.624	7.88
665.035	7.81
665.445	7.75
665.855	7.69
666.266	7.63
666.676	7.58
667.086	7.53
667.497	7.48
667.907	7.43
668.317	7.39
668.727	7.36
669.137	7.34
669.547	7.31
669.956	7.29
670.366	7.27
670.776	7.25
671.186	7.24
671.595	7.22
672.005	7.21
672.414	7.22
672.824	7.22
673.233	7.24
673.642	7.25
674.052	7.26
674.461	7.28
674.87	7.29
675.279	7.33
675.688	7.36
676.097	7.4
676.506	7.43
676.915	7.47
677.323	7.51
677.732	7.54
678.141	7.59
678.549	7.64
678.958	7.71
679.366	7.79
679.775	7.85
680.183	7.94
680.592	8.04
681	8.17
681.408	8.28
681.816	8.42
682.224	8.57
682.632	8.74
683.04	8.93
683.448	9.12
683.856	9.32
684.264	9.57
684.671	9.83
685.079	10.11
685.487	10.42
685.894	10.76
686.302	11.13
686.709	11.51
687.116	11.91
687.524	12.34
687.931	12.82
688.338	13.3
688.745	13.8
689.152	14.31
689.559	14.87
689.966	15.43
690.373	15.98
690.78	16.57
691.187	17.15
691.593	17.75
692	18.36
692.407	18.95
692.813	19.58
693.22	20.19
693.626	20.8
694.032	21.4
694.439	22.02
694.845	22.64
695.251	23.24
695.657	23.84
696.063	24.44
696.469	25.02
696.875	25.61
697.281	26.18
697.687	26.76
698.093	27.32
698.498	27.87
698.904	28.4
699.31	28.93
699.715	29.45
700.12	29.95
700.526	30.44
700.931	30.92
701.337	31.39
701.742	31.84
702.147	32.28
702.552	32.73
702.957	33.13
703.362	33.54
703.767	33.94
704.172	34.33
704.577	34.73
704.981	35.11
705.386	35.51
705.791	35.88
706.195	36.26
706.6	36.63
707.004	36.96
707.408	37.32
707.813	37.69
708.217	38.02
708.621	38.37
709.025	38.66
709.43	38.98
709.834	39.29
710.237	39.6
710.641	39.88
711.045	40.17
711.449	40.47
711.853	40.78
712.256	41.04
712.66	41.32
713.064	41.57
713.467	41.84
713.87	42.09
714.274	42.32
714.677	42.58
715.08	42.83
715.484	43.08
715.887	43.33
716.29	43.55
716.693	43.76
717.096	43.99
717.499	44.21
717.901	44.43
718.304	44.65
718.707	44.88
719.109	45.07
719.512	45.27
719.915	45.45
720.317	45.59
720.719	45.75
721.122	45.94
721.524	46.08
721.926	46.25
722.328	46.43
722.731	46.57
723.133	46.71
723.535	46.84
723.937	46.99
724.338	47.12
724.74	47.28
725.142	47.49
725.544	47.6
725.945	47.77
726.347	47.85
726.748	47.94
727.15	48.04
727.551	48.16
727.952	48.29
728.354	48.39
728.755	48.5
729.156	48.62
729.557	48.63
729.958	48.72
730.359	48.78
730.76	48.88
731.161	48.97
731.562	49.08
731.962	49.1
732.363	49.17
732.763	49.24
733.164	49.31
733.564	49.37
733.965	49.43
734.365	49.5
734.766	49.55
735.166	49.62
735.566	49.68
735.966	49.72
736.366	49.79
736.766	49.81
737.166	49.85
737.566	49.88
737.966	49.88
738.365	49.92
738.765	49.97
739.165	50.02
739.564	50.04
739.964	50.07
740.363	50.07
740.763	50.13
741.162	50.18
741.561	50.19
741.96	50.21
742.36	50.23
742.759	50.26
743.158	50.26
743.557	50.25
743.955	50.29
744.354	50.31
744.753	50.38
745.152	50.4
745.55	50.46
745.949	50.51
746.348	50.56
746.746	50.58
747.144	50.61
747.543	50.64
747.941	50.68
748.339	50.69
748.737	50.7
749.136	50.73
749.534	50.71
749.932	50.71
750.33	50.71
750.727	50.71
751.125	50.76
751.523	50.74
751.921	50.73
752.318	50.76
752.716	50.76
753.113	50.77
753.511	50.73
753.908	50.77
754.305	50.75
754.703	50.75
755.1	50.74
755.497	50.7
755.894	50.71
756.291	50.71
756.688	50.66
757.085	50.67
757.482	50.66
757.878	50.66
758.275	50.63
758.672	50.62
759.068	50.6
759.465	50.6
759.861	50.62
760.258	50.62
760.654	50.64
761.05	50.63
761.447	50.65
761.843	50.64
762.239	50.62
762.635	50.62
763.031	50.63
763.427	50.62
763.822	50.62
764.218	50.63
764.614	50.64
765.01	50.62
765.405	50.63
765.801	50.6
766.196	50.6
766.592	50.62
766.987	50.63
767.382	50.6
767.778	50.64
768.173	50.62
768.568	50.6
768.963	50.59
769.358	50.6
769.753	50.61
770.148	50.61
770.542	50.63
770.937	50.62
771.332	50.6
771.726	50.64
772.121	50.64
772.515	50.67
772.91	50.68
773.304	50.67
773.699	50.68
774.093	50.67
774.487	50.68
774.881	50.68
775.275	50.68
775.669	50.66
776.063	50.62
776.457	50.61
776.851	50.59
777.245	50.57
777.638	50.55
778.032	50.55
778.425	50.59
778.819	50.6
779.212	50.62
779.606	50.66
779.999	50.7
780.392	50.76
780.786	50.75
781.179	50.77
781.572	50.79
781.965	50.84
782.358	50.85
782.751	50.82
783.143	50.81
783.536	50.8
783.929	50.77
784.322	50.79
784.714	50.78
785.107	50.79
785.499	50.79
785.891	50.8
786.284	50.79
786.676	50.8
787.068	50.83
787.46	50.84
787.852	50.86
788.245	50.87
788.636	50.86
789.028	50.86
789.42	50.86
789.812	50.87
790.204	50.89
790.595	50.89
790.987	50.88
791.378	50.89
791.77	50.88
792.161	50.87
792.553	50.89
792.944	50.88
793.335	50.91
793.726	50.94
794.117	50.93
794.508	50.89
794.899	50.91
795.29	50.91
795.681	50.89
796.072	50.91
796.463	50.93
796.853	50.94
797.244	50.98
797.634	50.97
798.025	51.01
798.415	51.04
798.806	51.07
799.196	51.09
799.586	51.12
799.976	51.15
800.366	51.16
800.756	51.17
801.146	51.15
801.536	51.14
801.926	51.15
802.316	51.12
802.706	51.11
803.095	51.11
803.485	51.1
803.874	51.1
804.264	51.12
804.653	51.14
805.043	51.14
805.432	51.17
805.821	51.17
806.21	51.2
806.599	51.19
806.988	51.23
807.377	51.24
807.766	51.27
808.155	51.27
808.544	51.26
808.933	51.25
809.321	51.24
809.71	51.26
810.098	51.26
810.487	51.24
810.875	51.28
811.264	51.26
811.652	51.28
812.04	51.27
812.428	51.31
812.816	51.32
813.204	51.33
813.592	51.37
813.98	51.39
814.368	51.44
814.756	51.45
815.144	51.43
815.531	51.43
815.919	51.43
816.306	51.44
816.694	51.4
817.081	51.41
817.469	51.44
817.856	51.43
818.243	51.41
818.63	51.37
819.017	51.36
819.404	51.38
819.791	51.38
820.178	51.37
820.565	51.35
820.952	51.38
821.339	51.36
821.725	51.35
822.112	51.37
822.498	51.4
822.885	51.42
823.271	51.43
823.657	51.43
824.044	51.46
824.43	51.49
824.816	51.49
825.202	51.47
825.588	51.48
825.974	51.46
826.36	51.44
826.746	51.42
827.132	51.4
827.517	51.41
827.903	51.39
828.289	51.39
828.674	51.37
829.06	51.35
829.445	51.33
829.83	51.35
830.216	51.36
830.601	51.36
830.986	51.35
831.371	51.32
831.756	51.31
832.141	51.3
832.526	51.28
832.911	51.26
833.295	51.27
833.68	51.29
834.065	51.27
834.449	51.25
834.834	51.23
835.218	51.21
835.603	51.21
835.987	51.19
836.371	51.19
836.755	51.16
837.139	51.14
837.524	51.13
837.908	51.13
838.291	51.15
838.675	51.15
839.059	51.15
839.443	51.14
839.827	51.13
840.21	51.13
840.594	51.13
840.977	51.12
841.361	51.14
841.744	51.11
842.127	51.09
842.511	51.05
842.894	51.01
843.277	50.99
843.66	50.96
844.043	50.99
844.426	50.98
844.809	50.98
845.191	51
845.574	51
845.957	51.02
846.339	51.03
846.722	51.04
847.104	51.07
847.487	51.07
847.869	51.09
848.252	51.06
848.634	51.04
849.016	51.04
849.398	51.03
849.78	51.02
850.162	51.01
850.544	50.99
850.926	51
851.307	50.98
851.689	51
852.071	50.99
852.452	51
852.834	51.02
853.215	51.02
853.597	51.03
853.978	51.03
854.359	51.06
854.741	51.07
855.122	51.05
855.503	51.06
855.884	51.04
856.265	51.05
856.646	51.05
857.026	51.06
857.407	51.08
857.788	51.06
858.169	51.06
858.549	51.04
858.93	51.04
859.31	51.06
859.69	51.08
860.071	51.13
860.451	51.12
860.831	51.13
861.211	51.13
861.591	51.12
861.971	51.12
862.351	51.15
862.731	51.16
863.111	51.16
863.491	51.17
863.87	51.15
864.25	51.12
864.629	51.15
865.009	51.15
865.388	51.14
865.768	51.14
866.147	51.16
866.526	51.14
866.905	51.13
867.284	51.13
867.663	51.1
868.042	51.14
868.421	51.17
868.8	51.17
869.179	51.18
869.558	51.16
869.936	51.17
870.315	51.16
870.693	51.16
871.072	51.18
871.45	51.21
871.828	51.26
872.207	51.26
872.585	51.24
872.963	51.22
873.341	51.21
873.719	51.24
874.097	51.23
874.475	51.26
874.853	51.27
875.23	51.29
875.608	51.28
875.986	51.3
876.363	51.27
876.741	51.27
877.118	51.29
877.495	51.29
877.873	51.31
878.25	51.32
878.627	51.31
879.004	51.31
879.381	51.31
879.758	51.29
880.135	51.26
880.512	51.26
880.889	51.26
881.265	51.26
881.642	51.24
882.019	51.22
882.395	51.2
882.772	51.18
883.148	51.15
883.524	51.13
883.901	51.14
884.277	51.11
884.653	51.07
885.029	51.04
885.405	51.03
885.781	51.02
886.157	50.99
886.532	51
886.908	50.98
887.284	50.98
887.659	50.96
888.035	50.92
888.411	50.92
888.786	50.94
889.161	50.95
889.537	50.96
889.912	50.95
890.287	50.95
890.662	50.93
891.037	50.96
891.412	50.93
891.787	50.91
892.162	50.91
892.536	50.92
892.911	50.89
893.286	50.89
893.66	50.85
894.035	50.84
894.409	50.82
894.784	50.82
895.158	50.79
895.532	50.81
895.906	50.81
896.281	50.79
896.655	50.79
897.029	50.78
897.402	50.76
897.776	50.78
898.15	50.8
898.524	50.85
898.898	50.85
899.271	50.86
899.645	50.87
900.018	50.91
900.392	50.96
900.765	50.97
901.138	50.99
901.511	51.02
901.884	51.04
902.258	51.04
902.631	51
903.003	51
903.376	51.02
903.749	51.01
904.122	51.02
904.495	51.01
904.867	51.01
905.24	51
905.612	51.03
905.985	50.99
906.357	51
906.729	51.02
907.102	51.04
907.474	51.02
907.846	51.04
908.218	51.04
908.59	51.06
908.962	51.08
909.334	51.11
909.705	51.07
910.077	51.09
910.449	51.1
910.82	51.11
911.192	51.1
911.563	51.11
911.935	51.09
912.306	51.11
912.677	51.12
913.048	51.12
913.419	51.09
913.79	51.09
914.161	51.11
914.532	51.09
914.903	51.11
915.274	51.14
915.645	51.16
916.015	51.18
916.386	51.16
916.756	51.14
917.127	51.15
917.497	51.15
917.868	51.17
918.238	51.16
918.608	51.19
918.978	51.19
919.348	51.2
919.718	51.19
920.088	51.19
920.458	51.21
920.828	51.19
921.198	51.18
921.567	51.21
921.937	51.24
922.306	51.22
922.676	51.23
923.045	51.21
923.415	51.22
923.784	51.23
924.153	51.24
924.522	51.25
924.891	51.27
925.26	51.27
925.629	51.28
925.998	51.24
926.367	51.27
926.736	51.24
927.104	51.24
927.473	51.2
927.842	51.16
928.21	51.17
928.578	51.11
928.947	51.08
929.315	51.06
929.683	51.02
930.051	50.98
930.42	50.98
930.788	50.92
931.156	50.93
931.523	50.9
931.891	50.93
932.259	50.87
932.627	50.9
932.994	50.89
933.362	50.86
933.729	50.85
934.097	50.85
934.464	50.84
934.831	50.88
935.199	50.85
935.566	50.87
935.933	50.87
936.3	50.9
936.667	50.88
937.034	50.88
937.401	50.92
937.767	50.96
938.134	50.98
938.501	50.98
938.867	51.02
939.234	51.09
939.6	51.1
939.967	51.12
940.333	51.12
940.699	51.21
941.065	51.21
941.431	51.25
941.798	51.26
942.163	51.28
942.529	51.3
942.895	51.36
943.261	51.33
943.627	51.39
943.992	51.38
944.358	51.39
944.723	51.34
945.089	51.32
945.454	51.33
945.82	51.27
946.185	51.29
946.55	51.24
946.915	51.19
947.28	51.18
947.645	51.15
948.01	51.15
948.375	51.12
948.74	51.12
949.104	51.15
949.469	51.12
949.834	51.12
950.198	51.07
950.562	51.05
950.927	51.03
951.291	50.94
951.655	50.84
952.02	50.82
952.384	50.79
952.748	50.77
953.112	50.75
953.476	50.71
953.839	50.68
954.203	50.66
954.567	50.63
954.931	50.61
955.294	50.63
955.658	50.7
956.021	50.67
956.385	50.62
956.748	50.57
957.111	50.55
957.474	50.57
957.837	50.49
958.2	50.53
958.563	50.51
958.926	50.48
959.289	50.47
959.652	50.4
960.015	50.35
960.377	50.36
960.74	50.41
961.102	50.34
961.465	50.37
961.827	50.44
962.189	50.37
962.552	50.38
962.914	50.36
963.276	50.4
963.638	50.4
964	50.36
964.362	50.36
964.724	50.31
965.085	50.34
965.447	50.3
965.809	50.28
966.17	50.27
966.532	50.24
966.893	50.26
967.255	50.27
967.616	50.27
967.977	50.34
968.338	50.34
968.699	50.32
969.061	50.29
969.421	50.27
969.782	50.29
970.143	50.36
970.504	50.37
970.865	50.37
971.225	50.32
971.586	50.32
971.946	50.35
972.307	50.35
972.667	50.35
973.027	50.42
973.388	50.44
973.748	50.43
974.108	50.43
974.468	50.43
974.828	50.41
975.188	50.43
975.548	50.43
975.907	50.42
976.267	50.4
976.627	50.43
976.986	50.38
977.346	50.31
977.705	50.29
978.064	50.24
978.424	50.27
978.783	50.24
979.142	50.21
979.501	50.2
979.86	50.19
980.219	50.18
980.578	50.21
980.937	50.26
981.296	50.23
981.654	50.26
982.013	50.3
982.371	50.28
982.73	50.32
983.088	50.36
983.447	50.4
983.805	50.41
984.163	50.47
984.521	50.46
984.879	50.41
985.237	50.46
985.595	50.51
985.953	50.48
986.311	50.43
986.669	50.47
987.026	50.46
987.384	50.44
987.741	50.4
988.099	50.42
988.456	50.47
988.814	50.49
989.171	50.5
989.528	50.47
989.885	50.48
990.242	50.5
990.599	50.58
990.956	50.61
991.313	50.63
991.67	50.64
992.027	50.75
992.383	50.81
992.74	50.97
993.096	51
993.453	51.04
993.809	51.05
994.165	51.12
994.522	51.15
994.878	51.14
995.234	51.24
995.59	51.28
995.946	51.17
996.302	51.1
996.658	51.06
997.013	51.08
997.369	51.11
997.725	51.17
998.08	51.31
998.436	51.3
998.791	51.43
999.147	51.32
999.502	51.33
999.857	51.29
1000.212	51.24
1000.567	51.22
1000.922	51.25
1001.277	51.26
1001.632	51.26
1001.987	51.13
1002.342	51.06
1002.696	50.98
1003.051	51.21
1003.406	51.3
1003.76	51.35
1004.114	51.32
1004.469	51.35
1004.823	51.61
1005.177	51.64
1005.531	51.77
1005.885	51.79
1006.239	51.89
1006.593	51.97
1006.947	51.81
1007.301	51.77
1007.655	51.71
1008.008	51.85
1008.362	52.04
1008.715	51.79
1009.069	51.79
1009.422	51.76
1009.776	51.79
1010.129	51.8
1010.482	51.72
1010.835	51.83
1011.188	51.79
1011.541	52.08
1011.894	52.22
1012.247	52.05
1012.6	52.13
1012.952	52.04
1013.305	52.03
1013.657	52.01
1014.01	52.06
1014.362	52.32
1014.715	52.43
1015.067	52.78
1015.419	52.74
1015.771	52.62
1016.123	52.82
1016.475	53.03
1016.827	53.23
1017.179	53.29
1017.531	53.37
1017.883	53.33
1018.234	53.36
1018.586	53.18
1018.938	53.17
1019.289	53
1019.64	53.16
1019.992	53.19
1020.343	53.09
1020.694	53.13
1021.045	53.22
1021.396	53.24
1021.747	53.48
1022.098	53.4
1022.449	53.39
1022.8	53.38
1023.151	53.34
1023.501	53.52
1023.852	53.54
1024.202	53.47
1024.553	53.41
1024.903	53.28
1025.253	53.47
1025.604	53.43
1025.954	53.16
1026.304	53.66
1026.654	53.63
1027.004	53.69
1027.354	53.51
1027.703	53.36
1028.053	53.43
1028.403	53.53
1028.753	53.35
1029.102	53.33
1029.452	53.24
1029.801	53.56
1030.15	53.23
1030.499	53.12
897.758	1358.06
901.051	1356.57
904.343	1357.57
907.636	1378.77
910.928	1340.54
914.22	1338.49
917.511	1316.99
920.803	1259.17
924.094	1255.03
927.384	1224.04
930.675	1170.98
933.965	1162.7
937.255	1098.78
940.544	1051.49
943.834	1004.46
947.123	995.38
950.411	937.26
953.7	918.89
956.988	874.7
960.276	835.47
963.563	823.71
966.851	794.46
970.138	787.22
973.424	762.62
976.711	767.51
979.997	726.28
983.283	724.38
986.568	709.43
989.853	686.81
993.138	673.48
996.423	650.11
999.708	632.47
1002.992	625.49
1006.275	597.57
1009.559	592.18
1012.842	570.32
1016.125	555.54
1019.408	544.75
1022.69	538.4
1025.972	528.61
1029.254	515.35
1032.536	506.68
1035.817	494.46
1039.098	489.77
1042.379	478.46
1045.659	474.18
1048.939	462.68
1052.219	453.9
1055.498	447.71
1058.778	436.79
1062.057	426.44
1065.335	421.21
1068.614	416.55
1071.892	412.91
1075.17	399.5
1078.447	393.7
1081.724	389.32
1085.001	386.58
1088.278	379.24
1091.554	371.05
1094.83	371.14
1098.106	369.41
1101.382	365.81
1104.657	362.47
1107.932	356.62
1111.206	358.53
1114.481	349.93
1117.755	347.2
1121.029	343.94
1124.302	343.56
1127.575	338.21
1130.848	334.46
1134.121	330.47
1137.393	329.67
1140.665	323.77
1143.937	321.13
1147.208	318.59
1150.48	318.34
1153.75	313.95
1157.021	309.54
1160.291	310.09
1163.561	305.67
1166.831	305.36
1170.101	303.04
1173.37	301.6
1176.639	301.86
1179.907	299.38
1183.176	296.05
1186.444	295.33
1189.711	295.15
1192.979	294.08
1196.246	292.01
1199.513	293.88
1202.78	292.09
1206.046	292.11
1209.312	289.86
1212.578	290.15
1215.843	292.5
1219.108	290.8
1222.373	296.83
1225.638	298.95
1228.902	303.66
1232.166	302.68
1235.43	304.94
1238.693	309.18
1241.956	310.74
1245.219	315.74
1248.482	314.95
1251.744	315.18
1255.006	316.6
1258.268	308.08
1261.529	305.19
1264.79	303.42
1268.051	302.88
1271.312	298.84
1274.572	294.37
1277.832	291.55
1281.092	286.89
1284.351	285.44
1287.61	284.79
1290.869	280.59
1294.128	279.42
1297.386	279.61
1300.644	276.14
1303.902	277.44
1307.159	275.95
1310.416	276.65
1313.673	276.16
1316.93	278.39
1320.186	278.88
1323.442	279.87
1326.697	284.24
1329.953	285.09
1333.208	285.68
1336.463	289.75
1339.717	289.18
1342.972	293.26
1346.226	295.16
1349.479	296.25
1352.733	298.23
1355.986	299.22
1359.238	298.65
1362.491	300.59
1365.743	303.5
1368.995	303.73
1372.247	302.72
1375.498	303.07
1378.749	304.43
1382	302.77
1385.251	303.43
1388.501	300.72
1391.751	302.35
1395	301.02
1398.25	298.35
1401.499	296.59
1404.748	296.2
1407.996	292.85
1411.244	291.57
1414.492	290.3
1417.74	286.31
1420.987	282.37
1424.234	283.31
1427.481	278.27
1430.728	278.39
1433.974	275.84
1437.22	273.76
1440.465	272.32
1443.711	270.23
1446.956	268.79
1450.201	265.1
1453.445	262.84
1456.689	261.41
1459.933	256.68
1463.177	255.1
1466.42	251.02
1469.663	248.81
1472.906	246.87
1476.148	240.34
1479.391	238.12
1482.633	235.68
1485.874	233.27
1489.115	231.82
1492.356	229.67
1495.597	228.88
1498.838	225.38
1502.078	224.14
1505.318	222.62
1508.557	222.61
1511.797	223.57
1515.036	221.73
1518.274	220.73
1521.513	218.76
1524.751	218.5
1527.989	218
1531.227	216.74
1534.464	217.88
1537.701	216.18
1540.938	215.52
1544.174	213.01
1547.41	212.6
1550.646	212.08
1553.882	211.96
1557.117	209.29
1560.352	208.27
1563.587	207.53
1566.821	206.48
1570.055	204.75
1573.289	203.93
1576.523	203.53
1579.756	201.95
1582.989	201.08
1586.222	200.58
1589.454	200.52
1592.686	202.1
1595.918	200.71
1599.15	200.06
1602.381	199.94
1605.612	199.69
1608.843	200.16
1612.073	200.42
1615.303	201.35
1618.533	201.44
1621.762	200.76
1624.992	200.62
1628.221	200.19
1631.449	200.42
1634.678	200.23
1637.906	201.6
1641.134	201.11
1644.361	200.74
1647.588	201.02
1650.815	200.53
1654.042	199.32
1657.269	201.25
1660.495	200.75
1663.72	199.64
1666.946	200.58
1670.171	200.97
1673.396	200.67
1676.621	200.97
1679.845	201.11
1683.069	201.1
1686.293	202.07
1689.517	203.23
1692.74	202.64
1695.963	203.61
1699.185	206.09
1702.408	206.04
1705.63	206.72
1708.852	207.38
1712.073	207.94
1715.294	208.41
1718.515	209.72
1721.736	209.65
1724.956	210.37
1728.176	210.05
1731.396	211.92
1734.616	210.78
1737.835	211.74
1741.054	210.19
1744.272	210.36
1747.491	212.2
1750.709	212.84
1753.927	212.62
1757.144	211.77
1760.361	212.74
1763.578	213.41
1766.795	212.25
1770.011	213.96
1773.227	214.01
1776.443	216.8
1779.658	217.87
1782.874	216.72
1786.089	217.61
1789.303	217.96
1792.518	221.23
1795.732	220.38
1798.945	222.76
1802.159	223.23
1805.372	223.09
1808.585	226.59
1811.797	227.3
1815.01	227.48
1818.222	229.87
1821.434	231.76
1824.645	232.14
1827.856	235.94
1831.067	238.26
1834.278	237.13
1837.488	238.99
1840.698	241.02
1843.908	238.72
1847.117	240.13
1850.326	242.01
1853.535	240.65
1856.744	243.05
1859.952	243.96
1863.16	241.69
1866.368	240.17
1869.575	242.56
1872.782	238.32
1875.989	237.04
1879.196	236.46
1882.402	234.09
1885.608	234.62
1888.814	235.2
1892.019	233.81
1895.224	232.44
1898.429	231.04
1901.634	231.98
1904.838	231.96
1908.042	234.42
1911.246	235.75
1914.449	236.56
1917.652	236.9
1920.855	235.95
1924.058	236.01
1927.26	235.37
1930.462	235.93
1933.664	238.83
1936.865	237.18
1940.066	236.93
1943.267	234.84
1946.467	235.42
1949.668	236.69
1952.868	239.65
1956.067	240.15
1959.267	240.15
1962.466	240.74
1965.665	239.4
1968.863	240.68
1972.061	243.8
1975.259	246.15
1978.457	248.64
1981.654	249.56
1984.852	250.53
1988.048	249.74
1991.245	252.3
1994.441	255.69
1997.637	257.23
2000.833	263.42
2004.028	266.69
2007.223	268.04
2010.418	270.17
2013.613	274.93
2016.807	278.72
2020.001	281.26
2023.194	284.96
2026.388	291.44
2029.581	297.44
2032.774	300.26
2035.966	304.8
2039.158	304.92
2042.35	311.17
2045.542	313.56
2048.733	318.1
2051.924	321.6
2055.115	326.36
2058.306	327.87
2061.496	330.37
2064.686	331.33
2067.875	337.7
2071.065	339.25
2074.254	337.74
2077.442	342.43
2080.631	343.78
2083.819	348.13
2087.007	347.34
2090.195	351.9
2093.382	354.97
2096.569	352.95
2099.756	358.42
2102.942	359.41
2106.128	362.64
2109.314	371.38
2112.5	369.12
2115.685	377.53
2118.87	377.69
2122.055	388.42
2125.239	390.18
2128.424	394.44
2131.608	397.11
2134.791	402.17
2137.974	403.59
2141.157	405.12
2144.34	405.08
2147.523	411.51
2150.705	408.4
2153.887	411.16
2157.068	410.38
2160.25	407.28
2163.431	409.41
2166.611	414
2169.792	422.1
2172.972	426.4
2176.152	428.62
2179.331	434.86
2182.511	441.52
2185.69	447
2188.868	456.28
2192.047	457.5
2195.225	470.54
2198.403	483.31
2201.58	492.36
2204.758	501.46
2207.935	511.68
2211.111	523.46
2214.288	528.31
2217.464	529.72
2220.64	536.41
2223.815	544.28
2226.991	567.48
2230.166	568.7
2233.34	577.63
2236.515	585.95
2239.689	586.13
2242.863	589.1
2246.036	604.01
2249.209	599.41
2252.382	610.4
2255.555	629.03
2258.727	631.77
2261.9	633.35
2265.071	639.9
2268.243	649.79
2271.414	657.83
2274.585	670.38
2277.756	678.79
2280.926	682.1
2284.096	699.47
2287.266	713.97
2290.436	719.31
2293.605	736.3
2296.774	758.44
2299.942	781.31
2303.111	784.7
2306.279	802.44
2309.447	815.09
2312.614	836.56
2315.781	860.52
2318.948	898.16
2322.115	884.45
2325.281	933.35
2328.447	912.91
2331.613	950.56
2334.779	941.01
2337.944	981.38
2341.109	990.94
2344.274	1016.32
2347.438	1051.21
2350.602	1051.51
2353.766	1084.05
2356.929	1100.85
2360.092	1091.71
2363.255	1172.95
2366.418	1167.68
2369.58	1188.01
2372.742	1266.02
2375.904	1297.45
2379.066	1291.4
2382.227	1262.41
2385.388	1370.02
2388.548	1372.32
2391.709	1388.2
2394.869	1548.3
2398.029	1477.32
2401.188	1520.24
2404.347	1520.21
2407.506	1488.96
2410.665	1529.23
2413.823	1620.42
2416.981	1717.98
2420.139	1662.08
2423.296	1637.11
2426.453	1716.68
2429.61	1651.08
2432.767	1727.48
2435.923	1711.23
2439.079	1863.02
2442.235	1889.52
2445.391	1875.66
2448.546	1857.89
2451.701	1812.4
2454.855	1810.48
2458.009	1932.27
2461.163	2002.22
2464.317	2068.03
2467.471	2127.21
2470.624	2126.81
2473.777	2068.53
2476.929	2014.28
2480.082	1954.01
2483.234	1936.12
2486.385	2019.66
2489.537	2031
2492.688	2101.92
2495.839	2041.15
2498.989	2004.62
2502.14	2007.71
2505.29	2028.34
2508.439	2059.23
2511.589	2057.48
2514.738	2244.49
2517.887	2195.46
2521.035	2328.33
2524.183	2338.89
2527.331	2356.53
2530.479	2348.18
2533.627	2361
