Data from C_3_DIV_OH_2N_Splice17_13-47-48-421.txt Node
Date: Sat Mar 07 13:47:48 EST 2020
User: sa697716
Spectrometer: NQ5500242
Trigger mode: 0
Integration Time (sec): 1.450000E-1
Scans to average: 20
Nonlinearity correction enabled: false
Boxcar width: 5
Storing dark spectrum: false
XAxis mode: Wavelengths
Number of Pixels in Spectrum: 512
>>>>>Begin Spectral Data<<<<<
187.83	203.88
188.298	212.94
188.766	193.38
189.233	154.87
189.701	172.66
190.169	208.81
190.636	208.54
191.104	271.09
191.571	129.02
192.039	-140.57
192.506	-32.61
192.974	-40.89
193.441	-61.49
193.908	10.25
194.375	20.99
194.842	13.35
195.31	4.91
195.777	-51.9
196.244	39.5
196.711	35.65
197.177	38.1
197.644	37.65
198.111	37.1
198.578	37.26
199.045	37.36
199.511	37.33
199.978	37.29
200.445	38.18
200.911	38.34
201.378	38.06
201.844	38.17
202.31	37.82
202.777	37.81
203.243	38.07
203.709	37.83
204.176	37.33
204.642	37.37
205.108	37.44
205.574	36.9
206.04	36.15
206.506	35.8
206.972	35.9
207.438	35.66
207.903	35.4
208.369	34.85
208.835	34.45
209.301	33.77
209.766	32.4
210.232	31.49
210.697	30.62
211.163	29.79
211.628	29.14
212.094	28.08
212.559	27.54
213.024	26.7
213.49	26.32
213.955	25.5
214.42	25.04
214.885	24.56
215.35	23.56
215.815	22.68
216.28	21.33
216.745	19.71
217.21	18.31
217.675	16.74
218.14	15.57
218.604	14.39
219.069	13.54
219.534	12.8
219.998	12.16
220.463	11.72
220.927	11.17
221.392	10.8
221.856	10.55
222.32	10.27
222.785	10.09
223.249	9.87
223.713	9.69
224.177	9.57
224.642	9.43
225.106	9.28
225.57	9.12
226.034	9.04
226.497	8.96
226.961	8.84
227.425	8.75
227.889	8.65
228.353	8.58
228.816	8.49
229.28	8.38
229.744	8.29
230.207	8.22
230.671	8.13
231.134	8.03
231.597	7.96
232.061	7.9
232.524	7.82
232.987	7.74
233.45	7.68
233.914	7.61
234.377	7.53
234.84	7.47
235.303	7.4
235.766	7.35
236.229	7.28
236.691	7.2
237.154	7.13
237.617	7.09
238.08	7.03
238.542	6.96
239.005	6.91
239.468	6.86
239.93	6.81
240.393	6.76
240.855	6.7
241.317	6.64
241.78	6.59
242.242	6.54
242.704	6.49
243.166	6.44
243.629	6.42
244.091	6.36
244.553	6.31
245.015	6.26
245.477	6.2
245.939	6.16
246.4	6.12
246.862	6.07
247.324	6.03
247.786	5.97
248.247	5.93
248.709	5.87
249.17	5.81
249.632	5.78
250.093	5.75
250.555	5.71
251.016	5.68
251.477	5.64
251.939	5.62
252.4	5.59
252.861	5.56
253.322	5.53
253.783	5.51
254.244	5.5
254.705	5.46
255.166	5.43
255.627	5.4
256.088	5.38
256.549	5.36
257.009	5.32
257.47	5.28
257.931	5.24
258.391	5.2
258.852	5.16
259.312	5.13
259.773	5.1
260.233	5.08
260.694	5.05
261.154	5.02
261.614	5
262.074	4.97
262.534	4.94
262.994	4.93
263.455	4.91
263.915	4.89
264.374	4.87
264.834	4.85
265.294	4.83
265.754	4.81
266.214	4.81
266.673	4.79
267.133	4.78
267.593	4.77
268.052	4.76
268.512	4.76
268.971	4.76
269.431	4.74
269.89	4.73
270.349	4.72
270.809	4.72
271.268	4.71
271.727	4.71
272.186	4.69
272.645	4.69
273.104	4.68
273.563	4.67
274.022	4.66
274.481	4.66
274.94	4.66
275.399	4.65
275.857	4.64
276.316	4.63
276.775	4.62
277.233	4.61
277.692	4.6
278.15	4.6
278.609	4.59
279.067	4.59
279.525	4.58
279.984	4.57
280.442	4.56
280.9	4.56
281.358	4.56
281.816	4.56
282.274	4.55
282.732	4.54
283.19	4.53
283.648	4.52
284.106	4.51
284.564	4.5
285.021	4.5
285.479	4.48
285.937	4.47
286.394	4.47
286.852	4.45
287.309	4.44
287.767	4.42
288.224	4.41
288.682	4.39
289.139	4.37
289.596	4.36
290.053	4.34
290.511	4.32
290.968	4.31
291.425	4.28
291.882	4.27
292.339	4.26
292.796	4.25
293.252	4.24
293.709	4.24
294.166	4.23
294.623	4.22
295.079	4.2
295.536	4.21
295.992	4.2
296.449	4.2
296.905	4.19
297.362	4.19
297.818	4.18
298.274	4.18
298.731	4.17
299.187	4.17
299.643	4.17
300.099	4.16
300.555	4.16
301.011	4.15
301.467	4.15
301.923	4.13
302.379	4.13
302.835	4.13
303.291	4.12
303.746	4.11
304.202	4.11
304.658	4.1
305.113	4.1
305.569	4.1
306.024	4.09
306.479	4.09
306.935	4.09
307.39	4.08
307.845	4.07
308.301	4.08
308.756	4.08
309.211	4.07
309.666	4.07
310.121	4.07
310.576	4.06
311.031	4.06
311.486	4.06
311.94	4.06
312.395	4.05
312.85	4.05
313.305	4.04
313.759	4.05
314.214	4.04
314.668	4.03
315.123	4.03
315.577	4.03
316.032	4.01
316.486	4.01
316.94	4
317.394	4
317.849	3.99
318.303	3.97
318.757	3.95
319.211	3.95
319.665	3.94
320.119	3.93
320.572	3.92
321.026	3.92
321.48	3.91
321.934	3.9
322.387	3.89
322.841	3.88
323.295	3.89
323.748	3.89
324.202	3.89
324.655	3.88
325.108	3.89
325.562	3.89
326.015	3.89
326.468	3.89
326.921	3.88
327.374	3.88
327.827	3.89
328.28	3.88
328.733	3.88
329.186	3.88
329.639	3.87
330.092	3.87
330.545	3.87
330.997	3.86
331.45	3.86
331.903	3.88
332.355	3.89
332.808	3.88
333.26	3.89
333.713	3.88
334.165	3.87
334.617	3.87
335.069	3.86
335.522	3.86
335.974	3.86
336.426	3.85
336.878	3.83
337.33	3.83
337.782	3.82
338.234	3.82
338.686	3.81
339.137	3.82
339.589	3.81
340.041	3.82
340.493	3.82
340.944	3.8
341.396	3.8
341.847	3.8
342.299	3.79
342.75	3.78
343.201	3.76
343.653	3.75
344.104	3.72
344.555	3.72
345.006	3.7
345.457	3.7
345.908	3.69
346.359	3.7
346.81	3.7
347.261	3.69
347.712	3.68
348.163	3.68
348.613	3.69
349.064	3.69
349.515	3.7
349.965	3.7
350.416	3.69
350.866	3.69
351.317	3.68
351.767	3.68
352.217	3.68
352.668	3.69
353.118	3.7
353.568	3.69
354.018	3.71
354.468	3.71
354.918	3.71
355.368	3.72
355.818	3.72
356.268	3.73
356.718	3.74
357.168	3.75
357.617	3.75
358.067	3.75
358.517	3.76
358.966	3.77
359.416	3.79
359.865	3.8
360.315	3.81
360.764	3.83
361.213	3.83
361.663	3.84
362.112	3.86
362.561	3.87
363.01	3.89
363.459	3.89
363.908	3.9
364.357	3.92
364.806	3.93
365.255	3.95
365.703	3.97
366.152	4
366.601	4.02
367.05	4.05
367.498	4.07
367.947	4.1
368.395	4.13
368.844	4.17
369.292	4.19
369.74	4.24
370.189	4.27
370.637	4.3
371.085	4.33
371.533	4.37
371.981	4.41
372.429	4.46
372.877	4.5
373.325	4.55
373.773	4.59
374.221	4.63
374.669	4.67
375.116	4.71
375.564	4.76
376.012	4.81
376.459	4.86
376.907	4.91
377.354	4.96
377.801	5.01
378.249	5.06
378.696	5.13
379.143	5.19
379.591	5.25
380.038	5.32
380.485	5.38
380.932	5.44
381.379	5.52
381.826	5.59
382.273	5.65
382.72	5.71
383.166	5.77
383.613	5.83
384.06	5.9
384.506	5.97
384.953	6.04
385.4	6.1
385.846	6.17
386.292	6.22
386.739	6.28
387.185	6.35
387.631	6.42
388.078	6.48
388.524	6.55
388.97	6.61
389.416	6.68
389.862	6.75
390.308	6.83
390.754	6.9
391.2	6.97
391.645	7.03
392.091	7.1
392.537	7.17
392.983	7.23
393.428	7.29
393.874	7.35
394.319	7.41
394.765	7.45
395.21	7.5
395.655	7.54
396.101	7.59
396.546	7.63
396.991	7.68
397.436	7.71
397.881	7.76
398.326	7.8
398.771	7.83
399.216	7.84
399.661	7.87
400.106	7.88
400.551	7.89
400.995	7.88
401.44	7.88
401.885	7.89
402.329	7.91
402.774	7.91
403.218	7.93
403.663	7.94
404.107	7.95
404.551	7.96
404.995	7.95
405.44	7.96
405.884	7.98
406.328	7.99
406.772	7.98
407.216	7.97
407.66	7.97
408.104	7.93
408.547	7.92
408.991	7.92
409.435	7.92
409.879	7.92
410.322	7.93
410.766	7.93
411.209	7.93
411.653	7.94
412.096	7.95
412.54	7.95
412.983	7.96
413.426	7.98
413.869	7.99
414.312	8
414.756	8
415.199	7.99
415.642	7.98
416.085	7.98
416.527	7.96
416.97	7.93
417.413	7.93
417.856	7.91
418.298	7.9
418.741	7.88
419.184	7.87
419.626	7.87
420.069	7.87
420.511	7.87
420.953	7.86
421.396	7.87
421.838	7.87
422.28	7.88
422.722	7.88
423.164	7.87
423.606	7.86
424.048	7.85
424.49	7.84
424.932	7.8
425.374	7.76
425.816	7.72
426.258	7.7
426.699	7.68
427.141	7.67
427.582	7.65
428.024	7.65
428.465	7.63
428.907	7.61
429.348	7.59
429.789	7.6
430.231	7.64
430.672	7.64
431.113	7.64
431.554	7.64
431.995	7.63
432.436	7.65
432.877	7.67
433.318	7.68
433.759	7.71
434.2	7.72
434.64	7.73
435.081	7.73
435.522	7.76
435.962	7.77
436.403	7.8
436.843	7.81
437.284	7.8
437.724	7.8
438.164	7.8
438.604	7.81
439.045	7.84
439.485	7.87
439.925	7.88
440.365	7.9
440.805	7.91
441.245	7.94
441.685	8
442.125	8.05
442.564	8.1
443.004	8.14
443.444	8.17
443.883	8.21
444.323	8.24
444.762	8.28
445.202	8.33
445.641	8.42
446.081	8.48
446.52	8.51
446.959	8.58
447.398	8.64
447.837	8.69
448.276	8.75
448.716	8.81
449.154	8.87
449.593	8.93
450.032	8.98
450.471	8.99
450.91	9.02
451.349	9.07
451.787	9.09
452.226	9.1
452.664	9.13
453.103	9.16
453.541	9.16
453.98	9.2
454.418	9.2
454.856	9.21
455.295	9.22
455.733	9.2
456.171	9.2
456.609	9.21
457.047	9.21
457.485	9.21
457.923	9.21
458.361	9.21
458.798	9.2
459.236	9.2
459.674	9.18
460.111	9.18
460.549	9.21
460.987	9.22
461.424	9.22
461.862	9.22
462.299	9.22
462.736	9.23
463.173	9.24
463.611	9.24
464.048	9.26
464.485	9.28
464.922	9.29
465.359	9.28
465.796	9.31
466.233	9.32
466.67	9.32
467.106	9.33
467.543	9.32
467.98	9.32
468.416	9.32
468.853	9.3
469.29	9.29
469.726	9.29
470.162	9.29
470.599	9.25
471.035	9.24
471.471	9.24
471.907	9.22
472.344	9.22
472.78	9.24
473.216	9.24
473.652	9.25
474.088	9.25
474.523	9.28
474.959	9.29
475.395	9.3
475.831	9.31
476.266	9.33
476.702	9.35
477.138	9.36
477.573	9.37
478.008	9.39
478.444	9.41
478.879	9.44
479.314	9.44
479.75	9.46
480.185	9.46
480.62	9.48
481.055	9.48
481.49	9.49
481.925	9.52
482.36	9.54
482.795	9.56
483.229	9.57
483.664	9.58
484.099	9.6
484.534	9.62
484.968	9.66
485.403	9.69
485.837	9.72
486.271	9.77
486.706	9.81
487.14	9.84
487.574	9.89
488.009	9.94
488.443	9.99
488.877	10.07
489.311	10.14
489.745	10.2
490.179	10.28
490.613	10.37
491.046	10.45
491.48	10.53
491.914	10.62
492.348	10.71
492.781	10.81
493.215	10.91
493.648	11.01
494.082	11.13
494.515	11.24
494.948	11.35
495.382	11.46
495.815	11.58
496.248	11.72
496.681	11.86
497.114	12
497.547	12.14
497.98	12.29
498.413	12.43
498.846	12.58
499.279	12.73
499.711	12.9
500.144	13.07
500.577	13.24
501.009	13.41
501.442	13.58
501.874	13.77
502.306	13.96
502.739	14.18
503.171	14.39
503.603	14.6
504.036	14.82
504.468	15.03
504.9	15.24
505.332	15.46
505.764	15.7
506.196	15.93
506.627	16.17
507.059	16.42
507.491	16.63
507.923	16.87
508.354	17.14
508.786	17.4
509.217	17.66
509.649	17.93
510.08	18.21
510.512	18.48
510.943	18.74
511.374	19.02
511.805	19.29
512.237	19.56
512.668	19.84
513.099	20.11
513.53	20.39
513.961	20.68
514.391	20.97
514.822	21.25
515.253	21.53
515.684	21.81
516.114	22.08
516.545	22.35
516.975	22.63
517.406	22.9
517.836	23.14
518.267	23.41
518.697	23.66
519.127	23.89
519.558	24.13
519.988	24.37
520.418	24.59
520.848	24.82
521.278	25.03
521.708	25.4
522.138	25.61
522.567	25.83
522.997	26
523.427	26.19
523.857	26.38
524.286	26.55
524.716	26.7
525.145	26.89
525.575	27.06
526.004	27.22
526.433	27.22
526.863	27.36
527.292	27.49
527.721	27.64
528.15	27.76
528.579	27.88
529.008	28.01
529.437	28.13
529.866	28.22
530.295	28.32
530.724	28.43
531.152	28.54
531.581	28.64
532.01	28.74
532.438	28.82
532.867	28.93
533.295	29
533.723	29.08
534.152	29.14
534.58	29.21
535.008	29.26
535.436	29.34
535.865	29.38
536.293	29.43
536.721	29.47
537.149	29.52
537.576	29.55
538.004	29.6
538.432	29.63
538.86	29.66
539.287	29.69
539.715	29.75
540.143	29.77
540.57	29.8
540.998	29.83
541.425	29.85
541.852	29.88
542.28	29.91
542.707	29.93
543.134	29.96
543.561	29.98
543.988	30.01
544.415	30.02
544.842	30.01
545.269	30.05
545.696	30.08
546.123	30.11
546.549	30.13
546.976	30.16
547.403	30.19
547.829	30.21
548.256	30.23
548.682	30.25
549.108	30.28
549.535	30.32
549.961	30.34
550.387	30.34
550.813	30.36
551.24	30.36
551.666	30.36
552.092	30.36
552.518	30.37
552.943	30.37
553.369	30.37
553.795	30.37
554.221	30.36
554.646	30.32
555.072	30.33
555.498	30.3
555.923	30.29
556.349	30.26
556.774	30.23
557.199	30.2
557.625	30.17
558.05	30.14
558.475	30.1
558.9	30.06
559.325	30.05
559.75	30
560.175	29.96
560.6	29.9
561.025	29.85
561.449	29.8
561.874	29.74
562.299	29.7
562.723	29.63
563.148	29.54
563.572	29.47
563.997	29.39
564.421	29.29
564.846	29.21
565.27	29.12
565.694	29.05
566.118	28.96
566.542	28.86
566.966	28.76
567.39	28.68
567.814	28.61
568.238	28.53
568.662	28.44
569.086	28.36
569.509	28.27
569.933	28.2
570.357	28.1
570.78	28.02
571.204	27.95
571.627	27.85
572.05	27.76
572.474	27.69
572.897	27.59
573.32	27.5
573.743	27.42
574.166	27.34
574.589	27.25
575.012	27.16
575.435	27.08
575.858	27
576.281	26.93
576.704	26.86
577.126	26.76
577.549	26.7
577.972	26.63
578.394	26.55
578.817	26.48
579.239	26.43
579.661	26.37
580.084	26.32
580.506	26.26
580.928	26.19
581.35	26.15
581.772	26.1
582.194	26.04
582.616	25.98
583.038	25.92
583.46	25.85
583.882	25.79
584.303	25.72
584.725	25.67
585.147	25.64
585.568	25.6
585.99	25.52
586.411	25.49
586.833	25.44
587.254	25.39
587.675	25.35
588.096	25.33
588.518	25.29
588.939	25.26
589.36	25.21
589.781	25.14
590.202	25.11
590.623	25.07
591.043	25.01
591.464	24.97
591.885	24.94
592.305	24.9
592.726	24.87
593.147	24.83
593.567	24.79
593.987	24.75
594.408	24.72
594.828	24.67
595.248	24.66
595.669	24.65
596.089	24.62
596.509	24.6
596.929	24.58
597.349	24.55
597.769	24.52
598.189	24.5
598.608	24.5
599.028	24.47
599.448	24.44
599.867	24.41
600.287	24.38
600.706	24.35
601.126	24.32
601.545	24.3
601.965	24.27
602.384	24.24
602.803	24.21
603.222	24.17
603.641	24.13
604.061	24.1
604.48	24.04
604.898	23.97
605.317	23.92
605.736	23.87
606.155	23.81
606.574	23.74
606.992	23.68
607.411	23.6
607.829	23.51
608.248	23.43
608.666	23.35
609.085	23.29
609.503	23.24
609.921	23.17
610.339	23.11
610.758	23.03
611.176	22.94
611.594	22.87
612.012	22.79
612.43	22.73
612.847	22.66
613.265	22.58
613.683	22.51
614.101	22.43
614.518	22.35
614.936	22.27
615.353	22.19
615.771	22.13
616.188	22.06
616.606	22.01
617.023	21.95
617.44	21.9
617.857	21.85
618.274	21.79
618.691	21.73
619.108	21.68
619.525	21.63
619.942	21.6
620.359	21.54
620.776	21.51
621.192	21.46
621.609	21.42
622.026	21.39
622.442	21.36
622.859	21.33
623.275	21.29
623.691	21.27
624.108	21.25
624.524	21.23
624.94	21.21
625.356	21.2
625.772	21.18
626.188	21.17
626.604	21.15
627.02	21.13
627.436	21.13
627.852	21.12
628.268	21.11
628.683	21.1
629.099	21.08
629.514	21.06
629.93	21.05
630.345	21.03
630.761	20.98
631.176	20.94
631.591	20.91
632.007	20.88
632.422	20.83
632.837	20.78
633.252	20.73
633.667	20.67
634.082	20.59
634.497	20.52
634.911	20.44
635.326	20.37
635.741	20.29
636.155	20.19
636.57	20.09
636.984	20
637.399	19.91
637.813	19.79
638.228	19.68
638.642	19.56
639.056	19.42
639.47	19.29
639.884	19.17
640.298	19.02
640.712	18.88
641.126	18.74
641.54	18.56
641.954	18.4
642.368	18.25
642.781	18.1
643.195	17.95
643.609	17.8
644.022	17.66
644.436	17.51
644.849	17.37
645.262	17.23
645.676	17.08
646.089	16.97
646.502	16.86
646.915	16.75
647.328	16.62
647.741	16.54
648.154	16.44
648.567	16.35
648.98	16.27
649.393	16.19
649.805	16.13
650.218	16.06
650.631	15.99
651.043	15.92
651.456	15.86
651.868	15.78
652.28	15.7
652.693	15.63
653.105	15.55
653.517	15.47
653.929	15.39
654.341	15.3
654.753	15.2
655.165	15.09
655.577	14.99
655.989	14.86
656.401	14.73
656.813	14.61
657.224	14.46
657.636	14.31
658.047	14.17
658.459	14.01
658.87	13.84
659.282	13.66
659.693	13.5
660.104	13.32
660.515	13.15
660.926	12.97
661.338	12.78
661.749	12.6
662.159	12.43
662.57	12.25
662.981	12.09
663.392	11.92
663.803	11.78
664.213	11.61
664.624	11.46
665.035	11.31
665.445	11.18
665.855	11.05
666.266	10.94
666.676	10.82
667.086	10.7
667.497	10.58
667.907	10.49
668.317	10.4
668.727	10.32
669.137	10.24
669.547	10.18
669.956	10.12
670.366	10.06
670.776	9.99
671.186	9.95
671.595	9.9
672.005	9.86
672.414	9.83
672.824	9.79
673.233	9.76
673.642	9.75
674.052	9.73
674.461	9.72
674.87	9.72
675.279	9.73
675.688	9.74
676.097	9.76
676.506	9.79
676.915	9.83
677.323	9.87
677.732	9.93
678.141	10
678.549	10.06
678.958	10.15
679.366	10.27
679.775	10.38
680.183	10.52
680.592	10.69
681	10.87
681.408	11.06
681.816	11.3
682.224	11.55
682.632	11.82
683.04	12.13
683.448	12.45
683.856	12.78
684.264	13.16
684.671	13.56
685.079	13.99
685.487	14.44
685.894	14.92
686.302	15.4
686.709	15.9
687.116	16.43
687.524	16.97
687.931	17.52
688.338	18.1
688.745	18.68
689.152	19.25
689.559	19.84
689.966	20.43
690.373	21.03
690.78	21.62
691.187	22.21
691.593	22.78
692	23.35
692.407	23.9
692.813	24.47
693.22	25.01
693.626	25.53
694.032	26.04
694.439	26.53
694.845	27.01
695.251	27.49
695.657	27.95
696.063	28.41
696.469	28.85
696.875	29.3
697.281	29.7
697.687	30.1
698.093	30.51
698.498	30.87
698.904	31.24
699.31	31.6
699.715	31.95
700.12	32.29
700.526	32.62
700.931	32.92
701.337	33.2
701.742	33.48
702.147	33.75
702.552	34.01
702.957	34.26
703.362	34.5
703.767	34.71
704.172	34.91
704.577	35.12
704.981	35.33
705.386	35.52
705.791	35.72
706.195	35.91
706.6	36.11
707.004	36.3
707.408	36.49
707.813	36.68
708.217	36.85
708.621	37.01
709.025	37.17
709.43	37.34
709.834	37.5
710.237	37.65
710.641	37.79
711.045	37.93
711.449	38.07
711.853	38.24
712.256	38.37
712.66	38.49
713.064	38.6
713.467	38.73
713.87	38.83
714.274	38.92
714.677	39.03
715.08	39.14
715.484	39.26
715.887	39.37
716.29	39.43
716.693	39.54
717.096	39.66
717.499	39.77
717.901	39.85
718.304	39.93
718.707	40.04
719.109	40.11
719.512	40.18
719.915	40.26
720.317	40.32
720.719	40.37
721.122	40.42
721.524	40.47
721.926	40.54
722.328	40.61
722.731	40.67
723.133	40.72
723.535	40.79
723.937	40.87
724.338	40.91
724.74	40.97
725.142	41.24
725.544	41.3
725.945	41.41
726.347	41.45
726.748	41.5
727.15	41.54
727.551	41.6
727.952	41.63
728.354	41.67
728.755	41.71
729.156	41.73
729.557	41.55
729.958	41.57
730.359	41.56
730.76	41.6
731.161	41.64
731.562	41.68
731.962	41.67
732.363	41.72
732.763	41.73
733.164	41.73
733.564	41.77
733.965	41.79
734.365	41.83
734.766	41.84
735.166	41.86
735.566	41.88
735.966	41.93
736.366	41.97
736.766	41.96
737.166	41.98
737.566	42.03
737.966	42.04
738.365	42.09
738.765	42.13
739.165	42.16
739.564	42.18
739.964	42.18
740.363	42.16
740.763	42.19
741.162	42.2
741.561	42.22
741.96	42.2
742.36	42.21
742.759	42.21
743.158	42.2
743.557	42.2
743.955	42.2
744.354	42.19
744.753	42.21
745.152	42.22
745.55	42.22
745.949	42.21
746.348	42.22
746.746	42.22
747.144	42.23
747.543	42.22
747.941	42.23
748.339	42.21
748.737	42.22
749.136	42.21
749.534	42.19
749.932	42.2
750.33	42.2
750.727	42.22
751.125	42.23
751.523	42.22
751.921	42.24
752.318	42.26
752.716	42.3
753.113	42.32
753.511	42.33
753.908	42.38
754.305	42.41
754.703	42.41
755.1	42.4
755.497	42.4
755.894	42.39
756.291	42.4
756.688	42.38
757.085	42.36
757.482	42.36
757.878	42.38
758.275	42.35
758.672	42.33
759.068	42.36
759.465	42.37
759.861	42.38
760.258	42.4
760.654	42.39
761.05	42.43
761.447	42.45
761.843	42.45
762.239	42.44
762.635	42.45
763.031	42.46
763.427	42.44
763.822	42.43
764.218	42.43
764.614	42.42
765.01	42.43
765.405	42.4
765.801	42.38
766.196	42.39
766.592	42.41
766.987	42.42
767.382	42.41
767.778	42.4
768.173	42.41
768.568	42.39
768.963	42.39
769.358	42.39
769.753	42.42
770.148	42.43
770.542	42.43
770.937	42.41
771.332	42.41
771.726	42.43
772.121	42.46
772.515	42.45
772.91	42.45
773.304	42.49
773.699	42.49
774.093	42.47
774.487	42.48
774.881	42.51
775.275	42.52
775.669	42.5
776.063	42.5
776.457	42.48
776.851	42.48
777.245	42.47
777.638	42.43
778.032	42.42
778.425	42.43
778.819	42.43
779.212	42.43
779.606	42.44
779.999	42.43
780.392	42.45
780.786	42.46
781.179	42.45
781.572	42.5
781.965	42.52
782.358	42.54
782.751	42.52
783.143	42.5
783.536	42.49
783.929	42.47
784.322	42.49
784.714	42.48
785.107	42.5
785.499	42.51
785.891	42.5
786.284	42.51
786.676	42.5
787.068	42.51
787.46	42.52
787.852	42.55
788.245	42.56
788.636	42.54
789.028	42.54
789.42	42.54
789.812	42.55
790.204	42.54
790.595	42.55
790.987	42.57
791.378	42.59
791.77	42.58
792.161	42.54
792.553	42.59
792.944	42.59
793.335	42.61
793.726	42.63
794.117	42.63
794.508	42.61
794.899	42.61
795.29	42.61
795.681	42.58
796.072	42.59
796.463	42.68
796.853	42.64
797.244	42.64
797.634	42.62
798.025	42.61
798.415	42.61
798.806	42.6
799.196	42.62
799.586	42.62
799.976	42.66
800.366	42.67
800.756	42.62
801.146	42.66
801.536	42.66
801.926	42.67
802.316	42.68
802.706	42.7
803.095	42.74
803.485	42.73
803.874	42.73
804.264	42.73
804.653	42.77
805.043	42.78
805.432	42.78
805.821	42.81
806.21	42.82
806.599	42.81
806.988	42.83
807.377	42.84
807.766	42.84
808.155	42.83
808.544	42.82
808.933	42.8
809.321	42.81
809.71	42.79
810.098	42.77
810.487	42.76
810.875	42.78
811.264	42.76
811.652	42.78
812.04	42.77
812.428	42.83
812.816	42.83
813.204	42.8
813.592	42.77
813.98	42.8
814.368	42.82
814.756	42.83
815.144	42.8
815.531	42.83
815.919	42.8
816.306	42.81
816.694	42.76
817.081	42.79
817.469	42.82
817.856	42.82
818.243	42.79
818.63	42.8
819.017	42.78
819.404	42.77
819.791	42.76
820.178	42.75
820.565	42.75
820.952	42.77
821.339	42.74
821.725	42.75
822.112	42.78
822.498	42.82
822.885	42.83
823.271	42.85
823.657	42.84
824.044	42.85
824.43	42.88
824.816	42.9
825.202	42.89
825.588	42.89
825.974	42.89
826.36	42.87
826.746	42.83
827.132	42.82
827.517	42.84
827.903	42.88
828.289	42.87
828.674	42.84
829.06	42.82
829.445	42.82
829.83	42.84
830.216	42.83
830.601	42.83
830.986	42.86
831.371	42.84
831.756	42.82
832.141	42.81
832.526	42.82
832.911	42.83
833.295	42.84
833.68	42.85
834.065	42.83
834.449	42.79
834.834	42.82
835.218	42.8
835.603	42.81
835.987	42.79
836.371	42.77
836.755	42.74
837.139	42.73
837.524	42.72
837.908	42.7
838.291	42.72
838.675	42.75
839.059	42.73
839.443	42.72
839.827	42.7
840.21	42.71
840.594	42.72
840.977	42.72
841.361	42.72
841.744	42.69
842.127	42.68
842.511	42.66
842.894	42.65
843.277	42.64
843.66	42.62
844.043	42.67
844.426	42.67
844.809	42.66
845.191	42.68
845.574	42.66
845.957	42.69
846.339	42.71
846.722	42.71
847.104	42.72
847.487	42.71
847.869	42.74
848.252	42.72
848.634	42.73
849.016	42.75
849.398	42.76
849.78	42.78
850.162	42.76
850.544	42.75
850.926	42.75
851.307	42.74
851.689	42.75
852.071	42.73
852.452	42.74
852.834	42.72
853.215	42.7
853.597	42.71
853.978	42.71
854.359	42.71
854.741	42.73
855.122	42.73
855.503	42.74
855.884	42.72
856.265	42.74
856.646	42.73
857.026	42.75
857.407	42.75
857.788	42.73
858.169	42.75
858.549	42.76
858.93	42.75
859.31	42.76
859.69	42.78
860.071	42.8
860.451	42.79
860.831	42.79
861.211	42.75
861.591	42.75
861.971	42.76
862.351	42.76
862.731	42.78
863.111	42.77
863.491	42.78
863.87	42.77
864.25	42.74
864.629	42.74
865.009	42.76
865.388	42.78
865.768	42.77
866.147	42.78
866.526	42.78
866.905	42.77
867.284	42.8
867.663	42.79
868.042	42.78
868.421	42.81
868.8	42.84
869.179	42.84
869.558	42.86
869.936	42.87
870.315	42.87
870.693	42.87
871.072	42.87
871.45	42.88
871.828	42.89
872.207	42.92
872.585	42.89
872.963	42.88
873.341	42.86
873.719	42.86
874.097	42.86
874.475	42.86
874.853	42.85
875.23	42.86
875.608	42.85
875.986	42.86
876.363	42.85
876.741	42.88
877.118	42.88
877.495	42.91
877.873	42.91
878.25	42.92
878.627	42.93
879.004	42.9
879.381	42.91
879.758	42.87
880.135	42.85
880.512	42.84
880.889	42.82
881.265	42.81
881.642	42.79
882.019	42.79
882.395	42.77
882.772	42.75
883.148	42.76
883.524	42.73
883.901	42.75
884.277	42.74
884.653	42.72
885.029	42.72
885.405	42.72
885.781	42.71
886.157	42.7
886.532	42.69
886.908	42.68
887.284	42.7
887.659	42.68
888.035	42.65
888.411	42.66
888.786	42.68
889.161	42.68
889.537	42.67
889.912	42.69
890.287	42.68
890.662	42.69
891.037	42.7
891.412	42.67
891.787	42.67
892.162	42.69
892.536	42.68
892.911	42.68
893.286	42.67
893.66	42.65
894.035	42.64
894.409	42.64
894.784	42.63
895.158	42.63
895.532	42.64
895.906	42.66
896.281	42.66
896.655	42.67
897.029	42.67
897.402	42.68
897.776	42.69
898.15	42.68
898.524	42.69
898.898	42.71
899.271	42.73
899.645	42.76
900.018	42.77
900.392	42.77
900.765	42.79
901.138	42.78
901.511	42.78
901.884	42.8
902.258	42.82
902.631	42.84
903.003	42.84
903.376	42.83
903.749	42.81
904.122	42.81
904.495	42.82
904.867	42.8
905.24	42.83
905.612	42.85
905.985	42.82
906.357	42.83
906.729	42.82
907.102	42.8
907.474	42.81
907.846	42.82
908.218	42.82
908.59	42.83
908.962	42.86
909.334	42.85
909.705	42.84
910.077	42.89
910.449	42.88
910.82	42.88
911.192	42.89
911.563	42.87
911.935	42.87
912.306	42.86
912.677	42.87
913.048	42.87
913.419	42.83
913.79	42.85
914.161	42.81
914.532	42.81
914.903	42.81
915.274	42.79
915.645	42.81
916.015	42.82
916.386	42.81
916.756	42.8
917.127	42.77
917.497	42.78
917.868	42.77
918.238	42.78
918.608	42.81
918.978	42.79
919.348	42.81
919.718	42.79
920.088	42.8
920.458	42.81
920.828	42.78
921.198	42.78
921.567	42.79
921.937	42.82
922.306	42.8
922.676	42.77
923.045	42.8
923.415	42.84
923.784	42.85
924.153	42.89
924.522	42.88
924.891	42.89
925.26	42.89
925.629	42.89
925.998	42.86
926.367	42.87
926.736	42.92
927.104	42.92
927.473	42.86
927.842	42.85
928.21	42.84
928.578	42.86
928.947	42.89
929.315	42.9
929.683	42.92
930.051	42.92
930.42	42.93
930.788	42.9
931.156	42.89
931.523	42.88
931.891	42.91
932.259	42.9
932.627	42.91
932.994	42.92
933.362	42.91
933.729	42.94
934.097	42.95
934.464	42.96
934.831	42.95
935.199	43.01
935.566	43.04
935.933	43
936.3	43.01
936.667	43.01
937.034	43.07
937.401	43.09
937.767	43.08
938.134	43.07
938.501	43.09
938.867	43.13
939.234	43.06
939.6	43.02
939.967	43.01
940.333	42.94
940.699	42.9
941.065	42.74
941.431	42.72
941.798	42.65
942.163	42.64
942.529	42.56
942.895	42.49
943.261	42.47
943.627	42.48
943.992	42.45
944.358	42.44
944.723	42.43
945.089	42.38
945.454	42.34
945.82	42.32
946.185	42.26
946.55	42.24
946.915	42.2
947.28	42.16
947.645	42.11
948.01	42.13
948.375	42.09
948.74	42.08
949.104	42.13
949.469	42.08
949.834	42.07
950.198	42.09
950.562	42.05
950.927	42.09
951.291	42.05
951.655	42.01
952.02	42.01
952.384	41.98
952.748	41.98
953.112	41.98
953.476	41.99
953.839	41.94
954.203	41.91
954.567	41.9
954.931	41.81
955.294	41.85
955.658	41.92
956.021	41.88
956.385	41.92
956.748	41.91
957.111	41.88
957.474	41.9
957.837	41.87
958.2	41.84
958.563	41.85
958.926	41.91
959.289	41.93
959.652	41.9
960.015	41.86
960.377	41.82
960.74	41.82
961.102	41.76
961.465	41.72
961.827	41.86
962.189	41.91
962.552	41.93
962.914	41.93
963.276	41.93
963.638	41.93
964	41.92
964.362	41.91
964.724	41.84
965.085	41.88
965.447	41.93
965.809	41.82
966.17	41.8
966.532	41.78
966.893	41.79
967.255	41.78
967.616	41.75
967.977	41.81
968.338	41.86
968.699	41.94
969.061	41.94
969.421	41.94
969.782	41.98
970.143	41.98
970.504	42.03
970.865	42.04
971.225	42.05
971.586	42.05
971.946	42
972.307	42
972.667	41.93
973.027	41.96
973.388	41.93
973.748	41.94
974.108	42.02
974.468	41.96
974.828	42.04
975.188	41.98
975.548	41.99
975.907	42
976.267	41.99
976.627	42.06
976.986	42.02
977.346	42.01
977.705	41.98
978.064	41.96
978.424	42.01
978.783	41.85
979.142	41.85
979.501	41.87
979.86	41.92
980.219	41.93
980.578	41.93
980.937	41.97
981.296	41.95
981.654	41.94
982.013	41.93
982.371	41.94
982.73	41.98
983.088	41.96
983.447	41.93
983.805	41.93
984.163	41.92
984.521	41.89
984.879	41.8
985.237	41.84
985.595	41.94
985.953	41.87
986.311	41.84
986.669	41.81
987.026	41.89
987.384	41.98
987.741	41.94
988.099	42.04
988.456	42.08
988.814	42.16
989.171	42.2
989.528	42.13
989.885	42.2
990.242	42.32
990.599	42.43
990.956	42.44
991.313	42.35
991.67	42.37
992.027	42.55
992.383	42.64
992.74	42.73
993.096	42.74
993.453	42.76
993.809	42.72
994.165	42.7
994.522	42.75
994.878	42.75
995.234	42.84
995.59	42.81
995.946	42.58
996.302	42.55
996.658	42.43
997.013	42.4
997.369	42.49
997.725	42.59
998.08	42.56
998.436	42.47
998.791	42.52
999.147	42.45
999.502	42.51
999.857	42.48
1000.212	42.37
1000.567	42.46
1000.922	42.48
1001.277	42.46
1001.632	42.36
1001.987	42.29
1002.342	42.23
1002.696	42.19
1003.051	42.35
1003.406	42.44
1003.76	42.5
1004.114	42.53
1004.469	42.62
1004.823	42.84
1005.177	42.74
1005.531	42.74
1005.885	42.81
1006.239	42.9
1006.593	42.95
1006.947	42.88
1007.301	42.72
1007.655	42.67
1008.008	42.63
1008.362	42.48
1008.715	42.22
1009.069	42.29
1009.422	42.45
1009.776	42.34
1010.129	42.3
1010.482	42.15
1010.835	42.12
1011.188	42.2
1011.541	42.23
1011.894	42.34
1012.247	42.42
1012.6	42.46
1012.952	42.5
1013.305	42.45
1013.657	42.52
1014.01	42.61
1014.362	42.74
1014.715	42.99
1015.067	43.18
1015.419	43.19
1015.771	43.23
1016.123	43.33
1016.475	43.39
1016.827	43.27
1017.179	43.2
1017.531	43.16
1017.883	43.01
1018.234	43.15
1018.586	43.13
1018.938	43.35
1019.289	43.25
1019.64	43.11
1019.992	43.03
1020.343	42.95
1020.694	43.05
1021.045	43.27
1021.396	43.39
1021.747	43.75
1022.098	43.67
1022.449	43.38
1022.8	43.27
1023.151	43.38
1023.501	43.63
1023.852	43.66
1024.202	43.64
1024.553	43.38
1024.903	43.47
1025.253	43.59
1025.604	43.37
1025.954	43.1
1026.304	43.26
1026.654	43.26
1027.004	43.02
1027.354	42.89
1027.703	42.69
1028.053	42.88
1028.403	43.26
1028.753	42.72
1029.102	42.72
1029.452	42.75
1029.801	43.13
1030.15	42.96
1030.499	42.51
897.758	2078.09
901.051	2075.39
904.343	2064.3
907.636	2107.22
910.928	2053.18
914.22	2045.15
917.511	2015.35
920.803	1924.22
924.094	1913.76
927.384	1871.29
930.675	1781.61
933.965	1767.51
937.255	1670.35
940.544	1603.82
943.834	1521.15
947.123	1504.99
950.411	1418.83
953.7	1385.89
956.988	1311.3
960.276	1254.46
963.563	1234.35
966.851	1194.78
970.138	1185.56
973.424	1144.19
976.711	1152.07
979.997	1090.93
983.283	1087.56
986.568	1063.8
989.853	1026.82
993.138	1012.12
996.423	972.78
999.708	946.25
1002.992	937.2
1006.275	889.69
1009.559	880.15
1012.842	847.96
1016.125	824.72
1019.408	809.1
1022.69	797.3
1025.972	784.94
1029.254	762.77
1032.536	750.9
1035.817	733.21
1039.098	722.73
1042.379	706.17
1045.659	699.45
1048.939	681.8
1052.219	668.84
1055.498	654.5
1058.778	641.41
1062.057	622.67
1065.335	615.44
1068.614	607.76
1071.892	602.89
1075.17	579.6
1078.447	570.38
1081.724	566.47
1085.001	561.14
1088.278	548.48
1091.554	539.1
1094.83	538.01
1098.106	536.12
1101.382	530.78
1104.657	527.24
1107.932	517.08
1111.206	522.8
1114.481	508.8
1117.755	502.71
1121.029	498.9
1124.302	500.32
1127.575	489.42
1130.848	482.86
1134.121	477.81
1137.393	476
1140.665	464.71
1143.937	463.33
1147.208	455.8
1150.48	456.85
1153.75	450.62
1157.021	442.56
1160.291	442.07
1163.561	438.19
1166.831	436.84
1170.101	434.91
1173.37	431.47
1176.639	433.14
1179.907	427.25
1183.176	424.68
1186.444	423.85
1189.711	423.59
1192.979	422.8
1196.246	418.69
1199.513	420.3
1202.78	418.48
1206.046	417.51
1209.312	414.35
1212.578	414.84
1215.843	418.98
1219.108	416.13
1222.373	424.71
1225.638	428.45
1228.902	436.56
1232.166	435.98
1235.43	440.14
1238.693	446.58
1241.956	447.92
1245.219	457.39
1248.482	455.86
1251.744	455.8
1255.006	457.84
1258.268	445.89
1261.529	440.55
1264.79	434.75
1268.051	433.87
1271.312	428.03
1274.572	421.83
1277.832	417.56
1281.092	409.21
1284.351	406.65
1287.61	406.45
1290.869	400.25
1294.128	397.54
1297.386	396.64
1300.644	392.87
1303.902	394.65
1307.159	391.99
1310.416	393.2
1313.673	393.74
1316.93	397.28
1320.186	397.65
1323.442	399.14
1326.697	406.87
1329.953	407.33
1333.208	411.06
1336.463	415.42
1339.717	416.05
1342.972	419.98
1346.226	423.63
1349.479	423.61
1352.733	428.08
1355.986	428.96
1359.238	428.76
1362.491	431.81
1365.743	437.11
1368.995	436.28
1372.247	434.51
1375.498	435.52
1378.749	442.37
1382	436.05
1385.251	439.76
1388.501	435.07
1391.751	439.96
1395	436.94
1398.25	434.71
1401.499	432.82
1404.748	433.61
1407.996	430.68
1411.244	428.05
1414.492	426.89
1417.74	424.12
1420.987	416.41
1424.234	419.15
1427.481	411.06
1430.728	413.2
1433.974	406.77
1437.22	403.71
1440.465	402.3
1443.711	401.1
1446.956	399.72
1450.201	391.4
1453.445	388.49
1456.689	387.89
1459.933	379.84
1463.177	378.89
1466.42	371.15
1469.663	367.64
1472.906	366.01
1476.148	355.19
1479.391	349.77
1482.633	344.73
1485.874	341.02
1489.115	338.77
1492.356	332.53
1495.597	331.99
1498.838	325.32
1502.078	323.47
1505.318	321.36
1508.557	321.11
1511.797	321.83
1515.036	319.73
1518.274	319.04
1521.513	314.47
1524.751	313.79
1527.989	313.45
1531.227	311.77
1534.464	313.97
1537.701	310.44
1540.938	309.39
1544.174	304.52
1547.41	302.86
1550.646	301.94
1553.882	302.33
1557.117	298.73
1560.352	296.47
1563.587	295.78
1566.821	293.31
1570.055	288.47
1573.289	286.58
1576.523	286.36
1579.756	284.52
1582.989	282.76
1586.222	282.02
1589.454	279.4
1592.686	281.49
1595.918	280.49
1599.15	279.69
1602.381	279.12
1605.612	279.54
1608.843	281.48
1612.073	280.57
1615.303	281.96
1618.533	283.04
1621.762	281.57
1624.992	281.72
1628.221	281.94
1631.449	281.34
1634.678	279.72
1637.906	281.91
1641.134	281.77
1644.361	281.05
1647.588	282.1
1650.815	280.48
1654.042	278.36
1657.269	281.08
1660.495	281.14
1663.72	278.2
1666.946	279.71
1670.171	281.04
1673.396	280.3
1676.621	280.09
1679.845	279.65
1683.069	279.31
1686.293	281.62
1689.517	283.4
1692.74	282.53
1695.963	284.06
1699.185	288.69
1702.408	288.58
1705.63	289.37
1708.852	290.88
1712.073	291.63
1715.294	292.52
1718.515	293.32
1721.736	292.99
1724.956	293.61
1728.176	293.65
1731.396	296.54
1734.616	295.55
1737.835	296.45
1741.054	294.97
1744.272	295.55
1747.491	299.27
1750.709	299.76
1753.927	301.09
1757.144	299.16
1760.361	301.92
1763.578	301.86
1766.795	300.97
1770.011	302.42
1773.227	303.26
1776.443	306.9
1779.658	309.21
1782.874	307.36
1786.089	309.37
1789.303	310.26
1792.518	314.79
1795.732	313.82
1798.945	318.25
1802.159	317.83
1805.372	319.92
1808.585	325.56
1811.797	327.13
1815.01	326.17
1818.222	329.5
1821.434	331.08
1824.645	332.9
1827.856	338.9
1831.067	342.75
1834.278	339.47
1837.488	342.81
1840.698	345.85
1843.908	341.84
1847.117	344.2
1850.326	347.24
1853.535	345.81
1856.744	352.8
1859.952	351.89
1863.16	351
1866.368	348.35
1869.575	356.2
1872.782	350.8
1875.989	349.16
1879.196	348.25
1882.402	347.01
1885.608	349.3
1888.814	352.4
1892.019	351.14
1895.224	351.42
1898.429	348.89
1901.634	352.54
1904.838	351.7
1908.042	356.97
1911.246	359.53
1914.449	362.67
1917.652	362.57
1920.855	361.59
1924.058	360.32
1927.26	359.06
1930.462	361.5
1933.664	366.32
1936.865	362.97
1940.066	363.4
1943.267	360.9
1946.467	359.67
1949.668	363.17
1952.868	367.45
1956.067	367.01
1959.267	367.22
1962.466	368.49
1965.665	366.22
1968.863	366.81
1972.061	371.02
1975.259	374.64
1978.457	377.41
1981.654	380.31
1984.852	380.77
1988.048	379.18
1991.245	382.57
1994.441	388.32
1997.637	389.79
2000.833	397.57
2004.028	402
2007.223	405.3
2010.418	410.06
2013.613	415.94
2016.807	420.7
2020.001	422.47
2023.194	428.9
2026.388	439.07
2029.581	447.68
2032.774	452.61
2035.966	460
2039.158	462.56
2042.35	471.48
2045.542	472.96
2048.733	479.9
2051.924	486.12
2055.115	494.67
2058.306	495.52
2061.496	502.15
2064.686	500.97
2067.875	509.96
2071.065	512.13
2074.254	508.39
2077.442	513.36
2080.631	516.26
2083.819	522.45
2087.007	522.01
2090.195	528.45
2093.382	532.84
2096.569	526.79
2099.756	536.5
2102.942	536.73
2106.128	543.54
2109.314	556.25
2112.5	554.37
2115.685	565.9
2118.87	566.39
2122.055	579.14
2125.239	584.25
2128.424	591.78
2131.608	596.48
2134.791	604.21
2137.974	608.13
2141.157	609.11
2144.34	610.59
2147.523	619.11
2150.705	614.97
2153.887	619.88
2157.068	621.41
2160.25	614.23
2163.431	616.12
2166.611	623.07
2169.792	635.82
2172.972	642.15
2176.152	644.42
2179.331	654.53
2182.511	667.46
2185.69	675.44
2188.868	689.86
2192.047	691.48
2195.225	711.91
2198.403	730.44
2201.58	743.44
2204.758	756.37
2207.935	773.52
2211.111	788.49
2214.288	797.35
2217.464	799.47
2220.64	808.64
2223.815	821.12
2226.991	854.08
2230.166	856.71
2233.34	875.45
2236.515	887.89
2239.689	888.9
2242.863	893.16
2246.036	921.4
2249.209	910.59
2252.382	923.26
2255.555	954.97
2258.727	956.9
2261.9	960.51
2265.071	970.25
2268.243	983.54
2271.414	996.34
2274.585	1022.85
2277.756	1032.72
2280.926	1034.32
2284.096	1060.34
2287.266	1088.55
2290.436	1095.76
2293.605	1122.35
2296.774	1160.3
2299.942	1197.89
2303.111	1204.88
2306.279	1235.49
2309.447	1247.63
2312.614	1282.18
2315.781	1323.21
2318.948	1382.99
2322.115	1359.21
2325.281	1432.95
2328.447	1401.63
2331.613	1459.51
2334.779	1441.32
2337.944	1504.18
2341.109	1521.94
2344.274	1562.69
2347.438	1619.7
2350.602	1621.6
2353.766	1670.97
2356.929	1695.71
2360.092	1681.05
2363.255	1812.76
2366.418	1804.65
2369.58	1846.39
2372.742	1950.22
2375.904	1997.68
2379.066	1984.87
2382.227	1943.34
2385.388	2104.88
2388.548	2111.95
2391.709	2142.8
2394.869	2392.49
2398.029	2271.84
2401.188	2339.31
2404.347	2322.35
2407.506	2297.79
2410.665	2362.35
2413.823	2505.23
2416.981	2653.35
2420.139	2564.53
2423.296	2530.8
2426.453	2641.79
2429.61	2534.38
2432.767	2666.89
2435.923	2648.98
2439.079	2873.62
2442.235	2911.5
2445.391	2879.05
2448.546	2868.92
2451.701	2790.73
2454.855	2792.92
2458.009	2965.66
2461.163	3075.59
2464.317	3197.14
2467.471	3278.67
2470.624	3273.97
2473.777	3198.19
2476.929	3121.27
2480.082	3041.7
2483.234	2997.22
2486.385	3131.17
2489.537	3145.92
2492.688	3270.77
2495.839	3173.04
2498.989	3113.25
2502.14	3130.88
2505.29	3167.42
2508.439	3223.72
2511.589	3210.12
2514.738	3487.94
2517.887	3417.03
2521.035	3626.9
2524.183	3643.16
2527.331	3672.62
2530.479	3675.57
2533.627	3691.43
