Data from C_3_DEC_VA_2N_Splice17_14-18-01-172.txt Node
Date: Sat Mar 07 14:18:01 EST 2020
User: sa697716
Spectrometer: NQ5500242
Trigger mode: 0
Integration Time (sec): 1.450000E-1
Scans to average: 20
Nonlinearity correction enabled: false
Boxcar width: 5
Storing dark spectrum: false
XAxis mode: Wavelengths
Number of Pixels in Spectrum: 512
>>>>>Begin Spectral Data<<<<<
187.83	166.56
188.298	192.98
188.766	158.91
189.233	137.78
189.701	142.2
190.169	172.56
190.636	196.89
191.104	274.57
191.571	231.5
192.039	43.42
192.506	134.69
192.974	131.57
193.441	273.31
193.908	68.57
194.375	66.57
194.842	48.17
195.31	63.06
195.777	-6.76
196.244	56.52
196.711	68.53
197.177	71.77
197.644	73.51
198.111	73.81
198.578	73.8
199.045	74.7
199.511	74.88
199.978	74.94
200.445	75.3
200.911	75.49
201.378	75.79
201.844	75.55
202.31	75.22
202.777	75.14
203.243	74.9
203.709	74.81
204.176	73.86
204.642	73.09
205.108	72.81
205.574	72.4
206.04	71.57
206.506	70.73
206.972	70.43
207.438	69.92
207.903	68.68
208.369	67.29
208.835	65.81
209.301	64.54
209.766	63.01
210.232	61.39
210.697	59.46
211.163	57.92
211.628	56.48
212.094	54.82
212.559	53.35
213.024	52.1
213.49	50.67
213.955	49.33
214.42	48
214.885	46.23
215.35	44.08
215.815	41.44
216.28	38.41
216.745	34.99
217.21	31.53
217.675	28.25
218.14	25.35
218.604	22.99
219.069	20.99
219.534	19.25
219.998	17.89
220.463	16.67
220.927	15.68
221.392	14.86
221.856	14.15
222.32	13.58
222.785	13.1
223.249	12.69
223.713	12.3
224.177	11.96
224.642	11.67
225.106	11.34
225.57	11.07
226.034	10.81
226.497	10.57
226.961	10.35
227.425	10.15
227.889	9.95
228.353	9.76
228.816	9.55
229.28	9.38
229.744	9.19
230.207	9.04
230.671	8.88
231.134	8.73
231.597	8.6
232.061	8.45
232.524	8.32
232.987	8.19
233.45	8.08
233.914	7.98
234.377	7.85
234.84	7.77
235.303	7.69
235.766	7.62
236.229	7.53
236.691	7.44
237.154	7.38
237.617	7.32
238.08	7.25
238.542	7.17
239.005	7.12
239.468	7.05
239.93	6.98
240.393	6.93
240.855	6.85
241.317	6.79
241.78	6.73
242.242	6.65
242.704	6.59
243.166	6.52
243.629	6.47
244.091	6.4
244.553	6.34
245.015	6.27
245.477	6.21
245.939	6.16
246.4	6.1
246.862	6.05
247.324	6.01
247.786	5.96
248.247	5.91
248.709	5.86
249.17	5.8
249.632	5.76
250.093	5.73
250.555	5.69
251.016	5.65
251.477	5.61
251.939	5.58
252.4	5.54
252.861	5.51
253.322	5.48
253.783	5.46
254.244	5.45
254.705	5.42
255.166	5.38
255.627	5.35
256.088	5.33
256.549	5.3
257.009	5.28
257.47	5.24
257.931	5.21
258.391	5.17
258.852	5.13
259.312	5.1
259.773	5.07
260.233	5.04
260.694	5.01
261.154	4.98
261.614	4.95
262.074	4.92
262.534	4.89
262.994	4.87
263.455	4.85
263.915	4.83
264.374	4.8
264.834	4.79
265.294	4.77
265.754	4.76
266.214	4.73
266.673	4.72
267.133	4.71
267.593	4.7
268.052	4.69
268.512	4.68
268.971	4.67
269.431	4.66
269.89	4.65
270.349	4.64
270.809	4.63
271.268	4.62
271.727	4.61
272.186	4.6
272.645	4.6
273.104	4.58
273.563	4.58
274.022	4.57
274.481	4.56
274.94	4.55
275.399	4.55
275.857	4.54
276.316	4.53
276.775	4.52
277.233	4.53
277.692	4.52
278.15	4.51
278.609	4.51
279.067	4.51
279.525	4.51
279.984	4.5
280.442	4.5
280.9	4.5
281.358	4.5
281.816	4.51
282.274	4.5
282.732	4.5
283.19	4.5
283.648	4.49
284.106	4.48
284.564	4.49
285.021	4.49
285.479	4.48
285.937	4.48
286.394	4.48
286.852	4.47
287.309	4.47
287.767	4.45
288.224	4.44
288.682	4.44
289.139	4.43
289.596	4.41
290.053	4.39
290.511	4.37
290.968	4.35
291.425	4.33
291.882	4.32
292.339	4.3
292.796	4.29
293.252	4.28
293.709	4.26
294.166	4.25
294.623	4.24
295.079	4.23
295.536	4.22
295.992	4.22
296.449	4.2
296.905	4.19
297.362	4.18
297.818	4.17
298.274	4.16
298.731	4.15
299.187	4.14
299.643	4.13
300.099	4.13
300.555	4.11
301.011	4.11
301.467	4.1
301.923	4.1
302.379	4.1
302.835	4.1
303.291	4.09
303.746	4.09
304.202	4.09
304.658	4.09
305.113	4.08
305.569	4.09
306.024	4.09
306.479	4.09
306.935	4.09
307.39	4.09
307.845	4.09
308.301	4.1
308.756	4.1
309.211	4.1
309.666	4.12
310.121	4.11
310.576	4.12
311.031	4.11
311.486	4.11
311.94	4.12
312.395	4.12
312.85	4.12
313.305	4.12
313.759	4.12
314.214	4.12
314.668	4.11
315.123	4.11
315.577	4.11
316.032	4.11
316.486	4.12
316.94	4.11
317.394	4.11
317.849	4.1
318.303	4.09
318.757	4.08
319.211	4.07
319.665	4.06
320.119	4.04
320.572	4.03
321.026	4.01
321.48	3.99
321.934	3.98
322.387	3.96
322.841	3.96
323.295	3.95
323.748	3.95
324.202	3.95
324.655	3.96
325.108	3.96
325.562	3.96
326.015	3.97
326.468	3.97
326.921	3.97
327.374	3.97
327.827	3.98
328.28	3.97
328.733	3.97
329.186	3.96
329.639	3.96
330.092	3.96
330.545	3.95
330.997	3.95
331.45	3.95
331.903	3.96
332.355	3.97
332.808	3.97
333.26	3.98
333.713	3.98
334.165	3.98
334.617	3.99
335.069	4
335.522	4.01
335.974	4.01
336.426	4.01
336.878	4
337.33	4.01
337.782	4.01
338.234	4.02
338.686	4.03
339.137	4.03
339.589	4.02
340.041	4.02
340.493	4
340.944	3.98
341.396	3.98
341.847	3.97
342.299	3.94
342.75	3.92
343.201	3.9
343.653	3.89
344.104	3.87
344.555	3.85
345.006	3.84
345.457	3.83
345.908	3.82
346.359	3.82
346.81	3.81
347.261	3.81
347.712	3.81
348.163	3.81
348.613	3.79
349.064	3.8
349.515	3.8
349.965	3.8
350.416	3.79
350.866	3.79
351.317	3.79
351.767	3.78
352.217	3.78
352.668	3.78
353.118	3.78
353.568	3.78
354.018	3.78
354.468	3.78
354.918	3.79
355.368	3.8
355.818	3.8
356.268	3.8
356.718	3.81
357.168	3.81
357.617	3.8
358.067	3.81
358.517	3.83
358.966	3.84
359.416	3.84
359.865	3.83
360.315	3.84
360.764	3.84
361.213	3.84
361.663	3.83
362.112	3.83
362.561	3.85
363.01	3.84
363.459	3.82
363.908	3.82
364.357	3.81
364.806	3.81
365.255	3.81
365.703	3.82
366.152	3.83
366.601	3.83
367.05	3.84
367.498	3.83
367.947	3.84
368.395	3.84
368.844	3.84
369.292	3.84
369.74	3.84
370.189	3.83
370.637	3.83
371.085	3.82
371.533	3.81
371.981	3.8
372.429	3.8
372.877	3.8
373.325	3.8
373.773	3.8
374.221	3.8
374.669	3.8
375.116	3.79
375.564	3.78
376.012	3.77
376.459	3.78
376.907	3.8
377.354	3.8
377.801	3.8
378.249	3.81
378.696	3.82
379.143	3.83
379.591	3.85
380.038	3.86
380.485	3.87
380.932	3.88
381.379	3.89
381.826	3.89
382.273	3.9
382.72	3.89
383.166	3.9
383.613	3.89
384.06	3.89
384.506	3.89
384.953	3.9
385.4	3.91
385.846	3.93
386.292	3.93
386.739	3.94
387.185	3.95
387.631	3.98
388.078	4
388.524	4.02
388.97	4.05
389.416	4.08
389.862	4.11
390.308	4.15
390.754	4.19
391.2	4.22
391.645	4.26
392.091	4.3
392.537	4.32
392.983	4.37
393.428	4.4
393.874	4.43
394.319	4.46
394.765	4.48
395.21	4.5
395.655	4.52
396.101	4.56
396.546	4.59
396.991	4.62
397.436	4.65
397.881	4.69
398.326	4.73
398.771	4.77
399.216	4.81
399.661	4.86
400.106	4.9
400.551	4.93
400.995	4.95
401.44	4.98
401.885	5
402.329	5.03
402.774	5.06
403.218	5.09
403.663	5.13
404.107	5.15
404.551	5.16
404.995	5.19
405.44	5.2
405.884	5.23
406.328	5.27
406.772	5.29
407.216	5.32
407.66	5.34
408.104	5.34
408.547	5.35
408.991	5.37
409.435	5.39
409.879	5.42
410.322	5.45
410.766	5.48
411.209	5.5
411.653	5.53
412.096	5.55
412.54	5.57
412.983	5.59
413.426	5.63
413.869	5.66
414.312	5.71
414.756	5.74
415.199	5.76
415.642	5.78
416.085	5.8
416.527	5.81
416.97	5.82
417.413	5.84
417.856	5.85
418.298	5.85
418.741	5.85
419.184	5.84
419.626	5.84
420.069	5.85
420.511	5.85
420.953	5.84
421.396	5.86
421.838	5.87
422.28	5.88
422.722	5.9
423.164	5.91
423.606	5.89
424.048	5.9
424.49	5.9
424.932	5.9
425.374	5.89
425.816	5.86
426.258	5.83
426.699	5.81
427.141	5.79
427.582	5.77
428.024	5.77
428.465	5.78
428.907	5.77
429.348	5.75
429.789	5.74
430.231	5.75
430.672	5.77
431.113	5.79
431.554	5.81
431.995	5.83
432.436	5.83
432.877	5.85
433.318	5.86
433.759	5.88
434.2	5.9
434.64	5.93
435.081	5.93
435.522	5.95
435.962	5.98
436.403	6.02
436.843	6.05
437.284	6.06
437.724	6.08
438.164	6.09
438.604	6.12
439.045	6.14
439.485	6.16
439.925	6.18
440.365	6.21
440.805	6.21
441.245	6.22
441.685	6.24
442.125	6.29
442.564	6.32
443.004	6.35
443.444	6.36
443.883	6.41
444.323	6.45
444.762	6.49
445.202	6.52
445.641	6.56
446.081	6.62
446.52	6.66
446.959	6.7
447.398	6.75
447.837	6.8
448.276	6.83
448.716	6.87
449.154	6.92
449.593	6.97
450.032	7.01
450.471	7.03
450.91	7.03
451.349	7.04
451.787	7.06
452.226	7.05
452.664	7.06
453.103	7.07
453.541	7.06
453.98	7.06
454.418	7.03
454.856	7.01
455.295	7
455.733	6.98
456.171	6.97
456.609	6.96
457.047	6.92
457.485	6.89
457.923	6.89
458.361	6.87
458.798	6.86
459.236	6.85
459.674	6.85
460.111	6.84
460.549	6.83
460.987	6.82
461.424	6.82
461.862	6.83
462.299	6.84
462.736	6.82
463.173	6.83
463.611	6.82
464.048	6.82
464.485	6.82
464.922	6.82
465.359	6.82
465.796	6.83
466.233	6.83
466.67	6.83
467.106	6.84
467.543	6.84
467.98	6.83
468.416	6.83
468.853	6.83
469.29	6.83
469.726	6.84
470.162	6.84
470.599	6.85
471.035	6.85
471.471	6.85
471.907	6.84
472.344	6.85
472.78	6.86
473.216	6.86
473.652	6.87
474.088	6.87
474.523	6.87
474.959	6.87
475.395	6.85
475.831	6.85
476.266	6.86
476.702	6.86
477.138	6.86
477.573	6.85
478.008	6.87
478.444	6.86
478.879	6.86
479.314	6.85
479.75	6.85
480.185	6.84
480.62	6.84
481.055	6.84
481.49	6.83
481.925	6.84
482.36	6.84
482.795	6.84
483.229	6.85
483.664	6.86
484.099	6.87
484.534	6.89
484.968	6.92
485.403	6.94
485.837	6.97
486.271	7.01
486.706	7.04
487.14	7.08
487.574	7.12
488.009	7.17
488.443	7.22
488.877	7.27
489.311	7.33
489.745	7.39
490.179	7.46
490.613	7.52
491.046	7.58
491.48	7.66
491.914	7.75
492.348	7.83
492.781	7.92
493.215	8.01
493.648	8.11
494.082	8.22
494.515	8.32
494.948	8.44
495.382	8.56
495.815	8.68
496.248	8.81
496.681	8.95
497.114	9.08
497.547	9.22
497.98	9.37
498.413	9.51
498.846	9.67
499.279	9.83
499.711	9.99
500.144	10.16
500.577	10.32
501.009	10.49
501.442	10.66
501.874	10.85
502.306	11.03
502.739	11.23
503.171	11.43
503.603	11.63
504.036	11.84
504.468	12.06
504.9	12.27
505.332	12.5
505.764	12.73
506.196	12.97
506.627	13.22
507.059	13.46
507.491	13.71
507.923	13.95
508.354	14.23
508.786	14.48
509.217	14.75
509.649	15.02
510.08	15.29
510.512	15.56
510.943	15.82
511.374	16.09
511.805	16.37
512.237	16.64
512.668	16.93
513.099	17.2
513.53	17.49
513.961	17.77
514.391	18.06
514.822	18.36
515.253	18.63
515.684	18.91
516.114	19.19
516.545	19.46
516.975	19.74
517.406	20
517.836	20.25
518.267	20.51
518.697	20.76
519.127	21
519.558	21.22
519.988	21.47
520.418	21.72
520.848	21.94
521.278	22.16
521.708	22.47
522.138	22.68
522.567	22.9
522.997	23.09
523.427	23.3
523.857	23.48
524.286	23.67
524.716	23.84
525.145	24.01
525.575	24.19
526.004	24.36
526.433	24.43
526.863	24.58
527.292	24.73
527.721	24.87
528.15	24.98
528.579	25.11
529.008	25.23
529.437	25.34
529.866	25.44
530.295	25.54
530.724	25.63
531.152	25.72
531.581	25.81
532.01	25.89
532.438	25.97
532.867	26.06
533.295	26.13
533.723	26.18
534.152	26.24
534.58	26.3
535.008	26.33
535.436	26.39
535.865	26.43
536.293	26.46
536.721	26.48
537.149	26.5
537.576	26.52
538.004	26.54
538.432	26.57
538.86	26.59
539.287	26.61
539.715	26.64
540.143	26.65
540.57	26.65
540.998	26.66
541.425	26.68
541.852	26.7
542.28	26.71
542.707	26.73
543.134	26.75
543.561	26.78
543.988	26.81
544.415	26.81
544.842	26.82
545.269	26.86
545.696	26.9
546.123	26.93
546.549	26.95
546.976	26.99
547.403	27.04
547.829	27.05
548.256	27.07
548.682	27.08
549.108	27.13
549.535	27.16
549.961	27.17
550.387	27.18
550.813	27.19
551.24	27.21
551.666	27.21
552.092	27.2
552.518	27.21
552.943	27.18
553.369	27.18
553.795	27.16
554.221	27.14
554.646	27.12
555.072	27.12
555.498	27.1
555.923	27.07
556.349	27.04
556.774	27
557.199	26.95
557.625	26.92
558.05	26.88
558.475	26.84
558.9	26.8
559.325	26.76
559.75	26.69
560.175	26.64
560.6	26.56
561.025	26.51
561.449	26.45
561.874	26.38
562.299	26.31
562.723	26.23
563.148	26.14
563.572	26.04
563.997	25.94
564.421	25.85
564.846	25.74
565.27	25.64
565.694	25.54
566.118	25.42
566.542	25.3
566.966	25.16
567.39	25.06
567.814	24.93
568.238	24.81
568.662	24.7
569.086	24.58
569.509	24.45
569.933	24.34
570.357	24.2
570.78	24.09
571.204	23.97
571.627	23.88
572.05	23.75
572.474	23.65
572.897	23.57
573.32	23.46
573.743	23.36
574.166	23.26
574.589	23.16
575.012	23.07
575.435	22.99
575.858	22.91
576.281	22.82
576.704	22.75
577.126	22.68
577.549	22.59
577.972	22.51
578.394	22.42
578.817	22.35
579.239	22.29
579.661	22.22
580.084	22.16
580.506	22.1
580.928	22.01
581.35	21.94
581.772	21.86
582.194	21.81
582.616	21.76
583.038	21.71
583.46	21.63
583.882	21.55
584.303	21.5
584.725	21.45
585.147	21.4
585.568	21.35
585.99	21.29
586.411	21.24
586.833	21.19
587.254	21.14
587.675	21.11
588.096	21.07
588.518	21.03
588.939	20.98
589.36	20.92
589.781	20.87
590.202	20.84
590.623	20.81
591.043	20.78
591.464	20.74
591.885	20.71
592.305	20.66
592.726	20.64
593.147	20.61
593.567	20.58
593.987	20.55
594.408	20.52
594.828	20.48
595.248	20.45
595.669	20.42
596.089	20.38
596.509	20.35
596.929	20.33
597.349	20.3
597.769	20.26
598.189	20.23
598.608	20.22
599.028	20.21
599.448	20.18
599.867	20.14
600.287	20.12
600.706	20.07
601.126	20.03
601.545	19.99
601.965	19.96
602.384	19.93
602.803	19.87
603.222	19.83
603.641	19.78
604.061	19.74
604.48	19.7
604.898	19.63
605.317	19.59
605.736	19.54
606.155	19.48
606.574	19.42
606.992	19.34
607.411	19.3
607.829	19.2
608.248	19.13
608.666	19.06
609.085	18.99
609.503	18.94
609.921	18.88
610.339	18.82
610.758	18.77
611.176	18.7
611.594	18.64
612.012	18.56
612.43	18.51
612.847	18.45
613.265	18.38
613.683	18.33
614.101	18.25
614.518	18.18
614.936	18.11
615.353	18.04
615.771	17.99
616.188	17.93
616.606	17.89
617.023	17.84
617.44	17.79
617.857	17.73
618.274	17.68
618.691	17.63
619.108	17.59
619.525	17.55
619.942	17.51
620.359	17.48
620.776	17.46
621.192	17.42
621.609	17.4
622.026	17.37
622.442	17.36
622.859	17.33
623.275	17.32
623.691	17.31
624.108	17.29
624.524	17.27
624.94	17.26
625.356	17.24
625.772	17.22
626.188	17.22
626.604	17.21
627.02	17.19
627.436	17.19
627.852	17.18
628.268	17.16
628.683	17.15
629.099	17.14
629.514	17.12
629.93	17.09
630.345	17.07
630.761	17.02
631.176	16.98
631.591	16.92
632.007	16.87
632.422	16.8
632.837	16.74
633.252	16.66
633.667	16.58
634.082	16.48
634.497	16.39
634.911	16.29
635.326	16.19
635.741	16.07
636.155	15.96
636.57	15.82
636.984	15.67
637.399	15.52
637.813	15.38
638.228	15.21
638.642	15.05
639.056	14.88
639.47	14.72
639.884	14.54
640.298	14.36
640.712	14.19
641.126	14.03
641.54	13.86
641.954	13.69
642.368	13.52
642.781	13.36
643.195	13.2
643.609	13.05
644.022	12.9
644.436	12.76
644.849	12.63
645.262	12.49
645.676	12.36
646.089	12.24
646.502	12.14
646.915	12.05
647.328	11.96
647.741	11.88
648.154	11.8
648.567	11.73
648.98	11.66
649.393	11.6
649.805	11.55
650.218	11.5
650.631	11.47
651.043	11.42
651.456	11.38
651.868	11.33
652.28	11.28
652.693	11.23
653.105	11.18
653.517	11.11
653.929	11.06
654.341	11
654.753	10.93
655.165	10.85
655.577	10.77
655.989	10.68
656.401	10.6
656.813	10.51
657.224	10.41
657.636	10.29
658.047	10.2
658.459	10.08
658.87	9.96
659.282	9.84
659.693	9.72
660.104	9.58
660.515	9.45
660.926	9.31
661.338	9.18
661.749	9.05
662.159	8.92
662.57	8.8
662.981	8.68
663.392	8.55
663.803	8.44
664.213	8.32
664.624	8.22
665.035	8.12
665.445	8.02
665.855	7.94
666.266	7.86
666.676	7.79
667.086	7.71
667.497	7.65
667.907	7.6
668.317	7.53
668.727	7.48
669.137	7.44
669.547	7.4
669.956	7.37
670.366	7.33
670.776	7.29
671.186	7.27
671.595	7.25
672.005	7.23
672.414	7.22
672.824	7.21
673.233	7.23
673.642	7.23
674.052	7.23
674.461	7.24
674.87	7.26
675.279	7.29
675.688	7.33
676.097	7.36
676.506	7.4
676.915	7.44
677.323	7.5
677.732	7.56
678.141	7.63
678.549	7.71
678.958	7.81
679.366	7.92
679.775	8.03
680.183	8.16
680.592	8.32
681	8.51
681.408	8.71
681.816	8.94
682.224	9.18
682.632	9.44
683.04	9.72
683.448	10.03
683.856	10.36
684.264	10.72
684.671	11.1
685.079	11.5
685.487	11.94
685.894	12.39
686.302	12.87
686.709	13.37
687.116	13.88
687.524	14.42
687.931	14.97
688.338	15.54
688.745	16.12
689.152	16.7
689.559	17.31
689.966	17.9
690.373	18.5
690.78	19.09
691.187	19.69
691.593	20.29
692	20.89
692.407	21.45
692.813	22.03
693.22	22.59
693.626	23.16
694.032	23.69
694.439	24.22
694.845	24.75
695.251	25.25
695.657	25.73
696.063	26.2
696.469	26.68
696.875	27.16
697.281	27.62
697.687	28.05
698.093	28.47
698.498	28.88
698.904	29.29
699.31	29.67
699.715	30.06
700.12	30.42
700.526	30.79
700.931	31.1
701.337	31.42
701.742	31.72
702.147	32.04
702.552	32.35
702.957	32.61
703.362	32.87
703.767	33.11
704.172	33.36
704.577	33.6
704.981	33.84
705.386	34.08
705.791	34.31
706.195	34.55
706.6	34.75
707.004	34.94
707.408	35.16
707.813	35.4
708.217	35.6
708.621	35.8
709.025	35.99
709.43	36.16
709.834	36.36
710.237	36.53
710.641	36.69
711.045	36.86
711.449	37.04
711.853	37.21
712.256	37.36
712.66	37.5
713.064	37.64
713.467	37.78
713.87	37.94
714.274	38.05
714.677	38.17
715.08	38.3
715.484	38.43
715.887	38.58
716.29	38.66
716.693	38.78
717.096	38.92
717.499	39.03
717.901	39.13
718.304	39.23
718.707	39.35
719.109	39.48
719.512	39.59
719.915	39.69
720.317	39.76
720.719	39.84
721.122	39.93
721.524	40
721.926	40.1
722.328	40.2
722.731	40.27
723.133	40.35
723.535	40.4
723.937	40.47
724.338	40.51
724.74	40.58
725.142	40.67
725.544	40.71
725.945	40.8
726.347	40.83
726.748	40.87
727.15	40.93
727.551	41
727.952	41.05
728.354	41.12
728.755	41.17
729.156	41.2
729.557	41.23
729.958	41.27
730.359	41.27
730.76	41.32
731.161	41.36
731.562	41.39
731.962	41.37
732.363	41.4
732.763	41.43
733.164	41.47
733.564	41.5
733.965	41.52
734.365	41.56
734.766	41.61
735.166	41.63
735.566	41.65
735.966	41.68
736.366	41.71
736.766	41.71
737.166	41.71
737.566	41.72
737.966	41.74
738.365	41.76
738.765	41.78
739.165	41.77
739.564	41.78
739.964	41.79
740.363	41.79
740.763	41.8
741.162	41.84
741.561	41.84
741.96	41.85
742.36	41.89
742.759	41.9
743.158	41.9
743.557	41.91
743.955	41.93
744.354	41.93
744.753	41.98
745.152	42.01
745.55	42.03
745.949	42.05
746.348	42.09
746.746	42.07
747.144	42.11
747.543	42.13
747.941	42.15
748.339	42.15
748.737	42.16
749.136	42.13
749.534	42.11
749.932	42.1
750.33	42.07
750.727	42.07
751.125	42.07
751.523	42.02
751.921	42.03
752.318	42.03
752.716	42.03
753.113	42.04
753.511	42.02
753.908	42.04
754.305	42.03
754.703	42.03
755.1	42
755.497	42
755.894	42.01
756.291	41.98
756.688	41.95
757.085	41.94
757.482	41.91
757.878	41.9
758.275	41.86
758.672	41.85
759.068	41.87
759.465	41.87
759.861	41.88
760.258	41.87
760.654	41.87
761.05	41.86
761.447	41.86
761.843	41.86
762.239	41.86
762.635	41.87
763.031	41.87
763.427	41.84
763.822	41.85
764.218	41.85
764.614	41.85
765.01	41.85
765.405	41.84
765.801	41.83
766.196	41.85
766.592	41.85
766.987	41.85
767.382	41.84
767.778	41.82
768.173	41.82
768.568	41.79
768.963	41.8
769.358	41.81
769.753	41.82
770.148	41.84
770.542	41.83
770.937	41.83
771.332	41.85
771.726	41.87
772.121	41.87
772.515	41.88
772.91	41.88
773.304	41.89
773.699	41.89
774.093	41.87
774.487	41.87
774.881	41.87
775.275	41.87
775.669	41.85
776.063	41.83
776.457	41.83
776.851	41.82
777.245	41.81
777.638	41.77
778.032	41.76
778.425	41.8
778.819	41.81
779.212	41.8
779.606	41.81
779.999	41.8
780.392	41.84
780.786	41.86
781.179	41.88
781.572	41.92
781.965	41.93
782.358	41.95
782.751	41.92
783.143	41.91
783.536	41.91
783.929	41.91
784.322	41.93
784.714	41.91
785.107	41.91
785.499	41.92
785.891	41.91
786.284	41.94
786.676	41.94
787.068	41.97
787.46	41.97
787.852	41.98
788.245	41.99
788.636	41.98
789.028	41.99
789.42	41.97
789.812	41.97
790.204	41.97
790.595	41.97
790.987	41.97
791.378	41.97
791.77	42
792.161	42
792.553	42.01
792.944	42.03
793.335	42.05
793.726	42.07
794.117	42.06
794.508	42.03
794.899	42.03
795.29	42.01
795.681	42.01
796.072	42
796.463	41.99
796.853	41.98
797.244	41.96
797.634	41.95
798.025	41.97
798.415	42.01
798.806	42.04
799.196	42.05
799.586	42.05
799.976	42.05
800.366	42.05
800.756	42.08
801.146	42.1
801.536	42.14
801.926	42.14
802.316	42.15
802.706	42.15
803.095	42.15
803.485	42.14
803.874	42.15
804.264	42.18
804.653	42.2
805.043	42.2
805.432	42.17
805.821	42.15
806.21	42.16
806.599	42.15
806.988	42.15
807.377	42.15
807.766	42.19
808.155	42.17
808.544	42.17
808.933	42.17
809.321	42.17
809.71	42.19
810.098	42.22
810.487	42.19
810.875	42.2
811.264	42.18
811.652	42.19
812.04	42.19
812.428	42.22
812.816	42.21
813.204	42.22
813.592	42.21
813.98	42.22
814.368	42.23
814.756	42.26
815.144	42.26
815.531	42.27
815.919	42.26
816.306	42.25
816.694	42.25
817.081	42.28
817.469	42.26
817.856	42.26
818.243	42.26
818.63	42.25
819.017	42.25
819.404	42.23
819.791	42.22
820.178	42.24
820.565	42.21
820.952	42.19
821.339	42.14
821.725	42.14
822.112	42.16
822.498	42.17
822.885	42.18
823.271	42.16
823.657	42.13
824.044	42.12
824.43	42.12
824.816	42.13
825.202	42.12
825.588	42.12
825.974	42.11
826.36	42.08
826.746	42.06
827.132	42.05
827.517	42.04
827.903	42.06
828.289	42.06
828.674	42.03
829.06	42
829.445	41.98
829.83	41.98
830.216	41.95
830.601	41.94
830.986	41.9
831.371	41.87
831.756	41.86
832.141	41.85
832.526	41.83
832.911	41.84
833.295	41.85
833.68	41.84
834.065	41.83
834.449	41.83
834.834	41.83
835.218	41.84
835.603	41.82
835.987	41.79
836.371	41.75
836.755	41.71
837.139	41.67
837.524	41.66
837.908	41.65
838.291	41.64
838.675	41.61
839.059	41.6
839.443	41.58
839.827	41.57
840.21	41.55
840.594	41.55
840.977	41.55
841.361	41.54
841.744	41.52
842.127	41.5
842.511	41.5
842.894	41.5
843.277	41.48
843.66	41.45
844.043	41.43
844.426	41.44
844.809	41.45
845.191	41.45
845.574	41.45
845.957	41.47
846.339	41.46
846.722	41.45
847.104	41.47
847.487	41.47
847.869	41.48
848.252	41.47
848.634	41.46
849.016	41.45
849.398	41.47
849.78	41.46
850.162	41.45
850.544	41.44
850.926	41.45
851.307	41.42
851.689	41.41
852.071	41.41
852.452	41.42
852.834	41.44
853.215	41.44
853.597	41.44
853.978	41.45
854.359	41.45
854.741	41.44
855.122	41.43
855.503	41.44
855.884	41.45
856.265	41.46
856.646	41.47
857.026	41.46
857.407	41.46
857.788	41.44
858.169	41.43
858.549	41.43
858.93	41.45
859.31	41.44
859.69	41.44
860.071	41.45
860.451	41.43
860.831	41.42
861.211	41.41
861.591	41.38
861.971	41.38
862.351	41.4
862.731	41.4
863.111	41.37
863.491	41.38
863.87	41.37
864.25	41.35
864.629	41.36
865.009	41.36
865.388	41.34
865.768	41.36
866.147	41.37
866.526	41.37
866.905	41.38
867.284	41.39
867.663	41.39
868.042	41.4
868.421	41.42
868.8	41.41
869.179	41.39
869.558	41.41
869.936	41.43
870.315	41.4
870.693	41.4
871.072	41.41
871.45	41.41
871.828	41.42
872.207	41.41
872.585	41.38
872.963	41.38
873.341	41.4
873.719	41.38
874.097	41.37
874.475	41.4
874.853	41.39
875.23	41.39
875.608	41.38
875.986	41.4
876.363	41.43
876.741	41.44
877.118	41.46
877.495	41.46
877.873	41.48
878.25	41.5
878.627	41.5
879.004	41.5
879.381	41.52
879.758	41.52
880.135	41.5
880.512	41.48
880.889	41.48
881.265	41.46
881.642	41.45
882.019	41.44
882.395	41.44
882.772	41.43
883.148	41.4
883.524	41.37
883.901	41.36
884.277	41.34
884.653	41.33
885.029	41.3
885.405	41.3
885.781	41.28
886.157	41.27
886.532	41.26
886.908	41.23
887.284	41.22
887.659	41.18
888.035	41.15
888.411	41.14
888.786	41.15
889.161	41.16
889.537	41.14
889.912	41.13
890.287	41.1
890.662	41.08
891.037	41.07
891.412	41.05
891.787	41.04
892.162	41.06
892.536	41.05
892.911	41
893.286	40.99
893.66	40.99
894.035	40.99
894.409	41
894.784	41
895.158	41
895.532	41
895.906	41.01
896.281	40.97
896.655	40.95
897.029	40.97
897.402	40.95
897.776	40.96
898.15	40.94
898.524	40.94
898.898	40.93
899.271	40.94
899.645	40.96
900.018	40.97
900.392	41
900.765	41.02
901.138	41.02
901.511	41.02
901.884	41.05
902.258	41.07
902.631	41.07
903.003	41.08
903.376	41.07
903.749	41.04
904.122	41.06
904.495	41.08
904.867	41.1
905.24	41.12
905.612	41.15
905.985	41.11
906.357	41.13
906.729	41.14
907.102	41.17
907.474	41.18
907.846	41.2
908.218	41.21
908.59	41.22
908.962	41.21
909.334	41.2
909.705	41.21
910.077	41.24
910.449	41.23
910.82	41.21
911.192	41.18
911.563	41.17
911.935	41.18
912.306	41.2
912.677	41.19
913.048	41.22
913.419	41.22
913.79	41.22
914.161	41.23
914.532	41.24
914.903	41.25
915.274	41.27
915.645	41.27
916.015	41.3
916.386	41.28
916.756	41.29
917.127	41.31
917.497	41.33
917.868	41.31
918.238	41.3
918.608	41.34
918.978	41.36
919.348	41.36
919.718	41.37
920.088	41.36
920.458	41.38
920.828	41.34
921.198	41.3
921.567	41.31
921.937	41.35
922.306	41.34
922.676	41.31
923.045	41.27
923.415	41.26
923.784	41.27
924.153	41.28
924.522	41.3
924.891	41.31
925.26	41.32
925.629	41.33
925.998	41.32
926.367	41.32
926.736	41.32
927.104	41.35
927.473	41.35
927.842	41.31
928.21	41.35
928.578	41.31
928.947	41.36
929.315	41.35
929.683	41.32
930.051	41.29
930.42	41.3
930.788	41.26
931.156	41.22
931.523	41.22
931.891	41.25
932.259	41.22
932.627	41.24
932.994	41.18
933.362	41.14
933.729	41.15
934.097	41.17
934.464	41.14
934.831	41.19
935.199	41.24
935.566	41.3
935.933	41.32
936.3	41.3
936.667	41.29
937.034	41.33
937.401	41.41
937.767	41.46
938.134	41.49
938.501	41.57
938.867	41.59
939.234	41.62
939.6	41.61
939.967	41.64
940.333	41.72
940.699	41.82
941.065	41.83
941.431	41.87
941.798	41.86
942.163	41.88
942.529	41.89
942.895	41.94
943.261	41.96
943.627	41.98
943.992	41.94
944.358	41.95
944.723	41.93
945.089	41.95
945.454	41.98
945.82	42.03
946.185	42.04
946.55	42
946.915	41.97
947.28	41.97
947.645	42.03
948.01	42.05
948.375	41.98
948.74	41.97
949.104	41.97
949.469	41.96
949.834	41.93
950.198	41.92
950.562	41.9
950.927	41.86
951.291	41.78
951.655	41.7
952.02	41.68
952.384	41.64
952.748	41.61
953.112	41.57
953.476	41.51
953.839	41.46
954.203	41.38
954.567	41.39
954.931	41.36
955.294	41.35
955.658	41.38
956.021	41.33
956.385	41.35
956.748	41.29
957.111	41.28
957.474	41.25
957.837	41.18
958.2	41.18
958.563	41.16
958.926	41.16
959.289	41.19
959.652	41.08
960.015	41.07
960.377	41.07
960.74	41.12
961.102	41.08
961.465	41.11
961.827	41.15
962.189	41.16
962.552	41.1
962.914	41.08
963.276	41.08
963.638	41.11
964	41.09
964.362	41.08
964.724	41.01
965.085	41
965.447	40.96
965.809	40.93
966.17	40.89
966.532	40.94
966.893	40.94
967.255	40.94
967.616	40.94
967.977	40.97
968.338	40.93
968.699	40.95
969.061	40.99
969.421	40.99
969.782	41.05
970.143	41.06
970.504	41.05
970.865	41.07
971.225	41.02
971.586	41.01
971.946	40.99
972.307	40.99
972.667	40.99
973.027	40.97
973.388	40.97
973.748	40.96
974.108	41.03
974.468	41.02
974.828	41.06
975.188	41.1
975.548	41.09
975.907	41.16
976.267	41.25
976.627	41.3
976.986	41.28
977.346	41.27
977.705	41.22
978.064	41.23
978.424	41.3
978.783	41.24
979.142	41.22
979.501	41.29
979.86	41.31
980.219	41.28
980.578	41.29
980.937	41.38
981.296	41.39
981.654	41.46
982.013	41.45
982.371	41.41
982.73	41.48
983.088	41.58
983.447	41.57
983.805	41.57
984.163	41.59
984.521	41.57
984.879	41.57
985.237	41.65
985.595	41.67
985.953	41.65
986.311	41.67
986.669	41.69
987.026	41.66
987.384	41.7
987.741	41.62
988.099	41.68
988.456	41.68
988.814	41.67
989.171	41.69
989.528	41.76
989.885	41.8
990.242	41.81
990.599	41.88
990.956	41.9
991.313	41.9
991.67	41.95
992.027	42.03
992.383	42.17
992.74	42.27
993.096	42.2
993.453	42.21
993.809	42.28
994.165	42.34
994.522	42.34
994.878	42.46
995.234	42.54
995.59	42.63
995.946	42.64
996.302	42.54
996.658	42.6
997.013	42.69
997.369	42.7
997.725	42.71
998.08	42.82
998.436	42.84
998.791	42.87
999.147	42.86
999.502	42.94
999.857	42.92
1000.212	43.02
1000.567	43.03
1000.922	43.07
1001.277	43.03
1001.632	43.03
1001.987	42.95
1002.342	43.04
1002.696	43.04
1003.051	43.25
1003.406	43.37
1003.76	43.4
1004.114	43.38
1004.469	43.51
1004.823	43.84
1005.177	43.95
1005.531	44.15
1005.885	44.3
1006.239	44.24
1006.593	44.33
1006.947	44.22
1007.301	44.17
1007.655	44.31
1008.008	44.45
1008.362	44.58
1008.715	44.44
1009.069	44.65
1009.422	44.6
1009.776	44.68
1010.129	44.95
1010.482	44.93
1010.835	45.05
1011.188	45.15
1011.541	45.18
1011.894	45.34
1012.247	45.31
1012.6	45.32
1012.952	45.19
1013.305	45.35
1013.657	45.42
1014.01	45.49
1014.362	45.56
1014.715	45.7
1015.067	45.87
1015.419	46.07
1015.771	46.16
1016.123	46.18
1016.475	46.37
1016.827	46.64
1017.179	46.69
1017.531	46.73
1017.883	46.73
1018.234	46.97
1018.586	47
1018.938	47.1
1019.289	47.04
1019.64	47.12
1019.992	47.35
1020.343	47.34
1020.694	47.47
1021.045	47.72
1021.396	48.1
1021.747	48.23
1022.098	48.35
1022.449	48.3
1022.8	48.28
1023.151	48.21
1023.501	48.36
1023.852	48.43
1024.202	48.68
1024.553	48.78
1024.903	48.85
1025.253	48.81
1025.604	48.87
1025.954	48.77
1026.304	49.24
1026.654	49.46
1027.004	49.87
1027.354	50.03
1027.703	49.94
1028.053	49.96
1028.403	50.03
1028.753	49.79
1029.102	49.94
1029.452	50.12
1029.801	50.41
1030.15	50.28
1030.499	50.25
897.758	949.15
901.051	963.24
904.343	964.52
907.636	979.09
910.928	954.13
914.22	950.05
917.511	938.08
920.803	901.01
924.094	898.77
927.384	873.68
930.675	840.81
933.965	837.34
937.255	782.25
940.544	750
943.834	718.1
947.123	711
950.411	672.77
953.7	659.51
956.988	624.99
960.276	600.49
963.563	591.21
966.851	568.43
970.138	563.73
973.424	549.01
976.711	549.81
979.997	523.17
983.283	520.15
986.568	508.84
989.853	493.74
993.138	483.14
996.423	465.37
999.708	452.63
1002.992	448.3
1006.275	428.99
1009.559	425.25
1012.842	410.04
1016.125	398.79
1019.408	390.49
1022.69	386.78
1025.972	378.25
1029.254	369.27
1032.536	361.72
1035.817	356.39
1039.098	351.68
1042.379	345.56
1045.659	341.15
1048.939	333.6
1052.219	326.44
1055.498	323.45
1058.778	315.09
1062.057	309.38
1065.335	306.71
1068.614	303.26
1071.892	299.41
1075.17	291.33
1078.447	286
1081.724	283.21
1085.001	281.02
1088.278	276.51
1091.554	270.99
1094.83	271.27
1098.106	268.78
1101.382	266.01
1104.657	264.08
1107.932	259.06
1111.206	260.82
1114.481	254
1117.755	252.89
1121.029	250.12
1124.302	249.07
1127.575	244.88
1130.848	241.98
1134.121	239.26
1137.393	238.76
1140.665	233.43
1143.937	231.91
1147.208	229.8
1150.48	229.09
1153.75	225.25
1157.021	222.53
1160.291	222.73
1163.561	219.67
1166.831	219.18
1170.101	217.69
1173.37	216.92
1176.639	217.74
1179.907	216.9
1183.176	214.37
1186.444	214.28
1189.711	214.2
1192.979	214.15
1196.246	212.43
1199.513	213.05
1202.78	211.98
1206.046	212.16
1209.312	210.17
1212.578	210.23
1215.843	210.86
1219.108	210.26
1222.373	214.13
1225.638	215.94
1228.902	218.52
1232.166	218.34
1235.43	219.3
1238.693	222.84
1241.956	223.43
1245.219	226.83
1248.482	227.29
1251.744	227.45
1255.006	227.4
1258.268	222.69
1261.529	220.42
1264.79	220.31
1268.051	218.89
1271.312	217.06
1274.572	213.76
1277.832	212.48
1281.092	209.53
1284.351	207.98
1287.61	207.92
1290.869	205.32
1294.128	204.2
1297.386	202.74
1300.644	200.46
1303.902	202.04
1307.159	200.71
1310.416	201.1
1313.673	200.04
1316.93	201.82
1320.186	201.3
1323.442	201.66
1326.697	204.32
1329.953	205.16
1333.208	206.97
1336.463	209.11
1339.717	208.75
1342.972	212.6
1346.226	214.12
1349.479	215.2
1352.733	215.43
1355.986	217.16
1359.238	217.03
1362.491	217.74
1365.743	219.73
1368.995	220.56
1372.247	218.56
1375.498	218.74
1378.749	218.78
1382	216.67
1385.251	217.4
1388.501	216.18
1391.751	216.03
1395	215.45
1398.25	214.08
1401.499	211.09
1404.748	210.36
1407.996	209.07
1411.244	208.18
1414.492	206.73
1417.74	204.05
1420.987	200.95
1424.234	200.67
1427.481	198.83
1430.728	198.42
1433.974	196.29
1437.22	195.67
1440.465	195.2
1443.711	193.48
1446.956	191.89
1450.201	189.79
1453.445	188.43
1456.689	187.8
1459.933	185.26
1463.177	183.06
1466.42	180.63
1469.663	178.58
1472.906	177.55
1476.148	172.44
1479.391	171.07
1482.633	169.82
1485.874	167.46
1489.115	166.39
1492.356	164.2
1495.597	163.29
1498.838	161.67
1502.078	160.21
1505.318	159.78
1508.557	159.81
1511.797	160.16
1515.036	158.25
1518.274	158
1521.513	157.25
1524.751	156.88
1527.989	156.75
1531.227	156.02
1534.464	156.01
1537.701	155.8
1540.938	155.07
1544.174	153.08
1547.41	152.77
1550.646	152.62
1553.882	151.81
1557.117	150.29
1560.352	149.44
1563.587	149.14
1566.821	148.12
1570.055	147.49
1573.289	145.01
1576.523	145.09
1579.756	144.53
1582.989	143.25
1586.222	143.26
1589.454	143.84
1592.686	144.07
1595.918	143.67
1599.15	143.08
1602.381	143.63
1605.612	142.96
1608.843	144.13
1612.073	143.95
1615.303	144.07
1618.533	144.67
1621.762	144.65
1624.992	144.15
1628.221	143.98
1631.449	143.66
1634.678	143.76
1637.906	144.75
1641.134	144.62
1644.361	144.62
1647.588	145
1650.815	144.76
1654.042	144.18
1657.269	144.4
1660.495	144.43
1663.72	144.15
1666.946	145.29
1670.171	145.7
1673.396	144.91
1676.621	144.48
1679.845	145.41
1683.069	145.47
1686.293	146.33
1689.517	146.83
1692.74	146.79
1695.963	147.35
1699.185	148.71
1702.408	147.88
1705.63	148.39
1708.852	148.56
1712.073	149.77
1715.294	149.48
1718.515	150.17
1721.736	149.72
1724.956	150.81
1728.176	150.94
1731.396	151.24
1734.616	150.8
1737.835	151.95
1741.054	150.57
1744.272	151.25
1747.491	152.11
1750.709	152.29
1753.927	152.26
1757.144	152.26
1760.361	152.07
1763.578	152.65
1766.795	152.55
1770.011	154.27
1773.227	154.08
1776.443	156.03
1779.658	155.87
1782.874	156.35
1786.089	156.29
1789.303	156.79
1792.518	158.39
1795.732	158.43
1798.945	159.45
1802.159	159.67
1805.372	159.11
1808.585	161.74
1811.797	162.45
1815.01	163.24
1818.222	163.69
1821.434	166.71
1824.645	166.85
1827.856	169.15
1831.067	170.09
1834.278	170.39
1837.488	171.9
1840.698	173.15
1843.908	171.5
1847.117	172.05
1850.326	173.51
1853.535	172.37
1856.744	173.99
1859.952	174.02
1863.16	172.87
1866.368	172.53
1869.575	172.84
1872.782	170.87
1875.989	170.01
1879.196	169.98
1882.402	168.84
1885.608	168.61
1888.814	169.01
1892.019	168.35
1895.224	167.79
1898.429	167.05
1901.634	167.78
1904.838	168.55
1908.042	169.29
1911.246	170.22
1914.449	170.31
1917.652	170.45
1920.855	170.46
1924.058	170.35
1927.26	168.95
1930.462	169.56
1933.664	172.01
1936.865	169.6
1940.066	169.15
1943.267	168.4
1946.467	168.37
1949.668	169.06
1952.868	171.03
1956.067	171.48
1959.267	171.17
1962.466	171.91
1965.665	170.98
1968.863	171.28
1972.061	175.22
1975.259	176.78
1978.457	178.04
1981.654	179.61
1984.852	180.48
1988.048	179.95
1991.245	181.44
1994.441	184.22
1997.637	185.31
2000.833	189.26
2004.028	191.85
2007.223	191.73
2010.418	193.31
2013.613	197.63
2016.807	199.05
2020.001	201.17
2023.194	204.33
2026.388	208.53
2029.581	214.01
2032.774	215.77
2035.966	219.19
2039.158	219.23
2042.35	223.82
2045.542	226.32
2048.733	229.09
2051.924	231.66
2055.115	235.6
2058.306	236.17
2061.496	237.69
2064.686	237.82
2067.875	242.23
2071.065	243.53
2074.254	241.69
2077.442	245.81
2080.631	245.66
2083.819	247.65
2087.007	249.15
2090.195	251.91
2093.382	254
2096.569	253.42
2099.756	255.73
2102.942	256.28
2106.128	258.18
2109.314	265.83
2112.5	264.22
2115.685	270.11
2118.87	270.69
2122.055	275.08
2125.239	275.63
2128.424	279.41
2131.608	282.08
2134.791	287.55
2137.974	288.21
2141.157	289.78
2144.34	289.18
2147.523	293.66
2150.705	292.33
2153.887	295.21
2157.068	296.66
2160.25	295.06
2163.431	296.44
2166.611	299.26
2169.792	304.15
2172.972	307.77
2176.152	310.33
2179.331	313.96
2182.511	318.47
2185.69	321.56
2188.868	327.95
2192.047	327.81
2195.225	337.67
2198.403	344.15
2201.58	349.96
2204.758	356.47
2207.935	362.92
2211.111	371.29
2214.288	374.42
2217.464	374.63
2220.64	381.53
2223.815	385.45
2226.991	402.39
2230.166	402.43
2233.34	409.4
2236.515	417.14
2239.689	417.93
2242.863	421.14
2246.036	429.61
2249.209	426.63
2252.382	435.79
2255.555	447.41
2258.727	450.45
2261.9	453.48
2265.071	456.87
2268.243	465.91
2271.414	471.59
2274.585	479.27
2277.756	483.61
2280.926	489.22
2284.096	502.17
2287.266	511.51
2290.436	515.53
2293.605	526.32
2296.774	541.93
2299.942	556.77
2303.111	559.98
2306.279	571.83
2309.447	581.99
2312.614	599.41
2315.781	613.63
2318.948	642.61
2322.115	632.35
2325.281	668.03
2328.447	656.81
2331.613	679.84
2334.779	676.71
2337.944	705.16
2341.109	711.74
2344.274	731.37
2347.438	754.68
2350.602	756.99
2353.766	776.51
2356.929	791.02
2360.092	785.72
2363.255	839.15
2366.418	839.78
2369.58	852.81
2372.742	908.37
2375.904	930.88
2379.066	923.23
2382.227	906.55
2385.388	980.56
2388.548	980.47
2391.709	993.92
2394.869	1101.8
2398.029	1061.68
2401.188	1089.9
2404.347	1089.05
2407.506	1065.58
2410.665	1095.14
2413.823	1161.59
2416.981	1227.57
2420.139	1189.43
2423.296	1181.17
2426.453	1235.29
2429.61	1192.08
2432.767	1239.43
2435.923	1226.11
2439.079	1346.98
2442.235	1369.32
2445.391	1358.34
2448.546	1346.39
2451.701	1310.29
2454.855	1306.14
2458.009	1391.71
2461.163	1446.57
2464.317	1490.13
2467.471	1528.93
2470.624	1533.01
2473.777	1484.53
2476.929	1437.93
2480.082	1395.24
2483.234	1383.13
2486.385	1459.07
2489.537	1466.05
2492.688	1504.2
2495.839	1468.17
2498.989	1441.18
2502.14	1444.13
2505.29	1460.62
2508.439	1476.49
2511.589	1480.06
2514.738	1615.46
2517.887	1574.06
2521.035	1652.53
2524.183	1668.19
2527.331	1685.97
2530.479	1663.2
2533.627	1676.99
