Data from C_3_HIR_WI_4N_Splice17_14-02-15-959.txt Node
Date: Sat Mar 07 14:02:15 EST 2020
User: sa697716
Spectrometer: NQ5500242
Trigger mode: 0
Integration Time (sec): 1.450000E-1
Scans to average: 20
Nonlinearity correction enabled: false
Boxcar width: 5
Storing dark spectrum: false
XAxis mode: Wavelengths
Number of Pixels in Spectrum: 512
>>>>>Begin Spectral Data<<<<<
187.83	101.6
188.298	126.76
188.766	127.18
189.233	115.23
189.701	136.68
190.169	149.34
190.636	134.79
191.104	179.01
191.571	76.2
192.039	139.42
192.506	155.93
192.974	3.08
193.441	69.93
193.908	119.45
194.375	132.41
194.842	157.91
195.31	186.89
195.777	232.47
196.244	59.79
196.711	54.8
197.177	57.01
197.644	56.66
198.111	56.89
198.578	56.94
199.045	57.02
199.511	56.64
199.978	56.78
200.445	57.04
200.911	56.78
201.378	57.14
201.844	57.2
202.31	56.9
202.777	56.83
203.243	56.55
203.709	56.28
204.176	55.78
204.642	55.58
205.108	55.24
205.574	54.68
206.04	54.29
206.506	53.74
206.972	53.49
207.438	52.77
207.903	52.07
208.369	51.12
208.835	50.16
209.301	49.24
209.766	47.73
210.232	46.55
210.697	45.25
211.163	44.36
211.628	43.21
212.094	41.63
212.559	40.68
213.024	39.73
213.49	38.95
213.955	37.99
214.42	36.98
214.885	35.99
215.35	34.65
215.815	32.93
216.28	30.53
216.745	28.07
217.21	25.78
217.675	23.52
218.14	21.47
218.604	19.71
219.069	18.23
219.534	16.99
219.998	15.97
220.463	15.13
220.927	14.39
221.392	13.8
221.856	13.29
222.32	12.85
222.785	12.54
223.249	12.21
223.713	11.9
224.177	11.65
224.642	11.41
225.106	11.14
225.57	10.88
226.034	10.66
226.497	10.47
226.961	10.27
227.425	10.09
227.889	9.88
228.353	9.71
228.816	9.55
229.28	9.38
229.744	9.22
230.207	9.08
230.671	8.95
231.134	8.82
231.597	8.7
232.061	8.6
232.524	8.5
232.987	8.39
233.45	8.29
233.914	8.19
234.377	8.09
234.84	8
235.303	7.94
235.766	7.85
236.229	7.78
236.691	7.69
237.154	7.6
237.617	7.53
238.08	7.45
238.542	7.38
239.005	7.32
239.468	7.26
239.93	7.18
240.393	7.11
240.855	7.05
241.317	6.98
241.78	6.92
242.242	6.85
242.704	6.8
243.166	6.74
243.629	6.68
244.091	6.62
244.553	6.55
245.015	6.5
245.477	6.44
245.939	6.39
246.4	6.33
246.862	6.27
247.324	6.22
247.786	6.18
248.247	6.12
248.709	6.07
249.17	6.02
249.632	5.99
250.093	5.94
250.555	5.89
251.016	5.85
251.477	5.82
251.939	5.78
252.4	5.75
252.861	5.7
253.322	5.66
253.783	5.63
254.244	5.6
254.705	5.56
255.166	5.53
255.627	5.5
256.088	5.47
256.549	5.45
257.009	5.42
257.47	5.38
257.931	5.35
258.391	5.32
258.852	5.29
259.312	5.26
259.773	5.23
260.233	5.2
260.694	5.18
261.154	5.14
261.614	5.11
262.074	5.07
262.534	5.04
262.994	5.02
263.455	5
263.915	4.97
264.374	4.93
264.834	4.92
265.294	4.89
265.754	4.87
266.214	4.86
266.673	4.84
267.133	4.83
267.593	4.81
268.052	4.8
268.512	4.79
268.971	4.78
269.431	4.77
269.89	4.75
270.349	4.74
270.809	4.72
271.268	4.71
271.727	4.7
272.186	4.69
272.645	4.68
273.104	4.67
273.563	4.65
274.022	4.64
274.481	4.64
274.94	4.63
275.399	4.62
275.857	4.61
276.316	4.6
276.775	4.58
277.233	4.57
277.692	4.56
278.15	4.55
278.609	4.55
279.067	4.53
279.525	4.53
279.984	4.52
280.442	4.51
280.9	4.5
281.358	4.5
281.816	4.5
282.274	4.5
282.732	4.49
283.19	4.48
283.648	4.47
284.106	4.46
284.564	4.45
285.021	4.46
285.479	4.45
285.937	4.44
286.394	4.44
286.852	4.43
287.309	4.42
287.767	4.41
288.224	4.4
288.682	4.39
289.139	4.37
289.596	4.36
290.053	4.33
290.511	4.31
290.968	4.29
291.425	4.27
291.882	4.25
292.339	4.23
292.796	4.22
293.252	4.21
293.709	4.19
294.166	4.19
294.623	4.18
295.079	4.16
295.536	4.16
295.992	4.16
296.449	4.14
296.905	4.13
297.362	4.12
297.818	4.11
298.274	4.1
298.731	4.09
299.187	4.07
299.643	4.05
300.099	4.05
300.555	4.03
301.011	4.02
301.467	4.01
301.923	4
302.379	3.99
302.835	3.99
303.291	3.98
303.746	3.98
304.202	3.98
304.658	3.97
305.113	3.96
305.569	3.96
306.024	3.95
306.479	3.95
306.935	3.94
307.39	3.94
307.845	3.93
308.301	3.93
308.756	3.93
309.211	3.92
309.666	3.93
310.121	3.93
310.576	3.92
311.031	3.91
311.486	3.92
311.94	3.92
312.395	3.91
312.85	3.92
313.305	3.92
313.759	3.91
314.214	3.91
314.668	3.9
315.123	3.9
315.577	3.89
316.032	3.89
316.486	3.89
316.94	3.88
317.394	3.87
317.849	3.85
318.303	3.83
318.757	3.81
319.211	3.8
319.665	3.79
320.119	3.77
320.572	3.76
321.026	3.75
321.48	3.73
321.934	3.72
322.387	3.7
322.841	3.7
323.295	3.7
323.748	3.69
324.202	3.68
324.655	3.67
325.108	3.67
325.562	3.66
326.015	3.65
326.468	3.65
326.921	3.65
327.374	3.64
327.827	3.64
328.28	3.64
328.733	3.63
329.186	3.63
329.639	3.63
330.092	3.64
330.545	3.64
330.997	3.63
331.45	3.62
331.903	3.62
332.355	3.63
332.808	3.62
333.26	3.62
333.713	3.62
334.165	3.61
334.617	3.61
335.069	3.6
335.522	3.61
335.974	3.62
336.426	3.62
336.878	3.61
337.33	3.61
337.782	3.61
338.234	3.62
338.686	3.62
339.137	3.63
339.589	3.62
340.041	3.63
340.493	3.61
340.944	3.59
341.396	3.59
341.847	3.57
342.299	3.56
342.75	3.53
343.201	3.51
343.653	3.49
344.104	3.46
344.555	3.44
345.006	3.42
345.457	3.4
345.908	3.4
346.359	3.39
346.81	3.38
347.261	3.38
347.712	3.37
348.163	3.36
348.613	3.36
349.064	3.37
349.515	3.37
349.965	3.37
350.416	3.36
350.866	3.37
351.317	3.36
351.767	3.36
352.217	3.35
352.668	3.36
353.118	3.36
353.568	3.35
354.018	3.35
354.468	3.36
354.918	3.36
355.368	3.36
355.818	3.37
356.268	3.37
356.718	3.38
357.168	3.38
357.617	3.37
358.067	3.37
358.517	3.39
358.966	3.39
359.416	3.39
359.865	3.39
360.315	3.39
360.764	3.4
361.213	3.4
361.663	3.39
362.112	3.4
362.561	3.42
363.01	3.43
363.459	3.42
363.908	3.42
364.357	3.43
364.806	3.43
365.255	3.44
365.703	3.45
366.152	3.47
366.601	3.48
367.05	3.5
367.498	3.51
367.947	3.52
368.395	3.54
368.844	3.56
369.292	3.57
369.74	3.6
370.189	3.61
370.637	3.62
371.085	3.62
371.533	3.64
371.981	3.67
372.429	3.68
372.877	3.71
373.325	3.73
373.773	3.75
374.221	3.78
374.669	3.79
375.116	3.81
375.564	3.84
376.012	3.87
376.459	3.89
376.907	3.91
377.354	3.94
377.801	3.97
378.249	3.99
378.696	4.02
379.143	4.05
379.591	4.08
380.038	4.11
380.485	4.15
380.932	4.17
381.379	4.21
381.826	4.24
382.273	4.27
382.72	4.29
383.166	4.33
383.613	4.36
384.06	4.39
384.506	4.43
384.953	4.47
385.4	4.49
385.846	4.54
386.292	4.57
386.739	4.6
387.185	4.63
387.631	4.68
388.078	4.71
388.524	4.75
388.97	4.79
389.416	4.83
389.862	4.85
390.308	4.89
390.754	4.93
391.2	4.96
391.645	4.99
392.091	5.04
392.537	5.08
392.983	5.11
393.428	5.15
393.874	5.18
394.319	5.2
394.765	5.24
395.21	5.26
395.655	5.28
396.101	5.31
396.546	5.33
396.991	5.37
397.436	5.39
397.881	5.42
398.326	5.45
398.771	5.46
399.216	5.49
399.661	5.51
400.106	5.53
400.551	5.54
400.995	5.56
401.44	5.57
401.885	5.57
402.329	5.57
402.774	5.57
403.218	5.58
403.663	5.6
404.107	5.6
404.551	5.61
404.995	5.61
405.44	5.61
405.884	5.61
406.328	5.62
406.772	5.62
407.216	5.63
407.66	5.63
408.104	5.62
408.547	5.62
408.991	5.62
409.435	5.61
409.879	5.61
410.322	5.62
410.766	5.64
411.209	5.66
411.653	5.66
412.096	5.66
412.54	5.66
412.983	5.66
413.426	5.68
413.869	5.69
414.312	5.71
414.756	5.73
415.199	5.73
415.642	5.73
416.085	5.73
416.527	5.74
416.97	5.73
417.413	5.74
417.856	5.73
418.298	5.71
418.741	5.72
419.184	5.72
419.626	5.71
420.069	5.71
420.511	5.72
420.953	5.72
421.396	5.72
421.838	5.72
422.28	5.72
422.722	5.74
423.164	5.73
423.606	5.72
424.048	5.72
424.49	5.72
424.932	5.71
425.374	5.69
425.816	5.65
426.258	5.63
426.699	5.62
427.141	5.61
427.582	5.59
428.024	5.6
428.465	5.59
428.907	5.58
429.348	5.56
429.789	5.55
430.231	5.55
430.672	5.58
431.113	5.59
431.554	5.6
431.995	5.61
432.436	5.6
432.877	5.61
433.318	5.61
433.759	5.63
434.2	5.66
434.64	5.67
435.081	5.69
435.522	5.71
435.962	5.73
436.403	5.75
436.843	5.78
437.284	5.8
437.724	5.82
438.164	5.82
438.604	5.82
439.045	5.85
439.485	5.87
439.925	5.88
440.365	5.89
440.805	5.89
441.245	5.91
441.685	5.93
442.125	5.95
442.564	5.96
443.004	5.98
443.444	6.02
443.883	6.04
444.323	6.05
444.762	6.07
445.202	6.1
445.641	6.14
446.081	6.17
446.52	6.19
446.959	6.23
447.398	6.29
447.837	6.32
448.276	6.35
448.716	6.38
449.154	6.43
449.593	6.47
450.032	6.5
450.471	6.49
450.91	6.5
451.349	6.53
451.787	6.53
452.226	6.52
452.664	6.53
453.103	6.52
453.541	6.52
453.98	6.53
454.418	6.5
454.856	6.48
455.295	6.48
455.733	6.45
456.171	6.44
456.609	6.43
457.047	6.42
457.485	6.41
457.923	6.4
458.361	6.38
458.798	6.37
459.236	6.36
459.674	6.36
460.111	6.35
460.549	6.36
460.987	6.35
461.424	6.34
461.862	6.35
462.299	6.36
462.736	6.36
463.173	6.36
463.611	6.36
464.048	6.37
464.485	6.37
464.922	6.38
465.359	6.39
465.796	6.4
466.233	6.41
466.67	6.41
467.106	6.42
467.543	6.42
467.98	6.42
468.416	6.42
468.853	6.41
469.29	6.42
469.726	6.42
470.162	6.42
470.599	6.41
471.035	6.41
471.471	6.41
471.907	6.4
472.344	6.4
472.78	6.42
473.216	6.42
473.652	6.43
474.088	6.42
474.523	6.43
474.959	6.43
475.395	6.42
475.831	6.42
476.266	6.42
476.702	6.42
477.138	6.42
477.573	6.41
478.008	6.42
478.444	6.41
478.879	6.4
479.314	6.4
479.75	6.39
480.185	6.39
480.62	6.4
481.055	6.39
481.49	6.39
481.925	6.39
482.36	6.4
482.795	6.39
483.229	6.39
483.664	6.41
484.099	6.42
484.534	6.42
484.968	6.44
485.403	6.45
485.837	6.47
486.271	6.49
486.706	6.52
487.14	6.53
487.574	6.57
488.009	6.6
488.443	6.64
488.877	6.67
489.311	6.72
489.745	6.76
490.179	6.82
490.613	6.88
491.046	6.94
491.48	7.01
491.914	7.07
492.348	7.14
492.781	7.22
493.215	7.29
493.648	7.37
494.082	7.45
494.515	7.53
494.948	7.61
495.382	7.68
495.815	7.77
496.248	7.87
496.681	7.96
497.114	8.06
497.547	8.17
497.98	8.29
498.413	8.42
498.846	8.55
499.279	8.69
499.711	8.82
500.144	8.98
500.577	9.13
501.009	9.27
501.442	9.44
501.874	9.6
502.306	9.76
502.739	9.95
503.171	10.13
503.603	10.31
504.036	10.51
504.468	10.71
504.9	10.91
505.332	11.12
505.764	11.34
506.196	11.57
506.627	11.79
507.059	12.06
507.491	12.29
507.923	12.54
508.354	12.8
508.786	13.07
509.217	13.34
509.649	13.62
510.08	13.9
510.512	14.18
510.943	14.47
511.374	14.77
511.805	15.07
512.237	15.38
512.668	15.69
513.099	16
513.53	16.31
513.961	16.63
514.391	16.96
514.822	17.29
515.253	17.61
515.684	17.94
516.114	18.26
516.545	18.58
516.975	18.9
517.406	19.21
517.836	19.54
518.267	19.86
518.697	20.18
519.127	20.48
519.558	20.79
519.988	21.09
520.418	21.4
520.848	21.7
521.278	21.97
521.708	22.41
522.138	22.69
522.567	22.96
522.997	23.22
523.427	23.48
523.857	23.74
524.286	23.99
524.716	24.24
525.145	24.46
525.575	24.71
526.004	24.94
526.433	25
526.863	25.21
527.292	25.41
527.721	25.59
528.15	25.76
528.579	25.94
529.008	26.11
529.437	26.26
529.866	26.39
530.295	26.53
530.724	26.66
531.152	26.81
531.581	26.94
532.01	27.05
532.438	27.18
532.867	27.29
533.295	27.4
533.723	27.49
534.152	27.58
534.58	27.68
535.008	27.73
535.436	27.8
535.865	27.85
536.293	27.9
536.721	27.95
537.149	27.99
537.576	28.04
538.004	28.07
538.432	28.1
538.86	28.13
539.287	28.14
539.715	28.2
540.143	28.22
540.57	28.25
540.998	28.27
541.425	28.32
541.852	28.36
542.28	28.38
542.707	28.41
543.134	28.44
543.561	28.47
543.988	28.53
544.415	28.53
544.842	28.56
545.269	28.6
545.696	28.64
546.123	28.66
546.549	28.68
546.976	28.73
547.403	28.77
547.829	28.79
548.256	28.82
548.682	28.82
549.108	28.86
549.535	28.9
549.961	28.91
550.387	28.93
550.813	28.93
551.24	28.94
551.666	28.93
552.092	28.92
552.518	28.92
552.943	28.9
553.369	28.91
553.795	28.89
554.221	28.85
554.646	28.82
555.072	28.78
555.498	28.75
555.923	28.7
556.349	28.64
556.774	28.59
557.199	28.54
557.625	28.48
558.05	28.4
558.475	28.34
558.9	28.28
559.325	28.21
559.75	28.13
560.175	28.04
560.6	27.95
561.025	27.87
561.449	27.77
561.874	27.64
562.299	27.52
562.723	27.41
563.148	27.27
563.572	27.14
563.997	27
564.421	26.85
564.846	26.71
565.27	26.57
565.694	26.42
566.118	26.26
566.542	26.11
566.966	25.95
567.39	25.79
567.814	25.63
568.238	25.47
568.662	25.32
569.086	25.16
569.509	24.99
569.933	24.84
570.357	24.67
570.78	24.51
571.204	24.37
571.627	24.23
572.05	24.08
572.474	23.96
572.897	23.81
573.32	23.67
573.743	23.52
574.166	23.41
574.589	23.28
575.012	23.15
575.435	23.05
575.858	22.92
576.281	22.8
576.704	22.69
577.126	22.57
577.549	22.47
577.972	22.37
578.394	22.27
578.817	22.17
579.239	22.07
579.661	21.98
580.084	21.9
580.506	21.82
580.928	21.73
581.35	21.63
581.772	21.55
582.194	21.47
582.616	21.38
583.038	21.31
583.46	21.22
583.882	21.15
584.303	21.09
584.725	20.99
585.147	20.93
585.568	20.87
585.99	20.8
586.411	20.74
586.833	20.68
587.254	20.61
587.675	20.55
588.096	20.49
588.518	20.44
588.939	20.38
589.36	20.33
589.781	20.26
590.202	20.22
590.623	20.18
591.043	20.13
591.464	20.09
591.885	20.05
592.305	20.01
592.726	19.98
593.147	19.94
593.567	19.89
593.987	19.86
594.408	19.83
594.828	19.77
595.248	19.75
595.669	19.72
596.089	19.69
596.509	19.67
596.929	19.62
597.349	19.58
597.769	19.54
598.189	19.51
598.608	19.47
599.028	19.43
599.448	19.4
599.867	19.33
600.287	19.28
600.706	19.23
601.126	19.17
601.545	19.13
601.965	19.07
602.384	19.01
602.803	18.94
603.222	18.88
603.641	18.82
604.061	18.75
604.48	18.68
604.898	18.6
605.317	18.53
605.736	18.44
606.155	18.36
606.574	18.28
606.992	18.2
607.411	18.12
607.829	18.02
608.248	17.92
608.666	17.84
609.085	17.75
609.503	17.68
609.921	17.6
610.339	17.53
610.758	17.44
611.176	17.35
611.594	17.27
612.012	17.18
612.43	17.1
612.847	17.03
613.265	16.94
613.683	16.86
614.101	16.78
614.518	16.68
614.936	16.59
615.353	16.5
615.771	16.43
616.188	16.36
616.606	16.3
617.023	16.23
617.44	16.18
617.857	16.12
618.274	16.05
618.691	15.99
619.108	15.93
619.525	15.88
619.942	15.84
620.359	15.79
620.776	15.75
621.192	15.7
621.609	15.67
622.026	15.62
622.442	15.59
622.859	15.56
623.275	15.53
623.691	15.5
624.108	15.48
624.524	15.47
624.94	15.45
625.356	15.44
625.772	15.41
626.188	15.41
626.604	15.41
627.02	15.39
627.436	15.38
627.852	15.38
628.268	15.36
628.683	15.35
629.099	15.33
629.514	15.31
629.93	15.28
630.345	15.26
630.761	15.22
631.176	15.18
631.591	15.13
632.007	15.09
632.422	15.03
632.837	14.98
633.252	14.92
633.667	14.85
634.082	14.78
634.497	14.7
634.911	14.6
635.326	14.51
635.741	14.41
636.155	14.31
636.57	14.19
636.984	14.08
637.399	13.95
637.813	13.82
638.228	13.69
638.642	13.55
639.056	13.41
639.47	13.28
639.884	13.14
640.298	12.99
640.712	12.85
641.126	12.72
641.54	12.58
641.954	12.44
642.368	12.31
642.781	12.18
643.195	12.05
643.609	11.91
644.022	11.79
644.436	11.68
644.849	11.56
645.262	11.45
645.676	11.34
646.089	11.24
646.502	11.15
646.915	11.06
647.328	10.98
647.741	10.9
648.154	10.83
648.567	10.77
648.98	10.69
649.393	10.63
649.805	10.58
650.218	10.52
650.631	10.46
651.043	10.4
651.456	10.33
651.868	10.28
652.28	10.22
652.693	10.17
653.105	10.1
653.517	10.04
653.929	9.97
654.341	9.89
654.753	9.8
655.165	9.73
655.577	9.65
655.989	9.57
656.401	9.47
656.813	9.38
657.224	9.27
657.636	9.16
658.047	9.06
658.459	8.95
658.87	8.84
659.282	8.74
659.693	8.63
660.104	8.51
660.515	8.4
660.926	8.3
661.338	8.19
661.749	8.09
662.159	7.97
662.57	7.88
662.981	7.79
663.392	7.69
663.803	7.61
664.213	7.52
664.624	7.44
665.035	7.35
665.445	7.28
665.855	7.22
666.266	7.16
666.676	7.13
667.086	7.06
667.497	7
667.907	6.95
668.317	6.93
668.727	6.88
669.137	6.86
669.547	6.84
669.956	6.82
670.366	6.8
670.776	6.78
671.186	6.76
671.595	6.76
672.005	6.75
672.414	6.75
672.824	6.75
673.233	6.76
673.642	6.77
674.052	6.78
674.461	6.79
674.87	6.81
675.279	6.84
675.688	6.86
676.097	6.89
676.506	6.93
676.915	6.98
677.323	7.03
677.732	7.07
678.141	7.12
678.549	7.18
678.958	7.25
679.366	7.33
679.775	7.41
680.183	7.51
680.592	7.61
681	7.73
681.408	7.85
681.816	7.98
682.224	8.15
682.632	8.33
683.04	8.52
683.448	8.72
683.856	8.94
684.264	9.19
684.671	9.45
685.079	9.74
685.487	10.06
685.894	10.41
686.302	10.79
686.709	11.18
687.116	11.6
687.524	12.06
687.931	12.53
688.338	13.03
688.745	13.54
689.152	14.09
689.559	14.66
689.966	15.24
690.373	15.82
690.78	16.42
691.187	17.02
691.593	17.64
692	18.25
692.407	18.87
692.813	19.51
693.22	20.13
693.626	20.74
694.032	21.36
694.439	21.97
694.845	22.6
695.251	23.21
695.657	23.83
696.063	24.45
696.469	25.08
696.875	25.68
697.281	26.26
697.687	26.85
698.093	27.43
698.498	28
698.904	28.54
699.31	29.05
699.715	29.58
700.12	30.1
700.526	30.58
700.931	31.05
701.337	31.52
701.742	31.97
702.147	32.43
702.552	32.88
702.957	33.29
703.362	33.73
703.767	34.14
704.172	34.55
704.577	34.92
704.981	35.32
705.386	35.68
705.791	36.07
706.195	36.45
706.6	36.82
707.004	37.16
707.408	37.52
707.813	37.86
708.217	38.21
708.621	38.54
709.025	38.87
709.43	39.19
709.834	39.53
710.237	39.81
710.641	40.09
711.045	40.37
711.449	40.64
711.853	40.94
712.256	41.2
712.66	41.46
713.064	41.73
713.467	42
713.87	42.26
714.274	42.48
714.677	42.75
715.08	42.98
715.484	43.22
715.887	43.49
716.29	43.69
716.693	43.91
717.096	44.13
717.499	44.34
717.901	44.54
718.304	44.72
718.707	44.92
719.109	45.12
719.512	45.3
719.915	45.47
720.317	45.63
720.719	45.8
721.122	45.96
721.524	46.14
721.926	46.31
722.328	46.46
722.731	46.61
723.133	46.78
723.535	46.92
723.937	47.09
724.338	47.23
724.74	47.38
725.142	47.58
725.544	47.71
725.945	47.84
726.347	47.93
726.748	48.03
727.15	48.15
727.551	48.27
727.952	48.37
728.354	48.47
728.755	48.54
729.156	48.6
729.557	48.61
729.958	48.68
730.359	48.74
730.76	48.83
731.161	48.92
731.562	49.01
731.962	49.04
732.363	49.12
732.763	49.16
733.164	49.24
733.564	49.33
733.965	49.4
734.365	49.47
734.766	49.53
735.166	49.61
735.566	49.66
735.966	49.7
736.366	49.73
736.766	49.75
737.166	49.81
737.566	49.87
737.966	49.9
738.365	49.93
738.765	49.97
739.165	50.01
739.564	50.04
739.964	50.07
740.363	50.09
740.763	50.14
741.162	50.17
741.561	50.17
741.96	50.18
742.36	50.21
742.759	50.24
743.158	50.23
743.557	50.24
743.955	50.26
744.354	50.27
744.753	50.32
745.152	50.36
745.55	50.4
745.949	50.46
746.348	50.51
746.746	50.53
747.144	50.55
747.543	50.6
747.941	50.65
748.339	50.65
748.737	50.66
749.136	50.66
749.534	50.64
749.932	50.64
750.33	50.62
750.727	50.61
751.125	50.61
751.523	50.63
751.921	50.65
752.318	50.64
752.716	50.64
753.113	50.66
753.511	50.66
753.908	50.7
754.305	50.73
754.703	50.72
755.1	50.71
755.497	50.72
755.894	50.68
756.291	50.67
756.688	50.65
757.085	50.65
757.482	50.65
757.878	50.65
758.275	50.61
758.672	50.61
759.068	50.63
759.465	50.63
759.861	50.63
760.258	50.64
760.654	50.65
761.05	50.66
761.447	50.67
761.843	50.66
762.239	50.63
762.635	50.64
763.031	50.62
763.427	50.59
763.822	50.59
764.218	50.6
764.614	50.61
765.01	50.59
765.405	50.58
765.801	50.57
766.196	50.55
766.592	50.57
766.987	50.56
767.382	50.54
767.778	50.58
768.173	50.59
768.568	50.58
768.963	50.57
769.358	50.57
769.753	50.54
770.148	50.54
770.542	50.55
770.937	50.54
771.332	50.54
771.726	50.56
772.121	50.54
772.515	50.56
772.91	50.54
773.304	50.54
773.699	50.56
774.093	50.57
774.487	50.59
774.881	50.61
775.275	50.61
775.669	50.6
776.063	50.56
776.457	50.56
776.851	50.53
777.245	50.54
777.638	50.53
778.032	50.54
778.425	50.58
778.819	50.55
779.212	50.57
779.606	50.6
779.999	50.6
780.392	50.62
780.786	50.63
781.179	50.65
781.572	50.67
781.965	50.69
782.358	50.69
782.751	50.69
783.143	50.71
783.536	50.69
783.929	50.7
784.322	50.73
784.714	50.75
785.107	50.79
785.499	50.76
785.891	50.77
786.284	50.78
786.676	50.78
787.068	50.75
787.46	50.76
787.852	50.78
788.245	50.78
788.636	50.75
789.028	50.76
789.42	50.74
789.812	50.78
790.204	50.8
790.595	50.8
790.987	50.81
791.378	50.83
791.77	50.83
792.161	50.8
792.553	50.8
792.944	50.79
793.335	50.8
793.726	50.82
794.117	50.79
794.508	50.79
794.899	50.78
795.29	50.78
795.681	50.78
796.072	50.79
796.463	50.84
796.853	50.85
797.244	50.88
797.634	50.87
798.025	50.89
798.415	50.93
798.806	50.94
799.196	50.97
799.586	50.97
799.976	50.96
800.366	50.98
800.756	50.99
801.146	51
801.536	51.04
801.926	51.05
802.316	51.07
802.706	51.07
803.095	51.08
803.485	51.08
803.874	51.09
804.264	51.14
804.653	51.16
805.043	51.18
805.432	51.18
805.821	51.18
806.21	51.18
806.599	51.16
806.988	51.16
807.377	51.18
807.766	51.21
808.155	51.24
808.544	51.22
808.933	51.22
809.321	51.19
809.71	51.22
810.098	51.21
810.487	51.19
810.875	51.19
811.264	51.19
811.652	51.2
812.04	51.18
812.428	51.19
812.816	51.21
813.204	51.21
813.592	51.19
813.98	51.19
814.368	51.21
814.756	51.23
815.144	51.26
815.531	51.27
815.919	51.26
816.306	51.26
816.694	51.25
817.081	51.25
817.469	51.27
817.856	51.3
818.243	51.28
818.63	51.29
819.017	51.28
819.404	51.28
819.791	51.27
820.178	51.28
820.565	51.27
820.952	51.28
821.339	51.24
821.725	51.25
822.112	51.25
822.498	51.26
822.885	51.29
823.271	51.3
823.657	51.26
824.044	51.28
824.43	51.28
824.816	51.3
825.202	51.3
825.588	51.3
825.974	51.3
826.36	51.28
826.746	51.26
827.132	51.24
827.517	51.22
827.903	51.26
828.289	51.28
828.674	51.27
829.06	51.27
829.445	51.25
829.83	51.26
830.216	51.23
830.601	51.23
830.986	51.22
831.371	51.19
831.756	51.18
832.141	51.16
832.526	51.12
832.911	51.11
833.295	51.1
833.68	51.11
834.065	51.07
834.449	51.08
834.834	51.05
835.218	51.03
835.603	51.03
835.987	51.03
836.371	51.02
836.755	50.99
837.139	50.96
837.524	50.93
837.908	50.95
838.291	50.99
838.675	50.97
839.059	50.99
839.443	50.97
839.827	50.96
840.21	50.96
840.594	50.96
840.977	50.97
841.361	50.98
841.744	50.95
842.127	50.91
842.511	50.88
842.894	50.87
843.277	50.86
843.66	50.86
844.043	50.85
844.426	50.84
844.809	50.84
845.191	50.84
845.574	50.86
845.957	50.88
846.339	50.88
846.722	50.89
847.104	50.91
847.487	50.92
847.869	50.93
848.252	50.95
848.634	50.96
849.016	50.95
849.398	50.96
849.78	50.97
850.162	50.97
850.544	50.98
850.926	50.98
851.307	50.97
851.689	50.99
852.071	50.99
852.452	50.96
852.834	50.98
853.215	50.97
853.597	50.95
853.978	50.93
854.359	50.93
854.741	50.94
855.122	50.93
855.503	50.92
855.884	50.91
856.265	50.9
856.646	50.91
857.026	50.9
857.407	50.93
857.788	50.94
858.169	50.96
858.549	50.97
858.93	50.96
859.31	50.98
859.69	51.01
860.071	51.03
860.451	51.04
860.831	51.05
861.211	51.02
861.591	51.02
861.971	51.03
862.351	51.05
862.731	51.06
863.111	51.05
863.491	51.04
863.87	51.02
864.25	50.99
864.629	51
865.009	51
865.388	51.02
865.768	51.02
866.147	51
866.526	50.96
866.905	50.96
867.284	50.97
867.663	50.97
868.042	50.99
868.421	51.02
868.8	51.03
869.179	51.04
869.558	51.02
869.936	51.01
870.315	51.02
870.693	51.03
871.072	51.04
871.45	51.06
871.828	51.06
872.207	51.06
872.585	51.05
872.963	51.06
873.341	51.06
873.719	51.09
874.097	51.1
874.475	51.13
874.853	51.15
875.23	51.16
875.608	51.16
875.986	51.18
876.363	51.19
876.741	51.19
877.118	51.2
877.495	51.22
877.873	51.23
878.25	51.24
878.627	51.24
879.004	51.24
879.381	51.25
879.758	51.22
880.135	51.21
880.512	51.19
880.889	51.2
881.265	51.16
881.642	51.13
882.019	51.1
882.395	51.08
882.772	51.06
883.148	51.02
883.524	51
883.901	51
884.277	50.94
884.653	50.92
885.029	50.88
885.405	50.88
885.781	50.9
886.157	50.9
886.532	50.89
886.908	50.86
887.284	50.85
887.659	50.81
888.035	50.78
888.411	50.79
888.786	50.8
889.161	50.82
889.537	50.83
889.912	50.79
890.287	50.78
890.662	50.77
891.037	50.77
891.412	50.77
891.787	50.75
892.162	50.75
892.536	50.74
892.911	50.72
893.286	50.7
893.66	50.67
894.035	50.66
894.409	50.63
894.784	50.64
895.158	50.61
895.532	50.62
895.906	50.62
896.281	50.64
896.655	50.63
897.029	50.63
897.402	50.6
897.776	50.63
898.15	50.64
898.524	50.65
898.898	50.64
899.271	50.67
899.645	50.68
900.018	50.72
900.392	50.74
900.765	50.78
901.138	50.78
901.511	50.81
901.884	50.8
902.258	50.84
902.631	50.84
903.003	50.86
903.376	50.86
903.749	50.86
904.122	50.86
904.495	50.85
904.867	50.85
905.24	50.9
905.612	50.92
905.985	50.91
906.357	50.91
906.729	50.94
907.102	50.94
907.474	50.94
907.846	50.95
908.218	50.94
908.59	50.98
908.962	50.97
909.334	50.96
909.705	50.95
910.077	50.99
910.449	51
910.82	50.99
911.192	50.98
911.563	50.96
911.935	50.95
912.306	50.96
912.677	50.96
913.048	50.98
913.419	50.96
913.79	50.98
914.161	50.98
914.532	50.97
914.903	50.98
915.274	51
915.645	51.02
916.015	51.02
916.386	51.01
916.756	51
917.127	50.98
917.497	51.01
917.868	50.99
918.238	50.97
918.608	50.99
918.978	51.01
919.348	51.02
919.718	51.03
920.088	51.07
920.458	51.05
920.828	51.04
921.198	51.02
921.567	51.04
921.937	51.05
922.306	51.04
922.676	51.01
923.045	50.97
923.415	50.93
923.784	50.94
924.153	50.93
924.522	50.95
924.891	50.95
925.26	50.94
925.629	50.96
925.998	50.96
926.367	50.97
926.736	50.98
927.104	50.98
927.473	50.98
927.842	50.94
928.21	50.94
928.578	50.9
928.947	50.9
929.315	50.91
929.683	50.87
930.051	50.84
930.42	50.81
930.788	50.79
931.156	50.76
931.523	50.74
931.891	50.79
932.259	50.76
932.627	50.77
932.994	50.78
933.362	50.78
933.729	50.75
934.097	50.74
934.464	50.76
934.831	50.74
935.199	50.74
935.566	50.75
935.933	50.72
936.3	50.69
936.667	50.7
937.034	50.71
937.401	50.68
937.767	50.74
938.134	50.77
938.501	50.77
938.867	50.82
939.234	50.82
939.6	50.86
939.967	50.85
940.333	50.91
940.699	50.94
941.065	50.92
941.431	50.98
941.798	50.96
942.163	50.9
942.529	50.99
942.895	51.03
943.261	51.07
943.627	51.04
943.992	51.08
944.358	51.1
944.723	51.08
945.089	51.03
945.454	51.03
945.82	51.02
946.185	51.09
946.55	50.98
946.915	50.96
947.28	50.91
947.645	50.95
948.01	50.92
948.375	50.86
948.74	50.89
949.104	50.94
949.469	50.9
949.834	50.84
950.198	50.8
950.562	50.8
950.927	50.75
951.291	50.72
951.655	50.61
952.02	50.6
952.384	50.6
952.748	50.53
953.112	50.49
953.476	50.43
953.839	50.42
954.203	50.4
954.567	50.38
954.931	50.35
955.294	50.35
955.658	50.47
956.021	50.42
956.385	50.35
956.748	50.36
957.111	50.34
957.474	50.34
957.837	50.3
958.2	50.27
958.563	50.26
958.926	50.29
959.289	50.31
959.652	50.23
960.015	50.2
960.377	50.21
960.74	50.23
961.102	50.23
961.465	50.27
961.827	50.33
962.189	50.37
962.552	50.33
962.914	50.33
963.276	50.35
963.638	50.36
964	50.36
964.362	50.36
964.724	50.32
965.085	50.27
965.447	50.22
965.809	50.19
966.17	50.16
966.532	50.16
966.893	50.17
967.255	50.12
967.616	50.11
967.977	50.14
968.338	50.08
968.699	50.08
969.061	50.13
969.421	50.16
969.782	50.22
970.143	50.25
970.504	50.29
970.865	50.31
971.225	50.3
971.586	50.32
971.946	50.28
972.307	50.34
972.667	50.31
973.027	50.26
973.388	50.26
973.748	50.24
974.108	50.24
974.468	50.19
974.828	50.16
975.188	50.12
975.548	50.1
975.907	50.12
976.267	50.14
976.627	50.18
976.986	50.19
977.346	50.19
977.705	50.14
978.064	50.11
978.424	50.15
978.783	50.12
979.142	50.19
979.501	50.16
979.86	50.21
980.219	50.2
980.578	50.2
980.937	50.22
981.296	50.17
981.654	50.2
982.013	50.26
982.371	50.31
982.73	50.3
983.088	50.3
983.447	50.36
983.805	50.35
984.163	50.34
984.521	50.32
984.879	50.29
985.237	50.34
985.595	50.37
985.953	50.32
986.311	50.26
986.669	50.26
987.026	50.27
987.384	50.27
987.741	50.21
988.099	50.29
988.456	50.31
988.814	50.36
989.171	50.29
989.528	50.24
989.885	50.29
990.242	50.32
990.599	50.39
990.956	50.38
991.313	50.39
991.67	50.42
992.027	50.42
992.383	50.48
992.74	50.55
993.096	50.62
993.453	50.67
993.809	50.65
994.165	50.71
994.522	50.66
994.878	50.74
995.234	50.73
995.59	50.71
995.946	50.75
996.302	50.78
996.658	50.85
997.013	50.85
997.369	50.84
997.725	50.85
998.08	50.91
998.436	50.98
998.791	51
999.147	50.95
999.502	50.96
999.857	50.98
1000.212	50.95
1000.567	50.79
1000.922	50.8
1001.277	50.86
1001.632	50.75
1001.987	50.65
1002.342	50.67
1002.696	50.6
1003.051	50.79
1003.406	50.93
1003.76	50.85
1004.114	50.87
1004.469	51.06
1004.823	51.29
1005.177	51.2
1005.531	51.42
1005.885	51.53
1006.239	51.47
1006.593	51.56
1006.947	51.48
1007.301	51.47
1007.655	51.55
1008.008	51.59
1008.362	51.69
1008.715	51.56
1009.069	51.78
1009.422	51.75
1009.776	51.67
1010.129	51.81
1010.482	51.79
1010.835	51.92
1011.188	51.87
1011.541	51.91
1011.894	51.95
1012.247	51.84
1012.6	51.82
1012.952	51.8
1013.305	51.94
1013.657	52.22
1014.01	52.22
1014.362	52.28
1014.715	52.38
1015.067	52.55
1015.419	52.6
1015.771	52.56
1016.123	52.51
1016.475	52.62
1016.827	52.66
1017.179	52.55
1017.531	52.4
1017.883	52.38
1018.234	52.4
1018.586	52.18
1018.938	52.25
1019.289	52.29
1019.64	52.27
1019.992	52.44
1020.343	52.56
1020.694	52.57
1021.045	52.68
1021.396	52.78
1021.747	52.76
1022.098	52.87
1022.449	53.03
1022.8	53.04
1023.151	53.02
1023.501	53.23
1023.852	53.32
1024.202	53.13
1024.553	53.25
1024.903	53.21
1025.253	53.35
1025.604	53.52
1025.954	53.36
1026.304	53.36
1026.654	53.23
1027.004	53.22
1027.354	53.09
1027.703	52.96
1028.053	52.94
1028.403	52.79
1028.753	52.67
1029.102	52.77
1029.452	52.89
1029.801	53.25
1030.15	53.23
1030.499	53.3
897.758	1354.34
901.051	1354.47
904.343	1355.77
907.636	1377.49
910.928	1339.12
914.22	1336.8
917.511	1315.56
920.803	1262.08
924.094	1254.62
927.384	1223.07
930.675	1173.23
933.965	1164.43
937.255	1100.52
940.544	1052.7
943.834	1005.72
947.123	996.38
950.411	938.31
953.7	919.57
956.988	873.45
960.276	836.42
963.563	824.65
966.851	793.7
970.138	786.83
973.424	761.18
976.711	767.5
979.997	726.18
983.283	724.69
986.568	709.82
989.853	687.63
993.138	674.27
996.423	650.55
999.708	632.37
1002.992	625.27
1006.275	598.8
1009.559	593.73
1012.842	571.8
1016.125	557.1
1019.408	545.88
1022.69	539.32
1025.972	529.07
1029.254	516.26
1032.536	507.59
1035.817	496.35
1039.098	490.88
1042.379	479.09
1045.659	474.22
1048.939	462.72
1052.219	453.11
1055.498	447.5
1058.778	436.76
1062.057	426.97
1065.335	421.65
1068.614	416.69
1071.892	412.85
1075.17	399.72
1078.447	393.77
1081.724	390.39
1085.001	387.11
1088.278	380.86
1091.554	372.24
1094.83	372.67
1098.106	370.25
1101.382	366.65
1104.657	363.67
1107.932	357.59
1111.206	359.86
1114.481	351.17
1117.755	348.04
1121.029	344.73
1124.302	343.98
1127.575	338.69
1130.848	334.48
1134.121	331.03
1137.393	329.8
1140.665	323.92
1143.937	321.4
1147.208	318.93
1150.48	318.46
1153.75	314.05
1157.021	309.79
1160.291	310.13
1163.561	306.01
1166.831	306.27
1170.101	303.63
1173.37	302.46
1176.639	302.8
1179.907	299.77
1183.176	296.53
1186.444	296.1
1189.711	295.76
1192.979	294.38
1196.246	292.37
1199.513	294.16
1202.78	292.25
1206.046	292.28
1209.312	289.9
1212.578	290.38
1215.843	292.97
1219.108	291.12
1222.373	296.72
1225.638	298.89
1228.902	303.96
1232.166	303.01
1235.43	304.9
1238.693	308.88
1241.956	310.72
1245.219	315.64
1248.482	314.9
1251.744	315.22
1255.006	316.13
1258.268	308.16
1261.529	305.08
1264.79	303.26
1268.051	302.83
1271.312	299.28
1274.572	294.18
1277.832	291.51
1281.092	286.73
1284.351	285.15
1287.61	284.53
1290.869	280.64
1294.128	279.27
1297.386	279.45
1300.644	276.2
1303.902	276.9
1307.159	275.33
1310.416	276.44
1313.673	275.8
1316.93	278.54
1320.186	278.63
1323.442	279.29
1326.697	284.24
1329.953	284.94
1333.208	285.59
1336.463	289.61
1339.717	289.51
1342.972	293.97
1346.226	295.73
1349.479	296.66
1352.733	298.34
1355.986	299.97
1359.238	299.75
1362.491	301.01
1365.743	304.22
1368.995	304.71
1372.247	303.37
1375.498	303.86
1378.749	304.9
1382	303.42
1385.251	304.15
1388.501	301.4
1391.751	302.68
1395	301.65
1398.25	299.01
1401.499	297.02
1404.748	296.53
1407.996	293.21
1411.244	291.77
1414.492	290.2
1417.74	286.19
1420.987	282.06
1424.234	283.08
1427.481	278.26
1430.728	278.06
1433.974	275.58
1437.22	273.25
1440.465	272.34
1443.711	270.35
1446.956	268.82
1450.201	265.29
1453.445	262.96
1456.689	261.33
1459.933	256.72
1463.177	254.9
1466.42	251.43
1469.663	248.95
1472.906	247.09
1476.148	240.2
1479.391	238.09
1482.633	235.78
1485.874	233.13
1489.115	231.65
1492.356	229.94
1495.597	228.89
1498.838	225.76
1502.078	224.15
1505.318	222.91
1508.557	223
1511.797	223.81
1515.036	221.74
1518.274	220.96
1521.513	219.39
1524.751	219.09
1527.989	218.36
1531.227	217.23
1534.464	218.08
1537.701	216.19
1540.938	215.53
1544.174	212.95
1547.41	212.72
1550.646	212.03
1553.882	211.78
1557.117	208.95
1560.352	208.01
1563.587	207.21
1566.821	206.17
1570.055	204.52
1573.289	203.75
1576.523	203.16
1579.756	201.83
1582.989	200.93
1586.222	200.88
1589.454	200.37
1592.686	201.77
1595.918	200.43
1599.15	199.88
1602.381	199.95
1605.612	199.45
1608.843	200.23
1612.073	200.19
1615.303	201.34
1618.533	201.09
1621.762	200.6
1624.992	200.41
1628.221	200.11
1631.449	200.4
1634.678	200.17
1637.906	201.59
1641.134	201.3
1644.361	200.58
1647.588	201.25
1650.815	200.32
1654.042	199.75
1657.269	201.16
1660.495	201.11
1663.72	199.96
1666.946	200.64
1670.171	201.12
1673.396	200.56
1676.621	200.63
1679.845	201.23
1683.069	201.19
1686.293	202.22
1689.517	203.19
1692.74	202.61
1695.963	203.56
1699.185	205.96
1702.408	205.92
1705.63	206.85
1708.852	207.32
1712.073	208.3
1715.294	208.36
1718.515	209.76
1721.736	209.63
1724.956	210.28
1728.176	210.11
1731.396	212.06
1734.616	210.96
1737.835	211.96
1741.054	210.46
1744.272	210.82
1747.491	212.52
1750.709	213.25
1753.927	213
1757.144	212.08
1760.361	213.08
1763.578	213.66
1766.795	212.58
1770.011	214.28
1773.227	214.36
1776.443	216.9
1779.658	217.87
1782.874	216.6
1786.089	217.46
1789.303	217.96
1792.518	221.24
1795.732	220.36
1798.945	222.96
1802.159	223.11
1805.372	223.26
1808.585	226.86
1811.797	227.53
1815.01	227.79
1818.222	230.08
1821.434	232.23
1824.645	232.52
1827.856	236.29
1831.067	238.57
1834.278	237.38
1837.488	239.14
1840.698	240.76
1843.908	238.56
1847.117	239.78
1850.326	241.61
1853.535	240.56
1856.744	242.49
1859.952	243.44
1863.16	241.29
1866.368	239.59
1869.575	241.77
1872.782	238.24
1875.989	237.03
1879.196	236.28
1882.402	234.33
1885.608	234.68
1888.814	235.02
1892.019	233.93
1895.224	232.4
1898.429	231.31
1901.634	232.5
1904.838	232.21
1908.042	234.42
1911.246	235.86
1914.449	236.79
1917.652	236.99
1920.855	236.64
1924.058	236.37
1927.26	235.52
1930.462	236.33
1933.664	239.2
1936.865	237.06
1940.066	237.14
1943.267	235
1946.467	235.36
1949.668	236.73
1952.868	239.84
1956.067	239.82
1959.267	240.59
1962.466	241.26
1965.665	239.8
1968.863	240.54
1972.061	244.39
1975.259	246.69
1978.457	249.34
1981.654	250.33
1984.852	250.98
1988.048	249.92
1991.245	252.47
1994.441	255.45
1997.637	257.02
2000.833	262.95
2004.028	266.54
2007.223	267.4
2010.418	269.99
2013.613	274.61
2016.807	278.28
2020.001	280.76
2023.194	284.67
2026.388	291.27
2029.581	297.39
2032.774	300.41
2035.966	305.06
2039.158	305.02
2042.35	311.01
2045.542	313.47
2048.733	318.35
2051.924	322.41
2055.115	327.42
2058.306	328.72
2061.496	331.04
2064.686	332.93
2067.875	338.66
2071.065	340.58
2074.254	339.11
2077.442	344.28
2080.631	345
2083.819	348.94
2087.007	348.52
2090.195	352.62
2093.382	356.09
2096.569	354.08
2099.756	358.4
2102.942	359.64
2106.128	362.49
2109.314	371.68
2112.5	369.29
2115.685	377.72
2118.87	378.09
2122.055	388.35
2125.239	390.78
2128.424	394.08
2131.608	397.48
2134.791	402.53
2137.974	403.91
2141.157	405.53
2144.34	404.85
2147.523	412
2150.705	409.4
2153.887	412.18
2157.068	410.79
2160.25	407.94
2163.431	410.13
2166.611	415.23
2169.792	423.26
2172.972	427.64
2176.152	430.1
2179.331	436.09
2182.511	442.21
2185.69	447.29
2188.868	456.29
2192.047	457.55
2195.225	470.36
2198.403	483.38
2201.58	491.65
2204.758	500.73
2207.935	510.41
2211.111	522.7
2214.288	527.61
2217.464	528.95
2220.64	536.23
2223.815	544.54
2226.991	566.91
2230.166	568.77
2233.34	577.63
2236.515	585.08
2239.689	585.03
2242.863	589.58
2246.036	604.21
2249.209	599.45
2252.382	610.59
2255.555	628.84
2258.727	630.55
2261.9	634.02
2265.071	639.39
2268.243	649.26
2271.414	658.2
2274.585	671.61
2277.756	677.96
2280.926	682.05
2284.096	699.72
2287.266	714.48
2290.436	719.42
2293.605	737.19
2296.774	758.97
2299.942	782.58
2303.111	786.62
2306.279	803.96
2309.447	816.13
2312.614	837.81
2315.781	860.03
2318.948	898.62
2322.115	883.54
2325.281	934.14
2328.447	913.32
2331.613	951.1
2334.779	941.16
2337.944	982.05
2341.109	991
2344.274	1016.72
2347.438	1052.48
2350.602	1052.92
2353.766	1084.96
2356.929	1102.27
2360.092	1091.08
2363.255	1172.43
2366.418	1165.67
2369.58	1185.5
2372.742	1267.13
2375.904	1298.86
2379.066	1292.91
2382.227	1263.74
2385.388	1372.12
2388.548	1375.19
2391.709	1391.04
2394.869	1552.21
2398.029	1484.59
2401.188	1525.42
2404.347	1524.63
2407.506	1488.1
2410.665	1529.77
2413.823	1623.53
2416.981	1723.45
2420.139	1667.25
2423.296	1640.17
2426.453	1720.76
2429.61	1655.64
2432.767	1728.23
2435.923	1714.81
2439.079	1870.15
2442.235	1899.03
2445.391	1882.85
2448.546	1862.5
2451.701	1813.89
2454.855	1810.22
2458.009	1933.01
2461.163	2002.75
2464.317	2070.75
2467.471	2130.46
2470.624	2130.89
2473.777	2072.02
2476.929	2013.26
2480.082	1953.74
2483.234	1936.06
2486.385	2024.68
2489.537	2035.44
2492.688	2104.69
2495.839	2046.1
2498.989	2005.26
2502.14	2007.78
2505.29	2024.22
2508.439	2058.87
2511.589	2058.28
2514.738	2246.73
2517.887	2199.46
2521.035	2328.6
2524.183	2342.12
2527.331	2361.51
2530.479	2350.65
2533.627	2366.48
