Data from C_3_DIV_IL_4N_Splice17_14-14-47-172.txt Node
Date: Sat Mar 07 14:14:47 EST 2020
User: sa697716
Spectrometer: NQ5500242
Trigger mode: 0
Integration Time (sec): 1.450000E-1
Scans to average: 20
Nonlinearity correction enabled: false
Boxcar width: 5
Storing dark spectrum: false
XAxis mode: Wavelengths
Number of Pixels in Spectrum: 512
>>>>>Begin Spectral Data<<<<<
187.83	118.74
188.298	132.11
188.766	129.08
189.233	109.7
189.701	93.32
190.169	120.01
190.636	131.7
191.104	142.06
191.571	-62.99
192.039	154.63
192.506	286.49
192.974	54.01
193.441	26.4
193.908	76.15
194.375	60.99
194.842	16.04
195.31	79.26
195.777	210.96
196.244	66.4
196.711	62.57
197.177	64.24
197.644	64.1
198.111	63.45
198.578	63.54
199.045	63.43
199.511	63.44
199.978	63.5
200.445	63.55
200.911	63.38
201.378	63.32
201.844	63.12
202.31	62.68
202.777	62.59
203.243	63.02
203.709	62.83
204.176	62.22
204.642	61.72
205.108	61.36
205.574	61.08
206.04	60.67
206.506	60.22
206.972	59.86
207.438	59.32
207.903	58.61
208.369	56.73
208.835	55.62
209.301	54.53
209.766	53.14
210.232	51.54
210.697	49.87
211.163	48.56
211.628	47.37
212.094	46.12
212.559	44.96
213.024	43.78
213.49	42.91
213.955	41.84
214.42	40.92
214.885	39.76
215.35	38.29
215.815	36.38
216.28	33.92
216.745	31.25
217.21	28.68
217.675	26.19
218.14	24.09
218.604	22.29
219.069	20.67
219.534	19.32
219.998	18.23
220.463	17.31
220.927	16.46
221.392	15.87
221.856	15.34
222.32	14.86
222.785	14.46
223.249	14.05
223.713	13.7
224.177	13.45
224.642	13.17
225.106	12.88
225.57	12.61
226.034	12.4
226.497	12.16
226.961	11.93
227.425	11.73
227.889	11.55
228.353	11.38
228.816	11.21
229.28	11
229.744	10.85
230.207	10.69
230.671	10.53
231.134	10.39
231.597	10.26
232.061	10.14
232.524	10.02
232.987	9.89
233.45	9.79
233.914	9.67
234.377	9.56
234.84	9.45
235.303	9.35
235.766	9.27
236.229	9.17
236.691	9.08
237.154	8.98
237.617	8.89
238.08	8.81
238.542	8.72
239.005	8.66
239.468	8.58
239.93	8.51
240.393	8.44
240.855	8.35
241.317	8.27
241.78	8.19
242.242	8.11
242.704	8.04
243.166	7.97
243.629	7.89
244.091	7.81
244.553	7.74
245.015	7.67
245.477	7.6
245.939	7.54
246.4	7.49
246.862	7.43
247.324	7.38
247.786	7.32
248.247	7.26
248.709	7.19
249.17	7.14
249.632	7.1
250.093	7.03
250.555	6.98
251.016	6.93
251.477	6.87
251.939	6.83
252.4	6.78
252.861	6.73
253.322	6.7
253.783	6.67
254.244	6.63
254.705	6.58
255.166	6.56
255.627	6.52
256.088	6.49
256.549	6.46
257.009	6.43
257.47	6.39
257.931	6.35
258.391	6.3
258.852	6.26
259.312	6.23
259.773	6.19
260.233	6.15
260.694	6.11
261.154	6.07
261.614	6.04
262.074	6
262.534	5.96
262.994	5.93
263.455	5.9
263.915	5.86
264.374	5.83
264.834	5.81
265.294	5.78
265.754	5.75
266.214	5.74
266.673	5.71
267.133	5.7
267.593	5.68
268.052	5.67
268.512	5.66
268.971	5.64
269.431	5.62
269.89	5.61
270.349	5.59
270.809	5.58
271.268	5.56
271.727	5.55
272.186	5.53
272.645	5.52
273.104	5.5
273.563	5.48
274.022	5.48
274.481	5.47
274.94	5.45
275.399	5.43
275.857	5.42
276.316	5.4
276.775	5.39
277.233	5.37
277.692	5.36
278.15	5.35
278.609	5.34
279.067	5.32
279.525	5.31
279.984	5.29
280.442	5.29
280.9	5.28
281.358	5.27
281.816	5.26
282.274	5.25
282.732	5.23
283.19	5.22
283.648	5.21
284.106	5.19
284.564	5.18
285.021	5.18
285.479	5.17
285.937	5.16
286.394	5.15
286.852	5.13
287.309	5.12
287.767	5.11
288.224	5.09
288.682	5.07
289.139	5.06
289.596	5.04
290.053	5.02
290.511	5
290.968	4.97
291.425	4.95
291.882	4.93
292.339	4.9
292.796	4.89
293.252	4.88
293.709	4.85
294.166	4.84
294.623	4.82
295.079	4.81
295.536	4.79
295.992	4.78
296.449	4.77
296.905	4.76
297.362	4.75
297.818	4.73
298.274	4.72
298.731	4.71
299.187	4.7
299.643	4.68
300.099	4.67
300.555	4.66
301.011	4.64
301.467	4.63
301.923	4.62
302.379	4.61
302.835	4.61
303.291	4.59
303.746	4.58
304.202	4.57
304.658	4.57
305.113	4.57
305.569	4.56
306.024	4.56
306.479	4.55
306.935	4.54
307.39	4.54
307.845	4.53
308.301	4.54
308.756	4.54
309.211	4.53
309.666	4.54
310.121	4.53
310.576	4.53
311.031	4.53
311.486	4.53
311.94	4.53
312.395	4.53
312.85	4.54
313.305	4.54
313.759	4.54
314.214	4.53
314.668	4.52
315.123	4.52
315.577	4.51
316.032	4.51
316.486	4.5
316.94	4.5
317.394	4.48
317.849	4.47
318.303	4.45
318.757	4.44
319.211	4.43
319.665	4.41
320.119	4.4
320.572	4.38
321.026	4.37
321.48	4.35
321.934	4.34
322.387	4.32
322.841	4.31
323.295	4.31
323.748	4.3
324.202	4.29
324.655	4.29
325.108	4.28
325.562	4.27
326.015	4.27
326.468	4.27
326.921	4.27
327.374	4.27
327.827	4.27
328.28	4.26
328.733	4.26
329.186	4.26
329.639	4.26
330.092	4.27
330.545	4.26
330.997	4.26
331.45	4.26
331.903	4.25
332.355	4.26
332.808	4.26
333.26	4.26
333.713	4.25
334.165	4.24
334.617	4.24
335.069	4.23
335.522	4.24
335.974	4.24
336.426	4.24
336.878	4.24
337.33	4.23
337.782	4.23
338.234	4.24
338.686	4.24
339.137	4.25
339.589	4.25
340.041	4.25
340.493	4.23
340.944	4.21
341.396	4.2
341.847	4.19
342.299	4.16
342.75	4.14
343.201	4.12
343.653	4.11
344.104	4.08
344.555	4.07
345.006	4.05
345.457	4.04
345.908	4.04
346.359	4.04
346.81	4.03
347.261	4.03
347.712	4.03
348.163	4.02
348.613	4.01
349.064	4.01
349.515	4.02
349.965	4.02
350.416	4
350.866	3.99
351.317	3.97
351.767	3.97
352.217	3.97
352.668	3.96
353.118	3.96
353.568	3.96
354.018	3.95
354.468	3.94
354.918	3.94
355.368	3.95
355.818	3.96
356.268	3.96
356.718	3.96
357.168	3.96
357.617	3.96
358.067	3.96
358.517	3.97
358.966	3.98
359.416	3.98
359.865	3.99
360.315	3.99
360.764	3.99
361.213	3.99
361.663	3.98
362.112	3.99
362.561	4
363.01	3.99
363.459	3.98
363.908	3.97
364.357	3.97
364.806	3.96
365.255	3.97
365.703	3.97
366.152	3.98
366.601	3.99
367.05	3.99
367.498	3.99
367.947	4.01
368.395	4.02
368.844	4.03
369.292	4.04
369.74	4.05
370.189	4.05
370.637	4.05
371.085	4.06
371.533	4.06
371.981	4.07
372.429	4.07
372.877	4.08
373.325	4.08
373.773	4.09
374.221	4.1
374.669	4.11
375.116	4.11
375.564	4.12
376.012	4.13
376.459	4.14
376.907	4.16
377.354	4.17
377.801	4.18
378.249	4.19
378.696	4.21
379.143	4.22
379.591	4.23
380.038	4.26
380.485	4.27
380.932	4.28
381.379	4.3
381.826	4.32
382.273	4.34
382.72	4.35
383.166	4.38
383.613	4.4
384.06	4.42
384.506	4.43
384.953	4.45
385.4	4.47
385.846	4.5
386.292	4.53
386.739	4.55
387.185	4.57
387.631	4.59
388.078	4.61
388.524	4.63
388.97	4.66
389.416	4.68
389.862	4.7
390.308	4.72
390.754	4.76
391.2	4.79
391.645	4.82
392.091	4.85
392.537	4.88
392.983	4.92
393.428	4.95
393.874	4.97
394.319	5
394.765	5.04
395.21	5.05
395.655	5.07
396.101	5.1
396.546	5.12
396.991	5.15
397.436	5.18
397.881	5.21
398.326	5.25
398.771	5.28
399.216	5.32
399.661	5.36
400.106	5.4
400.551	5.42
400.995	5.44
401.44	5.46
401.885	5.47
402.329	5.49
402.774	5.51
403.218	5.54
403.663	5.56
404.107	5.58
404.551	5.59
404.995	5.61
405.44	5.62
405.884	5.63
406.328	5.66
406.772	5.67
407.216	5.69
407.66	5.69
408.104	5.69
408.547	5.7
408.991	5.72
409.435	5.72
409.879	5.73
410.322	5.76
410.766	5.78
411.209	5.81
411.653	5.83
412.096	5.85
412.54	5.88
412.983	5.89
413.426	5.93
413.869	5.95
414.312	5.99
414.756	6
415.199	6.01
415.642	6.03
416.085	6.05
416.527	6.05
416.97	6.05
417.413	6.06
417.856	6.06
418.298	6.05
418.741	6.05
419.184	6.06
419.626	6.07
420.069	6.08
420.511	6.08
420.953	6.08
421.396	6.09
421.838	6.1
422.28	6.12
422.722	6.15
423.164	6.16
423.606	6.16
424.048	6.18
424.49	6.18
424.932	6.18
425.374	6.17
425.816	6.14
426.258	6.13
426.699	6.11
427.141	6.07
427.582	6.06
428.024	6.07
428.465	6.07
428.907	6.05
429.348	6.04
429.789	6.03
430.231	6.05
430.672	6.08
431.113	6.1
431.554	6.13
431.995	6.16
432.436	6.16
432.877	6.16
433.318	6.17
433.759	6.19
434.2	6.22
434.64	6.24
435.081	6.25
435.522	6.25
435.962	6.27
436.403	6.3
436.843	6.31
437.284	6.32
437.724	6.31
438.164	6.32
438.604	6.32
439.045	6.31
439.485	6.33
439.925	6.32
440.365	6.34
440.805	6.33
441.245	6.33
441.685	6.36
442.125	6.38
442.564	6.41
443.004	6.42
443.444	6.43
443.883	6.45
444.323	6.44
444.762	6.47
445.202	6.48
445.641	6.5
446.081	6.51
446.52	6.49
446.959	6.51
447.398	6.52
447.837	6.53
448.276	6.54
448.716	6.56
449.154	6.58
449.593	6.59
450.032	6.59
450.471	6.59
450.91	6.59
451.349	6.58
451.787	6.57
452.226	6.57
452.664	6.56
453.103	6.54
453.541	6.53
453.98	6.52
454.418	6.49
454.856	6.47
455.295	6.46
455.733	6.42
456.171	6.41
456.609	6.4
457.047	6.36
457.485	6.34
457.923	6.32
458.361	6.3
458.798	6.3
459.236	6.29
459.674	6.29
460.111	6.27
460.549	6.28
460.987	6.27
461.424	6.26
461.862	6.28
462.299	6.28
462.736	6.28
463.173	6.28
463.611	6.27
464.048	6.28
464.485	6.28
464.922	6.29
465.359	6.3
465.796	6.31
466.233	6.31
466.67	6.32
467.106	6.33
467.543	6.33
467.98	6.33
468.416	6.34
468.853	6.34
469.29	6.35
469.726	6.36
470.162	6.35
470.599	6.36
471.035	6.36
471.471	6.35
471.907	6.35
472.344	6.36
472.78	6.35
473.216	6.34
473.652	6.34
474.088	6.33
474.523	6.32
474.959	6.32
475.395	6.29
475.831	6.3
476.266	6.29
476.702	6.28
477.138	6.27
477.573	6.28
478.008	6.27
478.444	6.26
478.879	6.26
479.314	6.25
479.75	6.24
480.185	6.23
480.62	6.22
481.055	6.2
481.49	6.19
481.925	6.19
482.36	6.17
482.795	6.15
483.229	6.14
483.664	6.13
484.099	6.12
484.534	6.1
484.968	6.11
485.403	6.11
485.837	6.11
486.271	6.13
486.706	6.12
487.14	6.12
487.574	6.13
488.009	6.13
488.443	6.14
488.877	6.15
489.311	6.18
489.745	6.19
490.179	6.2
490.613	6.22
491.046	6.23
491.48	6.25
491.914	6.28
492.348	6.31
492.781	6.35
493.215	6.37
493.648	6.41
494.082	6.43
494.515	6.45
494.948	6.48
495.382	6.52
495.815	6.57
496.248	6.61
496.681	6.66
497.114	6.7
497.547	6.74
497.98	6.8
498.413	6.84
498.846	6.9
499.279	6.97
499.711	7.03
500.144	7.1
500.577	7.17
501.009	7.24
501.442	7.31
501.874	7.39
502.306	7.49
502.739	7.58
503.171	7.68
503.603	7.77
504.036	7.88
504.468	7.98
504.9	8.08
505.332	8.18
505.764	8.3
506.196	8.42
506.627	8.55
507.059	8.68
507.491	8.82
507.923	8.95
508.354	9.1
508.786	9.25
509.217	9.41
509.649	9.57
510.08	9.75
510.512	9.91
510.943	10.09
511.374	10.25
511.805	10.42
512.237	10.6
512.668	10.78
513.099	10.98
513.53	11.16
513.961	11.34
514.391	11.53
514.822	11.73
515.253	11.93
515.684	12.13
516.114	12.34
516.545	12.55
516.975	12.77
517.406	12.97
517.836	13.18
518.267	13.41
518.697	13.63
519.127	13.85
519.558	14.07
519.988	14.27
520.418	14.48
520.848	14.69
521.278	14.89
521.708	15.11
522.138	15.31
522.567	15.51
522.997	15.7
523.427	15.87
523.857	16.06
524.286	16.24
524.716	16.43
525.145	16.59
525.575	16.76
526.004	16.93
526.433	17.07
526.863	17.23
527.292	17.36
527.721	17.49
528.15	17.63
528.579	17.73
529.008	17.85
529.437	17.96
529.866	18.07
530.295	18.19
530.724	18.29
531.152	18.39
531.581	18.48
532.01	18.58
532.438	18.67
532.867	18.76
533.295	18.84
533.723	18.9
534.152	18.96
534.58	19.02
535.008	19.07
535.436	19.12
535.865	19.15
536.293	19.18
536.721	19.22
537.149	19.24
537.576	19.28
538.004	19.32
538.432	19.37
538.86	19.4
539.287	19.41
539.715	19.44
540.143	19.47
540.57	19.5
540.998	19.53
541.425	19.56
541.852	19.59
542.28	19.61
542.707	19.64
543.134	19.65
543.561	19.69
543.988	19.73
544.415	19.74
544.842	19.75
545.269	19.79
545.696	19.81
546.123	19.81
546.549	19.84
546.976	19.88
547.403	19.91
547.829	19.93
548.256	19.94
548.682	19.96
549.108	19.99
549.535	20.02
549.961	20.02
550.387	20.04
550.813	20.06
551.24	20.06
551.666	20.05
552.092	20.03
552.518	20.03
552.943	20.03
553.369	20.03
553.795	20
554.221	19.98
554.646	19.96
555.072	19.93
555.498	19.89
555.923	19.86
556.349	19.81
556.774	19.77
557.199	19.72
557.625	19.68
558.05	19.62
558.475	19.57
558.9	19.52
559.325	19.47
559.75	19.41
560.175	19.36
560.6	19.28
561.025	19.22
561.449	19.14
561.874	19.06
562.299	18.96
562.723	18.87
563.148	18.78
563.572	18.67
563.997	18.56
564.421	18.45
564.846	18.34
565.27	18.23
565.694	18.1
566.118	17.99
566.542	17.87
566.966	17.74
567.39	17.61
567.814	17.49
568.238	17.35
568.662	17.23
569.086	17.1
569.509	16.97
569.933	16.84
570.357	16.71
570.78	16.58
571.204	16.45
571.627	16.35
572.05	16.22
572.474	16.12
572.897	16.03
573.32	15.93
573.743	15.83
574.166	15.73
574.589	15.65
575.012	15.57
575.435	15.48
575.858	15.4
576.281	15.31
576.704	15.24
577.126	15.17
577.549	15.09
577.972	15.02
578.394	14.95
578.817	14.88
579.239	14.82
579.661	14.76
580.084	14.7
580.506	14.64
580.928	14.58
581.35	14.52
581.772	14.46
582.194	14.41
582.616	14.36
583.038	14.31
583.46	14.25
583.882	14.19
584.303	14.14
584.725	14.09
585.147	14.04
585.568	13.99
585.99	13.96
586.411	13.91
586.833	13.85
587.254	13.79
587.675	13.75
588.096	13.72
588.518	13.68
588.939	13.65
589.36	13.62
589.781	13.6
590.202	13.57
590.623	13.53
591.043	13.5
591.464	13.49
591.885	13.46
592.305	13.45
592.726	13.43
593.147	13.41
593.567	13.38
593.987	13.35
594.408	13.31
594.828	13.29
595.248	13.27
595.669	13.24
596.089	13.23
596.509	13.21
596.929	13.17
597.349	13.14
597.769	13.11
598.189	13.08
598.608	13.06
599.028	13.04
599.448	13.01
599.867	12.97
600.287	12.94
600.706	12.91
601.126	12.86
601.545	12.83
601.965	12.77
602.384	12.74
602.803	12.69
603.222	12.64
603.641	12.59
604.061	12.54
604.48	12.49
604.898	12.43
605.317	12.38
605.736	12.33
606.155	12.27
606.574	12.23
606.992	12.17
607.411	12.12
607.829	12.03
608.248	11.97
608.666	11.91
609.085	11.85
609.503	11.79
609.921	11.73
610.339	11.67
610.758	11.61
611.176	11.55
611.594	11.49
612.012	11.43
612.43	11.4
612.847	11.34
613.265	11.27
613.683	11.23
614.101	11.19
614.518	11.13
614.936	11.07
615.353	11.02
615.771	10.98
616.188	10.93
616.606	10.89
617.023	10.85
617.44	10.82
617.857	10.78
618.274	10.74
618.691	10.69
619.108	10.65
619.525	10.62
619.942	10.58
620.359	10.55
620.776	10.52
621.192	10.49
621.609	10.48
622.026	10.44
622.442	10.43
622.859	10.41
623.275	10.4
623.691	10.4
624.108	10.38
624.524	10.37
624.94	10.37
625.356	10.35
625.772	10.35
626.188	10.34
626.604	10.32
627.02	10.31
627.436	10.31
627.852	10.3
628.268	10.29
628.683	10.29
629.099	10.29
629.514	10.27
629.93	10.27
630.345	10.25
630.761	10.22
631.176	10.2
631.591	10.17
632.007	10.14
632.422	10.1
632.837	10.07
633.252	10.04
633.667	9.99
634.082	9.94
634.497	9.9
634.911	9.85
635.326	9.8
635.741	9.76
636.155	9.7
636.57	9.65
636.984	9.6
637.399	9.53
637.813	9.46
638.228	9.39
638.642	9.33
639.056	9.25
639.47	9.18
639.884	9.1
640.298	9.03
640.712	8.95
641.126	8.86
641.54	8.78
641.954	8.7
642.368	8.63
642.781	8.57
643.195	8.49
643.609	8.43
644.022	8.36
644.436	8.3
644.849	8.23
645.262	8.17
645.676	8.12
646.089	8.07
646.502	8.02
646.915	7.98
647.328	7.94
647.741	7.9
648.154	7.86
648.567	7.82
648.98	7.78
649.393	7.77
649.805	7.74
650.218	7.71
650.631	7.68
651.043	7.65
651.456	7.62
651.868	7.59
652.28	7.55
652.693	7.52
653.105	7.49
653.517	7.46
653.929	7.42
654.341	7.38
654.753	7.34
655.165	7.3
655.577	7.26
655.989	7.21
656.401	7.16
656.813	7.12
657.224	7.07
657.636	7.02
658.047	6.96
658.459	6.91
658.87	6.86
659.282	6.8
659.693	6.74
660.104	6.67
660.515	6.62
660.926	6.57
661.338	6.51
661.749	6.47
662.159	6.42
662.57	6.38
662.981	6.33
663.392	6.29
663.803	6.27
664.213	6.23
664.624	6.2
665.035	6.18
665.445	6.15
665.855	6.12
666.266	6.1
666.676	6.09
667.086	6.05
667.497	6.03
667.907	6.02
668.317	6
668.727	5.99
669.137	5.99
669.547	5.98
669.956	5.96
670.366	5.96
670.776	5.95
671.186	5.96
671.595	5.95
672.005	5.96
672.414	5.96
672.824	5.96
673.233	5.97
673.642	5.99
674.052	6
674.461	6.01
674.87	6.03
675.279	6.05
675.688	6.07
676.097	6.1
676.506	6.12
676.915	6.15
677.323	6.18
677.732	6.2
678.141	6.22
678.549	6.26
678.958	6.3
679.366	6.34
679.775	6.38
680.183	6.43
680.592	6.49
681	6.54
681.408	6.6
681.816	6.67
682.224	6.76
682.632	6.83
683.04	6.92
683.448	7
683.856	7.1
684.264	7.22
684.671	7.34
685.079	7.47
685.487	7.63
685.894	7.8
686.302	7.99
686.709	8.17
687.116	8.4
687.524	8.64
687.931	8.9
688.338	9.17
688.745	9.45
689.152	9.75
689.559	10.07
689.966	10.4
690.373	10.76
690.78	11.13
691.187	11.5
691.593	11.87
692	12.25
692.407	12.64
692.813	13.05
693.22	13.46
693.626	13.86
694.032	14.29
694.439	14.7
694.845	15.12
695.251	15.55
695.657	15.97
696.063	16.42
696.469	16.84
696.875	17.27
697.281	17.7
697.687	18.12
698.093	18.55
698.498	18.97
698.904	19.4
699.31	19.8
699.715	20.2
700.12	20.61
700.526	21.01
700.931	21.42
701.337	21.82
701.742	22.19
702.147	22.56
702.552	22.94
702.957	23.3
703.362	23.65
703.767	24
704.172	24.36
704.577	24.69
704.981	25.02
705.386	25.36
705.791	25.69
706.195	26.02
706.6	26.36
707.004	26.68
707.408	27
707.813	27.33
708.217	27.64
708.621	27.94
709.025	28.24
709.43	28.54
709.834	28.83
710.237	29.12
710.641	29.41
711.045	29.69
711.449	29.96
711.853	30.25
712.256	30.51
712.66	30.77
713.064	31.03
713.467	31.3
713.87	31.56
714.274	31.81
714.677	32.04
715.08	32.27
715.484	32.5
715.887	32.77
716.29	32.97
716.693	33.21
717.096	33.45
717.499	33.68
717.901	33.9
718.304	34.12
718.707	34.35
719.109	34.57
719.512	34.78
719.915	34.99
720.317	35.18
720.719	35.36
721.122	35.56
721.524	35.73
721.926	35.91
722.328	36.1
722.731	36.26
723.133	36.4
723.535	36.55
723.937	36.7
724.338	36.85
724.74	37.01
725.142	37.19
725.544	37.3
725.945	37.44
726.347	37.57
726.748	37.7
727.15	37.82
727.551	37.95
727.952	38.07
728.354	38.19
728.755	38.27
729.156	38.35
729.557	38.43
729.958	38.53
730.359	38.64
730.76	38.74
731.161	38.82
731.562	38.92
731.962	38.99
732.363	39.06
732.763	39.15
733.164	39.24
733.564	39.32
733.965	39.36
734.365	39.44
734.766	39.47
735.166	39.53
735.566	39.58
735.966	39.61
736.366	39.66
736.766	39.71
737.166	39.77
737.566	39.8
737.966	39.83
738.365	39.9
738.765	39.95
739.165	39.99
739.564	40
739.964	40.06
740.363	40.09
740.763	40.12
741.162	40.12
741.561	40.13
741.96	40.15
742.36	40.18
742.759	40.2
743.158	40.23
743.557	40.25
743.955	40.28
744.354	40.29
744.753	40.34
745.152	40.38
745.55	40.44
745.949	40.46
746.348	40.51
746.746	40.56
747.144	40.59
747.543	40.59
747.941	40.63
748.339	40.67
748.737	40.69
749.136	40.71
749.534	40.71
749.932	40.72
750.33	40.75
750.727	40.74
751.125	40.74
751.523	40.71
751.921	40.71
752.318	40.72
752.716	40.7
753.113	40.7
753.511	40.68
753.908	40.69
754.305	40.7
754.703	40.67
755.1	40.66
755.497	40.64
755.894	40.64
756.291	40.62
756.688	40.57
757.085	40.56
757.482	40.53
757.878	40.53
758.275	40.48
758.672	40.44
759.068	40.45
759.465	40.44
759.861	40.44
760.258	40.42
760.654	40.41
761.05	40.42
761.447	40.44
761.843	40.44
762.239	40.43
762.635	40.44
763.031	40.44
763.427	40.42
763.822	40.44
764.218	40.46
764.614	40.49
765.01	40.51
765.405	40.52
765.801	40.52
766.196	40.52
766.592	40.52
766.987	40.54
767.382	40.54
767.778	40.55
768.173	40.56
768.568	40.55
768.963	40.55
769.358	40.55
769.753	40.53
770.148	40.52
770.542	40.53
770.937	40.54
771.332	40.54
771.726	40.57
772.121	40.57
772.515	40.55
772.91	40.54
773.304	40.54
773.699	40.53
774.093	40.54
774.487	40.56
774.881	40.55
775.275	40.55
775.669	40.53
776.063	40.51
776.457	40.52
776.851	40.51
777.245	40.48
777.638	40.47
778.032	40.49
778.425	40.49
778.819	40.48
779.212	40.49
779.606	40.5
779.999	40.49
780.392	40.52
780.786	40.53
781.179	40.56
781.572	40.6
781.965	40.6
782.358	40.63
782.751	40.63
783.143	40.64
783.536	40.63
783.929	40.64
784.322	40.67
784.714	40.66
785.107	40.68
785.499	40.66
785.891	40.64
786.284	40.68
786.676	40.68
787.068	40.69
787.46	40.71
787.852	40.73
788.245	40.73
788.636	40.73
789.028	40.72
789.42	40.7
789.812	40.71
790.204	40.73
790.595	40.71
790.987	40.69
791.378	40.7
791.77	40.72
792.161	40.72
792.553	40.72
792.944	40.7
793.335	40.71
793.726	40.71
794.117	40.7
794.508	40.69
794.899	40.69
795.29	40.7
795.681	40.68
796.072	40.64
796.463	40.63
796.853	40.62
797.244	40.62
797.634	40.63
798.025	40.63
798.415	40.64
798.806	40.66
799.196	40.68
799.586	40.68
799.976	40.7
800.366	40.72
800.756	40.76
801.146	40.78
801.536	40.82
801.926	40.81
802.316	40.79
802.706	40.81
803.095	40.8
803.485	40.77
803.874	40.78
804.264	40.75
804.653	40.78
805.043	40.75
805.432	40.75
805.821	40.77
806.21	40.77
806.599	40.84
806.988	40.83
807.377	40.83
807.766	40.85
808.155	40.85
808.544	40.87
808.933	40.86
809.321	40.87
809.71	40.89
810.098	40.86
810.487	40.88
810.875	40.84
811.264	40.85
811.652	40.87
812.04	40.85
812.428	40.87
812.816	40.88
813.204	40.86
813.592	40.84
813.98	40.85
814.368	40.84
814.756	40.83
815.144	40.81
815.531	40.82
815.919	40.83
816.306	40.83
816.694	40.83
817.081	40.83
817.469	40.85
817.856	40.86
818.243	40.85
818.63	40.85
819.017	40.87
819.404	40.89
819.791	40.91
820.178	40.88
820.565	40.86
820.952	40.86
821.339	40.84
821.725	40.86
822.112	40.86
822.498	40.86
822.885	40.88
823.271	40.85
823.657	40.82
824.044	40.81
824.43	40.83
824.816	40.84
825.202	40.84
825.588	40.84
825.974	40.79
826.36	40.78
826.746	40.76
827.132	40.73
827.517	40.74
827.903	40.77
828.289	40.76
828.674	40.73
829.06	40.71
829.445	40.7
829.83	40.7
830.216	40.68
830.601	40.67
830.986	40.67
831.371	40.65
831.756	40.61
832.141	40.56
832.526	40.55
832.911	40.52
833.295	40.5
833.68	40.49
834.065	40.45
834.449	40.45
834.834	40.43
835.218	40.42
835.603	40.41
835.987	40.4
836.371	40.38
836.755	40.35
837.139	40.33
837.524	40.34
837.908	40.36
838.291	40.37
838.675	40.35
839.059	40.35
839.443	40.33
839.827	40.32
840.21	40.32
840.594	40.33
840.977	40.32
841.361	40.33
841.744	40.29
842.127	40.25
842.511	40.23
842.894	40.22
843.277	40.19
843.66	40.17
844.043	40.18
844.426	40.18
844.809	40.16
845.191	40.2
845.574	40.18
845.957	40.19
846.339	40.17
846.722	40.18
847.104	40.22
847.487	40.24
847.869	40.26
848.252	40.25
848.634	40.25
849.016	40.25
849.398	40.22
849.78	40.23
850.162	40.22
850.544	40.22
850.926	40.21
851.307	40.19
851.689	40.18
852.071	40.17
852.452	40.15
852.834	40.17
853.215	40.16
853.597	40.18
853.978	40.17
854.359	40.19
854.741	40.19
855.122	40.18
855.503	40.17
855.884	40.15
856.265	40.17
856.646	40.22
857.026	40.21
857.407	40.22
857.788	40.22
858.169	40.23
858.549	40.22
858.93	40.23
859.31	40.25
859.69	40.28
860.071	40.29
860.451	40.29
860.831	40.26
861.211	40.24
861.591	40.25
861.971	40.23
862.351	40.23
862.731	40.25
863.111	40.25
863.491	40.25
863.87	40.25
864.25	40.24
864.629	40.23
865.009	40.22
865.388	40.23
865.768	40.23
866.147	40.25
866.526	40.22
866.905	40.2
867.284	40.2
867.663	40.18
868.042	40.18
868.421	40.19
868.8	40.19
869.179	40.19
869.558	40.16
869.936	40.15
870.315	40.12
870.693	40.11
871.072	40.11
871.45	40.11
871.828	40.11
872.207	40.13
872.585	40.11
872.963	40.1
873.341	40.09
873.719	40.1
874.097	40.1
874.475	40.13
874.853	40.14
875.23	40.15
875.608	40.15
875.986	40.16
876.363	40.14
876.741	40.15
877.118	40.15
877.495	40.18
877.873	40.18
878.25	40.21
878.627	40.21
879.004	40.22
879.381	40.23
879.758	40.2
880.135	40.19
880.512	40.18
880.889	40.19
881.265	40.18
881.642	40.17
882.019	40.18
882.395	40.15
882.772	40.13
883.148	40.12
883.524	40.09
883.901	40.11
884.277	40.11
884.653	40.08
885.029	40.05
885.405	40.04
885.781	40.02
886.157	40
886.532	40.01
886.908	39.98
887.284	39.98
887.659	39.97
888.035	39.92
888.411	39.9
888.786	39.91
889.161	39.91
889.537	39.92
889.912	39.89
890.287	39.88
890.662	39.85
891.037	39.86
891.412	39.8
891.787	39.79
892.162	39.78
892.536	39.78
892.911	39.75
893.286	39.75
893.66	39.72
894.035	39.72
894.409	39.69
894.784	39.67
895.158	39.67
895.532	39.69
895.906	39.7
896.281	39.72
896.655	39.68
897.029	39.69
897.402	39.66
897.776	39.68
898.15	39.69
898.524	39.71
898.898	39.71
899.271	39.7
899.645	39.7
900.018	39.71
900.392	39.72
900.765	39.76
901.138	39.78
901.511	39.8
901.884	39.81
902.258	39.81
902.631	39.83
903.003	39.85
903.376	39.85
903.749	39.86
904.122	39.9
904.495	39.91
904.867	39.92
905.24	39.95
905.612	39.98
905.985	39.96
906.357	39.96
906.729	39.97
907.102	39.98
907.474	40.01
907.846	39.99
908.218	39.97
908.59	39.98
908.962	39.98
909.334	39.96
909.705	39.94
910.077	39.96
910.449	39.96
910.82	39.97
911.192	39.96
911.563	39.93
911.935	39.96
912.306	39.95
912.677	39.95
913.048	39.98
913.419	39.97
913.79	39.99
914.161	39.99
914.532	40.01
914.903	40
915.274	40.01
915.645	40.02
916.015	40
916.386	40.02
916.756	40.01
917.127	40.01
917.497	40.03
917.868	40.03
918.238	40.03
918.608	40.04
918.978	40.04
919.348	40.05
919.718	40.08
920.088	40.08
920.458	40.09
920.828	40.09
921.198	40.08
921.567	40.08
921.937	40.11
922.306	40.11
922.676	40.12
923.045	40.14
923.415	40.15
923.784	40.14
924.153	40.17
924.522	40.14
924.891	40.17
925.26	40.17
925.629	40.16
925.998	40.12
926.367	40.11
926.736	40.07
927.104	40.05
927.473	40.01
927.842	39.96
928.21	39.96
928.578	39.97
928.947	39.96
929.315	39.94
929.683	39.93
930.051	39.94
930.42	39.93
930.788	39.92
931.156	39.91
931.523	39.9
931.891	39.96
932.259	39.94
932.627	39.93
932.994	39.91
933.362	39.89
933.729	39.86
934.097	39.83
934.464	39.81
934.831	39.8
935.199	39.83
935.566	39.85
935.933	39.75
936.3	39.72
936.667	39.71
937.034	39.69
937.401	39.71
937.767	39.74
938.134	39.77
938.501	39.83
938.867	39.89
939.234	39.9
939.6	39.9
939.967	39.97
940.333	40.01
940.699	40.1
941.065	40.15
941.431	40.21
941.798	40.24
942.163	40.24
942.529	40.28
942.895	40.32
943.261	40.37
943.627	40.43
943.992	40.47
944.358	40.45
944.723	40.41
945.089	40.35
945.454	40.34
945.82	40.35
946.185	40.36
946.55	40.3
946.915	40.3
947.28	40.27
947.645	40.25
948.01	40.28
948.375	40.26
948.74	40.26
949.104	40.33
949.469	40.3
949.834	40.24
950.198	40.24
950.562	40.24
950.927	40.18
951.291	40.11
951.655	40.12
952.02	40.05
952.384	40.03
952.748	39.98
953.112	39.89
953.476	39.87
953.839	39.84
954.203	39.78
954.567	39.73
954.931	39.71
955.294	39.7
955.658	39.7
956.021	39.7
956.385	39.67
956.748	39.68
957.111	39.65
957.474	39.63
957.837	39.6
958.2	39.6
958.563	39.56
958.926	39.54
959.289	39.56
959.652	39.46
960.015	39.43
960.377	39.42
960.74	39.4
961.102	39.4
961.465	39.43
961.827	39.45
962.189	39.45
962.552	39.47
962.914	39.49
963.276	39.53
963.638	39.55
964	39.55
964.362	39.57
964.724	39.55
965.085	39.52
965.447	39.47
965.809	39.48
966.17	39.48
966.532	39.45
966.893	39.47
967.255	39.38
967.616	39.41
967.977	39.38
968.338	39.37
968.699	39.37
969.061	39.39
969.421	39.41
969.782	39.39
970.143	39.38
970.504	39.39
970.865	39.38
971.225	39.37
971.586	39.33
971.946	39.36
972.307	39.35
972.667	39.35
973.027	39.37
973.388	39.36
973.748	39.37
974.108	39.42
974.468	39.39
974.828	39.41
975.188	39.44
975.548	39.49
975.907	39.52
976.267	39.54
976.627	39.58
976.986	39.56
977.346	39.55
977.705	39.54
978.064	39.5
978.424	39.58
978.783	39.54
979.142	39.54
979.501	39.52
979.86	39.48
980.219	39.46
980.578	39.51
980.937	39.54
981.296	39.56
981.654	39.62
982.013	39.61
982.371	39.59
982.73	39.62
983.088	39.62
983.447	39.62
983.805	39.68
984.163	39.71
984.521	39.71
984.879	39.65
985.237	39.67
985.595	39.69
985.953	39.74
986.311	39.72
986.669	39.71
987.026	39.73
987.384	39.82
987.741	39.81
988.099	39.88
988.456	39.88
988.814	39.95
989.171	39.97
989.528	39.99
989.885	39.98
990.242	39.97
990.599	40.07
990.956	40.1
991.313	40.1
991.67	40.13
992.027	40.16
992.383	40.19
992.74	40.36
993.096	40.36
993.453	40.4
993.809	40.45
994.165	40.53
994.522	40.42
994.878	40.42
995.234	40.42
995.59	40.41
995.946	40.41
996.302	40.41
996.658	40.33
997.013	40.38
997.369	40.37
997.725	40.39
998.08	40.45
998.436	40.54
998.791	40.65
999.147	40.66
999.502	40.7
999.857	40.79
1000.212	40.84
1000.567	40.89
1000.922	40.89
1001.277	40.91
1001.632	40.95
1001.987	41.05
1002.342	41
1002.696	41.03
1003.051	41.09
1003.406	41.22
1003.76	41.16
1004.114	41.17
1004.469	41.29
1004.823	41.51
1005.177	41.55
1005.531	41.57
1005.885	41.49
1006.239	41.66
1006.593	41.66
1006.947	41.69
1007.301	41.72
1007.655	41.83
1008.008	41.86
1008.362	41.87
1008.715	41.76
1009.069	41.87
1009.422	41.98
1009.776	42.18
1010.129	42.14
1010.482	42.1
1010.835	42.11
1011.188	42.08
1011.541	42.17
1011.894	42.35
1012.247	42.29
1012.6	42.31
1012.952	42.33
1013.305	42.4
1013.657	42.28
1014.01	42.4
1014.362	42.65
1014.715	42.86
1015.067	42.98
1015.419	43.09
1015.771	42.92
1016.123	43
1016.475	43.19
1016.827	43.25
1017.179	43.32
1017.531	43.6
1017.883	43.76
1018.234	43.78
1018.586	43.85
1018.938	43.88
1019.289	43.8
1019.64	43.96
1019.992	43.92
1020.343	43.84
1020.694	43.91
1021.045	43.97
1021.396	43.88
1021.747	44
1022.098	44.02
1022.449	43.81
1022.8	43.94
1023.151	43.93
1023.501	44.12
1023.852	44.45
1024.202	44.38
1024.553	44.27
1024.903	44.35
1025.253	44.65
1025.604	44.57
1025.954	44.48
1026.304	44.96
1026.654	45
1027.004	45.18
1027.354	45.41
1027.703	45.11
1028.053	45.66
1028.403	46.11
1028.753	46.07
1029.102	46.13
1029.452	46.34
1029.801	46.76
1030.15	46.59
1030.499	46.61
897.758	973.84
901.051	976.88
904.343	974.19
907.636	988.02
910.928	963.18
914.22	962.54
917.511	947.39
920.803	906.3
924.094	902.13
927.384	880.66
930.675	847.37
933.965	840.75
937.255	792.09
940.544	761.89
943.834	726.96
947.123	718.38
950.411	678.74
953.7	665.69
956.988	628.74
960.276	605.88
963.563	596.11
966.851	572.07
970.138	567.81
973.424	551.13
976.711	553
979.997	526.11
983.283	524.95
986.568	512.26
989.853	497.03
993.138	489.42
996.423	469.37
999.708	458.22
1002.992	452.09
1006.275	433.83
1009.559	429.05
1012.842	412.62
1016.125	401.65
1019.408	393.05
1022.69	390.03
1025.972	380.27
1029.254	371.31
1032.536	366.17
1035.817	358.66
1039.098	354.54
1042.379	346.01
1045.659	342.02
1048.939	335.82
1052.219	328.7
1055.498	324.88
1058.778	316.27
1062.057	311.36
1065.335	307.77
1068.614	304.3
1071.892	300.28
1075.17	292.26
1078.447	287.79
1081.724	285.46
1085.001	281.83
1088.278	277.64
1091.554	271.73
1094.83	271.65
1098.106	269.1
1101.382	266.41
1104.657	263.81
1107.932	259.68
1111.206	260.89
1114.481	254.27
1117.755	252.17
1121.029	250.8
1124.302	249.46
1127.575	245.47
1130.848	242.64
1134.121	240
1137.393	238.8
1140.665	234.75
1143.937	232.59
1147.208	231.12
1150.48	230.48
1153.75	226.87
1157.021	223.94
1160.291	224.23
1163.561	221.19
1166.831	220.46
1170.101	218.95
1173.37	219.48
1176.639	219.45
1179.907	217.84
1183.176	214.88
1186.444	215.05
1189.711	215.26
1192.979	214.62
1196.246	212.8
1199.513	214.43
1202.78	213.61
1206.046	213.96
1209.312	210.84
1212.578	211.15
1215.843	212.74
1219.108	211.38
1222.373	214.94
1225.638	216.36
1228.902	219.06
1232.166	219.35
1235.43	219.59
1238.693	222.98
1241.956	223.95
1245.219	227.62
1248.482	227.92
1251.744	227.76
1255.006	230.3
1258.268	224.31
1261.529	222.64
1264.79	221.84
1268.051	220.53
1271.312	218.36
1274.572	215.57
1277.832	213.47
1281.092	210.08
1284.351	208.71
1287.61	209.08
1290.869	204.3
1294.128	203.82
1297.386	203.57
1300.644	200.79
1303.902	202.29
1307.159	201.6
1310.416	201.45
1313.673	201.1
1316.93	202.9
1320.186	202.51
1323.442	202.59
1326.697	206.12
1329.953	207.22
1333.208	207.67
1336.463	210.59
1339.717	210.42
1342.972	213.43
1346.226	214.3
1349.479	215
1352.733	215.96
1355.986	217.73
1359.238	217.26
1362.491	218.4
1365.743	220.04
1368.995	220.67
1372.247	219.8
1375.498	219.33
1378.749	219.98
1382	218.01
1385.251	218.26
1388.501	217.24
1391.751	216.76
1395	216.41
1398.25	214.46
1401.499	212.02
1404.748	211.61
1407.996	209.26
1411.244	208.63
1414.492	206.99
1417.74	205.01
1420.987	202.31
1424.234	201.88
1427.481	199.31
1430.728	199.14
1433.974	197.53
1437.22	197.2
1440.465	195.7
1443.711	194.11
1446.956	193.23
1450.201	191.55
1453.445	189.87
1456.689	188.76
1459.933	185.53
1463.177	183.54
1466.42	180.65
1469.663	178.36
1472.906	176.55
1476.148	172.68
1479.391	171
1482.633	169.19
1485.874	166.64
1489.115	165.82
1492.356	164.23
1495.597	163.81
1498.838	162.05
1502.078	161
1505.318	160.59
1508.557	160.45
1511.797	160.21
1515.036	158.4
1518.274	158.08
1521.513	156.9
1524.751	156.5
1527.989	156.3
1531.227	155.4
1534.464	155.72
1537.701	155.7
1540.938	155.05
1544.174	152.58
1547.41	153.51
1550.646	152.92
1553.882	152.29
1557.117	150.73
1560.352	150.04
1563.587	149.4
1566.821	148.46
1570.055	147.94
1573.289	146.1
1576.523	146.2
1579.756	145.45
1582.989	143.48
1586.222	143.82
1589.454	144.12
1592.686	144.89
1595.918	144.13
1599.15	143.66
1602.381	144.04
1605.612	143.2
1608.843	143.64
1612.073	143.5
1615.303	144.57
1618.533	145.15
1621.762	144.51
1624.992	144.58
1628.221	144.26
1631.449	144.3
1634.678	144.51
1637.906	145.36
1641.134	145.04
1644.361	144.55
1647.588	145.22
1650.815	144.98
1654.042	144.07
1657.269	144.94
1660.495	144.25
1663.72	144.19
1666.946	144.72
1670.171	144.87
1673.396	144.73
1676.621	144.84
1679.845	145.39
1683.069	145.85
1686.293	146.27
1689.517	147.54
1692.74	147.67
1695.963	148.52
1699.185	149.62
1702.408	149.49
1705.63	149.9
1708.852	150.15
1712.073	150.76
1715.294	151.24
1718.515	151.25
1721.736	151.31
1724.956	151.43
1728.176	151.58
1731.396	152.44
1734.616	151.67
1737.835	152.6
1741.054	151.79
1744.272	152.09
1747.491	153.43
1750.709	153.91
1753.927	153.72
1757.144	153.26
1760.361	153.66
1763.578	153.92
1766.795	153.33
1770.011	155.16
1773.227	154.97
1776.443	156.64
1779.658	156.71
1782.874	156.64
1786.089	156.37
1789.303	157.24
1792.518	158.76
1795.732	158.89
1798.945	159.84
1802.159	160.24
1805.372	160.02
1808.585	162.49
1811.797	162.63
1815.01	163.95
1818.222	164.7
1821.434	167.54
1824.645	167.16
1827.856	170.23
1831.067	171.32
1834.278	172.07
1837.488	173.32
1840.698	174.12
1843.908	172.85
1847.117	173.14
1850.326	173.83
1853.535	172.6
1856.744	174.37
1859.952	174.95
1863.16	172.93
1866.368	172.35
1869.575	172.57
1872.782	170.21
1875.989	170.4
1879.196	169.26
1882.402	169.21
1885.608	168.85
1888.814	169.64
1892.019	168.93
1895.224	168.2
1898.429	168.35
1901.634	169.05
1904.838	169.43
1908.042	171.35
1911.246	171.04
1914.449	172.55
1917.652	172.99
1920.855	172.9
1924.058	172.73
1927.26	171.64
1930.462	172.14
1933.664	174.04
1936.865	171.95
1940.066	171.7
1943.267	171.07
1946.467	171.49
1949.668	171.92
1952.868	173.4
1956.067	174.17
1959.267	173.88
1962.466	174.43
1965.665	173.56
1968.863	174.01
1972.061	177.77
1975.259	178.8
1978.457	180.25
1981.654	181.37
1984.852	182.32
1988.048	181.68
1991.245	183.14
1994.441	185.56
1997.637	186.75
2000.833	191.4
2004.028	193.63
2007.223	193.64
2010.418	196.46
2013.613	199.21
2016.807	201.76
2020.001	203.23
2023.194	206.53
2026.388	211.03
2029.581	216.23
2032.774	218.16
2035.966	221.08
2039.158	221.39
2042.35	225.72
2045.542	227.23
2048.733	230.07
2051.924	233.93
2055.115	237.3
2058.306	237.72
2061.496	238.81
2064.686	240.04
2067.875	244.6
2071.065	245.46
2074.254	243.58
2077.442	247.61
2080.631	248.34
2083.819	250.64
2087.007	251.32
2090.195	254.18
2093.382	256.37
2096.569	255.75
2099.756	258.29
2102.942	258.72
2106.128	260.6
2109.314	268.38
2112.5	266.78
2115.685	272.37
2118.87	273.2
2122.055	277.76
2125.239	279.82
2128.424	283.48
2131.608	286.41
2134.791	290.12
2137.974	290.89
2141.157	291.86
2144.34	291.56
2147.523	296.14
2150.705	294.39
2153.887	297.18
2157.068	296.94
2160.25	295.44
2163.431	297.86
2166.611	300.52
2169.792	305.21
2172.972	308.76
2176.152	312.33
2179.331	315.34
2182.511	319.68
2185.69	323.48
2188.868	330.59
2192.047	331.08
2195.225	340.25
2198.403	347.41
2201.58	353.42
2204.758	361.13
2207.935	366.47
2211.111	374.67
2214.288	378.73
2217.464	379.88
2220.64	385.75
2223.815	389.62
2226.991	406.18
2230.166	407.26
2233.34	411.22
2236.515	418.45
2239.689	419.47
2242.863	424.49
2246.036	431.92
2249.209	430.79
2252.382	437.31
2255.555	450.67
2258.727	452.72
2261.9	454.88
2265.071	458.62
2268.243	467.67
2271.414	474.19
2274.585	483.36
2277.756	486.77
2280.926	490.59
2284.096	502.29
2287.266	514.75
2290.436	517.59
2293.605	528.7
2296.774	545.78
2299.942	560.49
2303.111	565.1
2306.279	575.94
2309.447	584.22
2312.614	601.16
2315.781	617.94
2318.948	647.09
2322.115	636.66
2325.281	672.28
2328.447	660.64
2331.613	682.84
2334.779	679.4
2337.944	706.28
2341.109	712.49
2344.274	732.51
2347.438	757.44
2350.602	759.75
2353.766	780.32
2356.929	793.71
2360.092	786.84
2363.255	842.29
2366.418	842.87
2369.58	857.23
2372.742	914.06
2375.904	939.24
2379.066	932.72
2382.227	917.02
2385.388	991.26
2388.548	988.06
2391.709	999.1
2394.869	1114.4
2398.029	1069.78
2401.188	1100.33
2404.347	1097.75
2407.506	1074.24
2410.665	1105.65
2413.823	1170.29
2416.981	1233.45
2420.139	1201.24
2423.296	1191.85
2426.453	1248.39
2429.61	1200.49
2432.767	1247.98
2435.923	1233.22
2439.079	1352.35
2442.235	1375.94
2445.391	1365.97
2448.546	1353.39
2451.701	1314.99
2454.855	1307.94
2458.009	1388.44
2461.163	1443.22
2464.317	1489.19
2467.471	1531.11
2470.624	1538.28
2473.777	1487.37
2476.929	1444.21
2480.082	1396.77
2483.234	1387.54
2486.385	1460.62
2489.537	1470.43
2492.688	1526.59
2495.839	1486.91
2498.989	1453.1
2502.14	1458.3
2505.29	1469.4
2508.439	1492.79
2511.589	1495.1
2514.738	1629.86
2517.887	1590.52
2521.035	1678.11
2524.183	1688.98
2527.331	1698.34
2530.479	1680.81
2533.627	1699.95
