Data from C_3_DEC_OH_4N_Splice17_14-20-37-432.txt Node
Date: Sat Mar 07 14:20:37 EST 2020
User: sa697716
Spectrometer: NQ5500242
Trigger mode: 0
Integration Time (sec): 1.450000E-1
Scans to average: 20
Nonlinearity correction enabled: false
Boxcar width: 5
Storing dark spectrum: false
XAxis mode: Wavelengths
Number of Pixels in Spectrum: 512
>>>>>Begin Spectral Data<<<<<
187.83	92.95
188.298	94.24
188.766	78.66
189.233	59.05
189.701	72.01
190.169	92.33
190.636	90.62
191.104	156.59
191.571	132.07
192.039	171.44
192.506	71.6
192.974	133.65
193.441	193.23
193.908	63.95
194.375	24.95
194.842	31.47
195.31	93.83
195.777	197.07
196.244	85.37
196.711	79.28
197.177	80.39
197.644	79.33
198.111	78.55
198.578	78.51
199.045	78.58
199.511	77.94
199.978	77.84
200.445	77.7
200.911	77.56
201.378	77.79
201.844	77.37
202.31	76.85
202.777	76.59
203.243	76.47
203.709	75.91
204.176	75.26
204.642	74.38
205.108	74.07
205.574	73.31
206.04	72.6
206.506	71.6
206.972	70.9
207.438	69.88
207.903	68.86
208.369	67.13
208.835	65.22
209.301	63.63
209.766	62.02
210.232	59.78
210.697	57.87
211.163	55.98
211.628	54.16
212.094	52.58
212.559	51.21
213.024	49.51
213.49	48.2
213.955	46.94
214.42	45.58
214.885	43.91
215.35	41.77
215.815	39.03
216.28	35.67
216.745	31.98
217.21	28.24
217.675	24.8
218.14	21.74
218.604	19.06
219.069	16.84
219.534	14.88
219.998	13.36
220.463	12.1
220.927	11.02
221.392	10.18
221.856	9.49
222.32	8.88
222.785	8.34
223.249	7.9
223.713	7.5
224.177	7.19
224.642	6.91
225.106	6.6
225.57	6.36
226.034	6.13
226.497	5.89
226.961	5.68
227.425	5.51
227.889	5.34
228.353	5.17
228.816	5.02
229.28	4.85
229.744	4.72
230.207	4.59
230.671	4.45
231.134	4.35
231.597	4.27
232.061	4.16
232.524	4.06
232.987	3.97
233.45	3.91
233.914	3.83
234.377	3.77
234.84	3.71
235.303	3.65
235.766	3.6
236.229	3.55
236.691	3.49
237.154	3.45
237.617	3.4
238.08	3.35
238.542	3.3
239.005	3.27
239.468	3.23
239.93	3.19
240.393	3.16
240.855	3.12
241.317	3.09
241.78	3.05
242.242	3.01
242.704	2.97
243.166	2.94
243.629	2.91
244.091	2.86
244.553	2.83
245.015	2.8
245.477	2.76
245.939	2.73
246.4	2.7
246.862	2.67
247.324	2.65
247.786	2.62
248.247	2.59
248.709	2.56
249.17	2.52
249.632	2.5
250.093	2.48
250.555	2.45
251.016	2.43
251.477	2.4
251.939	2.39
252.4	2.37
252.861	2.35
253.322	2.34
253.783	2.33
254.244	2.32
254.705	2.3
255.166	2.29
255.627	2.27
256.088	2.26
256.549	2.25
257.009	2.23
257.47	2.21
257.931	2.18
258.391	2.15
258.852	2.12
259.312	2.09
259.773	2.07
260.233	2.05
260.694	2.03
261.154	2
261.614	1.97
262.074	1.95
262.534	1.92
262.994	1.9
263.455	1.88
263.915	1.86
264.374	1.85
264.834	1.83
265.294	1.81
265.754	1.8
266.214	1.78
266.673	1.77
267.133	1.76
267.593	1.75
268.052	1.74
268.512	1.74
268.971	1.73
269.431	1.72
269.89	1.71
270.349	1.71
270.809	1.7
271.268	1.7
271.727	1.69
272.186	1.69
272.645	1.68
273.104	1.68
273.563	1.67
274.022	1.67
274.481	1.68
274.94	1.68
275.399	1.68
275.857	1.68
276.316	1.68
276.775	1.69
277.233	1.69
277.692	1.7
278.15	1.71
278.609	1.71
279.067	1.72
279.525	1.72
279.984	1.73
280.442	1.73
280.9	1.74
281.358	1.75
281.816	1.75
282.274	1.76
282.732	1.76
283.19	1.76
283.648	1.77
284.106	1.77
284.564	1.78
285.021	1.78
285.479	1.79
285.937	1.79
286.394	1.79
286.852	1.79
287.309	1.79
287.767	1.78
288.224	1.78
288.682	1.77
289.139	1.76
289.596	1.75
290.053	1.74
290.511	1.72
290.968	1.71
291.425	1.7
291.882	1.69
292.339	1.67
292.796	1.66
293.252	1.66
293.709	1.65
294.166	1.64
294.623	1.63
295.079	1.63
295.536	1.63
295.992	1.62
296.449	1.62
296.905	1.62
297.362	1.61
297.818	1.61
298.274	1.6
298.731	1.6
299.187	1.6
299.643	1.59
300.099	1.58
300.555	1.58
301.011	1.58
301.467	1.58
301.923	1.57
302.379	1.58
302.835	1.59
303.291	1.59
303.746	1.59
304.202	1.6
304.658	1.61
305.113	1.62
305.569	1.62
306.024	1.63
306.479	1.64
306.935	1.65
307.39	1.65
307.845	1.66
308.301	1.67
308.756	1.67
309.211	1.68
309.666	1.69
310.121	1.7
310.576	1.71
311.031	1.72
311.486	1.73
311.94	1.74
312.395	1.74
312.85	1.74
313.305	1.75
313.759	1.76
314.214	1.76
314.668	1.76
315.123	1.76
315.577	1.76
316.032	1.77
316.486	1.76
316.94	1.76
317.394	1.77
317.849	1.75
318.303	1.75
318.757	1.74
319.211	1.72
319.665	1.71
320.119	1.7
320.572	1.69
321.026	1.68
321.48	1.67
321.934	1.66
322.387	1.66
322.841	1.66
323.295	1.66
323.748	1.66
324.202	1.67
324.655	1.68
325.108	1.68
325.562	1.68
326.015	1.69
326.468	1.69
326.921	1.7
327.374	1.7
327.827	1.7
328.28	1.7
328.733	1.7
329.186	1.71
329.639	1.72
330.092	1.72
330.545	1.72
330.997	1.73
331.45	1.74
331.903	1.75
332.355	1.76
332.808	1.77
333.26	1.78
333.713	1.78
334.165	1.79
334.617	1.79
335.069	1.79
335.522	1.81
335.974	1.82
336.426	1.81
336.878	1.81
337.33	1.81
337.782	1.82
338.234	1.82
338.686	1.82
339.137	1.83
339.589	1.82
340.041	1.82
340.493	1.81
340.944	1.79
341.396	1.78
341.847	1.77
342.299	1.76
342.75	1.74
343.201	1.73
343.653	1.73
344.104	1.71
344.555	1.7
345.006	1.7
345.457	1.69
345.908	1.69
346.359	1.69
346.81	1.69
347.261	1.69
347.712	1.69
348.163	1.69
348.613	1.68
349.064	1.68
349.515	1.68
349.965	1.69
350.416	1.69
350.866	1.69
351.317	1.69
351.767	1.7
352.217	1.7
352.668	1.7
353.118	1.71
353.568	1.71
354.018	1.72
354.468	1.72
354.918	1.73
355.368	1.74
355.818	1.74
356.268	1.74
356.718	1.75
357.168	1.74
357.617	1.75
358.067	1.75
358.517	1.76
358.966	1.76
359.416	1.76
359.865	1.76
360.315	1.77
360.764	1.78
361.213	1.78
361.663	1.78
362.112	1.79
362.561	1.8
363.01	1.8
363.459	1.79
363.908	1.79
364.357	1.79
364.806	1.78
365.255	1.79
365.703	1.8
366.152	1.8
366.601	1.81
367.05	1.81
367.498	1.8
367.947	1.82
368.395	1.83
368.844	1.83
369.292	1.83
369.74	1.84
370.189	1.84
370.637	1.83
371.085	1.83
371.533	1.83
371.981	1.83
372.429	1.83
372.877	1.84
373.325	1.84
373.773	1.83
374.221	1.84
374.669	1.84
375.116	1.83
375.564	1.84
376.012	1.84
376.459	1.84
376.907	1.85
377.354	1.86
377.801	1.87
378.249	1.88
378.696	1.9
379.143	1.9
379.591	1.91
380.038	1.93
380.485	1.95
380.932	1.96
381.379	1.98
381.826	2.01
382.273	2.03
382.72	2.05
383.166	2.09
383.613	2.14
384.06	2.19
384.506	2.27
384.953	2.37
385.4	2.49
385.846	2.64
386.292	2.82
386.739	3.01
387.185	3.22
387.631	3.43
388.078	3.61
388.524	3.8
388.97	4.01
389.416	4.28
389.862	4.66
390.308	5.12
390.754	5.63
391.2	6.12
391.645	6.54
392.091	6.96
392.537	7.48
392.983	8.25
393.428	9.26
393.874	10.45
394.319	11.69
394.765	12.95
395.21	14.22
395.655	15.53
396.101	16.96
396.546	18.54
396.991	20.22
397.436	21.91
397.881	23.51
398.326	24.94
398.771	26.22
399.216	27.38
399.661	28.4
400.106	29.21
400.551	29.87
400.995	30.39
401.44	30.85
401.885	31.3
402.329	31.74
402.774	32.25
403.218	32.81
403.663	33.38
404.107	33.99
404.551	34.54
404.995	35.11
405.44	35.72
405.884	36.38
406.328	37.11
406.772	37.84
407.216	38.58
407.66	39.17
408.104	39.63
408.547	40.03
408.991	40.45
409.435	40.97
409.879	41.61
410.322	42.34
410.766	43.04
411.209	43.72
411.653	44.32
412.096	44.86
412.54	45.43
412.983	46.15
413.426	46.92
413.869	47.61
414.312	48.32
414.756	48.94
415.199	49.43
415.642	49.85
416.085	50.16
416.527	50.31
416.97	50.3
417.413	50.17
417.856	49.91
418.298	49.7
418.741	49.64
419.184	49.62
419.626	49.67
420.069	49.7
420.511	49.87
420.953	50.03
421.396	50.47
421.838	51.08
422.28	51.71
422.722	52.42
423.164	52.97
423.606	53.41
424.048	53.65
424.49	53.65
424.932	53.42
425.374	52.75
425.816	51.96
426.258	51.19
426.699	50.66
427.141	50.62
427.582	50.88
428.024	51.34
428.465	51.79
428.907	52.12
429.348	52.42
429.789	53.06
430.231	54.31
430.672	55.85
431.113	57.48
431.554	58.77
431.995	59.74
432.436	60.32
432.877	60.89
433.318	61.47
433.759	62.35
434.2	63.43
434.64	64.52
435.081	65.34
435.522	66.17
435.962	66.73
436.403	67.47
436.843	67.94
437.284	68.33
437.724	68.74
438.164	69.2
438.604	69.79
439.045	70.21
439.485	70.5
439.925	70.77
440.365	70.91
440.805	71.13
441.245	71.1
441.685	71.47
442.125	71.81
442.564	72.11
443.004	72.33
443.444	72.57
443.883	72.88
444.323	73.23
444.762	73.65
445.202	74.04
445.641	74.42
446.081	75.07
446.52	75.29
446.959	75.74
447.398	76.09
447.837	76.18
448.276	76.07
448.716	75.93
449.154	75.87
449.593	75.7
450.032	75.3
450.471	74.78
450.91	74.12
451.349	73.53
451.787	72.88
452.226	72.18
452.664	71.62
453.103	71.07
453.541	70.35
453.98	69.54
454.418	68.65
454.856	67.9
455.295	67.34
455.733	66.65
456.171	66.1
456.609	65.67
457.047	65.03
457.485	64.71
457.923	64.52
458.361	64.47
458.798	64.52
459.236	64.57
459.674	64.77
460.111	64.81
460.549	65.16
460.987	65.44
461.424	65.61
461.862	66.05
462.299	66.29
462.736	66.49
463.173	66.86
463.611	67.25
464.048	67.76
464.485	68.24
464.922	68.75
465.359	69.19
465.796	69.53
466.233	70.1
466.67	70.6
467.106	71.14
467.543	71.64
467.98	72.03
468.416	72.37
468.853	72.63
469.29	72.82
469.726	73.04
470.162	73.19
470.599	73.31
471.035	73.25
471.471	73.13
471.907	72.91
472.344	72.73
472.78	72.47
473.216	72.16
473.652	71.85
474.088	71.44
474.523	70.98
474.959	70.5
475.395	70.01
475.831	69.51
476.266	69.04
476.702	68.57
477.138	67.98
477.573	67.39
478.008	66.76
478.444	66.01
478.879	65.31
479.314	64.59
479.75	63.82
480.185	63.03
480.62	62.11
481.055	61.06
481.49	59.86
481.925	58.69
482.36	57.61
482.795	56.71
483.229	55.98
483.664	55.29
484.099	54.62
484.534	54.03
484.968	53.59
485.403	53.28
485.837	53.17
486.271	53.16
486.706	53.14
487.14	53.08
487.574	52.92
488.009	52.73
488.443	52.54
488.877	52.42
489.311	52.33
489.745	52.23
490.179	52.17
490.613	52.11
491.046	52.09
491.48	52.14
491.914	52.22
492.348	52.37
492.781	52.5
493.215	52.63
493.648	52.71
494.082	52.75
494.515	52.81
494.948	52.84
495.382	52.87
495.815	52.85
496.248	52.86
496.681	52.85
497.114	52.78
497.547	52.73
497.98	52.77
498.413	52.85
498.846	52.96
499.279	53.02
499.711	53.11
500.144	53.25
500.577	53.47
501.009	53.73
501.442	54.08
501.874	54.42
502.306	54.77
502.739	55.04
503.171	55.3
503.603	55.53
504.036	55.82
504.468	56.12
504.9	56.4
505.332	56.65
505.764	56.86
506.196	57.04
506.627	57.28
507.059	57.54
507.491	57.83
507.923	58.07
508.354	58.37
508.786	58.59
509.217	58.77
509.649	58.94
510.08	59.15
510.512	59.39
510.943	59.63
511.374	59.8
511.805	59.83
512.237	59.78
512.668	59.76
513.099	59.73
513.53	59.78
513.961	59.89
514.391	60.03
514.822	60.2
515.253	60.39
515.684	60.6
516.114	60.89
516.545	61.29
516.975	61.81
517.406	62.3
517.836	62.79
518.267	63.2
518.697	63.57
519.127	63.92
519.558	64.29
519.988	64.62
520.418	64.91
520.848	65.13
521.278	65.26
521.708	65.32
522.138	65.31
522.567	65.28
522.997	65.3
523.427	65.4
523.857	65.51
524.286	65.6
524.716	65.72
525.145	65.78
525.575	65.91
526.004	66.13
526.433	66.41
526.863	66.79
527.292	67.12
527.721	67.31
528.15	67.4
528.579	67.39
529.008	67.37
529.437	67.29
529.866	67.26
530.295	67.24
530.724	67.21
531.152	67.19
531.581	67.13
532.01	67.09
532.438	67.09
532.867	67.12
533.295	67.19
533.723	67.23
534.152	67.26
534.58	67.24
535.008	67.1
535.436	66.97
535.865	66.74
536.293	66.55
536.721	66.44
537.149	66.4
537.576	66.43
538.004	66.45
538.432	66.43
538.86	66.46
539.287	66.53
539.715	66.7
540.143	66.9
540.57	67.17
540.998	67.44
541.425	67.65
541.852	67.92
542.28	68.13
542.707	68.32
543.134	68.51
543.561	68.69
543.988	68.87
544.415	69.05
544.842	69.23
545.269	69.4
545.696	69.58
546.123	69.79
546.549	69.94
546.976	70.09
547.403	70.26
547.829	70.44
548.256	70.63
548.682	70.77
549.108	70.95
549.535	71.12
549.961	71.26
550.387	71.4
550.813	71.55
551.24	71.65
551.666	71.69
552.092	71.71
552.518	71.74
552.943	71.72
553.369	71.72
553.795	71.62
554.221	71.46
554.646	71.29
555.072	71.06
555.498	70.84
555.923	70.69
556.349	70.55
556.774	70.41
557.199	70.24
557.625	70.12
558.05	69.97
558.475	69.85
558.9	69.74
559.325	69.65
559.75	69.53
560.175	69.4
560.6	69.17
561.025	68.89
561.449	68.57
561.874	68.26
562.299	67.91
562.723	67.6
563.148	67.21
563.572	66.82
563.997	66.39
564.421	65.95
564.846	65.53
565.27	65.09
565.694	64.69
566.118	64.23
566.542	63.8
566.966	63.35
567.39	62.94
567.814	62.59
568.238	62.29
568.662	62.05
569.086	61.84
569.509	61.63
569.933	61.46
570.357	61.32
570.78	61.24
571.204	61.16
571.627	61.13
572.05	61.09
572.474	61.08
572.897	61.07
573.32	61.03
573.743	61.01
574.166	60.99
574.589	61.01
575.012	61.07
575.435	61.19
575.858	61.34
576.281	61.5
576.704	61.65
577.126	61.81
577.549	61.96
577.972	62.2
578.394	62.44
578.817	62.7
579.239	62.98
579.661	63.23
580.084	63.44
580.506	63.64
580.928	63.8
581.35	63.98
581.772	64.11
582.194	64.27
582.616	64.42
583.038	64.58
583.46	64.67
583.882	64.69
584.303	64.63
584.725	64.56
585.147	64.45
585.568	64.42
585.99	64.41
586.411	64.48
586.833	64.52
587.254	64.53
587.675	64.56
588.096	64.64
588.518	64.78
588.939	65
589.36	65.21
589.781	65.46
590.202	65.6
590.623	65.73
591.043	65.76
591.464	65.81
591.885	65.83
592.305	65.87
592.726	65.86
593.147	65.8
593.567	65.72
593.987	65.61
594.408	65.49
594.828	65.41
595.248	65.28
595.669	65.13
596.089	64.91
596.509	64.71
596.929	64.43
597.349	64.16
597.769	63.9
598.189	63.67
598.608	63.52
599.028	63.37
599.448	63.21
599.867	63.09
600.287	63.02
600.706	62.93
601.126	62.84
601.545	62.82
601.965	62.81
602.384	62.81
602.803	62.79
603.222	62.71
603.641	62.66
604.061	62.61
604.48	62.53
604.898	62.46
605.317	62.41
605.736	62.35
606.155	62.29
606.574	62.22
606.992	62.18
607.411	62.12
607.829	62.08
608.248	62.03
608.666	61.98
609.085	61.93
609.503	61.85
609.921	61.81
610.339	61.78
610.758	61.74
611.176	61.67
611.594	61.57
612.012	61.47
612.43	61.36
612.847	61.29
613.265	61.23
613.683	61.21
614.101	61.22
614.518	61.19
614.936	61.18
615.353	61.17
615.771	61.2
616.188	61.26
616.606	61.32
617.023	61.39
617.44	61.43
617.857	61.4
618.274	61.36
618.691	61.3
619.108	61.23
619.525	61.13
619.942	61.01
620.359	60.84
620.776	60.67
621.192	60.51
621.609	60.39
622.026	60.25
622.442	60.17
622.859	60.06
623.275	59.91
623.691	59.79
624.108	59.7
624.524	59.62
624.94	59.56
625.356	59.5
625.772	59.44
626.188	59.39
626.604	59.32
627.02	59.25
627.436	59.21
627.852	59.25
628.268	59.27
628.683	59.3
629.099	59.36
629.514	59.42
629.93	59.49
630.345	59.58
630.761	59.62
631.176	59.69
631.591	59.73
632.007	59.81
632.422	59.88
632.837	59.96
633.252	60.01
633.667	60.08
634.082	60.11
634.497	60.19
634.911	60.21
635.326	60.22
635.741	60.22
636.155	60.22
636.57	60.17
636.984	60.12
637.399	60.03
637.813	59.97
638.228	59.88
638.642	59.82
639.056	59.73
639.47	59.67
639.884	59.61
640.298	59.55
640.712	59.5
641.126	59.45
641.54	59.36
641.954	59.28
642.368	59.16
642.781	59.05
643.195	58.94
643.609	58.82
644.022	58.72
644.436	58.59
644.849	58.44
645.262	58.26
645.676	58.13
646.089	58.07
646.502	58.03
646.915	58
647.328	57.97
647.741	57.92
648.154	57.89
648.567	57.82
648.98	57.83
649.393	57.86
649.805	57.91
650.218	57.88
650.631	57.73
651.043	57.47
651.456	57.01
651.868	56.42
652.28	55.85
652.693	55.4
653.105	55.04
653.517	54.77
653.929	54.57
654.341	54.42
654.753	54.3
655.165	54.29
655.577	54.43
655.989	54.77
656.401	55.22
656.813	55.7
657.224	56.03
657.636	56.29
658.047	56.45
658.459	56.51
658.87	56.5
659.282	56.5
659.693	56.46
660.104	56.36
660.515	56.26
660.926	56.17
661.338	56.07
661.749	55.93
662.159	55.78
662.57	55.64
662.981	55.51
663.392	55.37
663.803	55.27
664.213	55.17
664.624	55.07
665.035	54.95
665.445	54.82
665.855	54.67
666.266	54.54
666.676	54.41
667.086	54.22
667.497	54.06
667.907	53.91
668.317	53.74
668.727	53.57
669.137	53.39
669.547	53.27
669.956	53.11
670.366	52.97
670.776	52.83
671.186	52.71
671.595	52.62
672.005	52.53
672.414	52.46
672.824	52.37
673.233	52.3
673.642	52.26
674.052	52.18
674.461	52.12
674.87	52.07
675.279	52.04
675.688	52
676.097	51.98
676.506	51.96
676.915	51.95
677.323	51.94
677.732	51.94
678.141	51.95
678.549	51.96
678.958	51.98
679.366	51.96
679.775	51.94
680.183	51.94
680.592	51.95
681	51.96
681.408	51.91
681.816	51.72
682.224	51.26
682.632	50.49
683.04	49.61
683.448	48.78
683.856	48.06
684.264	47.41
684.671	46.78
685.079	46.17
685.487	45.64
685.894	45.24
686.302	45.05
686.709	45.22
687.116	45.74
687.524	46.48
687.931	47.26
688.338	47.98
688.745	48.66
689.152	49.35
689.559	50.02
689.966	50.65
690.373	51.23
690.78	51.77
691.187	52.27
691.593	52.74
692	53.18
692.407	53.57
692.813	53.97
693.22	54.35
693.626	54.72
694.032	55.08
694.439	55.41
694.845	55.72
695.251	56.01
695.657	56.26
696.063	56.46
696.469	56.62
696.875	56.76
697.281	56.89
697.687	56.99
698.093	57.1
698.498	57.24
698.904	57.43
699.31	57.63
699.715	57.87
700.12	58.16
700.526	58.46
700.931	58.76
701.337	59.07
701.742	59.35
702.147	59.68
702.552	60.02
702.957	60.3
703.362	60.59
703.767	60.82
704.172	61.04
704.577	61.22
704.981	61.4
705.386	61.62
705.791	61.82
706.195	62.05
706.6	62.25
707.004	62.42
707.408	62.59
707.813	62.75
708.217	62.89
708.621	63.05
709.025	63.18
709.43	63.3
709.834	63.44
710.237	63.53
710.641	63.61
711.045	63.7
711.449	63.78
711.853	63.79
712.256	63.66
712.66	63.45
713.064	63.14
713.467	62.71
713.87	62.2
714.274	61.57
714.677	60.95
715.08	60.29
715.484	59.64
715.887	59.05
716.29	58.62
716.693	58.43
717.096	58.51
717.499	58.78
717.901	59.2
718.304	59.68
718.707	60.2
719.109	60.68
719.512	61.1
719.915	61.51
720.317	61.82
720.719	62.05
721.122	62.18
721.524	62.17
721.926	62.1
722.328	62
722.731	61.88
723.133	61.82
723.535	61.84
723.937	61.93
724.338	61.99
724.74	62.11
725.142	62.24
725.544	62.35
725.945	62.48
726.347	62.54
726.748	62.62
727.15	62.76
727.551	62.98
727.952	63.18
728.354	63.46
728.755	63.76
729.156	64.1
729.557	64.45
729.958	64.83
730.359	65.18
730.76	65.52
731.161	65.83
731.562	66.08
731.962	66.24
732.363	66.41
732.763	66.52
733.164	66.63
733.564	66.69
733.965	66.69
734.365	66.61
734.766	66.52
735.166	66.46
735.566	66.43
735.966	66.43
736.366	66.42
736.766	66.37
737.166	66.32
737.566	66.24
737.966	66.17
738.365	66.14
738.765	66.19
739.165	66.27
739.564	66.33
739.964	66.32
740.363	66.31
740.763	66.32
741.162	66.35
741.561	66.4
741.96	66.46
742.36	66.52
742.759	66.55
743.158	66.55
743.557	66.5
743.955	66.48
744.354	66.47
744.753	66.48
745.152	66.45
745.55	66.38
745.949	66.32
746.348	66.25
746.746	66.14
747.144	66.07
747.543	65.94
747.941	65.83
748.339	65.68
748.737	65.55
749.136	65.44
749.534	65.35
749.932	65.29
750.33	65.21
750.727	65.1
751.125	65
751.523	64.87
751.921	64.76
752.318	64.64
752.716	64.53
753.113	64.41
753.511	64.24
753.908	64.07
754.305	63.73
754.703	62.99
755.1	61.65
755.497	59.53
755.894	56.7
756.291	53.51
756.688	50.28
757.085	47.28
757.482	44.52
757.878	41.89
758.275	39.21
758.672	36.6
759.068	34.42
759.465	32.94
759.861	32.46
760.258	32.86
760.654	33.85
761.05	35.1
761.447	36.36
761.843	37.58
762.239	38.9
762.635	40.5
763.031	42.38
763.427	44.38
763.822	46.45
764.218	48.45
764.614	50.34
765.01	52.05
765.405	53.6
765.801	54.98
766.196	56.21
766.592	57.2
766.987	58.03
767.382	58.64
767.778	59.09
768.173	59.43
768.568	59.65
768.963	59.84
769.358	60.02
769.753	60.12
770.148	60.14
770.542	60.09
770.937	60.08
771.332	60.01
771.726	59.99
772.121	59.95
772.515	59.93
772.91	59.87
773.304	59.76
773.699	59.63
774.093	59.52
774.487	59.46
774.881	59.43
775.275	59.33
775.669	59.21
776.063	59.06
776.457	58.92
776.851	58.73
777.245	58.58
777.638	58.46
778.032	58.38
778.425	58.29
778.819	58.12
779.212	57.92
779.606	57.79
779.999	57.66
780.392	57.54
780.786	57.4
781.179	57.3
781.572	57.2
781.965	57.04
782.358	56.89
782.751	56.68
783.143	56.53
783.536	56.36
783.929	56.19
784.322	55.98
784.714	55.79
785.107	55.61
785.499	55.34
785.891	55.07
786.284	54.84
786.676	54.58
787.068	54.33
787.46	54.08
787.852	53.83
788.245	53.55
788.636	53.3
789.028	53.02
789.42	52.71
789.812	52.46
790.204	52.19
790.595	51.95
790.987	51.74
791.378	51.56
791.77	51.35
792.161	51.13
792.553	50.96
792.944	50.8
793.335	50.68
793.726	50.56
794.117	50.41
794.508	50.25
794.899	50.09
795.29	49.89
795.681	49.65
796.072	49.43
796.463	49.23
796.853	48.99
797.244	48.75
797.634	48.46
798.025	48.2
798.415	47.95
798.806	47.69
799.196	47.42
799.586	47.17
799.976	46.95
800.366	46.71
800.756	46.46
801.146	46.25
801.536	46.01
801.926	45.8
802.316	45.58
802.706	45.39
803.095	45.18
803.485	44.94
803.874	44.68
804.264	44.42
804.653	44.16
805.043	43.9
805.432	43.61
805.821	43.33
806.21	43
806.599	42.71
806.988	42.39
807.377	42.06
807.766	41.74
808.155	41.39
808.544	41.05
808.933	40.68
809.321	40.28
809.71	39.87
810.098	39.44
810.487	38.95
810.875	38.44
811.264	37.92
811.652	37.39
812.04	36.84
812.428	36.32
812.816	35.82
813.204	35.34
813.592	34.89
813.98	34.48
814.368	34.09
814.756	33.75
815.144	33.44
815.531	33.17
815.919	32.99
816.306	32.88
816.694	32.79
817.081	32.7
817.469	32.59
817.856	32.41
818.243	32.16
818.63	31.88
819.017	31.61
819.404	31.41
819.791	31.24
820.178	31.06
820.565	30.84
820.952	30.63
821.339	30.42
821.725	30.25
822.112	30.18
822.498	30.16
822.885	30.16
823.271	30.12
823.657	29.99
824.044	29.82
824.43	29.62
824.816	29.44
825.202	29.22
825.588	29.01
825.974	28.8
826.36	28.55
826.746	28.34
827.132	28.13
827.517	27.98
827.903	27.84
828.289	27.7
828.674	27.56
829.06	27.39
829.445	27.26
829.83	27.13
830.216	26.99
830.601	26.9
830.986	26.79
831.371	26.69
831.756	26.59
832.141	26.49
832.526	26.39
832.911	26.3
833.295	26.25
833.68	26.17
834.065	26.1
834.449	26.02
834.834	25.94
835.218	25.85
835.603	25.76
835.987	25.65
836.371	25.57
836.755	25.48
837.139	25.39
837.524	25.29
837.908	25.22
838.291	25.13
838.675	25.04
839.059	24.94
839.443	24.85
839.827	24.75
840.21	24.68
840.594	24.59
840.977	24.5
841.361	24.42
841.744	24.32
842.127	24.2
842.511	24.11
842.894	24.03
843.277	23.93
843.66	23.86
844.043	23.79
844.426	23.69
844.809	23.58
845.191	23.47
845.574	23.33
845.957	23.22
846.339	23.12
846.722	23
847.104	22.9
847.487	22.79
847.869	22.7
848.252	22.59
848.634	22.48
849.016	22.39
849.398	22.28
849.78	22.14
850.162	21.99
850.544	21.86
850.926	21.74
851.307	21.63
851.689	21.54
852.071	21.44
852.452	21.39
852.834	21.33
853.215	21.28
853.597	21.26
853.978	21.3
854.359	21.35
854.741	21.37
855.122	21.38
855.503	21.37
855.884	21.35
856.265	21.32
856.646	21.26
857.026	21.21
857.407	21.17
857.788	21.13
858.169	21.06
858.549	21
858.93	20.94
859.31	20.88
859.69	20.84
860.071	20.8
860.451	20.73
860.831	20.66
861.211	20.57
861.591	20.45
861.971	20.31
862.351	20.2
862.731	20.08
863.111	19.96
863.491	19.86
863.87	19.74
864.25	19.62
864.629	19.54
865.009	19.47
865.388	19.43
865.768	19.41
866.147	19.42
866.526	19.4
866.905	19.4
867.284	19.4
867.663	19.4
868.042	19.39
868.421	19.39
868.8	19.37
869.179	19.34
869.558	19.3
869.936	19.28
870.315	19.24
870.693	19.21
871.072	19.18
871.45	19.13
871.828	19.08
872.207	19.05
872.585	19
872.963	18.99
873.341	18.94
873.719	18.91
874.097	18.87
874.475	18.85
874.853	18.83
875.23	18.78
875.608	18.75
875.986	18.71
876.363	18.66
876.741	18.61
877.118	18.56
877.495	18.52
877.873	18.48
878.25	18.44
878.627	18.4
879.004	18.35
879.381	18.33
879.758	18.31
880.135	18.26
880.512	18.24
880.889	18.21
881.265	18.19
881.642	18.18
882.019	18.15
882.395	18.12
882.772	18.07
883.148	18.02
883.524	17.96
883.901	17.91
884.277	17.88
884.653	17.82
885.029	17.79
885.405	17.74
885.781	17.69
886.157	17.66
886.532	17.62
886.908	17.59
887.284	17.57
887.659	17.53
888.035	17.49
888.411	17.45
888.786	17.41
889.161	17.36
889.537	17.31
889.912	17.26
890.287	17.2
890.662	17.13
891.037	17.08
891.412	17
891.787	16.93
892.162	16.85
892.536	16.78
892.911	16.69
893.286	16.6
893.66	16.52
894.035	16.43
894.409	16.35
894.784	16.27
895.158	16.17
895.532	16.09
895.906	16.01
896.281	15.93
896.655	15.86
897.029	15.81
897.402	15.76
897.776	15.7
898.15	15.66
898.524	15.63
898.898	15.62
899.271	15.63
899.645	15.65
900.018	15.67
900.392	15.71
900.765	15.75
901.138	15.78
901.511	15.83
901.884	15.88
902.258	15.91
902.631	15.92
903.003	15.93
903.376	15.92
903.749	15.89
904.122	15.88
904.495	15.84
904.867	15.79
905.24	15.75
905.612	15.7
905.985	15.64
906.357	15.58
906.729	15.56
907.102	15.53
907.474	15.52
907.846	15.51
908.218	15.5
908.59	15.5
908.962	15.48
909.334	15.48
909.705	15.47
910.077	15.47
910.449	15.47
910.82	15.46
911.192	15.44
911.563	15.42
911.935	15.4
912.306	15.37
912.677	15.36
913.048	15.37
913.419	15.35
913.79	15.34
914.161	15.34
914.532	15.33
914.903	15.34
915.274	15.34
915.645	15.35
916.015	15.35
916.386	15.38
916.756	15.4
917.127	15.42
917.497	15.44
917.868	15.45
918.238	15.46
918.608	15.48
918.978	15.47
919.348	15.5
919.718	15.49
920.088	15.5
920.458	15.47
920.828	15.45
921.198	15.41
921.567	15.39
921.937	15.36
922.306	15.35
922.676	15.33
923.045	15.31
923.415	15.29
923.784	15.28
924.153	15.25
924.522	15.23
924.891	15.2
925.26	15.18
925.629	15.13
925.998	15.09
926.367	15.04
926.736	14.99
927.104	14.92
927.473	14.84
927.842	14.75
928.21	14.67
928.578	14.58
928.947	14.5
929.315	14.39
929.683	14.29
930.051	14.17
930.42	14.06
930.788	13.95
931.156	13.85
931.523	13.76
931.891	13.71
932.259	13.65
932.627	13.61
932.994	13.55
933.362	13.51
933.729	13.5
934.097	13.51
934.464	13.52
934.831	13.54
935.199	13.58
935.566	13.63
935.933	13.69
936.3	13.75
936.667	13.79
937.034	13.91
937.401	14.04
937.767	14.14
938.134	14.27
938.501	14.4
938.867	14.51
939.234	14.62
939.6	14.72
939.967	14.79
940.333	14.82
940.699	14.93
941.065	14.91
941.431	14.93
941.798	14.95
942.163	14.93
942.529	14.88
942.895	14.89
943.261	14.87
943.627	14.87
943.992	14.88
944.358	14.9
944.723	14.86
945.089	14.87
945.454	14.91
945.82	14.9
946.185	14.91
946.55	14.87
946.915	14.86
947.28	14.86
947.645	14.87
948.01	14.85
948.375	14.84
948.74	14.85
949.104	14.85
949.469	14.84
949.834	14.85
950.198	14.82
950.562	14.82
950.927	14.81
951.291	14.75
951.655	14.73
952.02	14.68
952.384	14.62
952.748	14.56
953.112	14.51
953.476	14.45
953.839	14.38
954.203	14.37
954.567	14.37
954.931	14.33
955.294	14.35
955.658	14.33
956.021	14.31
956.385	14.32
956.748	14.33
957.111	14.32
957.474	14.34
957.837	14.32
958.2	14.29
958.563	14.26
958.926	14.27
959.289	14.26
959.652	14.23
960.015	14.26
960.377	14.25
960.74	14.26
961.102	14.3
961.465	14.27
961.827	14.32
962.189	14.37
962.552	14.41
962.914	14.46
963.276	14.51
963.638	14.53
964	14.53
964.362	14.57
964.724	14.57
965.085	14.58
965.447	14.63
965.809	14.63
966.17	14.67
966.532	14.69
966.893	14.7
967.255	14.69
967.616	14.71
967.977	14.78
968.338	14.82
968.699	14.84
969.061	14.88
969.421	14.9
969.782	14.97
970.143	14.98
970.504	14.99
970.865	15
971.225	15.02
971.586	15.03
971.946	15
972.307	14.99
972.667	15.03
973.027	15.07
973.388	15.1
973.748	15.07
974.108	15.13
974.468	15.13
974.828	15.13
975.188	15.13
975.548	15.16
975.907	15.17
976.267	15.2
976.627	15.19
976.986	15.18
977.346	15.18
977.705	15.19
978.064	15.21
978.424	15.25
978.783	15.27
979.142	15.32
979.501	15.34
979.86	15.39
980.219	15.39
980.578	15.48
980.937	15.52
981.296	15.59
981.654	15.64
982.013	15.64
982.371	15.67
982.73	15.75
983.088	15.75
983.447	15.79
983.805	15.83
984.163	15.85
984.521	15.89
984.879	15.88
985.237	15.9
985.595	16.01
985.953	16.06
986.311	16.09
986.669	16.15
987.026	16.21
987.384	16.29
987.741	16.32
988.099	16.41
988.456	16.38
988.814	16.43
989.171	16.47
989.528	16.48
989.885	16.47
990.242	16.5
990.599	16.54
990.956	16.55
991.313	16.57
991.67	16.63
992.027	16.75
992.383	16.85
992.74	17.01
993.096	17.03
993.453	17.02
993.809	17.16
994.165	17.21
994.522	17.28
994.878	17.39
995.234	17.45
995.59	17.49
995.946	17.49
996.302	17.56
996.658	17.57
997.013	17.63
997.369	17.73
997.725	17.72
998.08	17.8
998.436	17.82
998.791	17.87
999.147	17.85
999.502	18.04
999.857	18.08
1000.212	17.96
1000.567	18.05
1000.922	18.13
1001.277	18.18
1001.632	18.21
1001.987	18.4
1002.342	18.46
1002.696	18.5
1003.051	18.71
1003.406	18.7
1003.76	18.8
1004.114	19
1004.469	19.03
1004.823	19.21
1005.177	19.26
1005.531	19.45
1005.885	19.39
1006.239	19.49
1006.593	19.63
1006.947	19.64
1007.301	19.59
1007.655	19.54
1008.008	19.7
1008.362	19.94
1008.715	19.98
1009.069	20.22
1009.422	20.33
1009.776	20.55
1010.129	20.65
1010.482	20.69
1010.835	20.83
1011.188	21.13
1011.541	21.5
1011.894	21.57
1012.247	21.59
1012.6	21.66
1012.952	21.65
1013.305	21.78
1013.657	21.85
1014.01	22.04
1014.362	22.15
1014.715	22.33
1015.067	22.37
1015.419	22.49
1015.771	22.64
1016.123	22.76
1016.475	22.96
1016.827	23.16
1017.179	23.37
1017.531	23.56
1017.883	23.6
1018.234	23.81
1018.586	23.97
1018.938	24.18
1019.289	24.29
1019.64	24.42
1019.992	24.57
1020.343	24.68
1020.694	24.75
1021.045	24.82
1021.396	25
1021.747	25.29
1022.098	25.49
1022.449	25.51
1022.8	25.82
1023.151	25.92
1023.501	26.31
1023.852	26.6
1024.202	26.67
1024.553	26.84
1024.903	27.01
1025.253	27.32
1025.604	27.73
1025.954	27.72
1026.304	28.06
1026.654	28.32
1027.004	28.4
1027.354	28.76
1027.703	28.76
1028.053	29.21
1028.403	29.72
1028.753	29.82
1029.102	30.23
1029.452	30.48
1029.801	31.28
1030.15	31.52
1030.499	31.58
897.758	945.98
901.051	941.87
904.343	948.37
907.636	965.51
910.928	938.88
914.22	936.33
917.511	924.23
920.803	888.21
924.094	885.84
927.384	864.46
930.675	831.73
933.965	825.68
937.255	781.71
940.544	747.01
943.834	712.76
947.123	707.39
950.411	668.48
953.7	655.74
956.988	617.78
960.276	593.65
963.563	584.16
966.851	562.99
970.138	559.04
973.424	543.27
976.711	543.37
979.997	517.82
983.283	514.33
986.568	503.82
989.853	488.36
993.138	479.38
996.423	461.42
999.708	450.6
1002.992	444.2
1006.275	423.74
1009.559	420.14
1012.842	406.87
1016.125	394.9
1019.408	386.59
1022.69	382.83
1025.972	375.29
1029.254	365.71
1032.536	359.05
1035.817	350.73
1039.098	346.89
1042.379	342.08
1045.659	337.22
1048.939	329.13
1052.219	322.24
1055.498	319.96
1058.778	310.97
1062.057	305.17
1065.335	303.13
1068.614	300.15
1071.892	297.28
1075.17	288.6
1078.447	282.94
1081.724	281.18
1085.001	277.82
1088.278	274.24
1091.554	268.66
1094.83	270.17
1098.106	267.35
1101.382	264.56
1104.657	261.91
1107.932	257.46
1111.206	260.08
1114.481	253.38
1117.755	251.42
1121.029	249.98
1124.302	248.27
1127.575	244.93
1130.848	240.95
1134.121	239.23
1137.393	238.17
1140.665	233.44
1143.937	231.76
1147.208	229.48
1150.48	229.03
1153.75	225.7
1157.021	223.31
1160.291	223.44
1163.561	219.79
1166.831	220.19
1170.101	217.92
1173.37	218.48
1176.639	218.9
1179.907	217.29
1183.176	214.61
1186.444	214.21
1189.711	214.37
1192.979	214.07
1196.246	212.66
1199.513	213.45
1202.78	211.97
1206.046	212.24
1209.312	209.75
1212.578	209.7
1215.843	210.81
1219.108	210.44
1222.373	214.34
1225.638	215.5
1228.902	217.43
1232.166	217.48
1235.43	218.41
1238.693	221.2
1241.956	222.62
1245.219	225.4
1248.482	226.47
1251.744	226.78
1255.006	227.13
1258.268	221.52
1261.529	219.78
1264.79	219.28
1268.051	218.21
1271.312	215.57
1274.572	213.28
1277.832	211.55
1281.092	208.44
1284.351	206.68
1287.61	206.68
1290.869	203.24
1294.128	202.46
1297.386	202.14
1300.644	200.09
1303.902	200.52
1307.159	200.86
1310.416	200.35
1313.673	199
1316.93	201.37
1320.186	200.71
1323.442	201.59
1326.697	204.56
1329.953	205.47
1333.208	205.66
1336.463	208.47
1339.717	209.15
1342.972	210.72
1346.226	212.57
1349.479	213.7
1352.733	213.76
1355.986	216.15
1359.238	214.98
1362.491	215.57
1365.743	218.07
1368.995	218.5
1372.247	216.85
1375.498	216.69
1378.749	217.25
1382	215.65
1385.251	215.84
1388.501	215.01
1391.751	214.27
1395	213.61
1398.25	212.21
1401.499	209.33
1404.748	208.87
1407.996	206.99
1411.244	205.91
1414.492	204.95
1417.74	201.5
1420.987	199.53
1424.234	199
1427.481	196.48
1430.728	196.43
1433.974	194.64
1437.22	193.56
1440.465	192.69
1443.711	191.01
1446.956	189.63
1450.201	187.78
1453.445	187.22
1456.689	185.75
1459.933	182.62
1463.177	180.73
1466.42	178.64
1469.663	176.82
1472.906	175.37
1476.148	171.44
1479.391	169.45
1482.633	168.29
1485.874	166.08
1489.115	164.61
1492.356	163.12
1495.597	162.45
1498.838	161.05
1502.078	159.53
1505.318	158.9
1508.557	159.02
1511.797	158.85
1515.036	157.42
1518.274	157.33
1521.513	156.5
1524.751	156.29
1527.989	155.71
1531.227	155.22
1534.464	154.94
1537.701	155.13
1540.938	154.5
1544.174	152.21
1547.41	152.98
1550.646	152.73
1553.882	151.91
1557.117	149.71
1560.352	149.33
1563.587	148.68
1566.821	147.81
1570.055	147.54
1573.289	145.59
1576.523	145.86
1579.756	145.49
1582.989	144.06
1586.222	143.86
1589.454	143.82
1592.686	145.01
1595.918	143.98
1599.15	144.02
1602.381	144.29
1605.612	143.74
1608.843	144.24
1612.073	143.64
1615.303	144.33
1618.533	144.52
1621.762	144.86
1624.992	145.16
1628.221	144.55
1631.449	144.43
1634.678	144.64
1637.906	145.34
1641.134	145.22
1644.361	145.05
1647.588	146.01
1650.815	145.67
1654.042	145.19
1657.269	145.46
1660.495	145.04
1663.72	145.11
1666.946	145.69
1670.171	145.85
1673.396	145.63
1676.621	145.5
1679.845	145.82
1683.069	146.18
1686.293	146.73
1689.517	147.18
1692.74	147.18
1695.963	147.89
1699.185	148.96
1702.408	148.75
1705.63	149.19
1708.852	149.5
1712.073	150.22
1715.294	150.59
1718.515	151.08
1721.736	151.11
1724.956	152.22
1728.176	152.39
1731.396	152.84
1734.616	152.31
1737.835	153.52
1741.054	152.38
1744.272	152.93
1747.491	154.12
1750.709	154.52
1753.927	154.16
1757.144	153.99
1760.361	153.6
1763.578	154.42
1766.795	154.14
1770.011	155.94
1773.227	155.51
1776.443	157.5
1779.658	157.64
1782.874	157.41
1786.089	157.26
1789.303	157.56
1792.518	159.22
1795.732	158.92
1798.945	159.69
1802.159	159.98
1805.372	159.45
1808.585	162.28
1811.797	162.6
1815.01	163.27
1818.222	164.18
1821.434	166.98
1824.645	167.52
1827.856	169.76
1831.067	171.54
1834.278	171.55
1837.488	173.25
1840.698	174.2
1843.908	172.83
1847.117	172.98
1850.326	174.16
1853.535	173.32
1856.744	174.32
1859.952	174.3
1863.16	173.2
1866.368	172.33
1869.575	172.87
1872.782	170.36
1875.989	169.4
1879.196	168.88
1882.402	167.87
1885.608	167.39
1888.814	167.16
1892.019	166.81
1895.224	165.88
1898.429	164.82
1901.634	165.12
1904.838	165.43
1908.042	166.47
1911.246	167.74
1914.449	167.71
1917.652	168.3
1920.855	167.62
1924.058	168.63
1927.26	167.05
1930.462	167.73
1933.664	169.38
1936.865	168.08
1940.066	167.72
1943.267	167.2
1946.467	166.93
1949.668	167.44
1952.868	169.5
1956.067	170.77
1959.267	169.7
1962.466	170.71
1965.665	170.07
1968.863	171.25
1972.061	174.19
1975.259	175.73
1978.457	176.39
1981.654	177.14
1984.852	178.38
1988.048	177.17
1991.245	180.09
1994.441	181.65
1997.637	183.17
2000.833	187.01
2004.028	188.65
2007.223	188.71
2010.418	190.33
2013.613	194.11
2016.807	196.55
2020.001	197.86
2023.194	201.87
2026.388	204.67
2029.581	210.52
2032.774	211.48
2035.966	215.01
2039.158	215.98
2042.35	220.19
2045.542	221.85
2048.733	226.16
2051.924	229.44
2055.115	233.98
2058.306	233.8
2061.496	235.47
2064.686	236.2
2067.875	241.14
2071.065	241.93
2074.254	239.9
2077.442	244.19
2080.631	245.08
2083.819	246.38
2087.007	247.7
2090.195	250.85
2093.382	253.34
2096.569	252.29
2099.756	255.24
2102.942	255.78
2106.128	257.62
2109.314	265.45
2112.5	264.08
2115.685	269.67
2118.87	270.33
2122.055	274.47
2125.239	274.61
2128.424	277.77
2131.608	280.28
2134.791	284.8
2137.974	285.75
2141.157	287.43
2144.34	286.82
2147.523	291.88
2150.705	290.51
2153.887	293.7
2157.068	293.74
2160.25	292.49
2163.431	294.26
2166.611	297.01
2169.792	301.63
2172.972	305.11
2176.152	309.45
2179.331	312.28
2182.511	315.9
2185.69	318.19
2188.868	325.54
2192.047	326.88
2195.225	336.56
2198.403	345.05
2201.58	351.86
2204.758	358.44
2207.935	365.05
2211.111	369.08
2214.288	373.96
2217.464	375.36
2220.64	382.19
2223.815	384.9
2226.991	401.44
2230.166	401.17
2233.34	406.31
2236.515	413.41
2239.689	413.99
2242.863	417.22
2246.036	426.77
2249.209	424.96
2252.382	433
2255.555	444.92
2258.727	447.74
2261.9	449.62
2265.071	454.17
2268.243	462.52
2271.414	468.76
2274.585	476.69
2277.756	481.68
2280.926	486.28
2284.096	496.77
2287.266	507.72
2290.436	511.99
2293.605	522.81
2296.774	537.6
2299.942	553.52
2303.111	556.19
2306.279	565.84
2309.447	576.2
2312.614	591.06
2315.781	606.36
2318.948	636.33
2322.115	624.58
2325.281	660.85
2328.447	648.37
2331.613	671.46
2334.779	665.29
2337.944	694.8
2341.109	702.58
2344.274	721.47
2347.438	745.88
2350.602	747.92
2353.766	771.37
2356.929	784.64
2360.092	780.64
2363.255	834.18
2366.418	835.03
2369.58	850.97
2372.742	899.66
2375.904	921.29
2379.066	915.62
2382.227	899.28
2385.388	972.81
2388.548	968.66
2391.709	982.29
2394.869	1086.23
2398.029	1047.15
2401.188	1075.81
2404.347	1070.8
2407.506	1053.93
2410.665	1082.97
2413.823	1148.17
2416.981	1212.55
2420.139	1179.47
2423.296	1162.98
2426.453	1219.29
2429.61	1172.63
2432.767	1220.29
2435.923	1209.58
2439.079	1323.74
2442.235	1348.75
2445.391	1336.55
2448.546	1323.41
2451.701	1284.05
2454.855	1277.26
2458.009	1366.34
2461.163	1413
2464.317	1464.66
2467.471	1500.37
2470.624	1504.83
2473.777	1462.46
2476.929	1411.39
2480.082	1372.13
2483.234	1362.07
2486.385	1444.93
2489.537	1450.25
2492.688	1492.15
2495.839	1453.83
2498.989	1423.91
2502.14	1426.93
2505.29	1438.92
2508.439	1454.58
2511.589	1460.54
2514.738	1599.64
2517.887	1560.89
2521.035	1636.4
2524.183	1655.97
2527.331	1668.25
2530.479	1656.45
2533.627	1668.35
