Data from C_3_DEC_OH_4N_Splice17_14-20-52-288.txt Node
Date: Sat Mar 07 14:20:52 EST 2020
User: sa697716
Spectrometer: NQ5500242
Trigger mode: 0
Integration Time (sec): 1.450000E-1
Scans to average: 20
Nonlinearity correction enabled: false
Boxcar width: 5
Storing dark spectrum: false
XAxis mode: Wavelengths
Number of Pixels in Spectrum: 512
>>>>>Begin Spectral Data<<<<<
187.83	82.58
188.298	85.77
188.766	61.87
189.233	50.91
189.701	40.82
190.169	47.37
190.636	11.08
191.104	-68.25
191.571	-216.39
192.039	-44.01
192.506	-978.27
192.974	357.2
193.441	368.15
193.908	142.83
194.375	25.03
194.842	-59.9
195.31	-94.9
195.777	-491.65
196.244	34.67
196.711	67.73
197.177	73.72
197.644	73.12
198.111	73.72
198.578	74.45
199.045	75.55
199.511	75.97
199.978	76.26
200.445	76.48
200.911	76.78
201.378	76.99
201.844	76.92
202.31	76.38
202.777	76.31
203.243	75.98
203.709	75.49
204.176	74.44
204.642	73.82
205.108	73.62
205.574	73.07
206.04	72.36
206.506	71.65
206.972	70.91
207.438	70.21
207.903	69.14
208.369	67.57
208.835	66.25
209.301	64.86
209.766	62.87
210.232	60.95
210.697	59.19
211.163	57.64
211.628	56.13
212.094	54.57
212.559	53.18
213.024	51.81
213.49	50.8
213.955	49.5
214.42	48.35
214.885	47.06
215.35	45.19
215.815	42.47
216.28	39.11
216.745	35.5
217.21	31.96
217.675	28.55
218.14	25.66
218.604	23.12
219.069	21
219.534	19.17
219.998	17.76
220.463	16.48
220.927	15.43
221.392	14.64
221.856	13.98
222.32	13.4
222.785	12.92
223.249	12.46
223.713	12.05
224.177	11.72
224.642	11.41
225.106	11.08
225.57	10.81
226.034	10.59
226.497	10.34
226.961	10.11
227.425	9.9
227.889	9.7
228.353	9.52
228.816	9.33
229.28	9.15
229.744	8.98
230.207	8.82
230.671	8.67
231.134	8.52
231.597	8.4
232.061	8.26
232.524	8.14
232.987	8.01
233.45	7.91
233.914	7.82
234.377	7.72
234.84	7.63
235.303	7.56
235.766	7.48
236.229	7.39
236.691	7.31
237.154	7.25
237.617	7.19
238.08	7.11
238.542	7.04
239.005	6.97
239.468	6.91
239.93	6.84
240.393	6.78
240.855	6.71
241.317	6.64
241.78	6.58
242.242	6.5
242.704	6.45
243.166	6.39
243.629	6.34
244.091	6.27
244.553	6.22
245.015	6.16
245.477	6.11
245.939	6.07
246.4	6.02
246.862	5.97
247.324	5.93
247.786	5.87
248.247	5.82
248.709	5.76
249.17	5.71
249.632	5.66
250.093	5.62
250.555	5.58
251.016	5.53
251.477	5.5
251.939	5.47
252.4	5.43
252.861	5.41
253.322	5.38
253.783	5.35
254.244	5.34
254.705	5.32
255.166	5.29
255.627	5.26
256.088	5.24
256.549	5.22
257.009	5.18
257.47	5.14
257.931	5.1
258.391	5.07
258.852	5.02
259.312	4.99
259.773	4.96
260.233	4.92
260.694	4.89
261.154	4.85
261.614	4.82
262.074	4.79
262.534	4.75
262.994	4.73
263.455	4.71
263.915	4.69
264.374	4.67
264.834	4.64
265.294	4.61
265.754	4.59
266.214	4.58
266.673	4.56
267.133	4.55
267.593	4.54
268.052	4.53
268.512	4.51
268.971	4.5
269.431	4.49
269.89	4.49
270.349	4.48
270.809	4.46
271.268	4.46
271.727	4.45
272.186	4.44
272.645	4.44
273.104	4.43
273.563	4.42
274.022	4.41
274.481	4.4
274.94	4.39
275.399	4.38
275.857	4.37
276.316	4.37
276.775	4.36
277.233	4.35
277.692	4.35
278.15	4.33
278.609	4.33
279.067	4.33
279.525	4.33
279.984	4.32
280.442	4.32
280.9	4.31
281.358	4.31
281.816	4.31
282.274	4.3
282.732	4.29
283.19	4.29
283.648	4.28
284.106	4.28
284.564	4.27
285.021	4.28
285.479	4.28
285.937	4.27
286.394	4.27
286.852	4.25
287.309	4.25
287.767	4.24
288.224	4.22
288.682	4.21
289.139	4.2
289.596	4.18
290.053	4.16
290.511	4.14
290.968	4.11
291.425	4.1
291.882	4.08
292.339	4.07
292.796	4.06
293.252	4.05
293.709	4.04
294.166	4.03
294.623	4.02
295.079	4.01
295.536	3.99
295.992	3.99
296.449	3.98
296.905	3.97
297.362	3.95
297.818	3.94
298.274	3.93
298.731	3.92
299.187	3.9
299.643	3.89
300.099	3.89
300.555	3.89
301.011	3.88
301.467	3.88
301.923	3.86
302.379	3.86
302.835	3.86
303.291	3.86
303.746	3.86
304.202	3.86
304.658	3.86
305.113	3.86
305.569	3.86
306.024	3.86
306.479	3.86
306.935	3.86
307.39	3.86
307.845	3.86
308.301	3.87
308.756	3.87
309.211	3.87
309.666	3.87
310.121	3.87
310.576	3.87
311.031	3.88
311.486	3.89
311.94	3.89
312.395	3.89
312.85	3.9
313.305	3.89
313.759	3.9
314.214	3.89
314.668	3.89
315.123	3.9
315.577	3.9
316.032	3.89
316.486	3.88
316.94	3.88
317.394	3.87
317.849	3.86
318.303	3.84
318.757	3.82
319.211	3.81
319.665	3.79
320.119	3.77
320.572	3.76
321.026	3.74
321.48	3.73
321.934	3.72
322.387	3.71
322.841	3.7
323.295	3.7
323.748	3.71
324.202	3.71
324.655	3.7
325.108	3.71
325.562	3.71
326.015	3.71
326.468	3.71
326.921	3.71
327.374	3.71
327.827	3.71
328.28	3.71
328.733	3.71
329.186	3.71
329.639	3.71
330.092	3.71
330.545	3.71
330.997	3.71
331.45	3.72
331.903	3.73
332.355	3.74
332.808	3.74
333.26	3.75
333.713	3.75
334.165	3.75
334.617	3.76
335.069	3.76
335.522	3.77
335.974	3.78
336.426	3.78
336.878	3.78
337.33	3.78
337.782	3.8
338.234	3.81
338.686	3.81
339.137	3.82
339.589	3.81
340.041	3.81
340.493	3.8
340.944	3.78
341.396	3.77
341.847	3.75
342.299	3.73
342.75	3.72
343.201	3.7
343.653	3.69
344.104	3.66
344.555	3.65
345.006	3.63
345.457	3.62
345.908	3.62
346.359	3.62
346.81	3.62
347.261	3.62
347.712	3.61
348.163	3.6
348.613	3.6
349.064	3.6
349.515	3.6
349.965	3.61
350.416	3.6
350.866	3.6
351.317	3.6
351.767	3.6
352.217	3.6
352.668	3.59
353.118	3.6
353.568	3.6
354.018	3.6
354.468	3.61
354.918	3.62
355.368	3.62
355.818	3.63
356.268	3.62
356.718	3.62
357.168	3.62
357.617	3.62
358.067	3.62
358.517	3.64
358.966	3.63
359.416	3.64
359.865	3.63
360.315	3.64
360.764	3.64
361.213	3.64
361.663	3.63
362.112	3.64
362.561	3.65
363.01	3.65
363.459	3.64
363.908	3.63
364.357	3.62
364.806	3.61
365.255	3.62
365.703	3.63
366.152	3.64
366.601	3.64
367.05	3.64
367.498	3.64
367.947	3.65
368.395	3.66
368.844	3.68
369.292	3.69
369.74	3.71
370.189	3.69
370.637	3.69
371.085	3.68
371.533	3.69
371.981	3.69
372.429	3.68
372.877	3.68
373.325	3.68
373.773	3.68
374.221	3.68
374.669	3.68
375.116	3.67
375.564	3.67
376.012	3.67
376.459	3.68
376.907	3.69
377.354	3.71
377.801	3.71
378.249	3.73
378.696	3.73
379.143	3.74
379.591	3.75
380.038	3.77
380.485	3.79
380.932	3.8
381.379	3.81
381.826	3.82
382.273	3.83
382.72	3.84
383.166	3.84
383.613	3.85
384.06	3.86
384.506	3.87
384.953	3.87
385.4	3.88
385.846	3.91
386.292	3.92
386.739	3.93
387.185	3.95
387.631	3.97
388.078	3.98
388.524	4
388.97	4.02
389.416	4.04
389.862	4.05
390.308	4.08
390.754	4.1
391.2	4.13
391.645	4.15
392.091	4.17
392.537	4.2
392.983	4.23
393.428	4.26
393.874	4.28
394.319	4.31
394.765	4.32
395.21	4.34
395.655	4.36
396.101	4.38
396.546	4.39
396.991	4.42
397.436	4.43
397.881	4.46
398.326	4.48
398.771	4.5
399.216	4.52
399.661	4.55
400.106	4.58
400.551	4.59
400.995	4.6
401.44	4.62
401.885	4.63
402.329	4.64
402.774	4.64
403.218	4.67
403.663	4.69
404.107	4.7
404.551	4.71
404.995	4.71
405.44	4.71
405.884	4.72
406.328	4.74
406.772	4.74
407.216	4.75
407.66	4.77
408.104	4.75
408.547	4.75
408.991	4.75
409.435	4.76
409.879	4.76
410.322	4.79
410.766	4.8
411.209	4.81
411.653	4.84
412.096	4.85
412.54	4.86
412.983	4.87
413.426	4.9
413.869	4.93
414.312	4.96
414.756	4.99
415.199	4.99
415.642	5.01
416.085	5.03
416.527	5.02
416.97	5.02
417.413	5.02
417.856	5.02
418.298	5.01
418.741	5
419.184	5
419.626	5
420.069	5
420.511	4.99
420.953	4.99
421.396	4.99
421.838	5
422.28	5.01
422.722	5.03
423.164	5.05
423.606	5.06
424.048	5.06
424.49	5.07
424.932	5.06
425.374	5.06
425.816	5.04
426.258	5.03
426.699	5.01
427.141	4.99
427.582	4.98
428.024	4.98
428.465	4.99
428.907	4.97
429.348	4.95
429.789	4.93
430.231	4.94
430.672	4.96
431.113	4.98
431.554	4.99
431.995	5.01
432.436	5.02
432.877	5.01
433.318	5.03
433.759	5.05
434.2	5.09
434.64	5.11
435.081	5.11
435.522	5.12
435.962	5.13
436.403	5.16
436.843	5.19
437.284	5.2
437.724	5.21
438.164	5.2
438.604	5.21
439.045	5.22
439.485	5.23
439.925	5.24
440.365	5.26
440.805	5.25
441.245	5.24
441.685	5.23
442.125	5.27
442.564	5.28
443.004	5.28
443.444	5.28
443.883	5.28
444.323	5.28
444.762	5.28
445.202	5.28
445.641	5.3
446.081	5.32
446.52	5.34
446.959	5.35
447.398	5.36
447.837	5.38
448.276	5.38
448.716	5.41
449.154	5.43
449.593	5.45
450.032	5.45
450.471	5.44
450.91	5.42
451.349	5.43
451.787	5.41
452.226	5.39
452.664	5.39
453.103	5.36
453.541	5.36
453.98	5.35
454.418	5.32
454.856	5.3
455.295	5.29
455.733	5.27
456.171	5.24
456.609	5.22
457.047	5.2
457.485	5.19
457.923	5.19
458.361	5.15
458.798	5.14
459.236	5.13
459.674	5.13
460.111	5.12
460.549	5.12
460.987	5.13
461.424	5.13
461.862	5.14
462.299	5.13
462.736	5.13
463.173	5.14
463.611	5.13
464.048	5.15
464.485	5.15
464.922	5.16
465.359	5.17
465.796	5.17
466.233	5.17
466.67	5.18
467.106	5.19
467.543	5.2
467.98	5.2
468.416	5.2
468.853	5.19
469.29	5.19
469.726	5.19
470.162	5.18
470.599	5.19
471.035	5.18
471.471	5.17
471.907	5.17
472.344	5.17
472.78	5.17
473.216	5.16
473.652	5.17
474.088	5.15
474.523	5.15
474.959	5.15
475.395	5.13
475.831	5.13
476.266	5.13
476.702	5.11
477.138	5.1
477.573	5.1
478.008	5.1
478.444	5.07
478.879	5.07
479.314	5.06
479.75	5.04
480.185	5.03
480.62	5.02
481.055	5.01
481.49	5
481.925	5
482.36	4.98
482.795	4.97
483.229	4.98
483.664	4.98
484.099	4.98
484.534	4.98
484.968	4.98
485.403	4.99
485.837	4.99
486.271	5
486.706	5
487.14	5.01
487.574	5.02
488.009	5.03
488.443	5.04
488.877	5.06
489.311	5.08
489.745	5.1
490.179	5.13
490.613	5.15
491.046	5.18
491.48	5.21
491.914	5.24
492.348	5.28
492.781	5.33
493.215	5.37
493.648	5.41
494.082	5.45
494.515	5.49
494.948	5.55
495.382	5.59
495.815	5.65
496.248	5.7
496.681	5.77
497.114	5.83
497.547	5.89
497.98	5.96
498.413	6.02
498.846	6.1
499.279	6.17
499.711	6.24
500.144	6.34
500.577	6.43
501.009	6.53
501.442	6.62
501.874	6.73
502.306	6.83
502.739	6.95
503.171	7.08
503.603	7.21
504.036	7.33
504.468	7.47
504.9	7.59
505.332	7.73
505.764	7.87
506.196	8.03
506.627	8.18
507.059	8.34
507.491	8.5
507.923	8.67
508.354	8.84
508.786	9.03
509.217	9.22
509.649	9.42
510.08	9.62
510.512	9.82
510.943	10.01
511.374	10.22
511.805	10.43
512.237	10.64
512.668	10.87
513.099	11.09
513.53	11.31
513.961	11.54
514.391	11.77
514.822	12.01
515.253	12.24
515.684	12.48
516.114	12.73
516.545	12.97
516.975	13.22
517.406	13.45
517.836	13.69
518.267	13.94
518.697	14.17
519.127	14.4
519.558	14.65
519.988	14.88
520.418	15.11
520.848	15.32
521.278	15.55
521.708	15.86
522.138	16.09
522.567	16.3
522.997	16.5
523.427	16.69
523.857	16.88
524.286	17.05
524.716	17.23
525.145	17.41
525.575	17.61
526.004	17.78
526.433	17.84
526.863	18.01
527.292	18.17
527.721	18.31
528.15	18.45
528.579	18.59
529.008	18.73
529.437	18.86
529.866	18.99
530.295	19.09
530.724	19.2
531.152	19.3
531.581	19.4
532.01	19.48
532.438	19.59
532.867	19.68
533.295	19.76
533.723	19.83
534.152	19.9
534.58	19.96
535.008	20
535.436	20.06
535.865	20.1
536.293	20.14
536.721	20.18
537.149	20.22
537.576	20.24
538.004	20.29
538.432	20.31
538.86	20.33
539.287	20.34
539.715	20.38
540.143	20.41
540.57	20.43
540.998	20.44
541.425	20.45
541.852	20.47
542.28	20.49
542.707	20.5
543.134	20.52
543.561	20.55
543.988	20.58
544.415	20.59
544.842	20.61
545.269	20.65
545.696	20.69
546.123	20.71
546.549	20.74
546.976	20.77
547.403	20.8
547.829	20.82
548.256	20.85
548.682	20.86
549.108	20.89
549.535	20.9
549.961	20.91
550.387	20.92
550.813	20.94
551.24	20.93
551.666	20.93
552.092	20.92
552.518	20.92
552.943	20.9
553.369	20.89
553.795	20.88
554.221	20.87
554.646	20.82
555.072	20.79
555.498	20.76
555.923	20.72
556.349	20.67
556.774	20.65
557.199	20.6
557.625	20.56
558.05	20.51
558.475	20.45
558.9	20.39
559.325	20.35
559.75	20.28
560.175	20.21
560.6	20.12
561.025	20.05
561.449	19.97
561.874	19.86
562.299	19.77
562.723	19.67
563.148	19.56
563.572	19.43
563.997	19.3
564.421	19.17
564.846	19.04
565.27	18.92
565.694	18.79
566.118	18.64
566.542	18.51
566.966	18.37
567.39	18.23
567.814	18.08
568.238	17.95
568.662	17.82
569.086	17.69
569.509	17.56
569.933	17.43
570.357	17.3
570.78	17.18
571.204	17.06
571.627	16.95
572.05	16.81
572.474	16.71
572.897	16.6
573.32	16.48
573.743	16.38
574.166	16.28
574.589	16.18
575.012	16.07
575.435	15.97
575.858	15.87
576.281	15.77
576.704	15.71
577.126	15.63
577.549	15.54
577.972	15.47
578.394	15.39
578.817	15.32
579.239	15.24
579.661	15.18
580.084	15.11
580.506	15.05
580.928	14.98
581.35	14.9
581.772	14.82
582.194	14.77
582.616	14.7
583.038	14.64
583.46	14.58
583.882	14.52
584.303	14.47
584.725	14.42
585.147	14.37
585.568	14.31
585.99	14.27
586.411	14.23
586.833	14.18
587.254	14.13
587.675	14.07
588.096	14.03
588.518	13.98
588.939	13.94
589.36	13.89
589.781	13.84
590.202	13.8
590.623	13.76
591.043	13.71
591.464	13.67
591.885	13.64
592.305	13.62
592.726	13.6
593.147	13.57
593.567	13.54
593.987	13.5
594.408	13.47
594.828	13.44
595.248	13.4
595.669	13.39
596.089	13.35
596.509	13.32
596.929	13.28
597.349	13.24
597.769	13.2
598.189	13.16
598.608	13.14
599.028	13.11
599.448	13.08
599.867	13.04
600.287	13.01
600.706	12.98
601.126	12.93
601.545	12.9
601.965	12.87
602.384	12.85
602.803	12.81
603.222	12.76
603.641	12.72
604.061	12.68
604.48	12.63
604.898	12.58
605.317	12.53
605.736	12.48
606.155	12.43
606.574	12.36
606.992	12.29
607.411	12.23
607.829	12.15
608.248	12.06
608.666	12
609.085	11.94
609.503	11.88
609.921	11.81
610.339	11.76
610.758	11.69
611.176	11.63
611.594	11.58
612.012	11.51
612.43	11.48
612.847	11.44
613.265	11.39
613.683	11.34
614.101	11.28
614.518	11.22
614.936	11.16
615.353	11.09
615.771	11.05
616.188	10.99
616.606	10.95
617.023	10.9
617.44	10.86
617.857	10.81
618.274	10.76
618.691	10.71
619.108	10.67
619.525	10.65
619.942	10.62
620.359	10.59
620.776	10.56
621.192	10.54
621.609	10.51
622.026	10.48
622.442	10.47
622.859	10.44
623.275	10.43
623.691	10.42
624.108	10.41
624.524	10.39
624.94	10.37
625.356	10.36
625.772	10.35
626.188	10.33
626.604	10.32
627.02	10.31
627.436	10.3
627.852	10.28
628.268	10.28
628.683	10.26
629.099	10.26
629.514	10.24
629.93	10.21
630.345	10.2
630.761	10.16
631.176	10.14
631.591	10.1
632.007	10.06
632.422	10.02
632.837	9.98
633.252	9.92
633.667	9.86
634.082	9.81
634.497	9.74
634.911	9.66
635.326	9.59
635.741	9.52
636.155	9.44
636.57	9.36
636.984	9.28
637.399	9.17
637.813	9.09
638.228	8.98
638.642	8.87
639.056	8.77
639.47	8.68
639.884	8.59
640.298	8.49
640.712	8.39
641.126	8.29
641.54	8.18
641.954	8.09
642.368	8
642.781	7.91
643.195	7.82
643.609	7.73
644.022	7.65
644.436	7.56
644.849	7.49
645.262	7.42
645.676	7.35
646.089	7.29
646.502	7.23
646.915	7.17
647.328	7.13
647.741	7.09
648.154	7.06
648.567	7.02
648.98	6.98
649.393	6.96
649.805	6.93
650.218	6.9
650.631	6.86
651.043	6.85
651.456	6.83
651.868	6.8
652.28	6.77
652.693	6.74
653.105	6.71
653.517	6.67
653.929	6.63
654.341	6.6
654.753	6.56
655.165	6.52
655.577	6.47
655.989	6.42
656.401	6.37
656.813	6.33
657.224	6.27
657.636	6.21
658.047	6.15
658.459	6.1
658.87	6.04
659.282	5.97
659.693	5.92
660.104	5.85
660.515	5.79
660.926	5.73
661.338	5.67
661.749	5.62
662.159	5.56
662.57	5.52
662.981	5.46
663.392	5.41
663.803	5.37
664.213	5.32
664.624	5.28
665.035	5.25
665.445	5.22
665.855	5.18
666.266	5.15
666.676	5.15
667.086	5.12
667.497	5.1
667.907	5.08
668.317	5.08
668.727	5.05
669.137	5.05
669.547	5.04
669.956	5.04
670.366	5.04
670.776	5.04
671.186	5.03
671.595	5.02
672.005	5.02
672.414	5.03
672.824	5.03
673.233	5.05
673.642	5.07
674.052	5.08
674.461	5.09
674.87	5.1
675.279	5.12
675.688	5.14
676.097	5.18
676.506	5.21
676.915	5.23
677.323	5.26
677.732	5.29
678.141	5.32
678.549	5.36
678.958	5.4
679.366	5.47
679.775	5.52
680.183	5.58
680.592	5.65
681	5.72
681.408	5.79
681.816	5.88
682.224	5.99
682.632	6.09
683.04	6.2
683.448	6.33
683.856	6.43
684.264	6.58
684.671	6.74
685.079	6.92
685.487	7.12
685.894	7.34
686.302	7.59
686.709	7.84
687.116	8.13
687.524	8.44
687.931	8.76
688.338	9.12
688.745	9.48
689.152	9.85
689.559	10.27
689.966	10.68
690.373	11.11
690.78	11.55
691.187	12
691.593	12.46
692	12.92
692.407	13.39
692.813	13.88
693.22	14.36
693.626	14.87
694.032	15.36
694.439	15.84
694.845	16.35
695.251	16.84
695.657	17.33
696.063	17.83
696.469	18.32
696.875	18.83
697.281	19.34
697.687	19.83
698.093	20.3
698.498	20.76
698.904	21.26
699.31	21.72
699.715	22.18
700.12	22.64
700.526	23.08
700.931	23.54
701.337	23.95
701.742	24.34
702.147	24.77
702.552	25.19
702.957	25.59
703.362	25.96
703.767	26.33
704.172	26.7
704.577	27.07
704.981	27.43
705.386	27.78
705.791	28.12
706.195	28.48
706.6	28.82
707.004	29.13
707.408	29.46
707.813	29.8
708.217	30.12
708.621	30.44
709.025	30.73
709.43	31.04
709.834	31.33
710.237	31.63
710.641	31.93
711.045	32.2
711.449	32.51
711.853	32.81
712.256	33.06
712.66	33.32
713.064	33.58
713.467	33.84
713.87	34.09
714.274	34.34
714.677	34.57
715.08	34.79
715.484	35.03
715.887	35.26
716.29	35.47
716.693	35.71
717.096	35.93
717.499	36.17
717.901	36.37
718.304	36.59
718.707	36.8
719.109	37.02
719.512	37.22
719.915	37.41
720.317	37.59
720.719	37.75
721.122	37.92
721.524	38.08
721.926	38.24
722.328	38.41
722.731	38.54
723.133	38.7
723.535	38.83
723.937	38.98
724.338	39.1
724.74	39.22
725.142	39.4
725.544	39.52
725.945	39.66
726.347	39.76
726.748	39.9
727.15	40.01
727.551	40.13
727.952	40.22
728.354	40.34
728.755	40.44
729.156	40.54
729.557	40.57
729.958	40.64
730.359	40.72
730.76	40.8
731.161	40.85
731.562	40.95
731.962	40.99
732.363	41.06
732.763	41.11
733.164	41.14
733.564	41.2
733.965	41.29
734.365	41.36
734.766	41.41
735.166	41.46
735.566	41.52
735.966	41.57
736.366	41.63
736.766	41.67
737.166	41.74
737.566	41.8
737.966	41.82
738.365	41.85
738.765	41.89
739.165	41.93
739.564	41.97
739.964	41.99
740.363	42
740.763	42.03
741.162	42.05
741.561	42.05
741.96	42.07
742.36	42.09
742.759	42.12
743.158	42.14
743.557	42.14
743.955	42.16
744.354	42.18
744.753	42.25
745.152	42.3
745.55	42.33
745.949	42.38
746.348	42.43
746.746	42.46
747.144	42.49
747.543	42.52
747.941	42.58
748.339	42.58
748.737	42.62
749.136	42.59
749.534	42.57
749.932	42.56
750.33	42.56
750.727	42.55
751.125	42.57
751.523	42.55
751.921	42.55
752.318	42.54
752.716	42.52
753.113	42.52
753.511	42.54
753.908	42.55
754.305	42.56
754.703	42.53
755.1	42.53
755.497	42.52
755.894	42.51
756.291	42.5
756.688	42.47
757.085	42.48
757.482	42.49
757.878	42.44
758.275	42.42
758.672	42.42
759.068	42.45
759.465	42.44
759.861	42.45
760.258	42.45
760.654	42.44
761.05	42.47
761.447	42.48
761.843	42.44
762.239	42.46
762.635	42.47
763.031	42.46
763.427	42.43
763.822	42.44
764.218	42.46
764.614	42.46
765.01	42.46
765.405	42.44
765.801	42.4
766.196	42.43
766.592	42.42
766.987	42.42
767.382	42.43
767.778	42.43
768.173	42.41
768.568	42.4
768.963	42.4
769.358	42.4
769.753	42.41
770.148	42.42
770.542	42.39
770.937	42.42
771.332	42.42
771.726	42.42
772.121	42.4
772.515	42.44
772.91	42.44
773.304	42.46
773.699	42.49
774.093	42.5
774.487	42.52
774.881	42.56
775.275	42.55
775.669	42.56
776.063	42.55
776.457	42.59
776.851	42.55
777.245	42.52
777.638	42.51
778.032	42.51
778.425	42.53
778.819	42.53
779.212	42.52
779.606	42.55
779.999	42.54
780.392	42.56
780.786	42.55
781.179	42.61
781.572	42.67
781.965	42.68
782.358	42.68
782.751	42.68
783.143	42.68
783.536	42.67
783.929	42.68
784.322	42.7
784.714	42.72
785.107	42.75
785.499	42.73
785.891	42.72
786.284	42.74
786.676	42.75
787.068	42.73
787.46	42.76
787.852	42.8
788.245	42.78
788.636	42.76
789.028	42.78
789.42	42.75
789.812	42.77
790.204	42.77
790.595	42.78
790.987	42.78
791.378	42.82
791.77	42.85
792.161	42.83
792.553	42.87
792.944	42.88
793.335	42.89
793.726	42.88
794.117	42.86
794.508	42.84
794.899	42.83
795.29	42.83
795.681	42.82
796.072	42.79
796.463	42.79
796.853	42.76
797.244	42.77
797.634	42.76
798.025	42.81
798.415	42.83
798.806	42.85
799.196	42.86
799.586	42.86
799.976	42.87
800.366	42.89
800.756	42.91
801.146	42.94
801.536	42.97
801.926	42.96
802.316	42.97
802.706	42.99
803.095	43.01
803.485	43.01
803.874	43.02
804.264	43.03
804.653	43.05
805.043	43.07
805.432	43.06
805.821	43.08
806.21	43.11
806.599	43.1
806.988	43.09
807.377	43.08
807.766	43.12
808.155	43.14
808.544	43.18
808.933	43.15
809.321	43.17
809.71	43.19
810.098	43.19
810.487	43.18
810.875	43.17
811.264	43.2
811.652	43.23
812.04	43.23
812.428	43.27
812.816	43.27
813.204	43.29
813.592	43.27
813.98	43.28
814.368	43.27
814.756	43.27
815.144	43.29
815.531	43.29
815.919	43.29
816.306	43.3
816.694	43.29
817.081	43.28
817.469	43.28
817.856	43.29
818.243	43.26
818.63	43.27
819.017	43.27
819.404	43.24
819.791	43.25
820.178	43.25
820.565	43.23
820.952	43.21
821.339	43.19
821.725	43.2
822.112	43.2
822.498	43.23
822.885	43.25
823.271	43.26
823.657	43.26
824.044	43.24
824.43	43.23
824.816	43.23
825.202	43.2
825.588	43.21
825.974	43.2
826.36	43.2
826.746	43.19
827.132	43.17
827.517	43.17
827.903	43.18
828.289	43.17
828.674	43.17
829.06	43.15
829.445	43.14
829.83	43.11
830.216	43.1
830.601	43.05
830.986	43.04
831.371	43
831.756	43
832.141	42.98
832.526	42.97
832.911	42.94
833.295	42.95
833.68	42.95
834.065	42.94
834.449	42.9
834.834	42.89
835.218	42.88
835.603	42.88
835.987	42.83
836.371	42.81
836.755	42.78
837.139	42.77
837.524	42.76
837.908	42.76
838.291	42.78
838.675	42.79
839.059	42.82
839.443	42.8
839.827	42.78
840.21	42.79
840.594	42.78
840.977	42.79
841.361	42.76
841.744	42.72
842.127	42.68
842.511	42.66
842.894	42.64
843.277	42.61
843.66	42.57
844.043	42.58
844.426	42.59
844.809	42.6
845.191	42.61
845.574	42.62
845.957	42.65
846.339	42.63
846.722	42.63
847.104	42.63
847.487	42.63
847.869	42.66
848.252	42.65
848.634	42.64
849.016	42.64
849.398	42.64
849.78	42.65
850.162	42.65
850.544	42.67
850.926	42.68
851.307	42.68
851.689	42.67
852.071	42.68
852.452	42.68
852.834	42.67
853.215	42.67
853.597	42.66
853.978	42.65
854.359	42.65
854.741	42.64
855.122	42.63
855.503	42.63
855.884	42.63
856.265	42.63
856.646	42.63
857.026	42.66
857.407	42.64
857.788	42.62
858.169	42.64
858.549	42.64
858.93	42.64
859.31	42.64
859.69	42.66
860.071	42.67
860.451	42.66
860.831	42.65
861.211	42.63
861.591	42.62
861.971	42.64
862.351	42.65
862.731	42.66
863.111	42.67
863.491	42.68
863.87	42.66
864.25	42.64
864.629	42.66
865.009	42.69
865.388	42.67
865.768	42.7
866.147	42.69
866.526	42.69
866.905	42.69
867.284	42.71
867.663	42.7
868.042	42.71
868.421	42.74
868.8	42.72
869.179	42.71
869.558	42.73
869.936	42.71
870.315	42.72
870.693	42.7
871.072	42.71
871.45	42.69
871.828	42.69
872.207	42.7
872.585	42.68
872.963	42.71
873.341	42.71
873.719	42.72
874.097	42.73
874.475	42.73
874.853	42.75
875.23	42.76
875.608	42.78
875.986	42.81
876.363	42.79
876.741	42.82
877.118	42.82
877.495	42.82
877.873	42.83
878.25	42.84
878.627	42.86
879.004	42.83
879.381	42.83
879.758	42.8
880.135	42.79
880.512	42.79
880.889	42.77
881.265	42.74
881.642	42.75
882.019	42.75
882.395	42.71
882.772	42.68
883.148	42.69
883.524	42.67
883.901	42.67
884.277	42.65
884.653	42.62
885.029	42.62
885.405	42.62
885.781	42.62
886.157	42.61
886.532	42.63
886.908	42.63
887.284	42.62
887.659	42.6
888.035	42.58
888.411	42.55
888.786	42.57
889.161	42.56
889.537	42.53
889.912	42.53
890.287	42.5
890.662	42.47
891.037	42.47
891.412	42.45
891.787	42.41
892.162	42.4
892.536	42.41
892.911	42.38
893.286	42.36
893.66	42.36
894.035	42.33
894.409	42.33
894.784	42.33
895.158	42.31
895.532	42.31
895.906	42.32
896.281	42.31
896.655	42.32
897.029	42.32
897.402	42.31
897.776	42.32
898.15	42.32
898.524	42.34
898.898	42.34
899.271	42.33
899.645	42.31
900.018	42.34
900.392	42.35
900.765	42.37
901.138	42.37
901.511	42.38
901.884	42.38
902.258	42.4
902.631	42.4
903.003	42.42
903.376	42.44
903.749	42.46
904.122	42.48
904.495	42.5
904.867	42.5
905.24	42.52
905.612	42.54
905.985	42.54
906.357	42.54
906.729	42.55
907.102	42.55
907.474	42.59
907.846	42.6
908.218	42.57
908.59	42.59
908.962	42.6
909.334	42.61
909.705	42.61
910.077	42.62
910.449	42.63
910.82	42.63
911.192	42.64
911.563	42.61
911.935	42.61
912.306	42.61
912.677	42.62
913.048	42.62
913.419	42.61
913.79	42.62
914.161	42.63
914.532	42.63
914.903	42.65
915.274	42.67
915.645	42.7
916.015	42.7
916.386	42.73
916.756	42.71
917.127	42.74
917.497	42.75
917.868	42.75
918.238	42.74
918.608	42.75
918.978	42.76
919.348	42.72
919.718	42.68
920.088	42.71
920.458	42.69
920.828	42.67
921.198	42.65
921.567	42.62
921.937	42.64
922.306	42.65
922.676	42.65
923.045	42.63
923.415	42.63
923.784	42.64
924.153	42.64
924.522	42.66
924.891	42.69
925.26	42.71
925.629	42.75
925.998	42.76
926.367	42.74
926.736	42.74
927.104	42.74
927.473	42.75
927.842	42.75
928.21	42.77
928.578	42.77
928.947	42.8
929.315	42.76
929.683	42.76
930.051	42.75
930.42	42.73
930.788	42.7
931.156	42.67
931.523	42.63
931.891	42.66
932.259	42.64
932.627	42.62
932.994	42.56
933.362	42.53
933.729	42.49
934.097	42.47
934.464	42.49
934.831	42.51
935.199	42.54
935.566	42.56
935.933	42.58
936.3	42.55
936.667	42.55
937.034	42.59
937.401	42.65
937.767	42.68
938.134	42.71
938.501	42.76
938.867	42.85
939.234	42.87
939.6	42.95
939.967	42.91
940.333	43.01
940.699	43.14
941.065	43.18
941.431	43.26
941.798	43.32
942.163	43.36
942.529	43.38
942.895	43.37
943.261	43.45
943.627	43.45
943.992	43.51
944.358	43.52
944.723	43.49
945.089	43.43
945.454	43.44
945.82	43.43
946.185	43.47
946.55	43.45
946.915	43.44
947.28	43.39
947.645	43.38
948.01	43.38
948.375	43.37
948.74	43.37
949.104	43.45
949.469	43.41
949.834	43.37
950.198	43.28
950.562	43.21
950.927	43.17
951.291	43.11
951.655	43.08
952.02	43.03
952.384	42.95
952.748	42.88
953.112	42.79
953.476	42.72
953.839	42.66
954.203	42.65
954.567	42.67
954.931	42.6
955.294	42.58
955.658	42.57
956.021	42.52
956.385	42.46
956.748	42.45
957.111	42.45
957.474	42.45
957.837	42.44
958.2	42.46
958.563	42.47
958.926	42.53
959.289	42.54
959.652	42.49
960.015	42.48
960.377	42.51
960.74	42.5
961.102	42.47
961.465	42.45
961.827	42.47
962.189	42.43
962.552	42.37
962.914	42.33
963.276	42.34
963.638	42.4
964	42.4
964.362	42.41
964.724	42.34
965.085	42.3
965.447	42.28
965.809	42.26
966.17	42.26
966.532	42.28
966.893	42.27
967.255	42.22
967.616	42.2
967.977	42.2
968.338	42.2
968.699	42.22
969.061	42.21
969.421	42.23
969.782	42.24
970.143	42.21
970.504	42.2
970.865	42.21
971.225	42.19
971.586	42.15
971.946	42.13
972.307	42.12
972.667	42.14
973.027	42.19
973.388	42.17
973.748	42.16
974.108	42.22
974.468	42.22
974.828	42.23
975.188	42.25
975.548	42.3
975.907	42.28
976.267	42.32
976.627	42.35
976.986	42.31
977.346	42.29
977.705	42.28
978.064	42.21
978.424	42.21
978.783	42.19
979.142	42.17
979.501	42.13
979.86	42.23
980.219	42.19
980.578	42.23
980.937	42.26
981.296	42.27
981.654	42.3
982.013	42.38
982.371	42.39
982.73	42.43
983.088	42.43
983.447	42.47
983.805	42.46
984.163	42.53
984.521	42.51
984.879	42.47
985.237	42.55
985.595	42.62
985.953	42.67
986.311	42.65
986.669	42.64
987.026	42.7
987.384	42.75
987.741	42.69
988.099	42.69
988.456	42.69
988.814	42.77
989.171	42.8
989.528	42.78
989.885	42.69
990.242	42.77
990.599	42.84
990.956	42.87
991.313	42.9
991.67	42.93
992.027	43
992.383	43.06
992.74	43.14
993.096	43.07
993.453	43.1
993.809	43.18
994.165	43.23
994.522	43.24
994.878	43.26
995.234	43.26
995.59	43.34
995.946	43.36
996.302	43.35
996.658	43.4
997.013	43.47
997.369	43.54
997.725	43.73
998.08	43.72
998.436	43.79
998.791	43.82
999.147	43.87
999.502	44.01
999.857	44.03
1000.212	44.02
1000.567	44.12
1000.922	44.18
1001.277	44.27
1001.632	44.11
1001.987	44.23
1002.342	44.16
1002.696	44.16
1003.051	44.22
1003.406	44.22
1003.76	44.27
1004.114	44.45
1004.469	44.41
1004.823	44.8
1005.177	44.73
1005.531	45
1005.885	44.93
1006.239	45.05
1006.593	45.34
1006.947	45.39
1007.301	45.39
1007.655	45.41
1008.008	45.43
1008.362	45.53
1008.715	45.35
1009.069	45.56
1009.422	45.41
1009.776	45.61
1010.129	45.71
1010.482	45.62
1010.835	45.69
1011.188	45.85
1011.541	46
1011.894	46.08
1012.247	46.07
1012.6	46.07
1012.952	45.92
1013.305	46.04
1013.657	46.1
1014.01	46.19
1014.362	46.28
1014.715	46.33
1015.067	46.37
1015.419	46.56
1015.771	46.46
1016.123	46.66
1016.475	46.68
1016.827	46.95
1017.179	47.09
1017.531	47.23
1017.883	47.31
1018.234	47.52
1018.586	47.78
1018.938	47.92
1019.289	47.81
1019.64	47.92
1019.992	48.02
1020.343	48.09
1020.694	48.34
1021.045	48.4
1021.396	48.46
1021.747	48.64
1022.098	48.56
1022.449	48.44
1022.8	48.6
1023.151	48.57
1023.501	48.77
1023.852	48.75
1024.202	48.81
1024.553	48.7
1024.903	48.97
1025.253	49.17
1025.604	49.13
1025.954	49.24
1026.304	49.78
1026.654	49.87
1027.004	50.19
1027.354	50.53
1027.703	50.55
1028.053	50.86
1028.403	51
1028.753	50.83
1029.102	51.18
1029.452	51.65
1029.801	52.14
1030.15	51.88
1030.499	51.84
897.758	942.52
901.051	943.89
904.343	948.21
907.636	965.66
910.928	941.42
914.22	935.35
917.511	922.74
920.803	880.74
924.094	880.11
927.384	859.93
930.675	825.59
933.965	822.16
937.255	776.47
940.544	742.79
943.834	705.93
947.123	698.94
950.411	662.37
953.7	649.72
956.988	616.01
960.276	586.05
963.563	579.16
966.851	557.81
970.138	553.54
973.424	537.61
976.711	540.51
979.997	514.56
983.283	512.15
986.568	501.58
989.853	486.01
993.138	476.07
996.423	461.65
999.708	448.76
1002.992	443.1
1006.275	422.57
1009.559	418.74
1012.842	403.21
1016.125	392.89
1019.408	383.81
1022.69	379.55
1025.972	371.57
1029.254	362.56
1032.536	356.17
1035.817	348.98
1039.098	345.23
1042.379	340.47
1045.659	335.16
1048.939	327.33
1052.219	320.7
1055.498	317.92
1058.778	309.52
1062.057	303.46
1065.335	300.67
1068.614	298.06
1071.892	294.65
1075.17	286.13
1078.447	280.5
1081.724	279.14
1085.001	276.71
1088.278	271.89
1091.554	267.66
1094.83	269.04
1098.106	266.62
1101.382	264.13
1104.657	261.14
1107.932	257.26
1111.206	259.65
1114.481	252.69
1117.755	250.71
1121.029	248.78
1124.302	248.41
1127.575	243.22
1130.848	239.75
1134.121	237.92
1137.393	237.06
1140.665	232.67
1143.937	229.8
1147.208	228
1150.48	227.64
1153.75	223.71
1157.021	221.47
1160.291	221.53
1163.561	218.51
1166.831	218.08
1170.101	216.41
1173.37	216.1
1176.639	216
1179.907	215.86
1183.176	212.85
1186.444	212.35
1189.711	212.72
1192.979	212.45
1196.246	210.84
1199.513	211.77
1202.78	210.68
1206.046	210.37
1209.312	208.39
1212.578	208.74
1215.843	209.3
1219.108	209.02
1222.373	213.17
1225.638	214.28
1228.902	216.23
1232.166	215.61
1235.43	217.48
1238.693	220.59
1241.956	222.14
1245.219	224.65
1248.482	225.52
1251.744	225.65
1255.006	225.84
1258.268	220.36
1261.529	218.85
1264.79	217.97
1268.051	217.87
1271.312	214.28
1274.572	211.85
1277.832	209.74
1281.092	206.75
1284.351	204.92
1287.61	204.96
1290.869	201.66
1294.128	200.72
1297.386	200.12
1300.644	197.95
1303.902	198.93
1307.159	198.98
1310.416	198.55
1313.673	197.55
1316.93	199.98
1320.186	199.15
1323.442	199.68
1326.697	202.6
1329.953	203.89
1333.208	204.34
1336.463	207.11
1339.717	207.1
1342.972	208.88
1346.226	210.5
1349.479	211.67
1352.733	211.94
1355.986	214.61
1359.238	213.52
1362.491	214.72
1365.743	216.69
1368.995	217.4
1372.247	215.98
1375.498	215.65
1378.749	217
1382	214.92
1385.251	215.24
1388.501	214.09
1391.751	213.48
1395	213.35
1398.25	211.27
1401.499	208.61
1404.748	208.16
1407.996	206.38
1411.244	205.72
1414.492	204.24
1417.74	201.66
1420.987	199.02
1424.234	198.61
1427.481	196.01
1430.728	195.87
1433.974	194.11
1437.22	192.82
1440.465	192.11
1443.711	190.27
1446.956	188.35
1450.201	186.26
1453.445	185.56
1456.689	184.5
1459.933	182
1463.177	179.97
1466.42	177.36
1469.663	176.15
1472.906	175.05
1476.148	170.46
1479.391	168.57
1482.633	167.54
1485.874	165.41
1489.115	164.03
1492.356	161.63
1495.597	161.02
1498.838	159.9
1502.078	158.54
1505.318	157.55
1508.557	157.8
1511.797	158.15
1515.036	156.46
1518.274	156.34
1521.513	155.63
1524.751	155.16
1527.989	155.46
1531.227	154.54
1534.464	154.34
1537.701	154.47
1540.938	153.83
1544.174	151.56
1547.41	151.91
1550.646	151.97
1553.882	151.4
1557.117	149.3
1560.352	149.17
1563.587	148.77
1566.821	147.91
1570.055	147.25
1573.289	145.47
1576.523	145.85
1579.756	145.41
1582.989	144.21
1586.222	143.95
1589.454	144.04
1592.686	145.1
1595.918	143.96
1599.15	143.66
1602.381	143.87
1605.612	143.31
1608.843	143.87
1612.073	143.16
1615.303	143.44
1618.533	143.89
1621.762	144.26
1624.992	144.06
1628.221	143.75
1631.449	143.33
1634.678	143.72
1637.906	144.46
1641.134	144.24
1644.361	144.07
1647.588	145.1
1650.815	145.08
1654.042	144.34
1657.269	144.83
1660.495	144.65
1663.72	144.21
1666.946	145.16
1670.171	145.31
1673.396	145.22
1676.621	145.24
1679.845	145.4
1683.069	145.6
1686.293	146.25
1689.517	146.59
1692.74	146.43
1695.963	146.94
1699.185	148.28
1702.408	148.34
1705.63	148.65
1708.852	148.84
1712.073	149.63
1715.294	150.16
1718.515	150.31
1721.736	150.11
1724.956	151.08
1728.176	151.22
1731.396	151.94
1734.616	151.37
1737.835	152.04
1741.054	151.02
1744.272	151.57
1747.491	152.69
1750.709	153.04
1753.927	153.04
1757.144	153.03
1760.361	152.95
1763.578	153.71
1766.795	153.24
1770.011	155.07
1773.227	154.81
1776.443	156.75
1779.658	156.78
1782.874	156.43
1786.089	155.99
1789.303	156.32
1792.518	157.96
1795.732	157.76
1798.945	158.3
1802.159	158.77
1805.372	158.18
1808.585	160.91
1811.797	161.23
1815.01	162.35
1818.222	163.61
1821.434	166.15
1824.645	166.34
1827.856	168.86
1831.067	170.46
1834.278	170.2
1837.488	171.58
1840.698	172.97
1843.908	171.52
1847.117	171.83
1850.326	172.73
1853.535	171.44
1856.744	173.05
1859.952	173.06
1863.16	171.44
1866.368	170.71
1869.575	171.79
1872.782	168.68
1875.989	167.79
1879.196	167.37
1882.402	166.27
1885.608	165.55
1888.814	165.78
1892.019	165.78
1895.224	164.79
1898.429	163.9
1901.634	163.84
1904.838	164.06
1908.042	166.06
1911.246	166.59
1914.449	166.7
1917.652	167.08
1920.855	166.64
1924.058	167.53
1927.26	165.55
1930.462	166.42
1933.664	168.22
1936.865	166.84
1940.066	166.64
1943.267	165.62
1946.467	165.28
1949.668	165.92
1952.868	167.77
1956.067	169.01
1959.267	167.3
1962.466	168.25
1965.665	167.8
1968.863	168.35
1972.061	171.95
1975.259	173.12
1978.457	174.3
1981.654	175.42
1984.852	176.24
1988.048	175.74
1991.245	177.84
1994.441	180.41
1997.637	182.2
2000.833	185.54
2004.028	187.99
2007.223	188.32
2010.418	189.79
2013.613	193.23
2016.807	195.99
2020.001	197.57
2023.194	200.77
2026.388	204.38
2029.581	209.71
2032.774	210.45
2035.966	214.14
2039.158	214.64
2042.35	219.01
2045.542	220.66
2048.733	225.78
2051.924	228.58
2055.115	232.18
2058.306	232.8
2061.496	234.48
2064.686	234.93
2067.875	240.08
2071.065	241.23
2074.254	238.93
2077.442	243.04
2080.631	244.14
2083.819	244.57
2087.007	245.22
2090.195	248.4
2093.382	251.18
2096.569	249.87
2099.756	252.79
2102.942	252.68
2106.128	254.91
2109.314	262.82
2112.5	260.88
2115.685	266.51
2118.87	267.23
2122.055	272.85
2125.239	273.99
2128.424	276.57
2131.608	279.18
2134.791	284.13
2137.974	284.87
2141.157	286.7
2144.34	286.51
2147.523	291.01
2150.705	289.83
2153.887	292.9
2157.068	292.74
2160.25	289.54
2163.431	292.2
2166.611	295.22
2169.792	299.5
2172.972	303.95
2176.152	306.66
2179.331	309.27
2182.511	312.89
2185.69	315.98
2188.868	322.44
2192.047	323.63
2195.225	335.47
2198.403	341.83
2201.58	348.81
2204.758	355.32
2207.935	360.64
2211.111	366.62
2214.288	371.39
2217.464	372.62
2220.64	378.66
2223.815	382.37
2226.991	398.54
2230.166	398.14
2233.34	404.08
2236.515	410.11
2239.689	412.04
2242.863	415.34
2246.036	424.25
2249.209	421.09
2252.382	430
2255.555	441.64
2258.727	444.3
2261.9	446.81
2265.071	450.95
2268.243	460.49
2271.414	467
2274.585	473.67
2277.756	478.73
2280.926	482.83
2284.096	495.38
2287.266	505.22
2290.436	509.73
2293.605	520.11
2296.774	534.24
2299.942	550.05
2303.111	551.85
2306.279	560.76
2309.447	571.59
2312.614	586.33
2315.781	602.73
2318.948	631.68
2322.115	621.11
2325.281	656
2328.447	645.65
2331.613	667.12
2334.779	661.64
2337.944	689.85
2341.109	698.25
2344.274	716.55
2347.438	743.51
2350.602	744.38
2353.766	764.78
2356.929	778.4
2360.092	772.25
2363.255	823.78
2366.418	827.04
2369.58	842.86
2372.742	895.73
2375.904	918.67
2379.066	912.74
2382.227	889.25
2385.388	965.75
2388.548	964.3
2391.709	975.65
2394.869	1085.87
2398.029	1043.39
2401.188	1069.95
2404.347	1065.44
2407.506	1043.52
2410.665	1074.2
2413.823	1136.31
2416.981	1207.04
2420.139	1171.88
2423.296	1159.31
2426.453	1213.71
2429.61	1171.08
2432.767	1220.03
2435.923	1209.22
2439.079	1321.39
2442.235	1344.02
2445.391	1331.46
2448.546	1321.57
2451.701	1283.34
2454.855	1274.41
2458.009	1366.28
2461.163	1411.02
2464.317	1457.78
2467.471	1497.11
2470.624	1499.42
2473.777	1458.58
2476.929	1414.81
2480.082	1370.11
2483.234	1360.51
2486.385	1430.91
2489.537	1438.27
2492.688	1475.98
2495.839	1441.33
2498.989	1407.14
2502.14	1411.87
2505.29	1428.64
2508.439	1445.09
2511.589	1444.13
2514.738	1582.99
2517.887	1545.61
2521.035	1629.66
2524.183	1644.14
2527.331	1656.64
2530.479	1645.93
2533.627	1662.21
