Data from C_3_DEC_NC_4N_Splice17_13-58-51-159.txt Node
Date: Sat Mar 07 13:58:51 EST 2020
User: sa697716
Spectrometer: NQ5500242
Trigger mode: 0
Integration Time (sec): 1.450000E-1
Scans to average: 20
Nonlinearity correction enabled: false
Boxcar width: 5
Storing dark spectrum: false
XAxis mode: Wavelengths
Number of Pixels in Spectrum: 512
>>>>>Begin Spectral Data<<<<<
187.83	135.79
188.298	129.2
188.766	107.71
189.233	96.22
189.701	98.29
190.169	106.78
190.636	116.46
191.104	120.67
191.571	-138.57
192.039	-193.67
192.506	-569.62
192.974	115.58
193.441	125.13
193.908	-26.59
194.375	17.18
194.842	-55.33
195.31	-112.97
195.777	-225.51
196.244	46.86
196.711	50.02
197.177	52.32
197.644	51.7
198.111	51.4
198.578	51.86
199.045	52.83
199.511	52.89
199.978	53.43
200.445	53.57
200.911	53.54
201.378	53.12
201.844	52.95
202.31	52.47
202.777	52.72
203.243	52.76
203.709	52.44
204.176	51.8
204.642	51.44
205.108	51.57
205.574	51.21
206.04	50.71
206.506	50.5
206.972	50.42
207.438	50.46
207.903	49.81
208.369	49.04
208.835	48.4
209.301	47.72
209.766	46.4
210.232	44.85
210.697	43.8
211.163	42.9
211.628	41.99
212.094	40.97
212.559	39.98
213.024	39.12
213.49	38.46
213.955	37.4
214.42	36.49
214.885	35.77
215.35	34.89
215.815	33.57
216.28	31.67
216.745	29.55
217.21	27.52
217.675	25.48
218.14	23.77
218.604	22.27
219.069	21.11
219.534	20.16
219.998	19.27
220.463	18.5
220.927	17.79
221.392	17.31
221.856	16.92
222.32	16.54
222.785	16.24
223.249	15.91
223.713	15.6
224.177	15.35
224.642	15.09
225.106	14.82
225.57	14.55
226.034	14.35
226.497	14.14
226.961	13.91
227.425	13.71
227.889	13.51
228.353	13.35
228.816	13.16
229.28	12.96
229.744	12.78
230.207	12.62
230.671	12.46
231.134	12.31
231.597	12.16
232.061	12.01
232.524	11.86
232.987	11.71
233.45	11.57
233.914	11.44
234.377	11.3
234.84	11.16
235.303	11.04
235.766	10.93
236.229	10.8
236.691	10.68
237.154	10.56
237.617	10.45
238.08	10.35
238.542	10.24
239.005	10.14
239.468	10.05
239.93	9.97
240.393	9.88
240.855	9.77
241.317	9.69
241.78	9.6
242.242	9.5
242.704	9.43
243.166	9.34
243.629	9.27
244.091	9.18
244.553	9.09
245.015	8.99
245.477	8.9
245.939	8.83
246.4	8.75
246.862	8.66
247.324	8.59
247.786	8.5
248.247	8.42
248.709	8.33
249.17	8.25
249.632	8.19
250.093	8.14
250.555	8.09
251.016	8.02
251.477	7.95
251.939	7.9
252.4	7.85
252.861	7.79
253.322	7.74
253.783	7.69
254.244	7.64
254.705	7.59
255.166	7.53
255.627	7.48
256.088	7.43
256.549	7.39
257.009	7.33
257.47	7.28
257.931	7.23
258.391	7.18
258.852	7.13
259.312	7.08
259.773	7.04
260.233	7
260.694	6.95
261.154	6.9
261.614	6.86
262.074	6.82
262.534	6.77
262.994	6.74
263.455	6.7
263.915	6.66
264.374	6.62
264.834	6.59
265.294	6.55
265.754	6.52
266.214	6.49
266.673	6.47
267.133	6.44
267.593	6.42
268.052	6.4
268.512	6.38
268.971	6.36
269.431	6.34
269.89	6.32
270.349	6.3
270.809	6.28
271.268	6.26
271.727	6.24
272.186	6.22
272.645	6.2
273.104	6.18
273.563	6.16
274.022	6.14
274.481	6.13
274.94	6.11
275.399	6.09
275.857	6.08
276.316	6.06
276.775	6.05
277.233	6.04
277.692	6.03
278.15	6.01
278.609	6
279.067	5.99
279.525	5.97
279.984	5.95
280.442	5.94
280.9	5.93
281.358	5.91
281.816	5.9
282.274	5.87
282.732	5.85
283.19	5.83
283.648	5.81
284.106	5.8
284.564	5.79
285.021	5.78
285.479	5.76
285.937	5.74
286.394	5.73
286.852	5.72
287.309	5.7
287.767	5.69
288.224	5.67
288.682	5.65
289.139	5.62
289.596	5.58
290.053	5.55
290.511	5.53
290.968	5.5
291.425	5.47
291.882	5.44
292.339	5.42
292.796	5.41
293.252	5.39
293.709	5.37
294.166	5.36
294.623	5.35
295.079	5.33
295.536	5.33
295.992	5.32
296.449	5.31
296.905	5.3
297.362	5.29
297.818	5.27
298.274	5.26
298.731	5.25
299.187	5.23
299.643	5.21
300.099	5.2
300.555	5.18
301.011	5.17
301.467	5.16
301.923	5.13
302.379	5.12
302.835	5.11
303.291	5.1
303.746	5.09
304.202	5.09
304.658	5.08
305.113	5.07
305.569	5.07
306.024	5.06
306.479	5.05
306.935	5.05
307.39	5.05
307.845	5.04
308.301	5.04
308.756	5.03
309.211	5.02
309.666	5.02
310.121	5.02
310.576	5.02
311.031	5.01
311.486	5.02
311.94	5.01
312.395	5.01
312.85	5
313.305	5
313.759	5
314.214	4.99
314.668	4.98
315.123	4.97
315.577	4.96
316.032	4.95
316.486	4.94
316.94	4.93
317.394	4.91
317.849	4.9
318.303	4.88
318.757	4.86
319.211	4.86
319.665	4.84
320.119	4.81
320.572	4.79
321.026	4.78
321.48	4.77
321.934	4.75
322.387	4.73
322.841	4.71
323.295	4.71
323.748	4.7
324.202	4.68
324.655	4.68
325.108	4.68
325.562	4.68
326.015	4.68
326.468	4.67
326.921	4.66
327.374	4.66
327.827	4.66
328.28	4.65
328.733	4.65
329.186	4.65
329.639	4.65
330.092	4.64
330.545	4.64
330.997	4.63
331.45	4.63
331.903	4.64
332.355	4.64
332.808	4.64
333.26	4.64
333.713	4.63
334.165	4.63
334.617	4.63
335.069	4.62
335.522	4.62
335.974	4.63
336.426	4.62
336.878	4.61
337.33	4.6
337.782	4.59
338.234	4.59
338.686	4.59
339.137	4.6
339.589	4.58
340.041	4.57
340.493	4.56
340.944	4.54
341.396	4.52
341.847	4.52
342.299	4.5
342.75	4.48
343.201	4.46
343.653	4.44
344.104	4.42
344.555	4.4
345.006	4.39
345.457	4.38
345.908	4.37
346.359	4.36
346.81	4.35
347.261	4.35
347.712	4.35
348.163	4.34
348.613	4.33
349.064	4.33
349.515	4.33
349.965	4.33
350.416	4.33
350.866	4.33
351.317	4.31
351.767	4.31
352.217	4.31
352.668	4.31
353.118	4.31
353.568	4.32
354.018	4.32
354.468	4.32
354.918	4.32
355.368	4.32
355.818	4.32
356.268	4.33
356.718	4.33
357.168	4.32
357.617	4.31
358.067	4.31
358.517	4.3
358.966	4.3
359.416	4.3
359.865	4.29
360.315	4.29
360.764	4.3
361.213	4.29
361.663	4.28
362.112	4.29
362.561	4.29
363.01	4.29
363.459	4.29
363.908	4.28
364.357	4.28
364.806	4.27
365.255	4.27
365.703	4.28
366.152	4.28
366.601	4.28
367.05	4.27
367.498	4.26
367.947	4.27
368.395	4.26
368.844	4.26
369.292	4.25
369.74	4.25
370.189	4.24
370.637	4.23
371.085	4.21
371.533	4.21
371.981	4.21
372.429	4.21
372.877	4.21
373.325	4.21
373.773	4.2
374.221	4.2
374.669	4.2
375.116	4.2
375.564	4.19
376.012	4.2
376.459	4.19
376.907	4.19
377.354	4.19
377.801	4.19
378.249	4.2
378.696	4.2
379.143	4.2
379.591	4.2
380.038	4.2
380.485	4.2
380.932	4.2
381.379	4.21
381.826	4.21
382.273	4.2
382.72	4.19
383.166	4.19
383.613	4.18
384.06	4.18
384.506	4.18
384.953	4.19
385.4	4.19
385.846	4.2
386.292	4.2
386.739	4.21
387.185	4.22
387.631	4.24
388.078	4.24
388.524	4.25
388.97	4.26
389.416	4.27
389.862	4.28
390.308	4.29
390.754	4.31
391.2	4.32
391.645	4.34
392.091	4.36
392.537	4.38
392.983	4.39
393.428	4.42
393.874	4.43
394.319	4.45
394.765	4.46
395.21	4.46
395.655	4.47
396.101	4.48
396.546	4.5
396.991	4.51
397.436	4.52
397.881	4.55
398.326	4.56
398.771	4.59
399.216	4.6
399.661	4.62
400.106	4.65
400.551	4.66
400.995	4.66
401.44	4.66
401.885	4.66
402.329	4.67
402.774	4.67
403.218	4.71
403.663	4.72
404.107	4.73
404.551	4.74
404.995	4.75
405.44	4.76
405.884	4.77
406.328	4.8
406.772	4.8
407.216	4.82
407.66	4.83
408.104	4.81
408.547	4.82
408.991	4.83
409.435	4.83
409.879	4.84
410.322	4.85
410.766	4.88
411.209	4.89
411.653	4.91
412.096	4.92
412.54	4.92
412.983	4.96
413.426	4.99
413.869	5.01
414.312	5.03
414.756	5.06
415.199	5.07
415.642	5.07
416.085	5.09
416.527	5.09
416.97	5.09
417.413	5.09
417.856	5.07
418.298	5.04
418.741	5.03
419.184	5.01
419.626	5
420.069	5
420.511	5
420.953	5
421.396	5.01
421.838	5.01
422.28	5.02
422.722	5.05
423.164	5.06
423.606	5.07
424.048	5.09
424.49	5.1
424.932	5.1
425.374	5.08
425.816	5.07
426.258	5.04
426.699	5.04
427.141	5.03
427.582	5.02
428.024	5.04
428.465	5.04
428.907	5.04
429.348	5.03
429.789	5.03
430.231	5.06
430.672	5.09
431.113	5.12
431.554	5.13
431.995	5.14
432.436	5.16
432.877	5.17
433.318	5.18
433.759	5.22
434.2	5.25
434.64	5.27
435.081	5.27
435.522	5.29
435.962	5.31
436.403	5.34
436.843	5.36
437.284	5.36
437.724	5.37
438.164	5.38
438.604	5.38
439.045	5.38
439.485	5.4
439.925	5.41
440.365	5.41
440.805	5.41
441.245	5.42
441.685	5.44
442.125	5.48
442.564	5.49
443.004	5.49
443.444	5.5
443.883	5.52
444.323	5.51
444.762	5.53
445.202	5.55
445.641	5.58
446.081	5.59
446.52	5.61
446.959	5.61
447.398	5.63
447.837	5.64
448.276	5.66
448.716	5.68
449.154	5.71
449.593	5.73
450.032	5.73
450.471	5.73
450.91	5.73
451.349	5.74
451.787	5.75
452.226	5.74
452.664	5.75
453.103	5.74
453.541	5.73
453.98	5.73
454.418	5.71
454.856	5.71
455.295	5.7
455.733	5.67
456.171	5.67
456.609	5.65
457.047	5.64
457.485	5.62
457.923	5.61
458.361	5.6
458.798	5.59
459.236	5.59
459.674	5.57
460.111	5.57
460.549	5.58
460.987	5.58
461.424	5.58
461.862	5.59
462.299	5.6
462.736	5.61
463.173	5.61
463.611	5.62
464.048	5.63
464.485	5.63
464.922	5.63
465.359	5.64
465.796	5.66
466.233	5.66
466.67	5.66
467.106	5.67
467.543	5.66
467.98	5.67
468.416	5.65
468.853	5.64
469.29	5.64
469.726	5.64
470.162	5.64
470.599	5.63
471.035	5.62
471.471	5.62
471.907	5.61
472.344	5.62
472.78	5.62
473.216	5.62
473.652	5.62
474.088	5.61
474.523	5.61
474.959	5.6
475.395	5.59
475.831	5.58
476.266	5.58
476.702	5.57
477.138	5.56
477.573	5.56
478.008	5.56
478.444	5.54
478.879	5.54
479.314	5.54
479.75	5.55
480.185	5.54
480.62	5.53
481.055	5.52
481.49	5.51
481.925	5.51
482.36	5.51
482.795	5.51
483.229	5.51
483.664	5.51
484.099	5.5
484.534	5.5
484.968	5.51
485.403	5.51
485.837	5.53
486.271	5.55
486.706	5.56
487.14	5.57
487.574	5.59
488.009	5.61
488.443	5.64
488.877	5.67
489.311	5.71
489.745	5.74
490.179	5.77
490.613	5.81
491.046	5.85
491.48	5.89
491.914	5.95
492.348	5.99
492.781	6.05
493.215	6.11
493.648	6.17
494.082	6.23
494.515	6.29
494.948	6.36
495.382	6.43
495.815	6.5
496.248	6.58
496.681	6.66
497.114	6.76
497.547	6.85
497.98	6.95
498.413	7.05
498.846	7.16
499.279	7.28
499.711	7.39
500.144	7.52
500.577	7.65
501.009	7.78
501.442	7.93
501.874	8.07
502.306	8.21
502.739	8.38
503.171	8.55
503.603	8.72
504.036	8.91
504.468	9.1
504.9	9.28
505.332	9.48
505.764	9.7
506.196	9.9
506.627	10.14
507.059	10.38
507.491	10.6
507.923	10.85
508.354	11.12
508.786	11.39
509.217	11.67
509.649	11.94
510.08	12.23
510.512	12.52
510.943	12.82
511.374	13.13
511.805	13.46
512.237	13.77
512.668	14.1
513.099	14.42
513.53	14.73
513.961	15.06
514.391	15.41
514.822	15.78
515.253	16.14
515.684	16.49
516.114	16.83
516.545	17.17
516.975	17.53
517.406	17.89
517.836	18.25
518.267	18.62
518.697	18.97
519.127	19.32
519.558	19.67
519.988	20.01
520.418	20.36
520.848	20.7
521.278	21.05
521.708	21.54
522.138	21.87
522.567	22.18
522.997	22.48
523.427	22.79
523.857	23.08
524.286	23.34
524.716	23.63
525.145	23.87
525.575	24.12
526.004	24.37
526.433	24.45
526.863	24.68
527.292	24.91
527.721	25.13
528.15	25.33
528.579	25.53
529.008	25.74
529.437	25.91
529.866	26.09
530.295	26.27
530.724	26.41
531.152	26.57
531.581	26.71
532.01	26.84
532.438	26.98
532.867	27.1
533.295	27.22
533.723	27.31
534.152	27.41
534.58	27.51
535.008	27.57
535.436	27.66
535.865	27.73
536.293	27.78
536.721	27.85
537.149	27.9
537.576	27.94
538.004	27.99
538.432	28.02
538.86	28.09
539.287	28.13
539.715	28.2
540.143	28.24
540.57	28.26
540.998	28.29
541.425	28.32
541.852	28.35
542.28	28.38
542.707	28.4
543.134	28.46
543.561	28.48
543.988	28.5
544.415	28.51
544.842	28.54
545.269	28.58
545.696	28.62
546.123	28.66
546.549	28.69
546.976	28.73
547.403	28.77
547.829	28.78
548.256	28.8
548.682	28.82
549.108	28.86
549.535	28.87
549.961	28.88
550.387	28.89
550.813	28.9
551.24	28.91
551.666	28.9
552.092	28.9
552.518	28.9
552.943	28.89
553.369	28.88
553.795	28.85
554.221	28.84
554.646	28.81
555.072	28.78
555.498	28.72
555.923	28.67
556.349	28.6
556.774	28.52
557.199	28.44
557.625	28.37
558.05	28.29
558.475	28.2
558.9	28.1
559.325	28.02
559.75	27.91
560.175	27.81
560.6	27.69
561.025	27.6
561.449	27.47
561.874	27.31
562.299	27.17
562.723	27.01
563.148	26.85
563.572	26.68
563.997	26.49
564.421	26.33
564.846	26.15
565.27	25.98
565.694	25.79
566.118	25.6
566.542	25.45
566.966	25.26
567.39	25.08
567.814	24.89
568.238	24.71
568.662	24.54
569.086	24.34
569.509	24.16
569.933	23.98
570.357	23.8
570.78	23.62
571.204	23.42
571.627	23.25
572.05	23.09
572.474	22.93
572.897	22.77
573.32	22.6
573.743	22.45
574.166	22.3
574.589	22.14
575.012	22
575.435	21.86
575.858	21.74
576.281	21.6
576.704	21.47
577.126	21.34
577.549	21.21
577.972	21.08
578.394	20.96
578.817	20.85
579.239	20.76
579.661	20.65
580.084	20.55
580.506	20.45
580.928	20.35
581.35	20.25
581.772	20.14
582.194	20.04
582.616	19.96
583.038	19.87
583.46	19.77
583.882	19.66
584.303	19.56
584.725	19.48
585.147	19.41
585.568	19.32
585.99	19.23
586.411	19.17
586.833	19.09
587.254	19.01
587.675	18.93
588.096	18.85
588.518	18.78
588.939	18.72
589.36	18.65
589.781	18.57
590.202	18.51
590.623	18.45
591.043	18.39
591.464	18.36
591.885	18.3
592.305	18.25
592.726	18.21
593.147	18.17
593.567	18.13
593.987	18.08
594.408	18.02
594.828	17.98
595.248	17.95
595.669	17.9
596.089	17.83
596.509	17.79
596.929	17.75
597.349	17.7
597.769	17.64
598.189	17.59
598.608	17.54
599.028	17.51
599.448	17.47
599.867	17.4
600.287	17.35
600.706	17.32
601.126	17.26
601.545	17.21
601.965	17.17
602.384	17.13
602.803	17.07
603.222	17.01
603.641	16.95
604.061	16.89
604.48	16.82
604.898	16.75
605.317	16.67
605.736	16.59
606.155	16.52
606.574	16.43
606.992	16.35
607.411	16.26
607.829	16.15
608.248	16.06
608.666	15.97
609.085	15.89
609.503	15.82
609.921	15.74
610.339	15.67
610.758	15.58
611.176	15.49
611.594	15.39
612.012	15.29
612.43	15.23
612.847	15.14
613.265	15.04
613.683	14.96
614.101	14.86
614.518	14.77
614.936	14.67
615.353	14.57
615.771	14.5
616.188	14.43
616.606	14.38
617.023	14.31
617.44	14.25
617.857	14.18
618.274	14.12
618.691	14.05
619.108	14
619.525	13.96
619.942	13.91
620.359	13.87
620.776	13.84
621.192	13.79
621.609	13.76
622.026	13.71
622.442	13.69
622.859	13.66
623.275	13.64
623.691	13.62
624.108	13.59
624.524	13.57
624.94	13.55
625.356	13.52
625.772	13.49
626.188	13.47
626.604	13.46
627.02	13.45
627.436	13.44
627.852	13.42
628.268	13.4
628.683	13.38
629.099	13.35
629.514	13.33
629.93	13.31
630.345	13.28
630.761	13.24
631.176	13.19
631.591	13.13
632.007	13.07
632.422	13.01
632.837	12.94
633.252	12.85
633.667	12.77
634.082	12.66
634.497	12.56
634.911	12.44
635.326	12.34
635.741	12.21
636.155	12.09
636.57	11.95
636.984	11.82
637.399	11.67
637.813	11.53
638.228	11.38
638.642	11.23
639.056	11.07
639.47	10.91
639.884	10.75
640.298	10.59
640.712	10.45
641.126	10.28
641.54	10.13
641.954	9.98
642.368	9.82
642.781	9.68
643.195	9.55
643.609	9.43
644.022	9.31
644.436	9.19
644.849	9.08
645.262	8.96
645.676	8.86
646.089	8.77
646.502	8.68
646.915	8.61
647.328	8.53
647.741	8.47
648.154	8.41
648.567	8.36
648.98	8.31
649.393	8.26
649.805	8.23
650.218	8.18
650.631	8.14
651.043	8.11
651.456	8.07
651.868	8.03
652.28	7.99
652.693	7.96
653.105	7.92
653.517	7.86
653.929	7.81
654.341	7.76
654.753	7.72
655.165	7.67
655.577	7.61
655.989	7.54
656.401	7.48
656.813	7.41
657.224	7.33
657.636	7.24
658.047	7.18
658.459	7.09
658.87	7
659.282	6.91
659.693	6.82
660.104	6.73
660.515	6.64
660.926	6.56
661.338	6.47
661.749	6.4
662.159	6.33
662.57	6.27
662.981	6.2
663.392	6.13
663.803	6.08
664.213	6.02
664.624	5.97
665.035	5.93
665.445	5.9
665.855	5.87
666.266	5.84
666.676	5.82
667.086	5.79
667.497	5.77
667.907	5.76
668.317	5.74
668.727	5.73
669.137	5.73
669.547	5.72
669.956	5.7
670.366	5.7
670.776	5.7
671.186	5.71
671.595	5.71
672.005	5.72
672.414	5.74
672.824	5.77
673.233	5.78
673.642	5.8
674.052	5.82
674.461	5.85
674.87	5.87
675.279	5.92
675.688	5.95
676.097	5.99
676.506	6.03
676.915	6.08
677.323	6.12
677.732	6.17
678.141	6.22
678.549	6.27
678.958	6.33
679.366	6.41
679.775	6.46
680.183	6.54
680.592	6.62
681	6.71
681.408	6.81
681.816	6.94
682.224	7.06
682.632	7.21
683.04	7.37
683.448	7.54
683.856	7.71
684.264	7.93
684.671	8.16
685.079	8.41
685.487	8.7
685.894	9
686.302	9.32
686.709	9.68
687.116	10.06
687.524	10.48
687.931	10.92
688.338	11.41
688.745	11.92
689.152	12.45
689.559	13.02
689.966	13.61
690.373	14.21
690.78	14.85
691.187	15.51
691.593	16.19
692	16.88
692.407	17.57
692.813	18.28
693.22	18.99
693.626	19.7
694.032	20.43
694.439	21.16
694.845	21.91
695.251	22.65
695.657	23.38
696.063	24.12
696.469	24.88
696.875	25.6
697.281	26.33
697.687	27.06
698.093	27.77
698.498	28.47
698.904	29.17
699.31	29.84
699.715	30.5
700.12	31.14
700.526	31.77
700.931	32.38
701.337	32.99
701.742	33.6
702.147	34.18
702.552	34.77
702.957	35.31
703.362	35.86
703.767	36.39
704.172	36.9
704.577	37.4
704.981	37.89
705.386	38.37
705.791	38.86
706.195	39.33
706.6	39.81
707.004	40.25
707.408	40.71
707.813	41.17
708.217	41.6
708.621	42.04
709.025	42.45
709.43	42.85
709.834	43.28
710.237	43.65
710.641	44.04
711.045	44.4
711.449	44.79
711.853	45.17
712.256	45.51
712.66	45.84
713.064	46.18
713.467	46.53
713.87	46.89
714.274	47.21
714.677	47.55
715.08	47.85
715.484	48.15
715.887	48.46
716.29	48.73
716.693	49.03
717.096	49.32
717.499	49.6
717.901	49.89
718.304	50.15
718.707	50.42
719.109	50.68
719.512	50.94
719.915	51.18
720.317	51.37
720.719	51.57
721.122	51.79
721.524	52
721.926	52.21
722.328	52.41
722.731	52.6
723.133	52.8
723.535	52.98
723.937	53.16
724.338	53.32
724.74	53.51
725.142	53.78
725.544	53.94
725.945	54.13
726.347	54.25
726.748	54.38
727.15	54.51
727.551	54.65
727.952	54.78
728.354	54.89
728.755	55
729.156	55.13
729.557	55.15
729.958	55.25
730.359	55.32
730.76	55.46
731.161	55.55
731.562	55.66
731.962	55.71
732.363	55.79
732.763	55.87
733.164	55.97
733.564	56.04
733.965	56.13
734.365	56.22
734.766	56.31
735.166	56.37
735.566	56.45
735.966	56.54
736.366	56.61
736.766	56.66
737.166	56.75
737.566	56.79
737.966	56.82
738.365	56.87
738.765	56.9
739.165	56.94
739.564	57.01
739.964	57.03
740.363	57.04
740.763	57.1
741.162	57.13
741.561	57.15
741.96	57.19
742.36	57.23
742.759	57.26
743.158	57.29
743.557	57.33
743.955	57.33
744.354	57.37
744.753	57.4
745.152	57.44
745.55	57.48
745.949	57.52
746.348	57.55
746.746	57.58
747.144	57.61
747.543	57.62
747.941	57.63
748.339	57.62
748.737	57.62
749.136	57.63
749.534	57.59
749.932	57.59
750.33	57.57
750.727	57.58
751.125	57.59
751.523	57.58
751.921	57.61
752.318	57.64
752.716	57.67
753.113	57.68
753.511	57.69
753.908	57.76
754.305	57.78
754.703	57.77
755.1	57.78
755.497	57.78
755.894	57.8
756.291	57.78
756.688	57.74
757.085	57.75
757.482	57.75
757.878	57.75
758.275	57.71
758.672	57.68
759.068	57.71
759.465	57.7
759.861	57.7
760.258	57.7
760.654	57.69
761.05	57.7
761.447	57.7
761.843	57.69
762.239	57.69
762.635	57.7
763.031	57.72
763.427	57.71
763.822	57.72
764.218	57.7
764.614	57.7
765.01	57.71
765.405	57.7
765.801	57.69
766.196	57.68
766.592	57.68
766.987	57.64
767.382	57.62
767.778	57.62
768.173	57.61
768.568	57.61
768.963	57.62
769.358	57.62
769.753	57.62
770.148	57.61
770.542	57.62
770.937	57.62
771.332	57.66
771.726	57.68
772.121	57.68
772.515	57.66
772.91	57.65
773.304	57.66
773.699	57.65
774.093	57.66
774.487	57.67
774.881	57.67
775.275	57.65
775.669	57.62
776.063	57.58
776.457	57.56
776.851	57.56
777.245	57.53
777.638	57.51
778.032	57.49
778.425	57.51
778.819	57.51
779.212	57.51
779.606	57.54
779.999	57.55
780.392	57.62
780.786	57.63
781.179	57.69
781.572	57.75
781.965	57.77
782.358	57.8
782.751	57.78
783.143	57.78
783.536	57.78
783.929	57.78
784.322	57.81
784.714	57.79
785.107	57.81
785.499	57.78
785.891	57.78
786.284	57.79
786.676	57.79
787.068	57.8
787.46	57.81
787.852	57.85
788.245	57.86
788.636	57.84
789.028	57.85
789.42	57.85
789.812	57.89
790.204	57.9
790.595	57.88
790.987	57.93
791.378	57.97
791.77	57.99
792.161	57.97
792.553	57.98
792.944	57.97
793.335	57.98
793.726	57.98
794.117	57.97
794.508	57.94
794.899	57.96
795.29	57.94
795.681	57.89
796.072	57.89
796.463	57.93
796.853	57.92
797.244	57.95
797.634	57.94
798.025	57.97
798.415	58
798.806	58.03
799.196	58.01
799.586	58.03
799.976	58.06
800.366	58.06
800.756	58.04
801.146	58.08
801.536	58.12
801.926	58.12
802.316	58.12
802.706	58.12
803.095	58.13
803.485	58.15
803.874	58.18
804.264	58.19
804.653	58.21
805.043	58.26
805.432	58.25
805.821	58.25
806.21	58.27
806.599	58.28
806.988	58.28
807.377	58.31
807.766	58.33
808.155	58.32
808.544	58.32
808.933	58.35
809.321	58.29
809.71	58.31
810.098	58.29
810.487	58.3
810.875	58.32
811.264	58.33
811.652	58.34
812.04	58.34
812.428	58.37
812.816	58.4
813.204	58.39
813.592	58.43
813.98	58.45
814.368	58.49
814.756	58.49
815.144	58.48
815.531	58.48
815.919	58.49
816.306	58.51
816.694	58.52
817.081	58.54
817.469	58.56
817.856	58.58
818.243	58.57
818.63	58.54
819.017	58.53
819.404	58.55
819.791	58.57
820.178	58.58
820.565	58.56
820.952	58.54
821.339	58.5
821.725	58.48
822.112	58.46
822.498	58.48
822.885	58.52
823.271	58.52
823.657	58.5
824.044	58.47
824.43	58.48
824.816	58.48
825.202	58.48
825.588	58.49
825.974	58.5
826.36	58.5
826.746	58.51
827.132	58.49
827.517	58.5
827.903	58.52
828.289	58.54
828.674	58.54
829.06	58.49
829.445	58.47
829.83	58.47
830.216	58.45
830.601	58.45
830.986	58.43
831.371	58.41
831.756	58.39
832.141	58.37
832.526	58.35
832.911	58.32
833.295	58.35
833.68	58.35
834.065	58.33
834.449	58.32
834.834	58.28
835.218	58.26
835.603	58.25
835.987	58.23
836.371	58.22
836.755	58.19
837.139	58.17
837.524	58.2
837.908	58.22
838.291	58.23
838.675	58.25
839.059	58.26
839.443	58.24
839.827	58.22
840.21	58.21
840.594	58.22
840.977	58.22
841.361	58.23
841.744	58.17
842.127	58.12
842.511	58.08
842.894	58.05
843.277	58.06
843.66	58.05
844.043	58.09
844.426	58.09
844.809	58.08
845.191	58.09
845.574	58.06
845.957	58.1
846.339	58.11
846.722	58.14
847.104	58.15
847.487	58.13
847.869	58.12
848.252	58.11
848.634	58.12
849.016	58.14
849.398	58.14
849.78	58.16
850.162	58.14
850.544	58.13
850.926	58.13
851.307	58.12
851.689	58.13
852.071	58.14
852.452	58.12
852.834	58.13
853.215	58.1
853.597	58.09
853.978	58.06
854.359	58.08
854.741	58.1
855.122	58.09
855.503	58.08
855.884	58.06
856.265	58.05
856.646	58.05
857.026	58.07
857.407	58.1
857.788	58.1
858.169	58.13
858.549	58.11
858.93	58.1
859.31	58.11
859.69	58.13
860.071	58.18
860.451	58.19
860.831	58.19
861.211	58.15
861.591	58.13
861.971	58.12
862.351	58.14
862.731	58.17
863.111	58.15
863.491	58.15
863.87	58.13
864.25	58.11
864.629	58.13
865.009	58.13
865.388	58.16
865.768	58.17
866.147	58.18
866.526	58.17
866.905	58.15
867.284	58.16
867.663	58.15
868.042	58.17
868.421	58.2
868.8	58.19
869.179	58.21
869.558	58.21
869.936	58.2
870.315	58.19
870.693	58.17
871.072	58.2
871.45	58.24
871.828	58.26
872.207	58.27
872.585	58.24
872.963	58.22
873.341	58.19
873.719	58.21
874.097	58.18
874.475	58.2
874.853	58.19
875.23	58.19
875.608	58.18
875.986	58.18
876.363	58.18
876.741	58.18
877.118	58.2
877.495	58.24
877.873	58.21
878.25	58.27
878.627	58.26
879.004	58.26
879.381	58.25
879.758	58.21
880.135	58.19
880.512	58.18
880.889	58.2
881.265	58.16
881.642	58.14
882.019	58.15
882.395	58.11
882.772	58.11
883.148	58.11
883.524	58.1
883.901	58.11
884.277	58.09
884.653	58.05
885.029	58.01
885.405	58.01
885.781	57.99
886.157	57.96
886.532	57.97
886.908	57.93
887.284	57.93
887.659	57.91
888.035	57.91
888.411	57.91
888.786	57.94
889.161	57.98
889.537	58
889.912	58
890.287	58.01
890.662	58.01
891.037	58.04
891.412	58.01
891.787	58
892.162	58
892.536	57.98
892.911	57.95
893.286	57.91
893.66	57.9
894.035	57.88
894.409	57.85
894.784	57.84
895.158	57.81
895.532	57.81
895.906	57.81
896.281	57.81
896.655	57.81
897.029	57.81
897.402	57.79
897.776	57.78
898.15	57.77
898.524	57.8
898.898	57.79
899.271	57.81
899.645	57.82
900.018	57.8
900.392	57.79
900.765	57.81
901.138	57.81
901.511	57.85
901.884	57.87
902.258	57.9
902.631	57.9
903.003	57.92
903.376	57.93
903.749	57.93
904.122	57.99
904.495	58
904.867	58
905.24	58.04
905.612	58.04
905.985	58.05
906.357	58.01
906.729	58
907.102	58
907.474	58.01
907.846	58.02
908.218	57.97
908.59	57.97
908.962	57.97
909.334	57.96
909.705	57.95
910.077	57.97
910.449	57.97
910.82	57.97
911.192	57.94
911.563	57.93
911.935	57.91
912.306	57.95
912.677	57.97
913.048	57.95
913.419	57.93
913.79	57.93
914.161	57.91
914.532	57.92
914.903	57.93
915.274	57.98
915.645	58
916.015	58.02
916.386	57.99
916.756	58
917.127	58.01
917.497	58.01
917.868	58.02
918.238	58
918.608	58.04
918.978	58.05
919.348	58.05
919.718	58.04
920.088	58.07
920.458	58.08
920.828	58.04
921.198	58.04
921.567	58.04
921.937	58.07
922.306	58.06
922.676	58.02
923.045	58
923.415	57.97
923.784	57.96
924.153	57.96
924.522	57.96
924.891	57.96
925.26	57.97
925.629	57.98
925.998	57.92
926.367	57.96
926.736	57.95
927.104	57.95
927.473	57.94
927.842	57.9
928.21	57.89
928.578	57.89
928.947	57.92
929.315	57.89
929.683	57.9
930.051	57.88
930.42	57.84
930.788	57.8
931.156	57.74
931.523	57.69
931.891	57.72
932.259	57.65
932.627	57.61
932.994	57.53
933.362	57.5
933.729	57.47
934.097	57.43
934.464	57.43
934.831	57.43
935.199	57.46
935.566	57.46
935.933	57.41
936.3	57.43
936.667	57.44
937.034	57.49
937.401	57.5
937.767	57.51
938.134	57.52
938.501	57.52
938.867	57.52
939.234	57.54
939.6	57.57
939.967	57.59
940.333	57.58
940.699	57.63
941.065	57.57
941.431	57.6
941.798	57.56
942.163	57.58
942.529	57.58
942.895	57.64
943.261	57.65
943.627	57.67
943.992	57.69
944.358	57.71
944.723	57.62
945.089	57.57
945.454	57.53
945.82	57.49
946.185	57.48
946.55	57.43
946.915	57.37
947.28	57.32
947.645	57.29
948.01	57.33
948.375	57.25
948.74	57.25
949.104	57.35
949.469	57.28
949.834	57.25
950.198	57.2
950.562	57.19
950.927	57.18
951.291	57.1
951.655	57.07
952.02	57
952.384	57.03
952.748	56.97
953.112	56.92
953.476	56.91
953.839	56.85
954.203	56.86
954.567	56.82
954.931	56.83
955.294	56.85
955.658	56.84
956.021	56.81
956.385	56.73
956.748	56.72
957.111	56.66
957.474	56.65
957.837	56.64
958.2	56.63
958.563	56.61
958.926	56.57
959.289	56.61
959.652	56.57
960.015	56.56
960.377	56.54
960.74	56.58
961.102	56.61
961.465	56.69
961.827	56.78
962.189	56.84
962.552	56.84
962.914	56.82
963.276	56.79
963.638	56.75
964	56.77
964.362	56.81
964.724	56.8
965.085	56.81
965.447	56.74
965.809	56.7
966.17	56.63
966.532	56.62
966.893	56.6
967.255	56.58
967.616	56.58
967.977	56.54
968.338	56.53
968.699	56.49
969.061	56.44
969.421	56.45
969.782	56.42
970.143	56.41
970.504	56.44
970.865	56.53
971.225	56.49
971.586	56.52
971.946	56.53
972.307	56.49
972.667	56.47
973.027	56.48
973.388	56.45
973.748	56.49
974.108	56.52
974.468	56.49
974.828	56.45
975.188	56.45
975.548	56.39
975.907	56.41
976.267	56.5
976.627	56.52
976.986	56.44
977.346	56.43
977.705	56.4
978.064	56.42
978.424	56.44
978.783	56.37
979.142	56.4
979.501	56.46
979.86	56.5
980.219	56.39
980.578	56.38
980.937	56.39
981.296	56.37
981.654	56.37
982.013	56.3
982.371	56.28
982.73	56.35
983.088	56.35
983.447	56.33
983.805	56.3
984.163	56.33
984.521	56.39
984.879	56.37
985.237	56.38
985.595	56.37
985.953	56.32
986.311	56.33
986.669	56.27
987.026	56.24
987.384	56.27
987.741	56.19
988.099	56.22
988.456	56.18
988.814	56.29
989.171	56.31
989.528	56.3
989.885	56.33
990.242	56.3
990.599	56.37
990.956	56.42
991.313	56.43
991.67	56.54
992.027	56.58
992.383	56.65
992.74	56.62
993.096	56.59
993.453	56.63
993.809	56.67
994.165	56.73
994.522	56.7
994.878	56.76
995.234	56.75
995.59	56.69
995.946	56.68
996.302	56.67
996.658	56.72
997.013	56.74
997.369	56.74
997.725	56.83
998.08	56.84
998.436	56.86
998.791	56.78
999.147	56.63
999.502	56.65
999.857	56.66
1000.212	56.66
1000.567	56.71
1000.922	56.7
1001.277	56.77
1001.632	56.67
1001.987	56.66
1002.342	56.57
1002.696	56.67
1003.051	56.87
1003.406	56.98
1003.76	56.87
1004.114	56.73
1004.469	56.69
1004.823	56.99
1005.177	56.9
1005.531	56.97
1005.885	56.95
1006.239	57.08
1006.593	57.16
1006.947	57.15
1007.301	57.07
1007.655	57.13
1008.008	57.32
1008.362	57.4
1008.715	57.26
1009.069	57.28
1009.422	57.35
1009.776	57.43
1010.129	57.48
1010.482	57.39
1010.835	57.38
1011.188	57.39
1011.541	57.43
1011.894	57.52
1012.247	57.49
1012.6	57.55
1012.952	57.63
1013.305	57.61
1013.657	57.61
1014.01	57.44
1014.362	57.45
1014.715	57.64
1015.067	57.76
1015.419	57.89
1015.771	57.69
1016.123	57.78
1016.475	57.75
1016.827	57.72
1017.179	57.7
1017.531	57.78
1017.883	58.06
1018.234	58.16
1018.586	58
1018.938	58.07
1019.289	58.02
1019.64	58.25
1019.992	58.14
1020.343	58.24
1020.694	58.45
1021.045	58.39
1021.396	58.64
1021.747	58.64
1022.098	58.72
1022.449	58.78
1022.8	58.89
1023.151	58.93
1023.501	58.87
1023.852	58.75
1024.202	58.61
1024.553	58.33
1024.903	58.34
1025.253	58.27
1025.604	58.3
1025.954	58.13
1026.304	58.25
1026.654	58.15
1027.004	58.03
1027.354	58.02
1027.703	58.34
1028.053	58.25
1028.403	58.36
1028.753	58.45
1029.102	58.37
1029.452	58.46
1029.801	58.69
1030.15	58.56
1030.499	58.48
897.758	1494.67
901.051	1496.15
904.343	1496.79
907.636	1521.24
910.928	1482.53
914.22	1481.4
917.511	1455.89
920.803	1396.04
924.094	1387.23
927.384	1354.93
930.675	1298.79
933.965	1291.13
937.255	1219.79
940.544	1168.5
943.834	1112.43
947.123	1100.79
950.411	1036.23
953.7	1015.59
956.988	963.77
960.276	923.87
963.563	908.54
966.851	876.24
970.138	869.25
973.424	840.71
976.711	846.98
979.997	804.93
983.283	802.07
986.568	785.54
989.853	759.44
993.138	744.77
996.423	717.92
999.708	699.14
1002.992	692.84
1006.275	660.83
1009.559	654.15
1012.842	630.89
1016.125	614.03
1019.408	602.17
1022.69	595.52
1025.972	585.38
1029.254	571.39
1032.536	561.88
1035.817	550.15
1039.098	543.05
1042.379	531.16
1045.659	526.3
1048.939	511.66
1052.219	502.05
1055.498	494.49
1058.778	482.99
1062.057	471
1065.335	465.55
1068.614	459.64
1071.892	455.67
1075.17	440.36
1078.447	433.45
1081.724	430.27
1085.001	428.13
1088.278	419.56
1091.554	412.04
1094.83	411.74
1098.106	409.95
1101.382	405.76
1104.657	403.13
1107.932	395.45
1111.206	397.7
1114.481	387.28
1117.755	383.78
1121.029	380.14
1124.302	380.56
1127.575	372.2
1130.848	367.42
1134.121	363.86
1137.393	362.78
1140.665	355.82
1143.937	354.17
1147.208	351.59
1150.48	351.85
1153.75	346.63
1157.021	341.65
1160.291	341.42
1163.561	338.15
1166.831	338.3
1170.101	335.74
1173.37	333.92
1176.639	334.84
1179.907	330.99
1183.176	327.79
1186.444	327.3
1189.711	327.61
1192.979	326.82
1196.246	323.87
1199.513	325.68
1202.78	323.42
1206.046	323.24
1209.312	320.89
1212.578	320.5
1215.843	323.55
1219.108	320.85
1222.373	327.5
1225.638	329.64
1228.902	334.76
1232.166	334.78
1235.43	336.95
1238.693	341.19
1241.956	342.86
1245.219	348.48
1248.482	348.71
1251.744	349.2
1255.006	350.6
1258.268	341.69
1261.529	338.07
1264.79	334.86
1268.051	333.83
1271.312	329.76
1274.572	325.44
1277.832	323.05
1281.092	317.44
1284.351	315.36
1287.61	314.7
1290.869	310.19
1294.128	308.21
1297.386	307.66
1300.644	304.79
1303.902	305.24
1307.159	303.97
1310.416	304.61
1313.673	303.71
1316.93	306.95
1320.186	306.73
1323.442	307.69
1326.697	313.16
1329.953	314.01
1333.208	315.77
1336.463	319.51
1339.717	320.25
1342.972	323.52
1346.226	325.97
1349.479	326.73
1352.733	328.01
1355.986	329.19
1359.238	329.32
1362.491	331.44
1365.743	334.01
1368.995	333.7
1372.247	332.55
1375.498	332.72
1378.749	336.37
1382	331.37
1385.251	333.06
1388.501	330.67
1391.751	333.01
1395	330.65
1398.25	327.46
1401.499	326.82
1404.748	326.7
1407.996	323.1
1411.244	321.57
1414.492	319.07
1417.74	317.03
1420.987	311.32
1424.234	311.6
1427.481	305.86
1430.728	306.13
1433.974	303.08
1437.22	299.39
1440.465	298.41
1443.711	296.29
1446.956	295.21
1450.201	290.84
1453.445	288.1
1456.689	287.27
1459.933	282.08
1463.177	281.4
1466.42	276.41
1469.663	273.7
1472.906	272.44
1476.148	265.2
1479.391	262.23
1482.633	259.22
1485.874	255.57
1489.115	254.71
1492.356	251.03
1495.597	250.21
1498.838	246.2
1502.078	245.07
1505.318	243.67
1508.557	244
1511.797	243.55
1515.036	242.35
1518.274	241.65
1521.513	239.78
1524.751	239.08
1527.989	239.19
1531.227	238.22
1534.464	239.39
1537.701	237.38
1540.938	236.81
1544.174	233.2
1547.41	233.63
1550.646	232.05
1553.882	232.09
1557.117	229.26
1560.352	228
1563.587	227.31
1566.821	225.99
1570.055	222.94
1573.289	222.15
1576.523	221.68
1579.756	220.34
1582.989	218.74
1586.222	218.63
1589.454	217.58
1592.686	219.07
1595.918	218.29
1599.15	217.36
1602.381	217.43
1605.612	217.49
1608.843	217.84
1612.073	217.65
1615.303	218.93
1618.533	219.24
1621.762	218.9
1624.992	218.91
1628.221	218.97
1631.449	218.22
1634.678	218.4
1637.906	219.18
1641.134	219.39
1644.361	218.75
1647.588	219.73
1650.815	218.52
1654.042	218.08
1657.269	219.33
1660.495	219.47
1663.72	217.83
1666.946	218.97
1670.171	219.06
1673.396	218.93
1676.621	218.63
1679.845	219.21
1683.069	218.68
1686.293	220.39
1689.517	221.24
1692.74	220.82
1695.963	221.9
1699.185	225.09
1702.408	224.61
1705.63	225.26
1708.852	226.25
1712.073	226.78
1715.294	227.02
1718.515	228.5
1721.736	227.81
1724.956	228.59
1728.176	228.57
1731.396	229.88
1734.616	228.78
1737.835	230.07
1741.054	228.16
1744.272	229.05
1747.491	230.74
1750.709	231.33
1753.927	230.96
1757.144	230.83
1760.361	231.71
1763.578	231.71
1766.795	230.94
1770.011	232.85
1773.227	232.75
1776.443	236.35
1779.658	236.68
1782.874	236.26
1786.089	237.37
1789.303	238.06
1792.518	240.79
1795.732	240.28
1798.945	243.71
1802.159	243.46
1805.372	243.67
1808.585	247.64
1811.797	248.39
1815.01	248.34
1818.222	250.47
1821.434	252.19
1824.645	253.34
1827.856	257.11
1831.067	259.68
1834.278	257.65
1837.488	260.15
1840.698	262.35
1843.908	260.12
1847.117	261.5
1850.326	263.27
1853.535	262.02
1856.744	265.63
1859.952	265.56
1863.16	263.82
1866.368	261.77
1869.575	266.01
1872.782	261.31
1875.989	260.5
1879.196	259.59
1882.402	256.93
1885.608	257.81
1888.814	258.59
1892.019	257
1895.224	255.75
1898.429	254.59
1901.634	255.86
1904.838	254.76
1908.042	258.36
1911.246	258.84
1914.449	260.02
1917.652	260.85
1920.855	261.22
1924.058	260.56
1927.26	259.43
1930.462	260.79
1933.664	263.55
1936.865	261.27
1940.066	262
1943.267	260.06
1946.467	259.86
1949.668	261.24
1952.868	264.58
1956.067	263.96
1959.267	264.56
1962.466	265.57
1965.665	263.68
1968.863	264.84
1972.061	268.92
1975.259	270.71
1978.457	272.82
1981.654	274.92
1984.852	276.01
1988.048	275.05
1991.245	277.66
1994.441	281.79
1997.637	283.46
2000.833	289.49
2004.028	292.89
2007.223	294.76
2010.418	298.2
2013.613	303.36
2016.807	306.73
2020.001	309.66
2023.194	313.82
2026.388	321.08
2029.581	327.5
2032.774	330.16
2035.966	336.25
2039.158	337.08
2042.35	343.29
2045.542	345.09
2048.733	350.17
2051.924	355.02
2055.115	359.35
2058.306	360.52
2061.496	363.83
2064.686	364.29
2067.875	371.16
2071.065	372.97
2074.254	370.98
2077.442	374.99
2080.631	376.83
2083.819	380.74
2087.007	380.57
2090.195	385.55
2093.382	389.5
2096.569	386.81
2099.756	393.06
2102.942	394.1
2106.128	397.14
2109.314	407.28
2112.5	406.24
2115.685	414.4
2118.87	414.47
2122.055	423.72
2125.239	426.76
2128.424	431.72
2131.608	434.38
2134.791	439.6
2137.974	441.45
2141.157	443.04
2144.34	442.53
2147.523	450.46
2150.705	447.69
2153.887	451.08
2157.068	451.69
2160.25	447
2163.431	448.54
2166.611	453.63
2169.792	463.73
2172.972	468.26
2176.152	471.25
2179.331	478.01
2182.511	484.81
2185.69	489.37
2188.868	501.29
2192.047	500.83
2195.225	516.63
2198.403	529.54
2201.58	541.54
2204.758	548.7
2207.935	561.52
2211.111	573.4
2214.288	579.13
2217.464	580.4
2220.64	591.01
2223.815	598.38
2226.991	625.13
2230.166	626.33
2233.34	637.59
2236.515	646.25
2239.689	647.61
2242.863	650.53
2246.036	667.67
2249.209	662.12
2252.382	674.34
2255.555	693.45
2258.727	695.25
2261.9	699.1
2265.071	705.31
2268.243	717.66
2271.414	725.36
2274.585	740.77
2277.756	748.63
2280.926	751.81
2284.096	770.35
2287.266	786.28
2290.436	793.45
2293.605	811.78
2296.774	837.09
2299.942	860.44
2303.111	863.9
2306.279	882.93
2309.447	896.19
2312.614	919.71
2315.781	946.64
2318.948	990.29
2322.115	974.2
2325.281	1027.22
2328.447	1005.42
2331.613	1045.13
2334.779	1036.43
2337.944	1081.32
2341.109	1092.06
2344.274	1121.51
2347.438	1164.22
2350.602	1163.39
2353.766	1197.98
2356.929	1217.43
2360.092	1209.53
2363.255	1300.29
2366.418	1295.33
2369.58	1322.98
2372.742	1405.56
2375.904	1441.55
2379.066	1433.24
2382.227	1399.86
2385.388	1521.93
2388.548	1523.15
2391.709	1543.57
2394.869	1717.26
2398.029	1638.55
2401.188	1682.01
2404.347	1673.37
2407.506	1642.25
2410.665	1692.08
2413.823	1795.38
2416.981	1900.78
2420.139	1837.89
2423.296	1815.63
2426.453	1898.65
2429.61	1826.78
2432.767	1914.23
2435.923	1901.75
2439.079	2070.66
2442.235	2100.18
2445.391	2079.61
2448.546	2063.9
2451.701	2007.77
2454.855	2004.93
2458.009	2137.76
2461.163	2214.73
2464.317	2292.29
2467.471	2354.26
2470.624	2349.1
2473.777	2294.45
2476.929	2235.75
2480.082	2168.39
2483.234	2141.96
2486.385	2242.96
2489.537	2256.18
2492.688	2331.83
2495.839	2268.8
2498.989	2224.72
2502.14	2233.06
2505.29	2260.93
2508.439	2289.4
2511.589	2285.21
2514.738	2491.66
2517.887	2444.73
2521.035	2592.45
2524.183	2606.84
2527.331	2627.45
2530.479	2619.25
2533.627	2633.93
