Data from C_3_HIR_WI_4N_Splice17_14-05-30-629.txt Node
Date: Sat Mar 07 14:05:30 EST 2020
User: sa697716
Spectrometer: NQ5500242
Trigger mode: 0
Integration Time (sec): 1.450000E-1
Scans to average: 20
Nonlinearity correction enabled: false
Boxcar width: 5
Storing dark spectrum: false
XAxis mode: Wavelengths
Number of Pixels in Spectrum: 512
>>>>>Begin Spectral Data<<<<<
187.83	115.38
188.298	129.54
188.766	104.8
189.233	80.72
189.701	80.03
190.169	106.86
190.636	84.66
191.104	-3.95
191.571	-339.25
192.039	-421.87
192.506	-757.66
192.974	179.34
193.441	167.32
193.908	-0.29
194.375	-27.29
194.842	-56.49
195.31	-4.7
195.777	-47.75
196.244	33.12
196.711	43.35
197.177	46.66
197.644	46.65
198.111	46.4
198.578	47.46
199.045	48.11
199.511	47.86
199.978	47.87
200.445	48.25
200.911	47.86
201.378	48.13
201.844	48.1
202.31	47.94
202.777	48.16
203.243	48.25
203.709	47.76
204.176	47.32
204.642	47.42
205.108	47.22
205.574	46.55
206.04	46.17
206.506	45.67
206.972	45.65
207.438	45.34
207.903	44.65
208.369	43.74
208.835	42.99
209.301	42.06
209.766	40.81
210.232	39.63
210.697	38.74
211.163	37.83
211.628	36.86
212.094	35.69
212.559	34.66
213.024	33.91
213.49	33.31
213.955	32.57
214.42	31.89
214.885	31
215.35	29.98
215.815	28.41
216.28	26.56
216.745	24.47
217.21	22.5
217.675	20.62
218.14	19.03
218.604	17.64
219.069	16.44
219.534	15.41
219.998	14.6
220.463	13.92
220.927	13.3
221.392	12.8
221.856	12.43
222.32	12.07
222.785	11.77
223.249	11.48
223.713	11.23
224.177	11.02
224.642	10.83
225.106	10.61
225.57	10.42
226.034	10.28
226.497	10.14
226.961	9.99
227.425	9.85
227.889	9.73
228.353	9.59
228.816	9.44
229.28	9.3
229.744	9.19
230.207	9.09
230.671	8.98
231.134	8.88
231.597	8.79
232.061	8.69
232.524	8.6
232.987	8.51
233.45	8.44
233.914	8.36
234.377	8.3
234.84	8.21
235.303	8.14
235.766	8.07
236.229	7.98
236.691	7.9
237.154	7.84
237.617	7.78
238.08	7.72
238.542	7.66
239.005	7.6
239.468	7.53
239.93	7.47
240.393	7.42
240.855	7.36
241.317	7.31
241.78	7.26
242.242	7.19
242.704	7.14
243.166	7.07
243.629	7.02
244.091	6.95
244.553	6.9
245.015	6.85
245.477	6.8
245.939	6.75
246.4	6.7
246.862	6.64
247.324	6.61
247.786	6.54
248.247	6.49
248.709	6.45
249.17	6.4
249.632	6.37
250.093	6.32
250.555	6.28
251.016	6.23
251.477	6.19
251.939	6.16
252.4	6.12
252.861	6.09
253.322	6.06
253.783	6.02
254.244	5.99
254.705	5.95
255.166	5.91
255.627	5.88
256.088	5.85
256.549	5.82
257.009	5.78
257.47	5.75
257.931	5.71
258.391	5.68
258.852	5.65
259.312	5.61
259.773	5.58
260.233	5.56
260.694	5.53
261.154	5.49
261.614	5.47
262.074	5.44
262.534	5.41
262.994	5.39
263.455	5.37
263.915	5.34
264.374	5.32
264.834	5.3
265.294	5.28
265.754	5.26
266.214	5.25
266.673	5.22
267.133	5.21
267.593	5.2
268.052	5.18
268.512	5.16
268.971	5.15
269.431	5.13
269.89	5.12
270.349	5.11
270.809	5.09
271.268	5.07
271.727	5.06
272.186	5.05
272.645	5.04
273.104	5.02
273.563	5.01
274.022	5
274.481	4.99
274.94	4.97
275.399	4.96
275.857	4.95
276.316	4.94
276.775	4.93
277.233	4.92
277.692	4.9
278.15	4.89
278.609	4.89
279.067	4.87
279.525	4.86
279.984	4.85
280.442	4.84
280.9	4.83
281.358	4.82
281.816	4.81
282.274	4.8
282.732	4.78
283.19	4.77
283.648	4.75
284.106	4.74
284.564	4.72
285.021	4.72
285.479	4.71
285.937	4.7
286.394	4.69
286.852	4.68
287.309	4.67
287.767	4.67
288.224	4.66
288.682	4.65
289.139	4.63
289.596	4.62
290.053	4.61
290.511	4.6
290.968	4.58
291.425	4.56
291.882	4.56
292.339	4.54
292.796	4.54
293.252	4.53
293.709	4.52
294.166	4.51
294.623	4.5
295.079	4.49
295.536	4.48
295.992	4.47
296.449	4.46
296.905	4.45
297.362	4.44
297.818	4.43
298.274	4.43
298.731	4.42
299.187	4.41
299.643	4.4
300.099	4.4
300.555	4.39
301.011	4.38
301.467	4.38
301.923	4.37
302.379	4.38
302.835	4.38
303.291	4.37
303.746	4.36
304.202	4.36
304.658	4.37
305.113	4.36
305.569	4.36
306.024	4.36
306.479	4.35
306.935	4.35
307.39	4.34
307.845	4.33
308.301	4.33
308.756	4.33
309.211	4.33
309.666	4.34
310.121	4.34
310.576	4.33
311.031	4.33
311.486	4.33
311.94	4.33
312.395	4.34
312.85	4.34
313.305	4.34
313.759	4.35
314.214	4.34
314.668	4.33
315.123	4.33
315.577	4.33
316.032	4.32
316.486	4.32
316.94	4.3
317.394	4.28
317.849	4.27
318.303	4.26
318.757	4.25
319.211	4.24
319.665	4.23
320.119	4.22
320.572	4.21
321.026	4.21
321.48	4.2
321.934	4.19
322.387	4.19
322.841	4.19
323.295	4.19
323.748	4.18
324.202	4.17
324.655	4.17
325.108	4.16
325.562	4.16
326.015	4.16
326.468	4.15
326.921	4.14
327.374	4.14
327.827	4.13
328.28	4.12
328.733	4.13
329.186	4.13
329.639	4.13
330.092	4.13
330.545	4.13
330.997	4.12
331.45	4.13
331.903	4.14
332.355	4.15
332.808	4.15
333.26	4.15
333.713	4.15
334.165	4.14
334.617	4.15
335.069	4.15
335.522	4.15
335.974	4.15
336.426	4.14
336.878	4.13
337.33	4.13
337.782	4.12
338.234	4.13
338.686	4.13
339.137	4.14
339.589	4.13
340.041	4.13
340.493	4.11
340.944	4.11
341.396	4.1
341.847	4.09
342.299	4.08
342.75	4.07
343.201	4.06
343.653	4.05
344.104	4.03
344.555	4.02
345.006	4.01
345.457	4.01
345.908	4
346.359	4
346.81	4
347.261	3.99
347.712	3.99
348.163	3.98
348.613	3.98
349.064	3.98
349.515	3.98
349.965	3.98
350.416	3.96
350.866	3.96
351.317	3.96
351.767	3.96
352.217	3.96
352.668	3.95
353.118	3.96
353.568	3.95
354.018	3.95
354.468	3.96
354.918	3.96
355.368	3.97
355.818	3.98
356.268	3.98
356.718	3.98
357.168	3.98
357.617	3.98
358.067	3.98
358.517	3.99
358.966	4
359.416	4
359.865	4
360.315	4
360.764	4.01
361.213	4.01
361.663	4.01
362.112	4.03
362.561	4.03
363.01	4.03
363.459	4.03
363.908	4.02
364.357	4.03
364.806	4.03
365.255	4.03
365.703	4.04
366.152	4.05
366.601	4.07
367.05	4.07
367.498	4.08
367.947	4.1
368.395	4.12
368.844	4.14
369.292	4.15
369.74	4.17
370.189	4.18
370.637	4.19
371.085	4.19
371.533	4.2
371.981	4.22
372.429	4.24
372.877	4.25
373.325	4.26
373.773	4.26
374.221	4.27
374.669	4.29
375.116	4.31
375.564	4.32
376.012	4.35
376.459	4.38
376.907	4.39
377.354	4.42
377.801	4.44
378.249	4.46
378.696	4.49
379.143	4.52
379.591	4.54
380.038	4.57
380.485	4.6
380.932	4.63
381.379	4.66
381.826	4.68
382.273	4.71
382.72	4.73
383.166	4.76
383.613	4.79
384.06	4.81
384.506	4.84
384.953	4.87
385.4	4.89
385.846	4.92
386.292	4.94
386.739	4.98
387.185	5.01
387.631	5.05
388.078	5.08
388.524	5.12
388.97	5.16
389.416	5.2
389.862	5.24
390.308	5.29
390.754	5.33
391.2	5.37
391.645	5.41
392.091	5.46
392.537	5.5
392.983	5.53
393.428	5.57
393.874	5.6
394.319	5.63
394.765	5.66
395.21	5.68
395.655	5.72
396.101	5.76
396.546	5.79
396.991	5.82
397.436	5.84
397.881	5.89
398.326	5.93
398.771	5.98
399.216	6.02
399.661	6.07
400.106	6.11
400.551	6.14
400.995	6.16
401.44	6.18
401.885	6.22
402.329	6.26
402.774	6.29
403.218	6.32
403.663	6.35
404.107	6.37
404.551	6.39
404.995	6.4
405.44	6.43
405.884	6.47
406.328	6.5
406.772	6.51
407.216	6.52
407.66	6.53
408.104	6.54
408.547	6.56
408.991	6.57
409.435	6.58
409.879	6.6
410.322	6.62
410.766	6.64
411.209	6.66
411.653	6.69
412.096	6.72
412.54	6.74
412.983	6.76
413.426	6.8
413.869	6.82
414.312	6.86
414.756	6.89
415.199	6.91
415.642	6.93
416.085	6.94
416.527	6.95
416.97	6.95
417.413	6.96
417.856	6.97
418.298	6.97
418.741	6.97
419.184	6.96
419.626	6.97
420.069	6.99
420.511	7
420.953	7
421.396	7.01
421.838	7.03
422.28	7.03
422.722	7.04
423.164	7.05
423.606	7.06
424.048	7.07
424.49	7.09
424.932	7.08
425.374	7.07
425.816	7.06
426.258	7.04
426.699	7.02
427.141	7.01
427.582	7.02
428.024	7.02
428.465	7.03
428.907	7.02
429.348	7
429.789	7.01
430.231	7.02
430.672	7.03
431.113	7.06
431.554	7.07
431.995	7.09
432.436	7.1
432.877	7.1
433.318	7.1
433.759	7.12
434.2	7.14
434.64	7.14
435.081	7.15
435.522	7.15
435.962	7.17
436.403	7.19
436.843	7.21
437.284	7.21
437.724	7.21
438.164	7.21
438.604	7.22
439.045	7.22
439.485	7.23
439.925	7.24
440.365	7.27
440.805	7.28
441.245	7.3
441.685	7.33
442.125	7.37
442.564	7.4
443.004	7.42
443.444	7.45
443.883	7.5
444.323	7.52
444.762	7.54
445.202	7.57
445.641	7.6
446.081	7.63
446.52	7.63
446.959	7.66
447.398	7.68
447.837	7.71
448.276	7.72
448.716	7.74
449.154	7.78
449.593	7.81
450.032	7.81
450.471	7.82
450.91	7.83
451.349	7.85
451.787	7.85
452.226	7.85
452.664	7.86
453.103	7.86
453.541	7.87
453.98	7.87
454.418	7.85
454.856	7.85
455.295	7.85
455.733	7.82
456.171	7.81
456.609	7.81
457.047	7.8
457.485	7.79
457.923	7.79
458.361	7.76
458.798	7.75
459.236	7.75
459.674	7.74
460.111	7.73
460.549	7.75
460.987	7.75
461.424	7.75
461.862	7.74
462.299	7.74
462.736	7.73
463.173	7.73
463.611	7.73
464.048	7.73
464.485	7.73
464.922	7.72
465.359	7.72
465.796	7.72
466.233	7.73
466.67	7.74
467.106	7.76
467.543	7.77
467.98	7.78
468.416	7.79
468.853	7.79
469.29	7.8
469.726	7.82
470.162	7.82
470.599	7.84
471.035	7.83
471.471	7.82
471.907	7.82
472.344	7.83
472.78	7.84
473.216	7.84
473.652	7.85
474.088	7.84
474.523	7.84
474.959	7.85
475.395	7.83
475.831	7.83
476.266	7.85
476.702	7.84
477.138	7.83
477.573	7.84
478.008	7.84
478.444	7.83
478.879	7.84
479.314	7.84
479.75	7.83
480.185	7.83
480.62	7.83
481.055	7.81
481.49	7.81
481.925	7.81
482.36	7.8
482.795	7.8
483.229	7.81
483.664	7.81
484.099	7.81
484.534	7.82
484.968	7.83
485.403	7.84
485.837	7.85
486.271	7.88
486.706	7.88
487.14	7.9
487.574	7.92
488.009	7.93
488.443	7.95
488.877	7.97
489.311	7.99
489.745	8.01
490.179	8.05
490.613	8.1
491.046	8.12
491.48	8.16
491.914	8.21
492.348	8.25
492.781	8.3
493.215	8.35
493.648	8.4
494.082	8.45
494.515	8.5
494.948	8.55
495.382	8.6
495.815	8.68
496.248	8.75
496.681	8.81
497.114	8.87
497.547	8.94
497.98	9.02
498.413	9.1
498.846	9.18
499.279	9.28
499.711	9.36
500.144	9.46
500.577	9.55
501.009	9.63
501.442	9.74
501.874	9.84
502.306	9.94
502.739	10.06
503.171	10.17
503.603	10.3
504.036	10.42
504.468	10.53
504.9	10.64
505.332	10.77
505.764	10.91
506.196	11.04
506.627	11.19
507.059	11.34
507.491	11.48
507.923	11.63
508.354	11.77
508.786	11.94
509.217	12.11
509.649	12.28
510.08	12.44
510.512	12.62
510.943	12.78
511.374	12.95
511.805	13.12
512.237	13.28
512.668	13.46
513.099	13.62
513.53	13.79
513.961	13.97
514.391	14.15
514.822	14.33
515.253	14.48
515.684	14.65
516.114	14.83
516.545	15
516.975	15.19
517.406	15.36
517.836	15.54
518.267	15.72
518.697	15.87
519.127	16.03
519.558	16.21
519.988	16.38
520.418	16.55
520.848	16.72
521.278	16.88
521.708	17.15
522.138	17.3
522.567	17.42
522.997	17.55
523.427	17.71
523.857	17.85
524.286	17.95
524.716	18.07
525.145	18.2
525.575	18.31
526.004	18.43
526.433	18.42
526.863	18.53
527.292	18.65
527.721	18.76
528.15	18.84
528.579	18.93
529.008	19.01
529.437	19.09
529.866	19.15
530.295	19.23
530.724	19.29
531.152	19.35
531.581	19.43
532.01	19.49
532.438	19.54
532.867	19.6
533.295	19.65
533.723	19.7
534.152	19.74
534.58	19.79
535.008	19.83
535.436	19.86
535.865	19.9
536.293	19.9
536.721	19.92
537.149	19.95
537.576	19.97
538.004	19.99
538.432	20.01
538.86	20.04
539.287	20.05
539.715	20.07
540.143	20.09
540.57	20.11
540.998	20.13
541.425	20.14
541.852	20.15
542.28	20.16
542.707	20.18
543.134	20.2
543.561	20.22
543.988	20.24
544.415	20.25
544.842	20.26
545.269	20.29
545.696	20.31
546.123	20.34
546.549	20.37
546.976	20.39
547.403	20.42
547.829	20.42
548.256	20.42
548.682	20.44
549.108	20.47
549.535	20.49
549.961	20.49
550.387	20.5
550.813	20.52
551.24	20.53
551.666	20.52
552.092	20.51
552.518	20.52
552.943	20.52
553.369	20.51
553.795	20.51
554.221	20.49
554.646	20.47
555.072	20.46
555.498	20.42
555.923	20.4
556.349	20.38
556.774	20.37
557.199	20.35
557.625	20.33
558.05	20.31
558.475	20.27
558.9	20.24
559.325	20.22
559.75	20.19
560.175	20.14
560.6	20.09
561.025	20.04
561.449	19.99
561.874	19.93
562.299	19.87
562.723	19.81
563.148	19.74
563.572	19.67
563.997	19.59
564.421	19.49
564.846	19.42
565.27	19.34
565.694	19.27
566.118	19.18
566.542	19.09
566.966	19.01
567.39	18.92
567.814	18.83
568.238	18.74
568.662	18.66
569.086	18.59
569.509	18.5
569.933	18.42
570.357	18.33
570.78	18.25
571.204	18.18
571.627	18.1
572.05	18.02
572.474	17.95
572.897	17.87
573.32	17.79
573.743	17.73
574.166	17.66
574.589	17.58
575.012	17.52
575.435	17.46
575.858	17.4
576.281	17.34
576.704	17.29
577.126	17.23
577.549	17.18
577.972	17.13
578.394	17.08
578.817	17.03
579.239	16.98
579.661	16.93
580.084	16.88
580.506	16.82
580.928	16.77
581.35	16.73
581.772	16.68
582.194	16.65
582.616	16.61
583.038	16.56
583.46	16.5
583.882	16.46
584.303	16.41
584.725	16.37
585.147	16.34
585.568	16.32
585.99	16.28
586.411	16.23
586.833	16.19
587.254	16.14
587.675	16.11
588.096	16.1
588.518	16.07
588.939	16.05
589.36	16.02
589.781	16.01
590.202	15.99
590.623	15.96
591.043	15.95
591.464	15.93
591.885	15.91
592.305	15.89
592.726	15.89
593.147	15.87
593.567	15.85
593.987	15.84
594.408	15.81
594.828	15.78
595.248	15.76
595.669	15.75
596.089	15.73
596.509	15.71
596.929	15.71
597.349	15.68
597.769	15.65
598.189	15.62
598.608	15.6
599.028	15.57
599.448	15.54
599.867	15.52
600.287	15.49
600.706	15.47
601.126	15.44
601.545	15.41
601.965	15.37
602.384	15.35
602.803	15.31
603.222	15.27
603.641	15.23
604.061	15.21
604.48	15.16
604.898	15.11
605.317	15.07
605.736	15.03
606.155	14.97
606.574	14.92
606.992	14.87
607.411	14.82
607.829	14.76
608.248	14.7
608.666	14.64
609.085	14.61
609.503	14.56
609.921	14.5
610.339	14.45
610.758	14.42
611.176	14.35
611.594	14.3
612.012	14.25
612.43	14.2
612.847	14.14
613.265	14.1
613.683	14.03
614.101	13.98
614.518	13.93
614.936	13.88
615.353	13.82
615.771	13.78
616.188	13.75
616.606	13.72
617.023	13.68
617.44	13.66
617.857	13.62
618.274	13.58
618.691	13.55
619.108	13.53
619.525	13.49
619.942	13.48
620.359	13.45
620.776	13.42
621.192	13.39
621.609	13.37
622.026	13.34
622.442	13.32
622.859	13.3
623.275	13.28
623.691	13.26
624.108	13.24
624.524	13.22
624.94	13.21
625.356	13.19
625.772	13.18
626.188	13.16
626.604	13.16
627.02	13.15
627.436	13.14
627.852	13.13
628.268	13.12
628.683	13.12
629.099	13.1
629.514	13.09
629.93	13.09
630.345	13.07
630.761	13.05
631.176	13.02
631.591	13
632.007	12.99
632.422	12.96
632.837	12.93
633.252	12.89
633.667	12.85
634.082	12.81
634.497	12.77
634.911	12.73
635.326	12.68
635.741	12.64
636.155	12.58
636.57	12.51
636.984	12.46
637.399	12.39
637.813	12.33
638.228	12.26
638.642	12.18
639.056	12.1
639.47	12.03
639.884	11.96
640.298	11.86
640.712	11.79
641.126	11.7
641.54	11.62
641.954	11.54
642.368	11.47
642.781	11.4
643.195	11.33
643.609	11.25
644.022	11.17
644.436	11.1
644.849	11.03
645.262	10.96
645.676	10.9
646.089	10.83
646.502	10.78
646.915	10.72
647.328	10.66
647.741	10.61
648.154	10.57
648.567	10.51
648.98	10.46
649.393	10.43
649.805	10.4
650.218	10.38
650.631	10.34
651.043	10.3
651.456	10.25
651.868	10.21
652.28	10.16
652.693	10.12
653.105	10.1
653.517	10.05
653.929	10
654.341	9.94
654.753	9.87
655.165	9.82
655.577	9.77
655.989	9.72
656.401	9.66
656.813	9.62
657.224	9.54
657.636	9.46
658.047	9.4
658.459	9.32
658.87	9.25
659.282	9.16
659.693	9.07
660.104	8.98
660.515	8.89
660.926	8.81
661.338	8.72
661.749	8.64
662.159	8.56
662.57	8.49
662.981	8.43
663.392	8.36
663.803	8.31
664.213	8.25
664.624	8.19
665.035	8.14
665.445	8.1
665.855	8.05
666.266	8
666.676	7.96
667.086	7.9
667.497	7.87
667.907	7.83
668.317	7.8
668.727	7.77
669.137	7.74
669.547	7.72
669.956	7.69
670.366	7.68
670.776	7.67
671.186	7.66
671.595	7.65
672.005	7.63
672.414	7.63
672.824	7.62
673.233	7.62
673.642	7.63
674.052	7.62
674.461	7.62
674.87	7.64
675.279	7.66
675.688	7.68
676.097	7.7
676.506	7.72
676.915	7.74
677.323	7.77
677.732	7.8
678.141	7.83
678.549	7.86
678.958	7.91
679.366	7.96
679.775	8
680.183	8.07
680.592	8.15
681	8.24
681.408	8.33
681.816	8.42
682.224	8.54
682.632	8.66
683.04	8.8
683.448	8.94
683.856	9.08
684.264	9.24
684.671	9.41
685.079	9.58
685.487	9.77
685.894	10
686.302	10.24
686.709	10.47
687.116	10.71
687.524	10.98
687.931	11.26
688.338	11.56
688.745	11.85
689.152	12.16
689.559	12.49
689.966	12.83
690.373	13.16
690.78	13.48
691.187	13.82
691.593	14.17
692	14.5
692.407	14.83
692.813	15.17
693.22	15.52
693.626	15.85
694.032	16.18
694.439	16.5
694.845	16.82
695.251	17.16
695.657	17.45
696.063	17.77
696.469	18.09
696.875	18.4
697.281	18.7
697.687	18.99
698.093	19.28
698.498	19.56
698.904	19.85
699.31	20.12
699.715	20.37
700.12	20.65
700.526	20.91
700.931	21.15
701.337	21.38
701.742	21.61
702.147	21.83
702.552	22.05
702.957	22.26
703.362	22.46
703.767	22.64
704.172	22.85
704.577	23.03
704.981	23.22
705.386	23.4
705.791	23.58
706.195	23.74
706.6	23.94
707.004	24.1
707.408	24.27
707.813	24.44
708.217	24.61
708.621	24.77
709.025	24.91
709.43	25.06
709.834	25.22
710.237	25.36
710.641	25.5
711.045	25.63
711.449	25.79
711.853	25.94
712.256	26.07
712.66	26.19
713.064	26.31
713.467	26.43
713.87	26.54
714.274	26.65
714.677	26.76
715.08	26.86
715.484	26.98
715.887	27.08
716.29	27.15
716.693	27.26
717.096	27.37
717.499	27.49
717.901	27.59
718.304	27.71
718.707	27.81
719.109	27.94
719.512	28.03
719.915	28.12
720.317	28.18
720.719	28.26
721.122	28.33
721.524	28.4
721.926	28.47
722.328	28.54
722.731	28.6
723.133	28.67
723.535	28.73
723.937	28.79
724.338	28.85
724.74	28.92
725.142	29.05
725.544	29.1
725.945	29.17
726.347	29.2
726.748	29.25
727.15	29.29
727.551	29.34
727.952	29.36
728.354	29.42
728.755	29.45
729.156	29.49
729.557	29.47
729.958	29.51
730.359	29.54
730.76	29.57
731.161	29.63
731.562	29.68
731.962	29.68
732.363	29.71
732.763	29.73
733.164	29.76
733.564	29.8
733.965	29.82
734.365	29.84
734.766	29.88
735.166	29.9
735.566	29.91
735.966	29.93
736.366	29.96
736.766	29.97
737.166	30.01
737.566	30.04
737.966	30.03
738.365	30.04
738.765	30.06
739.165	30.05
739.564	30.07
739.964	30.06
740.363	30.05
740.763	30.07
741.162	30.08
741.561	30.06
741.96	30.07
742.36	30.08
742.759	30.11
743.158	30.11
743.557	30.12
743.955	30.13
744.354	30.18
744.753	30.22
745.152	30.25
745.55	30.27
745.949	30.3
746.348	30.32
746.746	30.31
747.144	30.35
747.543	30.36
747.941	30.38
748.339	30.36
748.737	30.34
749.136	30.33
749.534	30.31
749.932	30.33
750.33	30.32
750.727	30.32
751.125	30.35
751.523	30.31
751.921	30.32
752.318	30.33
752.716	30.34
753.113	30.35
753.511	30.34
753.908	30.35
754.305	30.35
754.703	30.34
755.1	30.31
755.497	30.29
755.894	30.26
756.291	30.24
756.688	30.2
757.085	30.18
757.482	30.15
757.878	30.15
758.275	30.13
758.672	30.1
759.068	30.09
759.465	30.09
759.861	30.07
760.258	30.09
760.654	30.07
761.05	30.09
761.447	30.1
761.843	30.09
762.239	30.09
762.635	30.08
763.031	30.09
763.427	30.1
763.822	30.13
764.218	30.17
764.614	30.18
765.01	30.17
765.405	30.16
765.801	30.14
766.196	30.19
766.592	30.2
766.987	30.19
767.382	30.18
767.778	30.19
768.173	30.18
768.568	30.14
768.963	30.14
769.358	30.17
769.753	30.17
770.148	30.19
770.542	30.17
770.937	30.17
771.332	30.18
771.726	30.19
772.121	30.18
772.515	30.15
772.91	30.17
773.304	30.18
773.699	30.15
774.093	30.16
774.487	30.14
774.881	30.15
775.275	30.14
775.669	30.14
776.063	30.13
776.457	30.14
776.851	30.13
777.245	30.11
777.638	30.09
778.032	30.1
778.425	30.13
778.819	30.12
779.212	30.15
779.606	30.15
779.999	30.13
780.392	30.14
780.786	30.16
781.179	30.19
781.572	30.21
781.965	30.25
782.358	30.27
782.751	30.27
783.143	30.27
783.536	30.24
783.929	30.25
784.322	30.29
784.714	30.3
785.107	30.3
785.499	30.3
785.891	30.31
786.284	30.27
786.676	30.28
787.068	30.25
787.46	30.27
787.852	30.28
788.245	30.27
788.636	30.27
789.028	30.26
789.42	30.25
789.812	30.24
790.204	30.22
790.595	30.23
790.987	30.23
791.378	30.24
791.77	30.25
792.161	30.25
792.553	30.26
792.944	30.25
793.335	30.27
793.726	30.26
794.117	30.23
794.508	30.24
794.899	30.25
795.29	30.25
795.681	30.23
796.072	30.24
796.463	30.26
796.853	30.26
797.244	30.25
797.634	30.22
798.025	30.23
798.415	30.27
798.806	30.26
799.196	30.25
799.586	30.25
799.976	30.27
800.366	30.25
800.756	30.23
801.146	30.24
801.536	30.26
801.926	30.28
802.316	30.28
802.706	30.3
803.095	30.3
803.485	30.3
803.874	30.28
804.264	30.28
804.653	30.28
805.043	30.29
805.432	30.3
805.821	30.3
806.21	30.3
806.599	30.29
806.988	30.27
807.377	30.27
807.766	30.28
808.155	30.26
808.544	30.28
808.933	30.26
809.321	30.26
809.71	30.24
810.098	30.23
810.487	30.21
810.875	30.21
811.264	30.21
811.652	30.22
812.04	30.21
812.428	30.24
812.816	30.23
813.204	30.22
813.592	30.22
813.98	30.23
814.368	30.24
814.756	30.25
815.144	30.23
815.531	30.21
815.919	30.2
816.306	30.2
816.694	30.2
817.081	30.22
817.469	30.22
817.856	30.19
818.243	30.16
818.63	30.14
819.017	30.13
819.404	30.13
819.791	30.12
820.178	30.1
820.565	30.08
820.952	30.05
821.339	30
821.725	30
822.112	30.05
822.498	30.07
822.885	30.08
823.271	30.07
823.657	30.04
824.044	30.05
824.43	30.06
824.816	30.06
825.202	30.06
825.588	30.07
825.974	30.06
826.36	30.03
826.746	30.01
827.132	29.98
827.517	30
827.903	30.03
828.289	30.03
828.674	30.01
829.06	30
829.445	29.98
829.83	29.99
830.216	29.98
830.601	29.97
830.986	29.97
831.371	29.96
831.756	29.94
832.141	29.91
832.526	29.91
832.911	29.91
833.295	29.92
833.68	29.92
834.065	29.89
834.449	29.89
834.834	29.87
835.218	29.86
835.603	29.86
835.987	29.85
836.371	29.85
836.755	29.83
837.139	29.79
837.524	29.78
837.908	29.78
838.291	29.8
838.675	29.79
839.059	29.8
839.443	29.78
839.827	29.76
840.21	29.77
840.594	29.77
840.977	29.75
841.361	29.75
841.744	29.7
842.127	29.68
842.511	29.65
842.894	29.64
843.277	29.62
843.66	29.61
844.043	29.61
844.426	29.59
844.809	29.58
845.191	29.58
845.574	29.59
845.957	29.62
846.339	29.63
846.722	29.63
847.104	29.62
847.487	29.61
847.869	29.61
848.252	29.59
848.634	29.61
849.016	29.61
849.398	29.61
849.78	29.59
850.162	29.59
850.544	29.56
850.926	29.57
851.307	29.56
851.689	29.58
852.071	29.57
852.452	29.58
852.834	29.57
853.215	29.55
853.597	29.55
853.978	29.56
854.359	29.57
854.741	29.58
855.122	29.55
855.503	29.55
855.884	29.54
856.265	29.56
856.646	29.55
857.026	29.57
857.407	29.57
857.788	29.56
858.169	29.55
858.549	29.55
858.93	29.55
859.31	29.57
859.69	29.59
860.071	29.62
860.451	29.6
860.831	29.6
861.211	29.57
861.591	29.56
861.971	29.57
862.351	29.58
862.731	29.6
863.111	29.58
863.491	29.57
863.87	29.56
864.25	29.54
864.629	29.53
865.009	29.54
865.388	29.54
865.768	29.54
866.147	29.54
866.526	29.53
866.905	29.51
867.284	29.53
867.663	29.53
868.042	29.54
868.421	29.54
868.8	29.55
869.179	29.54
869.558	29.56
869.936	29.56
870.315	29.56
870.693	29.57
871.072	29.6
871.45	29.6
871.828	29.6
872.207	29.6
872.585	29.6
872.963	29.58
873.341	29.57
873.719	29.56
874.097	29.56
874.475	29.58
874.853	29.57
875.23	29.56
875.608	29.55
875.986	29.57
876.363	29.56
876.741	29.55
877.118	29.55
877.495	29.57
877.873	29.57
878.25	29.59
878.627	29.58
879.004	29.58
879.381	29.58
879.758	29.57
880.135	29.57
880.512	29.57
880.889	29.58
881.265	29.57
881.642	29.55
882.019	29.55
882.395	29.55
882.772	29.54
883.148	29.53
883.524	29.52
883.901	29.53
884.277	29.52
884.653	29.51
885.029	29.5
885.405	29.5
885.781	29.5
886.157	29.5
886.532	29.48
886.908	29.47
887.284	29.45
887.659	29.43
888.035	29.42
888.411	29.4
888.786	29.41
889.161	29.41
889.537	29.42
889.912	29.42
890.287	29.41
890.662	29.41
891.037	29.42
891.412	29.41
891.787	29.4
892.162	29.39
892.536	29.38
892.911	29.36
893.286	29.34
893.66	29.32
894.035	29.3
894.409	29.28
894.784	29.28
895.158	29.27
895.532	29.28
895.906	29.28
896.281	29.28
896.655	29.28
897.029	29.29
897.402	29.28
897.776	29.28
898.15	29.29
898.524	29.3
898.898	29.29
899.271	29.31
899.645	29.31
900.018	29.3
900.392	29.31
900.765	29.32
901.138	29.31
901.511	29.32
901.884	29.34
902.258	29.34
902.631	29.36
903.003	29.36
903.376	29.35
903.749	29.32
904.122	29.33
904.495	29.35
904.867	29.36
905.24	29.39
905.612	29.4
905.985	29.41
906.357	29.4
906.729	29.39
907.102	29.39
907.474	29.4
907.846	29.43
908.218	29.44
908.59	29.46
908.962	29.48
909.334	29.48
909.705	29.47
910.077	29.47
910.449	29.47
910.82	29.49
911.192	29.5
911.563	29.5
911.935	29.49
912.306	29.5
912.677	29.49
913.048	29.48
913.419	29.45
913.79	29.45
914.161	29.46
914.532	29.47
914.903	29.46
915.274	29.45
915.645	29.46
916.015	29.47
916.386	29.48
916.756	29.47
917.127	29.47
917.497	29.49
917.868	29.52
918.238	29.51
918.608	29.53
918.978	29.54
919.348	29.56
919.718	29.56
920.088	29.57
920.458	29.57
920.828	29.57
921.198	29.58
921.567	29.6
921.937	29.6
922.306	29.59
922.676	29.59
923.045	29.57
923.415	29.58
923.784	29.58
924.153	29.58
924.522	29.57
924.891	29.58
925.26	29.6
925.629	29.59
925.998	29.6
926.367	29.61
926.736	29.61
927.104	29.61
927.473	29.6
927.842	29.6
928.21	29.61
928.578	29.62
928.947	29.62
929.315	29.59
929.683	29.6
930.051	29.57
930.42	29.6
930.788	29.57
931.156	29.55
931.523	29.56
931.891	29.58
932.259	29.6
932.627	29.6
932.994	29.59
933.362	29.59
933.729	29.6
934.097	29.58
934.464	29.56
934.831	29.59
935.199	29.65
935.566	29.64
935.933	29.58
936.3	29.56
936.667	29.58
937.034	29.6
937.401	29.62
937.767	29.65
938.134	29.66
938.501	29.68
938.867	29.69
939.234	29.67
939.6	29.69
939.967	29.76
940.333	29.76
940.699	29.77
941.065	29.77
941.431	29.74
941.798	29.73
942.163	29.79
942.529	29.76
942.895	29.78
943.261	29.81
943.627	29.82
943.992	29.85
944.358	29.88
944.723	29.91
945.089	29.86
945.454	29.93
945.82	29.94
946.185	29.98
946.55	29.94
946.915	29.92
947.28	29.93
947.645	29.93
948.01	29.94
948.375	29.9
948.74	29.85
949.104	29.89
949.469	29.82
949.834	29.76
950.198	29.68
950.562	29.72
950.927	29.72
951.291	29.68
951.655	29.6
952.02	29.59
952.384	29.56
952.748	29.56
953.112	29.56
953.476	29.55
953.839	29.53
954.203	29.5
954.567	29.46
954.931	29.39
955.294	29.35
955.658	29.39
956.021	29.36
956.385	29.37
956.748	29.31
957.111	29.26
957.474	29.27
957.837	29.25
958.2	29.27
958.563	29.24
958.926	29.26
959.289	29.3
959.652	29.27
960.015	29.27
960.377	29.24
960.74	29.3
961.102	29.29
961.465	29.29
961.827	29.33
962.189	29.36
962.552	29.36
962.914	29.37
963.276	29.37
963.638	29.36
964	29.31
964.362	29.34
964.724	29.26
965.085	29.26
965.447	29.24
965.809	29.2
966.17	29.21
966.532	29.22
966.893	29.23
967.255	29.22
967.616	29.23
967.977	29.29
968.338	29.28
968.699	29.27
969.061	29.31
969.421	29.34
969.782	29.4
970.143	29.35
970.504	29.33
970.865	29.34
971.225	29.34
971.586	29.33
971.946	29.32
972.307	29.33
972.667	29.34
973.027	29.35
973.388	29.36
973.748	29.31
974.108	29.35
974.468	29.34
974.828	29.36
975.188	29.36
975.548	29.4
975.907	29.4
976.267	29.4
976.627	29.44
976.986	29.45
977.346	29.43
977.705	29.47
978.064	29.51
978.424	29.56
978.783	29.53
979.142	29.52
979.501	29.52
979.86	29.56
980.219	29.62
980.578	29.64
980.937	29.62
981.296	29.63
981.654	29.64
982.013	29.62
982.371	29.58
982.73	29.63
983.088	29.62
983.447	29.59
983.805	29.54
984.163	29.51
984.521	29.47
984.879	29.46
985.237	29.48
985.595	29.55
985.953	29.56
986.311	29.63
986.669	29.66
987.026	29.78
987.384	29.84
987.741	29.86
988.099	29.9
988.456	29.97
988.814	30.05
989.171	30.06
989.528	29.99
989.885	29.99
990.242	29.98
990.599	29.99
990.956	30.01
991.313	29.99
991.67	30.14
992.027	30.23
992.383	30.26
992.74	30.31
993.096	30.32
993.453	30.35
993.809	30.42
994.165	30.43
994.522	30.43
994.878	30.47
995.234	30.52
995.59	30.4
995.946	30.33
996.302	30.41
996.658	30.42
997.013	30.46
997.369	30.48
997.725	30.48
998.08	30.57
998.436	30.56
998.791	30.48
999.147	30.49
999.502	30.61
999.857	30.64
1000.212	30.51
1000.567	30.55
1000.922	30.55
1001.277	30.61
1001.632	30.62
1001.987	30.74
1002.342	30.74
1002.696	30.78
1003.051	30.93
1003.406	30.99
1003.76	31.13
1004.114	31.24
1004.469	31.29
1004.823	31.58
1005.177	31.59
1005.531	31.68
1005.885	31.58
1006.239	31.66
1006.593	31.8
1006.947	31.64
1007.301	31.53
1007.655	31.48
1008.008	31.59
1008.362	31.67
1008.715	31.55
1009.069	31.64
1009.422	31.64
1009.776	31.66
1010.129	31.68
1010.482	31.65
1010.835	31.76
1011.188	31.9
1011.541	31.91
1011.894	31.92
1012.247	31.86
1012.6	31.76
1012.952	31.86
1013.305	31.97
1013.657	32.19
1014.01	32.38
1014.362	32.44
1014.715	32.57
1015.067	32.6
1015.419	32.7
1015.771	32.78
1016.123	32.91
1016.475	33.13
1016.827	33.19
1017.179	33.25
1017.531	33.21
1017.883	33
1018.234	33.1
1018.586	33.28
1018.938	33.54
1019.289	33.56
1019.64	33.59
1019.992	33.51
1020.343	33.38
1020.694	33.32
1021.045	33.18
1021.396	33.25
1021.747	33.69
1022.098	33.87
1022.449	33.86
1022.8	33.74
1023.151	33.59
1023.501	33.72
1023.852	33.98
1024.202	34.19
1024.553	34.22
1024.903	34.33
1025.253	34.32
1025.604	34.19
1025.954	34.15
1026.304	33.94
1026.654	33.95
1027.004	34.34
1027.354	34.28
1027.703	34.21
1028.053	34.11
1028.403	34.26
1028.753	34.37
1029.102	34.66
1029.452	34.81
1029.801	34.98
1030.15	35.2
1030.499	35.32
897.758	1274.28
901.051	1277
904.343	1277.73
907.636	1300.29
910.928	1267.45
914.22	1263.08
917.511	1243.61
920.803	1192.78
924.094	1185.86
927.384	1154.78
930.675	1107.12
933.965	1102.65
937.255	1039.38
940.544	995.26
943.834	946.85
947.123	937.73
950.411	883.26
953.7	865.6
956.988	819.13
960.276	782.74
963.563	768.91
966.851	741.2
970.138	735.17
973.424	711.11
976.711	715.41
979.997	680.67
983.283	676.26
986.568	662.01
989.853	641.87
993.138	629.5
996.423	608.89
999.708	591.83
1002.992	584.53
1006.275	557.74
1009.559	552.96
1012.842	531.37
1016.125	516.2
1019.408	505.99
1022.69	500.84
1025.972	489.84
1029.254	478.66
1032.536	469.13
1035.817	460.62
1039.098	454.79
1042.379	443.01
1045.659	438.09
1048.939	428.86
1052.219	419.15
1055.498	413.59
1058.778	403.13
1062.057	393.06
1065.335	387.83
1068.614	383.65
1071.892	378.55
1075.17	367.11
1078.447	361.28
1081.724	358.22
1085.001	354
1088.278	348.71
1091.554	341.07
1094.83	340.48
1098.106	339.16
1101.382	335.8
1104.657	332.76
1107.932	328.23
1111.206	328.61
1114.481	321.06
1117.755	317.68
1121.029	315.42
1124.302	313.36
1127.575	308.12
1130.848	304.96
1134.121	301.34
1137.393	300.04
1140.665	294.18
1143.937	291.45
1147.208	289.46
1150.48	288.8
1153.75	285.24
1157.021	281.55
1160.291	281.68
1163.561	277.59
1166.831	277.72
1170.101	275.63
1173.37	274.69
1176.639	274.92
1179.907	272.47
1183.176	269.5
1186.444	269.16
1189.711	268.82
1192.979	267.24
1196.246	265.79
1199.513	267.14
1202.78	265.47
1206.046	265.31
1209.312	262.56
1212.578	263.1
1215.843	264.94
1219.108	263.91
1222.373	269.39
1225.638	270.91
1228.902	275.66
1232.166	275.26
1235.43	277.56
1238.693	280.72
1241.956	282.9
1245.219	287.8
1248.482	287.31
1251.744	287.8
1255.006	288.99
1258.268	281.34
1261.529	278.9
1264.79	276.48
1268.051	275.55
1271.312	271.71
1274.572	268.47
1277.832	264.91
1281.092	261.26
1284.351	259.52
1287.61	259.18
1290.869	254.51
1294.128	253.44
1297.386	253.55
1300.644	250.6
1303.902	251.35
1307.159	250.55
1310.416	250.46
1313.673	250.05
1316.93	252.73
1320.186	251.89
1323.442	252.91
1326.697	258.03
1329.953	258.4
1333.208	259.55
1336.463	263.49
1339.717	263.88
1342.972	267.21
1346.226	269.79
1349.479	271.17
1352.733	272
1355.986	273.88
1359.238	273.37
1362.491	274.52
1365.743	277.15
1368.995	277.45
1372.247	276.5
1375.498	276.5
1378.749	278.92
1382	276.06
1385.251	276.93
1388.501	275.18
1391.751	277.77
1395	276.58
1398.25	274.42
1401.499	273.67
1404.748	273.26
1407.996	270.98
1411.244	269.96
1414.492	268.41
1417.74	265.18
1420.987	261.74
1424.234	262.31
1427.481	257.47
1430.728	257.52
1433.974	255.31
1437.22	253.16
1440.465	252.15
1443.711	250.09
1446.956	248.58
1450.201	245.01
1453.445	243.87
1456.689	242.42
1459.933	237.8
1463.177	236.18
1466.42	232.99
1469.663	230.23
1472.906	228.7
1476.148	223
1479.391	219.73
1482.633	217.62
1485.874	214.79
1489.115	213.06
1492.356	210.65
1495.597	210.18
1498.838	206.61
1502.078	204.94
1505.318	203.59
1508.557	203.34
1511.797	203.28
1515.036	201.88
1518.274	201.57
1521.513	199.38
1524.751	199
1527.989	198.28
1531.227	197
1534.464	197.9
1537.701	196.42
1540.938	195.95
1544.174	193.08
1547.41	192.98
1550.646	192.34
1553.882	191.6
1557.117	189.64
1560.352	188.49
1563.587	187.89
1566.821	186.76
1570.055	184.97
1573.289	183.49
1576.523	183.05
1579.756	181.75
1582.989	180.11
1586.222	179.85
1589.454	178.76
1592.686	179.61
1595.918	178.54
1599.15	177.68
1602.381	177.94
1605.612	177.63
1608.843	178.25
1612.073	177.76
1615.303	179.28
1618.533	179.69
1621.762	178.92
1624.992	179.45
1628.221	179.19
1631.449	179.11
1634.678	178.73
1637.906	179.93
1641.134	179.51
1644.361	179.11
1647.588	180.07
1650.815	179.04
1654.042	178.3
1657.269	179.58
1660.495	179.31
1663.72	178.83
1666.946	179.5
1670.171	180.29
1673.396	179.22
1676.621	180
1679.845	180.37
1683.069	180.16
1686.293	181.11
1689.517	182.09
1692.74	182.13
1695.963	183.52
1699.185	185.56
1702.408	185.27
1705.63	186.11
1708.852	186.7
1712.073	187.1
1715.294	187.49
1718.515	188.71
1721.736	188.44
1724.956	189.38
1728.176	189.43
1731.396	190.24
1734.616	189.14
1737.835	190.5
1741.054	189.28
1744.272	189.78
1747.491	191.27
1750.709	191.55
1753.927	191.5
1757.144	190.99
1760.361	191.46
1763.578	191.77
1766.795	191.16
1770.011	192.98
1773.227	193.15
1776.443	194.99
1779.658	196.46
1782.874	195.44
1786.089	196.4
1789.303	196.95
1792.518	199.71
1795.732	198.93
1798.945	201.4
1802.159	201.91
1805.372	202.2
1808.585	205.4
1811.797	205.77
1815.01	206.05
1818.222	208.36
1821.434	210.22
1824.645	210.77
1827.856	214.08
1831.067	216.86
1834.278	215.74
1837.488	216.93
1840.698	218.8
1843.908	216.98
1847.117	218.36
1850.326	220.23
1853.535	219.41
1856.744	222.19
1859.952	222.57
1863.16	221.2
1866.368	219.19
1869.575	222.22
1872.782	219.44
1875.989	219.47
1879.196	218.64
1882.402	218.22
1885.608	218.54
1888.814	219.38
1892.019	218.96
1895.224	218.44
1898.429	218.53
1901.634	220.38
1904.838	220.6
1908.042	223.27
1911.246	224.21
1914.449	226.12
1917.652	226.23
1920.855	225.74
1924.058	225.53
1927.26	224.46
1930.462	225.89
1933.664	227.98
1936.865	225.39
1940.066	224.91
1943.267	224.09
1946.467	223.66
1949.668	224.6
1952.868	227.25
1956.067	227.79
1959.267	227.62
1962.466	228.86
1965.665	226.72
1968.863	227.27
1972.061	231.46
1975.259	232.89
1978.457	234.47
1981.654	236.15
1984.852	236.81
1988.048	235.64
1991.245	238.41
1994.441	241.63
1997.637	242.71
2000.833	248.05
2004.028	251.24
2007.223	252.47
2010.418	255.75
2013.613	260.08
2016.807	262.85
2020.001	265.43
2023.194	269.67
2026.388	274.27
2029.581	279.59
2032.774	282.26
2035.966	287.98
2039.158	288.05
2042.35	293.01
2045.542	294.81
2048.733	298.53
2051.924	302.05
2055.115	306.58
2058.306	307.19
2061.496	310.09
2064.686	310.78
2067.875	317.21
2071.065	318
2074.254	315.43
2077.442	320.64
2080.631	321.97
2083.819	325.7
2087.007	326.29
2090.195	330.21
2093.382	332.66
2096.569	331.28
2099.756	335.75
2102.942	336.02
2106.128	338.15
2109.314	348.72
2112.5	346.01
2115.685	353.12
2118.87	353.41
2122.055	361.93
2125.239	363.13
2128.424	367.86
2131.608	371.08
2134.791	376.21
2137.974	377.74
2141.157	379.86
2144.34	378.72
2147.523	384.4
2150.705	381.91
2153.887	385.87
2157.068	385.37
2160.25	382.54
2163.431	384.22
2166.611	388.68
2169.792	396.17
2172.972	400.95
2176.152	403.19
2179.331	409.26
2182.511	416.88
2185.69	421.56
2188.868	429.56
2192.047	430.27
2195.225	444.35
2198.403	454.3
2201.58	461.45
2204.758	471.66
2207.935	480.15
2211.111	490.14
2214.288	494.34
2217.464	495.23
2220.64	502.53
2223.815	509.45
2226.991	530.61
2230.166	530.98
2233.34	541.61
2236.515	551.23
2239.689	550.54
2242.863	553.67
2246.036	569.97
2249.209	564.11
2252.382	575.32
2255.555	593.3
2258.727	595.49
2261.9	599.18
2265.071	604.55
2268.243	614.06
2271.414	621.76
2274.585	635.55
2277.756	642.13
2280.926	644.38
2284.096	663.96
2287.266	676.12
2290.436	680.11
2293.605	695.4
2296.774	717.19
2299.942	739.58
2303.111	744.46
2306.279	759.35
2309.447	770.92
2312.614	790.87
2315.781	812.43
2318.948	851.07
2322.115	838.47
2325.281	887.14
2328.447	868.28
2331.613	900.53
2334.779	890.82
2337.944	927.9
2341.109	938.76
2344.274	961.64
2347.438	997.52
2350.602	1000.12
2353.766	1027.31
2356.929	1043.69
2360.092	1036.05
2363.255	1112.79
2366.418	1111.73
2369.58	1135.78
2372.742	1204.75
2375.904	1234.57
2379.066	1229.21
2382.227	1201.72
2385.388	1301.27
2388.548	1302.75
2391.709	1320.34
2394.869	1471.09
2398.029	1401.54
2401.188	1443.27
2404.347	1429.96
2407.506	1409.01
2410.665	1449.21
2413.823	1538.63
2416.981	1633.29
2420.139	1584.65
2423.296	1560.59
2426.453	1633.67
2429.61	1569.32
2432.767	1648.45
2435.923	1629.61
2439.079	1791
2442.235	1810.42
2445.391	1797.53
2448.546	1780.9
2451.701	1735.77
2454.855	1728.53
2458.009	1840.97
2461.163	1903.91
2464.317	1975.81
2467.471	2029.47
2470.624	2030.41
2473.777	1972.98
2476.929	1923.97
2480.082	1865.35
2483.234	1848.62
2486.385	1933.71
2489.537	1945.63
2492.688	2015.69
2495.839	1968.91
2498.989	1925.08
2502.14	1928.03
2505.29	1948.15
2508.439	1975.52
2511.589	1974.86
2514.738	2152.24
2517.887	2105.57
2521.035	2227.1
2524.183	2238.49
2527.331	2256.13
2530.479	2241.46
2533.627	2254.84
