Data from C_3_DIV_WI_4N_Splice17_13-50-50-345.txt Node
Date: Sat Mar 07 13:50:50 EST 2020
User: sa697716
Spectrometer: NQ5500242
Trigger mode: 0
Integration Time (sec): 1.450000E-1
Scans to average: 20
Nonlinearity correction enabled: false
Boxcar width: 5
Storing dark spectrum: false
XAxis mode: Wavelengths
Number of Pixels in Spectrum: 512
>>>>>Begin Spectral Data<<<<<
187.83	219.63
188.298	246.95
188.766	239.34
189.233	185.22
189.701	189.87
190.169	213.99
190.636	227.76
191.104	323.06
191.571	149.25
192.039	-79.21
192.506	-242.68
192.974	148.85
193.441	355.49
193.908	225.52
194.375	93.39
194.842	44.74
195.31	39.53
195.777	-163.65
196.244	27.68
196.711	38.35
197.177	43.29
197.644	43.02
198.111	42.7
198.578	43.09
199.045	43.75
199.511	43.83
199.978	43.8
200.445	44.38
200.911	44.56
201.378	44.51
201.844	44.55
202.31	43.98
202.777	44.05
203.243	44
203.709	43.66
204.176	43.34
204.642	43.58
205.108	43.28
205.574	42.65
206.04	42.12
206.506	41.92
206.972	41.58
207.438	41.11
207.903	40.52
208.369	39.62
208.835	38.91
209.301	37.99
209.766	36.56
210.232	35.88
210.697	34.84
211.163	34.11
211.628	33.18
212.094	32.44
212.559	32.03
213.024	31.35
213.49	30.9
213.955	30.18
214.42	29.48
214.885	28.87
215.35	27.83
215.815	26.77
216.28	25.01
216.745	23.14
217.21	21.32
217.675	19.54
218.14	18.07
218.604	16.7
219.069	15.63
219.534	14.76
219.998	13.99
220.463	13.37
220.927	12.72
221.392	12.31
221.856	11.94
222.32	11.59
222.785	11.3
223.249	11.05
223.713	10.81
224.177	10.62
224.642	10.41
225.106	10.19
225.57	9.98
226.034	9.84
226.497	9.67
226.961	9.53
227.425	9.39
227.889	9.23
228.353	9.09
228.816	8.96
229.28	8.82
229.744	8.68
230.207	8.56
230.671	8.44
231.134	8.32
231.597	8.23
232.061	8.12
232.524	8.02
232.987	7.93
233.45	7.85
233.914	7.77
234.377	7.67
234.84	7.58
235.303	7.51
235.766	7.45
236.229	7.38
236.691	7.29
237.154	7.23
237.617	7.16
238.08	7.09
238.542	7
239.005	6.93
239.468	6.87
239.93	6.82
240.393	6.76
240.855	6.68
241.317	6.61
241.78	6.55
242.242	6.48
242.704	6.44
243.166	6.37
243.629	6.35
244.091	6.29
244.553	6.23
245.015	6.17
245.477	6.12
245.939	6.06
246.4	6
246.862	5.94
247.324	5.89
247.786	5.84
248.247	5.79
248.709	5.71
249.17	5.64
249.632	5.61
250.093	5.57
250.555	5.52
251.016	5.48
251.477	5.44
251.939	5.4
252.4	5.37
252.861	5.33
253.322	5.28
253.783	5.27
254.244	5.24
254.705	5.2
255.166	5.16
255.627	5.14
256.088	5.11
256.549	5.08
257.009	5.05
257.47	5.02
257.931	4.97
258.391	4.94
258.852	4.89
259.312	4.85
259.773	4.82
260.233	4.79
260.694	4.76
261.154	4.72
261.614	4.7
262.074	4.67
262.534	4.64
262.994	4.62
263.455	4.6
263.915	4.57
264.374	4.55
264.834	4.53
265.294	4.51
265.754	4.49
266.214	4.47
266.673	4.45
267.133	4.44
267.593	4.42
268.052	4.41
268.512	4.4
268.971	4.39
269.431	4.38
269.89	4.37
270.349	4.36
270.809	4.35
271.268	4.34
271.727	4.33
272.186	4.32
272.645	4.31
273.104	4.29
273.563	4.28
274.022	4.27
274.481	4.26
274.94	4.25
275.399	4.23
275.857	4.22
276.316	4.21
276.775	4.2
277.233	4.19
277.692	4.19
278.15	4.18
278.609	4.17
279.067	4.15
279.525	4.15
279.984	4.13
280.442	4.13
280.9	4.12
281.358	4.11
281.816	4.1
282.274	4.09
282.732	4.07
283.19	4.06
283.648	4.04
284.106	4.03
284.564	4.02
285.021	4.02
285.479	4.01
285.937	3.99
286.394	3.98
286.852	3.96
287.309	3.95
287.767	3.94
288.224	3.92
288.682	3.91
289.139	3.89
289.596	3.87
290.053	3.85
290.511	3.83
290.968	3.82
291.425	3.8
291.882	3.79
292.339	3.78
292.796	3.76
293.252	3.75
293.709	3.74
294.166	3.73
294.623	3.72
295.079	3.7
295.536	3.69
295.992	3.68
296.449	3.67
296.905	3.67
297.362	3.66
297.818	3.64
298.274	3.64
298.731	3.64
299.187	3.62
299.643	3.61
300.099	3.61
300.555	3.61
301.011	3.6
301.467	3.59
301.923	3.58
302.379	3.57
302.835	3.57
303.291	3.56
303.746	3.55
304.202	3.55
304.658	3.55
305.113	3.54
305.569	3.54
306.024	3.53
306.479	3.53
306.935	3.53
307.39	3.52
307.845	3.53
308.301	3.53
308.756	3.53
309.211	3.52
309.666	3.52
310.121	3.52
310.576	3.51
311.031	3.51
311.486	3.51
311.94	3.5
312.395	3.5
312.85	3.5
313.305	3.49
313.759	3.49
314.214	3.48
314.668	3.47
315.123	3.46
315.577	3.46
316.032	3.44
316.486	3.44
316.94	3.43
317.394	3.42
317.849	3.41
318.303	3.39
318.757	3.37
319.211	3.36
319.665	3.34
320.119	3.33
320.572	3.32
321.026	3.32
321.48	3.31
321.934	3.29
322.387	3.28
322.841	3.28
323.295	3.29
323.748	3.28
324.202	3.28
324.655	3.28
325.108	3.29
325.562	3.28
326.015	3.28
326.468	3.27
326.921	3.28
327.374	3.27
327.827	3.27
328.28	3.26
328.733	3.26
329.186	3.26
329.639	3.26
330.092	3.25
330.545	3.25
330.997	3.25
331.45	3.25
331.903	3.26
332.355	3.26
332.808	3.25
333.26	3.25
333.713	3.24
334.165	3.24
334.617	3.24
335.069	3.22
335.522	3.23
335.974	3.23
336.426	3.22
336.878	3.21
337.33	3.22
337.782	3.21
338.234	3.21
338.686	3.21
339.137	3.21
339.589	3.2
340.041	3.21
340.493	3.19
340.944	3.17
341.396	3.17
341.847	3.16
342.299	3.15
342.75	3.15
343.201	3.13
343.653	3.12
344.104	3.1
344.555	3.09
345.006	3.07
345.457	3.07
345.908	3.07
346.359	3.07
346.81	3.06
347.261	3.05
347.712	3.04
348.163	3.04
348.613	3.03
349.064	3.04
349.515	3.04
349.965	3.03
350.416	3.03
350.866	3.01
351.317	3
351.767	3
352.217	3
352.668	3
353.118	3.01
353.568	3.01
354.018	3.02
354.468	3.01
354.918	3.02
355.368	3.02
355.818	3.03
356.268	3.03
356.718	3.03
357.168	3.02
357.617	3.02
358.067	3.01
358.517	3.02
358.966	3.02
359.416	3.02
359.865	3.02
360.315	3.02
360.764	3.02
361.213	3.02
361.663	3.02
362.112	3.03
362.561	3.03
363.01	3.03
363.459	3.02
363.908	3.01
364.357	3.02
364.806	3.02
365.255	3.02
365.703	3.03
366.152	3.04
366.601	3.05
367.05	3.05
367.498	3.06
367.947	3.08
368.395	3.09
368.844	3.1
369.292	3.1
369.74	3.11
370.189	3.12
370.637	3.12
371.085	3.12
371.533	3.13
371.981	3.13
372.429	3.14
372.877	3.15
373.325	3.16
373.773	3.16
374.221	3.17
374.669	3.18
375.116	3.18
375.564	3.19
376.012	3.21
376.459	3.21
376.907	3.24
377.354	3.24
377.801	3.27
378.249	3.29
378.696	3.3
379.143	3.33
379.591	3.34
380.038	3.37
380.485	3.39
380.932	3.4
381.379	3.42
381.826	3.44
382.273	3.46
382.72	3.46
383.166	3.49
383.613	3.51
384.06	3.52
384.506	3.55
384.953	3.57
385.4	3.59
385.846	3.61
386.292	3.64
386.739	3.66
387.185	3.68
387.631	3.71
388.078	3.72
388.524	3.74
388.97	3.77
389.416	3.79
389.862	3.82
390.308	3.86
390.754	3.89
391.2	3.91
391.645	3.94
392.091	3.97
392.537	4
392.983	4.03
393.428	4.06
393.874	4.08
394.319	4.11
394.765	4.12
395.21	4.13
395.655	4.15
396.101	4.17
396.546	4.19
396.991	4.21
397.436	4.22
397.881	4.25
398.326	4.26
398.771	4.28
399.216	4.29
399.661	4.32
400.106	4.34
400.551	4.35
400.995	4.34
401.44	4.35
401.885	4.36
402.329	4.38
402.774	4.37
403.218	4.41
403.663	4.42
404.107	4.43
404.551	4.45
404.995	4.45
405.44	4.46
405.884	4.47
406.328	4.49
406.772	4.5
407.216	4.49
407.66	4.52
408.104	4.49
408.547	4.49
408.991	4.5
409.435	4.49
409.879	4.5
410.322	4.51
410.766	4.54
411.209	4.54
411.653	4.56
412.096	4.59
412.54	4.59
412.983	4.6
413.426	4.63
413.869	4.64
414.312	4.67
414.756	4.68
415.199	4.67
415.642	4.66
416.085	4.66
416.527	4.64
416.97	4.62
417.413	4.62
417.856	4.61
418.298	4.6
418.741	4.58
419.184	4.57
419.626	4.56
420.069	4.59
420.511	4.58
420.953	4.6
421.396	4.62
421.838	4.63
422.28	4.63
422.722	4.65
423.164	4.65
423.606	4.66
424.048	4.66
424.49	4.66
424.932	4.65
425.374	4.63
425.816	4.59
426.258	4.57
426.699	4.57
427.141	4.57
427.582	4.57
428.024	4.58
428.465	4.57
428.907	4.55
429.348	4.54
429.789	4.54
430.231	4.58
430.672	4.62
431.113	4.64
431.554	4.65
431.995	4.66
432.436	4.66
432.877	4.67
433.318	4.7
433.759	4.73
434.2	4.75
434.64	4.76
435.081	4.76
435.522	4.77
435.962	4.77
436.403	4.79
436.843	4.81
437.284	4.81
437.724	4.81
438.164	4.81
438.604	4.82
439.045	4.82
439.485	4.84
439.925	4.85
440.365	4.85
440.805	4.85
441.245	4.86
441.685	4.87
442.125	4.89
442.564	4.9
443.004	4.89
443.444	4.9
443.883	4.93
444.323	4.92
444.762	4.92
445.202	4.92
445.641	4.94
446.081	4.94
446.52	4.94
446.959	4.97
447.398	5
447.837	5.02
448.276	5.02
448.716	5.04
449.154	5.06
449.593	5.09
450.032	5.1
450.471	5.09
450.91	5.09
451.349	5.11
451.787	5.1
452.226	5.07
452.664	5.07
453.103	5.07
453.541	5.06
453.98	5.06
454.418	5.04
454.856	5.05
455.295	5.05
455.733	5.03
456.171	5.02
456.609	5.02
457.047	5.01
457.485	5.01
457.923	5.01
458.361	4.99
458.798	4.98
459.236	4.97
459.674	4.96
460.111	4.96
460.549	4.97
460.987	4.97
461.424	4.96
461.862	4.97
462.299	4.97
462.736	4.97
463.173	4.98
463.611	4.98
464.048	5.01
464.485	5.01
464.922	5
465.359	5.01
465.796	5.04
466.233	5.04
466.67	5.05
467.106	5.05
467.543	5.05
467.98	5.04
468.416	5.02
468.853	5.01
469.29	5
469.726	5
470.162	4.99
470.599	4.96
471.035	4.95
471.471	4.94
471.907	4.93
472.344	4.93
472.78	4.95
473.216	4.95
473.652	4.95
474.088	4.93
474.523	4.93
474.959	4.93
475.395	4.92
475.831	4.92
476.266	4.91
476.702	4.91
477.138	4.91
477.573	4.9
478.008	4.9
478.444	4.9
478.879	4.91
479.314	4.91
479.75	4.91
480.185	4.91
480.62	4.9
481.055	4.89
481.49	4.88
481.925	4.88
482.36	4.88
482.795	4.88
483.229	4.86
483.664	4.87
484.099	4.86
484.534	4.85
484.968	4.86
485.403	4.85
485.837	4.87
486.271	4.88
486.706	4.88
487.14	4.88
487.574	4.89
488.009	4.9
488.443	4.91
488.877	4.93
489.311	4.95
489.745	4.98
490.179	5.01
490.613	5.03
491.046	5.06
491.48	5.09
491.914	5.12
492.348	5.16
492.781	5.21
493.215	5.25
493.648	5.29
494.082	5.33
494.515	5.37
494.948	5.42
495.382	5.46
495.815	5.51
496.248	5.56
496.681	5.61
497.114	5.68
497.547	5.74
497.98	5.81
498.413	5.88
498.846	5.95
499.279	6.02
499.711	6.09
500.144	6.19
500.577	6.28
501.009	6.37
501.442	6.47
501.874	6.58
502.306	6.69
502.739	6.81
503.171	6.93
503.603	7.05
504.036	7.18
504.468	7.31
504.9	7.43
505.332	7.56
505.764	7.72
506.196	7.87
506.627	8.02
507.059	8.18
507.491	8.33
507.923	8.5
508.354	8.69
508.786	8.88
509.217	9.08
509.649	9.29
510.08	9.5
510.512	9.71
510.943	9.91
511.374	10.14
511.805	10.37
512.237	10.6
512.668	10.82
513.099	11.05
513.53	11.28
513.961	11.53
514.391	11.77
514.822	12.04
515.253	12.29
515.684	12.55
516.114	12.81
516.545	13.08
516.975	13.34
517.406	13.62
517.836	13.88
518.267	14.16
518.697	14.42
519.127	14.68
519.558	14.93
519.988	15.19
520.418	15.44
520.848	15.69
521.278	15.94
521.708	16.42
522.138	16.66
522.567	16.91
522.997	17.15
523.427	17.38
523.857	17.61
524.286	17.82
524.716	18.03
525.145	18.25
525.575	18.46
526.004	18.65
526.433	18.6
526.863	18.78
527.292	18.96
527.721	19.12
528.15	19.27
528.579	19.43
529.008	19.59
529.437	19.73
529.866	19.86
530.295	20
530.724	20.14
531.152	20.26
531.581	20.38
532.01	20.51
532.438	20.62
532.867	20.73
533.295	20.82
533.723	20.9
534.152	20.99
534.58	21.07
535.008	21.13
535.436	21.2
535.865	21.25
536.293	21.3
536.721	21.33
537.149	21.39
537.576	21.43
538.004	21.49
538.432	21.53
538.86	21.57
539.287	21.59
539.715	21.64
540.143	21.66
540.57	21.7
540.998	21.74
541.425	21.78
541.852	21.8
542.28	21.83
542.707	21.86
543.134	21.87
543.561	21.9
543.988	21.94
544.415	21.95
544.842	21.97
545.269	22
545.696	22.03
546.123	22.05
546.549	22.09
546.976	22.12
547.403	22.14
547.829	22.16
548.256	22.17
548.682	22.18
549.108	22.2
549.535	22.22
549.961	22.23
550.387	22.22
550.813	22.23
551.24	22.22
551.666	22.2
552.092	22.2
552.518	22.2
552.943	22.18
553.369	22.17
553.795	22.15
554.221	22.14
554.646	22.1
555.072	22.06
555.498	22.01
555.923	21.96
556.349	21.9
556.774	21.84
557.199	21.78
557.625	21.72
558.05	21.66
558.475	21.59
558.9	21.52
559.325	21.46
559.75	21.4
560.175	21.31
560.6	21.24
561.025	21.15
561.449	21.04
561.874	20.93
562.299	20.83
562.723	20.71
563.148	20.58
563.572	20.45
563.997	20.3
564.421	20.15
564.846	20.01
565.27	19.87
565.694	19.74
566.118	19.6
566.542	19.46
566.966	19.3
567.39	19.15
567.814	19.01
568.238	18.87
568.662	18.73
569.086	18.6
569.509	18.48
569.933	18.34
570.357	18.2
570.78	18.07
571.204	17.93
571.627	17.81
572.05	17.68
572.474	17.57
572.897	17.44
573.32	17.33
573.743	17.21
574.166	17.07
574.589	16.96
575.012	16.85
575.435	16.74
575.858	16.64
576.281	16.53
576.704	16.42
577.126	16.32
577.549	16.22
577.972	16.12
578.394	16.03
578.817	15.96
579.239	15.87
579.661	15.8
580.084	15.73
580.506	15.66
580.928	15.59
581.35	15.53
581.772	15.44
582.194	15.37
582.616	15.3
583.038	15.23
583.46	15.14
583.882	15.08
584.303	15
584.725	14.92
585.147	14.87
585.568	14.82
585.99	14.76
586.411	14.71
586.833	14.65
587.254	14.6
587.675	14.55
588.096	14.49
588.518	14.44
588.939	14.41
589.36	14.37
589.781	14.31
590.202	14.28
590.623	14.24
591.043	14.19
591.464	14.16
591.885	14.11
592.305	14.08
592.726	14.06
593.147	14.02
593.567	13.99
593.987	13.95
594.408	13.91
594.828	13.86
595.248	13.84
595.669	13.81
596.089	13.79
596.509	13.76
596.929	13.73
597.349	13.68
597.769	13.65
598.189	13.62
598.608	13.6
599.028	13.56
599.448	13.52
599.867	13.47
600.287	13.42
600.706	13.38
601.126	13.34
601.545	13.3
601.965	13.27
602.384	13.22
602.803	13.17
603.222	13.12
603.641	13.07
604.061	13.03
604.48	12.98
604.898	12.92
605.317	12.87
605.736	12.8
606.155	12.74
606.574	12.67
606.992	12.6
607.411	12.53
607.829	12.43
608.248	12.36
608.666	12.27
609.085	12.21
609.503	12.15
609.921	12.07
610.339	12
610.758	11.93
611.176	11.84
611.594	11.79
612.012	11.71
612.43	11.66
612.847	11.59
613.265	11.53
613.683	11.46
614.101	11.4
614.518	11.33
614.936	11.27
615.353	11.2
615.771	11.16
616.188	11.1
616.606	11.05
617.023	10.99
617.44	10.96
617.857	10.9
618.274	10.85
618.691	10.8
619.108	10.74
619.525	10.7
619.942	10.67
620.359	10.64
620.776	10.61
621.192	10.57
621.609	10.55
622.026	10.51
622.442	10.49
622.859	10.46
623.275	10.44
623.691	10.44
624.108	10.42
624.524	10.41
624.94	10.38
625.356	10.37
625.772	10.36
626.188	10.34
626.604	10.34
627.02	10.31
627.436	10.31
627.852	10.31
628.268	10.29
628.683	10.28
629.099	10.27
629.514	10.26
629.93	10.24
630.345	10.23
630.761	10.2
631.176	10.16
631.591	10.14
632.007	10.11
632.422	10.08
632.837	10.04
633.252	9.99
633.667	9.92
634.082	9.86
634.497	9.8
634.911	9.74
635.326	9.67
635.741	9.62
636.155	9.53
636.57	9.45
636.984	9.37
637.399	9.29
637.813	9.2
638.228	9.11
638.642	9.02
639.056	8.92
639.47	8.83
639.884	8.74
640.298	8.63
640.712	8.52
641.126	8.42
641.54	8.32
641.954	8.2
642.368	8.11
642.781	8.02
643.195	7.92
643.609	7.83
644.022	7.74
644.436	7.65
644.849	7.56
645.262	7.49
645.676	7.41
646.089	7.36
646.502	7.29
646.915	7.24
647.328	7.16
647.741	7.11
648.154	7.06
648.567	7.02
648.98	6.97
649.393	6.94
649.805	6.9
650.218	6.86
650.631	6.82
651.043	6.79
651.456	6.75
651.868	6.73
652.28	6.69
652.693	6.66
653.105	6.62
653.517	6.58
653.929	6.54
654.341	6.49
654.753	6.44
655.165	6.39
655.577	6.35
655.989	6.29
656.401	6.23
656.813	6.17
657.224	6.1
657.636	6.03
658.047	5.96
658.459	5.89
658.87	5.83
659.282	5.74
659.693	5.68
660.104	5.58
660.515	5.52
660.926	5.46
661.338	5.39
661.749	5.33
662.159	5.27
662.57	5.22
662.981	5.17
663.392	5.12
663.803	5.07
664.213	5.02
664.624	4.97
665.035	4.92
665.445	4.88
665.855	4.85
666.266	4.82
666.676	4.8
667.086	4.76
667.497	4.75
667.907	4.72
668.317	4.7
668.727	4.69
669.137	4.69
669.547	4.69
669.956	4.69
670.366	4.68
670.776	4.67
671.186	4.65
671.595	4.66
672.005	4.65
672.414	4.66
672.824	4.67
673.233	4.68
673.642	4.68
674.052	4.69
674.461	4.7
674.87	4.72
675.279	4.74
675.688	4.76
676.097	4.79
676.506	4.81
676.915	4.84
677.323	4.87
677.732	4.89
678.141	4.92
678.549	4.94
678.958	4.98
679.366	5.02
679.775	5.06
680.183	5.11
680.592	5.17
681	5.24
681.408	5.3
681.816	5.37
682.224	5.46
682.632	5.56
683.04	5.68
683.448	5.79
683.856	5.91
684.264	6.05
684.671	6.21
685.079	6.37
685.487	6.56
685.894	6.78
686.302	7.01
686.709	7.26
687.116	7.52
687.524	7.81
687.931	8.13
688.338	8.46
688.745	8.81
689.152	9.18
689.559	9.6
689.966	10.02
690.373	10.45
690.78	10.91
691.187	11.38
691.593	11.86
692	12.36
692.407	12.85
692.813	13.39
693.22	13.91
693.626	14.43
694.032	14.96
694.439	15.5
694.845	16.04
695.251	16.58
695.657	17.12
696.063	17.66
696.469	18.2
696.875	18.76
697.281	19.3
697.687	19.84
698.093	20.39
698.498	20.93
698.904	21.45
699.31	21.96
699.715	22.5
700.12	23.02
700.526	23.53
700.931	24.04
701.337	24.56
701.742	25.02
702.147	25.5
702.552	25.96
702.957	26.4
703.362	26.88
703.767	27.32
704.172	27.73
704.577	28.16
704.981	28.57
705.386	28.98
705.791	29.35
706.195	29.77
706.6	30.17
707.004	30.56
707.408	30.95
707.813	31.32
708.217	31.69
708.621	32.08
709.025	32.46
709.43	32.82
709.834	33.17
710.237	33.53
710.641	33.86
711.045	34.19
711.449	34.54
711.853	34.88
712.256	35.2
712.66	35.52
713.064	35.8
713.467	36.08
713.87	36.37
714.274	36.67
714.677	36.96
715.08	37.23
715.484	37.54
715.887	37.81
716.29	38.05
716.693	38.33
717.096	38.59
717.499	38.84
717.901	39.09
718.304	39.35
718.707	39.57
719.109	39.8
719.512	40.05
719.915	40.26
720.317	40.44
720.719	40.63
721.122	40.8
721.524	41
721.926	41.21
722.328	41.42
722.731	41.6
723.133	41.81
723.535	41.98
723.937	42.14
724.338	42.31
724.74	42.5
725.142	42.84
725.544	43.01
725.945	43.19
726.347	43.32
726.748	43.45
727.15	43.57
727.551	43.71
727.952	43.84
728.354	43.96
728.755	44.05
729.156	44.15
729.557	44.07
729.958	44.18
730.359	44.25
730.76	44.35
731.161	44.44
731.562	44.56
731.962	44.62
732.363	44.71
732.763	44.79
733.164	44.88
733.564	44.97
733.965	45.05
734.365	45.12
734.766	45.18
735.166	45.25
735.566	45.33
735.966	45.36
736.366	45.43
736.766	45.49
737.166	45.57
737.566	45.63
737.966	45.67
738.365	45.73
738.765	45.79
739.165	45.83
739.564	45.89
739.964	45.92
740.363	45.98
740.763	46.05
741.162	46.08
741.561	46.09
741.96	46.1
742.36	46.16
742.759	46.18
743.158	46.17
743.557	46.19
743.955	46.21
744.354	46.25
744.753	46.28
745.152	46.3
745.55	46.33
745.949	46.36
746.348	46.41
746.746	46.4
747.144	46.44
747.543	46.5
747.941	46.52
748.339	46.51
748.737	46.48
749.136	46.47
749.534	46.46
749.932	46.45
750.33	46.48
750.727	46.49
751.125	46.5
751.523	46.49
751.921	46.52
752.318	46.54
752.716	46.58
753.113	46.62
753.511	46.66
753.908	46.7
754.305	46.74
754.703	46.72
755.1	46.72
755.497	46.75
755.894	46.74
756.291	46.74
756.688	46.74
757.085	46.74
757.482	46.75
757.878	46.73
758.275	46.7
758.672	46.67
759.068	46.71
759.465	46.71
759.861	46.74
760.258	46.76
760.654	46.74
761.05	46.74
761.447	46.76
761.843	46.76
762.239	46.78
762.635	46.79
763.031	46.81
763.427	46.76
763.822	46.78
764.218	46.76
764.614	46.76
765.01	46.75
765.405	46.74
765.801	46.71
766.196	46.72
766.592	46.73
766.987	46.75
767.382	46.74
767.778	46.78
768.173	46.77
768.568	46.77
768.963	46.78
769.358	46.79
769.753	46.82
770.148	46.82
770.542	46.8
770.937	46.78
771.332	46.76
771.726	46.76
772.121	46.73
772.515	46.73
772.91	46.71
773.304	46.71
773.699	46.71
774.093	46.69
774.487	46.69
774.881	46.71
775.275	46.7
775.669	46.71
776.063	46.71
776.457	46.72
776.851	46.73
777.245	46.71
777.638	46.68
778.032	46.69
778.425	46.71
778.819	46.73
779.212	46.75
779.606	46.77
779.999	46.77
780.392	46.8
780.786	46.8
781.179	46.79
781.572	46.82
781.965	46.87
782.358	46.88
782.751	46.88
783.143	46.86
783.536	46.85
783.929	46.82
784.322	46.85
784.714	46.84
785.107	46.85
785.499	46.86
785.891	46.85
786.284	46.86
786.676	46.85
787.068	46.85
787.46	46.88
787.852	46.88
788.245	46.89
788.636	46.85
789.028	46.85
789.42	46.87
789.812	46.87
790.204	46.87
790.595	46.87
790.987	46.86
791.378	46.86
791.77	46.86
792.161	46.87
792.553	46.9
792.944	46.91
793.335	46.93
793.726	46.92
794.117	46.94
794.508	46.95
794.899	46.94
795.29	46.95
795.681	46.93
796.072	46.92
796.463	46.97
796.853	46.97
797.244	46.98
797.634	46.97
798.025	46.98
798.415	46.99
798.806	46.99
799.196	47.03
799.586	47.06
799.976	47.09
800.366	47.07
800.756	47.02
801.146	47.01
801.536	47.02
801.926	47.03
802.316	47.03
802.706	47.02
803.095	47.08
803.485	47.05
803.874	47.02
804.264	47.03
804.653	47.06
805.043	47.1
805.432	47.11
805.821	47.15
806.21	47.16
806.599	47.16
806.988	47.16
807.377	47.14
807.766	47.17
808.155	47.17
808.544	47.18
808.933	47.17
809.321	47.17
809.71	47.17
810.098	47.14
810.487	47.12
810.875	47.11
811.264	47.1
811.652	47.14
812.04	47.14
812.428	47.17
812.816	47.18
813.204	47.18
813.592	47.14
813.98	47.15
814.368	47.18
814.756	47.2
815.144	47.23
815.531	47.25
815.919	47.23
816.306	47.2
816.694	47.2
817.081	47.2
817.469	47.21
817.856	47.24
818.243	47.22
818.63	47.19
819.017	47.18
819.404	47.17
819.791	47.15
820.178	47.14
820.565	47.16
820.952	47.16
821.339	47.15
821.725	47.17
822.112	47.19
822.498	47.22
822.885	47.25
823.271	47.28
823.657	47.24
824.044	47.26
824.43	47.28
824.816	47.29
825.202	47.3
825.588	47.29
825.974	47.26
826.36	47.25
826.746	47.23
827.132	47.21
827.517	47.2
827.903	47.24
828.289	47.26
828.674	47.26
829.06	47.22
829.445	47.22
829.83	47.21
830.216	47.21
830.601	47.2
830.986	47.19
831.371	47.18
831.756	47.18
832.141	47.19
832.526	47.17
832.911	47.16
833.295	47.19
833.68	47.19
834.065	47.18
834.449	47.18
834.834	47.18
835.218	47.17
835.603	47.19
835.987	47.16
836.371	47.14
836.755	47.12
837.139	47.09
837.524	47.08
837.908	47.09
838.291	47.12
838.675	47.12
839.059	47.13
839.443	47.13
839.827	47.11
840.21	47.11
840.594	47.12
840.977	47.12
841.361	47.16
841.744	47.13
842.127	47.11
842.511	47.08
842.894	47.06
843.277	47.06
843.66	47.04
844.043	47.06
844.426	47.07
844.809	47.07
845.191	47.1
845.574	47.09
845.957	47.11
846.339	47.1
846.722	47.11
847.104	47.13
847.487	47.1
847.869	47.12
848.252	47.11
848.634	47.1
849.016	47.08
849.398	47.07
849.78	47.06
850.162	47.01
850.544	47.01
850.926	47.01
851.307	46.99
851.689	47
852.071	47.01
852.452	47.01
852.834	47.03
853.215	47.03
853.597	47.02
853.978	47.02
854.359	47.06
854.741	47.06
855.122	47.07
855.503	47.09
855.884	47.09
856.265	47.09
856.646	47.07
857.026	47.07
857.407	47.09
857.788	47.08
858.169	47.1
858.549	47.1
858.93	47.11
859.31	47.11
859.69	47.12
860.071	47.14
860.451	47.12
860.831	47.16
861.211	47.13
861.591	47.15
861.971	47.16
862.351	47.16
862.731	47.15
863.111	47.13
863.491	47.14
863.87	47.12
864.25	47.1
864.629	47.11
865.009	47.1
865.388	47.13
865.768	47.1
866.147	47.1
866.526	47.09
866.905	47.09
867.284	47.11
867.663	47.1
868.042	47.14
868.421	47.16
868.8	47.17
869.179	47.15
869.558	47.14
869.936	47.16
870.315	47.15
870.693	47.16
871.072	47.19
871.45	47.2
871.828	47.22
872.207	47.19
872.585	47.17
872.963	47.17
873.341	47.16
873.719	47.17
874.097	47.18
874.475	47.18
874.853	47.16
875.23	47.14
875.608	47.13
875.986	47.13
876.363	47.13
876.741	47.14
877.118	47.15
877.495	47.17
877.873	47.18
878.25	47.18
878.627	47.21
879.004	47.22
879.381	47.21
879.758	47.19
880.135	47.18
880.512	47.18
880.889	47.17
881.265	47.15
881.642	47.14
882.019	47.12
882.395	47.1
882.772	47.09
883.148	47.06
883.524	47.06
883.901	47.06
884.277	47.04
884.653	47.01
885.029	47
885.405	47
885.781	47
886.157	46.99
886.532	47
886.908	46.98
887.284	47
887.659	46.99
888.035	46.97
888.411	46.98
888.786	46.99
889.161	47
889.537	46.98
889.912	46.97
890.287	47
890.662	46.97
891.037	46.98
891.412	46.95
891.787	46.94
892.162	46.95
892.536	46.94
892.911	46.94
893.286	46.93
893.66	46.94
894.035	46.95
894.409	46.92
894.784	46.92
895.158	46.92
895.532	46.94
895.906	46.94
896.281	46.94
896.655	46.93
897.029	46.96
897.402	46.96
897.776	46.97
898.15	46.96
898.524	46.99
898.898	47.01
899.271	47.02
899.645	47.02
900.018	47.03
900.392	47.01
900.765	47.04
901.138	47.01
901.511	47.01
901.884	47.03
902.258	47.04
902.631	47.01
903.003	47.02
903.376	47.01
903.749	47
904.122	47.02
904.495	47.03
904.867	47.04
905.24	47.06
905.612	47.09
905.985	47.06
906.357	47.05
906.729	47.08
907.102	47.08
907.474	47.13
907.846	47.11
908.218	47.09
908.59	47.12
908.962	47.11
909.334	47.1
909.705	47.08
910.077	47.11
910.449	47.12
910.82	47.09
911.192	47.07
911.563	47.04
911.935	47.06
912.306	47.07
912.677	47.05
913.048	47.06
913.419	47.06
913.79	47.08
914.161	47.06
914.532	47.05
914.903	47.08
915.274	47.09
915.645	47.08
916.015	47.08
916.386	47.08
916.756	47.07
917.127	47.08
917.497	47.11
917.868	47.13
918.238	47.12
918.608	47.14
918.978	47.13
919.348	47.14
919.718	47.18
920.088	47.2
920.458	47.21
920.828	47.19
921.198	47.16
921.567	47.17
921.937	47.15
922.306	47.13
922.676	47.13
923.045	47.14
923.415	47.13
923.784	47.12
924.153	47.12
924.522	47.13
924.891	47.14
925.26	47.15
925.629	47.12
925.998	47.09
926.367	47.1
926.736	47.11
927.104	47.13
927.473	47.1
927.842	47.03
928.21	47.05
928.578	47.01
928.947	47.04
929.315	47.02
929.683	47.04
930.051	47.03
930.42	47.05
930.788	47.01
931.156	46.97
931.523	46.98
931.891	47.06
932.259	47.05
932.627	47.07
932.994	47.06
933.362	47.03
933.729	47.01
934.097	47.05
934.464	47.06
934.831	47.07
935.199	47.1
935.566	47.13
935.933	47.05
936.3	47.03
936.667	47.02
937.034	47.06
937.401	47.11
937.767	47.13
938.134	47.14
938.501	47.15
938.867	47.18
939.234	47.17
939.6	47.14
939.967	47.21
940.333	47.2
940.699	47.2
941.065	47.1
941.431	47.13
941.798	47.08
942.163	47.03
942.529	46.98
942.895	46.94
943.261	46.84
943.627	46.8
943.992	46.77
944.358	46.75
944.723	46.76
945.089	46.73
945.454	46.71
945.82	46.72
946.185	46.71
946.55	46.63
946.915	46.62
947.28	46.62
947.645	46.62
948.01	46.64
948.375	46.63
948.74	46.56
949.104	46.6
949.469	46.6
949.834	46.57
950.198	46.58
950.562	46.57
950.927	46.54
951.291	46.5
951.655	46.44
952.02	46.4
952.384	46.34
952.748	46.35
953.112	46.31
953.476	46.23
953.839	46.15
954.203	46.14
954.567	46.11
954.931	46.06
955.294	46.08
955.658	46.19
956.021	46.15
956.385	46.17
956.748	46.13
957.111	46.1
957.474	46.08
957.837	46.11
958.2	46.08
958.563	46.1
958.926	46.15
959.289	46.19
959.652	46.08
960.015	46.1
960.377	46.12
960.74	46.14
961.102	46.14
961.465	46.24
961.827	46.33
962.189	46.36
962.552	46.37
962.914	46.36
963.276	46.33
963.638	46.38
964	46.36
964.362	46.36
964.724	46.37
965.085	46.38
965.447	46.36
965.809	46.27
966.17	46.23
966.532	46.23
966.893	46.25
967.255	46.24
967.616	46.19
967.977	46.17
968.338	46.14
968.699	46.12
969.061	46.09
969.421	46.06
969.782	46.07
970.143	46.1
970.504	46.09
970.865	46.08
971.225	46.08
971.586	46.1
971.946	46.12
972.307	46.1
972.667	46.11
973.027	46.16
973.388	46.17
973.748	46.22
974.108	46.26
974.468	46.23
974.828	46.24
975.188	46.23
975.548	46.25
975.907	46.28
976.267	46.27
976.627	46.27
976.986	46.19
977.346	46.12
977.705	46.02
978.064	45.97
978.424	45.98
978.783	45.98
979.142	45.95
979.501	45.95
979.86	45.95
980.219	46
980.578	45.99
980.937	46.01
981.296	46
981.654	46.08
982.013	46.09
982.371	46.12
982.73	46.12
983.088	46.16
983.447	46.1
983.805	46.08
984.163	46.07
984.521	46.09
984.879	46.11
985.237	46.15
985.595	46.17
985.953	46.14
986.311	46.05
986.669	46.02
987.026	45.95
987.384	46.02
987.741	45.96
988.099	46.06
988.456	46.03
988.814	46.09
989.171	46.05
989.528	46.07
989.885	46.05
990.242	46.08
990.599	46.19
990.956	46.26
991.313	46.31
991.67	46.33
992.027	46.41
992.383	46.51
992.74	46.59
993.096	46.66
993.453	46.6
993.809	46.62
994.165	46.7
994.522	46.74
994.878	46.79
995.234	46.76
995.59	46.78
995.946	46.63
996.302	46.57
996.658	46.49
997.013	46.45
997.369	46.54
997.725	46.67
998.08	46.71
998.436	46.58
998.791	46.5
999.147	46.49
999.502	46.61
999.857	46.62
1000.212	46.57
1000.567	46.62
1000.922	46.63
1001.277	46.62
1001.632	46.41
1001.987	46.4
1002.342	46.36
1002.696	46.36
1003.051	46.45
1003.406	46.49
1003.76	46.57
1004.114	46.6
1004.469	46.59
1004.823	46.96
1005.177	46.92
1005.531	47.06
1005.885	47.15
1006.239	47.28
1006.593	47.32
1006.947	47.27
1007.301	47.04
1007.655	46.87
1008.008	46.85
1008.362	46.89
1008.715	46.56
1009.069	46.63
1009.422	46.68
1009.776	46.65
1010.129	46.74
1010.482	46.75
1010.835	46.74
1011.188	46.94
1011.541	47.06
1011.894	47.19
1012.247	47.11
1012.6	47.27
1012.952	47.2
1013.305	47.19
1013.657	47.13
1014.01	47.04
1014.362	47.08
1014.715	47.31
1015.067	47.4
1015.419	47.51
1015.771	47.54
1016.123	47.71
1016.475	47.76
1016.827	48.07
1017.179	48.11
1017.531	48.1
1017.883	48.18
1018.234	48.58
1018.586	48.46
1018.938	48.65
1019.289	48.57
1019.64	48.47
1019.992	48.35
1020.343	48.2
1020.694	48.1
1021.045	48.12
1021.396	48.2
1021.747	48.23
1022.098	47.89
1022.449	47.85
1022.8	47.65
1023.151	47.78
1023.501	48.03
1023.852	48.09
1024.202	47.98
1024.553	47.64
1024.903	47.83
1025.253	48.11
1025.604	48.33
1025.954	48.31
1026.304	48.37
1026.654	48.44
1027.004	48.11
1027.354	47.82
1027.703	47.73
1028.053	47.87
1028.403	48.25
1028.753	47.9
1029.102	47.58
1029.452	47.13
1029.801	46.99
1030.15	46.87
1030.499	46.54
897.758	1899.69
901.051	1900.65
904.343	1895.11
907.636	1935.18
910.928	1885.65
914.22	1880.3
917.511	1855.7
920.803	1773.05
924.094	1763.09
927.384	1725.57
930.675	1650.26
933.965	1638.45
937.255	1547.33
940.544	1484.53
943.834	1408.96
947.123	1394.21
950.411	1314.53
953.7	1284.68
956.988	1217.67
960.276	1167.1
963.563	1149.08
966.851	1108.06
970.138	1099.6
973.424	1062.83
976.711	1069.36
979.997	1014.94
983.283	1011.69
986.568	990.16
989.853	956.47
993.138	941.09
996.423	904.91
999.708	878.98
1002.992	871.99
1006.275	829.55
1009.559	821.42
1012.842	792.39
1016.125	770.96
1019.408	757.01
1022.69	745.34
1025.972	733.23
1029.254	714.41
1032.536	702.96
1035.817	686.49
1039.098	676.96
1042.379	662.56
1045.659	656.78
1048.939	638.63
1052.219	626.21
1055.498	614.3
1058.778	602.07
1062.057	586.26
1065.335	578.55
1068.614	571.28
1071.892	567.21
1075.17	546.81
1078.447	537.19
1081.724	532.94
1085.001	529.53
1088.278	518.86
1091.554	507.62
1094.83	507.75
1098.106	504.84
1101.382	500.46
1104.657	496.52
1107.932	487.66
1111.206	491.52
1114.481	479.37
1117.755	473.91
1121.029	470.57
1124.302	470.47
1127.575	462.79
1130.848	456.23
1134.121	451.08
1137.393	449.86
1140.665	440.55
1143.937	439.25
1147.208	433.36
1150.48	433.99
1153.75	428.13
1157.021	420.75
1160.291	420.7
1163.561	416.26
1166.831	416.17
1170.101	414.66
1173.37	410.71
1176.639	412.08
1179.907	406.57
1183.176	404.38
1186.444	402.85
1189.711	402.82
1192.979	402.03
1196.246	397.85
1199.513	399.98
1202.78	396.97
1206.046	396.62
1209.312	393.31
1212.578	394.12
1215.843	398.58
1219.108	394.49
1222.373	403.77
1225.638	406.87
1228.902	413.74
1232.166	413.7
1235.43	416.71
1238.693	422.63
1241.956	424.23
1245.219	433.32
1248.482	431.34
1251.744	430.92
1255.006	433.22
1258.268	421.93
1261.529	417.36
1264.79	413.14
1268.051	411.95
1271.312	406.94
1274.572	401.9
1277.832	397.69
1281.092	390.18
1284.351	388.24
1287.61	387.41
1290.869	381.37
1294.128	378.36
1297.386	378.53
1300.644	374.9
1303.902	376.33
1307.159	373.84
1310.416	374.67
1313.673	374.85
1316.93	378.74
1320.186	378.67
1323.442	380.33
1326.697	388.31
1329.953	388.27
1333.208	390.86
1336.463	394.97
1339.717	395.51
1342.972	399.85
1346.226	402.61
1349.479	402.89
1352.733	405.93
1355.986	406.8
1359.238	406.63
1362.491	409.6
1365.743	414.37
1368.995	413.52
1372.247	411.67
1375.498	412.29
1378.749	417.18
1382	411.5
1385.251	414.51
1388.501	410.24
1391.751	414.82
1395	412.4
1398.25	408.66
1401.499	407.54
1404.748	407.29
1407.996	404.28
1411.244	401.96
1414.492	400.83
1417.74	397.58
1420.987	390.52
1424.234	392.14
1427.481	385.09
1430.728	386.41
1433.974	381.31
1437.22	378.08
1440.465	376.45
1443.711	374.64
1446.956	373.5
1450.201	366.13
1453.445	363.85
1456.689	363.17
1459.933	355.99
1463.177	353.69
1466.42	347.16
1469.663	343.81
1472.906	342.1
1476.148	333.07
1479.391	328.57
1482.633	324.24
1485.874	320.83
1489.115	318.57
1492.356	314.07
1495.597	313.45
1498.838	308.55
1502.078	306.55
1505.318	304.88
1508.557	304.74
1511.797	305.63
1515.036	303.34
1518.274	302.96
1521.513	299.22
1524.751	298.86
1527.989	298.64
1531.227	297.33
1534.464	298.83
1537.701	295.91
1540.938	295.19
1544.174	290.95
1547.41	289.63
1550.646	289.03
1553.882	288.63
1557.117	285.26
1560.352	282.91
1563.587	281.99
1566.821	279.82
1570.055	276.27
1573.289	274.2
1576.523	273.83
1579.756	272.14
1582.989	270.89
1586.222	270.19
1589.454	268.72
1592.686	270.27
1595.918	269.52
1599.15	268.32
1602.381	268.5
1605.612	268.3
1608.843	270.6
1612.073	269.82
1615.303	270.51
1618.533	270.87
1621.762	269.72
1624.992	269.89
1628.221	270.4
1631.449	270.2
1634.678	269.15
1637.906	271.11
1641.134	270.67
1644.361	269.56
1647.588	270.62
1650.815	269.56
1654.042	267.95
1657.269	270.4
1660.495	270.29
1663.72	267.84
1666.946	268.71
1670.171	269.56
1673.396	268.67
1676.621	269.01
1679.845	268.99
1683.069	268.76
1686.293	270.71
1689.517	272.7
1692.74	271.87
1695.963	273.12
1699.185	277.17
1702.408	277.28
1705.63	278.05
1708.852	279.09
1712.073	279.79
1715.294	280.41
1718.515	281.91
1721.736	281.61
1724.956	281.65
1728.176	281.6
1731.396	284.45
1734.616	283.03
1737.835	284.42
1741.054	282.39
1744.272	283.32
1747.491	286.01
1750.709	286.61
1753.927	286.73
1757.144	285.8
1760.361	288.08
1763.578	288.28
1766.795	287.26
1770.011	289.02
1773.227	289.23
1776.443	293.59
1779.658	294.95
1782.874	293.89
1786.089	295.49
1789.303	296.59
1792.518	300.07
1795.732	299.29
1798.945	303.21
1802.159	303.07
1805.372	304.96
1808.585	310.08
1811.797	310.95
1815.01	310.63
1818.222	313.93
1821.434	314.76
1824.645	316.58
1827.856	321.98
1831.067	325.13
1834.278	322.16
1837.488	325.09
1840.698	327.69
1843.908	323.92
1847.117	326.22
1850.326	328.4
1853.535	327.13
1856.744	333.52
1859.952	332.55
1863.16	331.59
1866.368	328.42
1869.575	335.25
1872.782	329.18
1875.989	327.16
1879.196	326.45
1882.402	324.53
1885.608	326.38
1888.814	328.08
1892.019	325.88
1895.224	325.11
1898.429	322.95
1901.634	326.41
1904.838	324.55
1908.042	329.78
1911.246	331.36
1914.449	333.54
1917.652	333.27
1920.855	332.67
1924.058	330.83
1927.26	330.16
1930.462	332.45
1933.664	336.47
1936.865	332.79
1940.066	334.5
1943.267	331.08
1946.467	331.16
1949.668	333.75
1952.868	337.91
1956.067	337.29
1959.267	339.59
1962.466	340.62
1965.665	337.73
1968.863	338.36
1972.061	342.39
1975.259	345.92
1978.457	348.93
1981.654	351.48
1984.852	352.15
1988.048	350.81
1991.245	354.09
1994.441	358.42
1997.637	359.88
2000.833	367.81
2004.028	371.95
2007.223	375.34
2010.418	378.46
2013.613	385.15
2016.807	389.44
2020.001	391.88
2023.194	397.68
2026.388	406.92
2029.581	414.7
2032.774	419.98
2035.966	427.28
2039.158	428.92
2042.35	437.52
2045.542	439.22
2048.733	445.52
2051.924	451.02
2055.115	459.37
2058.306	460.08
2061.496	465.62
2064.686	464.84
2067.875	473.91
2071.065	474.73
2074.254	472.31
2077.442	476.98
2080.631	479.8
2083.819	484.89
2087.007	485.47
2090.195	491.28
2093.382	495.22
2096.569	490.33
2099.756	500.01
2102.942	499.08
2106.128	506.26
2109.314	518.77
2112.5	517.12
2115.685	528.23
2118.87	529.19
2122.055	539.67
2125.239	543.23
2128.424	551.68
2131.608	555.79
2134.791	561.25
2137.974	565.25
2141.157	566.45
2144.34	566.34
2147.523	575.22
2150.705	570.13
2153.887	573.46
2157.068	575.6
2160.25	569.29
2163.431	570.34
2166.611	577.18
2169.792	590.88
2172.972	596.36
2176.152	598.47
2179.331	607.27
2182.511	618.73
2185.69	626.38
2188.868	640.29
2192.047	640.53
2195.225	660.21
2198.403	677.87
2201.58	690.94
2204.758	700.29
2207.935	715.94
2211.111	731.05
2214.288	739.42
2217.464	740.8
2220.64	749.87
2223.815	762.66
2226.991	794.22
2230.166	797.12
2233.34	811.12
2236.515	821.97
2239.689	824.24
2242.863	828.05
2246.036	852.77
2249.209	840.92
2252.382	854.7
2255.555	883.27
2258.727	883.49
2261.9	890.52
2265.071	897.46
2268.243	909.98
2271.414	921.51
2274.585	944.69
2277.756	953.25
2280.926	958.61
2284.096	982.86
2287.266	1006.04
2290.436	1013.32
2293.605	1037.55
2296.774	1068.89
2299.942	1103.44
2303.111	1111.52
2306.279	1139.24
2309.447	1152.51
2312.614	1181.46
2315.781	1213.71
2318.948	1275.42
2322.115	1252.98
2325.281	1317.39
2328.447	1288.56
2331.613	1342.22
2334.779	1325.54
2337.944	1380.88
2341.109	1393.85
2344.274	1431.22
2347.438	1484.28
2350.602	1487.34
2353.766	1527.97
2356.929	1550.87
2360.092	1538.39
2363.255	1660.04
2366.418	1647.62
2369.58	1687.25
2372.742	1785.96
2375.904	1831.75
2379.066	1817.92
2382.227	1783.42
2385.388	1934.53
2388.548	1936.31
2391.709	1966.67
2394.869	2200.51
2398.029	2089.9
2401.188	2151.25
2404.347	2135.72
2407.506	2111.47
2410.665	2170.19
2413.823	2306.03
2416.981	2440.68
2420.139	2354.57
2423.296	2329.95
2426.453	2431.02
2429.61	2334.15
2432.767	2453.68
2435.923	2436.68
2439.079	2648.45
2442.235	2683.01
2445.391	2658.49
2448.546	2641.02
2451.701	2563.06
2454.855	2563.26
2458.009	2722.31
2461.163	2824.19
2464.317	2931.79
2467.471	3004.54
2470.624	2996.96
2473.777	2930.08
2476.929	2859.95
2480.082	2777.66
2483.234	2738.16
2486.385	2877.85
2489.537	2892.08
2492.688	3004.1
2495.839	2914.31
2498.989	2853.84
2502.14	2870.06
2505.29	2910.27
2508.439	2952.62
2511.589	2941.98
2514.738	3202.41
2517.887	3139.64
2521.035	3317.56
2524.183	3331.49
2527.331	3355.66
2530.479	3353.25
2533.627	3372.78
