Data from C_3_HIR_IL_4N_Splice17_14-27-44-891.txt Node
Date: Sat Mar 07 14:27:44 EST 2020
User: sa697716
Spectrometer: NQ5500242
Trigger mode: 0
Integration Time (sec): 1.450000E-1
Scans to average: 20
Nonlinearity correction enabled: false
Boxcar width: 5
Storing dark spectrum: false
XAxis mode: Wavelengths
Number of Pixels in Spectrum: 512
>>>>>Begin Spectral Data<<<<<
187.83	98.54
188.298	121.75
188.766	98.92
189.233	80.85
189.701	64.54
190.169	77.66
190.636	72.74
191.104	29.28
191.571	-96.5
192.039	-37.54
192.506	-143.81
192.974	40.12
193.441	144.31
193.908	46.9
194.375	62.93
194.842	-51.94
195.31	-44.68
195.777	-271.01
196.244	40.07
196.711	66.82
197.177	71.71
197.644	72.6
198.111	73.06
198.578	73.21
199.045	73.64
199.511	73.56
199.978	73.76
200.445	73.82
200.911	74.05
201.378	74.29
201.844	74.21
202.31	73.89
202.777	74.02
203.243	73.81
203.709	73.76
204.176	73.12
204.642	72.59
205.108	72.49
205.574	72.4
206.04	71.75
206.506	71.23
206.972	70.76
207.438	69.98
207.903	68.7
208.369	67.18
208.835	65.4
209.301	63.85
209.766	62.13
210.232	60.18
210.697	58.24
211.163	56.65
211.628	55.19
212.094	53.46
212.559	51.85
213.024	50.68
213.49	49.61
213.955	48.53
214.42	47.36
214.885	45.93
215.35	44.19
215.815	41.69
216.28	38.66
216.745	35.26
217.21	31.98
217.675	28.9
218.14	26.1
218.604	23.66
219.069	21.59
219.534	19.87
219.998	18.47
220.463	17.28
220.927	16.25
221.392	15.47
221.856	14.82
222.32	14.25
222.785	13.74
223.249	13.27
223.713	12.88
224.177	12.54
224.642	12.22
225.106	11.92
225.57	11.61
226.034	11.35
226.497	11.11
226.961	10.86
227.425	10.63
227.889	10.42
228.353	10.24
228.816	10.03
229.28	9.84
229.744	9.67
230.207	9.5
230.671	9.34
231.134	9.2
231.597	9.05
232.061	8.91
232.524	8.78
232.987	8.67
233.45	8.56
233.914	8.45
234.377	8.34
234.84	8.22
235.303	8.13
235.766	8.04
236.229	7.95
236.691	7.85
237.154	7.77
237.617	7.7
238.08	7.62
238.542	7.54
239.005	7.48
239.468	7.42
239.93	7.37
240.393	7.29
240.855	7.21
241.317	7.15
241.78	7.08
242.242	7
242.704	6.94
243.166	6.88
243.629	6.83
244.091	6.76
244.553	6.69
245.015	6.63
245.477	6.58
245.939	6.52
246.4	6.47
246.862	6.42
247.324	6.38
247.786	6.33
248.247	6.27
248.709	6.2
249.17	6.15
249.632	6.1
250.093	6.05
250.555	6
251.016	5.95
251.477	5.91
251.939	5.86
252.4	5.82
252.861	5.77
253.322	5.74
253.783	5.71
254.244	5.68
254.705	5.64
255.166	5.6
255.627	5.57
256.088	5.54
256.549	5.51
257.009	5.47
257.47	5.43
257.931	5.39
258.391	5.34
258.852	5.29
259.312	5.25
259.773	5.21
260.233	5.18
260.694	5.14
261.154	5.09
261.614	5.05
262.074	5.01
262.534	4.97
262.994	4.95
263.455	4.92
263.915	4.89
264.374	4.86
264.834	4.84
265.294	4.81
265.754	4.78
266.214	4.76
266.673	4.74
267.133	4.72
267.593	4.71
268.052	4.7
268.512	4.68
268.971	4.66
269.431	4.65
269.89	4.64
270.349	4.62
270.809	4.61
271.268	4.6
271.727	4.58
272.186	4.57
272.645	4.56
273.104	4.54
273.563	4.53
274.022	4.52
274.481	4.51
274.94	4.5
275.399	4.48
275.857	4.47
276.316	4.46
276.775	4.45
277.233	4.45
277.692	4.44
278.15	4.43
278.609	4.42
279.067	4.4
279.525	4.4
279.984	4.39
280.442	4.39
280.9	4.39
281.358	4.39
281.816	4.39
282.274	4.38
282.732	4.38
283.19	4.38
283.648	4.38
284.106	4.38
284.564	4.38
285.021	4.38
285.479	4.38
285.937	4.37
286.394	4.37
286.852	4.36
287.309	4.35
287.767	4.34
288.224	4.33
288.682	4.31
289.139	4.3
289.596	4.28
290.053	4.26
290.511	4.24
290.968	4.23
291.425	4.21
291.882	4.19
292.339	4.17
292.796	4.15
293.252	4.14
293.709	4.13
294.166	4.12
294.623	4.11
295.079	4.1
295.536	4.09
295.992	4.09
296.449	4.08
296.905	4.08
297.362	4.07
297.818	4.06
298.274	4.06
298.731	4.04
299.187	4.04
299.643	4.04
300.099	4.03
300.555	4.03
301.011	4.02
301.467	4.02
301.923	4.02
302.379	4.02
302.835	4.02
303.291	4.02
303.746	4.02
304.202	4.02
304.658	4.02
305.113	4.03
305.569	4.03
306.024	4.03
306.479	4.03
306.935	4.03
307.39	4.03
307.845	4.04
308.301	4.04
308.756	4.05
309.211	4.05
309.666	4.06
310.121	4.06
310.576	4.07
311.031	4.07
311.486	4.08
311.94	4.09
312.395	4.1
312.85	4.1
313.305	4.11
313.759	4.11
314.214	4.11
314.668	4.11
315.123	4.12
315.577	4.11
316.032	4.11
316.486	4.1
316.94	4.09
317.394	4.08
317.849	4.07
318.303	4.06
318.757	4.05
319.211	4.04
319.665	4.02
320.119	4
320.572	3.99
321.026	3.99
321.48	3.98
321.934	3.97
322.387	3.96
322.841	3.95
323.295	3.94
323.748	3.94
324.202	3.94
324.655	3.94
325.108	3.94
325.562	3.95
326.015	3.95
326.468	3.95
326.921	3.96
327.374	3.97
327.827	3.97
328.28	3.97
328.733	3.97
329.186	3.99
329.639	3.99
330.092	4
330.545	4
330.997	4.01
331.45	4.01
331.903	4.02
332.355	4.03
332.808	4.03
333.26	4.05
333.713	4.06
334.165	4.05
334.617	4.06
335.069	4.06
335.522	4.07
335.974	4.08
336.426	4.08
336.878	4.08
337.33	4.07
337.782	4.07
338.234	4.07
338.686	4.07
339.137	4.08
339.589	4.07
340.041	4.07
340.493	4.06
340.944	4.04
341.396	4.03
341.847	4.02
342.299	4.01
342.75	3.99
343.201	3.97
343.653	3.95
344.104	3.93
344.555	3.91
345.006	3.89
345.457	3.87
345.908	3.87
346.359	3.87
346.81	3.86
347.261	3.85
347.712	3.85
348.163	3.85
348.613	3.85
349.064	3.86
349.515	3.86
349.965	3.86
350.416	3.86
350.866	3.86
351.317	3.85
351.767	3.86
352.217	3.85
352.668	3.85
353.118	3.86
353.568	3.86
354.018	3.87
354.468	3.87
354.918	3.87
355.368	3.88
355.818	3.88
356.268	3.89
356.718	3.89
357.168	3.9
357.617	3.89
358.067	3.89
358.517	3.9
358.966	3.9
359.416	3.9
359.865	3.9
360.315	3.9
360.764	3.91
361.213	3.9
361.663	3.9
362.112	3.91
362.561	3.92
363.01	3.92
363.459	3.91
363.908	3.91
364.357	3.9
364.806	3.9
365.255	3.9
365.703	3.9
366.152	3.92
366.601	3.93
367.05	3.93
367.498	3.92
367.947	3.93
368.395	3.95
368.844	3.95
369.292	3.96
369.74	3.98
370.189	3.98
370.637	3.99
371.085	3.98
371.533	3.99
371.981	4
372.429	4.02
372.877	4.03
373.325	4.03
373.773	4.03
374.221	4.04
374.669	4.05
375.116	4.04
375.564	4.05
376.012	4.06
376.459	4.06
376.907	4.08
377.354	4.09
377.801	4.1
378.249	4.12
378.696	4.14
379.143	4.15
379.591	4.17
380.038	4.2
380.485	4.22
380.932	4.24
381.379	4.27
381.826	4.28
382.273	4.3
382.72	4.31
383.166	4.32
383.613	4.34
384.06	4.35
384.506	4.36
384.953	4.38
385.4	4.4
385.846	4.42
386.292	4.44
386.739	4.47
387.185	4.49
387.631	4.52
388.078	4.55
388.524	4.58
388.97	4.6
389.416	4.63
389.862	4.67
390.308	4.69
390.754	4.72
391.2	4.75
391.645	4.78
392.091	4.82
392.537	4.85
392.983	4.88
393.428	4.92
393.874	4.95
394.319	4.97
394.765	4.97
395.21	5
395.655	5.02
396.101	5.05
396.546	5.07
396.991	5.09
397.436	5.12
397.881	5.15
398.326	5.17
398.771	5.2
399.216	5.24
399.661	5.29
400.106	5.31
400.551	5.32
400.995	5.33
401.44	5.34
401.885	5.36
402.329	5.37
402.774	5.38
403.218	5.41
403.663	5.43
404.107	5.44
404.551	5.46
404.995	5.48
405.44	5.49
405.884	5.52
406.328	5.54
406.772	5.56
407.216	5.59
407.66	5.6
408.104	5.6
408.547	5.61
408.991	5.63
409.435	5.65
409.879	5.67
410.322	5.7
410.766	5.71
411.209	5.74
411.653	5.77
412.096	5.78
412.54	5.81
412.983	5.84
413.426	5.88
413.869	5.9
414.312	5.94
414.756	5.97
415.199	5.99
415.642	6.01
416.085	6.02
416.527	6.03
416.97	6.03
417.413	6.02
417.856	6.02
418.298	6.01
418.741	6.01
419.184	5.99
419.626	5.99
420.069	6
420.511	6
420.953	6.01
421.396	6.02
421.838	6.04
422.28	6.06
422.722	6.08
423.164	6.09
423.606	6.11
424.048	6.14
424.49	6.15
424.932	6.16
425.374	6.14
425.816	6.12
426.258	6.1
426.699	6.08
427.141	6.08
427.582	6.07
428.024	6.09
428.465	6.09
428.907	6.09
429.348	6.08
429.789	6.09
430.231	6.12
430.672	6.15
431.113	6.19
431.554	6.21
431.995	6.23
432.436	6.24
432.877	6.26
433.318	6.27
433.759	6.3
434.2	6.33
434.64	6.36
435.081	6.38
435.522	6.41
435.962	6.43
436.403	6.48
436.843	6.49
437.284	6.5
437.724	6.51
438.164	6.5
438.604	6.51
439.045	6.52
439.485	6.51
439.925	6.5
440.365	6.5
440.805	6.48
441.245	6.48
441.685	6.5
442.125	6.51
442.564	6.53
443.004	6.52
443.444	6.52
443.883	6.51
444.323	6.52
444.762	6.54
445.202	6.53
445.641	6.56
446.081	6.56
446.52	6.55
446.959	6.58
447.398	6.58
447.837	6.59
448.276	6.61
448.716	6.63
449.154	6.65
449.593	6.65
450.032	6.67
450.471	6.64
450.91	6.63
451.349	6.63
451.787	6.59
452.226	6.56
452.664	6.55
453.103	6.52
453.541	6.51
453.98	6.5
454.418	6.47
454.856	6.44
455.295	6.43
455.733	6.4
456.171	6.38
456.609	6.36
457.047	6.34
457.485	6.32
457.923	6.31
458.361	6.28
458.798	6.27
459.236	6.26
459.674	6.24
460.111	6.23
460.549	6.23
460.987	6.23
461.424	6.23
461.862	6.23
462.299	6.24
462.736	6.23
463.173	6.23
463.611	6.22
464.048	6.22
464.485	6.23
464.922	6.23
465.359	6.24
465.796	6.24
466.233	6.25
466.67	6.27
467.106	6.27
467.543	6.27
467.98	6.27
468.416	6.27
468.853	6.27
469.29	6.28
469.726	6.26
470.162	6.25
470.599	6.25
471.035	6.23
471.471	6.2
471.907	6.19
472.344	6.2
472.78	6.19
473.216	6.17
473.652	6.16
474.088	6.13
474.523	6.13
474.959	6.13
475.395	6.1
475.831	6.08
476.266	6.08
476.702	6.06
477.138	6.05
477.573	6.04
478.008	6.04
478.444	6.01
478.879	6.01
479.314	6
479.75	6
480.185	5.98
480.62	5.98
481.055	5.96
481.49	5.94
481.925	5.92
482.36	5.91
482.795	5.9
483.229	5.88
483.664	5.88
484.099	5.85
484.534	5.83
484.968	5.83
485.403	5.81
485.837	5.81
486.271	5.81
486.706	5.79
487.14	5.79
487.574	5.78
488.009	5.78
488.443	5.77
488.877	5.76
489.311	5.77
489.745	5.77
490.179	5.79
490.613	5.8
491.046	5.8
491.48	5.8
491.914	5.81
492.348	5.82
492.781	5.84
493.215	5.86
493.648	5.88
494.082	5.9
494.515	5.91
494.948	5.92
495.382	5.93
495.815	5.96
496.248	5.99
496.681	6
497.114	6.03
497.547	6.05
497.98	6.07
498.413	6.09
498.846	6.12
499.279	6.16
499.711	6.19
500.144	6.23
500.577	6.27
501.009	6.31
501.442	6.36
501.874	6.41
502.306	6.46
502.739	6.52
503.171	6.58
503.603	6.63
504.036	6.7
504.468	6.76
504.9	6.82
505.332	6.89
505.764	6.98
506.196	7.05
506.627	7.15
507.059	7.24
507.491	7.33
507.923	7.43
508.354	7.55
508.786	7.67
509.217	7.8
509.649	7.93
510.08	8.07
510.512	8.21
510.943	8.35
511.374	8.49
511.805	8.63
512.237	8.78
512.668	8.94
513.099	9.1
513.53	9.27
513.961	9.44
514.391	9.62
514.822	9.8
515.253	9.98
515.684	10.17
516.114	10.36
516.545	10.56
516.975	10.75
517.406	10.95
517.836	11.15
518.267	11.37
518.697	11.57
519.127	11.76
519.558	11.97
519.988	12.18
520.418	12.38
520.848	12.6
521.278	12.81
521.708	13.12
522.138	13.33
522.567	13.53
522.997	13.72
523.427	13.92
523.857	14.12
524.286	14.31
524.716	14.5
525.145	14.69
525.575	14.87
526.004	15.05
526.433	15.13
526.863	15.29
527.292	15.47
527.721	15.63
528.15	15.78
528.579	15.92
529.008	16.08
529.437	16.21
529.866	16.33
530.295	16.46
530.724	16.58
531.152	16.68
531.581	16.79
532.01	16.89
532.438	16.98
532.867	17.08
533.295	17.16
533.723	17.23
534.152	17.31
534.58	17.39
535.008	17.44
535.436	17.51
535.865	17.57
536.293	17.62
536.721	17.66
537.149	17.7
537.576	17.74
538.004	17.8
538.432	17.84
538.86	17.86
539.287	17.88
539.715	17.92
540.143	17.95
540.57	17.98
540.998	18.01
541.425	18.03
541.852	18.06
542.28	18.09
542.707	18.12
543.134	18.15
543.561	18.19
543.988	18.22
544.415	18.24
544.842	18.26
545.269	18.28
545.696	18.32
546.123	18.36
546.549	18.4
546.976	18.42
547.403	18.44
547.829	18.46
548.256	18.48
548.682	18.49
549.108	18.53
549.535	18.57
549.961	18.59
550.387	18.61
550.813	18.62
551.24	18.61
551.666	18.61
552.092	18.62
552.518	18.63
552.943	18.63
553.369	18.62
553.795	18.58
554.221	18.54
554.646	18.52
555.072	18.48
555.498	18.44
555.923	18.4
556.349	18.35
556.774	18.29
557.199	18.23
557.625	18.16
558.05	18.09
558.475	18.03
558.9	17.97
559.325	17.89
559.75	17.82
560.175	17.74
560.6	17.64
561.025	17.54
561.449	17.45
561.874	17.34
562.299	17.22
562.723	17.12
563.148	16.99
563.572	16.86
563.997	16.73
564.421	16.6
564.846	16.46
565.27	16.33
565.694	16.2
566.118	16.06
566.542	15.92
566.966	15.77
567.39	15.63
567.814	15.48
568.238	15.34
568.662	15.2
569.086	15.07
569.509	14.93
569.933	14.79
570.357	14.66
570.78	14.52
571.204	14.39
571.627	14.28
572.05	14.16
572.474	14.05
572.897	13.95
573.32	13.84
573.743	13.72
574.166	13.62
574.589	13.53
575.012	13.44
575.435	13.36
575.858	13.28
576.281	13.19
576.704	13.12
577.126	13.04
577.549	12.95
577.972	12.87
578.394	12.81
578.817	12.73
579.239	12.67
579.661	12.61
580.084	12.55
580.506	12.49
580.928	12.43
581.35	12.36
581.772	12.3
582.194	12.26
582.616	12.2
583.038	12.14
583.46	12.09
583.882	12.03
584.303	11.97
584.725	11.91
585.147	11.87
585.568	11.82
585.99	11.78
586.411	11.75
586.833	11.69
587.254	11.65
587.675	11.61
588.096	11.56
588.518	11.52
588.939	11.5
589.36	11.46
589.781	11.42
590.202	11.39
590.623	11.37
591.043	11.31
591.464	11.28
591.885	11.26
592.305	11.24
592.726	11.22
593.147	11.19
593.567	11.15
593.987	11.12
594.408	11.1
594.828	11.06
595.248	11.03
595.669	11.02
596.089	10.99
596.509	10.95
596.929	10.91
597.349	10.88
597.769	10.85
598.189	10.83
598.608	10.81
599.028	10.77
599.448	10.74
599.867	10.71
600.287	10.68
600.706	10.64
601.126	10.61
601.545	10.58
601.965	10.54
602.384	10.51
602.803	10.47
603.222	10.43
603.641	10.39
604.061	10.36
604.48	10.3
604.898	10.25
605.317	10.21
605.736	10.17
606.155	10.12
606.574	10.08
606.992	10.03
607.411	9.99
607.829	9.91
608.248	9.86
608.666	9.81
609.085	9.77
609.503	9.73
609.921	9.68
610.339	9.63
610.758	9.59
611.176	9.53
611.594	9.49
612.012	9.44
612.43	9.41
612.847	9.36
613.265	9.3
613.683	9.26
614.101	9.21
614.518	9.17
614.936	9.12
615.353	9.07
615.771	9.03
616.188	8.99
616.606	8.95
617.023	8.92
617.44	8.88
617.857	8.86
618.274	8.83
618.691	8.78
619.108	8.75
619.525	8.72
619.942	8.71
620.359	8.69
620.776	8.66
621.192	8.64
621.609	8.63
622.026	8.62
622.442	8.6
622.859	8.57
623.275	8.57
623.691	8.56
624.108	8.55
624.524	8.54
624.94	8.52
625.356	8.52
625.772	8.51
626.188	8.49
626.604	8.48
627.02	8.47
627.436	8.47
627.852	8.46
628.268	8.45
628.683	8.44
629.099	8.43
629.514	8.42
629.93	8.41
630.345	8.4
630.761	8.39
631.176	8.36
631.591	8.35
632.007	8.33
632.422	8.31
632.837	8.29
633.252	8.24
633.667	8.2
634.082	8.15
634.497	8.11
634.911	8.06
635.326	8.01
635.741	7.98
636.155	7.92
636.57	7.86
636.984	7.82
637.399	7.74
637.813	7.69
638.228	7.63
638.642	7.58
639.056	7.5
639.47	7.45
639.884	7.39
640.298	7.31
640.712	7.24
641.126	7.19
641.54	7.12
641.954	7.07
642.368	7.01
642.781	6.97
643.195	6.91
643.609	6.87
644.022	6.82
644.436	6.79
644.849	6.75
645.262	6.71
645.676	6.67
646.089	6.64
646.502	6.61
646.915	6.59
647.328	6.56
647.741	6.54
648.154	6.51
648.567	6.49
648.98	6.46
649.393	6.45
649.805	6.45
650.218	6.43
650.631	6.43
651.043	6.42
651.456	6.4
651.868	6.37
652.28	6.36
652.693	6.35
653.105	6.33
653.517	6.31
653.929	6.3
654.341	6.27
654.753	6.25
655.165	6.23
655.577	6.2
655.989	6.19
656.401	6.17
656.813	6.16
657.224	6.14
657.636	6.11
658.047	6.1
658.459	6.07
658.87	6.06
659.282	6.03
659.693	5.99
660.104	5.96
660.515	5.92
660.926	5.9
661.338	5.87
661.749	5.84
662.159	5.82
662.57	5.8
662.981	5.78
663.392	5.76
663.803	5.75
664.213	5.75
664.624	5.74
665.035	5.74
665.445	5.73
665.855	5.73
666.266	5.73
666.676	5.74
667.086	5.73
667.497	5.73
667.907	5.74
668.317	5.74
668.727	5.75
669.137	5.76
669.547	5.76
669.956	5.78
670.366	5.79
670.776	5.79
671.186	5.79
671.595	5.8
672.005	5.8
672.414	5.81
672.824	5.83
673.233	5.85
673.642	5.86
674.052	5.87
674.461	5.88
674.87	5.91
675.279	5.93
675.688	5.96
676.097	6
676.506	6.03
676.915	6.05
677.323	6.08
677.732	6.1
678.141	6.13
678.549	6.16
678.958	6.19
679.366	6.21
679.775	6.25
680.183	6.28
680.592	6.31
681	6.35
681.408	6.39
681.816	6.44
682.224	6.49
682.632	6.53
683.04	6.58
683.448	6.64
683.856	6.68
684.264	6.74
684.671	6.81
685.079	6.88
685.487	6.97
685.894	7.08
686.302	7.19
686.709	7.32
687.116	7.46
687.524	7.62
687.931	7.8
688.338	8.01
688.745	8.22
689.152	8.46
689.559	8.73
689.966	9
690.373	9.29
690.78	9.6
691.187	9.94
691.593	10.29
692	10.67
692.407	11.05
692.813	11.44
693.22	11.86
693.626	12.3
694.032	12.73
694.439	13.19
694.845	13.68
695.251	14.15
695.657	14.63
696.063	15.14
696.469	15.63
696.875	16.15
697.281	16.68
697.687	17.23
698.093	17.76
698.498	18.31
698.904	18.84
699.31	19.37
699.715	19.89
700.12	20.44
700.526	20.98
700.931	21.52
701.337	22.04
701.742	22.57
702.147	23.08
702.552	23.6
702.957	24.08
703.362	24.6
703.767	25.11
704.172	25.64
704.577	26.12
704.981	26.62
705.386	27.12
705.791	27.63
706.195	28.13
706.6	28.63
707.004	29.1
707.408	29.61
707.813	30.1
708.217	30.58
708.621	31.06
709.025	31.51
709.43	31.96
709.834	32.42
710.237	32.85
710.641	33.3
711.045	33.75
711.449	34.21
711.853	34.65
712.256	35.07
712.66	35.49
713.064	35.91
713.467	36.35
713.87	36.77
714.274	37.18
714.677	37.61
715.08	38
715.484	38.41
715.887	38.82
716.29	39.21
716.693	39.61
717.096	39.98
717.499	40.36
717.901	40.75
718.304	41.13
718.707	41.52
719.109	41.89
719.512	42.26
719.915	42.6
720.317	42.91
720.719	43.22
721.122	43.55
721.524	43.88
721.926	44.21
722.328	44.51
722.731	44.81
723.133	45.09
723.535	45.35
723.937	45.62
724.338	45.89
724.74	46.17
725.142	46.47
725.544	46.7
725.945	46.96
726.347	47.16
726.748	47.37
727.15	47.58
727.551	47.79
727.952	47.99
728.354	48.21
728.755	48.4
729.156	48.59
729.557	48.73
729.958	48.9
730.359	49.07
730.76	49.27
731.161	49.43
731.562	49.62
731.962	49.76
732.363	49.92
732.763	50.05
733.164	50.2
733.564	50.33
733.965	50.47
734.365	50.62
734.766	50.74
735.166	50.84
735.566	50.95
735.966	51.04
736.366	51.17
736.766	51.26
737.166	51.37
737.566	51.46
737.966	51.54
738.365	51.62
738.765	51.71
739.165	51.77
739.564	51.88
739.964	51.94
740.363	51.99
740.763	52.04
741.162	52.1
741.561	52.14
741.96	52.18
742.36	52.24
742.759	52.28
743.158	52.3
743.557	52.35
743.955	52.39
744.354	52.46
744.753	52.53
745.152	52.62
745.55	52.71
745.949	52.76
746.348	52.85
746.746	52.92
747.144	53
747.543	53.06
747.941	53.13
748.339	53.15
748.737	53.18
749.136	53.21
749.534	53.22
749.932	53.24
750.33	53.26
750.727	53.28
751.125	53.29
751.523	53.29
751.921	53.29
752.318	53.29
752.716	53.3
753.113	53.35
753.511	53.36
753.908	53.37
754.305	53.36
754.703	53.36
755.1	53.36
755.497	53.36
755.894	53.36
756.291	53.37
756.688	53.35
757.085	53.37
757.482	53.36
757.878	53.36
758.275	53.37
758.672	53.37
759.068	53.42
759.465	53.43
759.861	53.42
760.258	53.46
760.654	53.45
761.05	53.48
761.447	53.48
761.843	53.46
762.239	53.47
762.635	53.43
763.031	53.42
763.427	53.38
763.822	53.38
764.218	53.39
764.614	53.38
765.01	53.37
765.405	53.35
765.801	53.31
766.196	53.33
766.592	53.3
766.987	53.32
767.382	53.32
767.778	53.33
768.173	53.31
768.568	53.29
768.963	53.27
769.358	53.28
769.753	53.3
770.148	53.36
770.542	53.35
770.937	53.37
771.332	53.37
771.726	53.39
772.121	53.4
772.515	53.42
772.91	53.43
773.304	53.47
773.699	53.46
774.093	53.44
774.487	53.43
774.881	53.44
775.275	53.43
775.669	53.42
776.063	53.39
776.457	53.4
776.851	53.38
777.245	53.35
777.638	53.32
778.032	53.32
778.425	53.35
778.819	53.31
779.212	53.32
779.606	53.34
779.999	53.34
780.392	53.39
780.786	53.4
781.179	53.44
781.572	53.5
781.965	53.5
782.358	53.53
782.751	53.51
783.143	53.56
783.536	53.53
783.929	53.53
784.322	53.58
784.714	53.58
785.107	53.59
785.499	53.58
785.891	53.56
786.284	53.6
786.676	53.62
787.068	53.65
787.46	53.66
787.852	53.69
788.245	53.7
788.636	53.69
789.028	53.7
789.42	53.69
789.812	53.7
790.204	53.72
790.595	53.73
790.987	53.72
791.378	53.77
791.77	53.78
792.161	53.79
792.553	53.81
792.944	53.81
793.335	53.81
793.726	53.83
794.117	53.84
794.508	53.83
794.899	53.82
795.29	53.83
795.681	53.78
796.072	53.78
796.463	53.79
796.853	53.76
797.244	53.77
797.634	53.77
798.025	53.82
798.415	53.81
798.806	53.8
799.196	53.81
799.586	53.84
799.976	53.87
800.366	53.91
800.756	53.92
801.146	53.98
801.536	54
801.926	54.02
802.316	54.01
802.706	54.07
803.095	54.1
803.485	54.1
803.874	54.12
804.264	54.13
804.653	54.14
805.043	54.14
805.432	54.14
805.821	54.16
806.21	54.17
806.599	54.15
806.988	54.12
807.377	54.14
807.766	54.15
808.155	54.1
808.544	54.12
808.933	54.13
809.321	54.15
809.71	54.15
810.098	54.15
810.487	54.16
810.875	54.17
811.264	54.19
811.652	54.2
812.04	54.23
812.428	54.3
812.816	54.29
813.204	54.29
813.592	54.28
813.98	54.29
814.368	54.3
814.756	54.34
815.144	54.35
815.531	54.38
815.919	54.38
816.306	54.39
816.694	54.37
817.081	54.38
817.469	54.4
817.856	54.4
818.243	54.41
818.63	54.39
819.017	54.41
819.404	54.39
819.791	54.37
820.178	54.4
820.565	54.38
820.952	54.37
821.339	54.33
821.725	54.32
822.112	54.35
822.498	54.37
822.885	54.4
823.271	54.36
823.657	54.35
824.044	54.35
824.43	54.34
824.816	54.33
825.202	54.32
825.588	54.34
825.974	54.32
826.36	54.29
826.746	54.27
827.132	54.26
827.517	54.28
827.903	54.27
828.289	54.28
828.674	54.26
829.06	54.25
829.445	54.24
829.83	54.22
830.216	54.19
830.601	54.16
830.986	54.14
831.371	54.1
831.756	54.08
832.141	54.07
832.526	54.04
832.911	54
833.295	54
833.68	53.99
834.065	53.98
834.449	53.98
834.834	53.96
835.218	53.94
835.603	53.93
835.987	53.89
836.371	53.86
836.755	53.81
837.139	53.8
837.524	53.79
837.908	53.79
838.291	53.78
838.675	53.75
839.059	53.76
839.443	53.72
839.827	53.69
840.21	53.67
840.594	53.7
840.977	53.69
841.361	53.68
841.744	53.63
842.127	53.59
842.511	53.58
842.894	53.55
843.277	53.53
843.66	53.51
844.043	53.51
844.426	53.52
844.809	53.48
845.191	53.5
845.574	53.48
845.957	53.52
846.339	53.52
846.722	53.52
847.104	53.54
847.487	53.54
847.869	53.56
848.252	53.56
848.634	53.55
849.016	53.56
849.398	53.57
849.78	53.58
850.162	53.56
850.544	53.55
850.926	53.56
851.307	53.56
851.689	53.55
852.071	53.54
852.452	53.54
852.834	53.55
853.215	53.53
853.597	53.54
853.978	53.54
854.359	53.54
854.741	53.56
855.122	53.55
855.503	53.54
855.884	53.54
856.265	53.54
856.646	53.54
857.026	53.55
857.407	53.57
857.788	53.54
858.169	53.58
858.549	53.59
858.93	53.59
859.31	53.6
859.69	53.62
860.071	53.65
860.451	53.66
860.831	53.66
861.211	53.63
861.591	53.62
861.971	53.61
862.351	53.6
862.731	53.59
863.111	53.58
863.491	53.57
863.87	53.56
864.25	53.54
864.629	53.57
865.009	53.59
865.388	53.6
865.768	53.62
866.147	53.62
866.526	53.62
866.905	53.6
867.284	53.6
867.663	53.59
868.042	53.61
868.421	53.63
868.8	53.61
869.179	53.59
869.558	53.58
869.936	53.56
870.315	53.6
870.693	53.59
871.072	53.64
871.45	53.65
871.828	53.65
872.207	53.62
872.585	53.61
872.963	53.61
873.341	53.62
873.719	53.62
874.097	53.62
874.475	53.61
874.853	53.59
875.23	53.58
875.608	53.59
875.986	53.62
876.363	53.64
876.741	53.64
877.118	53.65
877.495	53.65
877.873	53.66
878.25	53.68
878.627	53.67
879.004	53.69
879.381	53.71
879.758	53.68
880.135	53.63
880.512	53.6
880.889	53.61
881.265	53.57
881.642	53.54
882.019	53.53
882.395	53.52
882.772	53.51
883.148	53.46
883.524	53.44
883.901	53.43
884.277	53.42
884.653	53.41
885.029	53.39
885.405	53.38
885.781	53.38
886.157	53.35
886.532	53.34
886.908	53.31
887.284	53.31
887.659	53.28
888.035	53.25
888.411	53.25
888.786	53.25
889.161	53.24
889.537	53.24
889.912	53.24
890.287	53.23
890.662	53.2
891.037	53.19
891.412	53.17
891.787	53.15
892.162	53.15
892.536	53.13
892.911	53.1
893.286	53.09
893.66	53.07
894.035	53.04
894.409	53
894.784	53
895.158	52.98
895.532	52.99
895.906	52.99
896.281	52.99
896.655	52.97
897.029	52.99
897.402	52.96
897.776	52.98
898.15	53.01
898.524	53.06
898.898	53.07
899.271	53.11
899.645	53.12
900.018	53.14
900.392	53.16
900.765	53.18
901.138	53.2
901.511	53.26
901.884	53.29
902.258	53.31
902.631	53.3
903.003	53.32
903.376	53.32
903.749	53.3
904.122	53.31
904.495	53.33
904.867	53.34
905.24	53.36
905.612	53.39
905.985	53.36
906.357	53.34
906.729	53.36
907.102	53.37
907.474	53.42
907.846	53.43
908.218	53.45
908.59	53.47
908.962	53.45
909.334	53.44
909.705	53.4
910.077	53.44
910.449	53.46
910.82	53.45
911.192	53.45
911.563	53.44
911.935	53.44
912.306	53.43
912.677	53.42
913.048	53.45
913.419	53.42
913.79	53.43
914.161	53.44
914.532	53.45
914.903	53.5
915.274	53.5
915.645	53.5
916.015	53.5
916.386	53.51
916.756	53.52
917.127	53.54
917.497	53.56
917.868	53.58
918.238	53.57
918.608	53.59
918.978	53.55
919.348	53.57
919.718	53.56
920.088	53.58
920.458	53.59
920.828	53.58
921.198	53.54
921.567	53.57
921.937	53.56
922.306	53.56
922.676	53.54
923.045	53.55
923.415	53.52
923.784	53.51
924.153	53.54
924.522	53.55
924.891	53.55
925.26	53.58
925.629	53.58
925.998	53.59
926.367	53.61
926.736	53.6
927.104	53.61
927.473	53.6
927.842	53.56
928.21	53.54
928.578	53.48
928.947	53.52
929.315	53.46
929.683	53.41
930.051	53.34
930.42	53.28
930.788	53.24
931.156	53.18
931.523	53.17
931.891	53.21
932.259	53.2
932.627	53.22
932.994	53.17
933.362	53.13
933.729	53.15
934.097	53.16
934.464	53.19
934.831	53.17
935.199	53.18
935.566	53.14
935.933	53.13
936.3	53.09
936.667	53.07
937.034	53.06
937.401	53.12
937.767	53.11
938.134	53.13
938.501	53.16
938.867	53.22
939.234	53.3
939.6	53.37
939.967	53.43
940.333	53.48
940.699	53.54
941.065	53.57
941.431	53.6
941.798	53.62
942.163	53.62
942.529	53.61
942.895	53.62
943.261	53.59
943.627	53.57
943.992	53.57
944.358	53.67
944.723	53.68
945.089	53.65
945.454	53.69
945.82	53.69
946.185	53.74
946.55	53.73
946.915	53.78
947.28	53.76
947.645	53.77
948.01	53.74
948.375	53.62
948.74	53.57
949.104	53.6
949.469	53.52
949.834	53.48
950.198	53.44
950.562	53.39
950.927	53.38
951.291	53.29
951.655	53.21
952.02	53.22
952.384	53.18
952.748	53.14
953.112	53.06
953.476	52.99
953.839	52.91
954.203	52.83
954.567	52.78
954.931	52.73
955.294	52.73
955.658	52.77
956.021	52.68
956.385	52.66
956.748	52.59
957.111	52.61
957.474	52.66
957.837	52.65
958.2	52.67
958.563	52.72
958.926	52.71
959.289	52.75
959.652	52.73
960.015	52.75
960.377	52.74
960.74	52.76
961.102	52.79
961.465	52.79
961.827	52.81
962.189	52.81
962.552	52.76
962.914	52.72
963.276	52.72
963.638	52.7
964	52.64
964.362	52.67
964.724	52.67
965.085	52.56
965.447	52.55
965.809	52.58
966.17	52.53
966.532	52.52
966.893	52.49
967.255	52.47
967.616	52.47
967.977	52.52
968.338	52.45
968.699	52.42
969.061	52.46
969.421	52.48
969.782	52.47
970.143	52.49
970.504	52.52
970.865	52.61
971.225	52.59
971.586	52.6
971.946	52.59
972.307	52.66
972.667	52.67
973.027	52.72
973.388	52.68
973.748	52.69
974.108	52.74
974.468	52.68
974.828	52.71
975.188	52.69
975.548	52.66
975.907	52.66
976.267	52.62
976.627	52.7
976.986	52.66
977.346	52.58
977.705	52.59
978.064	52.64
978.424	52.69
978.783	52.63
979.142	52.67
979.501	52.66
979.86	52.68
980.219	52.71
980.578	52.68
980.937	52.7
981.296	52.79
981.654	52.79
982.013	52.79
982.371	52.76
982.73	52.83
983.088	52.86
983.447	52.86
983.805	52.88
984.163	52.89
984.521	52.92
984.879	52.82
985.237	52.86
985.595	52.87
985.953	52.86
986.311	52.89
986.669	52.86
987.026	52.79
987.384	52.86
987.741	52.8
988.099	52.87
988.456	52.74
988.814	52.9
989.171	52.91
989.528	52.94
989.885	52.88
990.242	52.91
990.599	53.02
990.956	53.11
991.313	53.19
991.67	53.31
992.027	53.37
992.383	53.56
992.74	53.59
993.096	53.62
993.453	53.58
993.809	53.64
994.165	53.72
994.522	53.65
994.878	53.7
995.234	53.7
995.59	53.66
995.946	53.56
996.302	53.55
996.658	53.64
997.013	53.63
997.369	53.74
997.725	53.8
998.08	53.81
998.436	53.83
998.791	53.91
999.147	53.92
999.502	53.91
999.857	54.06
1000.212	54.01
1000.567	53.95
1000.922	54.07
1001.277	54.12
1001.632	54.09
1001.987	54.14
1002.342	54.16
1002.696	54.03
1003.051	54.23
1003.406	54.53
1003.76	54.49
1004.114	54.52
1004.469	54.62
1004.823	54.88
1005.177	54.83
1005.531	54.95
1005.885	55.03
1006.239	55.04
1006.593	55.19
1006.947	55.14
1007.301	55.01
1007.655	55.06
1008.008	55.44
1008.362	55.44
1008.715	55.21
1009.069	55.33
1009.422	55.37
1009.776	55.31
1010.129	55.43
1010.482	55.49
1010.835	55.5
1011.188	55.61
1011.541	55.64
1011.894	55.43
1012.247	55.41
1012.6	55.53
1012.952	55.53
1013.305	55.67
1013.657	55.8
1014.01	55.96
1014.362	55.98
1014.715	56.13
1015.067	56.22
1015.419	56.41
1015.771	56.46
1016.123	56.71
1016.475	56.65
1016.827	56.77
1017.179	56.87
1017.531	56.98
1017.883	56.85
1018.234	57.06
1018.586	57.12
1018.938	57.27
1019.289	57.08
1019.64	57.31
1019.992	57.34
1020.343	57.58
1020.694	57.71
1021.045	57.73
1021.396	57.79
1021.747	58.08
1022.098	58.27
1022.449	58.02
1022.8	58.01
1023.151	58.13
1023.501	58.21
1023.852	58.24
1024.202	58.36
1024.553	58.45
1024.903	58.57
1025.253	58.81
1025.604	58.83
1025.954	58.57
1026.304	59.15
1026.654	59.25
1027.004	59.26
1027.354	59.22
1027.703	59.13
1028.053	59.1
1028.403	59.22
1028.753	59
1029.102	58.91
1029.452	58.93
1029.801	59.18
1030.15	58.82
1030.499	58.64
897.758	1005.08
901.051	1010.71
904.343	1010.69
907.636	1027.81
910.928	998
914.22	997.66
917.511	986.61
920.803	942.4
924.094	938.89
927.384	918.44
930.675	886.71
933.965	881.58
937.255	828.98
940.544	796.07
943.834	759.95
947.123	756.23
950.411	711.14
953.7	696.76
956.988	659.04
960.276	632.15
963.563	624.22
966.851	598.48
970.138	595.1
973.424	578.2
976.711	581.07
979.997	553.05
983.283	548.31
986.568	538.06
989.853	522.87
993.138	513.32
996.423	496.49
999.708	482.56
1002.992	477.78
1006.275	454.59
1009.559	451.55
1012.842	435.1
1016.125	423.6
1019.408	415.69
1022.69	413.5
1025.972	403.95
1029.254	394.05
1032.536	386.38
1035.817	380.12
1039.098	375.87
1042.379	370.48
1045.659	365.75
1048.939	356.95
1052.219	350.53
1055.498	346.81
1058.778	337.09
1062.057	331.03
1065.335	328.98
1068.614	324.43
1071.892	320.98
1075.17	311.54
1078.447	305.67
1081.724	303.27
1085.001	301.58
1088.278	294.88
1091.554	288.9
1094.83	290.24
1098.106	287.61
1101.382	284.18
1104.657	283.1
1107.932	279.08
1111.206	280.56
1114.481	273.67
1117.755	272.14
1121.029	269.43
1124.302	269.73
1127.575	266.48
1130.848	262.38
1134.121	259.96
1137.393	259.46
1140.665	254.8
1143.937	251.85
1147.208	250.6
1150.48	250.47
1153.75	246.58
1157.021	243.18
1160.291	243.47
1163.561	239.56
1166.831	238.93
1170.101	237.08
1173.37	236.48
1176.639	236.47
1179.907	235.13
1183.176	231.43
1186.444	231.33
1189.711	231.24
1192.979	231.25
1196.246	230.28
1199.513	230.65
1202.78	230.23
1206.046	229.71
1209.312	227.6
1212.578	227.85
1215.843	229.08
1219.108	228.57
1222.373	232.76
1225.638	233.7
1228.902	236.54
1232.166	235.99
1235.43	237.29
1238.693	240.26
1241.956	242.82
1245.219	246.43
1248.482	246.01
1251.744	246.36
1255.006	246.2
1258.268	241.94
1261.529	240.57
1264.79	239.49
1268.051	237.16
1271.312	235.92
1274.572	232.66
1277.832	230.58
1281.092	226.36
1284.351	225.17
1287.61	224.83
1290.869	222.11
1294.128	219.68
1297.386	219.48
1300.644	217.31
1303.902	219.11
1307.159	217.72
1310.416	217.8
1313.673	216.99
1316.93	219.43
1320.186	218.96
1323.442	219.31
1326.697	222.31
1329.953	223.24
1333.208	223.85
1336.463	226.14
1339.717	225.71
1342.972	228.33
1346.226	230
1349.479	230.28
1352.733	230.91
1355.986	232.25
1359.238	232.21
1362.491	232.77
1365.743	234.57
1368.995	234.88
1372.247	233.4
1375.498	233.83
1378.749	234.31
1382	231.97
1385.251	232.29
1388.501	230.87
1391.751	230.65
1395	229.6
1398.25	227.83
1401.499	225.79
1404.748	224.64
1407.996	222.53
1411.244	221.1
1414.492	219.5
1417.74	216.77
1420.987	213.17
1424.234	212.56
1427.481	210.25
1430.728	209.7
1433.974	207.46
1437.22	205.64
1440.465	205.01
1443.711	202.43
1446.956	201.11
1450.201	199.18
1453.445	197.6
1456.689	197.3
1459.933	193.15
1463.177	192.27
1466.42	189.03
1469.663	187.71
1472.906	186.29
1476.148	181.78
1479.391	180.43
1482.633	179.05
1485.874	176.77
1489.115	175.4
1492.356	173.19
1495.597	173.92
1498.838	170.94
1502.078	170.28
1505.318	169.41
1508.557	169.67
1511.797	169.66
1515.036	167.9
1518.274	167.65
1521.513	166.87
1524.751	166.38
1527.989	166.45
1531.227	165.58
1534.464	166.06
1537.701	166.2
1540.938	165.5
1544.174	163.38
1547.41	164.16
1550.646	163.74
1553.882	163.48
1557.117	161.57
1560.352	161.01
1563.587	160.82
1566.821	159.86
1570.055	158.91
1573.289	157.16
1576.523	157.62
1579.756	156.7
1582.989	155.87
1586.222	155.9
1589.454	155.6
1592.686	156.96
1595.918	156.59
1599.15	156.11
1602.381	156.25
1605.612	155.96
1608.843	156.08
1612.073	156.04
1615.303	156.94
1618.533	156.81
1621.762	156.42
1624.992	156.87
1628.221	156.28
1631.449	155.82
1634.678	155.85
1637.906	157.18
1641.134	156.66
1644.361	156.93
1647.588	157.2
1650.815	156.77
1654.042	156.25
1657.269	157.19
1660.495	156.84
1663.72	156.71
1666.946	157.34
1670.171	157.77
1673.396	157.15
1676.621	157.33
1679.845	158
1683.069	158.14
1686.293	158.78
1689.517	159.33
1692.74	159.49
1695.963	159.67
1699.185	160.99
1702.408	161
1705.63	161.36
1708.852	162.23
1712.073	162.16
1715.294	161.98
1718.515	163.23
1721.736	162.96
1724.956	163.42
1728.176	163.39
1731.396	164.57
1734.616	163.55
1737.835	164.35
1741.054	163.56
1744.272	163
1747.491	165.32
1750.709	165.21
1753.927	164.32
1757.144	164.14
1760.361	164.25
1763.578	164.84
1766.795	164.08
1770.011	166.47
1773.227	165.71
1776.443	167.19
1779.658	168
1782.874	167.36
1786.089	167.51
1789.303	167.91
1792.518	170.08
1795.732	169.86
1798.945	170.9
1802.159	171.52
1805.372	170.33
1808.585	173.73
1811.797	174.15
1815.01	174.22
1818.222	175.21
1821.434	177.68
1824.645	177.84
1827.856	180.04
1831.067	181.71
1834.278	181.38
1837.488	182.6
1840.698	184.29
1843.908	182.63
1847.117	183.35
1850.326	184.38
1853.535	183.31
1856.744	184.83
1859.952	184.62
1863.16	182.88
1866.368	180.95
1869.575	182.17
1872.782	179.16
1875.989	178
1879.196	176.78
1882.402	175.2
1885.608	175.04
1888.814	175.08
1892.019	174.23
1895.224	173.16
1898.429	172.78
1901.634	173.7
1904.838	173.29
1908.042	174.42
1911.246	174.27
1914.449	175.36
1917.652	175.39
1920.855	175.26
1924.058	175.53
1927.26	174.16
1930.462	175.01
1933.664	176.44
1936.865	174.9
1940.066	174.43
1943.267	174.19
1946.467	174.24
1949.668	174.82
1952.868	177.21
1956.067	177.75
1959.267	177.47
1962.466	178.17
1965.665	177.71
1968.863	178.3
1972.061	181.45
1975.259	183.04
1978.457	183.75
1981.654	186.04
1984.852	186.64
1988.048	185.71
1991.245	187.56
1994.441	189.55
1997.637	191.07
2000.833	194.5
2004.028	196.67
2007.223	197.58
2010.418	199.33
2013.613	203.94
2016.807	205.27
2020.001	206.94
2023.194	210.82
2026.388	215.33
2029.581	220.64
2032.774	222.63
2035.966	226.01
2039.158	226.88
2042.35	230.65
2045.542	232.49
2048.733	235.34
2051.924	239.17
2055.115	243.53
2058.306	243.96
2061.496	245.71
2064.686	244.89
2067.875	249.75
2071.065	251.32
2074.254	250.11
2077.442	254.91
2080.631	256.1
2083.819	258.19
2087.007	257.86
2090.195	262.06
2093.382	264.43
2096.569	263.11
2099.756	267.99
2102.942	268.72
2106.128	270.14
2109.314	277.13
2112.5	274.69
2115.685	281.41
2118.87	282.43
2122.055	287.64
2125.239	287.92
2128.424	290.39
2131.608	293.97
2134.791	299.51
2137.974	298.91
2141.157	301.69
2144.34	301.4
2147.523	307.84
2150.705	305.44
2153.887	308.04
2157.068	309.83
2160.25	307.45
2163.431	309.55
2166.611	312.92
2169.792	316.37
2172.972	321.31
2176.152	323.85
2179.331	327.85
2182.511	331.14
2185.69	334.96
2188.868	342.42
2192.047	342.73
2195.225	352.65
2198.403	360.68
2201.58	366.75
2204.758	374.62
2207.935	381.08
2211.111	388.81
2214.288	393
2217.464	394.29
2220.64	401.23
2223.815	404.2
2226.991	421.08
2230.166	421.31
2233.34	427.67
2236.515	435.95
2239.689	435.77
2242.863	438.46
2246.036	447.63
2249.209	444.33
2252.382	452.83
2255.555	464.78
2258.727	468.37
2261.9	472.47
2265.071	477.45
2268.243	487.51
2271.414	490.81
2274.585	501.19
2277.756	506.8
2280.926	511.26
2284.096	525.2
2287.266	535.7
2290.436	540.53
2293.605	551.11
2296.774	565.66
2299.942	583.1
2303.111	584.69
2306.279	597.55
2309.447	607.04
2312.614	624.49
2315.781	640.81
2318.948	667.52
2322.115	657.2
2325.281	696.07
2328.447	686.01
2331.613	707.96
2334.779	701.55
2337.944	731.46
2341.109	739.71
2344.274	758.17
2347.438	784.32
2350.602	787.2
2353.766	814.03
2356.929	827.98
2360.092	816.21
2363.255	871.82
2366.418	875.52
2369.58	893.21
2372.742	948.26
2375.904	971.15
2379.066	966.77
2382.227	944.1
2385.388	1020.84
2388.548	1018.31
2391.709	1030.33
2394.869	1151.66
2398.029	1104.81
2401.188	1137.45
2404.347	1126.54
2407.506	1109.09
2410.665	1139.72
2413.823	1206.95
2416.981	1279.03
2420.139	1241.03
2423.296	1224.1
2426.453	1280.57
2429.61	1228.7
2432.767	1281.59
2435.923	1265
2439.079	1394.17
2442.235	1413.65
2445.391	1401.75
2448.546	1387.28
2451.701	1352.67
2454.855	1349.41
2458.009	1442.02
2461.163	1494.73
2464.317	1549.6
2467.471	1590.06
2470.624	1591.24
2473.777	1547.59
2476.929	1498.59
2480.082	1453.94
2483.234	1442.36
2486.385	1515.87
2489.537	1519.86
2492.688	1568.77
2495.839	1530.65
2498.989	1495.87
2502.14	1498.28
2505.29	1513.98
2508.439	1534.34
2511.589	1536.83
2514.738	1684.16
2517.887	1648.93
2521.035	1730.04
2524.183	1753.88
2527.331	1763.57
2530.479	1749.77
2533.627	1765.69
