Data from C_3_HIR_WI_4N_Splice17_14-05-55-832.txt Node
Date: Sat Mar 07 14:05:55 EST 2020
User: sa697716
Spectrometer: NQ5500242
Trigger mode: 0
Integration Time (sec): 1.450000E-1
Scans to average: 20
Nonlinearity correction enabled: false
Boxcar width: 5
Storing dark spectrum: false
XAxis mode: Wavelengths
Number of Pixels in Spectrum: 512
>>>>>Begin Spectral Data<<<<<
187.83	9.9
188.298	39.52
188.766	21.4
189.233	29.77
189.701	20.93
190.169	24.29
190.636	-5.84
191.104	-35.82
191.571	-39.28
192.039	41.08
192.506	-242.68
192.974	105.73
193.441	222.83
193.908	51.75
194.375	48.22
194.842	31.04
195.31	34.36
195.777	-266.84
196.244	34.99
196.711	51.1
197.177	54.79
197.644	54.28
198.111	54.2
198.578	54.75
199.045	55.3
199.511	55.34
199.978	55.79
200.445	56.06
200.911	56.29
201.378	56.62
201.844	56.73
202.31	56.29
202.777	56.36
203.243	56.54
203.709	56.19
204.176	55.69
204.642	55.47
205.108	55.21
205.574	54.69
206.04	54.2
206.506	53.55
206.972	53.17
207.438	52.57
207.903	51.79
208.369	50.6
208.835	49.51
209.301	48.42
209.766	46.81
210.232	45.32
210.697	43.92
211.163	42.71
211.628	41.36
212.094	40.19
212.559	39.32
213.024	38.44
213.49	37.39
213.955	36.44
214.42	35.55
214.885	34.58
215.35	33.03
215.815	31.37
216.28	29.05
216.745	26.51
217.21	23.92
217.675	21.66
218.14	19.61
218.604	17.89
219.069	16.39
219.534	15.15
219.998	14.07
220.463	13.22
220.927	12.43
221.392	11.85
221.856	11.4
222.32	10.98
222.785	10.6
223.249	10.25
223.713	9.93
224.177	9.69
224.642	9.44
225.106	9.2
225.57	8.94
226.034	8.76
226.497	8.59
226.961	8.4
227.425	8.22
227.889	8.04
228.353	7.9
228.816	7.77
229.28	7.62
229.744	7.48
230.207	7.36
230.671	7.25
231.134	7.13
231.597	7.02
232.061	6.93
232.524	6.83
232.987	6.75
233.45	6.67
233.914	6.57
234.377	6.5
234.84	6.43
235.303	6.37
235.766	6.32
236.229	6.24
236.691	6.17
237.154	6.11
237.617	6.05
238.08	5.98
238.542	5.91
239.005	5.86
239.468	5.8
239.93	5.74
240.393	5.69
240.855	5.62
241.317	5.57
241.78	5.53
242.242	5.46
242.704	5.42
243.166	5.37
243.629	5.32
244.091	5.27
244.553	5.21
245.015	5.15
245.477	5.09
245.939	5.05
246.4	5
246.862	4.94
247.324	4.91
247.786	4.85
248.247	4.8
248.709	4.75
249.17	4.71
249.632	4.68
250.093	4.65
250.555	4.61
251.016	4.57
251.477	4.53
251.939	4.51
252.4	4.48
252.861	4.44
253.322	4.42
253.783	4.4
254.244	4.38
254.705	4.35
255.166	4.32
255.627	4.3
256.088	4.28
256.549	4.25
257.009	4.22
257.47	4.19
257.931	4.15
258.391	4.12
258.852	4.08
259.312	4.04
259.773	4
260.233	3.97
260.694	3.94
261.154	3.91
261.614	3.88
262.074	3.85
262.534	3.82
262.994	3.8
263.455	3.78
263.915	3.76
264.374	3.74
264.834	3.72
265.294	3.7
265.754	3.69
266.214	3.67
266.673	3.65
267.133	3.64
267.593	3.63
268.052	3.61
268.512	3.6
268.971	3.59
269.431	3.58
269.89	3.57
270.349	3.56
270.809	3.54
271.268	3.54
271.727	3.53
272.186	3.52
272.645	3.52
273.104	3.51
273.563	3.5
274.022	3.49
274.481	3.49
274.94	3.48
275.399	3.47
275.857	3.46
276.316	3.45
276.775	3.44
277.233	3.43
277.692	3.42
278.15	3.41
278.609	3.4
279.067	3.4
279.525	3.39
279.984	3.39
280.442	3.38
280.9	3.38
281.358	3.38
281.816	3.38
282.274	3.38
282.732	3.38
283.19	3.38
283.648	3.38
284.106	3.37
284.564	3.37
285.021	3.37
285.479	3.37
285.937	3.36
286.394	3.35
286.852	3.34
287.309	3.34
287.767	3.32
288.224	3.31
288.682	3.29
289.139	3.27
289.596	3.26
290.053	3.24
290.511	3.22
290.968	3.21
291.425	3.19
291.882	3.18
292.339	3.16
292.796	3.15
293.252	3.14
293.709	3.13
294.166	3.13
294.623	3.13
295.079	3.12
295.536	3.11
295.992	3.1
296.449	3.1
296.905	3.1
297.362	3.09
297.818	3.08
298.274	3.07
298.731	3.06
299.187	3.05
299.643	3.03
300.099	3.03
300.555	3.02
301.011	3.01
301.467	3.01
301.923	3
302.379	2.99
302.835	2.99
303.291	2.98
303.746	2.98
304.202	2.99
304.658	2.99
305.113	2.98
305.569	2.98
306.024	2.98
306.479	2.98
306.935	2.97
307.39	2.97
307.845	2.98
308.301	2.99
308.756	2.98
309.211	2.98
309.666	2.99
310.121	2.99
310.576	2.99
311.031	2.99
311.486	2.99
311.94	3
312.395	3
312.85	3
313.305	3
313.759	3
314.214	3
314.668	2.99
315.123	3
315.577	2.99
316.032	2.99
316.486	2.99
316.94	2.98
317.394	2.97
317.849	2.97
318.303	2.96
318.757	2.94
319.211	2.94
319.665	2.92
320.119	2.91
320.572	2.89
321.026	2.88
321.48	2.87
321.934	2.86
322.387	2.85
322.841	2.85
323.295	2.84
323.748	2.84
324.202	2.84
324.655	2.83
325.108	2.84
325.562	2.84
326.015	2.84
326.468	2.84
326.921	2.84
327.374	2.84
327.827	2.84
328.28	2.83
328.733	2.83
329.186	2.83
329.639	2.83
330.092	2.84
330.545	2.83
330.997	2.83
331.45	2.84
331.903	2.84
332.355	2.85
332.808	2.86
333.26	2.86
333.713	2.86
334.165	2.86
334.617	2.87
335.069	2.87
335.522	2.87
335.974	2.87
336.426	2.86
336.878	2.85
337.33	2.86
337.782	2.85
338.234	2.86
338.686	2.87
339.137	2.88
339.589	2.86
340.041	2.86
340.493	2.85
340.944	2.84
341.396	2.84
341.847	2.83
342.299	2.81
342.75	2.8
343.201	2.78
343.653	2.76
344.104	2.75
344.555	2.74
345.006	2.73
345.457	2.72
345.908	2.72
346.359	2.72
346.81	2.72
347.261	2.71
347.712	2.71
348.163	2.7
348.613	2.7
349.064	2.7
349.515	2.7
349.965	2.71
350.416	2.7
350.866	2.7
351.317	2.69
351.767	2.69
352.217	2.69
352.668	2.69
353.118	2.69
353.568	2.69
354.018	2.7
354.468	2.7
354.918	2.69
355.368	2.7
355.818	2.7
356.268	2.7
356.718	2.69
357.168	2.7
357.617	2.7
358.067	2.7
358.517	2.71
358.966	2.72
359.416	2.72
359.865	2.72
360.315	2.73
360.764	2.74
361.213	2.74
361.663	2.74
362.112	2.75
362.561	2.76
363.01	2.77
363.459	2.75
363.908	2.76
364.357	2.76
364.806	2.77
365.255	2.77
365.703	2.79
366.152	2.81
366.601	2.83
367.05	2.83
367.498	2.84
367.947	2.85
368.395	2.88
368.844	2.89
369.292	2.91
369.74	2.93
370.189	2.94
370.637	2.93
371.085	2.95
371.533	2.96
371.981	2.98
372.429	2.99
372.877	3.01
373.325	3.03
373.773	3.06
374.221	3.07
374.669	3.09
375.116	3.11
375.564	3.13
376.012	3.15
376.459	3.17
376.907	3.2
377.354	3.22
377.801	3.25
378.249	3.27
378.696	3.29
379.143	3.31
379.591	3.34
380.038	3.37
380.485	3.39
380.932	3.41
381.379	3.44
381.826	3.46
382.273	3.49
382.72	3.5
383.166	3.52
383.613	3.54
384.06	3.56
384.506	3.58
384.953	3.61
385.4	3.65
385.846	3.68
386.292	3.71
386.739	3.74
387.185	3.77
387.631	3.81
388.078	3.83
388.524	3.86
388.97	3.89
389.416	3.92
389.862	3.95
390.308	3.99
390.754	4.02
391.2	4.05
391.645	4.07
392.091	4.1
392.537	4.13
392.983	4.15
393.428	4.19
393.874	4.22
394.319	4.25
394.765	4.27
395.21	4.28
395.655	4.31
396.101	4.34
396.546	4.37
396.991	4.39
397.436	4.42
397.881	4.45
398.326	4.48
398.771	4.51
399.216	4.52
399.661	4.54
400.106	4.57
400.551	4.57
400.995	4.57
401.44	4.58
401.885	4.59
402.329	4.6
402.774	4.6
403.218	4.62
403.663	4.62
404.107	4.63
404.551	4.63
404.995	4.64
405.44	4.64
405.884	4.65
406.328	4.66
406.772	4.66
407.216	4.66
407.66	4.67
408.104	4.66
408.547	4.66
408.991	4.67
409.435	4.67
409.879	4.69
410.322	4.7
410.766	4.72
411.209	4.73
411.653	4.75
412.096	4.77
412.54	4.78
412.983	4.79
413.426	4.82
413.869	4.83
414.312	4.85
414.756	4.86
415.199	4.86
415.642	4.87
416.085	4.88
416.527	4.87
416.97	4.85
417.413	4.85
417.856	4.85
418.298	4.83
418.741	4.83
419.184	4.82
419.626	4.82
420.069	4.82
420.511	4.82
420.953	4.82
421.396	4.83
421.838	4.83
422.28	4.84
422.722	4.86
423.164	4.86
423.606	4.87
424.048	4.87
424.49	4.85
424.932	4.85
425.374	4.83
425.816	4.81
426.258	4.79
426.699	4.78
427.141	4.75
427.582	4.74
428.024	4.74
428.465	4.74
428.907	4.73
429.348	4.72
429.789	4.72
430.231	4.73
430.672	4.74
431.113	4.76
431.554	4.78
431.995	4.79
432.436	4.8
432.877	4.8
433.318	4.81
433.759	4.83
434.2	4.86
434.64	4.87
435.081	4.88
435.522	4.91
435.962	4.94
436.403	4.95
436.843	4.96
437.284	4.96
437.724	4.97
438.164	4.97
438.604	4.98
439.045	4.98
439.485	4.99
439.925	5
440.365	5
440.805	5
441.245	5.01
441.685	5.04
442.125	5.06
442.564	5.09
443.004	5.1
443.444	5.12
443.883	5.15
444.323	5.15
444.762	5.18
445.202	5.19
445.641	5.23
446.081	5.24
446.52	5.24
446.959	5.27
447.398	5.29
447.837	5.31
448.276	5.32
448.716	5.33
449.154	5.37
449.593	5.39
450.032	5.41
450.471	5.42
450.91	5.42
451.349	5.45
451.787	5.45
452.226	5.46
452.664	5.46
453.103	5.47
453.541	5.46
453.98	5.46
454.418	5.43
454.856	5.43
455.295	5.41
455.733	5.39
456.171	5.37
456.609	5.36
457.047	5.33
457.485	5.31
457.923	5.3
458.361	5.29
458.798	5.28
459.236	5.27
459.674	5.25
460.111	5.25
460.549	5.27
460.987	5.27
461.424	5.27
461.862	5.29
462.299	5.31
462.736	5.29
463.173	5.3
463.611	5.3
464.048	5.31
464.485	5.32
464.922	5.31
465.359	5.3
465.796	5.3
466.233	5.31
466.67	5.3
467.106	5.31
467.543	5.32
467.98	5.31
468.416	5.31
468.853	5.31
469.29	5.31
469.726	5.33
470.162	5.33
470.599	5.35
471.035	5.35
471.471	5.35
471.907	5.35
472.344	5.36
472.78	5.36
473.216	5.36
473.652	5.37
474.088	5.35
474.523	5.36
474.959	5.35
475.395	5.32
475.831	5.32
476.266	5.31
476.702	5.3
477.138	5.28
477.573	5.29
478.008	5.3
478.444	5.28
478.879	5.29
479.314	5.27
479.75	5.28
480.185	5.27
480.62	5.26
481.055	5.25
481.49	5.24
481.925	5.25
482.36	5.24
482.795	5.23
483.229	5.24
483.664	5.25
484.099	5.26
484.534	5.25
484.968	5.27
485.403	5.28
485.837	5.3
486.271	5.32
486.706	5.34
487.14	5.36
487.574	5.38
488.009	5.4
488.443	5.42
488.877	5.46
489.311	5.49
489.745	5.52
490.179	5.57
490.613	5.62
491.046	5.66
491.48	5.7
491.914	5.75
492.348	5.8
492.781	5.88
493.215	5.94
493.648	5.99
494.082	6.05
494.515	6.12
494.948	6.18
495.382	6.25
495.815	6.32
496.248	6.41
496.681	6.49
497.114	6.58
497.547	6.66
497.98	6.75
498.413	6.85
498.846	6.97
499.279	7.08
499.711	7.19
500.144	7.32
500.577	7.45
501.009	7.57
501.442	7.71
501.874	7.85
502.306	7.99
502.739	8.16
503.171	8.31
503.603	8.47
504.036	8.63
504.468	8.81
504.9	8.97
505.332	9.14
505.764	9.33
506.196	9.52
506.627	9.71
507.059	9.92
507.491	10.12
507.923	10.33
508.354	10.56
508.786	10.78
509.217	11.01
509.649	11.26
510.08	11.51
510.512	11.77
510.943	12.02
511.374	12.27
511.805	12.53
512.237	12.8
512.668	13.07
513.099	13.34
513.53	13.61
513.961	13.89
514.391	14.17
514.822	14.45
515.253	14.72
515.684	14.99
516.114	15.29
516.545	15.57
516.975	15.86
517.406	16.14
517.836	16.41
518.267	16.71
518.697	16.98
519.127	17.24
519.558	17.52
519.988	17.81
520.418	18.08
520.848	18.32
521.278	18.57
521.708	18.95
522.138	19.2
522.567	19.44
522.997	19.68
523.427	19.9
523.857	20.14
524.286	20.37
524.716	20.57
525.145	20.78
525.575	20.99
526.004	21.18
526.433	21.25
526.863	21.43
527.292	21.62
527.721	21.78
528.15	21.94
528.579	22.08
529.008	22.22
529.437	22.35
529.866	22.48
530.295	22.61
530.724	22.75
531.152	22.86
531.581	22.98
532.01	23.08
532.438	23.18
532.867	23.28
533.295	23.38
533.723	23.47
534.152	23.55
534.58	23.64
535.008	23.69
535.436	23.75
535.865	23.8
536.293	23.84
536.721	23.88
537.149	23.94
537.576	23.96
538.004	24.01
538.432	24.04
538.86	24.08
539.287	24.09
539.715	24.13
540.143	24.16
540.57	24.19
540.998	24.22
541.425	24.25
541.852	24.26
542.28	24.3
542.707	24.31
543.134	24.34
543.561	24.38
543.988	24.4
544.415	24.4
544.842	24.41
545.269	24.44
545.696	24.48
546.123	24.49
546.549	24.52
546.976	24.54
547.403	24.57
547.829	24.59
548.256	24.6
548.682	24.62
549.108	24.66
549.535	24.69
549.961	24.7
550.387	24.69
550.813	24.7
551.24	24.71
551.666	24.72
552.092	24.71
552.518	24.7
552.943	24.68
553.369	24.69
553.795	24.65
554.221	24.63
554.646	24.6
555.072	24.57
555.498	24.53
555.923	24.47
556.349	24.43
556.774	24.38
557.199	24.34
557.625	24.28
558.05	24.21
558.475	24.17
558.9	24.11
559.325	24.07
559.75	24
560.175	23.93
560.6	23.85
561.025	23.76
561.449	23.68
561.874	23.56
562.299	23.45
562.723	23.34
563.148	23.21
563.572	23.09
563.997	22.95
564.421	22.82
564.846	22.68
565.27	22.55
565.694	22.43
566.118	22.28
566.542	22.16
566.966	22.01
567.39	21.86
567.814	21.73
568.238	21.58
568.662	21.43
569.086	21.29
569.509	21.16
569.933	21.02
570.357	20.87
570.78	20.71
571.204	20.57
571.627	20.45
572.05	20.33
572.474	20.2
572.897	20.08
573.32	19.95
573.743	19.83
574.166	19.71
574.589	19.59
575.012	19.47
575.435	19.38
575.858	19.28
576.281	19.17
576.704	19.07
577.126	18.97
577.549	18.88
577.972	18.79
578.394	18.69
578.817	18.61
579.239	18.54
579.661	18.47
580.084	18.39
580.506	18.31
580.928	18.23
581.35	18.16
581.772	18.08
582.194	18.01
582.616	17.96
583.038	17.89
583.46	17.82
583.882	17.74
584.303	17.67
584.725	17.61
585.147	17.54
585.568	17.49
585.99	17.42
586.411	17.36
586.833	17.29
587.254	17.22
587.675	17.17
588.096	17.12
588.518	17.06
588.939	17.02
589.36	16.97
589.781	16.93
590.202	16.89
590.623	16.86
591.043	16.82
591.464	16.78
591.885	16.73
592.305	16.7
592.726	16.67
593.147	16.65
593.567	16.61
593.987	16.57
594.408	16.53
594.828	16.48
595.248	16.44
595.669	16.42
596.089	16.38
596.509	16.35
596.929	16.32
597.349	16.28
597.769	16.25
598.189	16.2
598.608	16.18
599.028	16.16
599.448	16.13
599.867	16.1
600.287	16.06
600.706	16.02
601.126	15.98
601.545	15.94
601.965	15.9
602.384	15.85
602.803	15.8
603.222	15.74
603.641	15.67
604.061	15.61
604.48	15.55
604.898	15.48
605.317	15.41
605.736	15.35
606.155	15.29
606.574	15.21
606.992	15.14
607.411	15.08
607.829	14.99
608.248	14.9
608.666	14.83
609.085	14.74
609.503	14.68
609.921	14.6
610.339	14.52
610.758	14.44
611.176	14.35
611.594	14.27
612.012	14.19
612.43	14.14
612.847	14.08
613.265	14
613.683	13.93
614.101	13.86
614.518	13.79
614.936	13.71
615.353	13.64
615.771	13.58
616.188	13.51
616.606	13.45
617.023	13.38
617.44	13.32
617.857	13.27
618.274	13.22
618.691	13.17
619.108	13.12
619.525	13.07
619.942	13.03
620.359	12.99
620.776	12.96
621.192	12.92
621.609	12.89
622.026	12.87
622.442	12.84
622.859	12.82
623.275	12.79
623.691	12.76
624.108	12.74
624.524	12.72
624.94	12.71
625.356	12.7
625.772	12.69
626.188	12.68
626.604	12.66
627.02	12.66
627.436	12.65
627.852	12.63
628.268	12.63
628.683	12.62
629.099	12.62
629.514	12.61
629.93	12.59
630.345	12.56
630.761	12.52
631.176	12.48
631.591	12.42
632.007	12.38
632.422	12.34
632.837	12.28
633.252	12.21
633.667	12.13
634.082	12.05
634.497	11.97
634.911	11.9
635.326	11.82
635.741	11.74
636.155	11.65
636.57	11.54
636.984	11.44
637.399	11.35
637.813	11.25
638.228	11.14
638.642	11.02
639.056	10.91
639.47	10.81
639.884	10.69
640.298	10.56
640.712	10.45
641.126	10.33
641.54	10.21
641.954	10.08
642.368	9.96
642.781	9.85
643.195	9.74
643.609	9.63
644.022	9.5
644.436	9.39
644.849	9.29
645.262	9.19
645.676	9.08
646.089	9
646.502	8.92
646.915	8.85
647.328	8.78
647.741	8.71
648.154	8.64
648.567	8.59
648.98	8.54
649.393	8.49
649.805	8.44
650.218	8.4
650.631	8.35
651.043	8.3
651.456	8.25
651.868	8.2
652.28	8.15
652.693	8.1
653.105	8.04
653.517	7.98
653.929	7.93
654.341	7.87
654.753	7.8
655.165	7.74
655.577	7.67
655.989	7.59
656.401	7.51
656.813	7.43
657.224	7.34
657.636	7.25
658.047	7.18
658.459	7.09
658.87	7
659.282	6.9
659.693	6.8
660.104	6.7
660.515	6.61
660.926	6.53
661.338	6.44
661.749	6.35
662.159	6.27
662.57	6.19
662.981	6.11
663.392	6.03
663.803	5.96
664.213	5.89
664.624	5.83
665.035	5.77
665.445	5.71
665.855	5.66
666.266	5.62
666.676	5.58
667.086	5.53
667.497	5.5
667.907	5.47
668.317	5.45
668.727	5.43
669.137	5.4
669.547	5.38
669.956	5.37
670.366	5.36
670.776	5.35
671.186	5.35
671.595	5.34
672.005	5.33
672.414	5.33
672.824	5.34
673.233	5.35
673.642	5.38
674.052	5.39
674.461	5.41
674.87	5.42
675.279	5.44
675.688	5.47
676.097	5.51
676.506	5.55
676.915	5.59
677.323	5.63
677.732	5.67
678.141	5.71
678.549	5.76
678.958	5.83
679.366	5.91
679.775	5.97
680.183	6.04
680.592	6.14
681	6.24
681.408	6.34
681.816	6.45
682.224	6.59
682.632	6.74
683.04	6.9
683.448	7.07
683.856	7.25
684.264	7.47
684.671	7.69
685.079	7.93
685.487	8.2
685.894	8.51
686.302	8.83
686.709	9.16
687.116	9.52
687.524	9.89
687.931	10.29
688.338	10.71
688.745	11.15
689.152	11.6
689.559	12.1
689.966	12.6
690.373	13.11
690.78	13.63
691.187	14.16
691.593	14.68
692	15.23
692.407	15.78
692.813	16.33
693.22	16.89
693.626	17.46
694.032	18.01
694.439	18.55
694.845	19.1
695.251	19.65
695.657	20.17
696.063	20.75
696.469	21.3
696.875	21.83
697.281	22.37
697.687	22.88
698.093	23.4
698.498	23.9
698.904	24.39
699.31	24.88
699.715	25.36
700.12	25.84
700.526	26.27
700.931	26.72
701.337	27.18
701.742	27.59
702.147	28.01
702.552	28.43
702.957	28.82
703.362	29.22
703.767	29.58
704.172	29.95
704.577	30.3
704.981	30.68
705.386	31.02
705.791	31.34
706.195	31.69
706.6	32.03
707.004	32.36
707.408	32.72
707.813	33.04
708.217	33.35
708.621	33.67
709.025	33.98
709.43	34.26
709.834	34.56
710.237	34.86
710.641	35.14
711.045	35.41
711.449	35.68
711.853	35.93
712.256	36.17
712.66	36.44
713.064	36.68
713.467	36.93
713.87	37.18
714.274	37.38
714.677	37.62
715.08	37.82
715.484	38.05
715.887	38.28
716.29	38.47
716.693	38.69
717.096	38.9
717.499	39.09
717.901	39.29
718.304	39.48
718.707	39.69
719.109	39.88
719.512	40.06
719.915	40.22
720.317	40.36
720.719	40.51
721.122	40.66
721.524	40.79
721.926	40.97
722.328	41.13
722.731	41.27
723.133	41.4
723.535	41.56
723.937	41.69
724.338	41.82
724.74	41.96
725.142	42.15
725.544	42.28
725.945	42.45
726.347	42.51
726.748	42.61
727.15	42.7
727.551	42.81
727.952	42.88
728.354	43
728.755	43.09
729.156	43.2
729.557	43.19
729.958	43.26
730.359	43.29
730.76	43.39
731.161	43.44
731.562	43.51
731.962	43.56
732.363	43.62
732.763	43.66
733.164	43.71
733.564	43.76
733.965	43.85
734.365	43.93
734.766	43.99
735.166	44.01
735.566	44.07
735.966	44.12
736.366	44.16
736.766	44.2
737.166	44.25
737.566	44.3
737.966	44.32
738.365	44.34
738.765	44.36
739.165	44.39
739.564	44.45
739.964	44.47
740.363	44.49
740.763	44.52
741.162	44.55
741.561	44.54
741.96	44.56
742.36	44.61
742.759	44.64
743.158	44.63
743.557	44.65
743.955	44.68
744.354	44.72
744.753	44.77
745.152	44.8
745.55	44.83
745.949	44.89
746.348	44.92
746.746	44.93
747.144	44.94
747.543	44.97
747.941	45.01
748.339	45
748.737	45
749.136	44.98
749.534	45
749.932	44.97
750.33	44.97
750.727	44.97
751.125	44.97
751.523	44.95
751.921	44.97
752.318	44.96
752.716	44.96
753.113	44.97
753.511	44.99
753.908	44.99
754.305	45.01
754.703	44.97
755.1	44.97
755.497	44.97
755.894	44.98
756.291	44.98
756.688	44.97
757.085	44.95
757.482	44.95
757.878	44.93
758.275	44.93
758.672	44.92
759.068	44.96
759.465	44.95
759.861	44.96
760.258	44.97
760.654	44.95
761.05	44.95
761.447	44.97
761.843	44.95
762.239	44.96
762.635	44.93
763.031	44.93
763.427	44.9
763.822	44.91
764.218	44.91
764.614	44.92
765.01	44.92
765.405	44.91
765.801	44.87
766.196	44.88
766.592	44.84
766.987	44.83
767.382	44.81
767.778	44.83
768.173	44.83
768.568	44.81
768.963	44.81
769.358	44.81
769.753	44.82
770.148	44.84
770.542	44.86
770.937	44.9
771.332	44.93
771.726	44.94
772.121	44.93
772.515	44.93
772.91	44.94
773.304	44.93
773.699	44.97
774.093	44.95
774.487	44.95
774.881	44.97
775.275	44.97
775.669	44.95
776.063	44.94
776.457	44.94
776.851	44.92
777.245	44.9
777.638	44.88
778.032	44.85
778.425	44.88
778.819	44.91
779.212	44.9
779.606	44.91
779.999	44.91
780.392	44.96
780.786	44.97
781.179	45
781.572	45.04
781.965	45.06
782.358	45.08
782.751	45.07
783.143	45.06
783.536	45.05
783.929	45.05
784.322	45.07
784.714	45.06
785.107	45.08
785.499	45.09
785.891	45.08
786.284	45.11
786.676	45.12
787.068	45.11
787.46	45.12
787.852	45.14
788.245	45.14
788.636	45.12
789.028	45.14
789.42	45.14
789.812	45.15
790.204	45.15
790.595	45.15
790.987	45.15
791.378	45.2
791.77	45.2
792.161	45.17
792.553	45.2
792.944	45.2
793.335	45.21
793.726	45.21
794.117	45.17
794.508	45.16
794.899	45.15
795.29	45.16
795.681	45.12
796.072	45.14
796.463	45.19
796.853	45.17
797.244	45.18
797.634	45.16
798.025	45.19
798.415	45.21
798.806	45.23
799.196	45.24
799.586	45.25
799.976	45.27
800.366	45.26
800.756	45.26
801.146	45.28
801.536	45.31
801.926	45.31
802.316	45.33
802.706	45.34
803.095	45.38
803.485	45.4
803.874	45.41
804.264	45.44
804.653	45.46
805.043	45.46
805.432	45.48
805.821	45.51
806.21	45.5
806.599	45.49
806.988	45.5
807.377	45.48
807.766	45.48
808.155	45.47
808.544	45.46
808.933	45.47
809.321	45.48
809.71	45.49
810.098	45.46
810.487	45.5
810.875	45.52
811.264	45.54
811.652	45.55
812.04	45.58
812.428	45.61
812.816	45.63
813.204	45.61
813.592	45.59
813.98	45.63
814.368	45.64
814.756	45.64
815.144	45.63
815.531	45.61
815.919	45.62
816.306	45.62
816.694	45.6
817.081	45.61
817.469	45.65
817.856	45.67
818.243	45.64
818.63	45.62
819.017	45.61
819.404	45.61
819.791	45.64
820.178	45.65
820.565	45.61
820.952	45.62
821.339	45.6
821.725	45.61
822.112	45.62
822.498	45.64
822.885	45.69
823.271	45.69
823.657	45.67
824.044	45.67
824.43	45.66
824.816	45.66
825.202	45.64
825.588	45.65
825.974	45.62
826.36	45.59
826.746	45.57
827.132	45.55
827.517	45.57
827.903	45.6
828.289	45.59
828.674	45.59
829.06	45.61
829.445	45.61
829.83	45.61
830.216	45.61
830.601	45.6
830.986	45.61
831.371	45.57
831.756	45.55
832.141	45.56
832.526	45.55
832.911	45.53
833.295	45.51
833.68	45.51
834.065	45.5
834.449	45.47
834.834	45.48
835.218	45.47
835.603	45.47
835.987	45.45
836.371	45.41
836.755	45.38
837.139	45.36
837.524	45.36
837.908	45.38
838.291	45.39
838.675	45.37
839.059	45.36
839.443	45.34
839.827	45.32
840.21	45.3
840.594	45.31
840.977	45.31
841.361	45.31
841.744	45.25
842.127	45.22
842.511	45.2
842.894	45.21
843.277	45.19
843.66	45.18
844.043	45.19
844.426	45.2
844.809	45.21
845.191	45.21
845.574	45.22
845.957	45.28
846.339	45.27
846.722	45.27
847.104	45.28
847.487	45.29
847.869	45.29
848.252	45.29
848.634	45.31
849.016	45.3
849.398	45.32
849.78	45.31
850.162	45.29
850.544	45.3
850.926	45.31
851.307	45.31
851.689	45.31
852.071	45.31
852.452	45.3
852.834	45.29
853.215	45.28
853.597	45.29
853.978	45.28
854.359	45.31
854.741	45.32
855.122	45.3
855.503	45.28
855.884	45.29
856.265	45.3
856.646	45.3
857.026	45.32
857.407	45.35
857.788	45.32
858.169	45.35
858.549	45.34
858.93	45.35
859.31	45.37
859.69	45.39
860.071	45.4
860.451	45.4
860.831	45.4
861.211	45.4
861.591	45.39
861.971	45.4
862.351	45.4
862.731	45.4
863.111	45.38
863.491	45.38
863.87	45.36
864.25	45.33
864.629	45.35
865.009	45.36
865.388	45.36
865.768	45.37
866.147	45.37
866.526	45.35
866.905	45.35
867.284	45.36
867.663	45.35
868.042	45.36
868.421	45.38
868.8	45.37
869.179	45.36
869.558	45.33
869.936	45.29
870.315	45.29
870.693	45.3
871.072	45.32
871.45	45.35
871.828	45.35
872.207	45.34
872.585	45.32
872.963	45.32
873.341	45.3
873.719	45.34
874.097	45.38
874.475	45.39
874.853	45.38
875.23	45.39
875.608	45.35
875.986	45.36
876.363	45.38
876.741	45.39
877.118	45.38
877.495	45.42
877.873	45.4
878.25	45.39
878.627	45.4
879.004	45.42
879.381	45.41
879.758	45.43
880.135	45.42
880.512	45.42
880.889	45.41
881.265	45.41
881.642	45.41
882.019	45.41
882.395	45.39
882.772	45.37
883.148	45.36
883.524	45.33
883.901	45.3
884.277	45.28
884.653	45.25
885.029	45.24
885.405	45.25
885.781	45.24
886.157	45.24
886.532	45.25
886.908	45.23
887.284	45.22
887.659	45.2
888.035	45.18
888.411	45.19
888.786	45.19
889.161	45.21
889.537	45.19
889.912	45.17
890.287	45.15
890.662	45.13
891.037	45.13
891.412	45.11
891.787	45.1
892.162	45.12
892.536	45.11
892.911	45.1
893.286	45.07
893.66	45.05
894.035	45.04
894.409	45.02
894.784	45.04
895.158	45.03
895.532	45.05
895.906	45.06
896.281	45.05
896.655	45.04
897.029	45.07
897.402	45.06
897.776	45.07
898.15	45.09
898.524	45.11
898.898	45.11
899.271	45.12
899.645	45.12
900.018	45.12
900.392	45.13
900.765	45.15
901.138	45.12
901.511	45.14
901.884	45.15
902.258	45.15
902.631	45.14
903.003	45.16
903.376	45.14
903.749	45.15
904.122	45.18
904.495	45.2
904.867	45.24
905.24	45.27
905.612	45.28
905.985	45.29
906.357	45.29
906.729	45.31
907.102	45.3
907.474	45.33
907.846	45.31
908.218	45.3
908.59	45.32
908.962	45.32
909.334	45.32
909.705	45.33
910.077	45.36
910.449	45.34
910.82	45.33
911.192	45.36
911.563	45.35
911.935	45.35
912.306	45.36
912.677	45.34
913.048	45.34
913.419	45.33
913.79	45.32
914.161	45.31
914.532	45.32
914.903	45.33
915.274	45.34
915.645	45.36
916.015	45.37
916.386	45.37
916.756	45.35
917.127	45.35
917.497	45.37
917.868	45.37
918.238	45.34
918.608	45.38
918.978	45.36
919.348	45.35
919.718	45.33
920.088	45.35
920.458	45.31
920.828	45.31
921.198	45.28
921.567	45.28
921.937	45.33
922.306	45.38
922.676	45.33
923.045	45.32
923.415	45.32
923.784	45.31
924.153	45.31
924.522	45.35
924.891	45.35
925.26	45.35
925.629	45.32
925.998	45.29
926.367	45.26
926.736	45.26
927.104	45.29
927.473	45.25
927.842	45.22
928.21	45.25
928.578	45.23
928.947	45.28
929.315	45.27
929.683	45.27
930.051	45.25
930.42	45.24
930.788	45.22
931.156	45.18
931.523	45.16
931.891	45.21
932.259	45.18
932.627	45.15
932.994	45.12
933.362	45.09
933.729	45.08
934.097	45.09
934.464	45.09
934.831	45.09
935.199	45.1
935.566	45.1
935.933	45.01
936.3	45
936.667	45.01
937.034	45.04
937.401	45.05
937.767	45.08
938.134	45.08
938.501	45.11
938.867	45.17
939.234	45.19
939.6	45.23
939.967	45.36
940.333	45.38
940.699	45.43
941.065	45.4
941.431	45.42
941.798	45.42
942.163	45.42
942.529	45.45
942.895	45.45
943.261	45.46
943.627	45.53
943.992	45.53
944.358	45.59
944.723	45.55
945.089	45.54
945.454	45.61
945.82	45.67
946.185	45.7
946.55	45.59
946.915	45.61
947.28	45.57
947.645	45.58
948.01	45.57
948.375	45.57
948.74	45.53
949.104	45.51
949.469	45.43
949.834	45.36
950.198	45.31
950.562	45.38
950.927	45.32
951.291	45.3
951.655	45.2
952.02	45.15
952.384	45.1
952.748	45.08
953.112	45.06
953.476	45.07
953.839	45.05
954.203	45.03
954.567	44.98
954.931	44.95
955.294	44.95
955.658	45.03
956.021	44.99
956.385	44.94
956.748	44.91
957.111	44.91
957.474	44.85
957.837	44.83
958.2	44.83
958.563	44.77
958.926	44.79
959.289	44.76
959.652	44.68
960.015	44.66
960.377	44.68
960.74	44.71
961.102	44.69
961.465	44.73
961.827	44.78
962.189	44.75
962.552	44.76
962.914	44.73
963.276	44.7
963.638	44.67
964	44.67
964.362	44.67
964.724	44.66
965.085	44.6
965.447	44.55
965.809	44.53
966.17	44.55
966.532	44.57
966.893	44.56
967.255	44.59
967.616	44.66
967.977	44.64
968.338	44.6
968.699	44.58
969.061	44.61
969.421	44.69
969.782	44.65
970.143	44.61
970.504	44.62
970.865	44.7
971.225	44.69
971.586	44.65
971.946	44.65
972.307	44.7
972.667	44.66
973.027	44.67
973.388	44.67
973.748	44.71
974.108	44.76
974.468	44.71
974.828	44.63
975.188	44.63
975.548	44.58
975.907	44.57
976.267	44.56
976.627	44.59
976.986	44.55
977.346	44.45
977.705	44.4
978.064	44.4
978.424	44.41
978.783	44.44
979.142	44.5
979.501	44.58
979.86	44.66
980.219	44.7
980.578	44.77
980.937	44.86
981.296	44.89
981.654	44.92
982.013	44.88
982.371	44.99
982.73	45.03
983.088	45
983.447	44.97
983.805	44.96
984.163	44.9
984.521	44.87
984.879	44.82
985.237	44.8
985.595	44.84
985.953	44.89
986.311	44.83
986.669	44.79
987.026	44.77
987.384	44.81
987.741	44.79
988.099	44.85
988.456	44.87
988.814	44.94
989.171	45.04
989.528	45.11
989.885	45.02
990.242	45.01
990.599	45.09
990.956	45.16
991.313	45.2
991.67	45.25
992.027	45.4
992.383	45.45
992.74	45.48
993.096	45.45
993.453	45.35
993.809	45.45
994.165	45.51
994.522	45.48
994.878	45.46
995.234	45.48
995.59	45.51
995.946	45.48
996.302	45.47
996.658	45.49
997.013	45.6
997.369	45.68
997.725	45.75
998.08	45.79
998.436	45.79
998.791	45.85
999.147	45.8
999.502	45.79
999.857	45.67
1000.212	45.62
1000.567	45.64
1000.922	45.64
1001.277	45.65
1001.632	45.6
1001.987	45.57
1002.342	45.56
1002.696	45.57
1003.051	45.67
1003.406	45.8
1003.76	45.88
1004.114	45.89
1004.469	45.79
1004.823	45.96
1005.177	46.04
1005.531	46.1
1005.885	46.12
1006.239	46.17
1006.593	46.33
1006.947	46.33
1007.301	46.15
1007.655	46.13
1008.008	46.33
1008.362	46.58
1008.715	46.44
1009.069	46.48
1009.422	46.58
1009.776	46.75
1010.129	46.88
1010.482	46.79
1010.835	46.79
1011.188	46.89
1011.541	46.91
1011.894	47
1012.247	47.01
1012.6	47.09
1012.952	46.99
1013.305	46.96
1013.657	46.79
1014.01	46.76
1014.362	46.78
1014.715	47.01
1015.067	47.12
1015.419	47.2
1015.771	46.85
1016.123	46.85
1016.475	46.86
1016.827	46.94
1017.179	46.98
1017.531	47.22
1017.883	47.22
1018.234	47.29
1018.586	47.23
1018.938	47.3
1019.289	47.29
1019.64	47.66
1019.992	47.62
1020.343	47.57
1020.694	47.84
1021.045	47.92
1021.396	47.9
1021.747	48.1
1022.098	48.39
1022.449	48.47
1022.8	48.71
1023.151	48.72
1023.501	48.75
1023.852	48.99
1024.202	48.98
1024.553	48.71
1024.903	48.73
1025.253	49.09
1025.604	48.92
1025.954	48.4
1026.304	48.49
1026.654	48.31
1027.004	48.39
1027.354	48.38
1027.703	48.14
1028.053	48.39
1028.403	48.79
1028.753	48.43
1029.102	48.38
1029.452	48.75
1029.801	49.25
1030.15	49.16
1030.499	49.18
897.758	1283.85
901.051	1282.12
904.343	1281.9
907.636	1304.26
910.928	1270.55
914.22	1265.9
917.511	1247.86
920.803	1192.8
924.094	1188.41
927.384	1161.38
930.675	1109.15
933.965	1102.94
937.255	1040.36
940.544	997.68
943.834	950.28
947.123	941.13
950.411	887.9
953.7	869.35
956.988	828.08
960.276	790.51
963.563	775.02
966.851	749.58
970.138	742.44
973.424	720.83
976.711	725.53
979.997	690.82
983.283	687.81
986.568	674.17
989.853	652.44
993.138	638.86
996.423	616.66
999.708	601.21
1002.992	594.49
1006.275	570.2
1009.559	564.17
1012.842	542.77
1016.125	527.36
1019.408	517.25
1022.69	511.58
1025.972	503.02
1029.254	490.78
1032.536	482.76
1035.817	472.32
1039.098	467.11
1042.379	455.01
1045.659	451.43
1048.939	440.92
1052.219	431.42
1055.498	426.43
1058.778	416.01
1062.057	405.45
1065.335	400.66
1068.614	396.8
1071.892	393.7
1075.17	381.36
1078.447	375.77
1081.724	371.67
1085.001	367.86
1088.278	362.48
1091.554	354.32
1094.83	354.13
1098.106	352.56
1101.382	349.61
1104.657	346.21
1107.932	340.92
1111.206	341.64
1114.481	333.97
1117.755	330.4
1121.029	328.33
1124.302	326.94
1127.575	321.71
1130.848	317.89
1134.121	314.29
1137.393	312.98
1140.665	306.68
1143.937	304.23
1147.208	302.56
1150.48	301.7
1153.75	297.63
1157.021	293.89
1160.291	293.85
1163.561	289.87
1166.831	290.02
1170.101	288.29
1173.37	286.8
1176.639	287.7
1179.907	285.31
1183.176	282.27
1186.444	281.96
1189.711	282.2
1192.979	281.13
1196.246	279.45
1199.513	280.33
1202.78	279.18
1206.046	278.54
1209.312	276.32
1212.578	276.35
1215.843	277.98
1219.108	276.93
1222.373	282.19
1225.638	284.29
1228.902	288.25
1232.166	287.83
1235.43	290.25
1238.693	294.06
1241.956	295.9
1245.219	301.07
1248.482	301.53
1251.744	301.92
1255.006	302.07
1258.268	295.06
1261.529	292.39
1264.79	290.44
1268.051	289.1
1271.312	285.51
1274.572	281.21
1277.832	279.07
1281.092	273.88
1284.351	271.77
1287.61	271.73
1290.869	267.44
1294.128	265.84
1297.386	266.12
1300.644	262.79
1303.902	264.47
1307.159	263.22
1310.416	263.66
1313.673	262.76
1316.93	265.61
1320.186	265.18
1323.442	265.86
1326.697	270.78
1329.953	271.61
1333.208	272.1
1336.463	276.23
1339.717	276.06
1342.972	278.79
1346.226	281.31
1349.479	282.17
1352.733	283.76
1355.986	284.63
1359.238	284.42
1362.491	285.6
1365.743	287.67
1368.995	287.97
1372.247	286.43
1375.498	286.52
1378.749	289.33
1382	285.24
1385.251	286.7
1388.501	284.49
1391.751	286.42
1395	284.71
1398.25	282.61
1401.499	280.91
1404.748	280.62
1407.996	278.59
1411.244	276.89
1414.492	275.12
1417.74	272.36
1420.987	267.81
1424.234	268.14
1427.481	263.55
1430.728	263.86
1433.974	260.85
1437.22	259.33
1440.465	258.01
1443.711	255.67
1446.956	254.76
1450.201	250.9
1453.445	249.33
1456.689	248.28
1459.933	244.05
1463.177	242.09
1466.42	239.1
1469.663	236.69
1472.906	234.88
1476.148	228.89
1479.391	226.07
1482.633	223.71
1485.874	221.6
1489.115	220.28
1492.356	217.58
1495.597	217.03
1498.838	214.4
1502.078	212.42
1505.318	211.48
1508.557	211.52
1511.797	211.96
1515.036	210.48
1518.274	209.87
1521.513	207.59
1524.751	207.43
1527.989	207.28
1531.227	206.19
1534.464	206.84
1537.701	205.83
1540.938	205.02
1544.174	202.51
1547.41	202.63
1550.646	202.17
1553.882	201.96
1557.117	199.84
1560.352	198.93
1563.587	198.29
1566.821	197.13
1570.055	195.46
1573.289	193.86
1576.523	193.97
1579.756	192.43
1582.989	190.7
1586.222	190.42
1589.454	189.96
1592.686	191.01
1595.918	189.86
1599.15	189.16
1602.381	189.27
1605.612	189.12
1608.843	189.95
1612.073	189.55
1615.303	190.54
1618.533	191.43
1621.762	190.89
1624.992	190.86
1628.221	190.92
1631.449	190.85
1634.678	190.69
1637.906	192
1641.134	191.91
1644.361	191.22
1647.588	192.01
1650.815	191.48
1654.042	190.23
1657.269	191.67
1660.495	191.54
1663.72	190.59
1666.946	191.45
1670.171	191.92
1673.396	191.24
1676.621	191.25
1679.845	191.57
1683.069	191.5
1686.293	192.63
1689.517	193.83
1692.74	193.45
1695.963	194.46
1699.185	196.87
1702.408	196.33
1705.63	196.93
1708.852	197.54
1712.073	198.14
1715.294	198.78
1718.515	199.81
1721.736	199.57
1724.956	200.18
1728.176	200.17
1731.396	201.41
1734.616	200.27
1737.835	201.4
1741.054	199.54
1744.272	200.34
1747.491	201.74
1750.709	202.22
1753.927	201.8
1757.144	201.24
1760.361	201.72
1763.578	202.42
1766.795	201.94
1770.011	203.57
1773.227	203.71
1776.443	206.72
1779.658	207.31
1782.874	206.35
1786.089	207.05
1789.303	208.16
1792.518	210.6
1795.732	210.06
1798.945	211.62
1802.159	212.13
1805.372	212.33
1808.585	215.68
1811.797	215.63
1815.01	216.13
1818.222	218.27
1821.434	220.49
1824.645	220.5
1827.856	223.83
1831.067	226.54
1834.278	225.73
1837.488	226.59
1840.698	228.38
1843.908	226.23
1847.117	227.7
1850.326	229.37
1853.535	228.68
1856.744	231.25
1859.952	231.22
1863.16	229.57
1866.368	227.33
1869.575	229.53
1872.782	226.27
1875.989	225.62
1879.196	224.27
1882.402	223.04
1885.608	222.25
1888.814	222.22
1892.019	220.54
1895.224	219.92
1898.429	219.62
1901.634	220.64
1904.838	220.69
1908.042	222.71
1911.246	223.19
1914.449	224.72
1917.652	225.09
1920.855	225.25
1924.058	224.85
1927.26	224.06
1930.462	224.85
1933.664	226.76
1936.865	224.73
1940.066	224.54
1943.267	223.65
1946.467	223.38
1949.668	224.28
1952.868	227.18
1956.067	227.79
1959.267	227.95
1962.466	228.83
1965.665	227.29
1968.863	227.95
1972.061	230.74
1975.259	233.27
1978.457	234.99
1981.654	236.4
1984.852	237.29
1988.048	235.82
1991.245	238.36
1994.441	241.2
1997.637	242.62
2000.833	247.67
2004.028	251.33
2007.223	254.01
2010.418	255.92
2013.613	260.44
2016.807	263.95
2020.001	266.51
2023.194	270.67
2026.388	276.49
2029.581	282.98
2032.774	285.31
2035.966	291.45
2039.158	291.5
2042.35	296.65
2045.542	298.31
2048.733	303.16
2051.924	306.14
2055.115	311.07
2058.306	311.94
2061.496	314.48
2064.686	314.93
2067.875	321.07
2071.065	321.33
2074.254	319.68
2077.442	324.46
2080.631	326.34
2083.819	329.22
2087.007	331.32
2090.195	334.66
2093.382	337.68
2096.569	335.7
2099.756	339.98
2102.942	341.55
2106.128	344.71
2109.314	353.38
2112.5	350.94
2115.685	358.91
2118.87	359.38
2122.055	366.19
2125.239	368.51
2128.424	372.51
2131.608	376.96
2134.791	382.05
2137.974	383.49
2141.157	385.1
2144.34	384.94
2147.523	392.04
2150.705	389.02
2153.887	392.29
2157.068	392.84
2160.25	389.47
2163.431	391.46
2166.611	394.02
2169.792	401.73
2172.972	406.87
2176.152	408.82
2179.331	414.9
2182.511	420.84
2185.69	425.37
2188.868	433.55
2192.047	434.38
2195.225	447.9
2198.403	458.11
2201.58	466.74
2204.758	476.49
2207.935	485.23
2211.111	494.61
2214.288	499.01
2217.464	499.71
2220.64	508.36
2223.815	515.72
2226.991	536.77
2230.166	537.44
2233.34	546.43
2236.515	555.89
2239.689	555.48
2242.863	557.69
2246.036	574.42
2249.209	569.12
2252.382	580.31
2255.555	597.56
2258.727	599.81
2261.9	602.75
2265.071	608.78
2268.243	618.39
2271.414	625.69
2274.585	639.45
2277.756	645.73
2280.926	649.39
2284.096	666.43
2287.266	679.26
2290.436	683.57
2293.605	697.99
2296.774	717.78
2299.942	741.49
2303.111	746.85
2306.279	762.33
2309.447	773.06
2312.614	792.78
2315.781	813.81
2318.948	852.65
2322.115	838.65
2325.281	887.48
2328.447	868.27
2331.613	903.8
2334.779	892.24
2337.944	930.21
2341.109	938.16
2344.274	961.36
2347.438	995.7
2350.602	999.31
2353.766	1025.47
2356.929	1043.12
2360.092	1033.98
2363.255	1112.04
2366.418	1109.44
2369.58	1131.65
2372.742	1199.49
2375.904	1231.78
2379.066	1226.16
2382.227	1199.35
2385.388	1297.21
2388.548	1302.08
2391.709	1318.96
2394.869	1466.25
2398.029	1403.42
2401.188	1444.11
2404.347	1433.77
2407.506	1412.18
2410.665	1450.92
2413.823	1537.29
2416.981	1631.66
2420.139	1580
2423.296	1558.36
2426.453	1628.85
2429.61	1567.79
2432.767	1639.92
2435.923	1625.1
2439.079	1778.39
2442.235	1802.57
2445.391	1788.22
2448.546	1770.43
2451.701	1726.14
2454.855	1722.55
2458.009	1831.32
2461.163	1897.62
2464.317	1964.02
2467.471	2014.66
2470.624	2015.63
2473.777	1963.68
2476.929	1910.9
2480.082	1854.87
2483.234	1841.3
2486.385	1921.75
2489.537	1933.23
2492.688	2004.29
2495.839	1952.1
2498.989	1913.51
2502.14	1918.27
2505.29	1938.35
2508.439	1963.34
2511.589	1961.35
2514.738	2139.94
2517.887	2096.3
2521.035	2217.13
2524.183	2234.17
2527.331	2249.05
2530.479	2239.9
2533.627	2251.29
