Data from C_3_DIV_PA_2N_Splice17_14-13-21-309.txt Node
Date: Sat Mar 07 14:13:21 EST 2020
User: sa697716
Spectrometer: NQ5500242
Trigger mode: 0
Integration Time (sec): 1.450000E-1
Scans to average: 20
Nonlinearity correction enabled: false
Boxcar width: 5
Storing dark spectrum: false
XAxis mode: Wavelengths
Number of Pixels in Spectrum: 512
>>>>>Begin Spectral Data<<<<<
187.83	193.27
188.298	213.23
188.766	160.41
189.233	137.38
189.701	144.03
190.169	166.64
190.636	210.08
191.104	246.36
191.571	419.86
192.039	553.34
192.506	285.13
192.974	53.66
193.441	258.18
193.908	32.04
194.375	57.32
194.842	7.13
195.31	7.3
195.777	18.93
196.244	59.71
196.711	71.21
197.177	72.92
197.644	71.67
198.111	71.51
198.578	70.86
199.045	71.64
199.511	71.21
199.978	71.54
200.445	71.85
200.911	72.03
201.378	72.23
201.844	72.01
202.31	71.75
202.777	71.9
203.243	71.79
203.709	71.53
204.176	70.96
204.642	70.69
205.108	70.52
205.574	70.32
206.04	69.66
206.506	68.72
206.972	68.4
207.438	67.94
207.903	67.31
208.369	66.14
208.835	65.03
209.301	63.81
209.766	62.23
210.232	60.5
210.697	58.75
211.163	57.63
211.628	56.83
212.094	55.65
212.559	54.39
213.024	53.12
213.49	52.2
213.955	51.46
214.42	50.64
214.885	49.84
215.35	48.67
215.815	47.01
216.28	44.59
216.745	41.89
217.21	39.15
217.675	36.47
218.14	34.15
218.604	32.06
219.069	30.2
219.534	28.59
219.998	27.32
220.463	26.31
220.927	25.31
221.392	24.52
221.856	23.87
222.32	23.28
222.785	22.85
223.249	22.42
223.713	21.99
224.177	21.65
224.642	21.34
225.106	20.98
225.57	20.58
226.034	20.27
226.497	19.96
226.961	19.64
227.425	19.36
227.889	19.08
228.353	18.78
228.816	18.5
229.28	18.21
229.744	17.93
230.207	17.66
230.671	17.42
231.134	17.17
231.597	16.95
232.061	16.72
232.524	16.48
232.987	16.24
233.45	16.04
233.914	15.83
234.377	15.62
234.84	15.44
235.303	15.27
235.766	15.11
236.229	14.95
236.691	14.79
237.154	14.64
237.617	14.51
238.08	14.37
238.542	14.22
239.005	14.11
239.468	13.99
239.93	13.87
240.393	13.73
240.855	13.59
241.317	13.46
241.78	13.32
242.242	13.17
242.704	13.03
243.166	12.89
243.629	12.77
244.091	12.63
244.553	12.5
245.015	12.37
245.477	12.24
245.939	12.13
246.4	11.99
246.862	11.88
247.324	11.76
247.786	11.63
248.247	11.5
248.709	11.36
249.17	11.21
249.632	11.1
250.093	10.97
250.555	10.84
251.016	10.72
251.477	10.58
251.939	10.47
252.4	10.37
252.861	10.25
253.322	10.16
253.783	10.07
254.244	9.99
254.705	9.9
255.166	9.82
255.627	9.73
256.088	9.66
256.549	9.6
257.009	9.52
257.47	9.44
257.931	9.36
258.391	9.27
258.852	9.18
259.312	9.1
259.773	9.01
260.233	8.93
260.694	8.85
261.154	8.76
261.614	8.68
262.074	8.6
262.534	8.52
262.994	8.46
263.455	8.4
263.915	8.33
264.374	8.28
264.834	8.22
265.294	8.16
265.754	8.12
266.214	8.07
266.673	8.02
267.133	7.98
267.593	7.94
268.052	7.9
268.512	7.87
268.971	7.83
269.431	7.79
269.89	7.76
270.349	7.72
270.809	7.69
271.268	7.66
271.727	7.64
272.186	7.61
272.645	7.58
273.104	7.55
273.563	7.52
274.022	7.5
274.481	7.48
274.94	7.45
275.399	7.42
275.857	7.39
276.316	7.37
276.775	7.34
277.233	7.32
277.692	7.3
278.15	7.28
278.609	7.26
279.067	7.25
279.525	7.22
279.984	7.21
280.442	7.2
280.9	7.19
281.358	7.18
281.816	7.17
282.274	7.16
282.732	7.14
283.19	7.13
283.648	7.13
284.106	7.11
284.564	7.11
285.021	7.11
285.479	7.11
285.937	7.11
286.394	7.1
286.852	7.09
287.309	7.08
287.767	7.06
288.224	7.04
288.682	7
289.139	6.97
289.596	6.93
290.053	6.88
290.511	6.84
290.968	6.79
291.425	6.75
291.882	6.71
292.339	6.67
292.796	6.64
293.252	6.61
293.709	6.59
294.166	6.57
294.623	6.55
295.079	6.53
295.536	6.52
295.992	6.49
296.449	6.47
296.905	6.46
297.362	6.44
297.818	6.42
298.274	6.4
298.731	6.37
299.187	6.35
299.643	6.33
300.099	6.31
300.555	6.3
301.011	6.28
301.467	6.26
301.923	6.24
302.379	6.23
302.835	6.22
303.291	6.21
303.746	6.2
304.202	6.2
304.658	6.19
305.113	6.18
305.569	6.17
306.024	6.16
306.479	6.15
306.935	6.15
307.39	6.15
307.845	6.15
308.301	6.14
308.756	6.14
309.211	6.13
309.666	6.14
310.121	6.14
310.576	6.13
311.031	6.14
311.486	6.14
311.94	6.15
312.395	6.16
312.85	6.16
313.305	6.16
313.759	6.17
314.214	6.16
314.668	6.14
315.123	6.14
315.577	6.14
316.032	6.13
316.486	6.12
316.94	6.1
317.394	6.07
317.849	6.04
318.303	6.02
318.757	5.99
319.211	5.97
319.665	5.95
320.119	5.93
320.572	5.91
321.026	5.88
321.48	5.86
321.934	5.84
322.387	5.84
322.841	5.83
323.295	5.82
323.748	5.81
324.202	5.81
324.655	5.8
325.108	5.8
325.562	5.79
326.015	5.8
326.468	5.8
326.921	5.79
327.374	5.78
327.827	5.77
328.28	5.76
328.733	5.76
329.186	5.75
329.639	5.74
330.092	5.73
330.545	5.73
330.997	5.72
331.45	5.71
331.903	5.71
332.355	5.72
332.808	5.73
333.26	5.74
333.713	5.74
334.165	5.74
334.617	5.76
335.069	5.76
335.522	5.77
335.974	5.78
336.426	5.78
336.878	5.78
337.33	5.78
337.782	5.78
338.234	5.79
338.686	5.79
339.137	5.79
339.589	5.78
340.041	5.78
340.493	5.76
340.944	5.74
341.396	5.73
341.847	5.71
342.299	5.69
342.75	5.66
343.201	5.63
343.653	5.61
344.104	5.57
344.555	5.55
345.006	5.53
345.457	5.52
345.908	5.51
346.359	5.5
346.81	5.48
347.261	5.47
347.712	5.47
348.163	5.46
348.613	5.47
349.064	5.47
349.515	5.47
349.965	5.47
350.416	5.46
350.866	5.45
351.317	5.44
351.767	5.45
352.217	5.45
352.668	5.45
353.118	5.45
353.568	5.44
354.018	5.44
354.468	5.45
354.918	5.46
355.368	5.47
355.818	5.48
356.268	5.48
356.718	5.48
357.168	5.49
357.617	5.5
358.067	5.5
358.517	5.52
358.966	5.53
359.416	5.54
359.865	5.53
360.315	5.54
360.764	5.55
361.213	5.55
361.663	5.55
362.112	5.55
362.561	5.56
363.01	5.57
363.459	5.55
363.908	5.55
364.357	5.56
364.806	5.56
365.255	5.56
365.703	5.57
366.152	5.58
366.601	5.59
367.05	5.6
367.498	5.6
367.947	5.61
368.395	5.63
368.844	5.64
369.292	5.64
369.74	5.66
370.189	5.67
370.637	5.67
371.085	5.67
371.533	5.67
371.981	5.68
372.429	5.68
372.877	5.68
373.325	5.68
373.773	5.69
374.221	5.69
374.669	5.7
375.116	5.69
375.564	5.69
376.012	5.71
376.459	5.71
376.907	5.74
377.354	5.76
377.801	5.77
378.249	5.77
378.696	5.79
379.143	5.8
379.591	5.8
380.038	5.82
380.485	5.83
380.932	5.84
381.379	5.85
381.826	5.85
382.273	5.85
382.72	5.84
383.166	5.85
383.613	5.85
384.06	5.85
384.506	5.86
384.953	5.87
385.4	5.89
385.846	5.91
386.292	5.93
386.739	5.95
387.185	5.97
387.631	6.01
388.078	6.02
388.524	6.04
388.97	6.06
389.416	6.09
389.862	6.12
390.308	6.15
390.754	6.19
391.2	6.22
391.645	6.25
392.091	6.28
392.537	6.32
392.983	6.37
393.428	6.41
393.874	6.45
394.319	6.49
394.765	6.51
395.21	6.54
395.655	6.57
396.101	6.61
396.546	6.63
396.991	6.66
397.436	6.7
397.881	6.75
398.326	6.8
398.771	6.85
399.216	6.89
399.661	6.95
400.106	6.99
400.551	7.02
400.995	7.05
401.44	7.1
401.885	7.13
402.329	7.16
402.774	7.19
403.218	7.23
403.663	7.28
404.107	7.32
404.551	7.36
404.995	7.39
405.44	7.43
405.884	7.47
406.328	7.52
406.772	7.57
407.216	7.62
407.66	7.66
408.104	7.69
408.547	7.72
408.991	7.75
409.435	7.79
409.879	7.84
410.322	7.9
410.766	7.96
411.209	8.01
411.653	8.08
412.096	8.12
412.54	8.17
412.983	8.23
413.426	8.3
413.869	8.35
414.312	8.43
414.756	8.49
415.199	8.53
415.642	8.57
416.085	8.62
416.527	8.65
416.97	8.68
417.413	8.7
417.856	8.72
418.298	8.74
418.741	8.76
419.184	8.78
419.626	8.8
420.069	8.83
420.511	8.85
420.953	8.86
421.396	8.88
421.838	8.9
422.28	8.94
422.722	8.99
423.164	9.01
423.606	9.05
424.048	9.08
424.49	9.11
424.932	9.13
425.374	9.13
425.816	9.13
426.258	9.14
426.699	9.14
427.141	9.14
427.582	9.16
428.024	9.2
428.465	9.23
428.907	9.25
429.348	9.25
429.789	9.27
430.231	9.33
430.672	9.38
431.113	9.43
431.554	9.47
431.995	9.51
432.436	9.54
432.877	9.56
433.318	9.57
433.759	9.6
434.2	9.67
434.64	9.71
435.081	9.75
435.522	9.79
435.962	9.84
436.403	9.92
436.843	9.96
437.284	9.99
437.724	10
438.164	10.02
438.604	10.05
439.045	10.06
439.485	10.07
439.925	10.07
440.365	10.09
440.805	10.09
441.245	10.08
441.685	10.11
442.125	10.16
442.564	10.19
443.004	10.22
443.444	10.24
443.883	10.26
444.323	10.3
444.762	10.35
445.202	10.38
445.641	10.41
446.081	10.45
446.52	10.46
446.959	10.49
447.398	10.52
447.837	10.54
448.276	10.55
448.716	10.58
449.154	10.62
449.593	10.63
450.032	10.63
450.471	10.63
450.91	10.63
451.349	10.64
451.787	10.63
452.226	10.61
452.664	10.61
453.103	10.6
453.541	10.58
453.98	10.55
454.418	10.53
454.856	10.51
455.295	10.49
455.733	10.44
456.171	10.42
456.609	10.4
457.047	10.36
457.485	10.33
457.923	10.32
458.361	10.29
458.798	10.28
459.236	10.26
459.674	10.25
460.111	10.23
460.549	10.25
460.987	10.24
461.424	10.23
461.862	10.25
462.299	10.25
462.736	10.22
463.173	10.22
463.611	10.21
464.048	10.22
464.485	10.21
464.922	10.21
465.359	10.2
465.796	10.21
466.233	10.2
466.67	10.2
467.106	10.2
467.543	10.21
467.98	10.2
468.416	10.21
468.853	10.21
469.29	10.23
469.726	10.22
470.162	10.22
470.599	10.21
471.035	10.2
471.471	10.19
471.907	10.18
472.344	10.16
472.78	10.16
473.216	10.14
473.652	10.15
474.088	10.12
474.523	10.12
474.959	10.11
475.395	10.1
475.831	10.11
476.266	10.11
476.702	10.1
477.138	10.11
477.573	10.1
478.008	10.11
478.444	10.08
478.879	10.07
479.314	10.07
479.75	10.06
480.185	10.04
480.62	10.02
481.055	10.01
481.49	10
481.925	9.99
482.36	9.98
482.795	9.96
483.229	9.96
483.664	9.97
484.099	9.96
484.534	9.95
484.968	9.96
485.403	9.96
485.837	9.97
486.271	9.99
486.706	9.99
487.14	10
487.574	10.01
488.009	10.03
488.443	10.04
488.877	10.05
489.311	10.08
489.745	10.09
490.179	10.12
490.613	10.15
491.046	10.17
491.48	10.2
491.914	10.23
492.348	10.26
492.781	10.29
493.215	10.33
493.648	10.37
494.082	10.41
494.515	10.44
494.948	10.48
495.382	10.52
495.815	10.57
496.248	10.62
496.681	10.69
497.114	10.74
497.547	10.8
497.98	10.87
498.413	10.93
498.846	11.01
499.279	11.08
499.711	11.16
500.144	11.24
500.577	11.32
501.009	11.4
501.442	11.49
501.874	11.59
502.306	11.67
502.739	11.77
503.171	11.89
503.603	11.99
504.036	12.11
504.468	12.23
504.9	12.35
505.332	12.48
505.764	12.6
506.196	12.74
506.627	12.88
507.059	13.03
507.491	13.18
507.923	13.34
508.354	13.51
508.786	13.68
509.217	13.85
509.649	14.03
510.08	14.2
510.512	14.39
510.943	14.58
511.374	14.77
511.805	14.98
512.237	15.18
512.668	15.4
513.099	15.6
513.53	15.82
513.961	16.04
514.391	16.28
514.822	16.51
515.253	16.74
515.684	16.97
516.114	17.19
516.545	17.42
516.975	17.66
517.406	17.87
517.836	18.1
518.267	18.33
518.697	18.56
519.127	18.77
519.558	18.99
519.988	19.23
520.418	19.47
520.848	19.7
521.278	19.91
521.708	20.13
522.138	20.34
522.567	20.55
522.997	20.75
523.427	20.96
523.857	21.17
524.286	21.36
524.716	21.55
525.145	21.72
525.575	21.9
526.004	22.08
526.433	22.25
526.863	22.42
527.292	22.59
527.721	22.75
528.15	22.89
528.579	23.02
529.008	23.16
529.437	23.28
529.866	23.42
530.295	23.55
530.724	23.67
531.152	23.78
531.581	23.89
532.01	24.01
532.438	24.12
532.867	24.22
533.295	24.31
533.723	24.4
534.152	24.47
534.58	24.55
535.008	24.59
535.436	24.65
535.865	24.69
536.293	24.75
536.721	24.8
537.149	24.85
537.576	24.88
538.004	24.94
538.432	24.98
538.86	25.02
539.287	25.05
539.715	25.11
540.143	25.14
540.57	25.18
540.998	25.21
541.425	25.23
541.852	25.26
542.28	25.3
542.707	25.33
543.134	25.36
543.561	25.42
543.988	25.46
544.415	25.48
544.842	25.52
545.269	25.55
545.696	25.6
546.123	25.62
546.549	25.64
546.976	25.68
547.403	25.72
547.829	25.75
548.256	25.78
548.682	25.81
549.108	25.84
549.535	25.89
549.961	25.91
550.387	25.94
550.813	25.97
551.24	25.99
551.666	26.02
552.092	26.03
552.518	26.04
552.943	26.04
553.369	26.04
553.795	26.04
554.221	26.03
554.646	26.01
555.072	25.99
555.498	25.97
555.923	25.96
556.349	25.93
556.774	25.89
557.199	25.86
557.625	25.8
558.05	25.75
558.475	25.71
558.9	25.66
559.325	25.6
559.75	25.52
560.175	25.44
560.6	25.34
561.025	25.25
561.449	25.17
561.874	25.07
562.299	24.97
562.723	24.86
563.148	24.74
563.572	24.63
563.997	24.52
564.421	24.4
564.846	24.29
565.27	24.16
565.694	24.04
566.118	23.89
566.542	23.76
566.966	23.62
567.39	23.48
567.814	23.33
568.238	23.18
568.662	23.05
569.086	22.92
569.509	22.78
569.933	22.65
570.357	22.51
570.78	22.37
571.204	22.24
571.627	22.13
572.05	22
572.474	21.9
572.897	21.79
573.32	21.66
573.743	21.55
574.166	21.43
574.589	21.34
575.012	21.24
575.435	21.14
575.858	21.04
576.281	20.95
576.704	20.87
577.126	20.79
577.549	20.72
577.972	20.64
578.394	20.57
578.817	20.52
579.239	20.45
579.661	20.39
580.084	20.33
580.506	20.29
580.928	20.22
581.35	20.17
581.772	20.09
582.194	20.02
582.616	19.98
583.038	19.93
583.46	19.86
583.882	19.8
584.303	19.73
584.725	19.68
585.147	19.64
585.568	19.6
585.99	19.55
586.411	19.5
586.833	19.46
587.254	19.4
587.675	19.36
588.096	19.32
588.518	19.28
588.939	19.25
589.36	19.19
589.781	19.15
590.202	19.1
590.623	19.07
591.043	19.03
591.464	18.99
591.885	18.96
592.305	18.93
592.726	18.9
593.147	18.87
593.567	18.84
593.987	18.8
594.408	18.78
594.828	18.75
595.248	18.72
595.669	18.7
596.089	18.67
596.509	18.64
596.929	18.6
597.349	18.57
597.769	18.54
598.189	18.5
598.608	18.49
599.028	18.46
599.448	18.43
599.867	18.4
600.287	18.38
600.706	18.35
601.126	18.33
601.545	18.3
601.965	18.29
602.384	18.27
602.803	18.24
603.222	18.21
603.641	18.18
604.061	18.16
604.48	18.11
604.898	18.07
605.317	18.04
605.736	18
606.155	17.97
606.574	17.92
606.992	17.88
607.411	17.84
607.829	17.77
608.248	17.72
608.666	17.67
609.085	17.63
609.503	17.59
609.921	17.53
610.339	17.47
610.758	17.42
611.176	17.37
611.594	17.31
612.012	17.25
612.43	17.22
612.847	17.18
613.265	17.13
613.683	17.07
614.101	17.03
614.518	16.97
614.936	16.93
615.353	16.87
615.771	16.84
616.188	16.79
616.606	16.76
617.023	16.71
617.44	16.68
617.857	16.65
618.274	16.62
618.691	16.57
619.108	16.54
619.525	16.51
619.942	16.48
620.359	16.44
620.776	16.4
621.192	16.37
621.609	16.35
622.026	16.32
622.442	16.29
622.859	16.27
623.275	16.25
623.691	16.24
624.108	16.23
624.524	16.21
624.94	16.2
625.356	16.21
625.772	16.19
626.188	16.19
626.604	16.17
627.02	16.16
627.436	16.14
627.852	16.13
628.268	16.12
628.683	16.11
629.099	16.1
629.514	16.08
629.93	16.05
630.345	16.02
630.761	15.97
631.176	15.92
631.591	15.88
632.007	15.83
632.422	15.77
632.837	15.69
633.252	15.62
633.667	15.54
634.082	15.45
634.497	15.37
634.911	15.27
635.326	15.18
635.741	15.08
636.155	14.97
636.57	14.85
636.984	14.74
637.399	14.62
637.813	14.5
638.228	14.37
638.642	14.23
639.056	14.09
639.47	13.96
639.884	13.81
640.298	13.68
640.712	13.55
641.126	13.41
641.54	13.27
641.954	13.14
642.368	13.02
642.781	12.9
643.195	12.8
643.609	12.69
644.022	12.58
644.436	12.49
644.849	12.39
645.262	12.3
645.676	12.23
646.089	12.16
646.502	12.09
646.915	12.04
647.328	11.99
647.741	11.93
648.154	11.88
648.567	11.84
648.98	11.8
649.393	11.77
649.805	11.74
650.218	11.72
650.631	11.7
651.043	11.68
651.456	11.64
651.868	11.61
652.28	11.58
652.693	11.56
653.105	11.53
653.517	11.5
653.929	11.48
654.341	11.45
654.753	11.4
655.165	11.37
655.577	11.33
655.989	11.29
656.401	11.26
656.813	11.23
657.224	11.16
657.636	11.11
658.047	11.07
658.459	11.01
658.87	10.96
659.282	10.89
659.693	10.82
660.104	10.75
660.515	10.69
660.926	10.63
661.338	10.57
661.749	10.52
662.159	10.45
662.57	10.39
662.981	10.33
663.392	10.28
663.803	10.24
664.213	10.18
664.624	10.14
665.035	10.08
665.445	10.04
665.855	10
666.266	9.96
666.676	9.95
667.086	9.91
667.497	9.88
667.907	9.85
668.317	9.83
668.727	9.82
669.137	9.8
669.547	9.8
669.956	9.79
670.366	9.78
670.776	9.78
671.186	9.77
671.595	9.77
672.005	9.78
672.414	9.78
672.824	9.78
673.233	9.79
673.642	9.79
674.052	9.8
674.461	9.81
674.87	9.84
675.279	9.86
675.688	9.88
676.097	9.92
676.506	9.96
676.915	10
677.323	10.04
677.732	10.08
678.141	10.13
678.549	10.19
678.958	10.26
679.366	10.34
679.775	10.4
680.183	10.48
680.592	10.58
681	10.67
681.408	10.79
681.816	10.92
682.224	11.06
682.632	11.2
683.04	11.35
683.448	11.52
683.856	11.7
684.264	11.91
684.671	12.14
685.079	12.36
685.487	12.64
685.894	12.93
686.302	13.25
686.709	13.6
687.116	13.99
687.524	14.39
687.931	14.84
688.338	15.31
688.745	15.8
689.152	16.33
689.559	16.88
689.966	17.45
690.373	18.03
690.78	18.64
691.187	19.26
691.593	19.9
692	20.55
692.407	21.21
692.813	21.89
693.22	22.57
693.626	23.26
694.032	23.96
694.439	24.68
694.845	25.4
695.251	26.12
695.657	26.82
696.063	27.55
696.469	28.28
696.875	29
697.281	29.7
697.687	30.41
698.093	31.1
698.498	31.78
698.904	32.46
699.31	33.12
699.715	33.78
700.12	34.44
700.526	35.07
700.931	35.71
701.337	36.34
701.742	36.95
702.147	37.57
702.552	38.2
702.957	38.78
703.362	39.35
703.767	39.91
704.172	40.47
704.577	41.02
704.981	41.57
705.386	42.11
705.791	42.62
706.195	43.16
706.6	43.66
707.004	44.12
707.408	44.62
707.813	45.13
708.217	45.61
708.621	46.08
709.025	46.54
709.43	46.97
709.834	47.41
710.237	47.85
710.641	48.25
711.045	48.64
711.449	49.07
711.853	49.47
712.256	49.83
712.66	50.18
713.064	50.52
713.467	50.83
713.87	51.15
714.274	51.42
714.677	51.71
715.08	51.97
715.484	52.25
715.887	52.53
716.29	52.79
716.693	53.07
717.096	53.37
717.499	53.71
717.901	54.04
718.304	54.38
718.707	54.71
719.109	55.03
719.512	55.37
719.915	55.66
720.317	55.91
720.719	56.16
721.122	56.41
721.524	56.64
721.926	56.86
722.328	57.08
722.731	57.29
723.133	57.5
723.535	57.68
723.937	57.88
724.338	58.06
724.74	58.25
725.142	58.49
725.544	58.66
725.945	58.84
726.347	58.98
726.748	59.14
727.15	59.28
727.551	59.45
727.952	59.61
728.354	59.76
728.755	59.93
729.156	60.11
729.557	60.22
729.958	60.36
730.359	60.52
730.76	60.67
731.161	60.8
731.562	60.93
731.962	61.01
732.363	61.13
732.763	61.24
733.164	61.33
733.564	61.41
733.965	61.51
734.365	61.63
734.766	61.68
735.166	61.74
735.566	61.79
735.966	61.84
736.366	61.92
736.766	61.95
737.166	62
737.566	62.03
737.966	62.09
738.365	62.11
738.765	62.13
739.165	62.19
739.564	62.27
739.964	62.32
740.363	62.36
740.763	62.39
741.162	62.44
741.561	62.47
741.96	62.5
742.36	62.51
742.759	62.53
743.158	62.56
743.557	62.6
743.955	62.63
744.354	62.69
744.753	62.77
745.152	62.83
745.55	62.88
745.949	62.93
746.348	62.98
746.746	63.03
747.144	63.09
747.543	63.12
747.941	63.13
748.339	63.14
748.737	63.15
749.136	63.12
749.534	63.08
749.932	63.08
750.33	63.08
750.727	63.09
751.125	63.08
751.523	63.06
751.921	63.05
752.318	63.05
752.716	63.04
753.113	63.01
753.511	63
753.908	63.01
754.305	62.95
754.703	62.85
755.1	62.69
755.497	62.45
755.894	62.13
756.291	61.75
756.688	61.34
757.085	60.98
757.482	60.69
757.878	60.36
758.275	60.04
758.672	59.76
759.068	59.55
759.465	59.36
759.861	59.31
760.258	59.38
760.654	59.52
761.05	59.7
761.447	59.85
761.843	59.96
762.239	60.13
762.635	60.33
763.031	60.53
763.427	60.73
763.822	60.98
764.218	61.25
764.614	61.45
765.01	61.61
765.405	61.78
765.801	61.91
766.196	62.06
766.592	62.17
766.987	62.26
767.382	62.34
767.778	62.39
768.173	62.44
768.568	62.43
768.963	62.44
769.358	62.47
769.753	62.47
770.148	62.52
770.542	62.53
770.937	62.55
771.332	62.51
771.726	62.54
772.121	62.55
772.515	62.53
772.91	62.52
773.304	62.53
773.699	62.52
774.093	62.5
774.487	62.48
774.881	62.5
775.275	62.48
775.669	62.46
776.063	62.44
776.457	62.42
776.851	62.38
777.245	62.35
777.638	62.32
778.032	62.33
778.425	62.34
778.819	62.29
779.212	62.29
779.606	62.26
779.999	62.27
780.392	62.27
780.786	62.26
781.179	62.29
781.572	62.31
781.965	62.32
782.358	62.3
782.751	62.29
783.143	62.29
783.536	62.23
783.929	62.21
784.322	62.19
784.714	62.17
785.107	62.17
785.499	62.12
785.891	62.07
786.284	62.06
786.676	62.05
787.068	62
787.46	61.96
787.852	61.95
788.245	61.94
788.636	61.92
789.028	61.89
789.42	61.86
789.812	61.86
790.204	61.83
790.595	61.79
790.987	61.74
791.378	61.75
791.77	61.75
792.161	61.74
792.553	61.74
792.944	61.69
793.335	61.68
793.726	61.66
794.117	61.61
794.508	61.58
794.899	61.53
795.29	61.51
795.681	61.46
796.072	61.43
796.463	61.37
796.853	61.32
797.244	61.31
797.634	61.27
798.025	61.26
798.415	61.24
798.806	61.24
799.196	61.24
799.586	61.22
799.976	61.21
800.366	61.18
800.756	61.21
801.146	61.2
801.536	61.21
801.926	61.18
802.316	61.15
802.706	61.12
803.095	61.1
803.485	61.05
803.874	61
804.264	60.98
804.653	60.97
805.043	60.91
805.432	60.87
805.821	60.81
806.21	60.78
806.599	60.76
806.988	60.72
807.377	60.68
807.766	60.67
808.155	60.62
808.544	60.55
808.933	60.47
809.321	60.42
809.71	60.36
810.098	60.32
810.487	60.25
810.875	60.19
811.264	60.13
811.652	60.07
812.04	60.01
812.428	59.99
812.816	59.95
813.204	59.89
813.592	59.81
813.98	59.76
814.368	59.7
814.756	59.65
815.144	59.59
815.531	59.54
815.919	59.51
816.306	59.48
816.694	59.44
817.081	59.41
817.469	59.41
817.856	59.39
818.243	59.34
818.63	59.26
819.017	59.21
819.404	59.17
819.791	59.13
820.178	59.08
820.565	59.01
820.952	58.96
821.339	58.92
821.725	58.89
822.112	58.87
822.498	58.88
822.885	58.92
823.271	58.91
823.657	58.84
824.044	58.81
824.43	58.78
824.816	58.75
825.202	58.69
825.588	58.65
825.974	58.59
826.36	58.55
826.746	58.46
827.132	58.4
827.517	58.34
827.903	58.33
828.289	58.28
828.674	58.23
829.06	58.19
829.445	58.17
829.83	58.11
830.216	58.06
830.601	58.02
830.986	57.98
831.371	57.93
831.756	57.89
832.141	57.85
832.526	57.84
832.911	57.81
833.295	57.76
833.68	57.74
834.065	57.71
834.449	57.68
834.834	57.64
835.218	57.61
835.603	57.58
835.987	57.54
836.371	57.51
836.755	57.44
837.139	57.39
837.524	57.36
837.908	57.35
838.291	57.34
838.675	57.3
839.059	57.26
839.443	57.21
839.827	57.14
840.21	57.1
840.594	57.07
840.977	57.04
841.361	57.01
841.744	56.96
842.127	56.9
842.511	56.85
842.894	56.82
843.277	56.8
843.66	56.77
844.043	56.8
844.426	56.79
844.809	56.78
845.191	56.78
845.574	56.75
845.957	56.75
846.339	56.74
846.722	56.71
847.104	56.7
847.487	56.67
847.869	56.68
848.252	56.63
848.634	56.6
849.016	56.56
849.398	56.5
849.78	56.47
850.162	56.42
850.544	56.39
850.926	56.39
851.307	56.37
851.689	56.36
852.071	56.32
852.452	56.33
852.834	56.34
853.215	56.34
853.597	56.38
853.978	56.39
854.359	56.39
854.741	56.37
855.122	56.33
855.503	56.3
855.884	56.28
856.265	56.27
856.646	56.23
857.026	56.24
857.407	56.23
857.788	56.18
858.169	56.16
858.549	56.16
858.93	56.17
859.31	56.18
859.69	56.19
860.071	56.21
860.451	56.21
860.831	56.23
861.211	56.17
861.591	56.15
861.971	56.14
862.351	56.16
862.731	56.13
863.111	56.09
863.491	56.07
863.87	56.05
864.25	55.98
864.629	55.98
865.009	55.96
865.388	55.96
865.768	55.94
866.147	55.95
866.526	55.91
866.905	55.9
867.284	55.91
867.663	55.89
868.042	55.9
868.421	55.93
868.8	55.91
869.179	55.9
869.558	55.88
869.936	55.87
870.315	55.84
870.693	55.86
871.072	55.87
871.45	55.87
871.828	55.89
872.207	55.86
872.585	55.85
872.963	55.85
873.341	55.83
873.719	55.83
874.097	55.82
874.475	55.85
874.853	55.8
875.23	55.79
875.608	55.79
875.986	55.79
876.363	55.79
876.741	55.78
877.118	55.78
877.495	55.78
877.873	55.79
878.25	55.83
878.627	55.83
879.004	55.86
879.381	55.87
879.758	55.85
880.135	55.84
880.512	55.8
880.889	55.79
881.265	55.78
881.642	55.77
882.019	55.77
882.395	55.71
882.772	55.67
883.148	55.6
883.524	55.56
883.901	55.53
884.277	55.5
884.653	55.49
885.029	55.45
885.405	55.45
885.781	55.42
886.157	55.41
886.532	55.4
886.908	55.38
887.284	55.39
887.659	55.34
888.035	55.32
888.411	55.27
888.786	55.25
889.161	55.24
889.537	55.2
889.912	55.18
890.287	55.14
890.662	55.11
891.037	55.08
891.412	55.03
891.787	55.01
892.162	54.97
892.536	54.96
892.911	54.91
893.286	54.87
893.66	54.83
894.035	54.78
894.409	54.72
894.784	54.68
895.158	54.66
895.532	54.65
895.906	54.63
896.281	54.61
896.655	54.56
897.029	54.55
897.402	54.55
897.776	54.54
898.15	54.56
898.524	54.59
898.898	54.61
899.271	54.6
899.645	54.62
900.018	54.64
900.392	54.67
900.765	54.7
901.138	54.72
901.511	54.74
901.884	54.79
902.258	54.8
902.631	54.82
903.003	54.84
903.376	54.87
903.749	54.85
904.122	54.85
904.495	54.87
904.867	54.91
905.24	54.95
905.612	54.95
905.985	54.93
906.357	54.92
906.729	54.92
907.102	54.94
907.474	54.96
907.846	54.99
908.218	55
908.59	55
908.962	55
909.334	55
909.705	55
910.077	55.03
910.449	55.06
910.82	55.08
911.192	55.06
911.563	55.08
911.935	55.07
912.306	55.07
912.677	55.07
913.048	55.06
913.419	55.03
913.79	55.04
914.161	55.04
914.532	55.05
914.903	55.02
915.274	55.03
915.645	55.02
916.015	55.07
916.386	55.09
916.756	55.1
917.127	55.14
917.497	55.17
917.868	55.21
918.238	55.21
918.608	55.22
918.978	55.24
919.348	55.28
919.718	55.26
920.088	55.26
920.458	55.26
920.828	55.23
921.198	55.19
921.567	55.19
921.937	55.18
922.306	55.18
922.676	55.13
923.045	55.09
923.415	55.05
923.784	55.04
924.153	55.05
924.522	55.05
924.891	55.06
925.26	55.08
925.629	55.09
925.998	55.05
926.367	55.05
926.736	55.06
927.104	55.04
927.473	55.04
927.842	55
928.21	54.97
928.578	54.93
928.947	54.91
929.315	54.82
929.683	54.77
930.051	54.7
930.42	54.6
930.788	54.5
931.156	54.45
931.523	54.39
931.891	54.37
932.259	54.31
932.627	54.28
932.994	54.21
933.362	54.18
933.729	54.11
934.097	54.08
934.464	54.07
934.831	54.12
935.199	54.12
935.566	54.1
935.933	54.01
936.3	53.96
936.667	53.91
937.034	53.88
937.401	53.89
937.767	53.88
938.134	53.86
938.501	53.87
938.867	53.87
939.234	53.82
939.6	53.85
939.967	53.94
940.333	53.96
940.699	54
941.065	54.03
941.431	54.05
941.798	54.09
942.163	54.11
942.529	54.11
942.895	54.06
943.261	54.11
943.627	54.06
943.992	54.08
944.358	54.08
944.723	54.06
945.089	54.04
945.454	54.05
945.82	54.01
946.185	54.03
946.55	53.96
946.915	53.96
947.28	53.91
947.645	53.91
948.01	53.87
948.375	53.81
948.74	53.81
949.104	53.79
949.469	53.74
949.834	53.67
950.198	53.63
950.562	53.6
950.927	53.51
951.291	53.44
951.655	53.42
952.02	53.39
952.384	53.37
952.748	53.27
953.112	53.23
953.476	53.16
953.839	53.13
954.203	53.07
954.567	53.07
954.931	53.07
955.294	53.03
955.658	53.02
956.021	52.98
956.385	52.97
956.748	52.98
957.111	52.98
957.474	52.97
957.837	52.94
958.2	52.94
958.563	52.9
958.926	52.93
959.289	52.98
959.652	52.95
960.015	52.93
960.377	52.93
960.74	52.92
961.102	52.92
961.465	52.99
961.827	53.04
962.189	53.07
962.552	53.08
962.914	53.09
963.276	53.1
963.638	53.13
964	53.18
964.362	53.17
964.724	53.12
965.085	53.08
965.447	53.02
965.809	53.03
966.17	53.02
966.532	53.04
966.893	53.07
967.255	53.07
967.616	53.07
967.977	53.08
968.338	53.12
968.699	53.21
969.061	53.23
969.421	53.29
969.782	53.35
970.143	53.35
970.504	53.35
970.865	53.35
971.225	53.33
971.586	53.35
971.946	53.32
972.307	53.28
972.667	53.24
973.027	53.3
973.388	53.32
973.748	53.31
974.108	53.38
974.468	53.39
974.828	53.34
975.188	53.36
975.548	53.38
975.907	53.47
976.267	53.49
976.627	53.56
976.986	53.56
977.346	53.53
977.705	53.51
978.064	53.51
978.424	53.58
978.783	53.66
979.142	53.67
979.501	53.68
979.86	53.68
980.219	53.67
980.578	53.66
980.937	53.66
981.296	53.64
981.654	53.66
982.013	53.66
982.371	53.62
982.73	53.58
983.088	53.61
983.447	53.58
983.805	53.63
984.163	53.66
984.521	53.69
984.879	53.65
985.237	53.69
985.595	53.71
985.953	53.74
986.311	53.74
986.669	53.87
987.026	53.92
987.384	53.94
987.741	53.9
988.099	53.99
988.456	53.97
988.814	54.07
989.171	54.09
989.528	54.18
989.885	54.2
990.242	54.33
990.599	54.44
990.956	54.56
991.313	54.68
991.67	54.77
992.027	54.85
992.383	54.95
992.74	55.07
993.096	55.11
993.453	55.16
993.809	55.2
994.165	55.21
994.522	55.13
994.878	55.19
995.234	55.16
995.59	55.1
995.946	55.13
996.302	55.2
996.658	55.27
997.013	55.36
997.369	55.34
997.725	55.42
998.08	55.48
998.436	55.55
998.791	55.53
999.147	55.61
999.502	55.81
999.857	55.84
1000.212	55.82
1000.567	55.78
1000.922	55.88
1001.277	55.96
1001.632	55.88
1001.987	55.85
1002.342	55.82
1002.696	55.87
1003.051	55.93
1003.406	55.94
1003.76	55.9
1004.114	55.98
1004.469	56.06
1004.823	56.27
1005.177	56.41
1005.531	56.63
1005.885	56.71
1006.239	56.79
1006.593	56.89
1006.947	56.86
1007.301	56.78
1007.655	56.83
1008.008	56.91
1008.362	57.17
1008.715	57.01
1009.069	56.99
1009.422	57.03
1009.776	57.09
1010.129	57.15
1010.482	57.18
1010.835	57.33
1011.188	57.52
1011.541	57.67
1011.894	57.63
1012.247	57.53
1012.6	57.6
1012.952	57.56
1013.305	57.62
1013.657	57.78
1014.01	57.86
1014.362	57.96
1014.715	57.97
1015.067	58.03
1015.419	58.11
1015.771	58.05
1016.123	58.17
1016.475	58.16
1016.827	58.57
1017.179	58.67
1017.531	58.76
1017.883	58.9
1018.234	58.69
1018.586	58.83
1018.938	58.88
1019.289	58.79
1019.64	59.05
1019.992	58.89
1020.343	59.02
1020.694	58.85
1021.045	58.89
1021.396	58.93
1021.747	59.03
1022.098	59.32
1022.449	59.44
1022.8	59.66
1023.151	59.92
1023.501	60.08
1023.852	60.29
1024.202	60.37
1024.553	60.46
1024.903	60.36
1025.253	60.43
1025.604	60.47
1025.954	60.48
1026.304	60.76
1026.654	60.73
1027.004	60.67
1027.354	60.69
1027.703	60.69
1028.053	60.63
1028.403	60.71
1028.753	60.74
1029.102	60.99
1029.452	61.17
1029.801	61.58
1030.15	61.3
1030.499	61.3
897.758	992.16
901.051	999.71
904.343	999.65
907.636	1012.97
910.928	987.23
914.22	986.82
917.511	970.75
920.803	933.97
924.094	928.86
927.384	908.59
930.675	871.71
933.965	867.57
937.255	817.46
940.544	783.93
943.834	751.96
947.123	744.53
950.411	700.09
953.7	688.81
956.988	649.73
960.276	627.31
963.563	617.12
966.851	593.92
970.138	588.5
973.424	570.64
976.711	576.7
979.997	545.77
983.283	543.62
986.568	533.86
989.853	519.43
993.138	509.52
996.423	489.39
999.708	477.39
1002.992	472.5
1006.275	453.88
1009.559	449.74
1012.842	431.94
1016.125	422.13
1019.408	413.66
1022.69	411.52
1025.972	400.91
1029.254	393.43
1032.536	387.41
1035.817	379.84
1039.098	374.89
1042.379	366.93
1045.659	362.99
1048.939	354.84
1052.219	348.38
1055.498	344.61
1058.778	335.1
1062.057	329.88
1065.335	325.67
1068.614	322.36
1071.892	319.3
1075.17	310.92
1078.447	306.05
1081.724	303.58
1085.001	300.62
1088.278	296.47
1091.554	289.75
1094.83	290.28
1098.106	287.69
1101.382	284.97
1104.657	282.54
1107.932	277.83
1111.206	279.31
1114.481	272.19
1117.755	270.66
1121.029	268.41
1124.302	266.24
1127.575	262.81
1130.848	259.22
1134.121	256.28
1137.393	255.34
1140.665	250.16
1143.937	247.99
1147.208	245.58
1150.48	245.44
1153.75	241
1157.021	238.93
1160.291	238.74
1163.561	236.24
1166.831	235.54
1170.101	234.24
1173.37	234.12
1176.639	234.48
1179.907	233.06
1183.176	230.39
1186.444	229.92
1189.711	230.36
1192.979	229.08
1196.246	227.75
1199.513	228.15
1202.78	227.27
1206.046	227.12
1209.312	224.56
1212.578	224.87
1215.843	226.22
1219.108	225.49
1222.373	229.8
1225.638	230.71
1228.902	234.4
1232.166	234.85
1235.43	236.22
1238.693	239.52
1241.956	241.17
1245.219	244.83
1248.482	245.03
1251.744	244.83
1255.006	246.27
1258.268	239.84
1261.529	238.34
1264.79	236.8
1268.051	236.29
1271.312	233.05
1274.572	230.38
1277.832	228.66
1281.092	224.89
1284.351	223.51
1287.61	223.44
1290.869	219.56
1294.128	219.08
1297.386	218.2
1300.644	215.59
1303.902	216.27
1307.159	215.72
1310.416	215.35
1313.673	214.02
1316.93	216.03
1320.186	215.26
1323.442	215.7
1326.697	219.63
1329.953	219.73
1333.208	220.2
1336.463	222.82
1339.717	222.02
1342.972	224.95
1346.226	225.65
1349.479	226.46
1352.733	227.35
1355.986	228.76
1359.238	227.83
1362.491	227.95
1365.743	229.42
1368.995	230.97
1372.247	228.35
1375.498	228.02
1378.749	227.98
1382	225.37
1385.251	225.74
1388.501	223.03
1391.751	222.18
1395	221.81
1398.25	219.16
1401.499	216.31
1404.748	214.17
1407.996	212.74
1411.244	211.57
1414.492	209.81
1417.74	207.01
1420.987	203.73
1424.234	203.7
1427.481	201.47
1430.728	200.49
1433.974	198.72
1437.22	197.87
1440.465	197.35
1443.711	195.15
1446.956	193.79
1450.201	191.9
1453.445	190.61
1456.689	189.65
1459.933	186.78
1463.177	185
1466.42	182.68
1469.663	180.66
1472.906	179.21
1476.148	174.49
1479.391	173.38
1482.633	172.01
1485.874	169.37
1489.115	168.47
1492.356	166.84
1495.597	165.91
1498.838	164.09
1502.078	163.05
1505.318	162.57
1508.557	162.68
1511.797	162.41
1515.036	160.87
1518.274	160.44
1521.513	159.53
1524.751	159.5
1527.989	159.62
1531.227	159.15
1534.464	159.15
1537.701	159.07
1540.938	158.47
1544.174	157.14
1547.41	157.49
1550.646	157
1553.882	156.65
1557.117	155.57
1560.352	155
1563.587	153.77
1566.821	153.04
1570.055	152.38
1573.289	150.84
1576.523	150.79
1579.756	149.58
1582.989	148.73
1586.222	148.79
1589.454	149.01
1592.686	149.7
1595.918	148.63
1599.15	148.54
1602.381	149.2
1605.612	148.62
1608.843	148.56
1612.073	149.06
1615.303	150.24
1618.533	150.52
1621.762	150.46
1624.992	150.68
1628.221	150.45
1631.449	150.1
1634.678	150.43
1637.906	151
1641.134	150.97
1644.361	151.11
1647.588	151.23
1650.815	150.55
1654.042	150.42
1657.269	151.08
1660.495	150.7
1663.72	150.4
1666.946	151.21
1670.171	151.52
1673.396	151.36
1676.621	151.41
1679.845	151.95
1683.069	152.17
1686.293	152.79
1689.517	153.56
1692.74	153.36
1695.963	153.71
1699.185	154.96
1702.408	155.33
1705.63	155.25
1708.852	155.09
1712.073	155.62
1715.294	155.72
1718.515	156.57
1721.736	156.29
1724.956	156.48
1728.176	156.53
1731.396	157.37
1734.616	156.29
1737.835	156.92
1741.054	155.81
1744.272	156.59
1747.491	157.6
1750.709	158.16
1753.927	157.37
1757.144	157.23
1760.361	157.25
1763.578	157.14
1766.795	156.81
1770.011	158.81
1773.227	158.12
1776.443	160.23
1779.658	160.1
1782.874	159.97
1786.089	159.8
1789.303	160.26
1792.518	162.22
1795.732	161.77
1798.945	163.17
1802.159	163.44
1805.372	162.94
1808.585	165.97
1811.797	165.97
1815.01	166.75
1818.222	167.68
1821.434	170.15
1824.645	169.93
1827.856	172.16
1831.067	173.39
1834.278	173.98
1837.488	174.82
1840.698	176.11
1843.908	174.41
1847.117	174.65
1850.326	175.66
1853.535	174.65
1856.744	175.41
1859.952	176.16
1863.16	174.06
1866.368	173.24
1869.575	172.92
1872.782	170.75
1875.989	170.38
1879.196	169.78
1882.402	169.14
1885.608	168.84
1888.814	169.07
1892.019	168.66
1895.224	167.88
1898.429	168
1901.634	168.35
1904.838	169.35
1908.042	171.1
1911.246	171.14
1914.449	171.97
1917.652	172.65
1920.855	172.18
1924.058	172.47
1927.26	171.43
1930.462	171.92
1933.664	174.05
1936.865	172.25
1940.066	171.69
1943.267	170.96
1946.467	171.13
1949.668	171.95
1952.868	173.83
1956.067	174.72
1959.267	174.21
1962.466	175.03
1965.665	173.26
1968.863	173.72
1972.061	176.86
1975.259	178.95
1978.457	179.79
1981.654	181.27
1984.852	181.86
1988.048	180.79
1991.245	183.08
1994.441	184.79
1997.637	186.28
2000.833	191.41
2004.028	193.16
2007.223	194.76
2010.418	195.83
2013.613	199.92
2016.807	201.83
2020.001	203.51
2023.194	207.26
2026.388	210.58
2029.581	216.12
2032.774	217.77
2035.966	221.12
2039.158	221.48
2042.35	225.64
2045.542	227.27
2048.733	230.65
2051.924	234.69
2055.115	237.91
2058.306	238.26
2061.496	240.18
2064.686	240.43
2067.875	244.83
2071.065	246.79
2074.254	244.6
2077.442	248.64
2080.631	249.8
2083.819	251.54
2087.007	252.08
2090.195	255.57
2093.382	257.8
2096.569	256.86
2099.756	260.75
2102.942	261.45
2106.128	262.08
2109.314	270.29
2112.5	268.45
2115.685	273.15
2118.87	273.62
2122.055	278.13
2125.239	279.65
2128.424	282.55
2131.608	285.92
2134.791	289.9
2137.974	291.18
2141.157	292.21
2144.34	291.91
2147.523	296.62
2150.705	295.92
2153.887	299.07
2157.068	299.15
2160.25	298.43
2163.431	299.88
2166.611	302.97
2169.792	307.53
2172.972	311.34
2176.152	314.64
2179.331	318.43
2182.511	322.57
2185.69	327.16
2188.868	333.06
2192.047	334.01
2195.225	342.12
2198.403	351.51
2201.58	358.42
2204.758	364.61
2207.935	371.48
2211.111	380.44
2214.288	383.91
2217.464	385.68
2220.64	390.76
2223.815	395.74
2226.991	411.33
2230.166	412.58
2233.34	418.12
2236.515	424.73
2239.689	426.97
2242.863	428.66
2246.036	437.7
2249.209	434.51
2252.382	442.72
2255.555	453.72
2258.727	456.33
2261.9	459.95
2265.071	463.65
2268.243	473.38
2271.414	478.08
2274.585	487.21
2277.756	491.87
2280.926	496
2284.096	508.99
2287.266	517.23
2290.436	523.63
2293.605	534.36
2296.774	551.76
2299.942	567.27
2303.111	569.8
2306.279	581.35
2309.447	591.56
2312.614	606.72
2315.781	622.49
2318.948	651.8
2322.115	644.05
2325.281	680.43
2328.447	669.35
2331.613	691.23
2334.779	687.28
2337.944	713.72
2341.109	720.83
2344.274	739.83
2347.438	768.23
2350.602	768.67
2353.766	793.87
2356.929	807.91
2360.092	803.04
2363.255	858.9
2366.418	860.3
2369.58	875.85
2372.742	932.13
2375.904	956.17
2379.066	950.96
2382.227	932.07
2385.388	1012.11
2388.548	1008.39
2391.709	1020.13
2394.869	1129.37
2398.029	1088.54
2401.188	1119.19
2404.347	1113.9
2407.506	1093.99
2410.665	1124.71
2413.823	1191.13
2416.981	1259.38
2420.139	1219.89
2423.296	1205.88
2426.453	1265.08
2429.61	1221.3
2432.767	1268.06
2435.923	1254.13
2439.079	1378.45
2442.235	1401.26
2445.391	1388.37
2448.546	1376.5
2451.701	1336.17
2454.855	1331.87
2458.009	1419.07
2461.163	1470.82
2464.317	1518.92
2467.471	1556.17
2470.624	1558.49
2473.777	1508.03
2476.929	1465.22
2480.082	1418.74
2483.234	1406.06
2486.385	1481.97
2489.537	1489.91
2492.688	1541.66
2495.839	1497.65
2498.989	1463.2
2502.14	1474.83
2505.29	1486.32
2508.439	1504.59
2511.589	1505.25
2514.738	1649.91
2517.887	1613.26
2521.035	1700.84
2524.183	1707.77
2527.331	1718.66
2530.479	1706.46
2533.627	1723.17
