Data from C_3_DEC_ON_6N_Splice17_14-24-29-164.txt Node
Date: Sat Mar 07 14:24:29 EST 2020
User: sa697716
Spectrometer: NQ5500242
Trigger mode: 0
Integration Time (sec): 1.450000E-1
Scans to average: 20
Nonlinearity correction enabled: false
Boxcar width: 5
Storing dark spectrum: false
XAxis mode: Wavelengths
Number of Pixels in Spectrum: 512
>>>>>Begin Spectral Data<<<<<
187.83	149.05
188.298	152.58
188.766	127.03
189.233	110.11
189.701	124.38
190.169	148.66
190.636	187.43
191.104	287.69
191.571	351.99
192.039	164.47
192.506	202.61
192.974	57.76
193.441	94.88
193.908	4.35
194.375	20.51
194.842	24.98
195.31	39.62
195.777	-26.9
196.244	54.83
196.711	66.33
197.177	69.87
197.644	69.89
198.111	69.38
198.578	68.92
199.045	69.65
199.511	69.82
199.978	70.24
200.445	70.57
200.911	70.67
201.378	70.79
201.844	70.55
202.31	69.84
202.777	69.89
203.243	69.99
203.709	69.81
204.176	69.2
204.642	68.65
205.108	68.12
205.574	67.44
206.04	66.71
206.506	65.94
206.972	65.31
207.438	64.76
207.903	63.91
208.369	62.44
208.835	61.03
209.301	59.57
209.766	57.77
210.232	56.1
210.697	54.53
211.163	53.2
211.628	51.8
212.094	50.57
212.559	49.19
213.024	47.95
213.49	46.91
213.955	45.97
214.42	44.73
214.885	43.58
215.35	41.71
215.815	39.37
216.28	36.61
216.745	33.55
217.21	30.44
217.675	27.58
218.14	24.9
218.604	22.63
219.069	20.67
219.534	19.08
219.998	17.74
220.463	16.75
220.927	15.8
221.392	15.03
221.856	14.4
222.32	13.86
222.785	13.42
223.249	13.02
223.713	12.68
224.177	12.39
224.642	12.13
225.106	11.86
225.57	11.56
226.034	11.35
226.497	11.14
226.961	10.93
227.425	10.71
227.889	10.51
228.353	10.33
228.816	10.13
229.28	9.96
229.744	9.77
230.207	9.61
230.671	9.45
231.134	9.3
231.597	9.16
232.061	9.02
232.524	8.9
232.987	8.79
233.45	8.68
233.914	8.57
234.377	8.45
234.84	8.35
235.303	8.28
235.766	8.19
236.229	8.1
236.691	8.01
237.154	7.93
237.617	7.86
238.08	7.78
238.542	7.69
239.005	7.63
239.468	7.55
239.93	7.49
240.393	7.42
240.855	7.34
241.317	7.28
241.78	7.21
242.242	7.14
242.704	7.07
243.166	7
243.629	6.95
244.091	6.88
244.553	6.83
245.015	6.76
245.477	6.69
245.939	6.63
246.4	6.57
246.862	6.52
247.324	6.46
247.786	6.4
248.247	6.35
248.709	6.28
249.17	6.22
249.632	6.18
250.093	6.14
250.555	6.09
251.016	6.05
251.477	6.01
251.939	5.97
252.4	5.94
252.861	5.9
253.322	5.87
253.783	5.84
254.244	5.82
254.705	5.77
255.166	5.73
255.627	5.7
256.088	5.68
256.549	5.65
257.009	5.61
257.47	5.57
257.931	5.54
258.391	5.49
258.852	5.45
259.312	5.41
259.773	5.37
260.233	5.34
260.694	5.3
261.154	5.26
261.614	5.23
262.074	5.19
262.534	5.16
262.994	5.13
263.455	5.1
263.915	5.08
264.374	5.06
264.834	5.04
265.294	5.02
265.754	5
266.214	4.99
266.673	4.97
267.133	4.96
267.593	4.94
268.052	4.93
268.512	4.92
268.971	4.9
269.431	4.89
269.89	4.87
270.349	4.86
270.809	4.85
271.268	4.84
271.727	4.83
272.186	4.82
272.645	4.82
273.104	4.8
273.563	4.79
274.022	4.78
274.481	4.78
274.94	4.77
275.399	4.76
275.857	4.75
276.316	4.75
276.775	4.74
277.233	4.73
277.692	4.72
278.15	4.72
278.609	4.71
279.067	4.7
279.525	4.7
279.984	4.69
280.442	4.69
280.9	4.68
281.358	4.67
281.816	4.67
282.274	4.66
282.732	4.66
283.19	4.65
283.648	4.66
284.106	4.65
284.564	4.65
285.021	4.64
285.479	4.63
285.937	4.63
286.394	4.63
286.852	4.63
287.309	4.62
287.767	4.61
288.224	4.6
288.682	4.58
289.139	4.57
289.596	4.55
290.053	4.53
290.511	4.52
290.968	4.5
291.425	4.48
291.882	4.47
292.339	4.46
292.796	4.45
293.252	4.44
293.709	4.43
294.166	4.41
294.623	4.4
295.079	4.39
295.536	4.39
295.992	4.38
296.449	4.37
296.905	4.37
297.362	4.36
297.818	4.35
298.274	4.35
298.731	4.33
299.187	4.33
299.643	4.32
300.099	4.32
300.555	4.31
301.011	4.31
301.467	4.3
301.923	4.29
302.379	4.28
302.835	4.28
303.291	4.28
303.746	4.28
304.202	4.29
304.658	4.29
305.113	4.29
305.569	4.29
306.024	4.29
306.479	4.29
306.935	4.29
307.39	4.3
307.845	4.3
308.301	4.3
308.756	4.31
309.211	4.3
309.666	4.31
310.121	4.31
310.576	4.32
311.031	4.32
311.486	4.33
311.94	4.35
312.395	4.35
312.85	4.35
313.305	4.36
313.759	4.36
314.214	4.36
314.668	4.35
315.123	4.35
315.577	4.34
316.032	4.34
316.486	4.33
316.94	4.32
317.394	4.31
317.849	4.29
318.303	4.28
318.757	4.27
319.211	4.26
319.665	4.25
320.119	4.24
320.572	4.23
321.026	4.22
321.48	4.21
321.934	4.2
322.387	4.19
322.841	4.19
323.295	4.18
323.748	4.18
324.202	4.18
324.655	4.17
325.108	4.17
325.562	4.17
326.015	4.17
326.468	4.17
326.921	4.18
327.374	4.18
327.827	4.18
328.28	4.18
328.733	4.18
329.186	4.19
329.639	4.2
330.092	4.2
330.545	4.2
330.997	4.2
331.45	4.21
331.903	4.22
332.355	4.23
332.808	4.24
333.26	4.24
333.713	4.25
334.165	4.24
334.617	4.25
335.069	4.25
335.522	4.27
335.974	4.27
336.426	4.27
336.878	4.26
337.33	4.25
337.782	4.25
338.234	4.25
338.686	4.24
339.137	4.25
339.589	4.24
340.041	4.24
340.493	4.22
340.944	4.21
341.396	4.19
341.847	4.18
342.299	4.16
342.75	4.14
343.201	4.13
343.653	4.12
344.104	4.1
344.555	4.08
345.006	4.07
345.457	4.06
345.908	4.06
346.359	4.06
346.81	4.05
347.261	4.05
347.712	4.05
348.163	4.04
348.613	4.04
349.064	4.04
349.515	4.05
349.965	4.04
350.416	4.03
350.866	4.03
351.317	4.02
351.767	4.03
352.217	4.02
352.668	4.03
353.118	4.04
353.568	4.03
354.018	4.04
354.468	4.04
354.918	4.05
355.368	4.06
355.818	4.06
356.268	4.07
356.718	4.07
357.168	4.07
357.617	4.07
358.067	4.07
358.517	4.08
358.966	4.09
359.416	4.09
359.865	4.08
360.315	4.09
360.764	4.1
361.213	4.08
361.663	4.08
362.112	4.08
362.561	4.09
363.01	4.09
363.459	4.08
363.908	4.08
364.357	4.08
364.806	4.08
365.255	4.08
365.703	4.09
366.152	4.11
366.601	4.13
367.05	4.13
367.498	4.12
367.947	4.13
368.395	4.14
368.844	4.16
369.292	4.16
369.74	4.16
370.189	4.17
370.637	4.16
371.085	4.15
371.533	4.15
371.981	4.15
372.429	4.17
372.877	4.17
373.325	4.17
373.773	4.17
374.221	4.17
374.669	4.17
375.116	4.17
375.564	4.18
376.012	4.2
376.459	4.2
376.907	4.22
377.354	4.23
377.801	4.24
378.249	4.25
378.696	4.26
379.143	4.27
379.591	4.29
380.038	4.29
380.485	4.29
380.932	4.29
381.379	4.3
381.826	4.31
382.273	4.32
382.72	4.33
383.166	4.34
383.613	4.35
384.06	4.35
384.506	4.35
384.953	4.37
385.4	4.39
385.846	4.41
386.292	4.43
386.739	4.43
387.185	4.43
387.631	4.46
388.078	4.46
388.524	4.47
388.97	4.48
389.416	4.51
389.862	4.52
390.308	4.54
390.754	4.56
391.2	4.58
391.645	4.6
392.091	4.63
392.537	4.65
392.983	4.67
393.428	4.7
393.874	4.72
394.319	4.74
394.765	4.76
395.21	4.76
395.655	4.77
396.101	4.79
396.546	4.81
396.991	4.83
397.436	4.83
397.881	4.87
398.326	4.88
398.771	4.91
399.216	4.92
399.661	4.95
400.106	4.97
400.551	4.98
400.995	4.98
401.44	4.99
401.885	4.99
402.329	5.01
402.774	5
403.218	5.03
403.663	5.04
404.107	5.06
404.551	5.05
404.995	5.06
405.44	5.07
405.884	5.08
406.328	5.1
406.772	5.1
407.216	5.12
407.66	5.13
408.104	5.13
408.547	5.13
408.991	5.14
409.435	5.15
409.879	5.15
410.322	5.18
410.766	5.18
411.209	5.19
411.653	5.21
412.096	5.23
412.54	5.23
412.983	5.23
413.426	5.27
413.869	5.28
414.312	5.31
414.756	5.34
415.199	5.34
415.642	5.36
416.085	5.37
416.527	5.37
416.97	5.36
417.413	5.37
417.856	5.37
418.298	5.36
418.741	5.35
419.184	5.34
419.626	5.34
420.069	5.34
420.511	5.34
420.953	5.34
421.396	5.35
421.838	5.36
422.28	5.37
422.722	5.4
423.164	5.4
423.606	5.43
424.048	5.44
424.49	5.45
424.932	5.45
425.374	5.44
425.816	5.43
426.258	5.42
426.699	5.4
427.141	5.37
427.582	5.36
428.024	5.37
428.465	5.37
428.907	5.36
429.348	5.36
429.789	5.36
430.231	5.38
430.672	5.4
431.113	5.43
431.554	5.46
431.995	5.5
432.436	5.51
432.877	5.52
433.318	5.52
433.759	5.54
434.2	5.56
434.64	5.6
435.081	5.62
435.522	5.63
435.962	5.65
436.403	5.67
436.843	5.68
437.284	5.69
437.724	5.71
438.164	5.72
438.604	5.74
439.045	5.74
439.485	5.74
439.925	5.73
440.365	5.74
440.805	5.74
441.245	5.76
441.685	5.76
442.125	5.78
442.564	5.78
443.004	5.79
443.444	5.8
443.883	5.82
444.323	5.81
444.762	5.83
445.202	5.84
445.641	5.86
446.081	5.87
446.52	5.88
446.959	5.9
447.398	5.92
447.837	5.91
448.276	5.93
448.716	5.95
449.154	5.98
449.593	5.99
450.032	6
450.471	5.99
450.91	5.97
451.349	5.99
451.787	5.97
452.226	5.95
452.664	5.95
453.103	5.92
453.541	5.91
453.98	5.89
454.418	5.87
454.856	5.84
455.295	5.83
455.733	5.79
456.171	5.76
456.609	5.75
457.047	5.74
457.485	5.71
457.923	5.71
458.361	5.68
458.798	5.68
459.236	5.65
459.674	5.65
460.111	5.64
460.549	5.65
460.987	5.65
461.424	5.65
461.862	5.65
462.299	5.66
462.736	5.64
463.173	5.65
463.611	5.64
464.048	5.64
464.485	5.65
464.922	5.66
465.359	5.66
465.796	5.66
466.233	5.67
466.67	5.68
467.106	5.68
467.543	5.69
467.98	5.7
468.416	5.71
468.853	5.72
469.29	5.72
469.726	5.72
470.162	5.72
470.599	5.72
471.035	5.71
471.471	5.7
471.907	5.69
472.344	5.69
472.78	5.68
473.216	5.67
473.652	5.67
474.088	5.65
474.523	5.64
474.959	5.65
475.395	5.63
475.831	5.62
476.266	5.63
476.702	5.63
477.138	5.62
477.573	5.63
478.008	5.63
478.444	5.61
478.879	5.61
479.314	5.6
479.75	5.6
480.185	5.59
480.62	5.58
481.055	5.56
481.49	5.54
481.925	5.53
482.36	5.52
482.795	5.51
483.229	5.49
483.664	5.49
484.099	5.47
484.534	5.46
484.968	5.46
485.403	5.45
485.837	5.46
486.271	5.47
486.706	5.47
487.14	5.48
487.574	5.48
488.009	5.5
488.443	5.5
488.877	5.52
489.311	5.53
489.745	5.55
490.179	5.58
490.613	5.6
491.046	5.61
491.48	5.63
491.914	5.65
492.348	5.68
492.781	5.71
493.215	5.74
493.648	5.77
494.082	5.81
494.515	5.83
494.948	5.87
495.382	5.89
495.815	5.94
496.248	5.99
496.681	6.04
497.114	6.09
497.547	6.14
497.98	6.2
498.413	6.25
498.846	6.31
499.279	6.38
499.711	6.44
500.144	6.53
500.577	6.6
501.009	6.67
501.442	6.75
501.874	6.85
502.306	6.94
502.739	7.05
503.171	7.15
503.603	7.26
504.036	7.37
504.468	7.48
504.9	7.59
505.332	7.72
505.764	7.85
506.196	7.99
506.627	8.12
507.059	8.26
507.491	8.4
507.923	8.55
508.354	8.71
508.786	8.88
509.217	9.06
509.649	9.24
510.08	9.42
510.512	9.6
510.943	9.79
511.374	9.98
511.805	10.17
512.237	10.37
512.668	10.58
513.099	10.78
513.53	11
513.961	11.21
514.391	11.43
514.822	11.65
515.253	11.87
515.684	12.09
516.114	12.34
516.545	12.57
516.975	12.81
517.406	13.05
517.836	13.3
518.267	13.54
518.697	13.77
519.127	14
519.558	14.23
519.988	14.47
520.418	14.71
520.848	14.93
521.278	15.16
521.708	15.48
522.138	15.69
522.567	15.89
522.997	16.1
523.427	16.32
523.857	16.51
524.286	16.7
524.716	16.9
525.145	17.08
525.575	17.26
526.004	17.45
526.433	17.51
526.863	17.68
527.292	17.85
527.721	18
528.15	18.13
528.579	18.27
529.008	18.41
529.437	18.53
529.866	18.64
530.295	18.77
530.724	18.88
531.152	18.99
531.581	19.1
532.01	19.2
532.438	19.28
532.867	19.38
533.295	19.46
533.723	19.52
534.152	19.59
534.58	19.67
535.008	19.71
535.436	19.76
535.865	19.81
536.293	19.84
536.721	19.88
537.149	19.93
537.576	19.95
538.004	20
538.432	20.05
538.86	20.09
539.287	20.1
539.715	20.14
540.143	20.18
540.57	20.2
540.998	20.23
541.425	20.27
541.852	20.29
542.28	20.34
542.707	20.36
543.134	20.39
543.561	20.43
543.988	20.47
544.415	20.49
544.842	20.52
545.269	20.56
545.696	20.59
546.123	20.61
546.549	20.63
546.976	20.66
547.403	20.68
547.829	20.7
548.256	20.72
548.682	20.74
549.108	20.77
549.535	20.79
549.961	20.8
550.387	20.82
550.813	20.85
551.24	20.86
551.666	20.86
552.092	20.86
552.518	20.86
552.943	20.86
553.369	20.86
553.795	20.84
554.221	20.82
554.646	20.79
555.072	20.77
555.498	20.73
555.923	20.7
556.349	20.64
556.774	20.6
557.199	20.55
557.625	20.5
558.05	20.43
558.475	20.39
558.9	20.33
559.325	20.29
559.75	20.21
560.175	20.14
560.6	20.05
561.025	19.97
561.449	19.87
561.874	19.78
562.299	19.66
562.723	19.56
563.148	19.44
563.572	19.3
563.997	19.17
564.421	19.05
564.846	18.92
565.27	18.8
565.694	18.67
566.118	18.54
566.542	18.41
566.966	18.28
567.39	18.14
567.814	18.01
568.238	17.87
568.662	17.73
569.086	17.6
569.509	17.46
569.933	17.34
570.357	17.2
570.78	17.07
571.204	16.94
571.627	16.83
572.05	16.7
572.474	16.6
572.897	16.5
573.32	16.38
573.743	16.27
574.166	16.18
574.589	16.07
575.012	15.99
575.435	15.89
575.858	15.81
576.281	15.72
576.704	15.64
577.126	15.55
577.549	15.45
577.972	15.38
578.394	15.3
578.817	15.23
579.239	15.17
579.661	15.09
580.084	15.01
580.506	14.95
580.928	14.88
581.35	14.82
581.772	14.76
582.194	14.71
582.616	14.65
583.038	14.59
583.46	14.53
583.882	14.46
584.303	14.41
584.725	14.36
585.147	14.29
585.568	14.24
585.99	14.18
586.411	14.14
586.833	14.08
587.254	14.04
587.675	14
588.096	13.94
588.518	13.9
588.939	13.87
589.36	13.82
589.781	13.78
590.202	13.75
590.623	13.71
591.043	13.68
591.464	13.65
591.885	13.6
592.305	13.56
592.726	13.55
593.147	13.51
593.567	13.48
593.987	13.44
594.408	13.42
594.828	13.38
595.248	13.34
595.669	13.31
596.089	13.27
596.509	13.25
596.929	13.22
597.349	13.19
597.769	13.16
598.189	13.12
598.608	13.09
599.028	13.05
599.448	13.01
599.867	12.98
600.287	12.95
600.706	12.91
601.126	12.88
601.545	12.84
601.965	12.79
602.384	12.74
602.803	12.7
603.222	12.65
603.641	12.62
604.061	12.57
604.48	12.52
604.898	12.46
605.317	12.41
605.736	12.36
606.155	12.3
606.574	12.24
606.992	12.19
607.411	12.15
607.829	12.08
608.248	12.01
608.666	11.96
609.085	11.91
609.503	11.86
609.921	11.8
610.339	11.74
610.758	11.69
611.176	11.63
611.594	11.58
612.012	11.51
612.43	11.48
612.847	11.42
613.265	11.36
613.683	11.31
614.101	11.25
614.518	11.21
614.936	11.16
615.353	11.1
615.771	11.05
616.188	11
616.606	10.97
617.023	10.92
617.44	10.88
617.857	10.84
618.274	10.79
618.691	10.75
619.108	10.71
619.525	10.69
619.942	10.66
620.359	10.63
620.776	10.61
621.192	10.58
621.609	10.57
622.026	10.54
622.442	10.53
622.859	10.51
623.275	10.51
623.691	10.49
624.108	10.47
624.524	10.45
624.94	10.44
625.356	10.43
625.772	10.42
626.188	10.41
626.604	10.39
627.02	10.38
627.436	10.37
627.852	10.35
628.268	10.34
628.683	10.33
629.099	10.32
629.514	10.3
629.93	10.29
630.345	10.27
630.761	10.24
631.176	10.21
631.591	10.19
632.007	10.15
632.422	10.11
632.837	10.07
633.252	10.02
633.667	9.96
634.082	9.89
634.497	9.83
634.911	9.76
635.326	9.69
635.741	9.62
636.155	9.53
636.57	9.45
636.984	9.36
637.399	9.26
637.813	9.17
638.228	9.07
638.642	8.98
639.056	8.86
639.47	8.76
639.884	8.67
640.298	8.57
640.712	8.46
641.126	8.36
641.54	8.26
641.954	8.17
642.368	8.07
642.781	7.99
643.195	7.9
643.609	7.83
644.022	7.75
644.436	7.66
644.849	7.59
645.262	7.52
645.676	7.46
646.089	7.39
646.502	7.34
646.915	7.3
647.328	7.25
647.741	7.2
648.154	7.16
648.567	7.12
648.98	7.1
649.393	7.07
649.805	7.05
650.218	7.03
650.631	7.01
651.043	6.99
651.456	6.97
651.868	6.94
652.28	6.92
652.693	6.92
653.105	6.9
653.517	6.86
653.929	6.84
654.341	6.81
654.753	6.77
655.165	6.75
655.577	6.71
655.989	6.67
656.401	6.64
656.813	6.6
657.224	6.54
657.636	6.5
658.047	6.47
658.459	6.42
658.87	6.38
659.282	6.33
659.693	6.29
660.104	6.23
660.515	6.19
660.926	6.14
661.338	6.09
661.749	6.06
662.159	6.01
662.57	5.97
662.981	5.94
663.392	5.9
663.803	5.87
664.213	5.83
664.624	5.8
665.035	5.78
665.445	5.76
665.855	5.75
666.266	5.73
666.676	5.72
667.086	5.7
667.497	5.68
667.907	5.67
668.317	5.67
668.727	5.67
669.137	5.66
669.547	5.66
669.956	5.66
670.366	5.66
670.776	5.65
671.186	5.67
671.595	5.67
672.005	5.68
672.414	5.69
672.824	5.7
673.233	5.72
673.642	5.75
674.052	5.76
674.461	5.78
674.87	5.79
675.279	5.82
675.688	5.84
676.097	5.88
676.506	5.91
676.915	5.93
677.323	5.97
677.732	5.99
678.141	6.02
678.549	6.05
678.958	6.1
679.366	6.15
679.775	6.2
680.183	6.26
680.592	6.33
681	6.4
681.408	6.47
681.816	6.56
682.224	6.65
682.632	6.75
683.04	6.86
683.448	6.98
683.856	7.09
684.264	7.23
684.671	7.38
685.079	7.55
685.487	7.73
685.894	7.94
686.302	8.16
686.709	8.41
687.116	8.68
687.524	8.97
687.931	9.27
688.338	9.61
688.745	9.96
689.152	10.34
689.559	10.74
689.966	11.16
690.373	11.58
690.78	12.02
691.187	12.47
691.593	12.94
692	13.41
692.407	13.9
692.813	14.4
693.22	14.9
693.626	15.42
694.032	15.92
694.439	16.44
694.845	16.98
695.251	17.51
695.657	18.02
696.063	18.56
696.469	19.1
696.875	19.63
697.281	20.15
697.687	20.67
698.093	21.18
698.498	21.69
698.904	22.19
699.31	22.69
699.715	23.19
700.12	23.68
700.526	24.17
700.931	24.64
701.337	25.1
701.742	25.56
702.147	26.01
702.552	26.45
702.957	26.88
703.362	27.31
703.767	27.71
704.172	28.1
704.577	28.48
704.981	28.86
705.386	29.24
705.791	29.62
706.195	29.99
706.6	30.38
707.004	30.72
707.408	31.09
707.813	31.41
708.217	31.76
708.621	32.11
709.025	32.45
709.43	32.77
709.834	33.11
710.237	33.41
710.641	33.7
711.045	33.99
711.449	34.32
711.853	34.61
712.256	34.91
712.66	35.2
713.064	35.48
713.467	35.76
713.87	36.03
714.274	36.28
714.677	36.57
715.08	36.83
715.484	37.08
715.887	37.32
716.29	37.57
716.693	37.82
717.096	38.04
717.499	38.27
717.901	38.49
718.304	38.69
718.707	38.91
719.109	39.12
719.512	39.34
719.915	39.55
720.317	39.73
720.719	39.9
721.122	40.09
721.524	40.28
721.926	40.44
722.328	40.62
722.731	40.82
723.133	41
723.535	41.16
723.937	41.33
724.338	41.48
724.74	41.65
725.142	41.84
725.544	41.96
725.945	42.11
726.347	42.25
726.748	42.37
727.15	42.48
727.551	42.59
727.952	42.69
728.354	42.78
728.755	42.88
729.156	42.97
729.557	43.05
729.958	43.16
730.359	43.24
730.76	43.33
731.161	43.41
731.562	43.51
731.962	43.58
732.363	43.68
732.763	43.76
733.164	43.83
733.564	43.92
733.965	43.97
734.365	44.04
734.766	44.1
735.166	44.16
735.566	44.21
735.966	44.28
736.366	44.33
736.766	44.37
737.166	44.41
737.566	44.47
737.966	44.49
738.365	44.54
738.765	44.61
739.165	44.68
739.564	44.74
739.964	44.8
740.363	44.83
740.763	44.87
741.162	44.91
741.561	44.93
741.96	44.95
742.36	45
742.759	45.03
743.158	45.03
743.557	45.02
743.955	45.04
744.354	45.06
744.753	45.12
745.152	45.17
745.55	45.18
745.949	45.25
746.348	45.3
746.746	45.35
747.144	45.39
747.543	45.43
747.941	45.48
748.339	45.48
748.737	45.51
749.136	45.5
749.534	45.5
749.932	45.51
750.33	45.49
750.727	45.5
751.125	45.5
751.523	45.48
751.921	45.5
752.318	45.49
752.716	45.51
753.113	45.5
753.511	45.51
753.908	45.52
754.305	45.51
754.703	45.51
755.1	45.48
755.497	45.5
755.894	45.51
756.291	45.5
756.688	45.49
757.085	45.5
757.482	45.49
757.878	45.47
758.275	45.44
758.672	45.45
759.068	45.48
759.465	45.47
759.861	45.45
760.258	45.43
760.654	45.42
761.05	45.42
761.447	45.42
761.843	45.4
762.239	45.4
762.635	45.4
763.031	45.4
763.427	45.34
763.822	45.33
764.218	45.34
764.614	45.33
765.01	45.32
765.405	45.32
765.801	45.28
766.196	45.31
766.592	45.33
766.987	45.32
767.382	45.3
767.778	45.32
768.173	45.36
768.568	45.34
768.963	45.36
769.358	45.39
769.753	45.4
770.148	45.43
770.542	45.43
770.937	45.43
771.332	45.45
771.726	45.47
772.121	45.47
772.515	45.48
772.91	45.49
773.304	45.5
773.699	45.52
774.093	45.51
774.487	45.52
774.881	45.53
775.275	45.53
775.669	45.53
776.063	45.55
776.457	45.57
776.851	45.57
777.245	45.56
777.638	45.55
778.032	45.54
778.425	45.58
778.819	45.56
779.212	45.58
779.606	45.57
779.999	45.57
780.392	45.59
780.786	45.61
781.179	45.62
781.572	45.65
781.965	45.65
782.358	45.67
782.751	45.66
783.143	45.7
783.536	45.66
783.929	45.67
784.322	45.7
784.714	45.72
785.107	45.73
785.499	45.74
785.891	45.75
786.284	45.77
786.676	45.77
787.068	45.77
787.46	45.78
787.852	45.83
788.245	45.84
788.636	45.82
789.028	45.81
789.42	45.8
789.812	45.81
790.204	45.82
790.595	45.83
790.987	45.84
791.378	45.88
791.77	45.89
792.161	45.91
792.553	45.93
792.944	45.97
793.335	46.01
793.726	46.05
794.117	46.04
794.508	46.01
794.899	46.01
795.29	46.02
795.681	46
796.072	46
796.463	46
796.853	45.98
797.244	46
797.634	45.98
798.025	46.01
798.415	46.01
798.806	46.02
799.196	46.04
799.586	46.05
799.976	46.1
800.366	46.1
800.756	46.14
801.146	46.19
801.536	46.19
801.926	46.2
802.316	46.18
802.706	46.23
803.095	46.29
803.485	46.31
803.874	46.32
804.264	46.32
804.653	46.34
805.043	46.34
805.432	46.35
805.821	46.37
806.21	46.4
806.599	46.44
806.988	46.41
807.377	46.43
807.766	46.43
808.155	46.43
808.544	46.44
808.933	46.45
809.321	46.46
809.71	46.43
810.098	46.45
810.487	46.43
810.875	46.43
811.264	46.47
811.652	46.47
812.04	46.49
812.428	46.52
812.816	46.53
813.204	46.52
813.592	46.53
813.98	46.56
814.368	46.55
814.756	46.54
815.144	46.51
815.531	46.5
815.919	46.49
816.306	46.49
816.694	46.5
817.081	46.52
817.469	46.53
817.856	46.52
818.243	46.5
818.63	46.5
819.017	46.51
819.404	46.52
819.791	46.52
820.178	46.55
820.565	46.53
820.952	46.51
821.339	46.47
821.725	46.49
822.112	46.5
822.498	46.51
822.885	46.55
823.271	46.55
823.657	46.53
824.044	46.55
824.43	46.55
824.816	46.56
825.202	46.56
825.588	46.59
825.974	46.56
826.36	46.54
826.746	46.54
827.132	46.52
827.517	46.52
827.903	46.54
828.289	46.53
828.674	46.52
829.06	46.5
829.445	46.48
829.83	46.44
830.216	46.44
830.601	46.43
830.986	46.4
831.371	46.36
831.756	46.35
832.141	46.32
832.526	46.33
832.911	46.3
833.295	46.29
833.68	46.29
834.065	46.31
834.449	46.3
834.834	46.28
835.218	46.3
835.603	46.29
835.987	46.27
836.371	46.24
836.755	46.2
837.139	46.18
837.524	46.19
837.908	46.18
838.291	46.17
838.675	46.15
839.059	46.14
839.443	46.1
839.827	46.09
840.21	46.1
840.594	46.1
840.977	46.1
841.361	46.12
841.744	46.07
842.127	46.05
842.511	46.01
842.894	46.02
843.277	46.01
843.66	46
844.043	45.99
844.426	45.99
844.809	46
845.191	46
845.574	46
845.957	46.04
846.339	46.04
846.722	46.06
847.104	46.05
847.487	46.06
847.869	46.09
848.252	46.09
848.634	46.09
849.016	46.13
849.398	46.13
849.78	46.14
850.162	46.11
850.544	46.13
850.926	46.16
851.307	46.16
851.689	46.16
852.071	46.16
852.452	46.17
852.834	46.18
853.215	46.13
853.597	46.14
853.978	46.13
854.359	46.16
854.741	46.17
855.122	46.16
855.503	46.15
855.884	46.15
856.265	46.15
856.646	46.16
857.026	46.19
857.407	46.23
857.788	46.23
858.169	46.25
858.549	46.27
858.93	46.28
859.31	46.28
859.69	46.33
860.071	46.35
860.451	46.35
860.831	46.35
861.211	46.32
861.591	46.31
861.971	46.3
862.351	46.3
862.731	46.29
863.111	46.27
863.491	46.28
863.87	46.25
864.25	46.22
864.629	46.24
865.009	46.24
865.388	46.24
865.768	46.22
866.147	46.22
866.526	46.2
866.905	46.18
867.284	46.18
867.663	46.16
868.042	46.17
868.421	46.19
868.8	46.16
869.179	46.18
869.558	46.16
869.936	46.16
870.315	46.14
870.693	46.16
871.072	46.17
871.45	46.2
871.828	46.2
872.207	46.19
872.585	46.19
872.963	46.18
873.341	46.17
873.719	46.18
874.097	46.18
874.475	46.2
874.853	46.19
875.23	46.21
875.608	46.19
875.986	46.21
876.363	46.2
876.741	46.2
877.118	46.21
877.495	46.22
877.873	46.23
878.25	46.26
878.627	46.28
879.004	46.29
879.381	46.3
879.758	46.29
880.135	46.27
880.512	46.28
880.889	46.25
881.265	46.26
881.642	46.26
882.019	46.26
882.395	46.22
882.772	46.19
883.148	46.18
883.524	46.16
883.901	46.17
884.277	46.16
884.653	46.15
885.029	46.14
885.405	46.11
885.781	46.11
886.157	46.1
886.532	46.12
886.908	46.1
887.284	46.08
887.659	46.04
888.035	46
888.411	45.98
888.786	45.99
889.161	46.01
889.537	46.03
889.912	46.01
890.287	45.98
890.662	45.96
891.037	45.96
891.412	45.93
891.787	45.91
892.162	45.91
892.536	45.9
892.911	45.86
893.286	45.84
893.66	45.82
894.035	45.81
894.409	45.79
894.784	45.79
895.158	45.79
895.532	45.82
895.906	45.83
896.281	45.84
896.655	45.83
897.029	45.84
897.402	45.84
897.776	45.85
898.15	45.89
898.524	45.92
898.898	45.92
899.271	45.93
899.645	45.92
900.018	45.95
900.392	45.95
900.765	45.97
901.138	45.97
901.511	45.97
901.884	45.99
902.258	45.98
902.631	45.97
903.003	45.97
903.376	45.97
903.749	45.98
904.122	46
904.495	46.01
904.867	46.03
905.24	46.04
905.612	46.06
905.985	46.03
906.357	46.02
906.729	46.04
907.102	46.04
907.474	46.06
907.846	46.06
908.218	46.05
908.59	46.07
908.962	46.1
909.334	46.12
909.705	46.12
910.077	46.14
910.449	46.15
910.82	46.13
911.192	46.16
911.563	46.15
911.935	46.17
912.306	46.19
912.677	46.2
913.048	46.19
913.419	46.17
913.79	46.18
914.161	46.18
914.532	46.18
914.903	46.2
915.274	46.19
915.645	46.21
916.015	46.22
916.386	46.2
916.756	46.19
917.127	46.17
917.497	46.18
917.868	46.18
918.238	46.18
918.608	46.22
918.978	46.23
919.348	46.22
919.718	46.22
920.088	46.21
920.458	46.21
920.828	46.18
921.198	46.16
921.567	46.17
921.937	46.18
922.306	46.19
922.676	46.18
923.045	46.17
923.415	46.15
923.784	46.14
924.153	46.14
924.522	46.17
924.891	46.21
925.26	46.23
925.629	46.25
925.998	46.23
926.367	46.23
926.736	46.21
927.104	46.24
927.473	46.27
927.842	46.26
928.21	46.26
928.578	46.22
928.947	46.2
929.315	46.18
929.683	46.14
930.051	46.12
930.42	46.11
930.788	46.08
931.156	46.03
931.523	45.99
931.891	45.99
932.259	45.97
932.627	45.95
932.994	45.92
933.362	45.88
933.729	45.88
934.097	45.85
934.464	45.86
934.831	45.83
935.199	45.85
935.566	45.85
935.933	45.87
936.3	45.86
936.667	45.87
937.034	45.9
937.401	45.95
937.767	45.97
938.134	46.03
938.501	46.04
938.867	46.15
939.234	46.19
939.6	46.25
939.967	46.28
940.333	46.32
940.699	46.43
941.065	46.42
941.431	46.47
941.798	46.45
942.163	46.46
942.529	46.51
942.895	46.54
943.261	46.54
943.627	46.56
943.992	46.56
944.358	46.66
944.723	46.65
945.089	46.64
945.454	46.65
945.82	46.72
946.185	46.76
946.55	46.72
946.915	46.74
947.28	46.71
947.645	46.71
948.01	46.7
948.375	46.59
948.74	46.57
949.104	46.65
949.469	46.62
949.834	46.56
950.198	46.48
950.562	46.47
950.927	46.37
951.291	46.32
951.655	46.26
952.02	46.23
952.384	46.22
952.748	46.18
953.112	46.07
953.476	46.01
953.839	45.96
954.203	45.99
954.567	45.91
954.931	45.88
955.294	45.81
955.658	45.84
956.021	45.79
956.385	45.71
956.748	45.63
957.111	45.63
957.474	45.63
957.837	45.6
958.2	45.53
958.563	45.53
958.926	45.54
959.289	45.58
959.652	45.48
960.015	45.47
960.377	45.54
960.74	45.56
961.102	45.55
961.465	45.55
961.827	45.56
962.189	45.58
962.552	45.58
962.914	45.58
963.276	45.6
963.638	45.61
964	45.58
964.362	45.56
964.724	45.55
965.085	45.49
965.447	45.44
965.809	45.47
966.17	45.45
966.532	45.42
966.893	45.43
967.255	45.43
967.616	45.44
967.977	45.41
968.338	45.37
968.699	45.4
969.061	45.41
969.421	45.43
969.782	45.45
970.143	45.43
970.504	45.36
970.865	45.35
971.225	45.32
971.586	45.32
971.946	45.36
972.307	45.37
972.667	45.33
973.027	45.35
973.388	45.38
973.748	45.33
974.108	45.41
974.468	45.49
974.828	45.5
975.188	45.5
975.548	45.45
975.907	45.44
976.267	45.44
976.627	45.5
976.986	45.5
977.346	45.46
977.705	45.5
978.064	45.47
978.424	45.49
978.783	45.43
979.142	45.43
979.501	45.5
979.86	45.53
980.219	45.55
980.578	45.56
980.937	45.6
981.296	45.54
981.654	45.48
982.013	45.47
982.371	45.45
982.73	45.51
983.088	45.53
983.447	45.52
983.805	45.52
984.163	45.52
984.521	45.48
984.879	45.47
985.237	45.57
985.595	45.59
985.953	45.6
986.311	45.59
986.669	45.62
987.026	45.61
987.384	45.66
987.741	45.63
988.099	45.65
988.456	45.64
988.814	45.63
989.171	45.62
989.528	45.67
989.885	45.67
990.242	45.62
990.599	45.66
990.956	45.69
991.313	45.65
991.67	45.75
992.027	45.78
992.383	45.9
992.74	46.03
993.096	46.05
993.453	46.1
993.809	46.14
994.165	46.26
994.522	46.24
994.878	46.29
995.234	46.37
995.59	46.43
995.946	46.5
996.302	46.47
996.658	46.51
997.013	46.48
997.369	46.46
997.725	46.54
998.08	46.56
998.436	46.69
998.791	46.71
999.147	46.69
999.502	46.73
999.857	46.79
1000.212	46.73
1000.567	46.71
1000.922	46.85
1001.277	46.93
1001.632	46.88
1001.987	46.99
1002.342	46.89
1002.696	46.92
1003.051	47.03
1003.406	47.02
1003.76	47
1004.114	47.11
1004.469	47.28
1004.823	47.53
1005.177	47.51
1005.531	47.62
1005.885	47.58
1006.239	47.64
1006.593	47.73
1006.947	47.81
1007.301	47.77
1007.655	47.77
1008.008	47.82
1008.362	47.77
1008.715	47.56
1009.069	47.7
1009.422	47.73
1009.776	47.81
1010.129	47.97
1010.482	48.07
1010.835	48.06
1011.188	48.14
1011.541	48.32
1011.894	48.43
1012.247	48.49
1012.6	48.57
1012.952	48.56
1013.305	48.76
1013.657	48.8
1014.01	48.97
1014.362	48.97
1014.715	49.08
1015.067	49.37
1015.419	49.44
1015.771	49.4
1016.123	49.29
1016.475	49.2
1016.827	49.24
1017.179	49.31
1017.531	49.5
1017.883	49.5
1018.234	49.55
1018.586	49.57
1018.938	49.46
1019.289	49.48
1019.64	49.64
1019.992	49.73
1020.343	49.95
1020.694	50.05
1021.045	50.11
1021.396	50.09
1021.747	50.12
1022.098	50.26
1022.449	50.32
1022.8	50.6
1023.151	50.81
1023.501	50.97
1023.852	51.3
1024.202	51.22
1024.553	51.25
1024.903	51.03
1025.253	51.35
1025.604	51.44
1025.954	51.41
1026.304	51.61
1026.654	51.81
1027.004	51.65
1027.354	51.62
1027.703	51.55
1028.053	52.17
1028.403	52.57
1028.753	52.79
1029.102	52.93
1029.452	53.12
1029.801	53.52
1030.15	53.55
1030.499	53.35
897.758	949.44
901.051	959.6
904.343	957.82
907.636	975.47
910.928	944.68
914.22	945.54
917.511	932.06
920.803	890.74
924.094	888.68
927.384	866.48
930.675	832.61
933.965	828.67
937.255	776.86
940.544	745.85
943.834	712.02
947.123	708.26
950.411	666.97
953.7	655.34
956.988	618.87
960.276	593.79
963.563	587.9
966.851	562.93
970.138	558.85
973.424	543.24
976.711	545.83
979.997	518.74
983.283	515.15
986.568	503.94
989.853	490.74
993.138	482.78
996.423	465.5
999.708	451.4
1002.992	447.18
1006.275	428.42
1009.559	424.84
1012.842	409.45
1016.125	398.23
1019.408	390.26
1022.69	387.19
1025.972	378.35
1029.254	369.34
1032.536	362.35
1035.817	356.19
1039.098	352.05
1042.379	344.73
1045.659	341.01
1048.939	333.22
1052.219	326.74
1055.498	323.98
1058.778	314.96
1062.057	309.11
1065.335	306.38
1068.614	303.01
1071.892	298.55
1075.17	290.32
1078.447	284.67
1081.724	282.68
1085.001	279.6
1088.278	274.71
1091.554	269.16
1094.83	270.58
1098.106	267.88
1101.382	264.97
1104.657	263.43
1107.932	259.65
1111.206	261.25
1114.481	255.02
1117.755	252.77
1121.029	251.45
1124.302	250.68
1127.575	246.87
1130.848	243.21
1134.121	240.94
1137.393	240.15
1140.665	235.61
1143.937	233.29
1147.208	232.23
1150.48	231.95
1153.75	227.72
1157.021	224.94
1160.291	225.2
1163.561	221.81
1166.831	222.03
1170.101	220.06
1173.37	220.3
1176.639	220.09
1179.907	219.5
1183.176	215.92
1186.444	216.18
1189.711	216.65
1192.979	216.06
1196.246	214.48
1199.513	215.36
1202.78	213.66
1206.046	213.21
1209.312	211.52
1212.578	211.78
1215.843	212.11
1219.108	212.27
1222.373	215.23
1225.638	216.28
1228.902	219.01
1232.166	219.1
1235.43	220.88
1238.693	223.82
1241.956	225.47
1245.219	227.47
1248.482	228.18
1251.744	228.5
1255.006	228.69
1258.268	224.23
1261.529	222.69
1264.79	222.47
1268.051	219.92
1271.312	217.77
1274.572	214.98
1277.832	213.57
1281.092	210.63
1284.351	208.59
1287.61	208.87
1290.869	204.93
1294.128	203.82
1297.386	203.65
1300.644	200.8
1303.902	202.69
1307.159	201.8
1310.416	201.46
1313.673	200.28
1316.93	201.71
1320.186	202.16
1323.442	201.83
1326.697	205.79
1329.953	206.68
1333.208	207.06
1336.463	209.67
1339.717	209.67
1342.972	211.73
1346.226	213.61
1349.479	214.51
1352.733	215.91
1355.986	216.56
1359.238	216.82
1362.491	216.81
1365.743	219.14
1368.995	219.78
1372.247	218.91
1375.498	218.97
1378.749	219.47
1382	216.88
1385.251	217.58
1388.501	215.81
1391.751	215.88
1395	214.93
1398.25	212.95
1401.499	210.63
1404.748	209.45
1407.996	206.72
1411.244	205.68
1414.492	204.78
1417.74	201.6
1420.987	198.73
1424.234	198.87
1427.481	196.58
1430.728	196.09
1433.974	194.83
1437.22	192.22
1440.465	191.9
1443.711	189.69
1446.956	188.22
1450.201	185.67
1453.445	185.41
1456.689	184.32
1459.933	180.97
1463.177	179.04
1466.42	177.03
1469.663	174.87
1472.906	174.47
1476.148	169.75
1479.391	168.36
1482.633	167.57
1485.874	165.43
1489.115	164.15
1492.356	162.53
1495.597	161.89
1498.838	160.57
1502.078	159.21
1505.318	158.59
1508.557	158.68
1511.797	158.79
1515.036	156.54
1518.274	156.06
1521.513	155.57
1524.751	154.97
1527.989	154.56
1531.227	154.23
1534.464	153.98
1537.701	153.6
1540.938	153.12
1544.174	151.14
1547.41	151.84
1550.646	152.36
1553.882	151.9
1557.117	149.76
1560.352	149.41
1563.587	148.97
1566.821	147.96
1570.055	147.6
1573.289	145.57
1576.523	145.89
1579.756	144.92
1582.989	143.78
1586.222	143.7
1589.454	143.11
1592.686	144.37
1595.918	143.76
1599.15	143.13
1602.381	143.88
1605.612	142.88
1608.843	143.74
1612.073	143.45
1615.303	144.41
1618.533	144.67
1621.762	144.3
1624.992	145.33
1628.221	144.88
1631.449	144.26
1634.678	144.99
1637.906	144.8
1641.134	144.65
1644.361	144.69
1647.588	144.79
1650.815	144.34
1654.042	144.26
1657.269	145.2
1660.495	144.49
1663.72	144.29
1666.946	145.33
1670.171	145.31
1673.396	145.51
1676.621	145.61
1679.845	146.2
1683.069	146.48
1686.293	147.04
1689.517	147.58
1692.74	147.23
1695.963	147.62
1699.185	149.01
1702.408	148.74
1705.63	149.14
1708.852	149.47
1712.073	149.76
1715.294	149.79
1718.515	150.9
1721.736	150.79
1724.956	150.88
1728.176	150.89
1731.396	151.75
1734.616	150.88
1737.835	151.66
1741.054	150.62
1744.272	150.76
1747.491	152.42
1750.709	152.69
1753.927	152.08
1757.144	152.36
1760.361	152.37
1763.578	153.1
1766.795	152.67
1770.011	154.15
1773.227	153.99
1776.443	155.67
1779.658	156.4
1782.874	155.76
1786.089	155.69
1789.303	156.38
1792.518	157.49
1795.732	157.47
1798.945	158.29
1802.159	158.45
1805.372	158.31
1808.585	161.19
1811.797	161.37
1815.01	162.04
1818.222	163.12
1821.434	166.13
1824.645	165.93
1827.856	168.4
1831.067	169.48
1834.278	170.34
1837.488	171.89
1840.698	173.03
1843.908	171.25
1847.117	171.82
1850.326	172.69
1853.535	171.27
1856.744	172.39
1859.952	172.67
1863.16	170.92
1866.368	170.14
1869.575	170.39
1872.782	168.46
1875.989	167.16
1879.196	166.89
1882.402	165.95
1885.608	165.28
1888.814	165.68
1892.019	164.93
1895.224	164.23
1898.429	163.84
1901.634	164.09
1904.838	163.66
1908.042	164.52
1911.246	164.8
1914.449	164.96
1917.652	165.63
1920.855	165.5
1924.058	165.86
1927.26	164.49
1930.462	164.97
1933.664	166.36
1936.865	165.03
1940.066	165.09
1943.267	164.09
1946.467	164.85
1949.668	165.41
1952.868	167.11
1956.067	167.97
1959.267	167.81
1962.466	168.5
1965.665	167.57
1968.863	168.27
1972.061	171.94
1975.259	173.49
1978.457	174.62
1981.654	175.94
1984.852	176.56
1988.048	175.52
1991.245	177.46
1994.441	178.71
1997.637	180.73
2000.833	184.52
2004.028	186.67
2007.223	186.36
2010.418	187.53
2013.613	192.3
2016.807	194.18
2020.001	195.63
2023.194	199.63
2026.388	203.49
2029.581	209.75
2032.774	210.2
2035.966	213.8
2039.158	214.19
2042.35	218.91
2045.542	220.02
2048.733	221.32
2051.924	225.62
2055.115	230.18
2058.306	229.88
2061.496	231.94
2064.686	231.4
2067.875	236.79
2071.065	237.29
2074.254	235.93
2077.442	240.03
2080.631	241.75
2083.819	244.56
2087.007	244
2090.195	246.33
2093.382	249.13
2096.569	248.02
2099.756	251.58
2102.942	251.87
2106.128	254.44
2109.314	261.62
2112.5	259.53
2115.685	266.13
2118.87	267.27
2122.055	270.91
2125.239	272.96
2128.424	275.42
2131.608	277.33
2134.791	282.16
2137.974	283.04
2141.157	284.05
2144.34	283.93
2147.523	289.34
2150.705	286.49
2153.887	290.02
2157.068	291.81
2160.25	288.79
2163.431	290.68
2166.611	293.94
2169.792	298.21
2172.972	300.9
2176.152	305.04
2179.331	308.01
2182.511	311.2
2185.69	314.93
2188.868	319.83
2192.047	320.02
2195.225	330.13
2198.403	338.8
2201.58	345.24
2204.758	351.98
2207.935	358.72
2211.111	364.47
2214.288	369.3
2217.464	370.46
2220.64	378.08
2223.815	382.16
2226.991	399.5
2230.166	399.74
2233.34	403.43
2236.515	410.99
2239.689	411.51
2242.863	414.05
2246.036	422.57
2249.209	420.08
2252.382	429.43
2255.555	439.86
2258.727	442.36
2261.9	445.11
2265.071	450.19
2268.243	458.7
2271.414	463.99
2274.585	473.35
2277.756	477.89
2280.926	483.96
2284.096	497.14
2287.266	505.09
2290.436	507.28
2293.605	519.84
2296.774	533.01
2299.942	549.32
2303.111	552.87
2306.279	561.76
2309.447	570.6
2312.614	587.7
2315.781	603.36
2318.948	628.07
2322.115	619.64
2325.281	655.98
2328.447	644.63
2331.613	669.48
2334.779	661.16
2337.944	692.61
2341.109	701.37
2344.274	719.91
2347.438	744.43
2350.602	743.61
2353.766	764.86
2356.929	777.41
2360.092	771.56
2363.255	823.33
2366.418	822.64
2369.58	838.04
2372.742	889.56
2375.904	911.82
2379.066	906.41
2382.227	884.11
2385.388	959.1
2388.548	963.13
2391.709	974.81
2394.869	1083.29
2398.029	1041.22
2401.188	1073.9
2404.347	1067.08
2407.506	1045.36
2410.665	1074.51
2413.823	1133.89
2416.981	1204.66
2420.139	1169.72
2423.296	1151.79
2426.453	1205.34
2429.61	1165.51
2432.767	1214.24
2435.923	1199.13
2439.079	1323.93
2442.235	1343.65
2445.391	1330.95
2448.546	1323.97
2451.701	1287.96
2454.855	1284.14
2458.009	1369.45
2461.163	1421.63
2464.317	1466.84
2467.471	1501.62
2470.624	1504.46
2473.777	1451.21
2476.929	1411.56
2480.082	1371.27
2483.234	1361.25
2486.385	1431.88
2489.537	1436.2
2492.688	1486.91
2495.839	1454.38
2498.989	1419.19
2502.14	1426.65
2505.29	1439.8
2508.439	1458.85
2511.589	1454.46
2514.738	1594.07
2517.887	1555.01
2521.035	1637.25
2524.183	1658.08
2527.331	1665.86
2530.479	1644.81
2533.627	1661.91
