Data from C_3_HIR_IL_4N_Splice17_14-27-38-943.txt Node
Date: Sat Mar 07 14:27:38 EST 2020
User: sa697716
Spectrometer: NQ5500242
Trigger mode: 0
Integration Time (sec): 1.450000E-1
Scans to average: 20
Nonlinearity correction enabled: false
Boxcar width: 5
Storing dark spectrum: false
XAxis mode: Wavelengths
Number of Pixels in Spectrum: 512
>>>>>Begin Spectral Data<<<<<
187.83	106.78
188.298	115.57
188.766	79.06
189.233	64.93
189.701	87.6
190.169	117.47
190.636	103.89
191.104	119.39
191.571	149.09
192.039	-12.69
192.506	363.82
192.974	79.94
193.441	12.47
193.908	-52.43
194.375	17.7
194.842	37.39
195.31	78.31
195.777	-40.38
196.244	64.86
196.711	72.26
197.177	73.37
197.644	74.86
198.111	74.5
198.578	75.07
199.045	74.77
199.511	74.31
199.978	74.66
200.445	75.21
200.911	75.43
201.378	75.47
201.844	75.58
202.31	75.44
202.777	74.94
203.243	74.75
203.709	74.17
204.176	73.81
204.642	73.14
205.108	72.6
205.574	71.66
206.04	70.8
206.506	70.07
206.972	69.61
207.438	68.72
207.903	67.96
208.369	66.41
208.835	64.94
209.301	63.38
209.766	61.79
210.232	60.14
210.697	58.44
211.163	56.87
211.628	55.42
212.094	53.67
212.559	52.42
213.024	50.99
213.49	49.99
213.955	48.98
214.42	47.94
214.885	46.39
215.35	44.46
215.815	42.09
216.28	39.01
216.745	35.51
217.21	32.18
217.675	28.99
218.14	26.3
218.604	23.89
219.069	21.83
219.534	20.08
219.998	18.74
220.463	17.59
220.927	16.55
221.392	15.77
221.856	15.14
222.32	14.56
222.785	14.09
223.249	13.67
223.713	13.29
224.177	12.97
224.642	12.67
225.106	12.35
225.57	12.06
226.034	11.8
226.497	11.58
226.961	11.35
227.425	11.14
227.889	10.93
228.353	10.72
228.816	10.5
229.28	10.3
229.744	10.12
230.207	9.94
230.671	9.78
231.134	9.64
231.597	9.48
232.061	9.33
232.524	9.19
232.987	9.05
233.45	8.95
233.914	8.83
234.377	8.71
234.84	8.6
235.303	8.52
235.766	8.42
236.229	8.33
236.691	8.24
237.154	8.16
237.617	8.09
238.08	8.01
238.542	7.92
239.005	7.86
239.468	7.8
239.93	7.73
240.393	7.66
240.855	7.57
241.317	7.49
241.78	7.44
242.242	7.36
242.704	7.29
243.166	7.22
243.629	7.16
244.091	7.08
244.553	7.02
245.015	6.95
245.477	6.87
245.939	6.81
246.4	6.75
246.862	6.69
247.324	6.63
247.786	6.57
248.247	6.51
248.709	6.45
249.17	6.38
249.632	6.33
250.093	6.27
250.555	6.23
251.016	6.19
251.477	6.13
251.939	6.08
252.4	6.05
252.861	6
253.322	5.96
253.783	5.92
254.244	5.89
254.705	5.85
255.166	5.83
255.627	5.79
256.088	5.74
256.549	5.72
257.009	5.68
257.47	5.64
257.931	5.6
258.391	5.55
258.852	5.51
259.312	5.47
259.773	5.43
260.233	5.39
260.694	5.35
261.154	5.32
261.614	5.28
262.074	5.25
262.534	5.21
262.994	5.18
263.455	5.16
263.915	5.14
264.374	5.11
264.834	5.08
265.294	5.06
265.754	5.04
266.214	5.01
266.673	5
267.133	4.98
267.593	4.97
268.052	4.96
268.512	4.94
268.971	4.93
269.431	4.92
269.89	4.91
270.349	4.9
270.809	4.88
271.268	4.87
271.727	4.86
272.186	4.85
272.645	4.84
273.104	4.82
273.563	4.81
274.022	4.79
274.481	4.78
274.94	4.78
275.399	4.77
275.857	4.76
276.316	4.75
276.775	4.74
277.233	4.73
277.692	4.72
278.15	4.72
278.609	4.71
279.067	4.7
279.525	4.69
279.984	4.69
280.442	4.68
280.9	4.67
281.358	4.68
281.816	4.68
282.274	4.69
282.732	4.68
283.19	4.68
283.648	4.68
284.106	4.68
284.564	4.68
285.021	4.69
285.479	4.69
285.937	4.68
286.394	4.69
286.852	4.68
287.309	4.67
287.767	4.66
288.224	4.64
288.682	4.63
289.139	4.62
289.596	4.6
290.053	4.58
290.511	4.56
290.968	4.54
291.425	4.51
291.882	4.49
292.339	4.47
292.796	4.46
293.252	4.44
293.709	4.43
294.166	4.42
294.623	4.41
295.079	4.4
295.536	4.38
295.992	4.38
296.449	4.38
296.905	4.38
297.362	4.37
297.818	4.36
298.274	4.36
298.731	4.35
299.187	4.34
299.643	4.33
300.099	4.32
300.555	4.32
301.011	4.31
301.467	4.31
301.923	4.3
302.379	4.3
302.835	4.3
303.291	4.3
303.746	4.3
304.202	4.3
304.658	4.3
305.113	4.31
305.569	4.31
306.024	4.31
306.479	4.31
306.935	4.31
307.39	4.32
307.845	4.31
308.301	4.31
308.756	4.32
309.211	4.32
309.666	4.33
310.121	4.34
310.576	4.34
311.031	4.35
311.486	4.36
311.94	4.37
312.395	4.37
312.85	4.37
313.305	4.37
313.759	4.38
314.214	4.37
314.668	4.36
315.123	4.36
315.577	4.36
316.032	4.35
316.486	4.35
316.94	4.34
317.394	4.33
317.849	4.32
318.303	4.3
318.757	4.28
319.211	4.28
319.665	4.26
320.119	4.24
320.572	4.23
321.026	4.21
321.48	4.19
321.934	4.17
322.387	4.16
322.841	4.16
323.295	4.15
323.748	4.15
324.202	4.14
324.655	4.14
325.108	4.15
325.562	4.15
326.015	4.16
326.468	4.17
326.921	4.18
327.374	4.17
327.827	4.18
328.28	4.18
328.733	4.19
329.186	4.19
329.639	4.19
330.092	4.19
330.545	4.19
330.997	4.18
331.45	4.19
331.903	4.2
332.355	4.21
332.808	4.22
333.26	4.22
333.713	4.22
334.165	4.22
334.617	4.23
335.069	4.23
335.522	4.25
335.974	4.25
336.426	4.25
336.878	4.24
337.33	4.25
337.782	4.24
338.234	4.24
338.686	4.24
339.137	4.24
339.589	4.24
340.041	4.23
340.493	4.22
340.944	4.21
341.396	4.2
341.847	4.18
342.299	4.16
342.75	4.14
343.201	4.13
343.653	4.12
344.104	4.09
344.555	4.08
345.006	4.06
345.457	4.05
345.908	4.04
346.359	4.04
346.81	4.04
347.261	4.03
347.712	4.03
348.163	4.02
348.613	4.02
349.064	4.02
349.515	4.02
349.965	4.02
350.416	4.01
350.866	4.01
351.317	4
351.767	4
352.217	4
352.668	4
353.118	4.01
353.568	4
354.018	4.01
354.468	4.02
354.918	4.03
355.368	4.04
355.818	4.05
356.268	4.06
356.718	4.06
357.168	4.06
357.617	4.06
358.067	4.06
358.517	4.07
358.966	4.07
359.416	4.07
359.865	4.07
360.315	4.07
360.764	4.06
361.213	4.06
361.663	4.05
362.112	4.05
362.561	4.07
363.01	4.06
363.459	4.05
363.908	4.05
364.357	4.05
364.806	4.06
365.255	4.06
365.703	4.08
366.152	4.09
366.601	4.09
367.05	4.1
367.498	4.09
367.947	4.1
368.395	4.12
368.844	4.12
369.292	4.12
369.74	4.13
370.189	4.13
370.637	4.13
371.085	4.13
371.533	4.14
371.981	4.15
372.429	4.15
372.877	4.16
373.325	4.15
373.773	4.16
374.221	4.16
374.669	4.17
375.116	4.18
375.564	4.19
376.012	4.19
376.459	4.19
376.907	4.22
377.354	4.23
377.801	4.25
378.249	4.26
378.696	4.28
379.143	4.3
379.591	4.31
380.038	4.32
380.485	4.33
380.932	4.35
381.379	4.38
381.826	4.38
382.273	4.4
382.72	4.4
383.166	4.41
383.613	4.43
384.06	4.43
384.506	4.45
384.953	4.47
385.4	4.49
385.846	4.51
386.292	4.53
386.739	4.55
387.185	4.56
387.631	4.59
388.078	4.61
388.524	4.62
388.97	4.63
389.416	4.66
389.862	4.68
390.308	4.71
390.754	4.73
391.2	4.75
391.645	4.78
392.091	4.82
392.537	4.85
392.983	4.88
393.428	4.91
393.874	4.95
394.319	4.97
394.765	4.99
395.21	5.01
395.655	5.03
396.101	5.05
396.546	5.06
396.991	5.09
397.436	5.1
397.881	5.13
398.326	5.17
398.771	5.2
399.216	5.22
399.661	5.24
400.106	5.27
400.551	5.28
400.995	5.29
401.44	5.3
401.885	5.31
402.329	5.33
402.774	5.34
403.218	5.36
403.663	5.37
404.107	5.38
404.551	5.41
404.995	5.42
405.44	5.44
405.884	5.46
406.328	5.48
406.772	5.49
407.216	5.5
407.66	5.52
408.104	5.51
408.547	5.51
408.991	5.53
409.435	5.53
409.879	5.54
410.322	5.57
410.766	5.59
411.209	5.62
411.653	5.65
412.096	5.67
412.54	5.69
412.983	5.72
413.426	5.77
413.869	5.78
414.312	5.82
414.756	5.84
415.199	5.85
415.642	5.87
416.085	5.87
416.527	5.88
416.97	5.88
417.413	5.87
417.856	5.87
418.298	5.85
418.741	5.85
419.184	5.85
419.626	5.84
420.069	5.84
420.511	5.84
420.953	5.84
421.396	5.85
421.838	5.86
422.28	5.87
422.722	5.9
423.164	5.92
423.606	5.93
424.048	5.95
424.49	5.97
424.932	5.97
425.374	5.97
425.816	5.96
426.258	5.94
426.699	5.93
427.141	5.92
427.582	5.91
428.024	5.92
428.465	5.91
428.907	5.91
429.348	5.9
429.789	5.89
430.231	5.91
430.672	5.93
431.113	5.97
431.554	6
431.995	6.03
432.436	6.03
432.877	6.03
433.318	6.06
433.759	6.08
434.2	6.11
434.64	6.14
435.081	6.15
435.522	6.18
435.962	6.19
436.403	6.21
436.843	6.23
437.284	6.24
437.724	6.26
438.164	6.25
438.604	6.25
439.045	6.26
439.485	6.27
439.925	6.25
440.365	6.25
440.805	6.23
441.245	6.23
441.685	6.23
442.125	6.25
442.564	6.24
443.004	6.23
443.444	6.24
443.883	6.23
444.323	6.23
444.762	6.26
445.202	6.25
445.641	6.27
446.081	6.28
446.52	6.28
446.959	6.29
447.398	6.3
447.837	6.32
448.276	6.31
448.716	6.32
449.154	6.33
449.593	6.32
450.032	6.32
450.471	6.31
450.91	6.29
451.349	6.29
451.787	6.27
452.226	6.24
452.664	6.21
453.103	6.19
453.541	6.17
453.98	6.14
454.418	6.1
454.856	6.08
455.295	6.06
455.733	6.03
456.171	6.01
456.609	6
457.047	5.97
457.485	5.96
457.923	5.94
458.361	5.93
458.798	5.93
459.236	5.91
459.674	5.89
460.111	5.89
460.549	5.89
460.987	5.89
461.424	5.89
461.862	5.9
462.299	5.91
462.736	5.9
463.173	5.91
463.611	5.9
464.048	5.91
464.485	5.92
464.922	5.91
465.359	5.92
465.796	5.91
466.233	5.93
466.67	5.93
467.106	5.92
467.543	5.92
467.98	5.92
468.416	5.92
468.853	5.93
469.29	5.93
469.726	5.94
470.162	5.93
470.599	5.92
471.035	5.91
471.471	5.91
471.907	5.9
472.344	5.91
472.78	5.91
473.216	5.9
473.652	5.89
474.088	5.87
474.523	5.86
474.959	5.85
475.395	5.84
475.831	5.82
476.266	5.81
476.702	5.79
477.138	5.77
477.573	5.75
478.008	5.75
478.444	5.72
478.879	5.71
479.314	5.69
479.75	5.67
480.185	5.65
480.62	5.63
481.055	5.61
481.49	5.59
481.925	5.57
482.36	5.55
482.795	5.52
483.229	5.52
483.664	5.5
484.099	5.48
484.534	5.47
484.968	5.47
485.403	5.46
485.837	5.46
486.271	5.46
486.706	5.45
487.14	5.45
487.574	5.46
488.009	5.46
488.443	5.46
488.877	5.46
489.311	5.47
489.745	5.47
490.179	5.48
490.613	5.48
491.046	5.47
491.48	5.48
491.914	5.5
492.348	5.5
492.781	5.52
493.215	5.54
493.648	5.56
494.082	5.57
494.515	5.59
494.948	5.6
495.382	5.62
495.815	5.65
496.248	5.67
496.681	5.69
497.114	5.72
497.547	5.74
497.98	5.77
498.413	5.79
498.846	5.83
499.279	5.85
499.711	5.89
500.144	5.94
500.577	5.97
501.009	6.01
501.442	6.06
501.874	6.11
502.306	6.15
502.739	6.22
503.171	6.28
503.603	6.34
504.036	6.42
504.468	6.48
504.9	6.54
505.332	6.63
505.764	6.71
506.196	6.79
506.627	6.88
507.059	6.97
507.491	7.06
507.923	7.16
508.354	7.27
508.786	7.39
509.217	7.51
509.649	7.63
510.08	7.75
510.512	7.89
510.943	8.04
511.374	8.18
511.805	8.34
512.237	8.5
512.668	8.66
513.099	8.82
513.53	8.99
513.961	9.18
514.391	9.36
514.822	9.55
515.253	9.72
515.684	9.9
516.114	10.11
516.545	10.3
516.975	10.51
517.406	10.71
517.836	10.93
518.267	11.14
518.697	11.33
519.127	11.53
519.558	11.75
519.988	11.98
520.418	12.2
520.848	12.41
521.278	12.61
521.708	12.93
522.138	13.14
522.567	13.34
522.997	13.54
523.427	13.75
523.857	13.96
524.286	14.15
524.716	14.32
525.145	14.51
525.575	14.69
526.004	14.88
526.433	14.95
526.863	15.11
527.292	15.28
527.721	15.43
528.15	15.59
528.579	15.73
529.008	15.88
529.437	16.03
529.866	16.17
530.295	16.29
530.724	16.4
531.152	16.52
531.581	16.63
532.01	16.75
532.438	16.85
532.867	16.94
533.295	17.03
533.723	17.12
534.152	17.19
534.58	17.25
535.008	17.31
535.436	17.38
535.865	17.42
536.293	17.46
536.721	17.51
537.149	17.56
537.576	17.6
538.004	17.63
538.432	17.66
538.86	17.69
539.287	17.73
539.715	17.78
540.143	17.81
540.57	17.84
540.998	17.88
541.425	17.9
541.852	17.94
542.28	17.97
542.707	18.01
543.134	18.03
543.561	18.06
543.988	18.1
544.415	18.13
544.842	18.13
545.269	18.17
545.696	18.2
546.123	18.22
546.549	18.23
546.976	18.27
547.403	18.3
547.829	18.33
548.256	18.36
548.682	18.38
549.108	18.41
549.535	18.45
549.961	18.46
550.387	18.47
550.813	18.48
551.24	18.5
551.666	18.49
552.092	18.48
552.518	18.48
552.943	18.46
553.369	18.44
553.795	18.41
554.221	18.39
554.646	18.36
555.072	18.33
555.498	18.29
555.923	18.23
556.349	18.19
556.774	18.12
557.199	18.07
557.625	18.01
558.05	17.96
558.475	17.89
558.9	17.81
559.325	17.73
559.75	17.65
560.175	17.57
560.6	17.49
561.025	17.4
561.449	17.3
561.874	17.19
562.299	17.08
562.723	16.96
563.148	16.84
563.572	16.72
563.997	16.6
564.421	16.46
564.846	16.31
565.27	16.18
565.694	16.04
566.118	15.91
566.542	15.77
566.966	15.62
567.39	15.49
567.814	15.34
568.238	15.2
568.662	15.05
569.086	14.92
569.509	14.79
569.933	14.65
570.357	14.52
570.78	14.39
571.204	14.25
571.627	14.14
572.05	14.02
572.474	13.92
572.897	13.82
573.32	13.72
573.743	13.6
574.166	13.5
574.589	13.4
575.012	13.3
575.435	13.21
575.858	13.14
576.281	13.04
576.704	12.95
577.126	12.87
577.549	12.77
577.972	12.69
578.394	12.62
578.817	12.55
579.239	12.49
579.661	12.42
580.084	12.36
580.506	12.3
580.928	12.23
581.35	12.18
581.772	12.12
582.194	12.08
582.616	12.03
583.038	11.98
583.46	11.91
583.882	11.86
584.303	11.81
584.725	11.75
585.147	11.68
585.568	11.65
585.99	11.6
586.411	11.56
586.833	11.5
587.254	11.45
587.675	11.41
588.096	11.36
588.518	11.32
588.939	11.29
589.36	11.25
589.781	11.22
590.202	11.17
590.623	11.14
591.043	11.1
591.464	11.08
591.885	11.06
592.305	11.02
592.726	11
593.147	10.97
593.567	10.93
593.987	10.9
594.408	10.88
594.828	10.86
595.248	10.83
595.669	10.81
596.089	10.77
596.509	10.74
596.929	10.71
597.349	10.68
597.769	10.65
598.189	10.61
598.608	10.59
599.028	10.56
599.448	10.52
599.867	10.49
600.287	10.46
600.706	10.43
601.126	10.39
601.545	10.36
601.965	10.34
602.384	10.3
602.803	10.27
603.222	10.23
603.641	10.18
604.061	10.15
604.48	10.1
604.898	10.04
605.317	10
605.736	9.96
606.155	9.92
606.574	9.87
606.992	9.82
607.411	9.78
607.829	9.7
608.248	9.65
608.666	9.59
609.085	9.55
609.503	9.51
609.921	9.47
610.339	9.41
610.758	9.37
611.176	9.31
611.594	9.26
612.012	9.2
612.43	9.18
612.847	9.13
613.265	9.08
613.683	9.03
614.101	8.99
614.518	8.93
614.936	8.89
615.353	8.84
615.771	8.8
616.188	8.76
616.606	8.72
617.023	8.69
617.44	8.67
617.857	8.64
618.274	8.61
618.691	8.56
619.108	8.53
619.525	8.5
619.942	8.48
620.359	8.46
620.776	8.44
621.192	8.42
621.609	8.4
622.026	8.38
622.442	8.36
622.859	8.34
623.275	8.33
623.691	8.32
624.108	8.32
624.524	8.31
624.94	8.29
625.356	8.29
625.772	8.28
626.188	8.28
626.604	8.26
627.02	8.26
627.436	8.26
627.852	8.25
628.268	8.24
628.683	8.23
629.099	8.22
629.514	8.2
629.93	8.19
630.345	8.17
630.761	8.13
631.176	8.11
631.591	8.09
632.007	8.06
632.422	8.03
632.837	8
633.252	7.96
633.667	7.92
634.082	7.88
634.497	7.83
634.911	7.78
635.326	7.75
635.741	7.69
636.155	7.64
636.57	7.58
636.984	7.53
637.399	7.47
637.813	7.42
638.228	7.36
638.642	7.29
639.056	7.23
639.47	7.18
639.884	7.11
640.298	7.05
640.712	7
641.126	6.94
641.54	6.88
641.954	6.82
642.368	6.77
642.781	6.72
643.195	6.68
643.609	6.63
644.022	6.58
644.436	6.55
644.849	6.5
645.262	6.46
645.676	6.42
646.089	6.39
646.502	6.36
646.915	6.33
647.328	6.3
647.741	6.27
648.154	6.25
648.567	6.23
648.98	6.22
649.393	6.21
649.805	6.2
650.218	6.18
650.631	6.17
651.043	6.17
651.456	6.16
651.868	6.14
652.28	6.13
652.693	6.13
653.105	6.12
653.517	6.1
653.929	6.08
654.341	6.05
654.753	6.03
655.165	6.01
655.577	5.98
655.989	5.95
656.401	5.93
656.813	5.91
657.224	5.88
657.636	5.85
658.047	5.83
658.459	5.81
658.87	5.78
659.282	5.76
659.693	5.74
660.104	5.71
660.515	5.69
660.926	5.66
661.338	5.64
661.749	5.62
662.159	5.61
662.57	5.58
662.981	5.57
663.392	5.56
663.803	5.54
664.213	5.52
664.624	5.51
665.035	5.5
665.445	5.5
665.855	5.49
666.266	5.5
666.676	5.5
667.086	5.49
667.497	5.5
667.907	5.5
668.317	5.5
668.727	5.5
669.137	5.52
669.547	5.52
669.956	5.53
670.366	5.54
670.776	5.54
671.186	5.53
671.595	5.56
672.005	5.56
672.414	5.58
672.824	5.6
673.233	5.62
673.642	5.64
674.052	5.66
674.461	5.68
674.87	5.7
675.279	5.72
675.688	5.76
676.097	5.79
676.506	5.82
676.915	5.85
677.323	5.88
677.732	5.91
678.141	5.94
678.549	5.96
678.958	5.99
679.366	6.03
679.775	6.06
680.183	6.1
680.592	6.14
681	6.18
681.408	6.2
681.816	6.25
682.224	6.29
682.632	6.34
683.04	6.38
683.448	6.44
683.856	6.49
684.264	6.55
684.671	6.61
685.079	6.68
685.487	6.78
685.894	6.89
686.302	7.01
686.709	7.13
687.116	7.27
687.524	7.43
687.931	7.62
688.338	7.82
688.745	8.05
689.152	8.29
689.559	8.55
689.966	8.82
690.373	9.12
690.78	9.43
691.187	9.76
691.593	10.12
692	10.49
692.407	10.86
692.813	11.26
693.22	11.66
693.626	12.1
694.032	12.55
694.439	13
694.845	13.47
695.251	13.95
695.657	14.44
696.063	14.94
696.469	15.44
696.875	15.96
697.281	16.5
697.687	17.04
698.093	17.56
698.498	18.08
698.904	18.63
699.31	19.16
699.715	19.69
700.12	20.24
700.526	20.77
700.931	21.31
701.337	21.84
701.742	22.35
702.147	22.87
702.552	23.42
702.957	23.93
703.362	24.45
703.767	24.96
704.172	25.48
704.577	26
704.981	26.51
705.386	27.01
705.791	27.52
706.195	28.04
706.6	28.54
707.004	29.01
707.408	29.51
707.813	29.98
708.217	30.46
708.621	30.94
709.025	31.39
709.43	31.84
709.834	32.31
710.237	32.76
710.641	33.2
711.045	33.64
711.449	34.12
711.853	34.58
712.256	35.01
712.66	35.44
713.064	35.87
713.467	36.29
713.87	36.73
714.274	37.15
714.677	37.55
715.08	37.96
715.484	38.36
715.887	38.78
716.29	39.16
716.693	39.56
717.096	39.95
717.499	40.35
717.901	40.74
718.304	41.1
718.707	41.47
719.109	41.84
719.512	42.19
719.915	42.55
720.317	42.87
720.719	43.17
721.122	43.51
721.524	43.85
721.926	44.15
722.328	44.45
722.731	44.74
723.133	45.04
723.535	45.34
723.937	45.64
724.338	45.92
724.74	46.2
725.142	46.5
725.544	46.74
725.945	46.99
726.347	47.2
726.748	47.42
727.15	47.64
727.551	47.85
727.952	48.05
728.354	48.27
728.755	48.45
729.156	48.63
729.557	48.8
729.958	48.99
730.359	49.15
730.76	49.35
731.161	49.54
731.562	49.73
731.962	49.87
732.363	50.02
732.763	50.13
733.164	50.29
733.564	50.42
733.965	50.54
734.365	50.65
734.766	50.77
735.166	50.89
735.566	51.01
735.966	51.12
736.366	51.24
736.766	51.31
737.166	51.44
737.566	51.53
737.966	51.63
738.365	51.74
738.765	51.84
739.165	51.92
739.564	51.99
739.964	52.04
740.363	52.1
740.763	52.18
741.162	52.26
741.561	52.28
741.96	52.33
742.36	52.39
742.759	52.42
743.158	52.46
743.557	52.5
743.955	52.55
744.354	52.6
744.753	52.67
745.152	52.73
745.55	52.8
745.949	52.89
746.348	52.96
746.746	53
747.144	53.08
747.543	53.11
747.941	53.16
748.339	53.19
748.737	53.26
749.136	53.3
749.534	53.32
749.932	53.34
750.33	53.35
750.727	53.36
751.125	53.36
751.523	53.35
751.921	53.37
752.318	53.38
752.716	53.41
753.113	53.4
753.511	53.41
753.908	53.43
754.305	53.42
754.703	53.43
755.1	53.43
755.497	53.43
755.894	53.44
756.291	53.44
756.688	53.43
757.085	53.43
757.482	53.41
757.878	53.4
758.275	53.36
758.672	53.38
759.068	53.38
759.465	53.39
759.861	53.4
760.258	53.43
760.654	53.43
761.05	53.45
761.447	53.43
761.843	53.46
762.239	53.44
762.635	53.44
763.031	53.45
763.427	53.41
763.822	53.4
764.218	53.43
764.614	53.42
765.01	53.4
765.405	53.39
765.801	53.38
766.196	53.38
766.592	53.39
766.987	53.4
767.382	53.38
767.778	53.41
768.173	53.41
768.568	53.4
768.963	53.39
769.358	53.42
769.753	53.42
770.148	53.44
770.542	53.45
770.937	53.47
771.332	53.46
771.726	53.47
772.121	53.45
772.515	53.47
772.91	53.45
773.304	53.47
773.699	53.46
774.093	53.47
774.487	53.48
774.881	53.48
775.275	53.45
775.669	53.45
776.063	53.46
776.457	53.47
776.851	53.45
777.245	53.45
777.638	53.44
778.032	53.47
778.425	53.5
778.819	53.48
779.212	53.48
779.606	53.53
779.999	53.52
780.392	53.54
780.786	53.57
781.179	53.61
781.572	53.65
781.965	53.63
782.358	53.64
782.751	53.6
783.143	53.62
783.536	53.64
783.929	53.64
784.322	53.68
784.714	53.68
785.107	53.71
785.499	53.68
785.891	53.67
786.284	53.75
786.676	53.75
787.068	53.78
787.46	53.82
787.852	53.82
788.245	53.81
788.636	53.79
789.028	53.83
789.42	53.82
789.812	53.85
790.204	53.87
790.595	53.86
790.987	53.88
791.378	53.91
791.77	53.9
792.161	53.91
792.553	53.94
792.944	53.95
793.335	53.98
793.726	53.99
794.117	53.95
794.508	53.92
794.899	53.91
795.29	53.91
795.681	53.88
796.072	53.86
796.463	53.86
796.853	53.86
797.244	53.88
797.634	53.85
798.025	53.85
798.415	53.87
798.806	53.89
799.196	53.9
799.586	53.89
799.976	53.92
800.366	53.96
800.756	54
801.146	54.03
801.536	54.03
801.926	54.04
802.316	54.06
802.706	54.08
803.095	54.1
803.485	54.09
803.874	54.1
804.264	54.11
804.653	54.12
805.043	54.12
805.432	54.12
805.821	54.13
806.21	54.15
806.599	54.18
806.988	54.2
807.377	54.24
807.766	54.25
808.155	54.26
808.544	54.28
808.933	54.27
809.321	54.25
809.71	54.26
810.098	54.28
810.487	54.27
810.875	54.26
811.264	54.25
811.652	54.27
812.04	54.28
812.428	54.34
812.816	54.35
813.204	54.37
813.592	54.36
813.98	54.37
814.368	54.39
814.756	54.43
815.144	54.43
815.531	54.43
815.919	54.42
816.306	54.44
816.694	54.42
817.081	54.44
817.469	54.45
817.856	54.49
818.243	54.46
818.63	54.45
819.017	54.43
819.404	54.44
819.791	54.46
820.178	54.46
820.565	54.41
820.952	54.39
821.339	54.37
821.725	54.35
822.112	54.33
822.498	54.35
822.885	54.38
823.271	54.36
823.657	54.34
824.044	54.33
824.43	54.32
824.816	54.34
825.202	54.35
825.588	54.32
825.974	54.3
826.36	54.29
826.746	54.29
827.132	54.26
827.517	54.28
827.903	54.31
828.289	54.3
828.674	54.28
829.06	54.26
829.445	54.24
829.83	54.23
830.216	54.2
830.601	54.19
830.986	54.17
831.371	54.14
831.756	54.09
832.141	54.02
832.526	54.02
832.911	54.01
833.295	54
833.68	54
834.065	53.99
834.449	53.99
834.834	53.96
835.218	53.93
835.603	53.91
835.987	53.9
836.371	53.89
836.755	53.84
837.139	53.81
837.524	53.81
837.908	53.81
838.291	53.82
838.675	53.8
839.059	53.8
839.443	53.77
839.827	53.78
840.21	53.75
840.594	53.76
840.977	53.76
841.361	53.76
841.744	53.7
842.127	53.65
842.511	53.6
842.894	53.59
843.277	53.59
843.66	53.57
844.043	53.55
844.426	53.56
844.809	53.56
845.191	53.58
845.574	53.58
845.957	53.61
846.339	53.63
846.722	53.64
847.104	53.65
847.487	53.64
847.869	53.67
848.252	53.68
848.634	53.7
849.016	53.68
849.398	53.68
849.78	53.68
850.162	53.67
850.544	53.65
850.926	53.67
851.307	53.66
851.689	53.67
852.071	53.66
852.452	53.65
852.834	53.65
853.215	53.63
853.597	53.61
853.978	53.6
854.359	53.6
854.741	53.61
855.122	53.58
855.503	53.58
855.884	53.55
856.265	53.58
856.646	53.57
857.026	53.59
857.407	53.6
857.788	53.61
858.169	53.65
858.549	53.64
858.93	53.63
859.31	53.66
859.69	53.69
860.071	53.74
860.451	53.72
860.831	53.76
861.211	53.73
861.591	53.73
861.971	53.72
862.351	53.68
862.731	53.7
863.111	53.7
863.491	53.7
863.87	53.69
864.25	53.66
864.629	53.65
865.009	53.65
865.388	53.66
865.768	53.66
866.147	53.66
866.526	53.66
866.905	53.66
867.284	53.68
867.663	53.67
868.042	53.68
868.421	53.71
868.8	53.72
869.179	53.71
869.558	53.71
869.936	53.72
870.315	53.73
870.693	53.73
871.072	53.74
871.45	53.74
871.828	53.74
872.207	53.76
872.585	53.72
872.963	53.7
873.341	53.69
873.719	53.67
874.097	53.66
874.475	53.67
874.853	53.67
875.23	53.68
875.608	53.67
875.986	53.67
876.363	53.66
876.741	53.68
877.118	53.71
877.495	53.74
877.873	53.75
878.25	53.77
878.627	53.78
879.004	53.79
879.381	53.78
879.758	53.76
880.135	53.78
880.512	53.76
880.889	53.74
881.265	53.7
881.642	53.7
882.019	53.72
882.395	53.68
882.772	53.67
883.148	53.65
883.524	53.62
883.901	53.61
884.277	53.58
884.653	53.56
885.029	53.56
885.405	53.56
885.781	53.53
886.157	53.49
886.532	53.51
886.908	53.47
887.284	53.46
887.659	53.43
888.035	53.4
888.411	53.39
888.786	53.39
889.161	53.37
889.537	53.37
889.912	53.36
890.287	53.33
890.662	53.29
891.037	53.29
891.412	53.27
891.787	53.24
892.162	53.25
892.536	53.22
892.911	53.18
893.286	53.17
893.66	53.15
894.035	53.14
894.409	53.14
894.784	53.14
895.158	53.11
895.532	53.12
895.906	53.13
896.281	53.11
896.655	53.11
897.029	53.14
897.402	53.12
897.776	53.11
898.15	53.11
898.524	53.13
898.898	53.13
899.271	53.16
899.645	53.16
900.018	53.18
900.392	53.19
900.765	53.21
901.138	53.21
901.511	53.24
901.884	53.28
902.258	53.3
902.631	53.29
903.003	53.32
903.376	53.33
903.749	53.34
904.122	53.35
904.495	53.39
904.867	53.41
905.24	53.45
905.612	53.47
905.985	53.47
906.357	53.48
906.729	53.51
907.102	53.5
907.474	53.53
907.846	53.56
908.218	53.56
908.59	53.57
908.962	53.57
909.334	53.57
909.705	53.54
910.077	53.55
910.449	53.57
910.82	53.56
911.192	53.57
911.563	53.52
911.935	53.5
912.306	53.5
912.677	53.49
913.048	53.52
913.419	53.48
913.79	53.53
914.161	53.51
914.532	53.49
914.903	53.51
915.274	53.51
915.645	53.55
916.015	53.57
916.386	53.58
916.756	53.6
917.127	53.58
917.497	53.6
917.868	53.6
918.238	53.62
918.608	53.66
918.978	53.67
919.348	53.69
919.718	53.7
920.088	53.71
920.458	53.72
920.828	53.71
921.198	53.71
921.567	53.74
921.937	53.75
922.306	53.74
922.676	53.73
923.045	53.68
923.415	53.65
923.784	53.63
924.153	53.65
924.522	53.68
924.891	53.67
925.26	53.66
925.629	53.67
925.998	53.63
926.367	53.64
926.736	53.64
927.104	53.69
927.473	53.68
927.842	53.65
928.21	53.61
928.578	53.56
928.947	53.56
929.315	53.53
929.683	53.47
930.051	53.45
930.42	53.41
930.788	53.37
931.156	53.32
931.523	53.29
931.891	53.27
932.259	53.26
932.627	53.24
932.994	53.22
933.362	53.21
933.729	53.22
934.097	53.23
934.464	53.25
934.831	53.27
935.199	53.29
935.566	53.32
935.933	53.35
936.3	53.35
936.667	53.35
937.034	53.38
937.401	53.41
937.767	53.43
938.134	53.43
938.501	53.44
938.867	53.48
939.234	53.48
939.6	53.48
939.967	53.54
940.333	53.55
940.699	53.64
941.065	53.61
941.431	53.65
941.798	53.72
942.163	53.71
942.529	53.78
942.895	53.81
943.261	53.85
943.627	53.88
943.992	53.91
944.358	53.95
944.723	53.95
945.089	53.97
945.454	53.98
945.82	53.98
946.185	54.03
946.55	54.01
946.915	53.98
947.28	53.94
947.645	53.93
948.01	53.88
948.375	53.84
948.74	53.79
949.104	53.82
949.469	53.78
949.834	53.69
950.198	53.62
950.562	53.53
950.927	53.46
951.291	53.42
951.655	53.35
952.02	53.32
952.384	53.29
952.748	53.24
953.112	53.18
953.476	53.13
953.839	53.06
954.203	53.05
954.567	53.01
954.931	52.97
955.294	52.96
955.658	53.02
956.021	52.96
956.385	52.89
956.748	52.9
957.111	52.83
957.474	52.83
957.837	52.83
958.2	52.84
958.563	52.84
958.926	52.85
959.289	52.86
959.652	52.78
960.015	52.83
960.377	52.82
960.74	52.79
961.102	52.84
961.465	52.85
961.827	52.88
962.189	52.82
962.552	52.79
962.914	52.76
963.276	52.75
963.638	52.78
964	52.75
964.362	52.78
964.724	52.78
965.085	52.75
965.447	52.74
965.809	52.73
966.17	52.75
966.532	52.8
966.893	52.82
967.255	52.81
967.616	52.79
967.977	52.79
968.338	52.76
968.699	52.79
969.061	52.8
969.421	52.82
969.782	52.82
970.143	52.84
970.504	52.8
970.865	52.84
971.225	52.85
971.586	52.87
971.946	52.8
972.307	52.83
972.667	52.78
973.027	52.81
973.388	52.83
973.748	52.82
974.108	52.91
974.468	52.92
974.828	52.89
975.188	52.89
975.548	52.89
975.907	53
976.267	53.04
976.627	53.07
976.986	53.05
977.346	52.96
977.705	52.9
978.064	52.91
978.424	52.94
978.783	52.92
979.142	52.94
979.501	52.94
979.86	52.9
980.219	52.83
980.578	52.83
980.937	52.9
981.296	52.91
981.654	52.97
982.013	52.89
982.371	52.86
982.73	52.84
983.088	52.87
983.447	52.78
983.805	52.82
984.163	52.86
984.521	52.88
984.879	52.78
985.237	52.76
985.595	52.81
985.953	52.83
986.311	52.84
986.669	52.94
987.026	52.91
987.384	53.05
987.741	52.97
988.099	53.12
988.456	53.09
988.814	53.19
989.171	53.25
989.528	53.28
989.885	53.28
990.242	53.29
990.599	53.31
990.956	53.41
991.313	53.44
991.67	53.59
992.027	53.6
992.383	53.69
992.74	53.72
993.096	53.78
993.453	53.77
993.809	53.79
994.165	53.94
994.522	53.92
994.878	53.95
995.234	53.96
995.59	53.88
995.946	53.86
996.302	53.94
996.658	54.03
997.013	54.03
997.369	54.21
997.725	54.31
998.08	54.26
998.436	54.31
998.791	54.33
999.147	54.34
999.502	54.47
999.857	54.55
1000.212	54.4
1000.567	54.37
1000.922	54.4
1001.277	54.34
1001.632	54.3
1001.987	54.34
1002.342	54.39
1002.696	54.33
1003.051	54.51
1003.406	54.61
1003.76	54.58
1004.114	54.75
1004.469	54.99
1004.823	55.22
1005.177	55.15
1005.531	55.28
1005.885	55.35
1006.239	55.44
1006.593	55.65
1006.947	55.62
1007.301	55.47
1007.655	55.48
1008.008	55.46
1008.362	55.38
1008.715	55.36
1009.069	55.63
1009.422	55.69
1009.776	55.71
1010.129	55.78
1010.482	55.67
1010.835	55.7
1011.188	55.84
1011.541	55.94
1011.894	55.98
1012.247	56.04
1012.6	56.05
1012.952	55.97
1013.305	56.18
1013.657	56.25
1014.01	56.28
1014.362	56.43
1014.715	56.67
1015.067	56.8
1015.419	56.92
1015.771	57.11
1016.123	56.99
1016.475	57.03
1016.827	57.03
1017.179	56.84
1017.531	56.93
1017.883	56.97
1018.234	57.02
1018.586	56.84
1018.938	56.96
1019.289	57.01
1019.64	57.16
1019.992	57.23
1020.343	57.32
1020.694	57.67
1021.045	57.87
1021.396	58.32
1021.747	58.68
1022.098	58.82
1022.449	58.87
1022.8	59.14
1023.151	59.28
1023.501	59.28
1023.852	59.91
1024.202	59.98
1024.553	59.96
1024.903	59.8
1025.253	59.63
1025.604	59.61
1025.954	59.61
1026.304	59.83
1026.654	59.66
1027.004	59.36
1027.354	59.29
1027.703	58.9
1028.053	59.1
1028.403	59.13
1028.753	59.3
1029.102	59.44
1029.452	59.51
1029.801	59.82
1030.15	59.93
1030.499	59.78
897.758	1002.66
901.051	1007.09
904.343	1003.96
907.636	1019.69
910.928	991.16
914.22	991.78
917.511	978.4
920.803	936.93
924.094	932.42
927.384	913.42
930.675	878.1
933.965	872.64
937.255	820.35
940.544	789.36
943.834	754.12
947.123	749.64
950.411	705.75
953.7	691.94
956.988	653.89
960.276	629.06
963.563	621.22
966.851	596.59
970.138	593.73
973.424	577.54
976.711	580.06
979.997	552.01
983.283	548.21
986.568	536.96
989.853	521.67
993.138	512.06
996.423	493.51
999.708	480.11
1002.992	474.92
1006.275	453.52
1009.559	449.58
1012.842	432.76
1016.125	422.55
1019.408	413.89
1022.69	411.77
1025.972	402.37
1029.254	392.88
1032.536	385.83
1035.817	380.04
1039.098	375.03
1042.379	369.03
1045.659	365.49
1048.939	357.2
1052.219	350.05
1055.498	346.3
1058.778	337
1062.057	331.1
1065.335	328.98
1068.614	325.13
1071.892	320.89
1075.17	311.1
1078.447	305.14
1081.724	302.21
1085.001	300.33
1088.278	294.16
1091.554	288.17
1094.83	289.42
1098.106	286.25
1101.382	282.93
1104.657	281.34
1107.932	276.67
1111.206	279.89
1114.481	272.33
1117.755	271.21
1121.029	268.82
1124.302	268.72
1127.575	265.81
1130.848	261.66
1134.121	259.38
1137.393	258.83
1140.665	254.24
1143.937	252.07
1147.208	249.9
1150.48	250.17
1153.75	246.33
1157.021	242.45
1160.291	242.82
1163.561	238.95
1166.831	238.89
1170.101	237.36
1173.37	236.56
1176.639	236.48
1179.907	234.78
1183.176	231.73
1186.444	231.28
1189.711	230.88
1192.979	231.38
1196.246	229.98
1199.513	230.47
1202.78	229.45
1206.046	228.68
1209.312	226.66
1212.578	227.09
1215.843	228.62
1219.108	227.93
1222.373	232.14
1225.638	233.3
1228.902	236.09
1232.166	235.56
1235.43	237.34
1238.693	239.94
1241.956	242.26
1245.219	245.99
1248.482	245.77
1251.744	246.09
1255.006	245.87
1258.268	241.42
1261.529	239.81
1264.79	238.89
1268.051	237.02
1271.312	234.9
1274.572	232.11
1277.832	230.21
1281.092	225.99
1284.351	224.58
1287.61	224.28
1290.869	221.33
1294.128	219.45
1297.386	218.53
1300.644	216.22
1303.902	217.86
1307.159	216.36
1310.416	216.1
1313.673	215.43
1316.93	217.52
1320.186	216.84
1323.442	217.41
1326.697	220.53
1329.953	221.1
1333.208	222.41
1336.463	224.45
1339.717	224.13
1342.972	226.76
1346.226	228.43
1349.479	228.84
1352.733	229.79
1355.986	231.24
1359.238	230.7
1362.491	231.75
1365.743	233.84
1368.995	234.28
1372.247	233.01
1375.498	233.01
1378.749	233.93
1382	231.38
1385.251	231.35
1388.501	229.34
1391.751	229.21
1395	228.38
1398.25	226.51
1401.499	224.26
1404.748	222.91
1407.996	220.33
1411.244	219.37
1414.492	217.37
1417.74	215
1420.987	211.88
1424.234	211.64
1427.481	209.67
1430.728	208.98
1433.974	206.47
1437.22	204.69
1440.465	204.48
1443.711	202.44
1446.956	200.86
1450.201	199.04
1453.445	197.31
1456.689	196.89
1459.933	193.34
1463.177	191.99
1466.42	188.81
1469.663	186.79
1472.906	185.59
1476.148	180.73
1479.391	179.49
1482.633	178.06
1485.874	176
1489.115	174.93
1492.356	172.68
1495.597	172.92
1498.838	170.25
1502.078	169.63
1505.318	169.37
1508.557	169.47
1511.797	170.01
1515.036	167.84
1518.274	167.58
1521.513	166.67
1524.751	166.31
1527.989	166.11
1531.227	165.29
1534.464	165.78
1537.701	165.6
1540.938	164.74
1544.174	162.77
1547.41	162.88
1550.646	162.84
1553.882	162.73
1557.117	160.89
1560.352	160
1563.587	160.18
1566.821	159.19
1570.055	158.31
1573.289	156.77
1576.523	157.48
1579.756	156.46
1582.989	155.87
1586.222	155.68
1589.454	155.16
1592.686	156.03
1595.918	156.01
1599.15	155.36
1602.381	155.65
1605.612	155.08
1608.843	155.08
1612.073	154.93
1615.303	156.07
1618.533	155.73
1621.762	155.4
1624.992	156.11
1628.221	155.97
1631.449	155.11
1634.678	155.2
1637.906	156.24
1641.134	156.15
1644.361	156.53
1647.588	156.66
1650.815	156.09
1654.042	155.68
1657.269	156.9
1660.495	156.3
1663.72	156.27
1666.946	157.06
1670.171	157.44
1673.396	156.87
1676.621	156.58
1679.845	157.2
1683.069	157.34
1686.293	158.04
1689.517	158.72
1692.74	158.62
1695.963	158.92
1699.185	159.93
1702.408	160.42
1705.63	160.76
1708.852	161.37
1712.073	161.73
1715.294	161.64
1718.515	162.71
1721.736	162.49
1724.956	162.52
1728.176	162.52
1731.396	163.72
1734.616	162.89
1737.835	163.35
1741.054	162.3
1744.272	161.83
1747.491	163.91
1750.709	163.94
1753.927	163.05
1757.144	162.93
1760.361	163.46
1763.578	164.18
1766.795	163.45
1770.011	165.35
1773.227	164.61
1776.443	166.27
1779.658	167.58
1782.874	166.88
1786.089	167.01
1789.303	167.45
1792.518	169.4
1795.732	168.92
1798.945	169.85
1802.159	170.26
1805.372	169.67
1808.585	172.72
1811.797	173.06
1815.01	173.16
1818.222	174.09
1821.434	176.87
1824.645	177.03
1827.856	179.32
1831.067	181
1834.278	180.45
1837.488	181.8
1840.698	183.26
1843.908	181.64
1847.117	182.67
1850.326	183.47
1853.535	182.45
1856.744	183.99
1859.952	183.76
1863.16	182.12
1866.368	180.41
1869.575	181.36
1872.782	178.84
1875.989	177.51
1879.196	176.83
1882.402	175.24
1885.608	174.68
1888.814	174.67
1892.019	173.46
1895.224	172.65
1898.429	172.18
1901.634	172.76
1904.838	172.99
1908.042	173.65
1911.246	173.59
1914.449	174.19
1917.652	174.69
1920.855	174.71
1924.058	175.49
1927.26	174.39
1930.462	174.73
1933.664	176.1
1936.865	174.93
1940.066	174.41
1943.267	174.31
1946.467	174.49
1949.668	174.71
1952.868	176.69
1956.067	177.52
1959.267	176.61
1962.466	177.29
1965.665	177.06
1968.863	177.81
1972.061	180.85
1975.259	182.6
1978.457	182.75
1981.654	185.04
1984.852	186.14
1988.048	185.12
1991.245	187.38
1994.441	189.09
1997.637	190.68
2000.833	194.06
2004.028	196.33
2007.223	196.84
2010.418	198.51
2013.613	203.63
2016.807	205.12
2020.001	206.7
2023.194	210.25
2026.388	213.67
2029.581	219.94
2032.774	221.57
2035.966	225.35
2039.158	225.72
2042.35	229.95
2045.542	231.17
2048.733	234.13
2051.924	237.74
2055.115	242.15
2058.306	242.81
2061.496	245.43
2064.686	244.23
2067.875	249.19
2071.065	250.42
2074.254	249.32
2077.442	254.07
2080.631	255.41
2083.819	257.32
2087.007	257.58
2090.195	261.32
2093.382	263.78
2096.569	262.26
2099.756	267.08
2102.942	267.64
2106.128	269.45
2109.314	276.44
2112.5	274.06
2115.685	281.08
2118.87	282.13
2122.055	287.47
2125.239	287.67
2128.424	290.5
2131.608	293.56
2134.791	298.02
2137.974	298.86
2141.157	301.27
2144.34	301.23
2147.523	307.39
2150.705	304.78
2153.887	307.81
2157.068	309.29
2160.25	306.84
2163.431	308.35
2166.611	312.19
2169.792	316.87
2172.972	320.28
2176.152	322.49
2179.331	326.38
2182.511	329.8
2185.69	334.02
2188.868	341.05
2192.047	341.29
2195.225	351.61
2198.403	360.58
2201.58	366.74
2204.758	374.42
2207.935	380.87
2211.111	389.14
2214.288	393.45
2217.464	394.88
2220.64	400.65
2223.815	403.62
2226.991	419.69
2230.166	420.19
2233.34	426.16
2236.515	433.7
2239.689	432.58
2242.863	436.01
2246.036	445.24
2249.209	442.09
2252.382	450.37
2255.555	461.45
2258.727	465.24
2261.9	469.72
2265.071	474.49
2268.243	484.84
2271.414	488.02
2274.585	498.42
2277.756	503.95
2280.926	508.73
2284.096	522.04
2287.266	532.34
2290.436	539.03
2293.605	549.48
2296.774	563.41
2299.942	582.24
2303.111	582.74
2306.279	596.92
2309.447	605.95
2312.614	622.37
2315.781	637.69
2318.948	666.22
2322.115	655.83
2325.281	695.37
2328.447	683.4
2331.613	706.83
2334.779	698.21
2337.944	730.14
2341.109	737.1
2344.274	757.7
2347.438	784.1
2350.602	786.33
2353.766	812.34
2356.929	827.27
2360.092	814.57
2363.255	871.6
2366.418	874.69
2369.58	892.77
2372.742	946.11
2375.904	970.06
2379.066	964.22
2382.227	944.56
2385.388	1023.55
2388.548	1021.04
2391.709	1030.99
2394.869	1151.71
2398.029	1105.63
2401.188	1137.49
2404.347	1128.76
2407.506	1109.47
2410.665	1141.25
2413.823	1206.47
2416.981	1276.48
2420.139	1234.93
2423.296	1218.08
2426.453	1276.28
2429.61	1222.06
2432.767	1273.59
2435.923	1259.01
2439.079	1382.12
2442.235	1403.18
2445.391	1389.43
2448.546	1376.7
2451.701	1340.88
2454.855	1339.2
2458.009	1433.37
2461.163	1482.42
2464.317	1542.27
2467.471	1585.21
2470.624	1582.64
2473.777	1536.31
2476.929	1491.13
2480.082	1448.59
2483.234	1439.61
2486.385	1508.86
2489.537	1515.49
2492.688	1562.52
2495.839	1529.11
2498.989	1494.06
2502.14	1493.26
2505.29	1510.64
2508.439	1532.31
2511.589	1532.73
2514.738	1673.5
2517.887	1636.39
2521.035	1722.03
2524.183	1742.43
2527.331	1750.54
2530.479	1733.16
2533.627	1746.7
