Data from C_3_HIR_WI_4N_Splice17_14-02-45-256.txt Node
Date: Sat Mar 07 14:02:45 EST 2020
User: sa697716
Spectrometer: NQ5500242
Trigger mode: 0
Integration Time (sec): 1.450000E-1
Scans to average: 20
Nonlinearity correction enabled: false
Boxcar width: 5
Storing dark spectrum: false
XAxis mode: Wavelengths
Number of Pixels in Spectrum: 512
>>>>>Begin Spectral Data<<<<<
187.83	99.68
188.298	114.94
188.766	88.61
189.233	86.79
189.701	92.57
190.169	118.24
190.636	134.9
191.104	209.16
191.571	223.79
192.039	249.43
192.506	185.16
192.974	-7.23
193.441	84.71
193.908	-25.2
194.375	41.95
194.842	34.88
195.31	64.99
195.777	147.31
196.244	61.51
196.711	58.29
197.177	59.39
197.644	58.64
198.111	58.01
198.578	58.3
199.045	59.02
199.511	58.87
199.978	58.9
200.445	58.98
200.911	58.95
201.378	59.21
201.844	59.23
202.31	59.04
202.777	58.84
203.243	58.93
203.709	58.42
204.176	57.54
204.642	57.06
205.108	56.77
205.574	56.37
206.04	55.52
206.506	54.71
206.972	54.27
207.438	53.58
207.903	52.86
208.369	51.85
208.835	50.85
209.301	49.75
209.766	48.34
210.232	46.93
210.697	45.69
211.163	44.67
211.628	43.57
212.094	42.32
212.559	41.29
213.024	40.21
213.49	39.3
213.955	38.37
214.42	37.64
214.885	36.62
215.35	35.32
215.815	33.4
216.28	31.06
216.745	28.43
217.21	25.86
217.675	23.65
218.14	21.71
218.604	19.97
219.069	18.41
219.534	17.14
219.998	16.1
220.463	15.18
220.927	14.44
221.392	13.83
221.856	13.29
222.32	12.89
222.785	12.52
223.249	12.18
223.713	11.86
224.177	11.59
224.642	11.32
225.106	11.05
225.57	10.81
226.034	10.6
226.497	10.4
226.961	10.24
227.425	10.05
227.889	9.86
228.353	9.66
228.816	9.48
229.28	9.34
229.744	9.19
230.207	9.05
230.671	8.92
231.134	8.79
231.597	8.69
232.061	8.57
232.524	8.44
232.987	8.33
233.45	8.24
233.914	8.15
234.377	8.03
234.84	7.93
235.303	7.85
235.766	7.76
236.229	7.67
236.691	7.59
237.154	7.52
237.617	7.46
238.08	7.39
238.542	7.31
239.005	7.25
239.468	7.19
239.93	7.14
240.393	7.08
240.855	7
241.317	6.94
241.78	6.86
242.242	6.79
242.704	6.72
243.166	6.66
243.629	6.61
244.091	6.54
244.553	6.48
245.015	6.42
245.477	6.37
245.939	6.33
246.4	6.28
246.862	6.23
247.324	6.19
247.786	6.14
248.247	6.09
248.709	6.03
249.17	5.98
249.632	5.94
250.093	5.89
250.555	5.84
251.016	5.79
251.477	5.75
251.939	5.71
252.4	5.67
252.861	5.63
253.322	5.6
253.783	5.56
254.244	5.54
254.705	5.51
255.166	5.48
255.627	5.45
256.088	5.42
256.549	5.39
257.009	5.35
257.47	5.32
257.931	5.28
258.391	5.24
258.852	5.2
259.312	5.17
259.773	5.14
260.233	5.11
260.694	5.08
261.154	5.04
261.614	5.01
262.074	4.98
262.534	4.95
262.994	4.93
263.455	4.9
263.915	4.88
264.374	4.86
264.834	4.84
265.294	4.8
265.754	4.79
266.214	4.77
266.673	4.75
267.133	4.73
267.593	4.72
268.052	4.7
268.512	4.69
268.971	4.68
269.431	4.66
269.89	4.65
270.349	4.65
270.809	4.63
271.268	4.62
271.727	4.62
272.186	4.61
272.645	4.61
273.104	4.59
273.563	4.58
274.022	4.57
274.481	4.57
274.94	4.55
275.399	4.54
275.857	4.53
276.316	4.52
276.775	4.5
277.233	4.49
277.692	4.48
278.15	4.47
278.609	4.46
279.067	4.45
279.525	4.45
279.984	4.44
280.442	4.44
280.9	4.44
281.358	4.43
281.816	4.43
282.274	4.42
282.732	4.41
283.19	4.41
283.648	4.4
284.106	4.39
284.564	4.38
285.021	4.38
285.479	4.37
285.937	4.36
286.394	4.36
286.852	4.35
287.309	4.34
287.767	4.33
288.224	4.32
288.682	4.31
289.139	4.29
289.596	4.27
290.053	4.25
290.511	4.22
290.968	4.21
291.425	4.19
291.882	4.17
292.339	4.16
292.796	4.14
293.252	4.13
293.709	4.12
294.166	4.1
294.623	4.09
295.079	4.08
295.536	4.08
295.992	4.07
296.449	4.06
296.905	4.06
297.362	4.04
297.818	4.03
298.274	4.02
298.731	4.01
299.187	4.01
299.643	4
300.099	3.99
300.555	3.98
301.011	3.97
301.467	3.96
301.923	3.94
302.379	3.94
302.835	3.94
303.291	3.93
303.746	3.92
304.202	3.92
304.658	3.91
305.113	3.9
305.569	3.9
306.024	3.9
306.479	3.9
306.935	3.89
307.39	3.89
307.845	3.89
308.301	3.9
308.756	3.89
309.211	3.88
309.666	3.88
310.121	3.88
310.576	3.88
311.031	3.88
311.486	3.88
311.94	3.89
312.395	3.88
312.85	3.87
313.305	3.87
313.759	3.87
314.214	3.87
314.668	3.86
315.123	3.86
315.577	3.85
316.032	3.84
316.486	3.83
316.94	3.81
317.394	3.8
317.849	3.79
318.303	3.77
318.757	3.75
319.211	3.74
319.665	3.72
320.119	3.7
320.572	3.69
321.026	3.68
321.48	3.67
321.934	3.66
322.387	3.64
322.841	3.63
323.295	3.63
323.748	3.62
324.202	3.62
324.655	3.61
325.108	3.62
325.562	3.61
326.015	3.61
326.468	3.6
326.921	3.59
327.374	3.59
327.827	3.59
328.28	3.59
328.733	3.6
329.186	3.59
329.639	3.6
330.092	3.59
330.545	3.59
330.997	3.59
331.45	3.6
331.903	3.61
332.355	3.62
332.808	3.62
333.26	3.62
333.713	3.61
334.165	3.6
334.617	3.61
335.069	3.61
335.522	3.62
335.974	3.62
336.426	3.61
336.878	3.6
337.33	3.6
337.782	3.6
338.234	3.6
338.686	3.6
339.137	3.6
339.589	3.58
340.041	3.58
340.493	3.57
340.944	3.55
341.396	3.54
341.847	3.53
342.299	3.51
342.75	3.49
343.201	3.48
343.653	3.47
344.104	3.45
344.555	3.44
345.006	3.42
345.457	3.42
345.908	3.42
346.359	3.41
346.81	3.41
347.261	3.39
347.712	3.39
348.163	3.38
348.613	3.38
349.064	3.39
349.515	3.38
349.965	3.39
350.416	3.38
350.866	3.37
351.317	3.37
351.767	3.37
352.217	3.38
352.668	3.38
353.118	3.38
353.568	3.37
354.018	3.38
354.468	3.38
354.918	3.37
355.368	3.38
355.818	3.39
356.268	3.38
356.718	3.39
357.168	3.39
357.617	3.38
358.067	3.38
358.517	3.39
358.966	3.39
359.416	3.4
359.865	3.42
360.315	3.42
360.764	3.42
361.213	3.42
361.663	3.41
362.112	3.43
362.561	3.44
363.01	3.44
363.459	3.44
363.908	3.44
364.357	3.45
364.806	3.44
365.255	3.45
365.703	3.46
366.152	3.48
366.601	3.5
367.05	3.5
367.498	3.51
367.947	3.52
368.395	3.55
368.844	3.57
369.292	3.59
369.74	3.61
370.189	3.62
370.637	3.63
371.085	3.64
371.533	3.65
371.981	3.67
372.429	3.7
372.877	3.72
373.325	3.73
373.773	3.75
374.221	3.77
374.669	3.79
375.116	3.81
375.564	3.83
376.012	3.86
376.459	3.88
376.907	3.91
377.354	3.93
377.801	3.96
378.249	3.99
378.696	4.01
379.143	4.04
379.591	4.06
380.038	4.09
380.485	4.12
380.932	4.14
381.379	4.18
381.826	4.21
382.273	4.25
382.72	4.28
383.166	4.31
383.613	4.34
384.06	4.37
384.506	4.4
384.953	4.44
385.4	4.47
385.846	4.52
386.292	4.55
386.739	4.57
387.185	4.6
387.631	4.64
388.078	4.68
388.524	4.71
388.97	4.74
389.416	4.78
389.862	4.81
390.308	4.85
390.754	4.88
391.2	4.92
391.645	4.96
392.091	5.01
392.537	5.03
392.983	5.07
393.428	5.1
393.874	5.14
394.319	5.18
394.765	5.21
395.21	5.22
395.655	5.24
396.101	5.26
396.546	5.27
396.991	5.29
397.436	5.32
397.881	5.35
398.326	5.38
398.771	5.4
399.216	5.42
399.661	5.45
400.106	5.47
400.551	5.49
400.995	5.5
401.44	5.52
401.885	5.52
402.329	5.52
402.774	5.53
403.218	5.54
403.663	5.56
404.107	5.57
404.551	5.57
404.995	5.58
405.44	5.57
405.884	5.58
406.328	5.59
406.772	5.58
407.216	5.6
407.66	5.59
408.104	5.58
408.547	5.57
408.991	5.57
409.435	5.56
409.879	5.56
410.322	5.58
410.766	5.58
411.209	5.59
411.653	5.6
412.096	5.61
412.54	5.62
412.983	5.62
413.426	5.66
413.869	5.67
414.312	5.69
414.756	5.71
415.199	5.71
415.642	5.72
416.085	5.73
416.527	5.72
416.97	5.7
417.413	5.7
417.856	5.69
418.298	5.67
418.741	5.66
419.184	5.65
419.626	5.65
420.069	5.64
420.511	5.63
420.953	5.63
421.396	5.65
421.838	5.66
422.28	5.68
422.722	5.7
423.164	5.7
423.606	5.7
424.048	5.7
424.49	5.7
424.932	5.7
425.374	5.68
425.816	5.66
426.258	5.64
426.699	5.62
427.141	5.6
427.582	5.59
428.024	5.59
428.465	5.6
428.907	5.58
429.348	5.57
429.789	5.57
430.231	5.59
430.672	5.59
431.113	5.62
431.554	5.62
431.995	5.64
432.436	5.64
432.877	5.65
433.318	5.65
433.759	5.68
434.2	5.69
434.64	5.71
435.081	5.71
435.522	5.73
435.962	5.73
436.403	5.78
436.843	5.78
437.284	5.81
437.724	5.82
438.164	5.83
438.604	5.85
439.045	5.86
439.485	5.85
439.925	5.86
440.365	5.87
440.805	5.89
441.245	5.9
441.685	5.92
442.125	5.94
442.564	5.96
443.004	5.97
443.444	5.99
443.883	6.02
444.323	6.05
444.762	6.08
445.202	6.11
445.641	6.15
446.081	6.19
446.52	6.2
446.959	6.24
447.398	6.26
447.837	6.3
448.276	6.34
448.716	6.38
449.154	6.42
449.593	6.46
450.032	6.48
450.471	6.49
450.91	6.49
451.349	6.52
451.787	6.52
452.226	6.54
452.664	6.53
453.103	6.53
453.541	6.53
453.98	6.53
454.418	6.51
454.856	6.5
455.295	6.49
455.733	6.47
456.171	6.45
456.609	6.45
457.047	6.43
457.485	6.41
457.923	6.4
458.361	6.37
458.798	6.36
459.236	6.36
459.674	6.35
460.111	6.34
460.549	6.35
460.987	6.36
461.424	6.35
461.862	6.35
462.299	6.37
462.736	6.37
463.173	6.38
463.611	6.38
464.048	6.38
464.485	6.39
464.922	6.39
465.359	6.38
465.796	6.38
466.233	6.4
466.67	6.4
467.106	6.4
467.543	6.4
467.98	6.4
468.416	6.39
468.853	6.4
469.29	6.41
469.726	6.41
470.162	6.42
470.599	6.42
471.035	6.41
471.471	6.42
471.907	6.41
472.344	6.42
472.78	6.42
473.216	6.42
473.652	6.42
474.088	6.41
474.523	6.42
474.959	6.42
475.395	6.42
475.831	6.42
476.266	6.42
476.702	6.41
477.138	6.41
477.573	6.41
478.008	6.42
478.444	6.41
478.879	6.42
479.314	6.41
479.75	6.41
480.185	6.41
480.62	6.4
481.055	6.4
481.49	6.4
481.925	6.41
482.36	6.41
482.795	6.42
483.229	6.42
483.664	6.44
484.099	6.44
484.534	6.43
484.968	6.45
485.403	6.46
485.837	6.48
486.271	6.51
486.706	6.52
487.14	6.54
487.574	6.56
488.009	6.59
488.443	6.62
488.877	6.67
489.311	6.72
489.745	6.76
490.179	6.82
490.613	6.87
491.046	6.92
491.48	6.98
491.914	7.04
492.348	7.1
492.781	7.17
493.215	7.25
493.648	7.33
494.082	7.4
494.515	7.47
494.948	7.55
495.382	7.63
495.815	7.73
496.248	7.82
496.681	7.93
497.114	8.02
497.547	8.13
497.98	8.24
498.413	8.34
498.846	8.47
499.279	8.6
499.711	8.74
500.144	8.88
500.577	9.02
501.009	9.16
501.442	9.31
501.874	9.49
502.306	9.64
502.739	9.82
503.171	10
503.603	10.18
504.036	10.37
504.468	10.57
504.9	10.76
505.332	10.97
505.764	11.2
506.196	11.43
506.627	11.65
507.059	11.89
507.491	12.12
507.923	12.36
508.354	12.62
508.786	12.88
509.217	13.15
509.649	13.41
510.08	13.69
510.512	13.97
510.943	14.25
511.374	14.55
511.805	14.84
512.237	15.14
512.668	15.45
513.099	15.76
513.53	16.06
513.961	16.38
514.391	16.69
514.822	17.01
515.253	17.31
515.684	17.63
516.114	17.94
516.545	18.26
516.975	18.59
517.406	18.9
517.836	19.19
518.267	19.53
518.697	19.83
519.127	20.12
519.558	20.43
519.988	20.75
520.418	21.05
520.848	21.34
521.278	21.63
521.708	22.03
522.138	22.31
522.567	22.6
522.997	22.84
523.427	23.1
523.857	23.36
524.286	23.59
524.716	23.81
525.145	24.04
525.575	24.26
526.004	24.49
526.433	24.56
526.863	24.77
527.292	24.96
527.721	25.14
528.15	25.3
528.579	25.47
529.008	25.62
529.437	25.77
529.866	25.92
530.295	26.05
530.724	26.17
531.152	26.31
531.581	26.42
532.01	26.53
532.438	26.65
532.867	26.76
533.295	26.85
533.723	26.95
534.152	27.03
534.58	27.11
535.008	27.17
535.436	27.24
535.865	27.28
536.293	27.34
536.721	27.39
537.149	27.44
537.576	27.47
538.004	27.52
538.432	27.55
538.86	27.59
539.287	27.61
539.715	27.66
540.143	27.68
540.57	27.72
540.998	27.75
541.425	27.77
541.852	27.8
542.28	27.83
542.707	27.87
543.134	27.89
543.561	27.94
543.988	27.98
544.415	27.98
544.842	28.01
545.269	28.02
545.696	28.05
546.123	28.09
546.549	28.11
546.976	28.15
547.403	28.17
547.829	28.2
548.256	28.2
548.682	28.22
549.108	28.26
549.535	28.29
549.961	28.31
550.387	28.32
550.813	28.32
551.24	28.34
551.666	28.34
552.092	28.33
552.518	28.32
552.943	28.3
553.369	28.3
553.795	28.28
554.221	28.26
554.646	28.23
555.072	28.21
555.498	28.17
555.923	28.12
556.349	28.07
556.774	28.03
557.199	27.98
557.625	27.94
558.05	27.87
558.475	27.81
558.9	27.74
559.325	27.69
559.75	27.61
560.175	27.53
560.6	27.42
561.025	27.32
561.449	27.22
561.874	27.1
562.299	26.98
562.723	26.86
563.148	26.72
563.572	26.58
563.997	26.43
564.421	26.28
564.846	26.15
565.27	26.02
565.694	25.89
566.118	25.73
566.542	25.59
566.966	25.43
567.39	25.28
567.814	25.12
568.238	24.97
568.662	24.82
569.086	24.67
569.509	24.49
569.933	24.34
570.357	24.17
570.78	24.01
571.204	23.86
571.627	23.72
572.05	23.58
572.474	23.46
572.897	23.33
573.32	23.19
573.743	23.06
574.166	22.94
574.589	22.81
575.012	22.7
575.435	22.6
575.858	22.49
576.281	22.37
576.704	22.26
577.126	22.14
577.549	22.03
577.972	21.91
578.394	21.81
578.817	21.72
579.239	21.63
579.661	21.53
580.084	21.43
580.506	21.35
580.928	21.26
581.35	21.17
581.772	21.09
582.194	20.99
582.616	20.93
583.038	20.86
583.46	20.77
583.882	20.7
584.303	20.61
584.725	20.54
585.147	20.47
585.568	20.42
585.99	20.37
586.411	20.31
586.833	20.25
587.254	20.19
587.675	20.12
588.096	20.07
588.518	20.02
588.939	19.99
589.36	19.93
589.781	19.88
590.202	19.83
590.623	19.79
591.043	19.73
591.464	19.69
591.885	19.65
592.305	19.63
592.726	19.59
593.147	19.53
593.567	19.48
593.987	19.45
594.408	19.42
594.828	19.39
595.248	19.35
595.669	19.32
596.089	19.3
596.509	19.27
596.929	19.24
597.349	19.2
597.769	19.18
598.189	19.14
598.608	19.12
599.028	19.07
599.448	19.03
599.867	18.98
600.287	18.94
600.706	18.89
601.126	18.84
601.545	18.8
601.965	18.76
602.384	18.69
602.803	18.64
603.222	18.57
603.641	18.49
604.061	18.43
604.48	18.35
604.898	18.27
605.317	18.2
605.736	18.12
606.155	18.04
606.574	17.95
606.992	17.87
607.411	17.8
607.829	17.69
608.248	17.62
608.666	17.53
609.085	17.46
609.503	17.38
609.921	17.29
610.339	17.21
610.758	17.13
611.176	17.03
611.594	16.94
612.012	16.85
612.43	16.78
612.847	16.71
613.265	16.63
613.683	16.56
614.101	16.48
614.518	16.4
614.936	16.32
615.353	16.24
615.771	16.18
616.188	16.1
616.606	16.05
617.023	15.98
617.44	15.91
617.857	15.86
618.274	15.78
618.691	15.73
619.108	15.66
619.525	15.62
619.942	15.57
620.359	15.53
620.776	15.49
621.192	15.45
621.609	15.42
622.026	15.38
622.442	15.35
622.859	15.32
623.275	15.29
623.691	15.27
624.108	15.24
624.524	15.22
624.94	15.2
625.356	15.19
625.772	15.18
626.188	15.16
626.604	15.16
627.02	15.14
627.436	15.14
627.852	15.11
628.268	15.1
628.683	15.09
629.099	15.08
629.514	15.06
629.93	15.03
630.345	15
630.761	14.95
631.176	14.9
631.591	14.86
632.007	14.8
632.422	14.74
632.837	14.67
633.252	14.61
633.667	14.53
634.082	14.45
634.497	14.37
634.911	14.28
635.326	14.2
635.741	14.13
636.155	14.02
636.57	13.94
636.984	13.83
637.399	13.72
637.813	13.6
638.228	13.47
638.642	13.34
639.056	13.21
639.47	13.09
639.884	12.96
640.298	12.82
640.712	12.7
641.126	12.56
641.54	12.41
641.954	12.29
642.368	12.16
642.781	12.05
643.195	11.92
643.609	11.79
644.022	11.67
644.436	11.56
644.849	11.43
645.262	11.32
645.676	11.22
646.089	11.13
646.502	11.04
646.915	10.95
647.328	10.87
647.741	10.79
648.154	10.73
648.567	10.67
648.98	10.61
649.393	10.56
649.805	10.5
650.218	10.45
650.631	10.41
651.043	10.35
651.456	10.3
651.868	10.25
652.28	10.19
652.693	10.14
653.105	10.08
653.517	10.01
653.929	9.95
654.341	9.88
654.753	9.8
655.165	9.72
655.577	9.63
655.989	9.55
656.401	9.46
656.813	9.37
657.224	9.26
657.636	9.15
658.047	9.04
658.459	8.93
658.87	8.83
659.282	8.71
659.693	8.6
660.104	8.48
660.515	8.37
660.926	8.25
661.338	8.14
661.749	8.04
662.159	7.94
662.57	7.85
662.981	7.76
663.392	7.67
663.803	7.6
664.213	7.51
664.624	7.45
665.035	7.38
665.445	7.32
665.855	7.25
666.266	7.2
666.676	7.16
667.086	7.1
667.497	7.05
667.907	7.01
668.317	6.98
668.727	6.95
669.137	6.92
669.547	6.89
669.956	6.87
670.366	6.86
670.776	6.84
671.186	6.83
671.595	6.83
672.005	6.83
672.414	6.84
672.824	6.84
673.233	6.85
673.642	6.87
674.052	6.89
674.461	6.91
674.87	6.93
675.279	6.97
675.688	6.99
676.097	7.04
676.506	7.07
676.915	7.1
677.323	7.15
677.732	7.19
678.141	7.25
678.549	7.31
678.958	7.37
679.366	7.45
679.775	7.52
680.183	7.61
680.592	7.7
681	7.8
681.408	7.92
681.816	8.06
682.224	8.21
682.632	8.38
683.04	8.56
683.448	8.75
683.856	8.96
684.264	9.19
684.671	9.45
685.079	9.73
685.487	10.06
685.894	10.39
686.302	10.73
686.709	11.1
687.116	11.5
687.524	11.93
687.931	12.39
688.338	12.87
688.745	13.38
689.152	13.9
689.559	14.45
689.966	14.98
690.373	15.55
690.78	16.14
691.187	16.73
691.593	17.33
692	17.92
692.407	18.52
692.813	19.14
693.22	19.74
693.626	20.35
694.032	20.96
694.439	21.57
694.845	22.19
695.251	22.79
695.657	23.38
696.063	23.97
696.469	24.57
696.875	25.16
697.281	25.74
697.687	26.32
698.093	26.88
698.498	27.41
698.904	27.95
699.31	28.47
699.715	28.99
700.12	29.52
700.526	30.01
700.931	30.48
701.337	30.95
701.742	31.41
702.147	31.87
702.552	32.3
702.957	32.72
703.362	33.13
703.767	33.52
704.172	33.91
704.577	34.29
704.981	34.68
705.386	35.06
705.791	35.43
706.195	35.79
706.6	36.14
707.004	36.49
707.408	36.84
707.813	37.19
708.217	37.54
708.621	37.87
709.025	38.17
709.43	38.46
709.834	38.77
710.237	39.05
710.641	39.34
711.045	39.63
711.449	39.93
711.853	40.23
712.256	40.48
712.66	40.72
713.064	40.98
713.467	41.25
713.87	41.51
714.274	41.73
714.677	42
715.08	42.22
715.484	42.45
715.887	42.69
716.29	42.88
716.693	43.12
717.096	43.34
717.499	43.54
717.901	43.76
718.304	43.96
718.707	44.16
719.109	44.35
719.512	44.55
719.915	44.74
720.317	44.88
720.719	45.06
721.122	45.22
721.524	45.38
721.926	45.55
722.328	45.7
722.731	45.85
723.133	46.02
723.535	46.17
723.937	46.32
724.338	46.46
724.74	46.59
725.142	46.8
725.544	46.95
725.945	47.09
726.347	47.18
726.748	47.28
727.15	47.36
727.551	47.48
727.952	47.54
728.354	47.64
728.755	47.71
729.156	47.8
729.557	47.81
729.958	47.86
730.359	47.93
730.76	48.01
731.161	48.08
731.562	48.19
731.962	48.22
732.363	48.3
732.763	48.37
733.164	48.43
733.564	48.47
733.965	48.56
734.365	48.61
734.766	48.67
735.166	48.72
735.566	48.79
735.966	48.83
736.366	48.89
736.766	48.92
737.166	48.96
737.566	49.03
737.966	49.07
738.365	49.08
738.765	49.13
739.165	49.16
739.564	49.19
739.964	49.22
740.363	49.26
740.763	49.28
741.162	49.32
741.561	49.33
741.96	49.34
742.36	49.37
742.759	49.4
743.158	49.42
743.557	49.44
743.955	49.46
744.354	49.5
744.753	49.52
745.152	49.58
745.55	49.62
745.949	49.67
746.348	49.7
746.746	49.72
747.144	49.76
747.543	49.79
747.941	49.82
748.339	49.84
748.737	49.84
749.136	49.84
749.534	49.82
749.932	49.82
750.33	49.8
750.727	49.8
751.125	49.79
751.523	49.78
751.921	49.79
752.318	49.78
752.716	49.77
753.113	49.77
753.511	49.79
753.908	49.8
754.305	49.81
754.703	49.79
755.1	49.78
755.497	49.77
755.894	49.76
756.291	49.73
756.688	49.72
757.085	49.74
757.482	49.74
757.878	49.72
758.275	49.69
758.672	49.67
759.068	49.7
759.465	49.72
759.861	49.73
760.258	49.73
760.654	49.75
761.05	49.76
761.447	49.74
761.843	49.73
762.239	49.75
762.635	49.74
763.031	49.76
763.427	49.75
763.822	49.76
764.218	49.76
764.614	49.75
765.01	49.75
765.405	49.74
765.801	49.72
766.196	49.74
766.592	49.73
766.987	49.74
767.382	49.73
767.778	49.72
768.173	49.71
768.568	49.7
768.963	49.72
769.358	49.73
769.753	49.72
770.148	49.7
770.542	49.68
770.937	49.69
771.332	49.7
771.726	49.72
772.121	49.71
772.515	49.71
772.91	49.69
773.304	49.7
773.699	49.68
774.093	49.7
774.487	49.74
774.881	49.76
775.275	49.73
775.669	49.71
776.063	49.71
776.457	49.72
776.851	49.72
777.245	49.72
777.638	49.74
778.032	49.76
778.425	49.78
778.819	49.8
779.212	49.81
779.606	49.85
779.999	49.87
780.392	49.86
780.786	49.86
781.179	49.89
781.572	49.94
781.965	49.91
782.358	49.9
782.751	49.88
783.143	49.88
783.536	49.84
783.929	49.84
784.322	49.86
784.714	49.9
785.107	49.93
785.499	49.88
785.891	49.87
786.284	49.89
786.676	49.92
787.068	49.94
787.46	49.94
787.852	49.97
788.245	49.95
788.636	49.94
789.028	49.92
789.42	49.89
789.812	49.96
790.204	49.98
790.595	49.99
790.987	49.98
791.378	50.01
791.77	50.02
792.161	50.01
792.553	50.03
792.944	50.04
793.335	50.06
793.726	50.08
794.117	50.03
794.508	50
794.899	50
795.29	50.01
795.681	49.97
796.072	49.97
796.463	50.01
796.853	50
797.244	49.99
797.634	49.99
798.025	50.01
798.415	50.03
798.806	50.03
799.196	50.04
799.586	50.06
799.976	50.08
800.366	50.08
800.756	50.07
801.146	50.1
801.536	50.14
801.926	50.14
802.316	50.13
802.706	50.18
803.095	50.21
803.485	50.23
803.874	50.23
804.264	50.23
804.653	50.28
805.043	50.29
805.432	50.3
805.821	50.32
806.21	50.32
806.599	50.34
806.988	50.35
807.377	50.34
807.766	50.36
808.155	50.37
808.544	50.4
808.933	50.39
809.321	50.39
809.71	50.42
810.098	50.41
810.487	50.39
810.875	50.4
811.264	50.4
811.652	50.42
812.04	50.44
812.428	50.48
812.816	50.48
813.204	50.48
813.592	50.45
813.98	50.45
814.368	50.48
814.756	50.49
815.144	50.5
815.531	50.5
815.919	50.52
816.306	50.49
816.694	50.5
817.081	50.5
817.469	50.53
817.856	50.57
818.243	50.55
818.63	50.52
819.017	50.52
819.404	50.52
819.791	50.52
820.178	50.51
820.565	50.48
820.952	50.46
821.339	50.45
821.725	50.42
822.112	50.41
822.498	50.43
822.885	50.46
823.271	50.48
823.657	50.43
824.044	50.43
824.43	50.44
824.816	50.46
825.202	50.48
825.588	50.47
825.974	50.47
826.36	50.47
826.746	50.46
827.132	50.43
827.517	50.42
827.903	50.47
828.289	50.49
828.674	50.48
829.06	50.46
829.445	50.41
829.83	50.4
830.216	50.38
830.601	50.38
830.986	50.37
831.371	50.39
831.756	50.4
832.141	50.38
832.526	50.36
832.911	50.36
833.295	50.35
833.68	50.38
834.065	50.36
834.449	50.34
834.834	50.34
835.218	50.32
835.603	50.3
835.987	50.26
836.371	50.21
836.755	50.19
837.139	50.15
837.524	50.15
837.908	50.14
838.291	50.15
838.675	50.15
839.059	50.15
839.443	50.12
839.827	50.08
840.21	50.06
840.594	50.1
840.977	50.09
841.361	50.11
841.744	50.06
842.127	50.04
842.511	50
842.894	49.99
843.277	49.97
843.66	49.99
844.043	50.02
844.426	50.04
844.809	50.02
845.191	50.02
845.574	50.02
845.957	50.04
846.339	50.03
846.722	50.04
847.104	50.04
847.487	50.05
847.869	50.04
848.252	50.02
848.634	50.03
849.016	50.04
849.398	50.04
849.78	50.04
850.162	50.06
850.544	50.09
850.926	50.11
851.307	50.12
851.689	50.12
852.071	50.14
852.452	50.14
852.834	50.15
853.215	50.14
853.597	50.14
853.978	50.12
854.359	50.12
854.741	50.1
855.122	50.09
855.503	50.07
855.884	50.05
856.265	50.04
856.646	50.06
857.026	50.08
857.407	50.07
857.788	50.08
858.169	50.09
858.549	50.09
858.93	50.11
859.31	50.11
859.69	50.15
860.071	50.19
860.451	50.19
860.831	50.19
861.211	50.14
861.591	50.16
861.971	50.17
862.351	50.18
862.731	50.17
863.111	50.17
863.491	50.17
863.87	50.15
864.25	50.11
864.629	50.12
865.009	50.11
865.388	50.12
865.768	50.12
866.147	50.1
866.526	50.1
866.905	50.09
867.284	50.1
867.663	50.1
868.042	50.12
868.421	50.15
868.8	50.15
869.179	50.17
869.558	50.18
869.936	50.18
870.315	50.19
870.693	50.17
871.072	50.22
871.45	50.21
871.828	50.22
872.207	50.22
872.585	50.21
872.963	50.23
873.341	50.2
873.719	50.22
874.097	50.22
874.475	50.24
874.853	50.26
875.23	50.26
875.608	50.27
875.986	50.28
876.363	50.29
876.741	50.3
877.118	50.29
877.495	50.31
877.873	50.3
878.25	50.33
878.627	50.34
879.004	50.34
879.381	50.34
879.758	50.33
880.135	50.32
880.512	50.3
880.889	50.29
881.265	50.29
881.642	50.27
882.019	50.28
882.395	50.24
882.772	50.23
883.148	50.21
883.524	50.2
883.901	50.19
884.277	50.17
884.653	50.14
885.029	50.12
885.405	50.12
885.781	50.12
886.157	50.09
886.532	50.09
886.908	50.07
887.284	50.05
887.659	50
888.035	49.98
888.411	49.97
888.786	49.98
889.161	49.98
889.537	49.96
889.912	49.93
890.287	49.93
890.662	49.91
891.037	49.91
891.412	49.9
891.787	49.9
892.162	49.91
892.536	49.91
892.911	49.89
893.286	49.87
893.66	49.87
894.035	49.87
894.409	49.85
894.784	49.87
895.158	49.86
895.532	49.88
895.906	49.88
896.281	49.86
896.655	49.84
897.029	49.86
897.402	49.85
897.776	49.87
898.15	49.88
898.524	49.92
898.898	49.91
899.271	49.93
899.645	49.95
900.018	49.99
900.392	50.01
900.765	50.04
901.138	50.02
901.511	50.04
901.884	50.05
902.258	50.06
902.631	50.05
903.003	50.04
903.376	50.02
903.749	50
904.122	49.98
904.495	49.99
904.867	49.98
905.24	50.03
905.612	50.04
905.985	50.02
906.357	50
906.729	50.02
907.102	50.03
907.474	50.05
907.846	50.04
908.218	50.04
908.59	50.05
908.962	50.08
909.334	50.06
909.705	50.06
910.077	50.06
910.449	50.07
910.82	50.08
911.192	50.07
911.563	50.07
911.935	50.09
912.306	50.11
912.677	50.1
913.048	50.1
913.419	50.1
913.79	50.11
914.161	50.13
914.532	50.14
914.903	50.13
915.274	50.14
915.645	50.18
916.015	50.19
916.386	50.18
916.756	50.19
917.127	50.18
917.497	50.18
917.868	50.16
918.238	50.16
918.608	50.18
918.978	50.17
919.348	50.2
919.718	50.16
920.088	50.17
920.458	50.16
920.828	50.16
921.198	50.14
921.567	50.18
921.937	50.2
922.306	50.22
922.676	50.2
923.045	50.23
923.415	50.22
923.784	50.24
924.153	50.22
924.522	50.26
924.891	50.27
925.26	50.27
925.629	50.27
925.998	50.28
926.367	50.24
926.736	50.24
927.104	50.24
927.473	50.21
927.842	50.17
928.21	50.18
928.578	50.13
928.947	50.14
929.315	50.14
929.683	50.11
930.051	50.05
930.42	50.06
930.788	50.02
931.156	49.99
931.523	49.99
931.891	50.03
932.259	50.02
932.627	50.04
932.994	49.99
933.362	49.97
933.729	49.96
934.097	49.95
934.464	49.94
934.831	49.92
935.199	49.91
935.566	49.92
935.933	49.89
936.3	49.87
936.667	49.87
937.034	49.9
937.401	49.97
937.767	49.96
938.134	49.97
938.501	50.01
938.867	50.11
939.234	50.13
939.6	50.17
939.967	50.21
940.333	50.23
940.699	50.28
941.065	50.25
941.431	50.26
941.798	50.32
942.163	50.36
942.529	50.4
942.895	50.35
943.261	50.35
943.627	50.38
943.992	50.37
944.358	50.38
944.723	50.34
945.089	50.37
945.454	50.39
945.82	50.37
946.185	50.39
946.55	50.35
946.915	50.36
947.28	50.39
947.645	50.37
948.01	50.41
948.375	50.41
948.74	50.36
949.104	50.35
949.469	50.28
949.834	50.22
950.198	50.19
950.562	50.14
950.927	50.1
951.291	50.01
951.655	49.95
952.02	49.87
952.384	49.82
952.748	49.82
953.112	49.78
953.476	49.74
953.839	49.69
954.203	49.67
954.567	49.64
954.931	49.59
955.294	49.6
955.658	49.62
956.021	49.6
956.385	49.59
956.748	49.56
957.111	49.5
957.474	49.53
957.837	49.51
958.2	49.49
958.563	49.47
958.926	49.52
959.289	49.52
959.652	49.49
960.015	49.45
960.377	49.46
960.74	49.43
961.102	49.49
961.465	49.49
961.827	49.55
962.189	49.55
962.552	49.54
962.914	49.51
963.276	49.49
963.638	49.51
964	49.54
964.362	49.53
964.724	49.51
965.085	49.47
965.447	49.46
965.809	49.42
966.17	49.42
966.532	49.45
966.893	49.5
967.255	49.47
967.616	49.45
967.977	49.41
968.338	49.43
968.699	49.47
969.061	49.47
969.421	49.43
969.782	49.48
970.143	49.5
970.504	49.51
970.865	49.51
971.225	49.51
971.586	49.46
971.946	49.49
972.307	49.46
972.667	49.49
973.027	49.5
973.388	49.55
973.748	49.52
974.108	49.51
974.468	49.43
974.828	49.41
975.188	49.42
975.548	49.48
975.907	49.52
976.267	49.51
976.627	49.48
976.986	49.43
977.346	49.35
977.705	49.39
978.064	49.35
978.424	49.46
978.783	49.39
979.142	49.42
979.501	49.44
979.86	49.42
980.219	49.42
980.578	49.46
980.937	49.51
981.296	49.53
981.654	49.53
982.013	49.56
982.371	49.55
982.73	49.64
983.088	49.61
983.447	49.59
983.805	49.61
984.163	49.56
984.521	49.49
984.879	49.45
985.237	49.47
985.595	49.49
985.953	49.45
986.311	49.38
986.669	49.36
987.026	49.36
987.384	49.34
987.741	49.22
988.099	49.29
988.456	49.28
988.814	49.31
989.171	49.31
989.528	49.27
989.885	49.36
990.242	49.37
990.599	49.38
990.956	49.5
991.313	49.55
991.67	49.67
992.027	49.73
992.383	49.87
992.74	49.98
993.096	50.01
993.453	50.06
993.809	50.03
994.165	50.13
994.522	50.17
994.878	50.16
995.234	50.19
995.59	50.12
995.946	50.15
996.302	50.17
996.658	50.18
997.013	50.24
997.369	50.27
997.725	50.31
998.08	50.32
998.436	50.34
998.791	50.27
999.147	50.25
999.502	50.41
999.857	50.41
1000.212	50.31
1000.567	50.29
1000.922	50.34
1001.277	50.36
1001.632	50.34
1001.987	50.47
1002.342	50.48
1002.696	50.49
1003.051	50.61
1003.406	50.63
1003.76	50.66
1004.114	50.76
1004.469	50.81
1004.823	51.01
1005.177	51.05
1005.531	51.17
1005.885	51.05
1006.239	51.07
1006.593	51.25
1006.947	51.16
1007.301	51.12
1007.655	51.11
1008.008	51.24
1008.362	51.31
1008.715	51.08
1009.069	51.1
1009.422	51.09
1009.776	51.13
1010.129	51.1
1010.482	50.99
1010.835	51.1
1011.188	51.25
1011.541	51.31
1011.894	51.31
1012.247	51.13
1012.6	51.12
1012.952	51.13
1013.305	51.26
1013.657	51.27
1014.01	51.31
1014.362	51.26
1014.715	51.27
1015.067	51.25
1015.419	51.28
1015.771	51.18
1016.123	51.38
1016.475	51.45
1016.827	51.49
1017.179	51.49
1017.531	51.52
1017.883	51.56
1018.234	51.74
1018.586	51.93
1018.938	52.05
1019.289	52.07
1019.64	52.14
1019.992	52.17
1020.343	52.14
1020.694	52.15
1021.045	52.19
1021.396	52.37
1021.747	52.76
1022.098	53.11
1022.449	53.02
1022.8	53.14
1023.151	53.14
1023.501	53.36
1023.852	53.54
1024.202	53.69
1024.553	53.87
1024.903	53.96
1025.253	53.99
1025.604	53.64
1025.954	53.09
1026.304	53.23
1026.654	53.15
1027.004	53.24
1027.354	53.24
1027.703	53.07
1028.053	53.18
1028.403	53.37
1028.753	53.06
1029.102	53.12
1029.452	53.34
1029.801	53.78
1030.15	53.74
1030.499	53.68
897.758	1330.92
901.051	1330.63
904.343	1333.41
907.636	1353.05
910.928	1316.79
914.22	1312.84
917.511	1292.16
920.803	1236.61
924.094	1233.7
927.384	1202.72
930.675	1152.72
933.965	1145.53
937.255	1080.78
940.544	1033.36
943.834	988.96
947.123	979.06
950.411	923.24
953.7	904.85
956.988	858.11
960.276	819.28
963.563	808.24
966.851	779.13
970.138	771.67
973.424	747.71
976.711	753.98
979.997	714
983.283	711.23
986.568	695.87
989.853	675.11
993.138	662.88
996.423	639.75
999.708	621.2
1002.992	614.39
1006.275	588.63
1009.559	582.95
1012.842	561.44
1016.125	546.45
1019.408	535.97
1022.69	530.84
1025.972	519.44
1029.254	506.67
1032.536	498.38
1035.817	488.48
1039.098	482.72
1042.379	471.41
1045.659	466.81
1048.939	455.56
1052.219	446.15
1055.498	440.38
1058.778	429.43
1062.057	419.97
1065.335	415.3
1068.614	410.04
1071.892	405.28
1075.17	392.99
1078.447	386.7
1081.724	383.97
1085.001	379.84
1088.278	374.05
1091.554	365.94
1094.83	366.28
1098.106	364.11
1101.382	360.34
1104.657	357.36
1107.932	352.24
1111.206	354.23
1114.481	345.37
1117.755	341.86
1121.029	339.74
1124.302	338.21
1127.575	332.92
1130.848	328.6
1134.121	325.46
1137.393	324.21
1140.665	317.94
1143.937	315.1
1147.208	312.6
1150.48	312.75
1153.75	308.65
1157.021	304.21
1160.291	304.75
1163.561	301.09
1166.831	301.26
1170.101	298.68
1173.37	297.55
1176.639	298.41
1179.907	295.67
1183.176	292.05
1186.444	291.56
1189.711	291.32
1192.979	290.04
1196.246	287.99
1199.513	289.13
1202.78	287.27
1206.046	287.78
1209.312	285.18
1212.578	285.88
1215.843	288.17
1219.108	286.43
1222.373	291.86
1225.638	293.4
1228.902	298.17
1232.166	298.58
1235.43	300.29
1238.693	304.21
1241.956	305.71
1245.219	310.69
1248.482	310.3
1251.744	310.53
1255.006	311.96
1258.268	304.18
1261.529	301.83
1264.79	300.09
1268.051	298.04
1271.312	294.86
1274.572	290.36
1277.832	287.73
1281.092	282.97
1284.351	280.81
1287.61	280.4
1290.869	276.2
1294.128	274.75
1297.386	274.81
1300.644	271.1
1303.902	272.3
1307.159	271.14
1310.416	271.63
1313.673	270.83
1316.93	273.53
1320.186	273.64
1323.442	274.33
1326.697	278.95
1329.953	279.92
1333.208	280.94
1336.463	284.99
1339.717	284.84
1342.972	288.69
1346.226	291.41
1349.479	292.1
1352.733	293.64
1355.986	295.25
1359.238	295.39
1362.491	296.67
1365.743	299.25
1368.995	299.04
1372.247	297.38
1375.498	297.66
1378.749	299.09
1382	296.08
1385.251	297.51
1388.501	294.77
1391.751	295.74
1395	294.48
1398.25	292.71
1401.499	290.56
1404.748	290.27
1407.996	288.18
1411.244	286.97
1414.492	285.3
1417.74	282.2
1420.987	276.95
1424.234	278.3
1427.481	273.49
1430.728	273.24
1433.974	269.83
1437.22	268.3
1440.465	267.12
1443.711	264.62
1446.956	263.15
1450.201	259.42
1453.445	257.3
1456.689	257.01
1459.933	252.65
1463.177	251.16
1466.42	247.6
1469.663	245.44
1472.906	243.67
1476.148	236.99
1479.391	235.15
1482.633	232.79
1485.874	230.5
1489.115	229.01
1492.356	226.17
1495.597	224.96
1498.838	222.32
1502.078	220.8
1505.318	219.75
1508.557	219.68
1511.797	220.24
1515.036	217.91
1518.274	217.56
1521.513	215.66
1524.751	215.51
1527.989	215.06
1531.227	214.4
1534.464	215.03
1537.701	213.31
1540.938	212.54
1544.174	210.08
1547.41	210.12
1550.646	209.15
1553.882	208.72
1557.117	206.48
1560.352	205.21
1563.587	204.55
1566.821	203.23
1570.055	200.82
1573.289	199.74
1576.523	199.58
1579.756	197.87
1582.989	197.03
1586.222	197.01
1589.454	196.65
1592.686	197.99
1595.918	196.55
1599.15	196.2
1602.381	196.08
1605.612	196.18
1608.843	196.97
1612.073	196.73
1615.303	198.14
1618.533	198.02
1621.762	197.41
1624.992	197.5
1628.221	196.83
1631.449	197.15
1634.678	197.31
1637.906	198.43
1641.134	198.37
1644.361	197.84
1647.588	198.17
1650.815	197.03
1654.042	196.86
1657.269	198.42
1660.495	197.98
1663.72	197.31
1666.946	197.93
1670.171	197.88
1673.396	197.42
1676.621	197.36
1679.845	198.1
1683.069	198.33
1686.293	199.52
1689.517	200.35
1692.74	200.02
1695.963	200.62
1699.185	202.98
1702.408	203.08
1705.63	204.03
1708.852	204.95
1712.073	205.38
1715.294	205.36
1718.515	206.52
1721.736	206.36
1724.956	206.91
1728.176	206.84
1731.396	208.69
1734.616	207.45
1737.835	208.58
1741.054	207.2
1744.272	207.24
1747.491	209.38
1750.709	209.96
1753.927	209.89
1757.144	209.19
1760.361	209.76
1763.578	210.1
1766.795	209.52
1770.011	211.04
1773.227	210.94
1776.443	213.32
1779.658	214.31
1782.874	213.3
1786.089	213.77
1789.303	214.55
1792.518	217.21
1795.732	216.46
1798.945	219
1802.159	219.16
1805.372	219.36
1808.585	222.96
1811.797	223.24
1815.01	223.87
1818.222	226.02
1821.434	227.72
1824.645	228.29
1827.856	232.08
1831.067	234.48
1834.278	233.39
1837.488	234.62
1840.698	236.54
1843.908	234.28
1847.117	235.96
1850.326	237.61
1853.535	236.06
1856.744	239.16
1859.952	239
1863.16	236.97
1866.368	234.94
1869.575	237.32
1872.782	234.5
1875.989	233.11
1879.196	232.52
1882.402	230.23
1885.608	230.64
1888.814	230.99
1892.019	230.24
1895.224	229.09
1898.429	228.23
1901.634	229.37
1904.838	228.72
1908.042	230.72
1911.246	231.98
1914.449	232.92
1917.652	233.27
1920.855	233.04
1924.058	233.33
1927.26	231.92
1930.462	232.57
1933.664	234.83
1936.865	233.85
1940.066	233.79
1943.267	232.57
1946.467	232.31
1949.668	233.68
1952.868	236.37
1956.067	236.51
1959.267	236.55
1962.466	237.52
1965.665	236.17
1968.863	237.32
1972.061	240.38
1975.259	242.21
1978.457	244.02
1981.654	245.74
1984.852	246.16
1988.048	245.49
1991.245	248.08
1994.441	251.24
1997.637	252.49
2000.833	259.23
2004.028	261.85
2007.223	263.15
2010.418	266.78
2013.613	271.47
2016.807	274.78
2020.001	277.59
2023.194	281.41
2026.388	287.8
2029.581	294.16
2032.774	296.86
2035.966	301.13
2039.158	302.27
2042.35	307.52
2045.542	309.78
2048.733	314.2
2051.924	317.94
2055.115	322.71
2058.306	324.17
2061.496	326.13
2064.686	328.05
2067.875	333.89
2071.065	334.51
2074.254	332.98
2077.442	338.4
2080.631	338.77
2083.819	342.56
2087.007	342.57
2090.195	346.87
2093.382	349.95
2096.569	348.09
2099.756	351.82
2102.942	353.3
2106.128	356.85
2109.314	365.62
2112.5	362.95
2115.685	371.5
2118.87	371.98
2122.055	381.1
2125.239	382.67
2128.424	386.88
2131.608	389.65
2134.791	395.37
2137.974	396.14
2141.157	398.1
2144.34	398.18
2147.523	404.96
2150.705	401.78
2153.887	405.38
2157.068	405.14
2160.25	402.44
2163.431	404.26
2166.611	409.26
2169.792	416.7
2172.972	421.68
2176.152	423.89
2179.331	429.22
2182.511	435.69
2185.69	440.63
2188.868	448.58
2192.047	450.07
2195.225	462.98
2198.403	473.63
2201.58	483.14
2204.758	492.34
2207.935	502.11
2211.111	513.04
2214.288	517.99
2217.464	519.38
2220.64	527.04
2223.815	533.92
2226.991	556.3
2230.166	557.87
2233.34	568.44
2236.515	576.39
2239.689	575.72
2242.863	578.46
2246.036	594.6
2249.209	588.76
2252.382	599.95
2255.555	619.51
2258.727	622.44
2261.9	624.69
2265.071	629.37
2268.243	640.36
2271.414	647.35
2274.585	661.24
2277.756	668.91
2280.926	672.56
2284.096	691.31
2287.266	705.44
2290.436	708.37
2293.605	725.45
2296.774	746.98
2299.942	770.74
2303.111	773.48
2306.279	791.59
2309.447	802.13
2312.614	823.18
2315.781	844.18
2318.948	883.33
2322.115	868.64
2325.281	918.81
2328.447	898.12
2331.613	936.21
2334.779	925.25
2337.944	964.37
2341.109	972.86
2344.274	998.16
2347.438	1034.39
2350.602	1035.92
2353.766	1065.8
2356.929	1083.54
2360.092	1075.03
2363.255	1154.78
2366.418	1147.56
2369.58	1170.54
2372.742	1250.24
2375.904	1281.81
2379.066	1276.32
2382.227	1246.99
2385.388	1352.92
2388.548	1356.47
2391.709	1371.7
2394.869	1527.28
2398.029	1457.66
2401.188	1499.57
2404.347	1495.27
2407.506	1460.3
2410.665	1502.96
2413.823	1596.82
2416.981	1692.75
2420.139	1636.27
2423.296	1614.85
2426.453	1691.45
2429.61	1622.81
2432.767	1699.47
2435.923	1682.14
2439.079	1837.66
2442.235	1868.77
2445.391	1854.84
2448.546	1830.38
2451.701	1783.59
2454.855	1782.52
2458.009	1894.5
2461.163	1964.29
2464.317	2037.41
2467.471	2091.68
2470.624	2097.49
2473.777	2040.37
2476.929	1982.71
2480.082	1919.16
2483.234	1906.9
2486.385	1996.47
2489.537	2006.55
2492.688	2075.19
2495.839	2019.51
2498.989	1977.96
2502.14	1986.47
2505.29	2002.82
2508.439	2031.19
2511.589	2028.22
2514.738	2209.01
2517.887	2160.26
2521.035	2282.22
2524.183	2296.09
2527.331	2315.87
2530.479	2302
2533.627	2316.33
