Data from N_1_DIV_IL_4n_Splice17_12-33-01-561.txt Node
Date: Sat Mar 07 12:33:01 EST 2020
User: sa697716
Spectrometer: NQ5500242
Trigger mode: 0
Integration Time (sec): 1.450000E-1
Scans to average: 20
Nonlinearity correction enabled: false
Boxcar width: 5
Storing dark spectrum: false
XAxis mode: Wavelengths
Number of Pixels in Spectrum: 512
>>>>>Begin Spectral Data<<<<<
187.83	95.71
188.298	125.06
188.766	90.21
189.233	87.34
189.701	79.24
190.169	85.08
190.636	60.33
191.104	-23.48
191.571	-141.74
192.039	-44.8
192.506	-359.21
192.974	115.85
193.441	230.93
193.908	23.35
194.375	91.89
194.842	22.28
195.31	44.91
195.777	-67.44
196.244	15.83
196.711	29.68
197.177	33.34
197.644	32.21
198.111	32.25
198.578	32.71
199.045	33.55
199.511	33.23
199.978	33.36
200.445	33.39
200.911	33.41
201.378	33.6
201.844	33.72
202.31	33.35
202.777	33.61
203.243	33.88
203.709	33.64
204.176	33.28
204.642	33.02
205.108	33.03
205.574	32.77
206.04	32.36
206.506	32.13
206.972	32.15
207.438	31.89
207.903	31.38
208.369	30.68
208.835	30.25
209.301	29.57
209.766	28.83
210.232	27.93
210.697	27.23
211.163	26.76
211.628	26.08
212.094	25.33
212.559	24.92
213.024	24.46
213.49	24.08
213.955	23.47
214.42	22.95
214.885	22.43
215.35	21.75
215.815	20.66
216.28	19.23
216.745	17.62
217.21	15.99
217.675	14.63
218.14	13.47
218.604	12.44
219.069	11.64
219.534	10.92
219.998	10.33
220.463	9.89
220.927	9.44
221.392	9.12
221.856	8.87
222.32	8.66
222.785	8.44
223.249	8.23
223.713	8.06
224.177	7.9
224.642	7.75
225.106	7.56
225.57	7.38
226.034	7.27
226.497	7.16
226.961	7.02
227.425	6.9
227.889	6.81
228.353	6.7
228.816	6.58
229.28	6.48
229.744	6.4
230.207	6.32
230.671	6.23
231.134	6.13
231.597	6.07
232.061	6
232.524	5.92
232.987	5.83
233.45	5.77
233.914	5.71
234.377	5.62
234.84	5.55
235.303	5.5
235.766	5.45
236.229	5.41
236.691	5.33
237.154	5.27
237.617	5.23
238.08	5.17
238.542	5.11
239.005	5.06
239.468	5.02
239.93	4.97
240.393	4.92
240.855	4.87
241.317	4.81
241.78	4.76
242.242	4.7
242.704	4.65
243.166	4.6
243.629	4.55
244.091	4.5
244.553	4.45
245.015	4.42
245.477	4.37
245.939	4.32
246.4	4.28
246.862	4.25
247.324	4.22
247.786	4.19
248.247	4.16
248.709	4.12
249.17	4.08
249.632	4.05
250.093	4.02
250.555	3.99
251.016	3.96
251.477	3.92
251.939	3.89
252.4	3.86
252.861	3.82
253.322	3.79
253.783	3.77
254.244	3.75
254.705	3.72
255.166	3.7
255.627	3.67
256.088	3.65
256.549	3.64
257.009	3.61
257.47	3.6
257.931	3.57
258.391	3.54
258.852	3.51
259.312	3.48
259.773	3.46
260.233	3.44
260.694	3.41
261.154	3.38
261.614	3.35
262.074	3.33
262.534	3.3
262.994	3.28
263.455	3.26
263.915	3.25
264.374	3.23
264.834	3.21
265.294	3.18
265.754	3.17
266.214	3.16
266.673	3.15
267.133	3.13
267.593	3.12
268.052	3.11
268.512	3.1
268.971	3.09
269.431	3.08
269.89	3.07
270.349	3.06
270.809	3.04
271.268	3.03
271.727	3.03
272.186	3.02
272.645	3
273.104	2.99
273.563	2.97
274.022	2.97
274.481	2.96
274.94	2.95
275.399	2.94
275.857	2.93
276.316	2.92
276.775	2.91
277.233	2.9
277.692	2.9
278.15	2.89
278.609	2.88
279.067	2.88
279.525	2.88
279.984	2.87
280.442	2.87
280.9	2.87
281.358	2.87
281.816	2.86
282.274	2.86
282.732	2.85
283.19	2.84
283.648	2.84
284.106	2.82
284.564	2.82
285.021	2.81
285.479	2.81
285.937	2.81
286.394	2.8
286.852	2.78
287.309	2.78
287.767	2.76
288.224	2.75
288.682	2.74
289.139	2.73
289.596	2.71
290.053	2.69
290.511	2.67
290.968	2.65
291.425	2.64
291.882	2.63
292.339	2.62
292.796	2.61
293.252	2.61
293.709	2.6
294.166	2.6
294.623	2.6
295.079	2.59
295.536	2.6
295.992	2.59
296.449	2.58
296.905	2.58
297.362	2.57
297.818	2.56
298.274	2.56
298.731	2.55
299.187	2.54
299.643	2.53
300.099	2.52
300.555	2.52
301.011	2.51
301.467	2.51
301.923	2.5
302.379	2.5
302.835	2.5
303.291	2.49
303.746	2.49
304.202	2.5
304.658	2.5
305.113	2.5
305.569	2.5
306.024	2.5
306.479	2.49
306.935	2.49
307.39	2.49
307.845	2.49
308.301	2.5
308.756	2.5
309.211	2.49
309.666	2.5
310.121	2.5
310.576	2.5
311.031	2.5
311.486	2.5
311.94	2.51
312.395	2.51
312.85	2.51
313.305	2.51
313.759	2.51
314.214	2.51
314.668	2.5
315.123	2.49
315.577	2.49
316.032	2.48
316.486	2.47
316.94	2.47
317.394	2.46
317.849	2.45
318.303	2.43
318.757	2.42
319.211	2.41
319.665	2.4
320.119	2.39
320.572	2.38
321.026	2.38
321.48	2.37
321.934	2.36
322.387	2.35
322.841	2.34
323.295	2.35
323.748	2.35
324.202	2.35
324.655	2.34
325.108	2.34
325.562	2.34
326.015	2.34
326.468	2.35
326.921	2.35
327.374	2.35
327.827	2.35
328.28	2.34
328.733	2.34
329.186	2.34
329.639	2.34
330.092	2.34
330.545	2.34
330.997	2.35
331.45	2.35
331.903	2.35
332.355	2.36
332.808	2.36
333.26	2.37
333.713	2.36
334.165	2.36
334.617	2.36
335.069	2.36
335.522	2.36
335.974	2.36
336.426	2.35
336.878	2.34
337.33	2.33
337.782	2.33
338.234	2.33
338.686	2.33
339.137	2.33
339.589	2.32
340.041	2.31
340.493	2.3
340.944	2.29
341.396	2.28
341.847	2.28
342.299	2.27
342.75	2.25
343.201	2.24
343.653	2.23
344.104	2.21
344.555	2.21
345.006	2.2
345.457	2.19
345.908	2.19
346.359	2.2
346.81	2.19
347.261	2.18
347.712	2.18
348.163	2.17
348.613	2.18
349.064	2.18
349.515	2.18
349.965	2.18
350.416	2.17
350.866	2.17
351.317	2.16
351.767	2.16
352.217	2.16
352.668	2.16
353.118	2.17
353.568	2.17
354.018	2.16
354.468	2.16
354.918	2.16
355.368	2.16
355.818	2.16
356.268	2.17
356.718	2.17
357.168	2.16
357.617	2.16
358.067	2.16
358.517	2.17
358.966	2.17
359.416	2.18
359.865	2.18
360.315	2.18
360.764	2.19
361.213	2.18
361.663	2.19
362.112	2.2
362.561	2.21
363.01	2.2
363.459	2.18
363.908	2.17
364.357	2.17
364.806	2.17
365.255	2.16
365.703	2.17
366.152	2.18
366.601	2.18
367.05	2.17
367.498	2.17
367.947	2.18
368.395	2.19
368.844	2.21
369.292	2.2
369.74	2.21
370.189	2.21
370.637	2.2
371.085	2.2
371.533	2.2
371.981	2.2
372.429	2.21
372.877	2.2
373.325	2.2
373.773	2.19
374.221	2.19
374.669	2.19
375.116	2.19
375.564	2.19
376.012	2.19
376.459	2.19
376.907	2.21
377.354	2.22
377.801	2.23
378.249	2.24
378.696	2.25
379.143	2.26
379.591	2.29
380.038	2.3
380.485	2.31
380.932	2.32
381.379	2.33
381.826	2.33
382.273	2.34
382.72	2.33
383.166	2.34
383.613	2.35
384.06	2.36
384.506	2.36
384.953	2.38
385.4	2.38
385.846	2.39
386.292	2.4
386.739	2.41
387.185	2.41
387.631	2.44
388.078	2.45
388.524	2.47
388.97	2.48
389.416	2.49
389.862	2.51
390.308	2.53
390.754	2.55
391.2	2.57
391.645	2.6
392.091	2.63
392.537	2.65
392.983	2.67
393.428	2.7
393.874	2.72
394.319	2.75
394.765	2.77
395.21	2.78
395.655	2.8
396.101	2.82
396.546	2.83
396.991	2.86
397.436	2.88
397.881	2.91
398.326	2.92
398.771	2.96
399.216	2.98
399.661	3.01
400.106	3.03
400.551	3.05
400.995	3.08
401.44	3.11
401.885	3.14
402.329	3.16
402.774	3.18
403.218	3.21
403.663	3.23
404.107	3.24
404.551	3.27
404.995	3.28
405.44	3.3
405.884	3.33
406.328	3.36
406.772	3.37
407.216	3.39
407.66	3.42
408.104	3.43
408.547	3.44
408.991	3.47
409.435	3.48
409.879	3.51
410.322	3.55
410.766	3.57
411.209	3.59
411.653	3.62
412.096	3.65
412.54	3.67
412.983	3.69
413.426	3.74
413.869	3.78
414.312	3.81
414.756	3.85
415.199	3.87
415.642	3.89
416.085	3.91
416.527	3.93
416.97	3.93
417.413	3.96
417.856	3.97
418.298	3.97
418.741	3.99
419.184	4.01
419.626	4.01
420.069	4.04
420.511	4.05
420.953	4.06
421.396	4.08
421.838	4.1
422.28	4.12
422.722	4.15
423.164	4.18
423.606	4.19
424.048	4.22
424.49	4.24
424.932	4.24
425.374	4.25
425.816	4.26
426.258	4.26
426.699	4.27
427.141	4.29
427.582	4.3
428.024	4.33
428.465	4.34
428.907	4.33
429.348	4.34
429.789	4.35
430.231	4.39
430.672	4.42
431.113	4.44
431.554	4.47
431.995	4.49
432.436	4.5
432.877	4.52
433.318	4.54
433.759	4.59
434.2	4.63
434.64	4.67
435.081	4.69
435.522	4.71
435.962	4.73
436.403	4.77
436.843	4.8
437.284	4.8
437.724	4.82
438.164	4.83
438.604	4.83
439.045	4.83
439.485	4.83
439.925	4.84
440.365	4.86
440.805	4.86
441.245	4.87
441.685	4.88
442.125	4.91
442.564	4.91
443.004	4.93
443.444	4.95
443.883	4.96
444.323	4.98
444.762	4.99
445.202	5
445.641	5.02
446.081	5.03
446.52	5.03
446.959	5.05
447.398	5.07
447.837	5.09
448.276	5.09
448.716	5.1
449.154	5.12
449.593	5.13
450.032	5.14
450.471	5.12
450.91	5.12
451.349	5.13
451.787	5.12
452.226	5.09
452.664	5.09
453.103	5.08
453.541	5.08
453.98	5.08
454.418	5.06
454.856	5.05
455.295	5.05
455.733	5.03
456.171	5.03
456.609	5.02
457.047	5.02
457.485	5.01
457.923	5.01
458.361	5
458.798	5.01
459.236	5.01
459.674	5.02
460.111	5.02
460.549	5.03
460.987	5.03
461.424	5.04
461.862	5.05
462.299	5.07
462.736	5.07
463.173	5.08
463.611	5.07
464.048	5.07
464.485	5.07
464.922	5.08
465.359	5.08
465.796	5.09
466.233	5.09
466.67	5.1
467.106	5.1
467.543	5.09
467.98	5.09
468.416	5.11
468.853	5.11
469.29	5.11
469.726	5.11
470.162	5.11
470.599	5.11
471.035	5.1
471.471	5.08
471.907	5.07
472.344	5.07
472.78	5.06
473.216	5.05
473.652	5.04
474.088	5.03
474.523	5.02
474.959	5.01
475.395	4.99
475.831	4.98
476.266	4.97
476.702	4.96
477.138	4.96
477.573	4.96
478.008	4.95
478.444	4.95
478.879	4.95
479.314	4.94
479.75	4.93
480.185	4.92
480.62	4.92
481.055	4.92
481.49	4.91
481.925	4.9
482.36	4.9
482.795	4.89
483.229	4.89
483.664	4.89
484.099	4.88
484.534	4.87
484.968	4.87
485.403	4.88
485.837	4.87
486.271	4.89
486.706	4.89
487.14	4.88
487.574	4.88
488.009	4.88
488.443	4.88
488.877	4.88
489.311	4.89
489.745	4.9
490.179	4.9
490.613	4.92
491.046	4.92
491.48	4.93
491.914	4.95
492.348	4.97
492.781	4.99
493.215	5.01
493.648	5.04
494.082	5.05
494.515	5.07
494.948	5.09
495.382	5.1
495.815	5.13
496.248	5.16
496.681	5.2
497.114	5.24
497.547	5.27
497.98	5.31
498.413	5.34
498.846	5.39
499.279	5.43
499.711	5.48
500.144	5.53
500.577	5.58
501.009	5.63
501.442	5.69
501.874	5.75
502.306	5.81
502.739	5.88
503.171	5.96
503.603	6.03
504.036	6.11
504.468	6.19
504.9	6.28
505.332	6.36
505.764	6.45
506.196	6.55
506.627	6.64
507.059	6.75
507.491	6.85
507.923	6.96
508.354	7.1
508.786	7.23
509.217	7.36
509.649	7.51
510.08	7.66
510.512	7.82
510.943	7.97
511.374	8.12
511.805	8.29
512.237	8.45
512.668	8.63
513.099	8.8
513.53	8.99
513.961	9.18
514.391	9.38
514.822	9.58
515.253	9.77
515.684	9.97
516.114	10.2
516.545	10.41
516.975	10.64
517.406	10.86
517.836	11.08
518.267	11.3
518.697	11.51
519.127	11.72
519.558	11.95
519.988	12.17
520.418	12.4
520.848	12.61
521.278	12.82
521.708	13.07
522.138	13.29
522.567	13.51
522.997	13.71
523.427	13.93
523.857	14.14
524.286	14.34
524.716	14.53
525.145	14.73
525.575	14.93
526.004	15.13
526.433	15.27
526.863	15.44
527.292	15.6
527.721	15.77
528.15	15.91
528.579	16.07
529.008	16.21
529.437	16.35
529.866	16.46
530.295	16.57
530.724	16.68
531.152	16.8
531.581	16.91
532.01	17.01
532.438	17.09
532.867	17.19
533.295	17.27
533.723	17.34
534.152	17.41
534.58	17.5
535.008	17.55
535.436	17.63
535.865	17.67
536.293	17.73
536.721	17.78
537.149	17.84
537.576	17.88
538.004	17.93
538.432	17.96
538.86	18
539.287	18.02
539.715	18.08
540.143	18.1
540.57	18.14
540.998	18.17
541.425	18.19
541.852	18.22
542.28	18.25
542.707	18.28
543.134	18.31
543.561	18.35
543.988	18.37
544.415	18.39
544.842	18.41
545.269	18.45
545.696	18.46
546.123	18.48
546.549	18.52
546.976	18.55
547.403	18.57
547.829	18.59
548.256	18.6
548.682	18.62
549.108	18.64
549.535	18.65
549.961	18.64
550.387	18.65
550.813	18.64
551.24	18.62
551.666	18.61
552.092	18.59
552.518	18.57
552.943	18.55
553.369	18.53
553.795	18.49
554.221	18.46
554.646	18.42
555.072	18.37
555.498	18.32
555.923	18.26
556.349	18.19
556.774	18.13
557.199	18.06
557.625	18
558.05	17.92
558.475	17.83
558.9	17.76
559.325	17.68
559.75	17.59
560.175	17.5
560.6	17.39
561.025	17.29
561.449	17.18
561.874	17.07
562.299	16.94
562.723	16.82
563.148	16.71
563.572	16.57
563.997	16.44
564.421	16.31
564.846	16.18
565.27	16.05
565.694	15.93
566.118	15.78
566.542	15.66
566.966	15.51
567.39	15.37
567.814	15.24
568.238	15.1
568.662	14.97
569.086	14.82
569.509	14.69
569.933	14.57
570.357	14.44
570.78	14.31
571.204	14.17
571.627	14.06
572.05	13.94
572.474	13.83
572.897	13.71
573.32	13.6
573.743	13.49
574.166	13.38
574.589	13.26
575.012	13.15
575.435	13.04
575.858	12.95
576.281	12.84
576.704	12.75
577.126	12.66
577.549	12.58
577.972	12.5
578.394	12.41
578.817	12.33
579.239	12.26
579.661	12.19
580.084	12.12
580.506	12.04
580.928	11.97
581.35	11.9
581.772	11.83
582.194	11.76
582.616	11.7
583.038	11.64
583.46	11.58
583.882	11.52
584.303	11.45
584.725	11.4
585.147	11.35
585.568	11.32
585.99	11.27
586.411	11.22
586.833	11.16
587.254	11.1
587.675	11.05
588.096	11.02
588.518	10.97
588.939	10.94
589.36	10.89
589.781	10.85
590.202	10.8
590.623	10.78
591.043	10.74
591.464	10.72
591.885	10.69
592.305	10.66
592.726	10.63
593.147	10.6
593.567	10.57
593.987	10.54
594.408	10.52
594.828	10.49
595.248	10.46
595.669	10.44
596.089	10.41
596.509	10.4
596.929	10.38
597.349	10.35
597.769	10.33
598.189	10.3
598.608	10.28
599.028	10.25
599.448	10.22
599.867	10.18
600.287	10.15
600.706	10.13
601.126	10.09
601.545	10.05
601.965	10.02
602.384	9.98
602.803	9.94
603.222	9.9
603.641	9.85
604.061	9.81
604.48	9.77
604.898	9.72
605.317	9.66
605.736	9.62
606.155	9.57
606.574	9.52
606.992	9.47
607.411	9.42
607.829	9.34
608.248	9.28
608.666	9.22
609.085	9.16
609.503	9.11
609.921	9.06
610.339	9
610.758	8.94
611.176	8.88
611.594	8.83
612.012	8.78
612.43	8.75
612.847	8.71
613.265	8.66
613.683	8.61
614.101	8.57
614.518	8.51
614.936	8.46
615.353	8.4
615.771	8.36
616.188	8.31
616.606	8.26
617.023	8.22
617.44	8.18
617.857	8.15
618.274	8.11
618.691	8.07
619.108	8.04
619.525	8.02
619.942	7.99
620.359	7.97
620.776	7.94
621.192	7.92
621.609	7.91
622.026	7.89
622.442	7.87
622.859	7.85
623.275	7.83
623.691	7.82
624.108	7.8
624.524	7.79
624.94	7.78
625.356	7.77
625.772	7.76
626.188	7.75
626.604	7.73
627.02	7.72
627.436	7.72
627.852	7.73
628.268	7.72
628.683	7.71
629.099	7.7
629.514	7.69
629.93	7.69
630.345	7.67
630.761	7.65
631.176	7.64
631.591	7.61
632.007	7.59
632.422	7.56
632.837	7.53
633.252	7.49
633.667	7.45
634.082	7.41
634.497	7.36
634.911	7.32
635.326	7.27
635.741	7.23
636.155	7.19
636.57	7.14
636.984	7.08
637.399	7.02
637.813	6.97
638.228	6.91
638.642	6.85
639.056	6.79
639.47	6.73
639.884	6.68
640.298	6.61
640.712	6.55
641.126	6.49
641.54	6.43
641.954	6.38
642.368	6.32
642.781	6.27
643.195	6.21
643.609	6.16
644.022	6.1
644.436	6.06
644.849	6.01
645.262	5.97
645.676	5.92
646.089	5.88
646.502	5.84
646.915	5.81
647.328	5.77
647.741	5.75
648.154	5.72
648.567	5.7
648.98	5.67
649.393	5.66
649.805	5.64
650.218	5.62
650.631	5.61
651.043	5.59
651.456	5.57
651.868	5.56
652.28	5.55
652.693	5.53
653.105	5.52
653.517	5.5
653.929	5.48
654.341	5.45
654.753	5.42
655.165	5.39
655.577	5.37
655.989	5.35
656.401	5.32
656.813	5.29
657.224	5.26
657.636	5.22
658.047	5.19
658.459	5.16
658.87	5.14
659.282	5.11
659.693	5.08
660.104	5.05
660.515	5.02
660.926	4.99
661.338	4.97
661.749	4.94
662.159	4.91
662.57	4.9
662.981	4.88
663.392	4.85
663.803	4.84
664.213	4.82
664.624	4.81
665.035	4.79
665.445	4.79
665.855	4.78
666.266	4.79
666.676	4.79
667.086	4.77
667.497	4.78
667.907	4.78
668.317	4.78
668.727	4.79
669.137	4.79
669.547	4.8
669.956	4.81
670.366	4.81
670.776	4.81
671.186	4.82
671.595	4.82
672.005	4.83
672.414	4.84
672.824	4.86
673.233	4.87
673.642	4.89
674.052	4.91
674.461	4.91
674.87	4.94
675.279	4.96
675.688	4.99
676.097	5.02
676.506	5.04
676.915	5.07
677.323	5.09
677.732	5.12
678.141	5.14
678.549	5.16
678.958	5.19
679.366	5.22
679.775	5.25
680.183	5.28
680.592	5.32
681	5.36
681.408	5.4
681.816	5.43
682.224	5.47
682.632	5.52
683.04	5.57
683.448	5.62
683.856	5.66
684.264	5.71
684.671	5.77
685.079	5.83
685.487	5.93
685.894	6.02
686.302	6.13
686.709	6.25
687.116	6.39
687.524	6.54
687.931	6.71
688.338	6.9
688.745	7.11
689.152	7.33
689.559	7.57
689.966	7.84
690.373	8.12
690.78	8.43
691.187	8.75
691.593	9.09
692	9.45
692.407	9.82
692.813	10.23
693.22	10.62
693.626	11.05
694.032	11.49
694.439	11.93
694.845	12.4
695.251	12.87
695.657	13.34
696.063	13.83
696.469	14.33
696.875	14.84
697.281	15.36
697.687	15.89
698.093	16.42
698.498	16.95
698.904	17.49
699.31	18.02
699.715	18.56
700.12	19.11
700.526	19.64
700.931	20.18
701.337	20.72
701.742	21.26
702.147	21.78
702.552	22.3
702.957	22.81
703.362	23.32
703.767	23.82
704.172	24.35
704.577	24.85
704.981	25.37
705.386	25.89
705.791	26.39
706.195	26.88
706.6	27.39
707.004	27.87
707.408	28.4
707.813	28.9
708.217	29.39
708.621	29.89
709.025	30.37
709.43	30.81
709.834	31.28
710.237	31.72
710.641	32.16
711.045	32.6
711.449	33.06
711.853	33.51
712.256	33.95
712.66	34.36
713.064	34.76
713.467	35.2
713.87	35.63
714.274	36.04
714.677	36.48
715.08	36.9
715.484	37.33
715.887	37.74
716.29	38.13
716.693	38.52
717.096	38.9
717.499	39.3
717.901	39.67
718.304	40.04
718.707	40.41
719.109	40.78
719.512	41.12
719.915	41.46
720.317	41.76
720.719	42.06
721.122	42.37
721.524	42.7
721.926	43.01
722.328	43.34
722.731	43.62
723.133	43.9
723.535	44.17
723.937	44.45
724.338	44.72
724.74	45
725.142	45.3
725.544	45.54
725.945	45.8
726.347	46.02
726.748	46.21
727.15	46.43
727.551	46.64
727.952	46.83
728.354	47.07
728.755	47.25
729.156	47.44
729.557	47.59
729.958	47.78
730.359	47.95
730.76	48.13
731.161	48.32
731.562	48.53
731.962	48.65
732.363	48.83
732.763	48.96
733.164	49.12
733.564	49.28
733.965	49.41
734.365	49.52
734.766	49.63
735.166	49.76
735.566	49.87
735.966	49.96
736.366	50.12
736.766	50.22
737.166	50.32
737.566	50.41
737.966	50.47
738.365	50.58
738.765	50.7
739.165	50.8
739.564	50.88
739.964	50.96
740.363	51
740.763	51.04
741.162	51.11
741.561	51.15
741.96	51.19
742.36	51.29
742.759	51.37
743.158	51.39
743.557	51.43
743.955	51.49
744.354	51.52
744.753	51.61
745.152	51.69
745.55	51.73
745.949	51.79
746.348	51.84
746.746	51.85
747.144	51.87
747.543	51.92
747.941	51.98
748.339	51.98
748.737	52.01
749.136	52.03
749.534	52.03
749.932	52.07
750.33	52.09
750.727	52.15
751.125	52.17
751.523	52.18
751.921	52.17
752.318	52.19
752.716	52.23
753.113	52.27
753.511	52.3
753.908	52.36
754.305	52.37
754.703	52.37
755.1	52.34
755.497	52.36
755.894	52.37
756.291	52.39
756.688	52.39
757.085	52.42
757.482	52.4
757.878	52.39
758.275	52.37
758.672	52.38
759.068	52.42
759.465	52.42
759.861	52.44
760.258	52.47
760.654	52.49
761.05	52.5
761.447	52.49
761.843	52.5
762.239	52.49
762.635	52.49
763.031	52.49
763.427	52.45
763.822	52.46
764.218	52.43
764.614	52.4
765.01	52.38
765.405	52.36
765.801	52.34
766.196	52.35
766.592	52.35
766.987	52.36
767.382	52.37
767.778	52.39
768.173	52.39
768.568	52.41
768.963	52.43
769.358	52.46
769.753	52.46
770.148	52.48
770.542	52.49
770.937	52.5
771.332	52.5
771.726	52.48
772.121	52.47
772.515	52.49
772.91	52.47
773.304	52.5
773.699	52.48
774.093	52.48
774.487	52.47
774.881	52.49
775.275	52.46
775.669	52.45
776.063	52.43
776.457	52.43
776.851	52.41
777.245	52.38
777.638	52.34
778.032	52.35
778.425	52.41
778.819	52.4
779.212	52.37
779.606	52.4
779.999	52.4
780.392	52.44
780.786	52.46
781.179	52.47
781.572	52.53
781.965	52.54
782.358	52.54
782.751	52.5
783.143	52.52
783.536	52.51
783.929	52.51
784.322	52.51
784.714	52.51
785.107	52.51
785.499	52.51
785.891	52.49
786.284	52.5
786.676	52.49
787.068	52.48
787.46	52.47
787.852	52.47
788.245	52.46
788.636	52.46
789.028	52.44
789.42	52.41
789.812	52.39
790.204	52.4
790.595	52.4
790.987	52.39
791.378	52.42
791.77	52.41
792.161	52.42
792.553	52.41
792.944	52.39
793.335	52.41
793.726	52.41
794.117	52.42
794.508	52.39
794.899	52.4
795.29	52.4
795.681	52.37
796.072	52.39
796.463	52.37
796.853	52.37
797.244	52.4
797.634	52.39
798.025	52.42
798.415	52.43
798.806	52.45
799.196	52.43
799.586	52.44
799.976	52.43
800.366	52.41
800.756	52.42
801.146	52.42
801.536	52.43
801.926	52.42
802.316	52.42
802.706	52.44
803.095	52.41
803.485	52.42
803.874	52.42
804.264	52.42
804.653	52.44
805.043	52.46
805.432	52.46
805.821	52.45
806.21	52.45
806.599	52.44
806.988	52.42
807.377	52.43
807.766	52.43
808.155	52.4
808.544	52.41
808.933	52.41
809.321	52.38
809.71	52.4
810.098	52.36
810.487	52.35
810.875	52.34
811.264	52.32
811.652	52.33
812.04	52.3
812.428	52.34
812.816	52.32
813.204	52.31
813.592	52.3
813.98	52.29
814.368	52.29
814.756	52.29
815.144	52.28
815.531	52.3
815.919	52.3
816.306	52.3
816.694	52.27
817.081	52.28
817.469	52.26
817.856	52.24
818.243	52.22
818.63	52.21
819.017	52.22
819.404	52.23
819.791	52.21
820.178	52.18
820.565	52.15
820.952	52.14
821.339	52.12
821.725	52.14
822.112	52.15
822.498	52.17
822.885	52.2
823.271	52.19
823.657	52.15
824.044	52.16
824.43	52.18
824.816	52.2
825.202	52.2
825.588	52.22
825.974	52.23
826.36	52.25
826.746	52.21
827.132	52.19
827.517	52.21
827.903	52.25
828.289	52.27
828.674	52.25
829.06	52.24
829.445	52.24
829.83	52.21
830.216	52.19
830.601	52.18
830.986	52.2
831.371	52.19
831.756	52.19
832.141	52.16
832.526	52.14
832.911	52.15
833.295	52.17
833.68	52.19
834.065	52.2
834.449	52.2
834.834	52.2
835.218	52.21
835.603	52.2
835.987	52.19
836.371	52.19
836.755	52.18
837.139	52.18
837.524	52.17
837.908	52.18
838.291	52.21
838.675	52.22
839.059	52.23
839.443	52.21
839.827	52.21
840.21	52.23
840.594	52.26
840.977	52.25
841.361	52.27
841.744	52.26
842.127	52.26
842.511	52.23
842.894	52.22
843.277	52.2
843.66	52.19
844.043	52.2
844.426	52.18
844.809	52.17
845.191	52.19
845.574	52.16
845.957	52.16
846.339	52.15
846.722	52.15
847.104	52.18
847.487	52.19
847.869	52.2
848.252	52.21
848.634	52.19
849.016	52.18
849.398	52.19
849.78	52.2
850.162	52.2
850.544	52.19
850.926	52.19
851.307	52.17
851.689	52.17
852.071	52.18
852.452	52.16
852.834	52.18
853.215	52.19
853.597	52.19
853.978	52.19
854.359	52.19
854.741	52.18
855.122	52.15
855.503	52.13
855.884	52.12
856.265	52.13
856.646	52.13
857.026	52.13
857.407	52.15
857.788	52.13
858.169	52.14
858.549	52.14
858.93	52.14
859.31	52.15
859.69	52.17
860.071	52.21
860.451	52.21
860.831	52.23
861.211	52.21
861.591	52.19
861.971	52.18
862.351	52.19
862.731	52.2
863.111	52.2
863.491	52.21
863.87	52.2
864.25	52.17
864.629	52.15
865.009	52.13
865.388	52.11
865.768	52.12
866.147	52.12
866.526	52.09
866.905	52.08
867.284	52.1
867.663	52.1
868.042	52.11
868.421	52.12
868.8	52.12
869.179	52.12
869.558	52.13
869.936	52.11
870.315	52.12
870.693	52.13
871.072	52.14
871.45	52.12
871.828	52.12
872.207	52.11
872.585	52.08
872.963	52.08
873.341	52.08
873.719	52.1
874.097	52.11
874.475	52.12
874.853	52.13
875.23	52.16
875.608	52.17
875.986	52.18
876.363	52.17
876.741	52.23
877.118	52.22
877.495	52.24
877.873	52.24
878.25	52.29
878.627	52.31
879.004	52.32
879.381	52.31
879.758	52.28
880.135	52.27
880.512	52.29
880.889	52.28
881.265	52.26
881.642	52.25
882.019	52.25
882.395	52.2
882.772	52.18
883.148	52.14
883.524	52.14
883.901	52.15
884.277	52.16
884.653	52.16
885.029	52.15
885.405	52.16
885.781	52.16
886.157	52.15
886.532	52.18
886.908	52.17
887.284	52.19
887.659	52.17
888.035	52.14
888.411	52.11
888.786	52.1
889.161	52.12
889.537	52.12
889.912	52.11
890.287	52.11
890.662	52.1
891.037	52.12
891.412	52.09
891.787	52.07
892.162	52.08
892.536	52.08
892.911	52.06
893.286	52.04
893.66	52.03
894.035	52.03
894.409	52.02
894.784	52.01
895.158	51.97
895.532	52.01
895.906	52.04
896.281	52.04
896.655	52.06
897.029	52.09
897.402	52.07
897.776	52.09
898.15	52.11
898.524	52.14
898.898	52.14
899.271	52.18
899.645	52.18
900.018	52.2
900.392	52.21
900.765	52.21
901.138	52.21
901.511	52.24
901.884	52.25
902.258	52.24
902.631	52.22
903.003	52.25
903.376	52.24
903.749	52.22
904.122	52.23
904.495	52.23
904.867	52.23
905.24	52.24
905.612	52.26
905.985	52.25
906.357	52.25
906.729	52.25
907.102	52.23
907.474	52.25
907.846	52.25
908.218	52.23
908.59	52.26
908.962	52.25
909.334	52.24
909.705	52.21
910.077	52.22
910.449	52.24
910.82	52.25
911.192	52.25
911.563	52.21
911.935	52.2
912.306	52.21
912.677	52.21
913.048	52.23
913.419	52.23
913.79	52.23
914.161	52.24
914.532	52.21
914.903	52.21
915.274	52.2
915.645	52.21
916.015	52.24
916.386	52.24
916.756	52.22
917.127	52.23
917.497	52.24
917.868	52.24
918.238	52.21
918.608	52.24
918.978	52.22
919.348	52.24
919.718	52.23
920.088	52.24
920.458	52.23
920.828	52.22
921.198	52.2
921.567	52.2
921.937	52.22
922.306	52.2
922.676	52.17
923.045	52.17
923.415	52.15
923.784	52.14
924.153	52.1
924.522	52.11
924.891	52.1
925.26	52.1
925.629	52.1
925.998	52.06
926.367	52.11
926.736	52.08
927.104	52.11
927.473	52.08
927.842	52.06
928.21	52.08
928.578	52
928.947	52.02
929.315	51.97
929.683	51.94
930.051	51.91
930.42	51.89
930.788	51.86
931.156	51.81
931.523	51.83
931.891	51.86
932.259	51.84
932.627	51.89
932.994	51.86
933.362	51.84
933.729	51.83
934.097	51.85
934.464	51.84
934.831	51.88
935.199	51.89
935.566	51.85
935.933	51.83
936.3	51.81
936.667	51.78
937.034	51.79
937.401	51.82
937.767	51.84
938.134	51.79
938.501	51.75
938.867	51.71
939.234	51.67
939.6	51.71
939.967	51.66
940.333	51.65
940.699	51.64
941.065	51.62
941.431	51.64
941.798	51.56
942.163	51.57
942.529	51.56
942.895	51.58
943.261	51.59
943.627	51.56
943.992	51.54
944.358	51.54
944.723	51.54
945.089	51.5
945.454	51.5
945.82	51.48
946.185	51.47
946.55	51.45
946.915	51.43
947.28	51.42
947.645	51.42
948.01	51.43
948.375	51.45
948.74	51.43
949.104	51.5
949.469	51.42
949.834	51.41
950.198	51.38
950.562	51.33
950.927	51.28
951.291	51.25
951.655	51.23
952.02	51.24
952.384	51.15
952.748	51.13
953.112	51.02
953.476	51.07
953.839	51.05
954.203	51.05
954.567	51.07
954.931	51.06
955.294	51.03
955.658	51.08
956.021	51.01
956.385	50.99
956.748	50.97
957.111	50.99
957.474	50.93
957.837	50.88
958.2	50.88
958.563	50.9
958.926	50.92
959.289	50.96
959.652	50.88
960.015	50.86
960.377	50.89
960.74	50.91
961.102	50.9
961.465	50.91
961.827	50.99
962.189	50.99
962.552	51
962.914	51.01
963.276	51
963.638	51.03
964	51.06
964.362	51.08
964.724	51.05
965.085	51.04
965.447	50.98
965.809	50.96
966.17	50.97
966.532	50.95
966.893	50.95
967.255	50.96
967.616	50.91
967.977	50.9
968.338	50.87
968.699	50.85
969.061	50.89
969.421	50.95
969.782	50.98
970.143	50.95
970.504	50.93
970.865	50.93
971.225	50.88
971.586	50.86
971.946	50.89
972.307	50.95
972.667	50.98
973.027	50.94
973.388	50.91
973.748	50.9
974.108	50.97
974.468	50.95
974.828	50.95
975.188	51
975.548	51.01
975.907	51
976.267	50.98
976.627	51.05
976.986	51.02
977.346	50.99
977.705	50.92
978.064	50.88
978.424	50.87
978.783	50.81
979.142	50.81
979.501	50.81
979.86	50.85
980.219	50.79
980.578	50.8
980.937	50.81
981.296	50.79
981.654	50.83
982.013	50.83
982.371	50.84
982.73	50.86
983.088	50.76
983.447	50.69
983.805	50.6
984.163	50.61
984.521	50.53
984.879	50.52
985.237	50.61
985.595	50.64
985.953	50.6
986.311	50.56
986.669	50.57
987.026	50.64
987.384	50.73
987.741	50.74
988.099	50.73
988.456	50.81
988.814	50.77
989.171	50.69
989.528	50.65
989.885	50.68
990.242	50.71
990.599	50.78
990.956	50.81
991.313	50.86
991.67	50.88
992.027	50.99
992.383	50.93
992.74	51.02
993.096	51.05
993.453	51.03
993.809	51
994.165	50.97
994.522	50.92
994.878	50.88
995.234	50.81
995.59	50.73
995.946	50.71
996.302	50.71
996.658	50.79
997.013	50.75
997.369	50.76
997.725	50.8
998.08	50.92
998.436	50.91
998.791	50.97
999.147	50.99
999.502	51.09
999.857	51.03
1000.212	50.94
1000.567	50.83
1000.922	50.87
1001.277	50.88
1001.632	50.81
1001.987	50.76
1002.342	50.76
1002.696	50.74
1003.051	50.94
1003.406	50.99
1003.76	50.94
1004.114	50.9
1004.469	50.93
1004.823	51.18
1005.177	51.16
1005.531	51.16
1005.885	51.03
1006.239	51.01
1006.593	50.99
1006.947	50.82
1007.301	50.59
1007.655	50.51
1008.008	50.53
1008.362	50.6
1008.715	50.37
1009.069	50.47
1009.422	50.36
1009.776	50.44
1010.129	50.43
1010.482	50.43
1010.835	50.31
1011.188	50.43
1011.541	50.61
1011.894	50.64
1012.247	50.56
1012.6	50.63
1012.952	50.54
1013.305	50.73
1013.657	50.7
1014.01	50.7
1014.362	50.75
1014.715	50.96
1015.067	51.03
1015.419	50.92
1015.771	50.87
1016.123	50.86
1016.475	50.74
1016.827	50.75
1017.179	50.78
1017.531	50.8
1017.883	50.82
1018.234	50.69
1018.586	50.68
1018.938	50.63
1019.289	50.52
1019.64	50.5
1019.992	50.57
1020.343	50.51
1020.694	50.57
1021.045	50.45
1021.396	50.53
1021.747	50.61
1022.098	50.77
1022.449	50.59
1022.8	50.46
1023.151	50.59
1023.501	50.62
1023.852	50.52
1024.202	50.57
1024.553	50.32
1024.903	50.37
1025.253	50.39
1025.604	50.29
1025.954	49.84
1026.304	49.88
1026.654	50.1
1027.004	50.21
1027.354	50.34
1027.703	50.05
1028.053	50
1028.403	50.09
1028.753	49.72
1029.102	49.51
1029.452	49.47
1029.801	49.81
1030.15	49.77
1030.499	49.53
897.758	697.63
901.051	709.69
904.343	706.06
907.636	718.15
910.928	700.28
914.22	700
917.511	690.62
920.803	659.1
924.094	656.98
927.384	641.45
930.675	617.15
933.965	616.9
937.255	575.7
940.544	555.08
943.834	531.29
947.123	525.39
950.411	497.92
953.7	489.07
956.988	464
960.276	448.44
963.563	441.39
966.851	427.91
970.138	424.2
973.424	414.36
976.711	415.25
979.997	396.36
983.283	394.27
986.568	385.38
989.853	375.41
993.138	370.06
996.423	355.01
999.708	346.69
1002.992	341.25
1006.275	326.84
1009.559	323.45
1012.842	312.68
1016.125	305.43
1019.408	299.93
1022.69	296.69
1025.972	290.66
1029.254	284.31
1032.536	280.01
1035.817	276.23
1039.098	273.15
1042.379	269.49
1045.659	267.59
1048.939	261.32
1052.219	256.24
1055.498	253.58
1058.778	247.62
1062.057	242.83
1065.335	240.53
1068.614	238.08
1071.892	234.2
1075.17	228.07
1078.447	223.14
1081.724	220.75
1085.001	220.22
1088.278	215.95
1091.554	211.53
1094.83	212.21
1098.106	209.76
1101.382	208.67
1104.657	207.05
1107.932	203.43
1111.206	204.37
1114.481	200.44
1117.755	198.89
1121.029	196.73
1124.302	196.08
1127.575	194.05
1130.848	191.76
1134.121	190.94
1137.393	189.1
1140.665	185.56
1143.937	184.97
1147.208	184.98
1150.48	184
1153.75	181.6
1157.021	180.24
1160.291	179.74
1163.561	177.62
1166.831	177.42
1170.101	175.64
1173.37	176.34
1176.639	176.91
1179.907	175.19
1183.176	172.61
1186.444	172.42
1189.711	172.22
1192.979	171.22
1196.246	170.97
1199.513	171.37
1202.78	170.65
1206.046	170.48
1209.312	168.52
1212.578	168.81
1215.843	170.4
1219.108	169.43
1222.373	172.45
1225.638	174.42
1228.902	175.72
1232.166	176.53
1235.43	177.05
1238.693	179.14
1241.956	180.08
1245.219	182.16
1248.482	182.14
1251.744	182.23
1255.006	183.02
1258.268	179.35
1261.529	177.71
1264.79	177.24
1268.051	175.11
1271.312	174.17
1274.572	172.34
1277.832	171.79
1281.092	168.64
1284.351	167.72
1287.61	167.64
1290.869	165.57
1294.128	164.78
1297.386	164.99
1300.644	162.88
1303.902	163.48
1307.159	163.6
1310.416	162.95
1313.673	161.68
1316.93	162.89
1320.186	162.51
1323.442	162.6
1326.697	164.29
1329.953	164.4
1333.208	163.54
1336.463	166.52
1339.717	166.58
1342.972	167.17
1346.226	168.83
1349.479	169.56
1352.733	171.08
1355.986	172.38
1359.238	171.87
1362.491	172.13
1365.743	172.74
1368.995	173.09
1372.247	172.54
1375.498	171.77
1378.749	172.26
1382	170.15
1385.251	168.94
1388.501	167.17
1391.751	165.39
1395	164.9
1398.25	163.28
1401.499	161.68
1404.748	160.48
1407.996	157.48
1411.244	157
1414.492	154.8
1417.74	152.12
1420.987	150.89
1424.234	149.62
1427.481	148.83
1430.728	148.05
1433.974	147.19
1437.22	146.09
1440.465	145.66
1443.711	144.02
1446.956	142.36
1450.201	141.79
1453.445	140.79
1456.689	140.43
1459.933	137.33
1463.177	136.17
1466.42	133.94
1469.663	131.84
1472.906	130.7
1476.148	127.82
1479.391	127.37
1482.633	126.93
1485.874	124.27
1489.115	123.38
1492.356	122.49
1495.597	123.27
1498.838	121.5
1502.078	121.3
1505.318	121.38
1508.557	120.88
1511.797	120.55
1515.036	119.59
1518.274	119.93
1521.513	119.38
1524.751	119.3
1527.989	119.15
1531.227	119
1534.464	119
1537.701	118.91
1540.938	118.56
1544.174	118.37
1547.41	118.99
1550.646	118.3
1553.882	117.81
1557.117	117.78
1560.352	117.11
1563.587	116.98
1566.821	116.38
1570.055	115.95
1573.289	115.44
1576.523	115.67
1579.756	114.78
1582.989	114.28
1586.222	113.92
1589.454	114.08
1592.686	115.11
1595.918	114.64
1599.15	114.47
1602.381	115.23
1605.612	115.21
1608.843	115.05
1612.073	114.55
1615.303	115.92
1618.533	116.03
1621.762	116.79
1624.992	116.66
1628.221	115.7
1631.449	115.87
1634.678	116.26
1637.906	116.49
1641.134	116.11
1644.361	116.39
1647.588	116.91
1650.815	116.32
1654.042	116.22
1657.269	116.67
1660.495	116.72
1663.72	116.86
1666.946	117.28
1670.171	117.12
1673.396	116.94
1676.621	117.25
1679.845	117.63
1683.069	118.07
1686.293	118.38
1689.517	118.77
1692.74	118.46
1695.963	118.65
1699.185	118.96
1702.408	119.41
1705.63	119.92
1708.852	119.88
1712.073	120.25
1715.294	120.13
1718.515	120.92
1721.736	120.89
1724.956	121.14
1728.176	121.31
1731.396	121.86
1734.616	121.66
1737.835	121.84
1741.054	120.64
1744.272	121.08
1747.491	121.73
1750.709	121.71
1753.927	120.6
1757.144	120.42
1760.361	120.41
1763.578	120.76
1766.795	120.24
1770.011	121.24
1773.227	121.2
1776.443	122.14
1779.658	121.68
1782.874	121.59
1786.089	121.89
1789.303	122.48
1792.518	123.25
1795.732	123.27
1798.945	124.08
1802.159	124.61
1805.372	124.42
1808.585	125.76
1811.797	126.34
1815.01	127.42
1818.222	128.39
1821.434	129.73
1824.645	129.51
1827.856	131.99
1831.067	132.37
1834.278	132.35
1837.488	133.14
1840.698	133.55
1843.908	132.95
1847.117	133.13
1850.326	133.39
1853.535	131.91
1856.744	132.94
1859.952	132.62
1863.16	131.11
1866.368	130.25
1869.575	130.16
1872.782	127.56
1875.989	126.22
1879.196	125.32
1882.402	124.16
1885.608	123.49
1888.814	123.58
1892.019	121.95
1895.224	121.37
1898.429	120.94
1901.634	120.81
1904.838	121.15
1908.042	122.24
1911.246	122.37
1914.449	123.06
1917.652	122.8
1920.855	123.17
1924.058	123.44
1927.26	123.04
1930.462	123
1933.664	123.52
1936.865	123.05
1940.066	122.24
1943.267	121.62
1946.467	122.07
1949.668	122.38
1952.868	123.92
1956.067	124.08
1959.267	124.22
1962.466	124.66
1965.665	124.94
1968.863	125.03
1972.061	127.11
1975.259	127.56
1978.457	129.04
1981.654	130.21
1984.852	130.82
1988.048	130.49
1991.245	131.06
1994.441	131.8
1997.637	133.43
2000.833	135.8
2004.028	137.73
2007.223	138.74
2010.418	140.72
2013.613	142.83
2016.807	144.65
2020.001	145.64
2023.194	148.74
2026.388	152.62
2029.581	155.72
2032.774	156.46
2035.966	159.18
2039.158	159.96
2042.35	161.99
2045.542	163.42
2048.733	166.18
2051.924	168.4
2055.115	171.4
2058.306	171.12
2061.496	172
2064.686	172.58
2067.875	175.75
2071.065	176.67
2074.254	175.96
2077.442	179.22
2080.631	179.33
2083.819	180.91
2087.007	180.98
2090.195	183.05
2093.382	185.19
2096.569	185.18
2099.756	188.71
2102.942	189.07
2106.128	190.41
2109.314	194.9
2112.5	193.5
2115.685	198.67
2118.87	199.02
2122.055	203.71
2125.239	204.59
2128.424	207.06
2131.608	208.94
2134.791	211.08
2137.974	212.24
2141.157	213.46
2144.34	213.92
2147.523	217.26
2150.705	215.48
2153.887	218.5
2157.068	218.32
2160.25	217.3
2163.431	218.26
2166.611	219.94
2169.792	224.79
2172.972	226.49
2176.152	228.51
2179.331	231.09
2182.511	234.12
2185.69	235.9
2188.868	239.73
2192.047	239.98
2195.225	246.7
2198.403	251.73
2201.58	255.35
2204.758	259.74
2207.935	264.76
2211.111	270.01
2214.288	273.21
2217.464	274.1
2220.64	281.25
2223.815	283.66
2226.991	294.35
2230.166	294.13
2233.34	298.03
2236.515	304.08
2239.689	303.81
2242.863	307.57
2246.036	313.73
2249.209	313.05
2252.382	319.37
2255.555	325.27
2258.727	327.53
2261.9	331.98
2265.071	335.88
2268.243	341.63
2271.414	345.6
2274.585	352.56
2277.756	355.16
2280.926	358.15
2284.096	365.48
2287.266	371.69
2290.436	376.42
2293.605	384.02
2296.774	391.06
2299.942	403.78
2303.111	407.96
2306.279	416.01
2309.447	421.37
2312.614	432.41
2315.781	443.76
2318.948	463.38
2322.115	457.83
2325.281	483.97
2328.447	474.12
2331.613	493.44
2334.779	487.51
2337.944	509.06
2341.109	513.74
2344.274	530.2
2347.438	545.19
2350.602	546.08
2353.766	567.05
2356.929	575.73
2360.092	568.24
2363.255	607.86
2366.418	609.84
2369.58	621.07
2372.742	656
2375.904	673.99
2379.066	668.3
2382.227	658.03
2385.388	713.36
2388.548	709.49
2391.709	715.66
2394.869	799.92
2398.029	767.63
2401.188	786.85
2404.347	782.3
2407.506	770.18
2410.665	787.96
2413.823	837.07
2416.981	889.35
2420.139	861
2423.296	854.54
2426.453	891.55
2429.61	851.95
2432.767	890.14
2435.923	882.72
2439.079	973.37
2442.235	987.37
2445.391	981.67
2448.546	970.75
2451.701	943.37
2454.855	942.92
2458.009	992.19
2461.163	1041.36
2464.317	1083.54
2467.471	1110.52
2470.624	1110.78
2473.777	1080.11
2476.929	1049.8
2480.082	1019.7
2483.234	1009.87
2486.385	1062.77
2489.537	1065.15
2492.688	1106.17
2495.839	1071.01
2498.989	1050.59
2502.14	1057.95
2505.29	1064.76
2508.439	1077.19
2511.589	1077.29
2514.738	1175.41
2517.887	1149.71
2521.035	1213.09
2524.183	1220.64
2527.331	1229.28
2530.479	1222.73
2533.627	1229.08
