Data from N_1_HIR_WI_4n_Splice17_12-15-28-397.txt Node
Date: Sat Mar 07 12:15:28 EST 2020
User: sa697716
Spectrometer: NQ5500242
Trigger mode: 0
Integration Time (sec): 1.450000E-1
Scans to average: 20
Nonlinearity correction enabled: false
Boxcar width: 5
Storing dark spectrum: false
XAxis mode: Wavelengths
Number of Pixels in Spectrum: 512
>>>>>Begin Spectral Data<<<<<
187.83	44.79
188.298	58.69
188.766	57.43
189.233	47.22
189.701	54.94
190.169	73.42
190.636	78.69
191.104	130.04
191.571	182.03
192.039	194.53
192.506	867.53
192.974	-82.99
193.441	-17.09
193.908	54.59
194.375	35.59
194.842	53.49
195.31	51.25
195.777	9.89
196.244	39.39
196.711	47.01
197.177	50.31
197.644	50.62
198.111	49.93
198.578	50.67
199.045	50.85
199.511	50.69
199.978	51.02
200.445	51.73
200.911	51.89
201.378	52.37
201.844	52.48
202.31	52.24
202.777	52.59
203.243	52.78
203.709	52.36
204.176	52.34
204.642	52.35
205.108	51.88
205.574	51.52
206.04	51.22
206.506	50.77
206.972	50.98
207.438	50.63
207.903	50.35
208.369	49.61
208.835	49.05
209.301	47.96
209.766	47.06
210.232	46.33
210.697	45.23
211.163	44.61
211.628	43.85
212.094	42.73
212.559	42.17
213.024	41.29
213.49	40.8
213.955	40.01
214.42	39.73
214.885	39.07
215.35	38.08
215.815	36.89
216.28	35.03
216.745	33.13
217.21	31.35
217.675	29.48
218.14	27.96
218.604	26.57
219.069	25.49
219.534	24.46
219.998	23.71
220.463	23.1
220.927	22.5
221.392	22.05
221.856	21.66
222.32	21.32
222.785	21.01
223.249	20.69
223.713	20.4
224.177	20.16
224.642	19.89
225.106	19.6
225.57	19.3
226.034	19.08
226.497	18.83
226.961	18.59
227.425	18.33
227.889	18.13
228.353	17.93
228.816	17.7
229.28	17.47
229.744	17.29
230.207	17.07
230.671	16.88
231.134	16.68
231.597	16.52
232.061	16.34
232.524	16.17
232.987	15.98
233.45	15.82
233.914	15.65
234.377	15.48
234.84	15.31
235.303	15.17
235.766	15.03
236.229	14.88
236.691	14.74
237.154	14.59
237.617	14.45
238.08	14.33
238.542	14.19
239.005	14.08
239.468	13.96
239.93	13.83
240.393	13.72
240.855	13.57
241.317	13.44
241.78	13.31
242.242	13.18
242.704	13.09
243.166	12.96
243.629	12.86
244.091	12.74
244.553	12.63
245.015	12.52
245.477	12.42
245.939	12.33
246.4	12.25
246.862	12.15
247.324	12.06
247.786	11.97
248.247	11.88
248.709	11.77
249.17	11.69
249.632	11.62
250.093	11.55
250.555	11.46
251.016	11.39
251.477	11.31
251.939	11.25
252.4	11.18
252.861	11.12
253.322	11.06
253.783	11.01
254.244	10.96
254.705	10.9
255.166	10.85
255.627	10.79
256.088	10.74
256.549	10.7
257.009	10.65
257.47	10.6
257.931	10.54
258.391	10.48
258.852	10.43
259.312	10.38
259.773	10.32
260.233	10.28
260.694	10.23
261.154	10.17
261.614	10.13
262.074	10.09
262.534	10.05
262.994	10.02
263.455	9.98
263.915	9.95
264.374	9.93
264.834	9.91
265.294	9.88
265.754	9.86
266.214	9.84
266.673	9.81
267.133	9.79
267.593	9.77
268.052	9.76
268.512	9.75
268.971	9.73
269.431	9.71
269.89	9.69
270.349	9.68
270.809	9.65
271.268	9.63
271.727	9.62
272.186	9.6
272.645	9.58
273.104	9.56
273.563	9.53
274.022	9.52
274.481	9.51
274.94	9.49
275.399	9.46
275.857	9.45
276.316	9.44
276.775	9.42
277.233	9.41
277.692	9.38
278.15	9.36
278.609	9.35
279.067	9.33
279.525	9.31
279.984	9.28
280.442	9.27
280.9	9.25
281.358	9.23
281.816	9.21
282.274	9.19
282.732	9.18
283.19	9.16
283.648	9.14
284.106	9.12
284.564	9.11
285.021	9.11
285.479	9.09
285.937	9.08
286.394	9.08
286.852	9.07
287.309	9.05
287.767	9.03
288.224	9.01
288.682	8.98
289.139	8.96
289.596	8.94
290.053	8.9
290.511	8.87
290.968	8.86
291.425	8.82
291.882	8.8
292.339	8.79
292.796	8.78
293.252	8.76
293.709	8.76
294.166	8.75
294.623	8.74
295.079	8.73
295.536	8.73
295.992	8.72
296.449	8.72
296.905	8.7
297.362	8.69
297.818	8.68
298.274	8.68
298.731	8.66
299.187	8.66
299.643	8.64
300.099	8.64
300.555	8.63
301.011	8.62
301.467	8.6
301.923	8.6
302.379	8.59
302.835	8.59
303.291	8.58
303.746	8.57
304.202	8.57
304.658	8.56
305.113	8.55
305.569	8.55
306.024	8.54
306.479	8.54
306.935	8.53
307.39	8.53
307.845	8.52
308.301	8.53
308.756	8.52
309.211	8.52
309.666	8.52
310.121	8.52
310.576	8.52
311.031	8.51
311.486	8.51
311.94	8.51
312.395	8.52
312.85	8.53
313.305	8.52
313.759	8.51
314.214	8.51
314.668	8.5
315.123	8.5
315.577	8.5
316.032	8.49
316.486	8.48
316.94	8.46
317.394	8.44
317.849	8.42
318.303	8.41
318.757	8.39
319.211	8.38
319.665	8.36
320.119	8.34
320.572	8.31
321.026	8.3
321.48	8.28
321.934	8.27
322.387	8.26
322.841	8.24
323.295	8.23
323.748	8.22
324.202	8.21
324.655	8.2
325.108	8.2
325.562	8.2
326.015	8.19
326.468	8.2
326.921	8.19
327.374	8.18
327.827	8.18
328.28	8.17
328.733	8.16
329.186	8.16
329.639	8.16
330.092	8.15
330.545	8.15
330.997	8.14
331.45	8.13
331.903	8.13
332.355	8.13
332.808	8.13
333.26	8.12
333.713	8.12
334.165	8.12
334.617	8.12
335.069	8.11
335.522	8.12
335.974	8.12
336.426	8.11
336.878	8.1
337.33	8.1
337.782	8.09
338.234	8.1
338.686	8.09
339.137	8.08
339.589	8.07
340.041	8.05
340.493	8.03
340.944	8.01
341.396	8
341.847	7.98
342.299	7.95
342.75	7.92
343.201	7.9
343.653	7.87
344.104	7.83
344.555	7.81
345.006	7.79
345.457	7.77
345.908	7.75
346.359	7.75
346.81	7.73
347.261	7.72
347.712	7.72
348.163	7.7
348.613	7.71
349.064	7.71
349.515	7.7
349.965	7.7
350.416	7.69
350.866	7.68
351.317	7.66
351.767	7.66
352.217	7.66
352.668	7.65
353.118	7.66
353.568	7.64
354.018	7.64
354.468	7.64
354.918	7.64
355.368	7.64
355.818	7.64
356.268	7.64
356.718	7.64
357.168	7.62
357.617	7.6
358.067	7.6
358.517	7.6
358.966	7.6
359.416	7.58
359.865	7.58
360.315	7.57
360.764	7.57
361.213	7.55
361.663	7.53
362.112	7.54
362.561	7.54
363.01	7.53
363.459	7.51
363.908	7.5
364.357	7.5
364.806	7.49
365.255	7.48
365.703	7.48
366.152	7.48
366.601	7.48
367.05	7.47
367.498	7.46
367.947	7.46
368.395	7.47
368.844	7.46
369.292	7.46
369.74	7.45
370.189	7.45
370.637	7.45
371.085	7.44
371.533	7.44
371.981	7.45
372.429	7.45
372.877	7.45
373.325	7.45
373.773	7.45
374.221	7.44
374.669	7.44
375.116	7.45
375.564	7.45
376.012	7.45
376.459	7.45
376.907	7.46
377.354	7.47
377.801	7.49
378.249	7.5
378.696	7.5
379.143	7.52
379.591	7.53
380.038	7.54
380.485	7.55
380.932	7.57
381.379	7.58
381.826	7.59
382.273	7.59
382.72	7.6
383.166	7.61
383.613	7.61
384.06	7.61
384.506	7.62
384.953	7.63
385.4	7.65
385.846	7.66
386.292	7.68
386.739	7.69
387.185	7.69
387.631	7.71
388.078	7.73
388.524	7.75
388.97	7.78
389.416	7.81
389.862	7.84
390.308	7.86
390.754	7.88
391.2	7.9
391.645	7.93
392.091	7.96
392.537	7.99
392.983	8.02
393.428	8.04
393.874	8.05
394.319	8.07
394.765	8.08
395.21	8.1
395.655	8.12
396.101	8.14
396.546	8.14
396.991	8.17
397.436	8.18
397.881	8.2
398.326	8.23
398.771	8.24
399.216	8.27
399.661	8.29
400.106	8.3
400.551	8.3
400.995	8.29
401.44	8.32
401.885	8.34
402.329	8.36
402.774	8.36
403.218	8.37
403.663	8.39
404.107	8.4
404.551	8.42
404.995	8.43
405.44	8.44
405.884	8.46
406.328	8.47
406.772	8.48
407.216	8.48
407.66	8.5
408.104	8.49
408.547	8.5
408.991	8.52
409.435	8.52
409.879	8.53
410.322	8.56
410.766	8.57
411.209	8.6
411.653	8.61
412.096	8.62
412.54	8.63
412.983	8.65
413.426	8.68
413.869	8.69
414.312	8.72
414.756	8.73
415.199	8.74
415.642	8.76
416.085	8.75
416.527	8.74
416.97	8.73
417.413	8.72
417.856	8.71
418.298	8.69
418.741	8.69
419.184	8.67
419.626	8.67
420.069	8.66
420.511	8.65
420.953	8.65
421.396	8.67
421.838	8.68
422.28	8.69
422.722	8.7
423.164	8.71
423.606	8.72
424.048	8.73
424.49	8.73
424.932	8.73
425.374	8.72
425.816	8.71
426.258	8.69
426.699	8.69
427.141	8.69
427.582	8.7
428.024	8.71
428.465	8.72
428.907	8.72
429.348	8.71
429.789	8.72
430.231	8.76
430.672	8.79
431.113	8.83
431.554	8.85
431.995	8.88
432.436	8.89
432.877	8.9
433.318	8.92
433.759	8.97
434.2	9
434.64	9.03
435.081	9.04
435.522	9.06
435.962	9.07
436.403	9.1
436.843	9.11
437.284	9.11
437.724	9.12
438.164	9.12
438.604	9.12
439.045	9.12
439.485	9.12
439.925	9.11
440.365	9.11
440.805	9.11
441.245	9.11
441.685	9.14
442.125	9.17
442.564	9.19
443.004	9.19
443.444	9.19
443.883	9.21
444.323	9.22
444.762	9.24
445.202	9.25
445.641	9.27
446.081	9.29
446.52	9.29
446.959	9.3
447.398	9.3
447.837	9.3
448.276	9.31
448.716	9.32
449.154	9.34
449.593	9.35
450.032	9.35
450.471	9.33
450.91	9.31
451.349	9.29
451.787	9.27
452.226	9.26
452.664	9.25
453.103	9.23
453.541	9.21
453.98	9.21
454.418	9.18
454.856	9.16
455.295	9.15
455.733	9.12
456.171	9.12
456.609	9.11
457.047	9.09
457.485	9.08
457.923	9.09
458.361	9.07
458.798	9.06
459.236	9.05
459.674	9.06
460.111	9.05
460.549	9.07
460.987	9.07
461.424	9.08
461.862	9.08
462.299	9.08
462.736	9.06
463.173	9.08
463.611	9.09
464.048	9.09
464.485	9.1
464.922	9.12
465.359	9.11
465.796	9.11
466.233	9.11
466.67	9.13
467.106	9.15
467.543	9.15
467.98	9.15
468.416	9.14
468.853	9.15
469.29	9.13
469.726	9.11
470.162	9.11
470.599	9.1
471.035	9.1
471.471	9.07
471.907	9.04
472.344	9.04
472.78	9.02
473.216	8.99
473.652	8.97
474.088	8.95
474.523	8.94
474.959	8.92
475.395	8.9
475.831	8.87
476.266	8.86
476.702	8.85
477.138	8.84
477.573	8.83
478.008	8.81
478.444	8.8
478.879	8.78
479.314	8.77
479.75	8.75
480.185	8.73
480.62	8.72
481.055	8.7
481.49	8.68
481.925	8.67
482.36	8.65
482.795	8.64
483.229	8.62
483.664	8.62
484.099	8.6
484.534	8.59
484.968	8.6
485.403	8.59
485.837	8.59
486.271	8.59
486.706	8.58
487.14	8.58
487.574	8.58
488.009	8.58
488.443	8.57
488.877	8.57
489.311	8.57
489.745	8.57
490.179	8.57
490.613	8.58
491.046	8.59
491.48	8.59
491.914	8.6
492.348	8.6
492.781	8.62
493.215	8.63
493.648	8.64
494.082	8.66
494.515	8.67
494.948	8.68
495.382	8.69
495.815	8.71
496.248	8.74
496.681	8.76
497.114	8.78
497.547	8.8
497.98	8.83
498.413	8.86
498.846	8.88
499.279	8.91
499.711	8.93
500.144	8.97
500.577	9.01
501.009	9.04
501.442	9.09
501.874	9.13
502.306	9.19
502.739	9.24
503.171	9.3
503.603	9.36
504.036	9.43
504.468	9.5
504.9	9.56
505.332	9.63
505.764	9.71
506.196	9.79
506.627	9.88
507.059	9.96
507.491	10.06
507.923	10.15
508.354	10.28
508.786	10.38
509.217	10.49
509.649	10.61
510.08	10.74
510.512	10.88
510.943	11.02
511.374	11.16
511.805	11.31
512.237	11.45
512.668	11.61
513.099	11.77
513.53	11.94
513.961	12.13
514.391	12.33
514.822	12.52
515.253	12.72
515.684	12.93
516.114	13.15
516.545	13.38
516.975	13.61
517.406	13.85
517.836	14.09
518.267	14.33
518.697	14.56
519.127	14.8
519.558	15.04
519.988	15.29
520.418	15.54
520.848	15.77
521.278	16.01
521.708	16.41
522.138	16.66
522.567	16.9
522.997	17.13
523.427	17.39
523.857	17.62
524.286	17.85
524.716	18.08
525.145	18.29
525.575	18.5
526.004	18.72
526.433	18.78
526.863	18.96
527.292	19.16
527.721	19.34
528.15	19.51
528.579	19.69
529.008	19.87
529.437	20.02
529.866	20.18
530.295	20.35
530.724	20.5
531.152	20.62
531.581	20.76
532.01	20.87
532.438	21.01
532.867	21.13
533.295	21.24
533.723	21.33
534.152	21.44
534.58	21.52
535.008	21.58
535.436	21.65
535.865	21.72
536.293	21.78
536.721	21.85
537.149	21.9
537.576	21.95
538.004	22
538.432	22.05
538.86	22.1
539.287	22.14
539.715	22.2
540.143	22.25
540.57	22.28
540.998	22.32
541.425	22.36
541.852	22.4
542.28	22.44
542.707	22.47
543.134	22.52
543.561	22.56
543.988	22.59
544.415	22.63
544.842	22.66
545.269	22.72
545.696	22.75
546.123	22.78
546.549	22.8
546.976	22.84
547.403	22.87
547.829	22.89
548.256	22.91
548.682	22.93
549.108	22.93
549.535	22.95
549.961	22.95
550.387	22.94
550.813	22.95
551.24	22.96
551.666	22.94
552.092	22.92
552.518	22.89
552.943	22.86
553.369	22.83
553.795	22.8
554.221	22.75
554.646	22.68
555.072	22.63
555.498	22.56
555.923	22.49
556.349	22.42
556.774	22.34
557.199	22.27
557.625	22.19
558.05	22.11
558.475	22.02
558.9	21.93
559.325	21.85
559.75	21.75
560.175	21.64
560.6	21.52
561.025	21.41
561.449	21.29
561.874	21.15
562.299	21
562.723	20.86
563.148	20.69
563.572	20.52
563.997	20.35
564.421	20.19
564.846	20.03
565.27	19.86
565.694	19.69
566.118	19.52
566.542	19.36
566.966	19.19
567.39	19.03
567.814	18.88
568.238	18.72
568.662	18.58
569.086	18.43
569.509	18.29
569.933	18.15
570.357	18
570.78	17.83
571.204	17.69
571.627	17.55
572.05	17.42
572.474	17.29
572.897	17.18
573.32	17.04
573.743	16.92
574.166	16.8
574.589	16.67
575.012	16.56
575.435	16.46
575.858	16.35
576.281	16.25
576.704	16.13
577.126	16.02
577.549	15.91
577.972	15.81
578.394	15.72
578.817	15.62
579.239	15.54
579.661	15.45
580.084	15.37
580.506	15.29
580.928	15.21
581.35	15.15
581.772	15.07
582.194	15
582.616	14.93
583.038	14.86
583.46	14.79
583.882	14.71
584.303	14.63
584.725	14.57
585.147	14.51
585.568	14.45
585.99	14.37
586.411	14.32
586.833	14.26
587.254	14.2
587.675	14.15
588.096	14.09
588.518	14.04
588.939	14.01
589.36	13.97
589.781	13.92
590.202	13.87
590.623	13.84
591.043	13.79
591.464	13.75
591.885	13.72
592.305	13.68
592.726	13.66
593.147	13.63
593.567	13.59
593.987	13.57
594.408	13.54
594.828	13.51
595.248	13.48
595.669	13.45
596.089	13.42
596.509	13.39
596.929	13.35
597.349	13.31
597.769	13.29
598.189	13.26
598.608	13.23
599.028	13.2
599.448	13.17
599.867	13.13
600.287	13.1
600.706	13.07
601.126	13.02
601.545	12.99
601.965	12.95
602.384	12.9
602.803	12.85
603.222	12.8
603.641	12.75
604.061	12.71
604.48	12.66
604.898	12.61
605.317	12.55
605.736	12.5
606.155	12.46
606.574	12.42
606.992	12.35
607.411	12.29
607.829	12.22
608.248	12.17
608.666	12.12
609.085	12.07
609.503	12.02
609.921	11.97
610.339	11.92
610.758	11.86
611.176	11.79
611.594	11.75
612.012	11.7
612.43	11.66
612.847	11.6
613.265	11.54
613.683	11.49
614.101	11.44
614.518	11.38
614.936	11.33
615.353	11.27
615.771	11.23
616.188	11.17
616.606	11.13
617.023	11.09
617.44	11.05
617.857	11.01
618.274	10.97
618.691	10.92
619.108	10.89
619.525	10.85
619.942	10.83
620.359	10.8
620.776	10.78
621.192	10.75
621.609	10.72
622.026	10.7
622.442	10.68
622.859	10.66
623.275	10.66
623.691	10.65
624.108	10.63
624.524	10.62
624.94	10.6
625.356	10.58
625.772	10.59
626.188	10.58
626.604	10.57
627.02	10.57
627.436	10.57
627.852	10.56
628.268	10.55
628.683	10.55
629.099	10.55
629.514	10.55
629.93	10.55
630.345	10.53
630.761	10.5
631.176	10.49
631.591	10.46
632.007	10.43
632.422	10.4
632.837	10.37
633.252	10.33
633.667	10.29
634.082	10.23
634.497	10.19
634.911	10.14
635.326	10.1
635.741	10.05
636.155	10
636.57	9.95
636.984	9.9
637.399	9.84
637.813	9.78
638.228	9.72
638.642	9.67
639.056	9.6
639.47	9.55
639.884	9.51
640.298	9.44
640.712	9.38
641.126	9.31
641.54	9.24
641.954	9.18
642.368	9.13
642.781	9.08
643.195	9.02
643.609	8.98
644.022	8.92
644.436	8.87
644.849	8.82
645.262	8.78
645.676	8.75
646.089	8.72
646.502	8.69
646.915	8.67
647.328	8.64
647.741	8.6
648.154	8.58
648.567	8.56
648.98	8.53
649.393	8.52
649.805	8.51
650.218	8.5
650.631	8.48
651.043	8.46
651.456	8.43
651.868	8.41
652.28	8.4
652.693	8.38
653.105	8.37
653.517	8.35
653.929	8.33
654.341	8.31
654.753	8.28
655.165	8.26
655.577	8.24
655.989	8.22
656.401	8.2
656.813	8.19
657.224	8.15
657.636	8.12
658.047	8.1
658.459	8.07
658.87	8.04
659.282	8.01
659.693	7.99
660.104	7.97
660.515	7.93
660.926	7.91
661.338	7.88
661.749	7.87
662.159	7.85
662.57	7.83
662.981	7.82
663.392	7.8
663.803	7.8
664.213	7.78
664.624	7.76
665.035	7.76
665.445	7.76
665.855	7.75
666.266	7.76
666.676	7.77
667.086	7.76
667.497	7.76
667.907	7.76
668.317	7.76
668.727	7.78
669.137	7.79
669.547	7.8
669.956	7.81
670.366	7.82
670.776	7.83
671.186	7.84
671.595	7.85
672.005	7.86
672.414	7.89
672.824	7.91
673.233	7.93
673.642	7.95
674.052	7.96
674.461	7.97
674.87	8
675.279	8.01
675.688	8.03
676.097	8.05
676.506	8.08
676.915	8.1
677.323	8.11
677.732	8.13
678.141	8.14
678.549	8.17
678.958	8.19
679.366	8.21
679.775	8.24
680.183	8.26
680.592	8.31
681	8.34
681.408	8.37
681.816	8.41
682.224	8.44
682.632	8.48
683.04	8.51
683.448	8.55
683.856	8.59
684.264	8.65
684.671	8.71
685.079	8.76
685.487	8.82
685.894	8.91
686.302	8.99
686.709	9.1
687.116	9.23
687.524	9.37
687.931	9.54
688.338	9.7
688.745	9.88
689.152	10.08
689.559	10.32
689.966	10.58
690.373	10.86
690.78	11.16
691.187	11.49
691.593	11.83
692	12.2
692.407	12.59
692.813	13.02
693.22	13.45
693.626	13.93
694.032	14.41
694.439	14.9
694.845	15.42
695.251	15.96
695.657	16.5
696.063	17.06
696.469	17.64
696.875	18.24
697.281	18.84
697.687	19.46
698.093	20.08
698.498	20.7
698.904	21.36
699.31	22.01
699.715	22.66
700.12	23.33
700.526	24.01
700.931	24.68
701.337	25.35
701.742	26
702.147	26.67
702.552	27.34
702.957	27.99
703.362	28.65
703.767	29.28
704.172	29.94
704.577	30.58
704.981	31.22
705.386	31.87
705.791	32.5
706.195	33.16
706.6	33.81
707.004	34.43
707.408	35.08
707.813	35.72
708.217	36.37
708.621	37.01
709.025	37.63
709.43	38.22
709.834	38.83
710.237	39.43
710.641	40.02
711.045	40.61
711.449	41.2
711.853	41.79
712.256	42.36
712.66	42.93
713.064	43.48
713.467	44.05
713.87	44.66
714.274	45.2
714.677	45.78
715.08	46.34
715.484	46.89
715.887	47.48
716.29	48.01
716.693	48.55
717.096	49.08
717.499	49.59
717.901	50.12
718.304	50.62
718.707	51.16
719.109	51.64
719.512	52.1
719.915	52.6
720.317	53.03
720.719	53.45
721.122	53.89
721.524	54.31
721.926	54.76
722.328	55.17
722.731	55.57
723.133	55.96
723.535	56.33
723.937	56.76
724.338	57.11
724.74	57.48
725.142	57.91
725.544	58.22
725.945	58.59
726.347	58.89
726.748	59.2
727.15	59.48
727.551	59.77
727.952	60.06
728.354	60.31
728.755	60.59
729.156	60.85
729.557	61.05
729.958	61.31
730.359	61.56
730.76	61.81
731.161	62.06
731.562	62.33
731.962	62.52
732.363	62.74
732.763	62.94
733.164	63.13
733.564	63.33
733.965	63.51
734.365	63.73
734.766	63.89
735.166	64.06
735.566	64.22
735.966	64.36
736.366	64.54
736.766	64.68
737.166	64.84
737.566	64.97
737.966	65.08
738.365	65.21
738.765	65.34
739.165	65.44
739.564	65.57
739.964	65.67
740.363	65.76
740.763	65.86
741.162	66
741.561	66.1
741.96	66.18
742.36	66.31
742.759	66.41
743.158	66.49
743.557	66.55
743.955	66.63
744.354	66.75
744.753	66.87
745.152	66.97
745.55	67.01
745.949	67.06
746.348	67.16
746.746	67.22
747.144	67.28
747.543	67.31
747.941	67.39
748.339	67.42
748.737	67.42
749.136	67.42
749.534	67.41
749.932	67.44
750.33	67.47
750.727	67.48
751.125	67.5
751.523	67.5
751.921	67.53
752.318	67.57
752.716	67.62
753.113	67.67
753.511	67.71
753.908	67.77
754.305	67.81
754.703	67.82
755.1	67.85
755.497	67.89
755.894	67.93
756.291	67.92
756.688	67.92
757.085	67.97
757.482	67.98
757.878	68.01
758.275	68.01
758.672	68.01
759.068	68.06
759.465	68.09
759.861	68.08
760.258	68.11
760.654	68.16
761.05	68.19
761.447	68.19
761.843	68.19
762.239	68.21
762.635	68.2
763.031	68.23
763.427	68.22
763.822	68.23
764.218	68.28
764.614	68.3
765.01	68.28
765.405	68.24
765.801	68.2
766.196	68.21
766.592	68.2
766.987	68.23
767.382	68.2
767.778	68.23
768.173	68.23
768.568	68.19
768.963	68.16
769.358	68.18
769.753	68.2
770.148	68.22
770.542	68.21
770.937	68.22
771.332	68.22
771.726	68.27
772.121	68.22
772.515	68.24
772.91	68.23
773.304	68.28
773.699	68.27
774.093	68.28
774.487	68.27
774.881	68.3
775.275	68.29
775.669	68.28
776.063	68.28
776.457	68.3
776.851	68.26
777.245	68.24
777.638	68.21
778.032	68.25
778.425	68.28
778.819	68.3
779.212	68.3
779.606	68.33
779.999	68.33
780.392	68.31
780.786	68.29
781.179	68.31
781.572	68.33
781.965	68.38
782.358	68.37
782.751	68.32
783.143	68.34
783.536	68.33
783.929	68.32
784.322	68.35
784.714	68.35
785.107	68.41
785.499	68.41
785.891	68.44
786.284	68.42
786.676	68.42
787.068	68.44
787.46	68.44
787.852	68.46
788.245	68.47
788.636	68.44
789.028	68.47
789.42	68.45
789.812	68.45
790.204	68.44
790.595	68.45
790.987	68.45
791.378	68.49
791.77	68.5
792.161	68.49
792.553	68.47
792.944	68.49
793.335	68.47
793.726	68.48
794.117	68.47
794.508	68.46
794.899	68.45
795.29	68.48
795.681	68.42
796.072	68.41
796.463	68.43
796.853	68.44
797.244	68.43
797.634	68.43
798.025	68.4
798.415	68.42
798.806	68.45
799.196	68.44
799.586	68.45
799.976	68.5
800.366	68.52
800.756	68.52
801.146	68.53
801.536	68.53
801.926	68.52
802.316	68.53
802.706	68.54
803.095	68.53
803.485	68.49
803.874	68.45
804.264	68.41
804.653	68.39
805.043	68.39
805.432	68.4
805.821	68.42
806.21	68.45
806.599	68.48
806.988	68.47
807.377	68.45
807.766	68.48
808.155	68.47
808.544	68.49
808.933	68.47
809.321	68.44
809.71	68.41
810.098	68.4
810.487	68.37
810.875	68.35
811.264	68.35
811.652	68.33
812.04	68.31
812.428	68.35
812.816	68.31
813.204	68.3
813.592	68.27
813.98	68.27
814.368	68.27
814.756	68.25
815.144	68.22
815.531	68.21
815.919	68.21
816.306	68.2
816.694	68.17
817.081	68.18
817.469	68.21
817.856	68.21
818.243	68.17
818.63	68.14
819.017	68.11
819.404	68.1
819.791	68.07
820.178	68.08
820.565	68.05
820.952	68.04
821.339	67.99
821.725	67.98
822.112	67.98
822.498	68
822.885	68.02
823.271	68.05
823.657	68.01
824.044	68.02
824.43	68.04
824.816	68.06
825.202	68.02
825.588	68.03
825.974	68.01
826.36	68.01
826.746	68
827.132	68
827.517	68
827.903	68.04
828.289	68.03
828.674	68.02
829.06	68.01
829.445	68.03
829.83	68.05
830.216	68.05
830.601	68.03
830.986	68.02
831.371	68
831.756	67.99
832.141	67.97
832.526	67.99
832.911	67.98
833.295	68
833.68	68.03
834.065	68.01
834.449	68.01
834.834	68.03
835.218	68.05
835.603	68.07
835.987	68.06
836.371	68.08
836.755	68.04
837.139	68.03
837.524	68.02
837.908	68.04
838.291	68.07
838.675	68.06
839.059	68.06
839.443	68.05
839.827	68.04
840.21	68.05
840.594	68.06
840.977	68.06
841.361	68.07
841.744	68.05
842.127	68.03
842.511	67.99
842.894	67.97
843.277	67.96
843.66	67.95
844.043	67.96
844.426	67.96
844.809	67.96
845.191	67.99
845.574	67.99
845.957	68.01
846.339	68
846.722	68.02
847.104	68.05
847.487	68.05
847.869	68.06
848.252	68.07
848.634	68.07
849.016	68.1
849.398	68.1
849.78	68.1
850.162	68.1
850.544	68.11
850.926	68.12
851.307	68.14
851.689	68.13
852.071	68.13
852.452	68.14
852.834	68.16
853.215	68.11
853.597	68.13
853.978	68.12
854.359	68.1
854.741	68.09
855.122	68.07
855.503	68.06
855.884	68.07
856.265	68.06
856.646	68.05
857.026	68.05
857.407	68.06
857.788	68.05
858.169	68.09
858.549	68.12
858.93	68.12
859.31	68.11
859.69	68.12
860.071	68.12
860.451	68.12
860.831	68.1
861.211	68.05
861.591	68.04
861.971	68.02
862.351	67.99
862.731	67.95
863.111	67.94
863.491	67.95
863.87	67.93
864.25	67.93
864.629	67.95
865.009	67.95
865.388	67.96
865.768	67.95
866.147	67.97
866.526	67.96
866.905	67.98
867.284	67.99
867.663	68.01
868.042	68.04
868.421	68.06
868.8	68.06
869.179	68.08
869.558	68.09
869.936	68.08
870.315	68.08
870.693	68.08
871.072	68.08
871.45	68.07
871.828	68.08
872.207	68.1
872.585	68.07
872.963	68.08
873.341	68.04
873.719	68.05
874.097	68.08
874.475	68.06
874.853	68.09
875.23	68.12
875.608	68.14
875.986	68.16
876.363	68.13
876.741	68.15
877.118	68.16
877.495	68.18
877.873	68.2
878.25	68.22
878.627	68.28
879.004	68.3
879.381	68.27
879.758	68.23
880.135	68.2
880.512	68.2
880.889	68.22
881.265	68.19
881.642	68.23
882.019	68.24
882.395	68.22
882.772	68.18
883.148	68.17
883.524	68.2
883.901	68.23
884.277	68.23
884.653	68.24
885.029	68.22
885.405	68.24
885.781	68.23
886.157	68.21
886.532	68.23
886.908	68.23
887.284	68.23
887.659	68.2
888.035	68.17
888.411	68.18
888.786	68.2
889.161	68.23
889.537	68.24
889.912	68.24
890.287	68.25
890.662	68.27
891.037	68.28
891.412	68.26
891.787	68.25
892.162	68.28
892.536	68.29
892.911	68.26
893.286	68.27
893.66	68.26
894.035	68.24
894.409	68.24
894.784	68.25
895.158	68.23
895.532	68.26
895.906	68.26
896.281	68.25
896.655	68.26
897.029	68.26
897.402	68.22
897.776	68.24
898.15	68.26
898.524	68.26
898.898	68.22
899.271	68.26
899.645	68.26
900.018	68.29
900.392	68.3
900.765	68.31
901.138	68.29
901.511	68.33
901.884	68.33
902.258	68.33
902.631	68.33
903.003	68.38
903.376	68.34
903.749	68.35
904.122	68.37
904.495	68.41
904.867	68.44
905.24	68.5
905.612	68.53
905.985	68.48
906.357	68.5
906.729	68.53
907.102	68.54
907.474	68.59
907.846	68.62
908.218	68.61
908.59	68.61
908.962	68.58
909.334	68.58
909.705	68.55
910.077	68.6
910.449	68.59
910.82	68.57
911.192	68.55
911.563	68.54
911.935	68.49
912.306	68.5
912.677	68.52
913.048	68.54
913.419	68.49
913.79	68.53
914.161	68.53
914.532	68.54
914.903	68.55
915.274	68.56
915.645	68.58
916.015	68.62
916.386	68.61
916.756	68.59
917.127	68.61
917.497	68.65
917.868	68.61
918.238	68.62
918.608	68.66
918.978	68.7
919.348	68.72
919.718	68.72
920.088	68.75
920.458	68.77
920.828	68.76
921.198	68.72
921.567	68.71
921.937	68.76
922.306	68.75
922.676	68.71
923.045	68.66
923.415	68.63
923.784	68.65
924.153	68.6
924.522	68.6
924.891	68.63
925.26	68.64
925.629	68.68
925.998	68.63
926.367	68.63
926.736	68.65
927.104	68.68
927.473	68.65
927.842	68.59
928.21	68.62
928.578	68.59
928.947	68.61
929.315	68.6
929.683	68.58
930.051	68.58
930.42	68.56
930.788	68.55
931.156	68.52
931.523	68.56
931.891	68.62
932.259	68.63
932.627	68.63
932.994	68.6
933.362	68.61
933.729	68.57
934.097	68.56
934.464	68.58
934.831	68.56
935.199	68.59
935.566	68.57
935.933	68.47
936.3	68.4
936.667	68.39
937.034	68.38
937.401	68.38
937.767	68.38
938.134	68.39
938.501	68.39
938.867	68.4
939.234	68.36
939.6	68.31
939.967	68.33
940.333	68.35
940.699	68.36
941.065	68.28
941.431	68.24
941.798	68.23
942.163	68.18
942.529	68.1
942.895	68.1
943.261	68.04
943.627	68
943.992	68
944.358	67.95
944.723	67.91
945.089	67.87
945.454	67.89
945.82	67.87
946.185	67.88
946.55	67.91
946.915	67.89
947.28	67.91
947.645	67.9
948.01	67.88
948.375	67.9
948.74	67.91
949.104	67.99
949.469	67.89
949.834	67.84
950.198	67.81
950.562	67.77
950.927	67.73
951.291	67.65
951.655	67.64
952.02	67.63
952.384	67.6
952.748	67.53
953.112	67.52
953.476	67.5
953.839	67.48
954.203	67.43
954.567	67.39
954.931	67.37
955.294	67.37
955.658	67.5
956.021	67.47
956.385	67.45
956.748	67.41
957.111	67.34
957.474	67.38
957.837	67.36
958.2	67.39
958.563	67.42
958.926	67.5
959.289	67.54
959.652	67.4
960.015	67.45
960.377	67.42
960.74	67.53
961.102	67.59
961.465	67.63
961.827	67.67
962.189	67.69
962.552	67.69
962.914	67.61
963.276	67.65
963.638	67.69
964	67.66
964.362	67.7
964.724	67.61
965.085	67.55
965.447	67.46
965.809	67.51
966.17	67.47
966.532	67.48
966.893	67.55
967.255	67.53
967.616	67.49
967.977	67.53
968.338	67.48
968.699	67.54
969.061	67.55
969.421	67.61
969.782	67.61
970.143	67.64
970.504	67.66
970.865	67.63
971.225	67.63
971.586	67.67
971.946	67.57
972.307	67.62
972.667	67.62
973.027	67.66
973.388	67.7
973.748	67.72
974.108	67.71
974.468	67.69
974.828	67.7
975.188	67.65
975.548	67.63
975.907	67.7
976.267	67.72
976.627	67.73
976.986	67.72
977.346	67.66
977.705	67.59
978.064	67.63
978.424	67.59
978.783	67.56
979.142	67.62
979.501	67.65
979.86	67.7
980.219	67.68
980.578	67.69
980.937	67.7
981.296	67.7
981.654	67.75
982.013	67.71
982.371	67.72
982.73	67.72
983.088	67.69
983.447	67.65
983.805	67.69
984.163	67.68
984.521	67.65
984.879	67.61
985.237	67.58
985.595	67.6
985.953	67.64
986.311	67.65
986.669	67.64
987.026	67.73
987.384	67.72
987.741	67.58
988.099	67.64
988.456	67.61
988.814	67.66
989.171	67.68
989.528	67.61
989.885	67.6
990.242	67.62
990.599	67.68
990.956	67.59
991.313	67.64
991.67	67.67
992.027	67.64
992.383	67.66
992.74	67.69
993.096	67.67
993.453	67.73
993.809	67.72
994.165	67.75
994.522	67.69
994.878	67.74
995.234	67.7
995.59	67.71
995.946	67.74
996.302	67.73
996.658	67.72
997.013	67.72
997.369	67.69
997.725	67.68
998.08	67.7
998.436	67.85
998.791	67.82
999.147	67.81
999.502	67.87
999.857	67.86
1000.212	67.9
1000.567	67.9
1000.922	67.81
1001.277	67.83
1001.632	67.74
1001.987	67.74
1002.342	67.64
1002.696	67.56
1003.051	67.66
1003.406	67.79
1003.76	67.84
1004.114	67.71
1004.469	67.77
1004.823	68.11
1005.177	68.16
1005.531	68.37
1005.885	68.4
1006.239	68.46
1006.593	68.69
1006.947	68.61
1007.301	68.45
1007.655	68.36
1008.008	68.46
1008.362	68.36
1008.715	68.2
1009.069	68.17
1009.422	68.1
1009.776	67.96
1010.129	67.95
1010.482	67.85
1010.835	67.92
1011.188	67.97
1011.541	68.16
1011.894	68.31
1012.247	68.4
1012.6	68.47
1012.952	68.44
1013.305	68.48
1013.657	68.55
1014.01	68.66
1014.362	68.65
1014.715	68.59
1015.067	68.68
1015.419	68.72
1015.771	68.55
1016.123	68.49
1016.475	68.44
1016.827	68.35
1017.179	68.25
1017.531	68.34
1017.883	68.3
1018.234	68.12
1018.586	68.08
1018.938	68.1
1019.289	67.85
1019.64	67.99
1019.992	67.8
1020.343	67.72
1020.694	67.86
1021.045	68.01
1021.396	67.98
1021.747	67.96
1022.098	68.29
1022.449	68.41
1022.8	68.32
1023.151	68.35
1023.501	68.4
1023.852	68.55
1024.202	68.32
1024.553	68.12
1024.903	68.05
1025.253	68.16
1025.604	68.21
1025.954	67.8
1026.304	67.84
1026.654	67.89
1027.004	67.85
1027.354	67.45
1027.703	67.47
1028.053	67.57
1028.403	67.81
1028.753	67.42
1029.102	67.5
1029.452	67.48
1029.801	67.85
1030.15	67.72
1030.499	67.5
897.758	334.83
901.051	338.17
904.343	340.35
907.636	347.35
910.928	337.79
914.22	337.99
917.511	335.29
920.803	321.93
924.094	321.51
927.384	315.2
930.675	303.64
933.965	305.11
937.255	289.84
940.544	279.87
943.834	267.02
947.123	265.85
950.411	254.2
953.7	250.4
956.988	240.97
960.276	235.5
963.563	231.97
966.851	226.98
970.138	225.26
973.424	220.75
976.711	223.1
979.997	215.37
983.283	214.55
986.568	211.57
989.853	208.2
993.138	204.72
996.423	197.18
999.708	194.42
1002.992	192.17
1006.275	185.73
1009.559	183.88
1012.842	178.71
1016.125	175.84
1019.408	174.35
1022.69	172.45
1025.972	168.99
1029.254	166.8
1032.536	165.86
1035.817	162.98
1039.098	161.99
1042.379	159.22
1045.659	158.65
1048.939	154.78
1052.219	153.46
1055.498	151.79
1058.778	149.78
1062.057	147.45
1065.335	146.76
1068.614	144.28
1071.892	144.02
1075.17	142.4
1078.447	140.94
1081.724	140.17
1085.001	140.33
1088.278	137.74
1091.554	135.55
1094.83	135.56
1098.106	135.41
1101.382	134.62
1104.657	134.51
1107.932	132.4
1111.206	131.66
1114.481	129.53
1117.755	129.46
1121.029	128.27
1124.302	128.23
1127.575	127.26
1130.848	126.07
1134.121	125.18
1137.393	124.16
1140.665	122.36
1143.937	121.79
1147.208	121.89
1150.48	121.54
1153.75	120.04
1157.021	119.29
1160.291	119.29
1163.561	117.53
1166.831	118.36
1170.101	117.21
1173.37	118.33
1176.639	118.79
1179.907	117.83
1183.176	116.67
1186.444	117.28
1189.711	116.89
1192.979	116.09
1196.246	115.6
1199.513	116.91
1202.78	115.01
1206.046	115.29
1209.312	113.03
1212.578	112.85
1215.843	113.5
1219.108	113.41
1222.373	114.44
1225.638	114.91
1228.902	115.85
1232.166	116.91
1235.43	116.53
1238.693	118.25
1241.956	118.75
1245.219	120.35
1248.482	121.34
1251.744	120.91
1255.006	121.87
1258.268	120.27
1261.529	119.64
1264.79	119.49
1268.051	118.17
1271.312	117.61
1274.572	116.8
1277.832	116.29
1281.092	114.48
1284.351	113.86
1287.61	114.39
1290.869	112.35
1294.128	111.64
1297.386	111.5
1300.644	110.56
1303.902	110.98
1307.159	109.7
1310.416	109.63
1313.673	108.85
1316.93	110.05
1320.186	109.38
1323.442	109.22
1326.697	109.44
1329.953	110.16
1333.208	109.55
1336.463	110.23
1339.717	109.89
1342.972	111.22
1346.226	110.74
1349.479	111.04
1352.733	110.96
1355.986	111.77
1359.238	111.36
1362.491	111.15
1365.743	110.47
1368.995	110.36
1372.247	110.43
1375.498	109.46
1378.749	108.62
1382	106.71
1385.251	106.13
1388.501	103.67
1391.751	101.5
1395	100.02
1398.25	99.05
1401.499	96.51
1404.748	95.83
1407.996	91.33
1411.244	90.66
1414.492	89.5
1417.74	86.62
1420.987	85.33
1424.234	84.4
1427.481	83.42
1430.728	83.12
1433.974	82.37
1437.22	81.67
1440.465	80.86
1443.711	80.75
1446.956	79.58
1450.201	79.22
1453.445	80.2
1456.689	79.38
1459.933	78.37
1463.177	78.19
1466.42	77.32
1469.663	76.38
1472.906	75.95
1476.148	75.05
1479.391	75.55
1482.633	75.94
1485.874	75.44
1489.115	74.73
1492.356	75.28
1495.597	75.43
1498.838	75.23
1502.078	75.18
1505.318	75.89
1508.557	75.95
1511.797	76.3
1515.036	75.74
1518.274	76.43
1521.513	76.8
1524.751	76.53
1527.989	76.58
1531.227	77.15
1534.464	77.22
1537.701	77.19
1540.938	77
1544.174	77.48
1547.41	77.98
1550.646	77.88
1553.882	77.89
1557.117	77.67
1560.352	78.27
1563.587	78.53
1566.821	78.51
1570.055	78.59
1573.289	79.07
1576.523	79.33
1579.756	78.86
1582.989	78.98
1586.222	79.54
1589.454	79.08
1592.686	80.03
1595.918	79.77
1599.15	79.78
1602.381	79.64
1605.612	79.89
1608.843	80.03
1612.073	80.06
1615.303	80.53
1618.533	80.72
1621.762	80.11
1624.992	81.26
1628.221	80.94
1631.449	81.05
1634.678	81.26
1637.906	81.89
1641.134	81.71
1644.361	81.73
1647.588	81.79
1650.815	81.75
1654.042	81.89
1657.269	82.41
1660.495	82.02
1663.72	82.02
1666.946	82.19
1670.171	82.14
1673.396	82.24
1676.621	82.54
1679.845	82.3
1683.069	82.69
1686.293	82.73
1689.517	82.8
1692.74	83.1
1695.963	82.87
1699.185	82.82
1702.408	83.14
1705.63	83.15
1708.852	82.83
1712.073	82.81
1715.294	82.81
1718.515	83.18
1721.736	83.24
1724.956	82.98
1728.176	82.85
1731.396	83.15
1734.616	83.04
1737.835	83.1
1741.054	82.3
1744.272	82.28
1747.491	82.35
1750.709	82.48
1753.927	81.7
1757.144	81.49
1760.361	81.52
1763.578	81.15
1766.795	80.72
1770.011	81.02
1773.227	80.71
1776.443	81.3
1779.658	81
1782.874	81.09
1786.089	80.47
1789.303	80.79
1792.518	81.16
1795.732	81.13
1798.945	81.52
1802.159	81.46
1805.372	81.4
1808.585	81.87
1811.797	82.1
1815.01	82.87
1818.222	82.8
1821.434	83.69
1824.645	83.67
1827.856	84.53
1831.067	84.47
1834.278	85.08
1837.488	85.49
1840.698	85.43
1843.908	85.03
1847.117	85.22
1850.326	84.81
1853.535	83.47
1856.744	83.44
1859.952	82.43
1863.16	80.82
1866.368	79.44
1869.575	77.26
1872.782	74.71
1875.989	72.87
1879.196	71.43
1882.402	68.47
1885.608	67.6
1888.814	66.63
1892.019	64.03
1895.224	62.56
1898.429	61.94
1901.634	61.04
1904.838	61.03
1908.042	61.11
1911.246	60.19
1914.449	60.12
1917.652	59.81
1920.855	60.02
1924.058	59.72
1927.26	60.18
1930.462	59.36
1933.664	59.97
1936.865	60.31
1940.066	59.34
1943.267	58.48
1946.467	59.47
1949.668	59.24
1952.868	60.56
1956.067	60.39
1959.267	60.21
1962.466	60.4
1965.665	61.06
1968.863	61.64
1972.061	61.42
1975.259	61.85
1978.457	63.32
1981.654	64.12
1984.852	64.62
1988.048	64.92
1991.245	65.09
1994.441	66.43
1997.637	67.42
2000.833	68.91
2004.028	69.23
2007.223	70.48
2010.418	72.22
2013.613	73.35
2016.807	73.99
2020.001	75.12
2023.194	76.21
2026.388	78.08
2029.581	78.98
2032.774	80.03
2035.966	81.39
2039.158	81.79
2042.35	82.61
2045.542	82.07
2048.733	83.51
2051.924	84.43
2055.115	85.64
2058.306	85.74
2061.496	87.08
2064.686	87.49
2067.875	88.66
2071.065	89.21
2074.254	88.85
2077.442	90.68
2080.631	91.89
2083.819	92.56
2087.007	93.29
2090.195	94.78
2093.382	95.92
2096.569	95.81
2099.756	97.73
2102.942	97.8
2106.128	98.89
2109.314	101.87
2112.5	101.63
2115.685	103.61
2118.87	103.91
2122.055	105.75
2125.239	106.21
2128.424	106.76
2131.608	107.3
2134.791	108.09
2137.974	108.89
2141.157	109.03
2144.34	108.21
2147.523	109.1
2150.705	109.01
2153.887	111.02
2157.068	111.52
2160.25	110.89
2163.431	112.14
2166.611	112.87
2169.792	116.1
2172.972	116.67
2176.152	118.06
2179.331	119.22
2182.511	122.43
2185.69	122.92
2188.868	123.6
2192.047	123.62
2195.225	127.31
2198.403	130.24
2201.58	132.32
2204.758	133.68
2207.935	136.57
2211.111	138.3
2214.288	139.99
2217.464	139.78
2220.64	142.02
2223.815	142.76
2226.991	147.85
2230.166	147.28
2233.34	146.97
2236.515	150.13
2239.689	150.51
2242.863	150.73
2246.036	153.48
2249.209	153.08
2252.382	153.89
2255.555	157.19
2258.727	159.81
2261.9	161.52
2265.071	163.26
2268.243	167.06
2271.414	168.72
2274.585	171.67
2277.756	174.1
2280.926	176.21
2284.096	178.65
2287.266	184.3
2290.436	184.65
2293.605	187.44
2296.774	191.52
2299.942	194.62
2303.111	197.08
2306.279	199.38
2309.447	200.19
2312.614	204.16
2315.781	207.9
2318.948	218.69
2322.115	215.13
2325.281	228.03
2328.447	223.7
2331.613	229.67
2334.779	230.35
2337.944	235.75
2341.109	238.58
2344.274	246.46
2347.438	255.94
2350.602	255.94
2353.766	267.3
2356.929	271.36
2360.092	269.13
2363.255	285.98
2366.418	288.25
2369.58	291.75
2372.742	307.9
2375.904	317.01
2379.066	316.75
2382.227	309.4
2385.388	335.08
2388.548	327.43
2391.709	329.79
2394.869	364.58
2398.029	352.16
2401.188	360.17
2404.347	359.79
2407.506	356.32
2410.665	362.67
2413.823	383.07
2416.981	405.47
2420.139	391.26
2423.296	389.28
2426.453	405.1
2429.61	399.38
2432.767	414.56
2435.923	412.99
2439.079	452.52
2442.235	460.68
2445.391	462.31
2448.546	458.94
2451.701	441.43
2454.855	444.01
2458.009	468.32
2461.163	492.78
2464.317	496.97
2467.471	512.78
2470.624	517.95
2473.777	501.08
2476.929	487.24
2480.082	471.11
2483.234	469.01
2486.385	494.4
2489.537	499.55
2492.688	516.61
2495.839	501.36
2498.989	493.23
2502.14	495.65
2505.29	493.82
2508.439	500.8
2511.589	502.49
2514.738	541.19
2517.887	525.63
2521.035	554.46
2524.183	560.9
2527.331	565.48
2530.479	560.4
2533.627	564.71
