Data from N_1_DEC_OH_4n_Splice17_12-29-02-537.txt Node
Date: Sat Mar 07 12:29:02 EST 2020
User: sa697716
Spectrometer: NQ5500242
Trigger mode: 0
Integration Time (sec): 1.450000E-1
Scans to average: 20
Nonlinearity correction enabled: false
Boxcar width: 5
Storing dark spectrum: false
XAxis mode: Wavelengths
Number of Pixels in Spectrum: 512
>>>>>Begin Spectral Data<<<<<
187.83	70.56
188.298	85.11
188.766	61.88
189.233	54.71
189.701	46.66
190.169	47.97
190.636	8.41
191.104	-16.32
191.571	-146.76
192.039	-136.16
192.506	-807.86
192.974	259.54
193.441	301.92
193.908	73.11
194.375	43.35
194.842	-9.88
195.31	10.04
195.777	-201.36
196.244	6.43
196.711	14.97
197.177	17.99
197.644	17.61
198.111	17.35
198.578	18.33
199.045	18.48
199.511	18.56
199.978	18.54
200.445	18.42
200.911	18.47
201.378	18.55
201.844	18.67
202.31	18.4
202.777	18.41
203.243	18.61
203.709	18.37
204.176	18.42
204.642	18.22
205.108	18.37
205.574	18.51
206.04	18.37
206.506	18.24
206.972	18.26
207.438	18.3
207.903	18.06
208.369	17.61
208.835	17.53
209.301	17.23
209.766	17
210.232	16.47
210.697	16
211.163	15.63
211.628	15.26
212.094	14.75
212.559	14.4
213.024	14.12
213.49	13.93
213.955	13.42
214.42	13.26
214.885	12.87
215.35	12.47
215.815	11.96
216.28	11.34
216.745	10.62
217.21	9.94
217.675	9.34
218.14	8.9
218.604	8.49
219.069	8.18
219.534	7.78
219.998	7.53
220.463	7.38
220.927	7.13
221.392	6.97
221.856	6.84
222.32	6.75
222.785	6.64
223.249	6.51
223.713	6.39
224.177	6.3
224.642	6.26
225.106	6.17
225.57	6.06
226.034	6
226.497	5.95
226.961	5.88
227.425	5.8
227.889	5.76
228.353	5.72
228.816	5.65
229.28	5.59
229.744	5.54
230.207	5.48
230.671	5.43
231.134	5.38
231.597	5.33
232.061	5.29
232.524	5.26
232.987	5.2
233.45	5.16
233.914	5.12
234.377	5.08
234.84	5.03
235.303	5.01
235.766	4.97
236.229	4.93
236.691	4.89
237.154	4.84
237.617	4.81
238.08	4.77
238.542	4.72
239.005	4.69
239.468	4.66
239.93	4.62
240.393	4.58
240.855	4.55
241.317	4.51
241.78	4.48
242.242	4.45
242.704	4.42
243.166	4.39
243.629	4.37
244.091	4.35
244.553	4.31
245.015	4.29
245.477	4.26
245.939	4.24
246.4	4.22
246.862	4.2
247.324	4.19
247.786	4.16
248.247	4.14
248.709	4.11
249.17	4.07
249.632	4.07
250.093	4.05
250.555	4.04
251.016	4.01
251.477	4
251.939	4
252.4	3.97
252.861	3.96
253.322	3.95
253.783	3.94
254.244	3.94
254.705	3.91
255.166	3.9
255.627	3.88
256.088	3.87
256.549	3.86
257.009	3.84
257.47	3.83
257.931	3.81
258.391	3.79
258.852	3.78
259.312	3.76
259.773	3.75
260.233	3.75
260.694	3.73
261.154	3.72
261.614	3.7
262.074	3.69
262.534	3.67
262.994	3.67
263.455	3.66
263.915	3.65
264.374	3.64
264.834	3.64
265.294	3.62
265.754	3.62
266.214	3.61
266.673	3.6
267.133	3.6
267.593	3.59
268.052	3.58
268.512	3.57
268.971	3.56
269.431	3.56
269.89	3.55
270.349	3.54
270.809	3.53
271.268	3.53
271.727	3.52
272.186	3.51
272.645	3.51
273.104	3.5
273.563	3.49
274.022	3.49
274.481	3.48
274.94	3.47
275.399	3.46
275.857	3.45
276.316	3.44
276.775	3.43
277.233	3.43
277.692	3.41
278.15	3.4
278.609	3.39
279.067	3.38
279.525	3.38
279.984	3.37
280.442	3.36
280.9	3.35
281.358	3.34
281.816	3.34
282.274	3.33
282.732	3.32
283.19	3.32
283.648	3.31
284.106	3.29
284.564	3.29
285.021	3.28
285.479	3.28
285.937	3.27
286.394	3.26
286.852	3.25
287.309	3.24
287.767	3.23
288.224	3.22
288.682	3.22
289.139	3.21
289.596	3.2
290.053	3.19
290.511	3.18
290.968	3.17
291.425	3.17
291.882	3.16
292.339	3.16
292.796	3.16
293.252	3.15
293.709	3.15
294.166	3.15
294.623	3.14
295.079	3.14
295.536	3.14
295.992	3.14
296.449	3.13
296.905	3.13
297.362	3.12
297.818	3.12
298.274	3.12
298.731	3.11
299.187	3.11
299.643	3.1
300.099	3.1
300.555	3.09
301.011	3.08
301.467	3.07
301.923	3.07
302.379	3.06
302.835	3.06
303.291	3.05
303.746	3.04
304.202	3.03
304.658	3.03
305.113	3.03
305.569	3.03
306.024	3.03
306.479	3.03
306.935	3.02
307.39	3.02
307.845	3.02
308.301	3.02
308.756	3.02
309.211	3.01
309.666	3.02
310.121	3.01
310.576	3.01
311.031	3.01
311.486	3
311.94	3.01
312.395	3
312.85	3
313.305	2.99
313.759	2.99
314.214	2.99
314.668	2.98
315.123	2.98
315.577	2.97
316.032	2.97
316.486	2.97
316.94	2.97
317.394	2.95
317.849	2.94
318.303	2.94
318.757	2.93
319.211	2.93
319.665	2.92
320.119	2.92
320.572	2.91
321.026	2.91
321.48	2.9
321.934	2.89
322.387	2.89
322.841	2.89
323.295	2.89
323.748	2.89
324.202	2.89
324.655	2.89
325.108	2.89
325.562	2.89
326.015	2.89
326.468	2.9
326.921	2.9
327.374	2.9
327.827	2.89
328.28	2.9
328.733	2.9
329.186	2.89
329.639	2.89
330.092	2.89
330.545	2.89
330.997	2.88
331.45	2.89
331.903	2.89
332.355	2.89
332.808	2.89
333.26	2.88
333.713	2.88
334.165	2.88
334.617	2.88
335.069	2.88
335.522	2.87
335.974	2.88
336.426	2.87
336.878	2.86
337.33	2.86
337.782	2.86
338.234	2.87
338.686	2.87
339.137	2.87
339.589	2.87
340.041	2.86
340.493	2.86
340.944	2.84
341.396	2.85
341.847	2.85
342.299	2.85
342.75	2.84
343.201	2.83
343.653	2.83
344.104	2.82
344.555	2.82
345.006	2.82
345.457	2.83
345.908	2.83
346.359	2.83
346.81	2.83
347.261	2.83
347.712	2.83
348.163	2.83
348.613	2.84
349.064	2.85
349.515	2.85
349.965	2.85
350.416	2.85
350.866	2.85
351.317	2.85
351.767	2.85
352.217	2.85
352.668	2.86
353.118	2.86
353.568	2.85
354.018	2.86
354.468	2.86
354.918	2.87
355.368	2.87
355.818	2.87
356.268	2.87
356.718	2.88
357.168	2.88
357.617	2.88
358.067	2.88
358.517	2.89
358.966	2.9
359.416	2.91
359.865	2.91
360.315	2.92
360.764	2.93
361.213	2.93
361.663	2.93
362.112	2.94
362.561	2.95
363.01	2.95
363.459	2.94
363.908	2.95
364.357	2.95
364.806	2.95
365.255	2.96
365.703	2.96
366.152	2.97
366.601	2.97
367.05	2.98
367.498	2.97
367.947	2.98
368.395	3
368.844	3.01
369.292	3.01
369.74	3.02
370.189	3.02
370.637	3.02
371.085	3.01
371.533	3.01
371.981	3.01
372.429	3.03
372.877	3.02
373.325	3.02
373.773	3.02
374.221	3
374.669	3
375.116	3
375.564	3.01
376.012	3.01
376.459	3.01
376.907	3.01
377.354	3.01
377.801	3.02
378.249	3.02
378.696	3.03
379.143	3.04
379.591	3.04
380.038	3.05
380.485	3.05
380.932	3.06
381.379	3.07
381.826	3.07
382.273	3.08
382.72	3.07
383.166	3.08
383.613	3.09
384.06	3.08
384.506	3.09
384.953	3.1
385.4	3.1
385.846	3.1
386.292	3.11
386.739	3.12
387.185	3.11
387.631	3.13
388.078	3.13
388.524	3.14
388.97	3.14
389.416	3.16
389.862	3.16
390.308	3.17
390.754	3.18
391.2	3.19
391.645	3.2
392.091	3.21
392.537	3.22
392.983	3.22
393.428	3.24
393.874	3.25
394.319	3.27
394.765	3.29
395.21	3.3
395.655	3.31
396.101	3.32
396.546	3.34
396.991	3.36
397.436	3.38
397.881	3.41
398.326	3.42
398.771	3.43
399.216	3.45
399.661	3.47
400.106	3.49
400.551	3.51
400.995	3.52
401.44	3.53
401.885	3.54
402.329	3.56
402.774	3.56
403.218	3.59
403.663	3.62
404.107	3.64
404.551	3.66
404.995	3.67
405.44	3.68
405.884	3.7
406.328	3.72
406.772	3.73
407.216	3.74
407.66	3.76
408.104	3.75
408.547	3.76
408.991	3.77
409.435	3.77
409.879	3.78
410.322	3.79
410.766	3.81
411.209	3.83
411.653	3.86
412.096	3.87
412.54	3.88
412.983	3.89
413.426	3.91
413.869	3.92
414.312	3.94
414.756	3.96
415.199	3.96
415.642	3.97
416.085	3.98
416.527	3.98
416.97	3.98
417.413	3.99
417.856	4.01
418.298	4.02
418.741	4.02
419.184	4.02
419.626	4.02
420.069	4.03
420.511	4.04
420.953	4.05
421.396	4.06
421.838	4.08
422.28	4.09
422.722	4.1
423.164	4.1
423.606	4.11
424.048	4.13
424.49	4.14
424.932	4.15
425.374	4.14
425.816	4.12
426.258	4.12
426.699	4.12
427.141	4.11
427.582	4.12
428.024	4.14
428.465	4.15
428.907	4.14
429.348	4.13
429.789	4.13
430.231	4.14
430.672	4.15
431.113	4.16
431.554	4.16
431.995	4.17
432.436	4.16
432.877	4.16
433.318	4.18
433.759	4.19
434.2	4.21
434.64	4.22
435.081	4.22
435.522	4.24
435.962	4.25
436.403	4.27
436.843	4.28
437.284	4.28
437.724	4.28
438.164	4.27
438.604	4.27
439.045	4.26
439.485	4.27
439.925	4.27
440.365	4.28
440.805	4.27
441.245	4.28
441.685	4.3
442.125	4.33
442.564	4.32
443.004	4.33
443.444	4.34
443.883	4.35
444.323	4.35
444.762	4.36
445.202	4.36
445.641	4.39
446.081	4.4
446.52	4.39
446.959	4.41
447.398	4.43
447.837	4.44
448.276	4.44
448.716	4.45
449.154	4.46
449.593	4.48
450.032	4.5
450.471	4.49
450.91	4.49
451.349	4.51
451.787	4.49
452.226	4.5
452.664	4.51
453.103	4.51
453.541	4.52
453.98	4.54
454.418	4.53
454.856	4.53
455.295	4.53
455.733	4.52
456.171	4.52
456.609	4.53
457.047	4.53
457.485	4.52
457.923	4.53
458.361	4.52
458.798	4.52
459.236	4.52
459.674	4.51
460.111	4.52
460.549	4.53
460.987	4.53
461.424	4.55
461.862	4.55
462.299	4.57
462.736	4.56
463.173	4.57
463.611	4.57
464.048	4.57
464.485	4.58
464.922	4.58
465.359	4.58
465.796	4.58
466.233	4.57
466.67	4.57
467.106	4.57
467.543	4.58
467.98	4.58
468.416	4.59
468.853	4.59
469.29	4.59
469.726	4.59
470.162	4.59
470.599	4.61
471.035	4.61
471.471	4.6
471.907	4.6
472.344	4.6
472.78	4.59
473.216	4.59
473.652	4.59
474.088	4.58
474.523	4.59
474.959	4.59
475.395	4.56
475.831	4.56
476.266	4.57
476.702	4.57
477.138	4.57
477.573	4.58
478.008	4.58
478.444	4.59
478.879	4.59
479.314	4.58
479.75	4.59
480.185	4.59
480.62	4.58
481.055	4.58
481.49	4.58
481.925	4.58
482.36	4.58
482.795	4.57
483.229	4.57
483.664	4.58
484.099	4.59
484.534	4.59
484.968	4.6
485.403	4.61
485.837	4.62
486.271	4.64
486.706	4.65
487.14	4.66
487.574	4.68
488.009	4.69
488.443	4.71
488.877	4.73
489.311	4.75
489.745	4.77
490.179	4.8
490.613	4.82
491.046	4.84
491.48	4.87
491.914	4.9
492.348	4.93
492.781	4.97
493.215	5.01
493.648	5.05
494.082	5.09
494.515	5.13
494.948	5.17
495.382	5.21
495.815	5.27
496.248	5.32
496.681	5.37
497.114	5.42
497.547	5.48
497.98	5.54
498.413	5.59
498.846	5.65
499.279	5.71
499.711	5.78
500.144	5.84
500.577	5.9
501.009	5.96
501.442	6.03
501.874	6.1
502.306	6.16
502.739	6.24
503.171	6.32
503.603	6.41
504.036	6.51
504.468	6.61
504.9	6.69
505.332	6.8
505.764	6.9
506.196	7
506.627	7.12
507.059	7.24
507.491	7.33
507.923	7.45
508.354	7.57
508.786	7.69
509.217	7.81
509.649	7.94
510.08	8.06
510.512	8.18
510.943	8.31
511.374	8.43
511.805	8.55
512.237	8.68
512.668	8.82
513.099	8.95
513.53	9.08
513.961	9.21
514.391	9.34
514.822	9.48
515.253	9.62
515.684	9.75
516.114	9.9
516.545	10.05
516.975	10.19
517.406	10.33
517.836	10.47
518.267	10.61
518.697	10.74
519.127	10.88
519.558	11.02
519.988	11.16
520.418	11.3
520.848	11.42
521.278	11.54
521.708	11.69
522.138	11.8
522.567	11.92
522.997	12.03
523.427	12.15
523.857	12.25
524.286	12.34
524.716	12.45
525.145	12.55
525.575	12.65
526.004	12.76
526.433	12.84
526.863	12.93
527.292	13.03
527.721	13.11
528.15	13.19
528.579	13.27
529.008	13.34
529.437	13.39
529.866	13.45
530.295	13.51
530.724	13.56
531.152	13.61
531.581	13.66
532.01	13.7
532.438	13.76
532.867	13.81
533.295	13.84
533.723	13.88
534.152	13.92
534.58	13.96
535.008	13.99
535.436	14.02
535.865	14.03
536.293	14.05
536.721	14.07
537.149	14.09
537.576	14.1
538.004	14.13
538.432	14.15
538.86	14.17
539.287	14.18
539.715	14.21
540.143	14.23
540.57	14.24
540.998	14.26
541.425	14.27
541.852	14.29
542.28	14.31
542.707	14.32
543.134	14.33
543.561	14.35
543.988	14.37
544.415	14.36
544.842	14.37
545.269	14.39
545.696	14.4
546.123	14.42
546.549	14.43
546.976	14.44
547.403	14.44
547.829	14.45
548.256	14.46
548.682	14.45
549.108	14.47
549.535	14.49
549.961	14.49
550.387	14.48
550.813	14.47
551.24	14.45
551.666	14.45
552.092	14.44
552.518	14.44
552.943	14.42
553.369	14.42
553.795	14.4
554.221	14.36
554.646	14.35
555.072	14.33
555.498	14.32
555.923	14.3
556.349	14.27
556.774	14.23
557.199	14.19
557.625	14.16
558.05	14.12
558.475	14.09
558.9	14.06
559.325	14.03
559.75	13.99
560.175	13.95
560.6	13.9
561.025	13.86
561.449	13.82
561.874	13.77
562.299	13.72
562.723	13.66
563.148	13.59
563.572	13.51
563.997	13.45
564.421	13.38
564.846	13.31
565.27	13.24
565.694	13.17
566.118	13.1
566.542	13.04
566.966	12.97
567.39	12.9
567.814	12.85
568.238	12.78
568.662	12.72
569.086	12.66
569.509	12.61
569.933	12.54
570.357	12.47
570.78	12.41
571.204	12.34
571.627	12.29
572.05	12.24
572.474	12.18
572.897	12.13
573.32	12.08
573.743	12.02
574.166	11.95
574.589	11.89
575.012	11.84
575.435	11.79
575.858	11.74
576.281	11.67
576.704	11.61
577.126	11.56
577.549	11.51
577.972	11.46
578.394	11.4
578.817	11.36
579.239	11.33
579.661	11.28
580.084	11.23
580.506	11.2
580.928	11.16
581.35	11.12
581.772	11.07
582.194	11.03
582.616	10.99
583.038	10.96
583.46	10.92
583.882	10.86
584.303	10.82
584.725	10.78
585.147	10.74
585.568	10.7
585.99	10.67
586.411	10.65
586.833	10.62
587.254	10.58
587.675	10.55
588.096	10.52
588.518	10.5
588.939	10.48
589.36	10.45
589.781	10.43
590.202	10.41
590.623	10.39
591.043	10.36
591.464	10.34
591.885	10.33
592.305	10.3
592.726	10.3
593.147	10.28
593.567	10.25
593.987	10.23
594.408	10.19
594.828	10.17
595.248	10.16
595.669	10.15
596.089	10.12
596.509	10.11
596.929	10.09
597.349	10.05
597.769	10.03
598.189	10.02
598.608	10.01
599.028	10.01
599.448	9.99
599.867	9.96
600.287	9.94
600.706	9.93
601.126	9.91
601.545	9.88
601.965	9.88
602.384	9.86
602.803	9.83
603.222	9.81
603.641	9.79
604.061	9.76
604.48	9.73
604.898	9.69
605.317	9.67
605.736	9.64
606.155	9.62
606.574	9.59
606.992	9.55
607.411	9.52
607.829	9.47
608.248	9.43
608.666	9.39
609.085	9.37
609.503	9.35
609.921	9.31
610.339	9.28
610.758	9.25
611.176	9.2
611.594	9.17
612.012	9.13
612.43	9.11
612.847	9.08
613.265	9.05
613.683	9.02
614.101	8.99
614.518	8.95
614.936	8.91
615.353	8.87
615.771	8.84
616.188	8.81
616.606	8.79
617.023	8.78
617.44	8.75
617.857	8.72
618.274	8.69
618.691	8.66
619.108	8.63
619.525	8.62
619.942	8.61
620.359	8.59
620.776	8.56
621.192	8.54
621.609	8.52
622.026	8.5
622.442	8.5
622.859	8.48
623.275	8.46
623.691	8.46
624.108	8.44
624.524	8.43
624.94	8.42
625.356	8.42
625.772	8.41
626.188	8.4
626.604	8.39
627.02	8.38
627.436	8.37
627.852	8.36
628.268	8.35
628.683	8.35
629.099	8.35
629.514	8.35
629.93	8.34
630.345	8.34
630.761	8.31
631.176	8.3
631.591	8.29
632.007	8.27
632.422	8.25
632.837	8.23
633.252	8.2
633.667	8.16
634.082	8.12
634.497	8.08
634.911	8.03
635.326	7.99
635.741	7.94
636.155	7.89
636.57	7.84
636.984	7.78
637.399	7.71
637.813	7.64
638.228	7.57
638.642	7.51
639.056	7.45
639.47	7.39
639.884	7.33
640.298	7.26
640.712	7.21
641.126	7.14
641.54	7.07
641.954	7
642.368	6.94
642.781	6.88
643.195	6.81
643.609	6.74
644.022	6.68
644.436	6.62
644.849	6.57
645.262	6.5
645.676	6.44
646.089	6.41
646.502	6.38
646.915	6.34
647.328	6.31
647.741	6.28
648.154	6.26
648.567	6.24
648.98	6.21
649.393	6.19
649.805	6.18
650.218	6.15
650.631	6.14
651.043	6.12
651.456	6.09
651.868	6.08
652.28	6.06
652.693	6.04
653.105	6.03
653.517	6.01
653.929	6
654.341	5.98
654.753	5.96
655.165	5.94
655.577	5.91
655.989	5.88
656.401	5.85
656.813	5.83
657.224	5.8
657.636	5.75
658.047	5.7
658.459	5.65
658.87	5.61
659.282	5.56
659.693	5.53
660.104	5.48
660.515	5.44
660.926	5.4
661.338	5.36
661.749	5.32
662.159	5.28
662.57	5.26
662.981	5.23
663.392	5.2
663.803	5.17
664.213	5.14
664.624	5.1
665.035	5.08
665.445	5.06
665.855	5.03
666.266	5.02
666.676	5.01
667.086	4.98
667.497	4.96
667.907	4.94
668.317	4.94
668.727	4.93
669.137	4.93
669.547	4.92
669.956	4.92
670.366	4.92
670.776	4.92
671.186	4.92
671.595	4.93
672.005	4.93
672.414	4.94
672.824	4.96
673.233	4.97
673.642	4.98
674.052	4.99
674.461	4.99
674.87	5.01
675.279	5.03
675.688	5.05
676.097	5.07
676.506	5.09
676.915	5.11
677.323	5.13
677.732	5.16
678.141	5.19
678.549	5.21
678.958	5.24
679.366	5.28
679.775	5.3
680.183	5.34
680.592	5.4
681	5.47
681.408	5.53
681.816	5.6
682.224	5.67
682.632	5.74
683.04	5.83
683.448	5.92
683.856	6
684.264	6.1
684.671	6.21
685.079	6.31
685.487	6.43
685.894	6.58
686.302	6.72
686.709	6.86
687.116	7.02
687.524	7.2
687.931	7.39
688.338	7.6
688.745	7.8
689.152	8.02
689.559	8.25
689.966	8.47
690.373	8.71
690.78	8.97
691.187	9.23
691.593	9.49
692	9.75
692.407	10.01
692.813	10.28
693.22	10.54
693.626	10.81
694.032	11.08
694.439	11.36
694.845	11.63
695.251	11.89
695.657	12.15
696.063	12.42
696.469	12.69
696.875	12.95
697.281	13.22
697.687	13.49
698.093	13.73
698.498	13.97
698.904	14.21
699.31	14.44
699.715	14.66
700.12	14.9
700.526	15.13
700.931	15.35
701.337	15.57
701.742	15.77
702.147	15.97
702.552	16.2
702.957	16.41
703.362	16.62
703.767	16.81
704.172	17
704.577	17.19
704.981	17.36
705.386	17.53
705.791	17.7
706.195	17.89
706.6	18.07
707.004	18.22
707.408	18.39
707.813	18.54
708.217	18.7
708.621	18.85
709.025	18.98
709.43	19.13
709.834	19.27
710.237	19.41
710.641	19.56
711.045	19.68
711.449	19.82
711.853	19.96
712.256	20.08
712.66	20.19
713.064	20.32
713.467	20.44
713.87	20.58
714.274	20.69
714.677	20.8
715.08	20.89
715.484	21.02
715.887	21.12
716.29	21.21
716.693	21.33
717.096	21.46
717.499	21.57
717.901	21.67
718.304	21.77
718.707	21.89
719.109	21.98
719.512	22.08
719.915	22.16
720.317	22.25
720.719	22.33
721.122	22.41
721.524	22.47
721.926	22.54
722.328	22.63
722.731	22.69
723.133	22.74
723.535	22.82
723.937	22.88
724.338	22.96
724.74	23.03
725.142	23.13
725.544	23.18
725.945	23.25
726.347	23.3
726.748	23.35
727.15	23.4
727.551	23.46
727.952	23.5
728.354	23.54
728.755	23.57
729.156	23.61
729.557	23.61
729.958	23.64
730.359	23.68
730.76	23.72
731.161	23.75
731.562	23.78
731.962	23.81
732.363	23.85
732.763	23.9
733.164	23.93
733.564	23.96
733.965	24
734.365	24.04
734.766	24.03
735.166	24.06
735.566	24.09
735.966	24.12
736.366	24.14
736.766	24.16
737.166	24.17
737.566	24.18
737.966	24.19
738.365	24.18
738.765	24.21
739.165	24.23
739.564	24.24
739.964	24.25
740.363	24.26
740.763	24.27
741.162	24.29
741.561	24.3
741.96	24.32
742.36	24.34
742.759	24.36
743.158	24.36
743.557	24.37
743.955	24.39
744.354	24.41
744.753	24.42
745.152	24.45
745.55	24.45
745.949	24.47
746.348	24.49
746.746	24.48
747.144	24.49
747.543	24.49
747.941	24.5
748.339	24.48
748.737	24.48
749.136	24.48
749.534	24.48
749.932	24.47
750.33	24.45
750.727	24.45
751.125	24.46
751.523	24.46
751.921	24.46
752.318	24.46
752.716	24.46
753.113	24.47
753.511	24.48
753.908	24.48
754.305	24.48
754.703	24.49
755.1	24.47
755.497	24.45
755.894	24.42
756.291	24.37
756.688	24.34
757.085	24.34
757.482	24.3
757.878	24.27
758.275	24.24
758.672	24.21
759.068	24.19
759.465	24.17
759.861	24.16
760.258	24.16
760.654	24.19
761.05	24.22
761.447	24.21
761.843	24.22
762.239	24.22
762.635	24.24
763.031	24.26
763.427	24.28
763.822	24.31
764.218	24.35
764.614	24.38
765.01	24.39
765.405	24.39
765.801	24.39
766.196	24.4
766.592	24.43
766.987	24.45
767.382	24.46
767.778	24.48
768.173	24.49
768.568	24.49
768.963	24.49
769.358	24.49
769.753	24.49
770.148	24.49
770.542	24.51
770.937	24.5
771.332	24.49
771.726	24.48
772.121	24.46
772.515	24.46
772.91	24.44
773.304	24.45
773.699	24.44
774.093	24.43
774.487	24.44
774.881	24.44
775.275	24.44
775.669	24.42
776.063	24.4
776.457	24.41
776.851	24.39
777.245	24.36
777.638	24.34
778.032	24.36
778.425	24.38
778.819	24.38
779.212	24.37
779.606	24.37
779.999	24.37
780.392	24.39
780.786	24.36
781.179	24.36
781.572	24.38
781.965	24.39
782.358	24.37
782.751	24.35
783.143	24.34
783.536	24.33
783.929	24.32
784.322	24.33
784.714	24.32
785.107	24.34
785.499	24.35
785.891	24.35
786.284	24.33
786.676	24.35
787.068	24.35
787.46	24.34
787.852	24.35
788.245	24.34
788.636	24.34
789.028	24.34
789.42	24.33
789.812	24.33
790.204	24.34
790.595	24.32
790.987	24.32
791.378	24.33
791.77	24.33
792.161	24.31
792.553	24.3
792.944	24.3
793.335	24.3
793.726	24.29
794.117	24.29
794.508	24.27
794.899	24.27
795.29	24.26
795.681	24.24
796.072	24.25
796.463	24.28
796.853	24.28
797.244	24.27
797.634	24.25
798.025	24.26
798.415	24.25
798.806	24.24
799.196	24.25
799.586	24.26
799.976	24.27
800.366	24.25
800.756	24.24
801.146	24.24
801.536	24.25
801.926	24.24
802.316	24.21
802.706	24.22
803.095	24.22
803.485	24.22
803.874	24.21
804.264	24.19
804.653	24.2
805.043	24.18
805.432	24.16
805.821	24.15
806.21	24.14
806.599	24.13
806.988	24.12
807.377	24.1
807.766	24.08
808.155	24.06
808.544	24.03
808.933	24
809.321	23.99
809.71	23.97
810.098	23.95
810.487	23.93
810.875	23.94
811.264	23.93
811.652	23.93
812.04	23.92
812.428	23.91
812.816	23.91
813.204	23.89
813.592	23.89
813.98	23.9
814.368	23.91
814.756	23.92
815.144	23.89
815.531	23.86
815.919	23.86
816.306	23.86
816.694	23.84
817.081	23.83
817.469	23.84
817.856	23.83
818.243	23.8
818.63	23.78
819.017	23.76
819.404	23.73
819.791	23.72
820.178	23.71
820.565	23.68
820.952	23.7
821.339	23.67
821.725	23.68
822.112	23.67
822.498	23.69
822.885	23.68
823.271	23.69
823.657	23.67
824.044	23.69
824.43	23.69
824.816	23.68
825.202	23.68
825.588	23.68
825.974	23.66
826.36	23.67
826.746	23.66
827.132	23.66
827.517	23.66
827.903	23.67
828.289	23.67
828.674	23.68
829.06	23.68
829.445	23.65
829.83	23.65
830.216	23.64
830.601	23.62
830.986	23.63
831.371	23.63
831.756	23.61
832.141	23.61
832.526	23.59
832.911	23.58
833.295	23.57
833.68	23.58
834.065	23.58
834.449	23.58
834.834	23.58
835.218	23.57
835.603	23.57
835.987	23.56
836.371	23.55
836.755	23.53
837.139	23.53
837.524	23.53
837.908	23.54
838.291	23.54
838.675	23.55
839.059	23.55
839.443	23.54
839.827	23.52
840.21	23.51
840.594	23.5
840.977	23.49
841.361	23.49
841.744	23.48
842.127	23.46
842.511	23.45
842.894	23.44
843.277	23.42
843.66	23.42
844.043	23.43
844.426	23.45
844.809	23.46
845.191	23.48
845.574	23.47
845.957	23.46
846.339	23.46
846.722	23.47
847.104	23.48
847.487	23.47
847.869	23.46
848.252	23.47
848.634	23.46
849.016	23.45
849.398	23.47
849.78	23.48
850.162	23.46
850.544	23.44
850.926	23.43
851.307	23.42
851.689	23.42
852.071	23.42
852.452	23.43
852.834	23.43
853.215	23.43
853.597	23.42
853.978	23.39
854.359	23.42
854.741	23.43
855.122	23.42
855.503	23.41
855.884	23.42
856.265	23.42
856.646	23.4
857.026	23.39
857.407	23.4
857.788	23.38
858.169	23.39
858.549	23.39
858.93	23.39
859.31	23.38
859.69	23.38
860.071	23.39
860.451	23.39
860.831	23.4
861.211	23.39
861.591	23.38
861.971	23.39
862.351	23.41
862.731	23.4
863.111	23.39
863.491	23.41
863.87	23.39
864.25	23.37
864.629	23.36
865.009	23.34
865.388	23.33
865.768	23.34
866.147	23.33
866.526	23.3
866.905	23.3
867.284	23.3
867.663	23.29
868.042	23.3
868.421	23.3
868.8	23.32
869.179	23.32
869.558	23.32
869.936	23.3
870.315	23.3
870.693	23.3
871.072	23.3
871.45	23.3
871.828	23.3
872.207	23.32
872.585	23.3
872.963	23.29
873.341	23.28
873.719	23.3
874.097	23.31
874.475	23.33
874.853	23.34
875.23	23.32
875.608	23.31
875.986	23.32
876.363	23.31
876.741	23.3
877.118	23.31
877.495	23.31
877.873	23.32
878.25	23.32
878.627	23.33
879.004	23.31
879.381	23.32
879.758	23.31
880.135	23.3
880.512	23.29
880.889	23.32
881.265	23.31
881.642	23.33
882.019	23.32
882.395	23.33
882.772	23.32
883.148	23.32
883.524	23.32
883.901	23.34
884.277	23.34
884.653	23.32
885.029	23.32
885.405	23.32
885.781	23.3
886.157	23.29
886.532	23.28
886.908	23.26
887.284	23.27
887.659	23.28
888.035	23.27
888.411	23.26
888.786	23.27
889.161	23.27
889.537	23.27
889.912	23.26
890.287	23.26
890.662	23.26
891.037	23.27
891.412	23.26
891.787	23.25
892.162	23.24
892.536	23.24
892.911	23.24
893.286	23.24
893.66	23.23
894.035	23.23
894.409	23.23
894.784	23.22
895.158	23.2
895.532	23.2
895.906	23.19
896.281	23.2
896.655	23.18
897.029	23.18
897.402	23.17
897.776	23.18
898.15	23.18
898.524	23.19
898.898	23.18
899.271	23.19
899.645	23.21
900.018	23.21
900.392	23.23
900.765	23.23
901.138	23.23
901.511	23.22
901.884	23.21
902.258	23.21
902.631	23.2
903.003	23.22
903.376	23.22
903.749	23.2
904.122	23.2
904.495	23.19
904.867	23.22
905.24	23.22
905.612	23.24
905.985	23.25
906.357	23.25
906.729	23.26
907.102	23.28
907.474	23.28
907.846	23.29
908.218	23.3
908.59	23.3
908.962	23.27
909.334	23.26
909.705	23.26
910.077	23.27
910.449	23.27
910.82	23.26
911.192	23.23
911.563	23.23
911.935	23.22
912.306	23.23
912.677	23.24
913.048	23.26
913.419	23.27
913.79	23.28
914.161	23.28
914.532	23.28
914.903	23.28
915.274	23.3
915.645	23.31
916.015	23.3
916.386	23.3
916.756	23.28
917.127	23.29
917.497	23.3
917.868	23.3
918.238	23.3
918.608	23.32
918.978	23.32
919.348	23.32
919.718	23.33
920.088	23.34
920.458	23.34
920.828	23.34
921.198	23.32
921.567	23.31
921.937	23.3
922.306	23.29
922.676	23.26
923.045	23.27
923.415	23.26
923.784	23.25
924.153	23.26
924.522	23.27
924.891	23.26
925.26	23.26
925.629	23.27
925.998	23.25
926.367	23.26
926.736	23.29
927.104	23.31
927.473	23.31
927.842	23.31
928.21	23.32
928.578	23.3
928.947	23.34
929.315	23.33
929.683	23.31
930.051	23.33
930.42	23.33
930.788	23.33
931.156	23.3
931.523	23.32
931.891	23.34
932.259	23.33
932.627	23.36
932.994	23.3
933.362	23.29
933.729	23.31
934.097	23.32
934.464	23.33
934.831	23.3
935.199	23.3
935.566	23.28
935.933	23.27
936.3	23.27
936.667	23.25
937.034	23.32
937.401	23.36
937.767	23.34
938.134	23.33
938.501	23.32
938.867	23.33
939.234	23.31
939.6	23.3
939.967	23.26
940.333	23.26
940.699	23.24
941.065	23.17
941.431	23.15
941.798	23.15
942.163	23.12
942.529	23.08
942.895	23.03
943.261	23.01
943.627	23.02
943.992	23.03
944.358	23.05
944.723	23.05
945.089	23.07
945.454	23.06
945.82	23.08
946.185	23.11
946.55	23.09
946.915	23.12
947.28	23.13
947.645	23.13
948.01	23.1
948.375	23.09
948.74	23.05
949.104	23.05
949.469	23.09
949.834	23.06
950.198	23.04
950.562	23.06
950.927	23.03
951.291	23.03
951.655	22.99
952.02	22.97
952.384	22.9
952.748	22.95
953.112	22.91
953.476	22.84
953.839	22.82
954.203	22.75
954.567	22.73
954.931	22.71
955.294	22.73
955.658	22.77
956.021	22.77
956.385	22.79
956.748	22.77
957.111	22.74
957.474	22.78
957.837	22.77
958.2	22.8
958.563	22.79
958.926	22.8
959.289	22.77
959.652	22.71
960.015	22.71
960.377	22.71
960.74	22.74
961.102	22.77
961.465	22.79
961.827	22.78
962.189	22.82
962.552	22.77
962.914	22.78
963.276	22.79
963.638	22.81
964	22.81
964.362	22.84
964.724	22.81
965.085	22.81
965.447	22.79
965.809	22.75
966.17	22.74
966.532	22.79
966.893	22.8
967.255	22.77
967.616	22.77
967.977	22.8
968.338	22.77
968.699	22.77
969.061	22.77
969.421	22.78
969.782	22.84
970.143	22.86
970.504	22.85
970.865	22.85
971.225	22.87
971.586	22.87
971.946	22.84
972.307	22.83
972.667	22.8
973.027	22.79
973.388	22.79
973.748	22.78
974.108	22.81
974.468	22.83
974.828	22.85
975.188	22.83
975.548	22.8
975.907	22.83
976.267	22.81
976.627	22.82
976.986	22.84
977.346	22.78
977.705	22.76
978.064	22.73
978.424	22.68
978.783	22.65
979.142	22.67
979.501	22.74
979.86	22.76
980.219	22.79
980.578	22.82
980.937	22.81
981.296	22.83
981.654	22.84
982.013	22.87
982.371	22.94
982.73	23.01
983.088	23.04
983.447	23.01
983.805	23.02
984.163	22.98
984.521	22.98
984.879	22.98
985.237	23.02
985.595	23.15
985.953	23.12
986.311	23.07
986.669	23.04
987.026	23.03
987.384	23.02
987.741	22.95
988.099	22.96
988.456	22.93
988.814	22.92
989.171	22.91
989.528	22.82
989.885	22.79
990.242	22.77
990.599	22.78
990.956	22.78
991.313	22.83
991.67	22.89
992.027	22.99
992.383	23.06
992.74	23.12
993.096	23.16
993.453	23.16
993.809	23.23
994.165	23.3
994.522	23.29
994.878	23.28
995.234	23.27
995.59	23.28
995.946	23.2
996.302	23.23
996.658	23.27
997.013	23.26
997.369	23.3
997.725	23.34
998.08	23.36
998.436	23.41
998.791	23.36
999.147	23.35
999.502	23.31
999.857	23.31
1000.212	23.17
1000.567	23.14
1000.922	23.07
1001.277	23.03
1001.632	22.97
1001.987	22.96
1002.342	22.79
1002.696	22.86
1003.051	22.93
1003.406	23.07
1003.76	23.21
1004.114	23.29
1004.469	23.33
1004.823	23.59
1005.177	23.68
1005.531	23.68
1005.885	23.7
1006.239	23.82
1006.593	23.91
1006.947	23.77
1007.301	23.53
1007.655	23.31
1008.008	23.39
1008.362	23.43
1008.715	23.27
1009.069	23.16
1009.422	23.17
1009.776	23.12
1010.129	23.14
1010.482	23.13
1010.835	23.27
1011.188	23.39
1011.541	23.53
1011.894	23.52
1012.247	23.35
1012.6	23.36
1012.952	23.42
1013.305	23.51
1013.657	23.66
1014.01	23.71
1014.362	23.7
1014.715	23.66
1015.067	23.64
1015.419	23.73
1015.771	23.68
1016.123	23.78
1016.475	23.72
1016.827	23.68
1017.179	23.61
1017.531	23.45
1017.883	23.39
1018.234	23.48
1018.586	23.46
1018.938	23.52
1019.289	23.28
1019.64	23.32
1019.992	23.3
1020.343	23.32
1020.694	23.21
1021.045	23.09
1021.396	23.13
1021.747	23.19
1022.098	23.19
1022.449	23.19
1022.8	23.34
1023.151	23.47
1023.501	23.66
1023.852	23.6
1024.202	23.48
1024.553	23.49
1024.903	23.57
1025.253	23.67
1025.604	23.83
1025.954	23.68
1026.304	23.78
1026.654	23.82
1027.004	23.68
1027.354	23.47
1027.703	23.3
1028.053	23.56
1028.403	23.91
1028.753	23.71
1029.102	23.65
1029.452	23.42
1029.801	23.36
1030.15	23.27
1030.499	22.96
897.758	601.43
901.051	605
904.343	602.97
907.636	615.49
910.928	599.44
914.22	601.68
917.511	595.28
920.803	570.03
924.094	563.34
927.384	549.09
930.675	529.38
933.965	528.47
937.255	498.07
940.544	479.89
943.834	456.17
947.123	451.94
950.411	424.21
953.7	417.81
956.988	396.34
960.276	382.04
963.563	375.36
966.851	363.05
970.138	359.01
973.424	349.16
976.711	348.04
979.997	331.4
983.283	330.31
986.568	324.65
989.853	315.29
993.138	309.54
996.423	299.05
999.708	292.07
1002.992	288.37
1006.275	274.32
1009.559	271.11
1012.842	263.61
1016.125	258.59
1019.408	254.16
1022.69	250.04
1025.972	244.02
1029.254	238.55
1032.536	234.18
1035.817	229.59
1039.098	226.94
1042.379	224.62
1045.659	222.61
1048.939	217.69
1052.219	212.33
1055.498	209.8
1058.778	204.73
1062.057	200.93
1065.335	199.04
1068.614	196.22
1071.892	193.82
1075.17	188.84
1078.447	185.74
1081.724	183.86
1085.001	182.31
1088.278	179.38
1091.554	174.99
1094.83	174.85
1098.106	173.3
1101.382	172.04
1104.657	171.26
1107.932	169.11
1111.206	169.22
1114.481	164.6
1117.755	164.16
1121.029	162.96
1124.302	161.99
1127.575	159.28
1130.848	158.83
1134.121	157.67
1137.393	156.45
1140.665	154.08
1143.937	152.91
1147.208	151.18
1150.48	150.95
1153.75	148.54
1157.021	147.04
1160.291	146.87
1163.561	145.33
1166.831	145.43
1170.101	143.68
1173.37	143.97
1176.639	143.96
1179.907	142.96
1183.176	142.03
1186.444	141.94
1189.711	141.2
1192.979	141.13
1196.246	140.47
1199.513	140.93
1202.78	139.64
1206.046	139.64
1209.312	139.28
1212.578	139.17
1215.843	139.78
1219.108	139.47
1222.373	141.88
1225.638	143.47
1228.902	144.05
1232.166	144.74
1235.43	145.71
1238.693	147.34
1241.956	148.52
1245.219	148.73
1248.482	149.61
1251.744	149.35
1255.006	150.18
1258.268	147.25
1261.529	146.01
1264.79	145.4
1268.051	144.14
1271.312	142.61
1274.572	141.66
1277.832	140.37
1281.092	138.46
1284.351	137.19
1287.61	137.71
1290.869	134.98
1294.128	134.55
1297.386	134.96
1300.644	133.95
1303.902	133.61
1307.159	133.84
1310.416	133.07
1313.673	132.81
1316.93	133.73
1320.186	133.57
1323.442	133.61
1326.697	136.02
1329.953	135.72
1333.208	135.07
1336.463	136.43
1339.717	137.39
1342.972	138.49
1346.226	139.71
1349.479	140.15
1352.733	141.46
1355.986	142.29
1359.238	142.24
1362.491	141.88
1365.743	142.48
1368.995	143.4
1372.247	142.99
1375.498	142.13
1378.749	142.43
1382	141.69
1385.251	141.67
1388.501	139.86
1391.751	139.48
1395	139.38
1398.25	138.85
1401.499	137.57
1404.748	136.39
1407.996	135.05
1411.244	135.22
1414.492	134.27
1417.74	131.42
1420.987	130.34
1424.234	130.51
1427.481	128.55
1430.728	127.51
1433.974	126.57
1437.22	126.54
1440.465	126.53
1443.711	125.2
1446.956	123.74
1450.201	122.31
1453.445	122.07
1456.689	121.3
1459.933	118.61
1463.177	118.3
1466.42	116.79
1469.663	115.12
1472.906	114.19
1476.148	111.05
1479.391	110.11
1482.633	109.85
1485.874	108.46
1489.115	107.29
1492.356	105.83
1495.597	106.04
1498.838	104.37
1502.078	103.8
1505.318	103.84
1508.557	103.47
1511.797	103.74
1515.036	103.15
1518.274	102.65
1521.513	101.73
1524.751	101.51
1527.989	101.65
1531.227	101.65
1534.464	101.56
1537.701	101.03
1540.938	100.49
1544.174	99.79
1547.41	99.89
1550.646	99.05
1553.882	99.04
1557.117	98.41
1560.352	98.03
1563.587	98.06
1566.821	97.38
1570.055	96.73
1573.289	96.56
1576.523	96.6
1579.756	95.86
1582.989	95.47
1586.222	95.06
1589.454	95.16
1592.686	95.69
1595.918	95.41
1599.15	94.52
1602.381	95.19
1605.612	95.25
1608.843	94.8
1612.073	94.86
1615.303	95.31
1618.533	94.96
1621.762	96.05
1624.992	95.68
1628.221	95.6
1631.449	95.26
1634.678	95.33
1637.906	95.33
1641.134	95.43
1644.361	95.71
1647.588	95.49
1650.815	95.56
1654.042	95.88
1657.269	95.7
1660.495	95.68
1663.72	95.37
1666.946	96.08
1670.171	96.37
1673.396	96.37
1676.621	96.44
1679.845	96.51
1683.069	97.04
1686.293	97.29
1689.517	97.51
1692.74	97.74
1695.963	98.01
1699.185	98.4
1702.408	98.52
1705.63	99.02
1708.852	99.23
1712.073	99.35
1715.294	99.61
1718.515	99.89
1721.736	99.92
1724.956	99.91
1728.176	100.11
1731.396	100.28
1734.616	100.73
1737.835	101.25
1741.054	100.21
1744.272	100.66
1747.491	101.37
1750.709	101.21
1753.927	100.9
1757.144	101.35
1760.361	101.54
1763.578	101.58
1766.795	101.52
1770.011	101.71
1773.227	101.72
1776.443	102.7
1779.658	102.21
1782.874	102.58
1786.089	102.7
1789.303	103.23
1792.518	103.32
1795.732	103.7
1798.945	104.74
1802.159	104.97
1805.372	105.55
1808.585	106.46
1811.797	107.13
1815.01	107.79
1818.222	108.44
1821.434	109.71
1824.645	109.48
1827.856	111.79
1831.067	112.02
1834.278	111.92
1837.488	112.89
1840.698	113.24
1843.908	112.56
1847.117	112.97
1850.326	113.51
1853.535	112.51
1856.744	114.23
1859.952	113.96
1863.16	112.57
1866.368	112.24
1869.575	112.69
1872.782	110.81
1875.989	110.32
1879.196	110.06
1882.402	109.01
1885.608	108.82
1888.814	109.05
1892.019	106.99
1895.224	107.27
1898.429	106.84
1901.634	106.79
1904.838	107.11
1908.042	108.19
1911.246	108.1
1914.449	108.65
1917.652	108.56
1920.855	108.51
1924.058	107.89
1927.26	108.06
1930.462	107.95
1933.664	108.79
1936.865	108.79
1940.066	107.72
1943.267	107.2
1946.467	106.79
1949.668	107.19
1952.868	109.02
1956.067	109.33
1959.267	109.4
1962.466	110.16
1965.665	109.9
1968.863	110.57
1972.061	111.1
1975.259	112.56
1978.457	113.34
1981.654	115.11
1984.852	115.01
1988.048	114.42
1991.245	115.22
1994.441	116.92
1997.637	118.18
2000.833	121.13
2004.028	121.61
2007.223	123.38
2010.418	124.17
2013.613	126.42
2016.807	127.7
2020.001	130.25
2023.194	131.46
2026.388	135.27
2029.581	137.82
2032.774	137.9
2035.966	139.92
2039.158	141.12
2042.35	143.65
2045.542	144.89
2048.733	145.58
2051.924	148.07
2055.115	149.53
2058.306	150.58
2061.496	150.67
2064.686	150.68
2067.875	153.32
2071.065	153.17
2074.254	153.51
2077.442	154.92
2080.631	155.01
2083.819	158.07
2087.007	158.48
2090.195	159.83
2093.382	161.44
2096.569	160.97
2099.756	164.65
2102.942	165.6
2106.128	167.01
2109.314	170.55
2112.5	170.24
2115.685	173.38
2118.87	173.84
2122.055	176.34
2125.239	177.93
2128.424	180.22
2131.608	181.74
2134.791	183.71
2137.974	184.58
2141.157	185.52
2144.34	185.08
2147.523	187.4
2150.705	187.42
2153.887	189.07
2157.068	189.67
2160.25	187.61
2163.431	188.73
2166.611	190.33
2169.792	194.39
2172.972	195.91
2176.152	197.63
2179.331	200.03
2182.511	203.31
2185.69	204.97
2188.868	208.38
2192.047	208.67
2195.225	215.42
2198.403	219.49
2201.58	223.74
2204.758	226.58
2207.935	231.47
2211.111	236.63
2214.288	239.38
2217.464	239.96
2220.64	244.35
2223.815	247.89
2226.991	257.97
2230.166	257.09
2233.34	261.77
2236.515	265.51
2239.689	266.61
2242.863	267.91
2246.036	274.27
2249.209	273.88
2252.382	278.38
2255.555	286.29
2258.727	287.71
2261.9	290.61
2265.071	294.65
2268.243	297.85
2271.414	301.77
2274.585	307.84
2277.756	311.03
2280.926	314.48
2284.096	320.37
2287.266	325.27
2290.436	327.82
2293.605	334.52
2296.774	341.07
2299.942	350.07
2303.111	355.97
2306.279	363.81
2309.447	366.29
2312.614	379.57
2315.781	387.5
2318.948	404.59
2322.115	402.22
2325.281	424.8
2328.447	414.89
2331.613	431.33
2334.779	429.1
2337.944	446.1
2341.109	448.5
2344.274	464.61
2347.438	474.35
2350.602	475.13
2353.766	491.11
2356.929	498.12
2360.092	493.33
2363.255	530.82
2366.418	533.13
2369.58	540.05
2372.742	569.97
2375.904	587.68
2379.066	581.87
2382.227	573.71
2385.388	618.05
2388.548	618.76
2391.709	626.28
2394.869	696.52
2398.029	667.47
2401.188	684.98
2404.347	682.87
2407.506	674.02
2410.665	688.01
2413.823	732.29
2416.981	775.93
2420.139	750.56
2423.296	743.44
2426.453	774.3
2429.61	746.21
2432.767	777.32
2435.923	769.88
2439.079	850.51
2442.235	862.22
2445.391	855.44
2448.546	844.34
2451.701	821.82
2454.855	826.7
2458.009	872.28
2461.163	910.75
2464.317	941.82
2467.471	968.07
2470.624	965.39
2473.777	934.32
2476.929	908.98
2480.082	883.5
2483.234	877.9
2486.385	919.5
2489.537	922.75
2492.688	957.91
2495.839	929.63
2498.989	910.48
2502.14	912.99
2505.29	920.75
2508.439	933.06
2511.589	930.21
2514.738	1016.16
2517.887	991.41
2521.035	1048.22
2524.183	1055.12
2527.331	1064.24
2530.479	1059.29
2533.627	1065.38
