Data from N_1_DIV_WI_4n_Splice17_12-21-05-505.txt Node
Date: Sat Mar 07 12:21:05 EST 2020
User: sa697716
Spectrometer: NQ5500242
Trigger mode: 0
Integration Time (sec): 1.450000E-1
Scans to average: 20
Nonlinearity correction enabled: false
Boxcar width: 5
Storing dark spectrum: false
XAxis mode: Wavelengths
Number of Pixels in Spectrum: 512
>>>>>Begin Spectral Data<<<<<
187.83	16.04
188.298	13.16
188.766	14.47
189.233	23.54
189.701	19.63
190.169	43.17
190.636	31.34
191.104	-28.3
191.571	-106.82
192.039	205.42
192.506	282.25
192.974	-17.89
193.441	-15.81
193.908	23.46
194.375	43.31
194.842	10.62
195.31	117.31
195.777	229.75
196.244	36.89
196.711	31.01
197.177	32.17
197.644	30.09
198.111	29.49
198.578	28.55
199.045	28.82
199.511	28.55
199.978	28.29
200.445	28.28
200.911	28.24
201.378	28.4
201.844	28.24
202.31	27.85
202.777	28.1
203.243	28.32
203.709	28.8
204.176	28.5
204.642	28.67
205.108	29.06
205.574	28.79
206.04	28.55
206.506	28.2
206.972	28.33
207.438	28.2
207.903	27.48
208.369	26.81
208.835	26.01
209.301	25.5
209.766	24.55
210.232	23.75
210.697	23.05
211.163	22.51
211.628	21.69
212.094	20.96
212.559	20.42
213.024	20.04
213.49	19.55
213.955	18.99
214.42	18.49
214.885	18.24
215.35	17.46
215.815	16.43
216.28	15.35
216.745	14.23
217.21	12.97
217.675	11.89
218.14	10.94
218.604	10.08
219.069	9.34
219.534	8.68
219.998	8.06
220.463	7.65
220.927	7.28
221.392	6.95
221.856	6.7
222.32	6.46
222.785	6.26
223.249	6.06
223.713	5.9
224.177	5.76
224.642	5.65
225.106	5.52
225.57	5.39
226.034	5.3
226.497	5.2
226.961	5.12
227.425	5.03
227.889	4.95
228.353	4.87
228.816	4.79
229.28	4.71
229.744	4.63
230.207	4.57
230.671	4.5
231.134	4.45
231.597	4.39
232.061	4.33
232.524	4.28
232.987	4.25
233.45	4.22
233.914	4.17
234.377	4.14
234.84	4.11
235.303	4.09
235.766	4.05
236.229	4.02
236.691	3.98
237.154	3.96
237.617	3.92
238.08	3.89
238.542	3.85
239.005	3.84
239.468	3.8
239.93	3.77
240.393	3.75
240.855	3.73
241.317	3.7
241.78	3.68
242.242	3.64
242.704	3.63
243.166	3.6
243.629	3.58
244.091	3.54
244.553	3.51
245.015	3.48
245.477	3.44
245.939	3.42
246.4	3.39
246.862	3.37
247.324	3.35
247.786	3.32
248.247	3.3
248.709	3.26
249.17	3.24
249.632	3.23
250.093	3.22
250.555	3.2
251.016	3.19
251.477	3.16
251.939	3.14
252.4	3.13
252.861	3.12
253.322	3.11
253.783	3.1
254.244	3.09
254.705	3.07
255.166	3.04
255.627	3.03
256.088	3.01
256.549	3
257.009	2.98
257.47	2.96
257.931	2.93
258.391	2.91
258.852	2.88
259.312	2.86
259.773	2.85
260.233	2.84
260.694	2.82
261.154	2.8
261.614	2.78
262.074	2.77
262.534	2.76
262.994	2.75
263.455	2.73
263.915	2.72
264.374	2.71
264.834	2.7
265.294	2.69
265.754	2.68
266.214	2.67
266.673	2.66
267.133	2.65
267.593	2.65
268.052	2.64
268.512	2.64
268.971	2.64
269.431	2.64
269.89	2.63
270.349	2.63
270.809	2.62
271.268	2.62
271.727	2.61
272.186	2.6
272.645	2.59
273.104	2.58
273.563	2.57
274.022	2.56
274.481	2.56
274.94	2.56
275.399	2.55
275.857	2.54
276.316	2.54
276.775	2.54
277.233	2.54
277.692	2.54
278.15	2.53
278.609	2.53
279.067	2.53
279.525	2.53
279.984	2.53
280.442	2.52
280.9	2.52
281.358	2.52
281.816	2.52
282.274	2.52
282.732	2.52
283.19	2.52
283.648	2.51
284.106	2.5
284.564	2.49
285.021	2.5
285.479	2.5
285.937	2.49
286.394	2.49
286.852	2.48
287.309	2.48
287.767	2.47
288.224	2.47
288.682	2.47
289.139	2.46
289.596	2.46
290.053	2.44
290.511	2.44
290.968	2.44
291.425	2.43
291.882	2.42
292.339	2.41
292.796	2.41
293.252	2.4
293.709	2.4
294.166	2.4
294.623	2.39
295.079	2.39
295.536	2.39
295.992	2.39
296.449	2.38
296.905	2.38
297.362	2.38
297.818	2.38
298.274	2.38
298.731	2.37
299.187	2.37
299.643	2.37
300.099	2.37
300.555	2.37
301.011	2.36
301.467	2.35
301.923	2.34
302.379	2.34
302.835	2.35
303.291	2.34
303.746	2.34
304.202	2.34
304.658	2.34
305.113	2.34
305.569	2.33
306.024	2.34
306.479	2.33
306.935	2.33
307.39	2.34
307.845	2.33
308.301	2.34
308.756	2.34
309.211	2.34
309.666	2.34
310.121	2.35
310.576	2.35
311.031	2.35
311.486	2.35
311.94	2.36
312.395	2.36
312.85	2.36
313.305	2.36
313.759	2.36
314.214	2.36
314.668	2.35
315.123	2.35
315.577	2.34
316.032	2.34
316.486	2.34
316.94	2.33
317.394	2.33
317.849	2.33
318.303	2.32
318.757	2.32
319.211	2.32
319.665	2.31
320.119	2.31
320.572	2.31
321.026	2.31
321.48	2.31
321.934	2.3
322.387	2.3
322.841	2.3
323.295	2.3
323.748	2.31
324.202	2.3
324.655	2.3
325.108	2.3
325.562	2.3
326.015	2.3
326.468	2.31
326.921	2.31
327.374	2.31
327.827	2.31
328.28	2.3
328.733	2.3
329.186	2.31
329.639	2.31
330.092	2.32
330.545	2.32
330.997	2.32
331.45	2.32
331.903	2.33
332.355	2.34
332.808	2.35
333.26	2.35
333.713	2.35
334.165	2.35
334.617	2.35
335.069	2.34
335.522	2.34
335.974	2.35
336.426	2.35
336.878	2.34
337.33	2.33
337.782	2.33
338.234	2.34
338.686	2.35
339.137	2.36
339.589	2.36
340.041	2.36
340.493	2.35
340.944	2.34
341.396	2.34
341.847	2.34
342.299	2.33
342.75	2.33
343.201	2.32
343.653	2.32
344.104	2.3
344.555	2.3
345.006	2.29
345.457	2.3
345.908	2.3
346.359	2.3
346.81	2.29
347.261	2.29
347.712	2.29
348.163	2.28
348.613	2.28
349.064	2.29
349.515	2.28
349.965	2.28
350.416	2.27
350.866	2.27
351.317	2.26
351.767	2.27
352.217	2.28
352.668	2.28
353.118	2.28
353.568	2.28
354.018	2.29
354.468	2.3
354.918	2.3
355.368	2.31
355.818	2.32
356.268	2.33
356.718	2.34
357.168	2.33
357.617	2.32
358.067	2.33
358.517	2.34
358.966	2.35
359.416	2.34
359.865	2.35
360.315	2.35
360.764	2.36
361.213	2.36
361.663	2.36
362.112	2.38
362.561	2.39
363.01	2.38
363.459	2.37
363.908	2.38
364.357	2.4
364.806	2.4
365.255	2.41
365.703	2.41
366.152	2.42
366.601	2.44
367.05	2.45
367.498	2.45
367.947	2.47
368.395	2.49
368.844	2.5
369.292	2.51
369.74	2.53
370.189	2.55
370.637	2.57
371.085	2.59
371.533	2.6
371.981	2.63
372.429	2.66
372.877	2.68
373.325	2.71
373.773	2.72
374.221	2.75
374.669	2.76
375.116	2.79
375.564	2.81
376.012	2.83
376.459	2.86
376.907	2.89
377.354	2.92
377.801	2.95
378.249	2.98
378.696	3.01
379.143	3.04
379.591	3.07
380.038	3.11
380.485	3.14
380.932	3.18
381.379	3.21
381.826	3.24
382.273	3.27
382.72	3.29
383.166	3.34
383.613	3.36
384.06	3.39
384.506	3.43
384.953	3.46
385.4	3.48
385.846	3.52
386.292	3.54
386.739	3.56
387.185	3.59
387.631	3.63
388.078	3.65
388.524	3.68
388.97	3.7
389.416	3.73
389.862	3.76
390.308	3.79
390.754	3.82
391.2	3.85
391.645	3.87
392.091	3.9
392.537	3.92
392.983	3.94
393.428	3.96
393.874	3.99
394.319	4.01
394.765	4.01
395.21	4.03
395.655	4.04
396.101	4.05
396.546	4.07
396.991	4.08
397.436	4.08
397.881	4.1
398.326	4.12
398.771	4.13
399.216	4.14
399.661	4.16
400.106	4.16
400.551	4.16
400.995	4.15
401.44	4.16
401.885	4.16
402.329	4.17
402.774	4.17
403.218	4.18
403.663	4.18
404.107	4.18
404.551	4.18
404.995	4.17
405.44	4.18
405.884	4.18
406.328	4.19
406.772	4.18
407.216	4.18
407.66	4.17
408.104	4.16
408.547	4.16
408.991	4.16
409.435	4.15
409.879	4.16
410.322	4.17
410.766	4.17
411.209	4.17
411.653	4.19
412.096	4.19
412.54	4.19
412.983	4.19
413.426	4.21
413.869	4.21
414.312	4.24
414.756	4.24
415.199	4.22
415.642	4.23
416.085	4.23
416.527	4.21
416.97	4.19
417.413	4.18
417.856	4.19
418.298	4.16
418.741	4.16
419.184	4.15
419.626	4.14
420.069	4.15
420.511	4.15
420.953	4.15
421.396	4.16
421.838	4.17
422.28	4.18
422.722	4.19
423.164	4.19
423.606	4.18
424.048	4.18
424.49	4.18
424.932	4.17
425.374	4.16
425.816	4.14
426.258	4.14
426.699	4.13
427.141	4.12
427.582	4.11
428.024	4.12
428.465	4.13
428.907	4.12
429.348	4.11
429.789	4.1
430.231	4.12
430.672	4.13
431.113	4.14
431.554	4.14
431.995	4.15
432.436	4.15
432.877	4.16
433.318	4.16
433.759	4.17
434.2	4.19
434.64	4.2
435.081	4.2
435.522	4.21
435.962	4.21
436.403	4.23
436.843	4.24
437.284	4.24
437.724	4.24
438.164	4.24
438.604	4.25
439.045	4.25
439.485	4.26
439.925	4.27
440.365	4.28
440.805	4.29
441.245	4.31
441.685	4.32
442.125	4.34
442.564	4.34
443.004	4.35
443.444	4.35
443.883	4.36
444.323	4.35
444.762	4.35
445.202	4.35
445.641	4.36
446.081	4.35
446.52	4.33
446.959	4.33
447.398	4.34
447.837	4.35
448.276	4.35
448.716	4.35
449.154	4.37
449.593	4.38
450.032	4.38
450.471	4.37
450.91	4.36
451.349	4.38
451.787	4.38
452.226	4.37
452.664	4.37
453.103	4.36
453.541	4.36
453.98	4.36
454.418	4.34
454.856	4.35
455.295	4.35
455.733	4.32
456.171	4.33
456.609	4.33
457.047	4.32
457.485	4.32
457.923	4.31
458.361	4.31
458.798	4.31
459.236	4.32
459.674	4.31
460.111	4.31
460.549	4.33
460.987	4.32
461.424	4.32
461.862	4.33
462.299	4.33
462.736	4.35
463.173	4.35
463.611	4.34
464.048	4.35
464.485	4.36
464.922	4.36
465.359	4.37
465.796	4.38
466.233	4.38
466.67	4.37
467.106	4.38
467.543	4.37
467.98	4.36
468.416	4.35
468.853	4.35
469.29	4.34
469.726	4.34
470.162	4.34
470.599	4.34
471.035	4.33
471.471	4.33
471.907	4.33
472.344	4.32
472.78	4.33
473.216	4.32
473.652	4.32
474.088	4.32
474.523	4.33
474.959	4.33
475.395	4.31
475.831	4.29
476.266	4.29
476.702	4.28
477.138	4.28
477.573	4.27
478.008	4.28
478.444	4.27
478.879	4.27
479.314	4.25
479.75	4.25
480.185	4.24
480.62	4.24
481.055	4.23
481.49	4.23
481.925	4.24
482.36	4.23
482.795	4.23
483.229	4.22
483.664	4.23
484.099	4.23
484.534	4.21
484.968	4.22
485.403	4.23
485.837	4.24
486.271	4.25
486.706	4.26
487.14	4.27
487.574	4.28
488.009	4.3
488.443	4.3
488.877	4.32
489.311	4.35
489.745	4.37
490.179	4.39
490.613	4.41
491.046	4.42
491.48	4.45
491.914	4.47
492.348	4.49
492.781	4.52
493.215	4.56
493.648	4.59
494.082	4.62
494.515	4.65
494.948	4.69
495.382	4.72
495.815	4.76
496.248	4.8
496.681	4.84
497.114	4.89
497.547	4.94
497.98	4.98
498.413	5.03
498.846	5.09
499.279	5.15
499.711	5.21
500.144	5.27
500.577	5.35
501.009	5.41
501.442	5.48
501.874	5.57
502.306	5.64
502.739	5.72
503.171	5.82
503.603	5.91
504.036	6.01
504.468	6.1
504.9	6.2
505.332	6.3
505.764	6.42
506.196	6.55
506.627	6.66
507.059	6.79
507.491	6.92
507.923	7.04
508.354	7.19
508.786	7.33
509.217	7.48
509.649	7.64
510.08	7.78
510.512	7.95
510.943	8.09
511.374	8.25
511.805	8.42
512.237	8.59
512.668	8.77
513.099	8.93
513.53	9.1
513.961	9.29
514.391	9.47
514.822	9.68
515.253	9.85
515.684	10.05
516.114	10.25
516.545	10.45
516.975	10.65
517.406	10.85
517.836	11.05
518.267	11.27
518.697	11.46
519.127	11.66
519.558	11.86
519.988	12.07
520.418	12.26
520.848	12.44
521.278	12.64
521.708	12.98
522.138	13.17
522.567	13.34
522.997	13.52
523.427	13.7
523.857	13.85
524.286	14.01
524.716	14.17
525.145	14.33
525.575	14.49
526.004	14.64
526.433	14.62
526.863	14.75
527.292	14.9
527.721	15.02
528.15	15.15
528.579	15.29
529.008	15.39
529.437	15.5
529.866	15.59
530.295	15.68
530.724	15.77
531.152	15.86
531.581	15.95
532.01	16.01
532.438	16.1
532.867	16.16
533.295	16.24
533.723	16.3
534.152	16.37
534.58	16.44
535.008	16.48
535.436	16.53
535.865	16.58
536.293	16.63
536.721	16.67
537.149	16.71
537.576	16.74
538.004	16.77
538.432	16.8
538.86	16.83
539.287	16.85
539.715	16.9
540.143	16.93
540.57	16.95
540.998	16.97
541.425	16.99
541.852	17.01
542.28	17.03
542.707	17.05
543.134	17.07
543.561	17.1
543.988	17.12
544.415	17.13
544.842	17.13
545.269	17.16
545.696	17.17
546.123	17.2
546.549	17.21
546.976	17.22
547.403	17.24
547.829	17.25
548.256	17.25
548.682	17.27
549.108	17.28
549.535	17.28
549.961	17.28
550.387	17.29
550.813	17.29
551.24	17.29
551.666	17.28
552.092	17.28
552.518	17.28
552.943	17.27
553.369	17.25
553.795	17.23
554.221	17.2
554.646	17.18
555.072	17.14
555.498	17.11
555.923	17.07
556.349	17.03
556.774	16.98
557.199	16.92
557.625	16.85
558.05	16.78
558.475	16.73
558.9	16.68
559.325	16.6
559.75	16.54
560.175	16.47
560.6	16.39
561.025	16.31
561.449	16.22
561.874	16.14
562.299	16.05
562.723	15.96
563.148	15.86
563.572	15.75
563.997	15.64
564.421	15.53
564.846	15.42
565.27	15.31
565.694	15.22
566.118	15.12
566.542	15
566.966	14.9
567.39	14.8
567.814	14.69
568.238	14.59
568.662	14.49
569.086	14.39
569.509	14.29
569.933	14.19
570.357	14.07
570.78	13.97
571.204	13.87
571.627	13.76
572.05	13.66
572.474	13.58
572.897	13.49
573.32	13.4
573.743	13.3
574.166	13.21
574.589	13.12
575.012	13.04
575.435	12.96
575.858	12.87
576.281	12.8
576.704	12.72
577.126	12.64
577.549	12.56
577.972	12.48
578.394	12.42
578.817	12.34
579.239	12.28
579.661	12.21
580.084	12.13
580.506	12.09
580.928	12.03
581.35	11.96
581.772	11.89
582.194	11.84
582.616	11.78
583.038	11.72
583.46	11.66
583.882	11.62
584.303	11.56
584.725	11.52
585.147	11.46
585.568	11.41
585.99	11.36
586.411	11.32
586.833	11.27
587.254	11.22
587.675	11.18
588.096	11.14
588.518	11.09
588.939	11.06
589.36	11.01
589.781	10.98
590.202	10.96
590.623	10.92
591.043	10.89
591.464	10.87
591.885	10.84
592.305	10.81
592.726	10.78
593.147	10.76
593.567	10.73
593.987	10.7
594.408	10.67
594.828	10.64
595.248	10.61
595.669	10.6
596.089	10.57
596.509	10.55
596.929	10.53
597.349	10.5
597.769	10.47
598.189	10.45
598.608	10.44
599.028	10.42
599.448	10.38
599.867	10.35
600.287	10.32
600.706	10.29
601.126	10.26
601.545	10.23
601.965	10.2
602.384	10.17
602.803	10.13
603.222	10.08
603.641	10.05
604.061	10.02
604.48	9.98
604.898	9.94
605.317	9.89
605.736	9.84
606.155	9.8
606.574	9.77
606.992	9.72
607.411	9.67
607.829	9.61
608.248	9.55
608.666	9.49
609.085	9.44
609.503	9.4
609.921	9.36
610.339	9.32
610.758	9.27
611.176	9.21
611.594	9.16
612.012	9.11
612.43	9.08
612.847	9.02
613.265	8.98
613.683	8.94
614.101	8.89
614.518	8.83
614.936	8.78
615.353	8.72
615.771	8.67
616.188	8.63
616.606	8.59
617.023	8.56
617.44	8.53
617.857	8.49
618.274	8.45
618.691	8.41
619.108	8.38
619.525	8.36
619.942	8.33
620.359	8.3
620.776	8.29
621.192	8.27
621.609	8.25
622.026	8.22
622.442	8.21
622.859	8.18
623.275	8.17
623.691	8.16
624.108	8.14
624.524	8.13
624.94	8.12
625.356	8.1
625.772	8.08
626.188	8.07
626.604	8.06
627.02	8.05
627.436	8.04
627.852	8.03
628.268	8.02
628.683	8.02
629.099	8
629.514	7.99
629.93	7.98
630.345	7.97
630.761	7.95
631.176	7.92
631.591	7.89
632.007	7.87
632.422	7.84
632.837	7.81
633.252	7.77
633.667	7.73
634.082	7.67
634.497	7.63
634.911	7.57
635.326	7.51
635.741	7.47
636.155	7.41
636.57	7.35
636.984	7.28
637.399	7.21
637.813	7.14
638.228	7.07
638.642	7.01
639.056	6.93
639.47	6.86
639.884	6.79
640.298	6.71
640.712	6.63
641.126	6.56
641.54	6.48
641.954	6.4
642.368	6.33
642.781	6.26
643.195	6.19
643.609	6.13
644.022	6.07
644.436	6.01
644.849	5.95
645.262	5.9
645.676	5.85
646.089	5.81
646.502	5.76
646.915	5.73
647.328	5.68
647.741	5.65
648.154	5.61
648.567	5.58
648.98	5.55
649.393	5.52
649.805	5.5
650.218	5.47
650.631	5.45
651.043	5.43
651.456	5.41
651.868	5.4
652.28	5.37
652.693	5.35
653.105	5.33
653.517	5.31
653.929	5.29
654.341	5.26
654.753	5.23
655.165	5.2
655.577	5.16
655.989	5.13
656.401	5.09
656.813	5.06
657.224	5.02
657.636	4.97
658.047	4.94
658.459	4.89
658.87	4.85
659.282	4.8
659.693	4.77
660.104	4.72
660.515	4.68
660.926	4.64
661.338	4.6
661.749	4.56
662.159	4.53
662.57	4.49
662.981	4.46
663.392	4.43
663.803	4.42
664.213	4.39
664.624	4.36
665.035	4.34
665.445	4.32
665.855	4.3
666.266	4.29
666.676	4.29
667.086	4.27
667.497	4.26
667.907	4.26
668.317	4.24
668.727	4.24
669.137	4.24
669.547	4.24
669.956	4.24
670.366	4.24
670.776	4.25
671.186	4.26
671.595	4.27
672.005	4.28
672.414	4.3
672.824	4.31
673.233	4.33
673.642	4.35
674.052	4.36
674.461	4.38
674.87	4.4
675.279	4.42
675.688	4.45
676.097	4.46
676.506	4.49
676.915	4.51
677.323	4.55
677.732	4.57
678.141	4.6
678.549	4.63
678.958	4.66
679.366	4.71
679.775	4.74
680.183	4.79
680.592	4.83
681	4.88
681.408	4.93
681.816	4.98
682.224	5.05
682.632	5.11
683.04	5.18
683.448	5.26
683.856	5.32
684.264	5.41
684.671	5.51
685.079	5.62
685.487	5.73
685.894	5.86
686.302	6.01
686.709	6.16
687.116	6.33
687.524	6.52
687.931	6.72
688.338	6.96
688.745	7.2
689.152	7.44
689.559	7.71
689.966	8.01
690.373	8.31
690.78	8.63
691.187	8.95
691.593	9.3
692	9.66
692.407	10.02
692.813	10.39
693.22	10.76
693.626	11.16
694.032	11.55
694.439	11.95
694.845	12.36
695.251	12.77
695.657	13.19
696.063	13.6
696.469	14.01
696.875	14.43
697.281	14.85
697.687	15.27
698.093	15.69
698.498	16.11
698.904	16.53
699.31	16.92
699.715	17.32
700.12	17.73
700.526	18.14
700.931	18.53
701.337	18.93
701.742	19.31
702.147	19.7
702.552	20.08
702.957	20.43
703.362	20.78
703.767	21.14
704.172	21.49
704.577	21.83
704.981	22.16
705.386	22.49
705.791	22.82
706.195	23.14
706.6	23.47
707.004	23.76
707.408	24.08
707.813	24.4
708.217	24.7
708.621	25.01
709.025	25.3
709.43	25.6
709.834	25.88
710.237	26.16
710.641	26.45
711.045	26.75
711.449	27.05
711.853	27.35
712.256	27.62
712.66	27.9
713.064	28.16
713.467	28.44
713.87	28.69
714.274	28.96
714.677	29.21
715.08	29.47
715.484	29.69
715.887	29.94
716.29	30.15
716.693	30.39
717.096	30.61
717.499	30.82
717.901	31.05
718.304	31.27
718.707	31.5
719.109	31.7
719.512	31.9
719.915	32.1
720.317	32.28
720.719	32.46
721.122	32.64
721.524	32.83
721.926	33.03
722.328	33.18
722.731	33.34
723.133	33.47
723.535	33.64
723.937	33.78
724.338	33.94
724.74	34.1
725.142	34.29
725.544	34.43
725.945	34.57
726.347	34.67
726.748	34.81
727.15	34.92
727.551	35.06
727.952	35.15
728.354	35.26
728.755	35.35
729.156	35.46
729.557	35.49
729.958	35.57
730.359	35.65
730.76	35.78
731.161	35.84
731.562	35.94
731.962	35.99
732.363	36.09
732.763	36.15
733.164	36.22
733.564	36.29
733.965	36.37
734.365	36.44
734.766	36.49
735.166	36.52
735.566	36.59
735.966	36.66
736.366	36.73
736.766	36.76
737.166	36.81
737.566	36.85
737.966	36.89
738.365	36.95
738.765	37
739.165	37.06
739.564	37.12
739.964	37.16
740.363	37.17
740.763	37.19
741.162	37.23
741.561	37.26
741.96	37.29
742.36	37.32
742.759	37.32
743.158	37.33
743.557	37.33
743.955	37.36
744.354	37.36
744.753	37.41
745.152	37.46
745.55	37.48
745.949	37.52
746.348	37.56
746.746	37.56
747.144	37.61
747.543	37.63
747.941	37.66
748.339	37.66
748.737	37.68
749.136	37.67
749.534	37.63
749.932	37.65
750.33	37.67
750.727	37.66
751.125	37.69
751.523	37.66
751.921	37.68
752.318	37.7
752.716	37.71
753.113	37.73
753.511	37.74
753.908	37.78
754.305	37.78
754.703	37.78
755.1	37.8
755.497	37.8
755.894	37.83
756.291	37.8
756.688	37.79
757.085	37.8
757.482	37.79
757.878	37.8
758.275	37.81
758.672	37.81
759.068	37.82
759.465	37.82
759.861	37.83
760.258	37.84
760.654	37.86
761.05	37.88
761.447	37.89
761.843	37.89
762.239	37.9
762.635	37.88
763.031	37.89
763.427	37.86
763.822	37.86
764.218	37.85
764.614	37.84
765.01	37.84
765.405	37.84
765.801	37.82
766.196	37.82
766.592	37.81
766.987	37.82
767.382	37.82
767.778	37.84
768.173	37.82
768.568	37.82
768.963	37.81
769.358	37.81
769.753	37.8
770.148	37.8
770.542	37.81
770.937	37.83
771.332	37.83
771.726	37.82
772.121	37.82
772.515	37.82
772.91	37.82
773.304	37.82
773.699	37.82
774.093	37.8
774.487	37.79
774.881	37.79
775.275	37.76
775.669	37.75
776.063	37.72
776.457	37.7
776.851	37.69
777.245	37.64
777.638	37.63
778.032	37.63
778.425	37.64
778.819	37.64
779.212	37.62
779.606	37.62
779.999	37.61
780.392	37.63
780.786	37.63
781.179	37.63
781.572	37.68
781.965	37.69
782.358	37.69
782.751	37.68
783.143	37.68
783.536	37.68
783.929	37.68
784.322	37.71
784.714	37.7
785.107	37.71
785.499	37.71
785.891	37.7
786.284	37.71
786.676	37.71
787.068	37.7
787.46	37.7
787.852	37.71
788.245	37.69
788.636	37.66
789.028	37.64
789.42	37.63
789.812	37.63
790.204	37.63
790.595	37.61
790.987	37.61
791.378	37.64
791.77	37.64
792.161	37.62
792.553	37.67
792.944	37.69
793.335	37.69
793.726	37.7
794.117	37.7
794.508	37.66
794.899	37.65
795.29	37.66
795.681	37.63
796.072	37.64
796.463	37.66
796.853	37.62
797.244	37.6
797.634	37.62
798.025	37.63
798.415	37.64
798.806	37.67
799.196	37.66
799.586	37.66
799.976	37.67
800.366	37.65
800.756	37.65
801.146	37.63
801.536	37.64
801.926	37.62
802.316	37.6
802.706	37.6
803.095	37.61
803.485	37.6
803.874	37.58
804.264	37.58
804.653	37.59
805.043	37.6
805.432	37.6
805.821	37.6
806.21	37.62
806.599	37.63
806.988	37.62
807.377	37.59
807.766	37.6
808.155	37.59
808.544	37.58
808.933	37.56
809.321	37.55
809.71	37.57
810.098	37.55
810.487	37.54
810.875	37.52
811.264	37.53
811.652	37.54
812.04	37.53
812.428	37.57
812.816	37.56
813.204	37.55
813.592	37.54
813.98	37.54
814.368	37.55
814.756	37.52
815.144	37.52
815.531	37.5
815.919	37.51
816.306	37.5
816.694	37.48
817.081	37.5
817.469	37.53
817.856	37.53
818.243	37.52
818.63	37.51
819.017	37.52
819.404	37.51
819.791	37.52
820.178	37.5
820.565	37.48
820.952	37.48
821.339	37.48
821.725	37.46
822.112	37.48
822.498	37.48
822.885	37.48
823.271	37.47
823.657	37.44
824.044	37.45
824.43	37.47
824.816	37.49
825.202	37.48
825.588	37.48
825.974	37.48
826.36	37.45
826.746	37.44
827.132	37.44
827.517	37.45
827.903	37.49
828.289	37.51
828.674	37.49
829.06	37.46
829.445	37.45
829.83	37.44
830.216	37.44
830.601	37.46
830.986	37.48
831.371	37.47
831.756	37.48
832.141	37.46
832.526	37.45
832.911	37.44
833.295	37.47
833.68	37.48
834.065	37.48
834.449	37.47
834.834	37.42
835.218	37.42
835.603	37.42
835.987	37.39
836.371	37.41
836.755	37.41
837.139	37.41
837.524	37.4
837.908	37.43
838.291	37.44
838.675	37.45
839.059	37.48
839.443	37.46
839.827	37.45
840.21	37.46
840.594	37.47
840.977	37.47
841.361	37.47
841.744	37.47
842.127	37.45
842.511	37.41
842.894	37.41
843.277	37.41
843.66	37.4
844.043	37.41
844.426	37.41
844.809	37.41
845.191	37.4
845.574	37.39
845.957	37.4
846.339	37.39
846.722	37.4
847.104	37.39
847.487	37.39
847.869	37.39
848.252	37.4
848.634	37.39
849.016	37.4
849.398	37.4
849.78	37.4
850.162	37.38
850.544	37.39
850.926	37.39
851.307	37.38
851.689	37.38
852.071	37.41
852.452	37.4
852.834	37.41
853.215	37.4
853.597	37.4
853.978	37.38
854.359	37.39
854.741	37.38
855.122	37.37
855.503	37.38
855.884	37.39
856.265	37.37
856.646	37.35
857.026	37.35
857.407	37.36
857.788	37.34
858.169	37.37
858.549	37.35
858.93	37.35
859.31	37.37
859.69	37.38
860.071	37.38
860.451	37.37
860.831	37.37
861.211	37.36
861.591	37.34
861.971	37.33
862.351	37.33
862.731	37.35
863.111	37.34
863.491	37.34
863.87	37.32
864.25	37.29
864.629	37.29
865.009	37.32
865.388	37.3
865.768	37.32
866.147	37.33
866.526	37.31
866.905	37.32
867.284	37.33
867.663	37.3
868.042	37.31
868.421	37.35
868.8	37.34
869.179	37.33
869.558	37.33
869.936	37.32
870.315	37.31
870.693	37.32
871.072	37.32
871.45	37.34
871.828	37.36
872.207	37.36
872.585	37.34
872.963	37.34
873.341	37.35
873.719	37.36
874.097	37.37
874.475	37.4
874.853	37.4
875.23	37.43
875.608	37.41
875.986	37.43
876.363	37.44
876.741	37.45
877.118	37.47
877.495	37.47
877.873	37.49
878.25	37.49
878.627	37.49
879.004	37.48
879.381	37.46
879.758	37.47
880.135	37.45
880.512	37.44
880.889	37.44
881.265	37.42
881.642	37.41
882.019	37.41
882.395	37.42
882.772	37.4
883.148	37.38
883.524	37.36
883.901	37.35
884.277	37.35
884.653	37.33
885.029	37.34
885.405	37.36
885.781	37.37
886.157	37.35
886.532	37.35
886.908	37.35
887.284	37.36
887.659	37.36
888.035	37.35
888.411	37.35
888.786	37.36
889.161	37.36
889.537	37.34
889.912	37.34
890.287	37.34
890.662	37.34
891.037	37.34
891.412	37.33
891.787	37.31
892.162	37.33
892.536	37.31
892.911	37.3
893.286	37.31
893.66	37.3
894.035	37.3
894.409	37.28
894.784	37.28
895.158	37.29
895.532	37.29
895.906	37.31
896.281	37.3
896.655	37.3
897.029	37.31
897.402	37.29
897.776	37.31
898.15	37.31
898.524	37.34
898.898	37.33
899.271	37.34
899.645	37.36
900.018	37.36
900.392	37.37
900.765	37.39
901.138	37.41
901.511	37.42
901.884	37.43
902.258	37.45
902.631	37.42
903.003	37.44
903.376	37.42
903.749	37.41
904.122	37.44
904.495	37.45
904.867	37.46
905.24	37.47
905.612	37.45
905.985	37.44
906.357	37.43
906.729	37.45
907.102	37.46
907.474	37.47
907.846	37.47
908.218	37.42
908.59	37.42
908.962	37.43
909.334	37.42
909.705	37.42
910.077	37.39
910.449	37.39
910.82	37.38
911.192	37.36
911.563	37.35
911.935	37.31
912.306	37.34
912.677	37.33
913.048	37.32
913.419	37.31
913.79	37.31
914.161	37.34
914.532	37.36
914.903	37.37
915.274	37.38
915.645	37.42
916.015	37.43
916.386	37.43
916.756	37.43
917.127	37.43
917.497	37.44
917.868	37.47
918.238	37.45
918.608	37.47
918.978	37.46
919.348	37.44
919.718	37.42
920.088	37.41
920.458	37.4
920.828	37.39
921.198	37.38
921.567	37.38
921.937	37.36
922.306	37.37
922.676	37.32
923.045	37.32
923.415	37.33
923.784	37.34
924.153	37.39
924.522	37.41
924.891	37.43
925.26	37.44
925.629	37.46
925.998	37.44
926.367	37.42
926.736	37.45
927.104	37.49
927.473	37.48
927.842	37.45
928.21	37.46
928.578	37.43
928.947	37.41
929.315	37.42
929.683	37.38
930.051	37.38
930.42	37.4
930.788	37.38
931.156	37.33
931.523	37.32
931.891	37.37
932.259	37.36
932.627	37.37
932.994	37.4
933.362	37.38
933.729	37.4
934.097	37.42
934.464	37.44
934.831	37.48
935.199	37.5
935.566	37.54
935.933	37.53
936.3	37.51
936.667	37.5
937.034	37.54
937.401	37.61
937.767	37.62
938.134	37.63
938.501	37.59
938.867	37.57
939.234	37.56
939.6	37.54
939.967	37.55
940.333	37.54
940.699	37.6
941.065	37.48
941.431	37.4
941.798	37.34
942.163	37.33
942.529	37.33
942.895	37.29
943.261	37.29
943.627	37.26
943.992	37.24
944.358	37.2
944.723	37.15
945.089	37.14
945.454	37.15
945.82	37.14
946.185	37.09
946.55	37.09
946.915	37.11
947.28	37.05
947.645	37.09
948.01	37.07
948.375	37.09
948.74	37.05
949.104	37.11
949.469	37.1
949.834	37.12
950.198	37.14
950.562	37.1
950.927	37.08
951.291	37.05
951.655	36.95
952.02	36.92
952.384	36.89
952.748	36.85
953.112	36.81
953.476	36.77
953.839	36.77
954.203	36.72
954.567	36.72
954.931	36.72
955.294	36.72
955.658	36.78
956.021	36.76
956.385	36.73
956.748	36.72
957.111	36.74
957.474	36.76
957.837	36.7
958.2	36.7
958.563	36.67
958.926	36.66
959.289	36.73
959.652	36.7
960.015	36.72
960.377	36.73
960.74	36.76
961.102	36.76
961.465	36.77
961.827	36.84
962.189	36.87
962.552	36.89
962.914	36.87
963.276	36.82
963.638	36.82
964	36.82
964.362	36.83
964.724	36.82
965.085	36.77
965.447	36.77
965.809	36.75
966.17	36.74
966.532	36.73
966.893	36.77
967.255	36.76
967.616	36.79
967.977	36.8
968.338	36.81
968.699	36.76
969.061	36.81
969.421	36.79
969.782	36.81
970.143	36.82
970.504	36.81
970.865	36.82
971.225	36.83
971.586	36.79
971.946	36.79
972.307	36.77
972.667	36.79
973.027	36.82
973.388	36.82
973.748	36.85
974.108	36.89
974.468	36.88
974.828	36.89
975.188	36.89
975.548	36.91
975.907	36.94
976.267	36.94
976.627	36.99
976.986	36.95
977.346	36.9
977.705	36.85
978.064	36.82
978.424	36.87
978.783	36.82
979.142	36.83
979.501	36.84
979.86	36.8
980.219	36.82
980.578	36.83
980.937	36.83
981.296	36.91
981.654	36.93
982.013	36.97
982.371	36.95
982.73	36.97
983.088	36.98
983.447	36.97
983.805	36.96
984.163	36.95
984.521	36.94
984.879	36.91
985.237	36.87
985.595	36.87
985.953	36.83
986.311	36.81
986.669	36.83
987.026	36.85
987.384	36.83
987.741	36.82
988.099	36.9
988.456	36.9
988.814	36.93
989.171	37
989.528	36.99
989.885	36.94
990.242	37
990.599	37.03
990.956	37.07
991.313	37.11
991.67	37.16
992.027	37.2
992.383	37.22
992.74	37.24
993.096	37.12
993.453	37.13
993.809	37.23
994.165	37.23
994.522	37.22
994.878	37.17
995.234	37.17
995.59	37.17
995.946	37.1
996.302	37.09
996.658	37.13
997.013	37.17
997.369	37.22
997.725	37.19
998.08	37.21
998.436	37.2
998.791	37.24
999.147	37.22
999.502	37.26
999.857	37.21
1000.212	37.13
1000.567	37.08
1000.922	37.13
1001.277	37.12
1001.632	37.03
1001.987	36.92
1002.342	36.88
1002.696	36.81
1003.051	36.9
1003.406	37.03
1003.76	37.14
1004.114	37.16
1004.469	37.2
1004.823	37.42
1005.177	37.38
1005.531	37.5
1005.885	37.58
1006.239	37.6
1006.593	37.72
1006.947	37.65
1007.301	37.52
1007.655	37.53
1008.008	37.59
1008.362	37.66
1008.715	37.45
1009.069	37.54
1009.422	37.39
1009.776	37.39
1010.129	37.44
1010.482	37.34
1010.835	37.37
1011.188	37.48
1011.541	37.39
1011.894	37.36
1012.247	37.34
1012.6	37.28
1012.952	37.22
1013.305	37.33
1013.657	37.45
1014.01	37.52
1014.362	37.69
1014.715	37.82
1015.067	37.61
1015.419	37.7
1015.771	37.68
1016.123	37.56
1016.475	37.73
1016.827	37.79
1017.179	37.92
1017.531	37.93
1017.883	37.93
1018.234	37.84
1018.586	37.71
1018.938	37.76
1019.289	37.65
1019.64	37.75
1019.992	37.94
1020.343	37.85
1020.694	37.91
1021.045	37.76
1021.396	37.63
1021.747	37.64
1022.098	37.64
1022.449	37.55
1022.8	37.7
1023.151	37.83
1023.501	37.92
1023.852	37.76
1024.202	37.72
1024.553	37.5
1024.903	37.64
1025.253	37.83
1025.604	37.89
1025.954	37.93
1026.304	38.02
1026.654	38.2
1027.004	38.06
1027.354	37.94
1027.703	37.81
1028.053	37.8
1028.403	38.2
1028.753	37.87
1029.102	37.83
1029.452	37.76
1029.801	37.87
1030.15	37.89
1030.499	37.55
897.758	460.86
901.051	462.81
904.343	462.28
907.636	467.97
910.928	455.42
914.22	460.08
917.511	452.86
920.803	436.41
924.094	432.49
927.384	423.53
930.675	406.32
933.965	404.5
937.255	380.93
940.544	367.28
943.834	352.56
947.123	350.07
950.411	329.99
953.7	323.19
956.988	307.74
960.276	300.67
963.563	294.31
966.851	283.45
970.138	281.72
973.424	275.44
976.711	276.03
979.997	262.27
983.283	261.04
986.568	255.33
989.853	248.2
993.138	242.95
996.423	232.56
999.708	227.85
1002.992	226
1006.275	216.94
1009.559	214.59
1012.842	207.34
1016.125	204.35
1019.408	201.05
1022.69	198.79
1025.972	194.67
1029.254	191.38
1032.536	188.63
1035.817	185.73
1039.098	183.76
1042.379	180.61
1045.659	179.25
1048.939	175.36
1052.219	171.38
1055.498	168.89
1058.778	164.88
1062.057	162.91
1065.335	160.82
1068.614	158.7
1071.892	156.52
1075.17	153.76
1078.447	151.42
1081.724	150.08
1085.001	149.24
1088.278	147.05
1091.554	144.21
1094.83	144.87
1098.106	143.9
1101.382	142.98
1104.657	141.8
1107.932	140
1111.206	140.1
1114.481	136.71
1117.755	136.1
1121.029	134.99
1124.302	134.23
1127.575	133.21
1130.848	131.37
1134.121	130.19
1137.393	129.06
1140.665	126.6
1143.937	126.14
1147.208	125.32
1150.48	124.94
1153.75	122.49
1157.021	122.09
1160.291	121.91
1163.561	119.93
1166.831	120.42
1170.101	119.18
1173.37	120.6
1176.639	121.36
1179.907	119.61
1183.176	118.41
1186.444	118.15
1189.711	118.72
1192.979	117.5
1196.246	117.6
1199.513	118.44
1202.78	117.21
1206.046	117.45
1209.312	114.77
1212.578	114.75
1215.843	116.04
1219.108	116.02
1222.373	117.95
1225.638	118.37
1228.902	119.45
1232.166	120.11
1235.43	119.75
1238.693	121.46
1241.956	121.52
1245.219	123.52
1248.482	124.22
1251.744	123.94
1255.006	123.6
1258.268	122.06
1261.529	121.21
1264.79	120.56
1268.051	119.09
1271.312	119.15
1274.572	117.47
1277.832	117.43
1281.092	115.39
1284.351	114.13
1287.61	114.28
1290.869	113.36
1294.128	112.56
1297.386	112.33
1300.644	112.14
1303.902	111.55
1307.159	110.57
1310.416	110.8
1313.673	109.74
1316.93	110.39
1320.186	110.23
1323.442	110.44
1326.697	111.02
1329.953	111.15
1333.208	111.34
1336.463	111.45
1339.717	112.28
1342.972	113.36
1346.226	114.47
1349.479	115.01
1352.733	116.23
1355.986	117.24
1359.238	116.7
1362.491	116.76
1365.743	116.87
1368.995	116.62
1372.247	116.64
1375.498	116.11
1378.749	116.15
1382	114.06
1385.251	113.56
1388.501	112.06
1391.751	110.36
1395	109.98
1398.25	108.91
1401.499	107.12
1404.748	106.09
1407.996	105.01
1411.244	104.18
1414.492	103.34
1417.74	101.19
1420.987	100.85
1424.234	99.95
1427.481	98.81
1430.728	98.37
1433.974	97.05
1437.22	96.61
1440.465	97.11
1443.711	95.19
1446.956	94.21
1450.201	93.39
1453.445	93.75
1456.689	92.62
1459.933	91.38
1463.177	90.89
1466.42	89.7
1469.663	89.13
1472.906	88.52
1476.148	85.86
1479.391	85.73
1482.633	85.51
1485.874	83.78
1489.115	82.72
1492.356	82.4
1495.597	82.09
1498.838	81.57
1502.078	81.36
1505.318	81.2
1508.557	81.36
1511.797	81.54
1515.036	81.18
1518.274	81.35
1521.513	81.66
1524.751	81.39
1527.989	81.28
1531.227	81.59
1534.464	81.31
1537.701	81.23
1540.938	81.15
1544.174	81.03
1547.41	81.04
1550.646	80.62
1553.882	80.44
1557.117	79.73
1560.352	79.47
1563.587	79.45
1566.821	79.04
1570.055	78.9
1573.289	78.43
1576.523	78.49
1579.756	77.36
1582.989	77.5
1586.222	77.64
1589.454	77.27
1592.686	78.27
1595.918	77.89
1599.15	77.66
1602.381	77.99
1605.612	78.05
1608.843	78.03
1612.073	77.73
1615.303	78.88
1618.533	78.92
1621.762	79.19
1624.992	79.5
1628.221	79
1631.449	79.18
1634.678	78.71
1637.906	78.87
1641.134	79.24
1644.361	79.3
1647.588	79.43
1650.815	79.09
1654.042	79.17
1657.269	78.92
1660.495	79.02
1663.72	79.55
1666.946	79.8
1670.171	80.54
1673.396	80.18
1676.621	80.19
1679.845	80.42
1683.069	81.17
1686.293	81.14
1689.517	81.22
1692.74	81.65
1695.963	81.45
1699.185	81.04
1702.408	81.26
1705.63	81.44
1708.852	81.93
1712.073	81.89
1715.294	82.01
1718.515	81.73
1721.736	81.94
1724.956	82.48
1728.176	82.22
1731.396	82.69
1734.616	83.16
1737.835	83.24
1741.054	82.9
1744.272	83.01
1747.491	83.44
1750.709	83.43
1753.927	83.56
1757.144	83.44
1760.361	83.1
1763.578	83.18
1766.795	82.91
1770.011	82.9
1773.227	83.29
1776.443	83.65
1779.658	83.53
1782.874	83.59
1786.089	83.4
1789.303	83.76
1792.518	84.15
1795.732	84.27
1798.945	84.86
1802.159	85.21
1805.372	85.47
1808.585	85.93
1811.797	86.24
1815.01	86.82
1818.222	87.06
1821.434	88.11
1824.645	87.9
1827.856	89.74
1831.067	89.74
1834.278	90.08
1837.488	90.47
1840.698	90.98
1843.908	90.43
1847.117	90.61
1850.326	90.62
1853.535	90.06
1856.744	90.45
1859.952	89.84
1863.16	88.18
1866.368	87.52
1869.575	87.59
1872.782	86.19
1875.989	84.61
1879.196	84.57
1882.402	83.03
1885.608	82.15
1888.814	81.71
1892.019	80.35
1895.224	80.3
1898.429	79.89
1901.634	80.07
1904.838	79.51
1908.042	79.5
1911.246	79.6
1914.449	79.44
1917.652	80.21
1920.855	80.7
1924.058	80.07
1927.26	80.41
1930.462	80.42
1933.664	81.23
1936.865	80.86
1940.066	80.08
1943.267	80.49
1946.467	80.77
1949.668	80.6
1952.868	81.34
1956.067	81.47
1959.267	82.53
1962.466	82.44
1965.665	81.7
1968.863	81.61
1972.061	82.62
1975.259	83.11
1978.457	83.57
1981.654	84.42
1984.852	85.1
1988.048	84.8
1991.245	85.84
1994.441	85.73
1997.637	87.35
2000.833	89.4
2004.028	90.38
2007.223	91.27
2010.418	92.82
2013.613	94.17
2016.807	95.5
2020.001	96.17
2023.194	98.28
2026.388	100.68
2029.581	102.92
2032.774	103.39
2035.966	105.14
2039.158	106.6
2042.35	108.18
2045.542	108.43
2048.733	110.3
2051.924	110.45
2055.115	113.32
2058.306	113.4
2061.496	113.73
2064.686	114.38
2067.875	116.06
2071.065	116.32
2074.254	115.77
2077.442	117.52
2080.631	117.9
2083.819	118.96
2087.007	121.17
2090.195	121.74
2093.382	122.3
2096.569	121.92
2099.756	124.8
2102.942	125.03
2106.128	126.41
2109.314	128.7
2112.5	128.35
2115.685	131.96
2118.87	132.32
2122.055	134.7
2125.239	135.33
2128.424	137.44
2131.608	139.25
2134.791	140.41
2137.974	139.95
2141.157	141.59
2144.34	142.04
2147.523	142.85
2150.705	142.55
2153.887	144.16
2157.068	143.71
2160.25	143.27
2163.431	144.18
2166.611	144.65
2169.792	146.96
2172.972	149.94
2176.152	149.79
2179.331	151.39
2182.511	154.81
2185.69	154.82
2188.868	157.77
2192.047	158.26
2195.225	162.6
2198.403	165.4
2201.58	169.03
2204.758	172.44
2207.935	175.1
2211.111	178.64
2214.288	181.76
2217.464	181.88
2220.64	185.51
2223.815	186.06
2226.991	193.2
2230.166	192.91
2233.34	196.62
2236.515	199.28
2239.689	198.85
2242.863	198.87
2246.036	205.29
2249.209	203.07
2252.382	207.07
2255.555	212.12
2258.727	214.8
2261.9	218.73
2265.071	220.75
2268.243	223.56
2271.414	224.79
2274.585	229.79
2277.756	232.9
2280.926	237.12
2284.096	243.21
2287.266	245.81
2290.436	248.57
2293.605	251.86
2296.774	256.58
2299.942	263.03
2303.111	266.76
2306.279	273.14
2309.447	274.66
2312.614	284.63
2315.781	285.16
2318.948	298.89
2322.115	297.14
2325.281	313.42
2328.447	310.18
2331.613	320.29
2334.779	318.25
2337.944	327.99
2341.109	332.04
2344.274	343.88
2347.438	353.38
2350.602	356.23
2353.766	366.32
2356.929	372.56
2360.092	368.17
2363.255	392.33
2366.418	393.9
2369.58	401.51
2372.742	427.21
2375.904	438.77
2379.066	436.89
2382.227	428.2
2385.388	462.48
2388.548	459.84
2391.709	465.92
2394.869	518.25
2398.029	501.15
2401.188	512.36
2404.347	506.77
2407.506	499.53
2410.665	511.78
2413.823	540.05
2416.981	572.67
2420.139	552.02
2423.296	548.62
2426.453	571.81
2429.61	557.63
2432.767	574.92
2435.923	571.78
2439.079	631.04
2442.235	640.43
2445.391	635.3
2448.546	628.85
2451.701	610.22
2454.855	613.51
2458.009	647.7
2461.163	678.62
2464.317	698.38
2467.471	718.85
2470.624	718.02
2473.777	697.63
2476.929	680.81
2480.082	663.13
2483.234	660.53
2486.385	698.76
2489.537	701.15
2492.688	727.7
2495.839	699.39
2498.989	685.81
2502.14	687.19
2505.29	690.57
2508.439	697.23
2511.589	695.35
2514.738	757.37
2517.887	738.81
2521.035	776.91
2524.183	780.29
2527.331	785.3
2530.479	782.47
2533.627	783.62
