Data from N_1_DEC_NC_4n_Splice17_12-17-50-305.txt Node
Date: Sat Mar 07 12:17:50 EST 2020
User: sa697716
Spectrometer: NQ5500242
Trigger mode: 0
Integration Time (sec): 1.450000E-1
Scans to average: 20
Nonlinearity correction enabled: false
Boxcar width: 5
Storing dark spectrum: false
XAxis mode: Wavelengths
Number of Pixels in Spectrum: 512
>>>>>Begin Spectral Data<<<<<
187.83	79.17
188.298	86.49
188.766	53.87
189.233	47.7
189.701	41.82
190.169	60.94
190.636	37.46
191.104	61.85
191.571	78.34
192.039	197.12
192.506	-261.12
192.974	86.86
193.441	142.66
193.908	18.02
194.375	8.74
194.842	-22.71
195.31	29.16
195.777	-81.92
196.244	14.82
196.711	23.24
197.177	27.75
197.644	26.94
198.111	26.55
198.578	26.64
199.045	26.67
199.511	26.84
199.978	26.86
200.445	26.97
200.911	26.85
201.378	27.29
201.844	27.56
202.31	27.18
202.777	27.29
203.243	27.54
203.709	27.51
204.176	27.3
204.642	27.25
205.108	27.44
205.574	27.36
206.04	27.05
206.506	26.59
206.972	26.63
207.438	26.3
207.903	25.62
208.369	25.08
208.835	24.6
209.301	24.11
209.766	23.29
210.232	22.4
210.697	21.7
211.163	21.38
211.628	20.91
212.094	20.24
212.559	20.04
213.024	19.71
213.49	19.37
213.955	18.86
214.42	18.43
214.885	18.02
215.35	17.46
215.815	16.49
216.28	15.25
216.745	14.06
217.21	12.72
217.675	11.5
218.14	10.51
218.604	9.68
219.069	8.98
219.534	8.36
219.998	7.85
220.463	7.43
220.927	7.08
221.392	6.81
221.856	6.57
222.32	6.39
222.785	6.22
223.249	6.05
223.713	5.89
224.177	5.78
224.642	5.67
225.106	5.54
225.57	5.42
226.034	5.33
226.497	5.22
226.961	5.12
227.425	5.03
227.889	4.94
228.353	4.87
228.816	4.79
229.28	4.7
229.744	4.64
230.207	4.56
230.671	4.49
231.134	4.42
231.597	4.36
232.061	4.31
232.524	4.25
232.987	4.2
233.45	4.16
233.914	4.11
234.377	4.06
234.84	4.01
235.303	3.99
235.766	3.95
236.229	3.9
236.691	3.85
237.154	3.81
237.617	3.77
238.08	3.72
238.542	3.68
239.005	3.65
239.468	3.62
239.93	3.58
240.393	3.55
240.855	3.52
241.317	3.5
241.78	3.46
242.242	3.44
242.704	3.41
243.166	3.38
243.629	3.36
244.091	3.32
244.553	3.29
245.015	3.26
245.477	3.23
245.939	3.2
246.4	3.18
246.862	3.16
247.324	3.13
247.786	3.1
248.247	3.08
248.709	3.05
249.17	3.02
249.632	3
250.093	2.98
250.555	2.96
251.016	2.93
251.477	2.91
251.939	2.89
252.4	2.88
252.861	2.86
253.322	2.84
253.783	2.83
254.244	2.82
254.705	2.79
255.166	2.78
255.627	2.76
256.088	2.75
256.549	2.74
257.009	2.72
257.47	2.7
257.931	2.68
258.391	2.65
258.852	2.63
259.312	2.61
259.773	2.6
260.233	2.58
260.694	2.57
261.154	2.55
261.614	2.54
262.074	2.52
262.534	2.5
262.994	2.49
263.455	2.48
263.915	2.47
264.374	2.46
264.834	2.45
265.294	2.43
265.754	2.43
266.214	2.42
266.673	2.41
267.133	2.4
267.593	2.4
268.052	2.4
268.512	2.39
268.971	2.39
269.431	2.38
269.89	2.37
270.349	2.36
270.809	2.35
271.268	2.35
271.727	2.34
272.186	2.34
272.645	2.33
273.104	2.32
273.563	2.32
274.022	2.31
274.481	2.31
274.94	2.31
275.399	2.3
275.857	2.3
276.316	2.29
276.775	2.28
277.233	2.28
277.692	2.27
278.15	2.27
278.609	2.26
279.067	2.25
279.525	2.25
279.984	2.24
280.442	2.23
280.9	2.23
281.358	2.23
281.816	2.22
282.274	2.22
282.732	2.22
283.19	2.21
283.648	2.21
284.106	2.2
284.564	2.19
285.021	2.19
285.479	2.19
285.937	2.18
286.394	2.19
286.852	2.18
287.309	2.18
287.767	2.17
288.224	2.16
288.682	2.16
289.139	2.15
289.596	2.14
290.053	2.13
290.511	2.12
290.968	2.11
291.425	2.1
291.882	2.1
292.339	2.09
292.796	2.09
293.252	2.08
293.709	2.08
294.166	2.08
294.623	2.07
295.079	2.06
295.536	2.06
295.992	2.06
296.449	2.05
296.905	2.05
297.362	2.04
297.818	2.04
298.274	2.04
298.731	2.03
299.187	2.02
299.643	2.02
300.099	2.02
300.555	2.01
301.011	2.01
301.467	2
301.923	1.99
302.379	1.99
302.835	2
303.291	1.99
303.746	1.99
304.202	1.99
304.658	1.99
305.113	1.99
305.569	1.99
306.024	1.99
306.479	1.99
306.935	1.99
307.39	1.99
307.845	1.99
308.301	1.98
308.756	1.99
309.211	1.98
309.666	1.99
310.121	1.99
310.576	1.99
311.031	1.98
311.486	1.98
311.94	1.99
312.395	1.99
312.85	1.99
313.305	1.99
313.759	1.99
314.214	1.99
314.668	1.99
315.123	1.98
315.577	1.98
316.032	1.98
316.486	1.97
316.94	1.97
317.394	1.96
317.849	1.95
318.303	1.94
318.757	1.93
319.211	1.93
319.665	1.92
320.119	1.91
320.572	1.9
321.026	1.9
321.48	1.89
321.934	1.89
322.387	1.89
322.841	1.88
323.295	1.89
323.748	1.89
324.202	1.88
324.655	1.89
325.108	1.89
325.562	1.89
326.015	1.89
326.468	1.89
326.921	1.89
327.374	1.88
327.827	1.88
328.28	1.88
328.733	1.89
329.186	1.88
329.639	1.88
330.092	1.88
330.545	1.88
330.997	1.87
331.45	1.88
331.903	1.89
332.355	1.89
332.808	1.89
333.26	1.88
333.713	1.88
334.165	1.87
334.617	1.87
335.069	1.86
335.522	1.87
335.974	1.87
336.426	1.87
336.878	1.86
337.33	1.86
337.782	1.86
338.234	1.86
338.686	1.86
339.137	1.86
339.589	1.86
340.041	1.87
340.493	1.86
340.944	1.85
341.396	1.85
341.847	1.85
342.299	1.84
342.75	1.83
343.201	1.83
343.653	1.82
344.104	1.81
344.555	1.81
345.006	1.81
345.457	1.8
345.908	1.81
346.359	1.81
346.81	1.81
347.261	1.8
347.712	1.8
348.163	1.79
348.613	1.8
349.064	1.81
349.515	1.8
349.965	1.8
350.416	1.79
350.866	1.78
351.317	1.78
351.767	1.78
352.217	1.79
352.668	1.79
353.118	1.79
353.568	1.78
354.018	1.79
354.468	1.8
354.918	1.81
355.368	1.82
355.818	1.82
356.268	1.82
356.718	1.81
357.168	1.81
357.617	1.8
358.067	1.8
358.517	1.81
358.966	1.8
359.416	1.8
359.865	1.8
360.315	1.81
360.764	1.81
361.213	1.8
361.663	1.8
362.112	1.81
362.561	1.82
363.01	1.82
363.459	1.8
363.908	1.8
364.357	1.8
364.806	1.79
365.255	1.79
365.703	1.81
366.152	1.82
366.601	1.83
367.05	1.84
367.498	1.83
367.947	1.84
368.395	1.86
368.844	1.86
369.292	1.87
369.74	1.88
370.189	1.88
370.637	1.88
371.085	1.87
371.533	1.87
371.981	1.87
372.429	1.88
372.877	1.88
373.325	1.88
373.773	1.88
374.221	1.89
374.669	1.9
375.116	1.9
375.564	1.9
376.012	1.91
376.459	1.91
376.907	1.92
377.354	1.93
377.801	1.95
378.249	1.96
378.696	1.96
379.143	1.97
379.591	1.99
380.038	2
380.485	2.03
380.932	2.04
381.379	2.06
381.826	2.08
382.273	2.09
382.72	2.1
383.166	2.12
383.613	2.14
384.06	2.15
384.506	2.17
384.953	2.19
385.4	2.2
385.846	2.23
386.292	2.26
386.739	2.28
387.185	2.31
387.631	2.33
388.078	2.35
388.524	2.38
388.97	2.41
389.416	2.44
389.862	2.46
390.308	2.5
390.754	2.53
391.2	2.57
391.645	2.59
392.091	2.63
392.537	2.66
392.983	2.69
393.428	2.73
393.874	2.75
394.319	2.79
394.765	2.81
395.21	2.83
395.655	2.87
396.101	2.9
396.546	2.93
396.991	2.97
397.436	3
397.881	3.04
398.326	3.08
398.771	3.12
399.216	3.16
399.661	3.2
400.106	3.23
400.551	3.24
400.995	3.26
401.44	3.28
401.885	3.3
402.329	3.32
402.774	3.33
403.218	3.36
403.663	3.38
404.107	3.39
404.551	3.4
404.995	3.42
405.44	3.44
405.884	3.45
406.328	3.48
406.772	3.48
407.216	3.5
407.66	3.51
408.104	3.51
408.547	3.51
408.991	3.53
409.435	3.54
409.879	3.55
410.322	3.56
410.766	3.59
411.209	3.6
411.653	3.62
412.096	3.63
412.54	3.63
412.983	3.65
413.426	3.68
413.869	3.69
414.312	3.72
414.756	3.74
415.199	3.74
415.642	3.74
416.085	3.75
416.527	3.75
416.97	3.74
417.413	3.75
417.856	3.75
418.298	3.74
418.741	3.75
419.184	3.75
419.626	3.75
420.069	3.76
420.511	3.77
420.953	3.77
421.396	3.79
421.838	3.8
422.28	3.81
422.722	3.83
423.164	3.81
423.606	3.81
424.048	3.82
424.49	3.81
424.932	3.81
425.374	3.79
425.816	3.78
426.258	3.76
426.699	3.75
427.141	3.73
427.582	3.72
428.024	3.74
428.465	3.74
428.907	3.72
429.348	3.71
429.789	3.7
430.231	3.71
430.672	3.73
431.113	3.73
431.554	3.74
431.995	3.76
432.436	3.77
432.877	3.77
433.318	3.79
433.759	3.82
434.2	3.83
434.64	3.85
435.081	3.86
435.522	3.87
435.962	3.89
436.403	3.92
436.843	3.94
437.284	3.95
437.724	3.96
438.164	3.96
438.604	3.99
439.045	4
439.485	4.01
439.925	4.03
440.365	4.05
440.805	4.07
441.245	4.1
441.685	4.13
442.125	4.16
442.564	4.19
443.004	4.22
443.444	4.24
443.883	4.3
444.323	4.32
444.762	4.36
445.202	4.38
445.641	4.42
446.081	4.42
446.52	4.45
446.959	4.48
447.398	4.51
447.837	4.55
448.276	4.57
448.716	4.59
449.154	4.64
449.593	4.67
450.032	4.71
450.471	4.72
450.91	4.75
451.349	4.79
451.787	4.81
452.226	4.83
452.664	4.85
453.103	4.86
453.541	4.87
453.98	4.88
454.418	4.89
454.856	4.9
455.295	4.9
455.733	4.89
456.171	4.89
456.609	4.88
457.047	4.87
457.485	4.87
457.923	4.87
458.361	4.87
458.798	4.87
459.236	4.86
459.674	4.85
460.111	4.86
460.549	4.87
460.987	4.87
461.424	4.87
461.862	4.88
462.299	4.88
462.736	4.88
463.173	4.88
463.611	4.87
464.048	4.87
464.485	4.89
464.922	4.89
465.359	4.89
465.796	4.9
466.233	4.91
466.67	4.92
467.106	4.93
467.543	4.94
467.98	4.94
468.416	4.94
468.853	4.95
469.29	4.94
469.726	4.95
470.162	4.96
470.599	4.97
471.035	4.97
471.471	4.97
471.907	4.97
472.344	4.99
472.78	4.99
473.216	5
473.652	5.01
474.088	5.01
474.523	5.03
474.959	5.02
475.395	5.02
475.831	5.02
476.266	5.04
476.702	5.03
477.138	5.03
477.573	5.04
478.008	5.06
478.444	5.07
478.879	5.08
479.314	5.08
479.75	5.09
480.185	5.08
480.62	5.09
481.055	5.09
481.49	5.1
481.925	5.11
482.36	5.11
482.795	5.11
483.229	5.11
483.664	5.13
484.099	5.14
484.534	5.16
484.968	5.19
485.403	5.21
485.837	5.24
486.271	5.27
486.706	5.29
487.14	5.32
487.574	5.35
488.009	5.4
488.443	5.42
488.877	5.48
489.311	5.51
489.745	5.55
490.179	5.6
490.613	5.64
491.046	5.68
491.48	5.74
491.914	5.8
492.348	5.87
492.781	5.92
493.215	5.99
493.648	6.05
494.082	6.13
494.515	6.19
494.948	6.27
495.382	6.35
495.815	6.44
496.248	6.53
496.681	6.61
497.114	6.71
497.547	6.81
497.98	6.9
498.413	7
498.846	7.11
499.279	7.23
499.711	7.34
500.144	7.46
500.577	7.57
501.009	7.69
501.442	7.81
501.874	7.94
502.306	8.07
502.739	8.22
503.171	8.36
503.603	8.5
504.036	8.65
504.468	8.8
504.9	8.94
505.332	9.1
505.764	9.26
506.196	9.43
506.627	9.6
507.059	9.78
507.491	9.94
507.923	10.13
508.354	10.31
508.786	10.49
509.217	10.68
509.649	10.87
510.08	11.07
510.512	11.26
510.943	11.44
511.374	11.64
511.805	11.83
512.237	12.03
512.668	12.22
513.099	12.42
513.53	12.62
513.961	12.82
514.391	13.02
514.822	13.23
515.253	13.42
515.684	13.64
516.114	13.84
516.545	14.03
516.975	14.23
517.406	14.42
517.836	14.6
518.267	14.8
518.697	14.98
519.127	15.15
519.558	15.33
519.988	15.52
520.418	15.69
520.848	15.87
521.278	16.05
521.708	16.36
522.138	16.54
522.567	16.7
522.997	16.83
523.427	16.98
523.857	17.13
524.286	17.27
524.716	17.4
525.145	17.53
525.575	17.65
526.004	17.77
526.433	17.73
526.863	17.84
527.292	17.95
527.721	18.06
528.15	18.16
528.579	18.26
529.008	18.35
529.437	18.42
529.866	18.51
530.295	18.57
530.724	18.64
531.152	18.7
531.581	18.76
532.01	18.82
532.438	18.88
532.867	18.92
533.295	18.98
533.723	19.02
534.152	19.07
534.58	19.1
535.008	19.15
535.436	19.19
535.865	19.23
536.293	19.27
536.721	19.3
537.149	19.33
537.576	19.36
538.004	19.39
538.432	19.42
538.86	19.45
539.287	19.47
539.715	19.5
540.143	19.53
540.57	19.55
540.998	19.57
541.425	19.61
541.852	19.63
542.28	19.67
542.707	19.69
543.134	19.72
543.561	19.74
543.988	19.77
544.415	19.78
544.842	19.78
545.269	19.79
545.696	19.82
546.123	19.83
546.549	19.84
546.976	19.85
547.403	19.84
547.829	19.84
548.256	19.85
548.682	19.85
549.108	19.86
549.535	19.88
549.961	19.89
550.387	19.88
550.813	19.89
551.24	19.88
551.666	19.86
552.092	19.87
552.518	19.87
552.943	19.87
553.369	19.86
553.795	19.84
554.221	19.82
554.646	19.8
555.072	19.76
555.498	19.73
555.923	19.71
556.349	19.68
556.774	19.63
557.199	19.6
557.625	19.55
558.05	19.53
558.475	19.5
558.9	19.47
559.325	19.43
559.75	19.39
560.175	19.35
560.6	19.3
561.025	19.26
561.449	19.21
561.874	19.14
562.299	19.09
562.723	19.01
563.148	18.94
563.572	18.87
563.997	18.8
564.421	18.72
564.846	18.63
565.27	18.55
565.694	18.48
566.118	18.42
566.542	18.36
566.966	18.28
567.39	18.21
567.814	18.14
568.238	18.06
568.662	17.99
569.086	17.94
569.509	17.88
569.933	17.82
570.357	17.73
570.78	17.65
571.204	17.57
571.627	17.5
572.05	17.42
572.474	17.36
572.897	17.28
573.32	17.22
573.743	17.15
574.166	17.08
574.589	17.01
575.012	16.95
575.435	16.89
575.858	16.83
576.281	16.76
576.704	16.7
577.126	16.63
577.549	16.58
577.972	16.51
578.394	16.45
578.817	16.37
579.239	16.32
579.661	16.25
580.084	16.21
580.506	16.15
580.928	16.1
581.35	16.04
581.772	15.98
582.194	15.95
582.616	15.91
583.038	15.86
583.46	15.82
583.882	15.78
584.303	15.73
584.725	15.68
585.147	15.65
585.568	15.62
585.99	15.58
586.411	15.54
586.833	15.49
587.254	15.43
587.675	15.4
588.096	15.36
588.518	15.32
588.939	15.29
589.36	15.25
589.781	15.21
590.202	15.17
590.623	15.14
591.043	15.11
591.464	15.08
591.885	15.05
592.305	15.02
592.726	15.01
593.147	14.98
593.567	14.94
593.987	14.92
594.408	14.89
594.828	14.86
595.248	14.84
595.669	14.82
596.089	14.8
596.509	14.77
596.929	14.75
597.349	14.73
597.769	14.69
598.189	14.67
598.608	14.65
599.028	14.64
599.448	14.61
599.867	14.59
600.287	14.57
600.706	14.55
601.126	14.52
601.545	14.5
601.965	14.47
602.384	14.45
602.803	14.42
603.222	14.39
603.641	14.35
604.061	14.31
604.48	14.27
604.898	14.21
605.317	14.17
605.736	14.13
606.155	14.08
606.574	14.04
606.992	13.99
607.411	13.95
607.829	13.88
608.248	13.82
608.666	13.77
609.085	13.73
609.503	13.68
609.921	13.63
610.339	13.59
610.758	13.53
611.176	13.48
611.594	13.43
612.012	13.39
612.43	13.35
612.847	13.31
613.265	13.26
613.683	13.21
614.101	13.17
614.518	13.13
614.936	13.07
615.353	13.02
615.771	12.99
616.188	12.94
616.606	12.91
617.023	12.87
617.44	12.84
617.857	12.8
618.274	12.77
618.691	12.72
619.108	12.68
619.525	12.64
619.942	12.62
620.359	12.58
620.776	12.56
621.192	12.52
621.609	12.5
622.026	12.48
622.442	12.46
622.859	12.44
623.275	12.43
623.691	12.43
624.108	12.43
624.524	12.41
624.94	12.41
625.356	12.4
625.772	12.39
626.188	12.38
626.604	12.37
627.02	12.36
627.436	12.36
627.852	12.35
628.268	12.34
628.683	12.32
629.099	12.31
629.514	12.3
629.93	12.29
630.345	12.28
630.761	12.25
631.176	12.23
631.591	12.21
632.007	12.18
632.422	12.13
632.837	12.09
633.252	12.05
633.667	12
634.082	11.92
634.497	11.86
634.911	11.8
635.326	11.72
635.741	11.64
636.155	11.55
636.57	11.46
636.984	11.38
637.399	11.28
637.813	11.19
638.228	11.09
638.642	10.99
639.056	10.87
639.47	10.76
639.884	10.66
640.298	10.54
640.712	10.43
641.126	10.32
641.54	10.19
641.954	10.07
642.368	9.94
642.781	9.83
643.195	9.72
643.609	9.61
644.022	9.51
644.436	9.41
644.849	9.31
645.262	9.22
645.676	9.13
646.089	9.05
646.502	8.98
646.915	8.92
647.328	8.86
647.741	8.78
648.154	8.73
648.567	8.67
648.98	8.61
649.393	8.56
649.805	8.52
650.218	8.48
650.631	8.44
651.043	8.4
651.456	8.36
651.868	8.32
652.28	8.3
652.693	8.26
653.105	8.23
653.517	8.19
653.929	8.15
654.341	8.11
654.753	8.05
655.165	7.99
655.577	7.94
655.989	7.88
656.401	7.81
656.813	7.74
657.224	7.66
657.636	7.57
658.047	7.5
658.459	7.4
658.87	7.31
659.282	7.22
659.693	7.13
660.104	7.03
660.515	6.93
660.926	6.83
661.338	6.74
661.749	6.65
662.159	6.55
662.57	6.46
662.981	6.39
663.392	6.3
663.803	6.22
664.213	6.14
664.624	6.06
665.035	5.98
665.445	5.92
665.855	5.85
666.266	5.78
666.676	5.74
667.086	5.67
667.497	5.61
667.907	5.56
668.317	5.52
668.727	5.48
669.137	5.45
669.547	5.43
669.956	5.39
670.366	5.37
670.776	5.34
671.186	5.32
671.595	5.31
672.005	5.3
672.414	5.29
672.824	5.28
673.233	5.28
673.642	5.29
674.052	5.29
674.461	5.3
674.87	5.31
675.279	5.34
675.688	5.37
676.097	5.4
676.506	5.43
676.915	5.46
677.323	5.5
677.732	5.54
678.141	5.59
678.549	5.64
678.958	5.7
679.366	5.78
679.775	5.85
680.183	5.94
680.592	6.05
681	6.17
681.408	6.3
681.816	6.45
682.224	6.6
682.632	6.78
683.04	6.96
683.448	7.17
683.856	7.37
684.264	7.59
684.671	7.83
685.079	8.08
685.487	8.37
685.894	8.66
686.302	8.97
686.709	9.3
687.116	9.63
687.524	9.99
687.931	10.35
688.338	10.72
688.745	11.1
689.152	11.48
689.559	11.87
689.966	12.25
690.373	12.64
690.78	13.04
691.187	13.42
691.593	13.8
692	14.18
692.407	14.55
692.813	14.95
693.22	15.32
693.626	15.7
694.032	16.06
694.439	16.43
694.845	16.77
695.251	17.11
695.657	17.46
696.063	17.78
696.469	18.1
696.875	18.43
697.281	18.72
697.687	19.02
698.093	19.3
698.498	19.58
698.904	19.84
699.31	20.1
699.715	20.36
700.12	20.6
700.526	20.83
700.931	21.08
701.337	21.28
701.742	21.48
702.147	21.68
702.552	21.89
702.957	22.07
703.362	22.26
703.767	22.43
704.172	22.59
704.577	22.76
704.981	22.94
705.386	23.09
705.791	23.25
706.195	23.43
706.6	23.59
707.004	23.73
707.408	23.89
707.813	24.04
708.217	24.18
708.621	24.34
709.025	24.46
709.43	24.57
709.834	24.69
710.237	24.79
710.641	24.9
711.045	24.99
711.449	25.11
711.853	25.24
712.256	25.31
712.66	25.42
713.064	25.51
713.467	25.59
713.87	25.7
714.274	25.8
714.677	25.91
715.08	25.98
715.484	26.1
715.887	26.19
716.29	26.25
716.693	26.35
717.096	26.43
717.499	26.49
717.901	26.58
718.304	26.66
718.707	26.74
719.109	26.81
719.512	26.88
719.915	26.92
720.317	26.97
720.719	27.01
721.122	27.05
721.524	27.11
721.926	27.17
722.328	27.23
722.731	27.27
723.133	27.32
723.535	27.38
723.937	27.44
724.338	27.49
724.74	27.53
725.142	27.63
725.544	27.67
725.945	27.72
726.347	27.75
726.748	27.78
727.15	27.81
727.551	27.83
727.952	27.84
728.354	27.87
728.755	27.9
729.156	27.92
729.557	27.89
729.958	27.91
730.359	27.93
730.76	27.96
731.161	27.97
731.562	28
731.962	28.01
732.363	28.04
732.763	28.05
733.164	28.08
733.564	28.12
733.965	28.15
734.365	28.19
734.766	28.19
735.166	28.21
735.566	28.24
735.966	28.26
736.366	28.28
736.766	28.27
737.166	28.28
737.566	28.28
737.966	28.27
738.365	28.27
738.765	28.26
739.165	28.27
739.564	28.29
739.964	28.3
740.363	28.3
740.763	28.31
741.162	28.33
741.561	28.32
741.96	28.32
742.36	28.33
742.759	28.35
743.158	28.36
743.557	28.38
743.955	28.37
744.354	28.38
744.753	28.41
745.152	28.41
745.55	28.42
745.949	28.44
746.348	28.45
746.746	28.46
747.144	28.45
747.543	28.46
747.941	28.45
748.339	28.45
748.737	28.45
749.136	28.43
749.534	28.43
749.932	28.41
750.33	28.42
750.727	28.43
751.125	28.42
751.523	28.43
751.921	28.41
752.318	28.42
752.716	28.42
753.113	28.4
753.511	28.41
753.908	28.43
754.305	28.46
754.703	28.43
755.1	28.41
755.497	28.41
755.894	28.38
756.291	28.39
756.688	28.37
757.085	28.38
757.482	28.36
757.878	28.35
758.275	28.31
758.672	28.28
759.068	28.3
759.465	28.29
759.861	28.28
760.258	28.3
760.654	28.29
761.05	28.31
761.447	28.3
761.843	28.29
762.239	28.29
762.635	28.3
763.031	28.3
763.427	28.3
763.822	28.32
764.218	28.34
764.614	28.35
765.01	28.35
765.405	28.35
765.801	28.35
766.196	28.37
766.592	28.37
766.987	28.38
767.382	28.38
767.778	28.4
768.173	28.39
768.568	28.38
768.963	28.35
769.358	28.34
769.753	28.33
770.148	28.34
770.542	28.35
770.937	28.37
771.332	28.36
771.726	28.35
772.121	28.33
772.515	28.34
772.91	28.34
773.304	28.35
773.699	28.35
774.093	28.34
774.487	28.33
774.881	28.33
775.275	28.3
775.669	28.27
776.063	28.27
776.457	28.27
776.851	28.25
777.245	28.24
777.638	28.24
778.032	28.26
778.425	28.27
778.819	28.26
779.212	28.27
779.606	28.27
779.999	28.27
780.392	28.3
780.786	28.29
781.179	28.31
781.572	28.33
781.965	28.33
782.358	28.31
782.751	28.31
783.143	28.31
783.536	28.31
783.929	28.31
784.322	28.35
784.714	28.33
785.107	28.34
785.499	28.33
785.891	28.33
786.284	28.33
786.676	28.34
787.068	28.32
787.46	28.31
787.852	28.31
788.245	28.31
788.636	28.29
789.028	28.29
789.42	28.26
789.812	28.28
790.204	28.29
790.595	28.27
790.987	28.27
791.378	28.28
791.77	28.29
792.161	28.27
792.553	28.24
792.944	28.23
793.335	28.23
793.726	28.23
794.117	28.19
794.508	28.14
794.899	28.13
795.29	28.13
795.681	28.12
796.072	28.1
796.463	28.11
796.853	28.12
797.244	28.12
797.634	28.11
798.025	28.13
798.415	28.13
798.806	28.14
799.196	28.15
799.586	28.15
799.976	28.16
800.366	28.13
800.756	28.13
801.146	28.14
801.536	28.14
801.926	28.13
802.316	28.11
802.706	28.12
803.095	28.11
803.485	28.09
803.874	28.07
804.264	28.07
804.653	28.08
805.043	28.09
805.432	28.07
805.821	28.06
806.21	28.06
806.599	28.04
806.988	28.04
807.377	28.04
807.766	28.03
808.155	28
808.544	28
808.933	27.99
809.321	27.96
809.71	27.97
810.098	27.92
810.487	27.89
810.875	27.89
811.264	27.87
811.652	27.87
812.04	27.86
812.428	27.87
812.816	27.84
813.204	27.84
813.592	27.82
813.98	27.81
814.368	27.83
814.756	27.85
815.144	27.84
815.531	27.82
815.919	27.81
816.306	27.8
816.694	27.79
817.081	27.8
817.469	27.79
817.856	27.79
818.243	27.76
818.63	27.75
819.017	27.72
819.404	27.7
819.791	27.69
820.178	27.68
820.565	27.66
820.952	27.65
821.339	27.65
821.725	27.64
822.112	27.64
822.498	27.63
822.885	27.63
823.271	27.64
823.657	27.64
824.044	27.63
824.43	27.63
824.816	27.62
825.202	27.63
825.588	27.61
825.974	27.6
826.36	27.58
826.746	27.59
827.132	27.58
827.517	27.57
827.903	27.58
828.289	27.59
828.674	27.58
829.06	27.59
829.445	27.58
829.83	27.58
830.216	27.57
830.601	27.57
830.986	27.58
831.371	27.56
831.756	27.57
832.141	27.58
832.526	27.58
832.911	27.57
833.295	27.57
833.68	27.57
834.065	27.56
834.449	27.57
834.834	27.57
835.218	27.56
835.603	27.57
835.987	27.56
836.371	27.54
836.755	27.53
837.139	27.53
837.524	27.54
837.908	27.55
838.291	27.57
838.675	27.56
839.059	27.56
839.443	27.57
839.827	27.56
840.21	27.56
840.594	27.55
840.977	27.56
841.361	27.59
841.744	27.56
842.127	27.54
842.511	27.53
842.894	27.54
843.277	27.56
843.66	27.54
844.043	27.54
844.426	27.55
844.809	27.57
845.191	27.58
845.574	27.55
845.957	27.56
846.339	27.56
846.722	27.55
847.104	27.55
847.487	27.52
847.869	27.52
848.252	27.52
848.634	27.51
849.016	27.51
849.398	27.49
849.78	27.48
850.162	27.48
850.544	27.47
850.926	27.47
851.307	27.46
851.689	27.46
852.071	27.46
852.452	27.47
852.834	27.47
853.215	27.45
853.597	27.45
853.978	27.47
854.359	27.47
854.741	27.47
855.122	27.47
855.503	27.45
855.884	27.46
856.265	27.46
856.646	27.42
857.026	27.44
857.407	27.45
857.788	27.43
858.169	27.43
858.549	27.43
858.93	27.44
859.31	27.43
859.69	27.45
860.071	27.46
860.451	27.45
860.831	27.45
861.211	27.42
861.591	27.39
861.971	27.4
862.351	27.39
862.731	27.37
863.111	27.35
863.491	27.35
863.87	27.34
864.25	27.31
864.629	27.32
865.009	27.33
865.388	27.32
865.768	27.34
866.147	27.33
866.526	27.33
866.905	27.34
867.284	27.35
867.663	27.34
868.042	27.34
868.421	27.34
868.8	27.33
869.179	27.33
869.558	27.34
869.936	27.32
870.315	27.31
870.693	27.29
871.072	27.3
871.45	27.29
871.828	27.28
872.207	27.3
872.585	27.3
872.963	27.3
873.341	27.3
873.719	27.29
874.097	27.3
874.475	27.32
874.853	27.33
875.23	27.31
875.608	27.31
875.986	27.35
876.363	27.34
876.741	27.34
877.118	27.33
877.495	27.33
877.873	27.33
878.25	27.33
878.627	27.34
879.004	27.34
879.381	27.35
879.758	27.35
880.135	27.33
880.512	27.33
880.889	27.33
881.265	27.32
881.642	27.32
882.019	27.34
882.395	27.34
882.772	27.32
883.148	27.29
883.524	27.3
883.901	27.29
884.277	27.27
884.653	27.26
885.029	27.25
885.405	27.27
885.781	27.27
886.157	27.25
886.532	27.25
886.908	27.24
887.284	27.26
887.659	27.23
888.035	27.23
888.411	27.22
888.786	27.24
889.161	27.25
889.537	27.25
889.912	27.24
890.287	27.25
890.662	27.24
891.037	27.25
891.412	27.24
891.787	27.23
892.162	27.23
892.536	27.24
892.911	27.23
893.286	27.22
893.66	27.2
894.035	27.2
894.409	27.2
894.784	27.21
895.158	27.18
895.532	27.19
895.906	27.18
896.281	27.18
896.655	27.17
897.029	27.17
897.402	27.17
897.776	27.18
898.15	27.17
898.524	27.18
898.898	27.15
899.271	27.16
899.645	27.16
900.018	27.17
900.392	27.18
900.765	27.18
901.138	27.17
901.511	27.16
901.884	27.16
902.258	27.17
902.631	27.17
903.003	27.19
903.376	27.19
903.749	27.2
904.122	27.2
904.495	27.21
904.867	27.22
905.24	27.22
905.612	27.24
905.985	27.24
906.357	27.22
906.729	27.23
907.102	27.22
907.474	27.24
907.846	27.22
908.218	27.22
908.59	27.22
908.962	27.22
909.334	27.2
909.705	27.19
910.077	27.18
910.449	27.18
910.82	27.16
911.192	27.17
911.563	27.15
911.935	27.15
912.306	27.15
912.677	27.15
913.048	27.15
913.419	27.15
913.79	27.16
914.161	27.16
914.532	27.13
914.903	27.14
915.274	27.13
915.645	27.15
916.015	27.14
916.386	27.14
916.756	27.13
917.127	27.15
917.497	27.17
917.868	27.19
918.238	27.2
918.608	27.25
918.978	27.25
919.348	27.26
919.718	27.24
920.088	27.27
920.458	27.27
920.828	27.29
921.198	27.26
921.567	27.24
921.937	27.23
922.306	27.22
922.676	27.22
923.045	27.22
923.415	27.22
923.784	27.22
924.153	27.23
924.522	27.24
924.891	27.22
925.26	27.21
925.629	27.24
925.998	27.24
926.367	27.26
926.736	27.25
927.104	27.25
927.473	27.25
927.842	27.26
928.21	27.26
928.578	27.24
928.947	27.25
929.315	27.27
929.683	27.27
930.051	27.26
930.42	27.25
930.788	27.24
931.156	27.21
931.523	27.22
931.891	27.23
932.259	27.24
932.627	27.27
932.994	27.26
933.362	27.23
933.729	27.23
934.097	27.24
934.464	27.26
934.831	27.25
935.199	27.25
935.566	27.26
935.933	27.18
936.3	27.11
936.667	27.07
937.034	27.12
937.401	27.14
937.767	27.15
938.134	27.17
938.501	27.16
938.867	27.22
939.234	27.23
939.6	27.23
939.967	27.27
940.333	27.31
940.699	27.32
941.065	27.26
941.431	27.26
941.798	27.23
942.163	27.18
942.529	27.15
942.895	27.1
943.261	27.09
943.627	27.05
943.992	27.05
944.358	27.07
944.723	27.04
945.089	26.96
945.454	26.96
945.82	26.94
946.185	26.96
946.55	26.93
946.915	26.92
947.28	26.92
947.645	26.92
948.01	26.93
948.375	26.93
948.74	26.95
949.104	27
949.469	26.99
949.834	26.96
950.198	26.91
950.562	26.92
950.927	26.9
951.291	26.87
951.655	26.84
952.02	26.81
952.384	26.74
952.748	26.73
953.112	26.71
953.476	26.66
953.839	26.62
954.203	26.61
954.567	26.58
954.931	26.55
955.294	26.54
955.658	26.6
956.021	26.58
956.385	26.6
956.748	26.59
957.111	26.56
957.474	26.58
957.837	26.59
958.2	26.57
958.563	26.58
958.926	26.58
959.289	26.6
959.652	26.56
960.015	26.54
960.377	26.54
960.74	26.55
961.102	26.59
961.465	26.6
961.827	26.65
962.189	26.68
962.552	26.65
962.914	26.66
963.276	26.68
963.638	26.66
964	26.65
964.362	26.66
964.724	26.65
965.085	26.63
965.447	26.61
965.809	26.6
966.17	26.6
966.532	26.66
966.893	26.7
967.255	26.65
967.616	26.66
967.977	26.67
968.338	26.63
968.699	26.66
969.061	26.67
969.421	26.68
969.782	26.67
970.143	26.68
970.504	26.66
970.865	26.63
971.225	26.65
971.586	26.67
971.946	26.67
972.307	26.73
972.667	26.7
973.027	26.75
973.388	26.78
973.748	26.81
974.108	26.88
974.468	26.88
974.828	26.89
975.188	26.87
975.548	26.83
975.907	26.89
976.267	26.88
976.627	26.88
976.986	26.83
977.346	26.79
977.705	26.76
978.064	26.73
978.424	26.77
978.783	26.71
979.142	26.76
979.501	26.82
979.86	26.82
980.219	26.83
980.578	26.83
980.937	26.81
981.296	26.82
981.654	26.8
982.013	26.77
982.371	26.74
982.73	26.8
983.088	26.74
983.447	26.72
983.805	26.67
984.163	26.69
984.521	26.7
984.879	26.72
985.237	26.74
985.595	26.85
985.953	26.83
986.311	26.82
986.669	26.85
987.026	26.94
987.384	26.97
987.741	27
988.099	27.01
988.456	27.02
988.814	27.04
989.171	27.04
989.528	27.04
989.885	27.04
990.242	27.05
990.599	27.08
990.956	27.08
991.313	27.1
991.67	27.12
992.027	27.23
992.383	27.27
992.74	27.3
993.096	27.26
993.453	27.19
993.809	27.27
994.165	27.36
994.522	27.4
994.878	27.45
995.234	27.46
995.59	27.44
995.946	27.36
996.302	27.36
996.658	27.37
997.013	27.43
997.369	27.46
997.725	27.45
998.08	27.47
998.436	27.4
998.791	27.36
999.147	27.35
999.502	27.37
999.857	27.36
1000.212	27.34
1000.567	27.31
1000.922	27.28
1001.277	27.27
1001.632	27.21
1001.987	27.06
1002.342	27.01
1002.696	26.98
1003.051	27.03
1003.406	27.1
1003.76	27.14
1004.114	27.13
1004.469	27.16
1004.823	27.36
1005.177	27.42
1005.531	27.49
1005.885	27.6
1006.239	27.68
1006.593	27.84
1006.947	27.8
1007.301	27.68
1007.655	27.59
1008.008	27.65
1008.362	27.72
1008.715	27.67
1009.069	27.75
1009.422	27.75
1009.776	27.76
1010.129	27.8
1010.482	27.64
1010.835	27.71
1011.188	27.81
1011.541	27.95
1011.894	28.05
1012.247	28.07
1012.6	28.02
1012.952	27.95
1013.305	28.02
1013.657	28.2
1014.01	28.22
1014.362	28.16
1014.715	28.24
1015.067	28.22
1015.419	28.12
1015.771	27.98
1016.123	27.93
1016.475	28.04
1016.827	28.12
1017.179	28.24
1017.531	28.19
1017.883	28.22
1018.234	28.53
1018.586	28.61
1018.938	28.66
1019.289	28.68
1019.64	28.79
1019.992	28.96
1020.343	28.8
1020.694	28.77
1021.045	28.62
1021.396	28.58
1021.747	28.62
1022.098	28.61
1022.449	28.51
1022.8	28.5
1023.151	28.66
1023.501	28.65
1023.852	28.73
1024.202	28.77
1024.553	28.8
1024.903	29.01
1025.253	29.21
1025.604	29.37
1025.954	29.18
1026.304	29.24
1026.654	29.4
1027.004	29.12
1027.354	29.31
1027.703	29.26
1028.053	29.24
1028.403	29.09
1028.753	28.7
1029.102	28.53
1029.452	28.35
1029.801	28.51
1030.15	28.45
1030.499	28.29
897.758	387.77
901.051	387.96
904.343	389.89
907.636	398.06
910.928	384.43
914.22	388.76
917.511	384.07
920.803	368.12
924.094	365.99
927.384	355.83
930.675	342.69
933.965	339.88
937.255	322.68
940.544	308.8
943.834	293.53
947.123	293.29
950.411	273.48
953.7	268.25
956.988	258.7
960.276	249.33
963.563	243.79
966.851	239.44
970.138	235.08
973.424	228.36
976.711	229.75
979.997	219.53
983.283	217.91
986.568	214.71
989.853	208.97
993.138	203.07
996.423	196.47
999.708	193.48
1002.992	188.65
1006.275	181.49
1009.559	179.54
1012.842	172.63
1016.125	169.56
1019.408	166.16
1022.69	164.25
1025.972	158.48
1029.254	157.56
1032.536	154.92
1035.817	150.5
1039.098	148.38
1042.379	145.48
1045.659	144.24
1048.939	142.05
1052.219	138.9
1055.498	135.7
1058.778	132.41
1062.057	130.96
1065.335	127.87
1068.614	126.56
1071.892	125.4
1075.17	122.57
1078.447	121.29
1081.724	119.79
1085.001	118.54
1088.278	116.52
1091.554	115.84
1094.83	115.26
1098.106	114.34
1101.382	113.65
1104.657	113.19
1107.932	111.5
1111.206	112.28
1114.481	109.64
1117.755	108.97
1121.029	107.93
1124.302	107.27
1127.575	105.53
1130.848	105.32
1134.121	103.76
1137.393	103.03
1140.665	100.86
1143.937	100.26
1147.208	99.57
1150.48	98.72
1153.75	97.45
1157.021	96.7
1160.291	96.24
1163.561	94.88
1166.831	94.84
1170.101	94.57
1173.37	95.1
1176.639	95.32
1179.907	94.44
1183.176	93.36
1186.444	94.07
1189.711	94.01
1192.979	93.23
1196.246	93.16
1199.513	94.03
1202.78	92.63
1206.046	92.72
1209.312	91.21
1212.578	91.06
1215.843	91.95
1219.108	92.06
1222.373	92.96
1225.638	93.55
1228.902	94.53
1232.166	95.41
1235.43	94.82
1238.693	97
1241.956	97.09
1245.219	98.62
1248.482	99.33
1251.744	98.7
1255.006	99
1258.268	97.26
1261.529	96.5
1264.79	96.62
1268.051	95.69
1271.312	95.54
1274.572	93.41
1277.832	93.07
1281.092	91.25
1284.351	90.19
1287.61	90.88
1290.869	88.94
1294.128	88.85
1297.386	88.48
1300.644	87.42
1303.902	86.28
1307.159	86.41
1310.416	86.32
1313.673	85.93
1316.93	86.82
1320.186	86.63
1323.442	86.56
1326.697	87.4
1329.953	87.52
1333.208	87.7
1336.463	88.3
1339.717	89.31
1342.972	90
1346.226	90.88
1349.479	91.25
1352.733	91.87
1355.986	92.21
1359.238	92.19
1362.491	92.37
1365.743	92.5
1368.995	92.44
1372.247	91.87
1375.498	91.44
1378.749	91.38
1382	90.59
1385.251	90.45
1388.501	89.46
1391.751	89.01
1395	89.06
1398.25	88.22
1401.499	87.4
1404.748	87.15
1407.996	86.34
1411.244	86.07
1414.492	84.96
1417.74	83.63
1420.987	82.53
1424.234	82.41
1427.481	81.36
1430.728	80.66
1433.974	80.84
1437.22	79.65
1440.465	79.82
1443.711	78.96
1446.956	77.7
1450.201	77.07
1453.445	77.09
1456.689	76.45
1459.933	74.97
1463.177	74.68
1466.42	73.57
1469.663	71.98
1472.906	71.67
1476.148	70.08
1479.391	68.93
1482.633	69.05
1485.874	68.1
1489.115	67.37
1492.356	67.43
1495.597	66.93
1498.838	66.34
1502.078	65.93
1505.318	66.11
1508.557	66.52
1511.797	65.88
1515.036	66.09
1518.274	65.88
1521.513	65.46
1524.751	64.9
1527.989	64.64
1531.227	65.09
1534.464	64.69
1537.701	64.5
1540.938	64.11
1544.174	63.75
1547.41	63.74
1550.646	63.48
1553.882	63.69
1557.117	63.56
1560.352	63.44
1563.587	63.18
1566.821	62.5
1570.055	62.45
1573.289	62.09
1576.523	62.32
1579.756	61.29
1582.989	61.06
1586.222	61.52
1589.454	60.23
1592.686	60.64
1595.918	60.27
1599.15	60.15
1602.381	60.29
1605.612	60.03
1608.843	60.2
1612.073	59.61
1615.303	60.46
1618.533	60.62
1621.762	60.86
1624.992	61.66
1628.221	61.33
1631.449	61.5
1634.678	61.04
1637.906	61.61
1641.134	61.75
1644.361	61.88
1647.588	62.35
1650.815	61.95
1654.042	61.86
1657.269	61.4
1660.495	61.88
1663.72	61.5
1666.946	61.73
1670.171	62.34
1673.396	62.21
1676.621	62.48
1679.845	62.26
1683.069	62.67
1686.293	62.45
1689.517	63.14
1692.74	63.28
1695.963	63.03
1699.185	63.48
1702.408	63.75
1705.63	63.87
1708.852	63.87
1712.073	63.89
1715.294	64.17
1718.515	64.07
1721.736	64.56
1724.956	64.66
1728.176	64.63
1731.396	64.98
1734.616	64.81
1737.835	65.27
1741.054	64.3
1744.272	64.6
1747.491	64.53
1750.709	64.8
1753.927	64.8
1757.144	64.91
1760.361	64.58
1763.578	64.98
1766.795	64.46
1770.011	65.29
1773.227	64.82
1776.443	65.83
1779.658	65.58
1782.874	65.92
1786.089	65.48
1789.303	65.76
1792.518	65.98
1795.732	66.15
1798.945	66.57
1802.159	66.98
1805.372	66.85
1808.585	67.62
1811.797	67.65
1815.01	68.15
1818.222	68.51
1821.434	68.75
1824.645	68.81
1827.856	69.81
1831.067	69.65
1834.278	70.1
1837.488	70.32
1840.698	70.52
1843.908	70.34
1847.117	70.65
1850.326	71.04
1853.535	70.19
1856.744	71.83
1859.952	71.56
1863.16	70.63
1866.368	70.55
1869.575	69.67
1872.782	69.3
1875.989	68.55
1879.196	68.64
1882.402	68.21
1885.608	67.67
1888.814	67.92
1892.019	66.54
1895.224	66.53
1898.429	66.6
1901.634	67.04
1904.838	68.07
1908.042	68.25
1911.246	68.46
1914.449	68.54
1917.652	68.28
1920.855	68.01
1924.058	67.83
1927.26	68.45
1930.462	68.13
1933.664	68.78
1936.865	68.31
1940.066	67.27
1943.267	66.99
1946.467	66.98
1949.668	67.51
1952.868	68.4
1956.067	69.02
1959.267	68.89
1962.466	69.2
1965.665	68.93
1968.863	69.54
1972.061	69.81
1975.259	70.11
1978.457	71.02
1981.654	71.93
1984.852	71.74
1988.048	71.71
1991.245	72.85
1994.441	73.26
1997.637	74.63
2000.833	76.24
2004.028	76.03
2007.223	77.26
2010.418	78.12
2013.613	79.42
2016.807	80.75
2020.001	81.46
2023.194	82.76
2026.388	84.1
2029.581	87.07
2032.774	87.16
2035.966	88.8
2039.158	90.23
2042.35	91.33
2045.542	91.25
2048.733	93.79
2051.924	92.83
2055.115	94.66
2058.306	95.18
2061.496	95.76
2064.686	95.19
2067.875	95.9
2071.065	96.04
2074.254	95.74
2077.442	96.8
2080.631	97.93
2083.819	97.4
2087.007	99.73
2090.195	100.71
2093.382	101.61
2096.569	101.32
2099.756	103.08
2102.942	103.52
2106.128	105
2109.314	107.88
2112.5	108.45
2115.685	111.03
2118.87	111.2
2122.055	113.28
2125.239	113.5
2128.424	115.31
2131.608	116.06
2134.791	117.83
2137.974	118.54
2141.157	118.54
2144.34	118.23
2147.523	117.86
2150.705	117.95
2153.887	120.57
2157.068	120.76
2160.25	120.43
2163.431	120.63
2166.611	121.8
2169.792	123.23
2172.972	124.33
2176.152	126
2179.331	127.33
2182.511	131.07
2185.69	131.5
2188.868	132.33
2192.047	133.24
2195.225	137.06
2198.403	139.91
2201.58	142.15
2204.758	145.7
2207.935	148.74
2211.111	150.64
2214.288	152
2217.464	152.57
2220.64	154.43
2223.815	155.28
2226.991	160.15
2230.166	159.75
2233.34	162.08
2236.515	163.93
2239.689	164.06
2242.863	163.71
2246.036	169.14
2249.209	169.62
2252.382	170.72
2255.555	176.09
2258.727	178.85
2261.9	182.14
2265.071	185.09
2268.243	186.41
2271.414	189.48
2274.585	193.29
2277.756	197.81
2280.926	197.93
2284.096	201.72
2287.266	207.3
2290.436	209.35
2293.605	212.72
2296.774	215.81
2299.942	221.29
2303.111	227.06
2306.279	232.7
2309.447	233.73
2312.614	240.79
2315.781	246.78
2318.948	256.31
2322.115	253.89
2325.281	267.05
2328.447	263.49
2331.613	273.68
2334.779	272.56
2337.944	279.56
2341.109	281.42
2344.274	293.95
2347.438	300.59
2350.602	301.03
2353.766	313.43
2356.929	318.58
2360.092	315.6
2363.255	335.84
2366.418	339.47
2369.58	342.82
2372.742	364.61
2375.904	374.61
2379.066	372.02
2382.227	367.84
2385.388	393.92
2388.548	395.45
2391.709	399.2
2394.869	442.33
2398.029	426.69
2401.188	434.84
2404.347	433.79
2407.506	427.95
2410.665	438.75
2413.823	460.9
2416.981	485.05
2420.139	475.22
2423.296	472.88
2426.453	489.59
2429.61	477.23
2432.767	494.89
2435.923	491.52
2439.079	533.97
2442.235	543.2
2445.391	539.26
2448.546	535.82
2451.701	520.92
2454.855	519.29
2458.009	538.97
2461.163	571.66
2464.317	586.33
2467.471	601.33
2470.624	600.31
2473.777	586.07
2476.929	572.57
2480.082	556.82
2483.234	552.87
2486.385	581.89
2489.537	588.69
2492.688	614
2495.839	593.71
2498.989	582.19
2502.14	585.17
2505.29	591.72
2508.439	602.75
2511.589	599.15
2514.738	656.72
2517.887	641.46
2521.035	674.53
2524.183	679.14
2527.331	684.05
2530.479	677.61
2533.627	684.38
