Data from N_1_DEC_NC_4n_Splice17_12-17-14-683.txt Node
Date: Sat Mar 07 12:17:14 EST 2020
User: sa697716
Spectrometer: NQ5500242
Trigger mode: 0
Integration Time (sec): 1.450000E-1
Scans to average: 20
Nonlinearity correction enabled: false
Boxcar width: 5
Storing dark spectrum: false
XAxis mode: Wavelengths
Number of Pixels in Spectrum: 512
>>>>>Begin Spectral Data<<<<<
187.83	68.83
188.298	82.52
188.766	83.06
189.233	88.65
189.701	81.88
190.169	94.36
190.636	83.95
191.104	1.64
191.571	-214.19
192.039	-164.5
192.506	-266.52
192.974	209.15
193.441	333.39
193.908	180.63
194.375	166.77
194.842	72.08
195.31	71.56
195.777	40.39
196.244	12.77
196.711	22.14
197.177	24.61
197.644	25.61
198.111	24.5
198.578	25.33
199.045	26.05
199.511	26.11
199.978	26.74
200.445	26.88
200.911	26.72
201.378	26.93
201.844	26.92
202.31	26.87
202.777	26.7
203.243	27.13
203.709	26.68
204.176	26.3
204.642	26.34
205.108	26.3
205.574	26.17
206.04	26.1
206.506	25.89
206.972	25.79
207.438	25.47
207.903	25.36
208.369	24.75
208.835	24.38
209.301	23.95
209.766	23.04
210.232	22.13
210.697	21.44
211.163	20.66
211.628	20.06
212.094	19.54
212.559	19.21
213.024	18.53
213.49	18.11
213.955	17.64
214.42	17.24
214.885	16.75
215.35	16.27
215.815	15.43
216.28	14.48
216.745	13.19
217.21	11.98
217.675	10.76
218.14	9.77
218.604	8.88
219.069	8.2
219.534	7.58
219.998	7.1
220.463	6.69
220.927	6.31
221.392	6.02
221.856	5.79
222.32	5.58
222.785	5.43
223.249	5.29
223.713	5.18
224.177	5.07
224.642	4.96
225.106	4.86
225.57	4.74
226.034	4.67
226.497	4.57
226.961	4.47
227.425	4.4
227.889	4.35
228.353	4.28
228.816	4.2
229.28	4.13
229.744	4.07
230.207	4
230.671	3.94
231.134	3.87
231.597	3.83
232.061	3.79
232.524	3.73
232.987	3.66
233.45	3.64
233.914	3.59
234.377	3.55
234.84	3.51
235.303	3.48
235.766	3.45
236.229	3.43
236.691	3.39
237.154	3.37
237.617	3.34
238.08	3.31
238.542	3.27
239.005	3.25
239.468	3.22
239.93	3.2
240.393	3.18
240.855	3.15
241.317	3.12
241.78	3.09
242.242	3.06
242.704	3.05
243.166	3.02
243.629	2.99
244.091	2.96
244.553	2.93
245.015	2.9
245.477	2.87
245.939	2.86
246.4	2.84
246.862	2.82
247.324	2.8
247.786	2.77
248.247	2.75
248.709	2.73
249.17	2.71
249.632	2.7
250.093	2.68
250.555	2.66
251.016	2.65
251.477	2.63
251.939	2.62
252.4	2.6
252.861	2.59
253.322	2.58
253.783	2.56
254.244	2.56
254.705	2.54
255.166	2.52
255.627	2.51
256.088	2.5
256.549	2.49
257.009	2.48
257.47	2.47
257.931	2.45
258.391	2.43
258.852	2.41
259.312	2.4
259.773	2.39
260.233	2.39
260.694	2.38
261.154	2.36
261.614	2.35
262.074	2.34
262.534	2.33
262.994	2.32
263.455	2.31
263.915	2.31
264.374	2.3
264.834	2.29
265.294	2.28
265.754	2.27
266.214	2.27
266.673	2.26
267.133	2.25
267.593	2.25
268.052	2.24
268.512	2.24
268.971	2.23
269.431	2.22
269.89	2.21
270.349	2.22
270.809	2.2
271.268	2.2
271.727	2.19
272.186	2.19
272.645	2.2
273.104	2.19
273.563	2.18
274.022	2.18
274.481	2.18
274.94	2.18
275.399	2.18
275.857	2.17
276.316	2.16
276.775	2.16
277.233	2.15
277.692	2.14
278.15	2.14
278.609	2.13
279.067	2.13
279.525	2.13
279.984	2.12
280.442	2.11
280.9	2.11
281.358	2.11
281.816	2.11
282.274	2.1
282.732	2.09
283.19	2.09
283.648	2.08
284.106	2.07
284.564	2.06
285.021	2.06
285.479	2.06
285.937	2.06
286.394	2.05
286.852	2.04
287.309	2.05
287.767	2.04
288.224	2.03
288.682	2.03
289.139	2.03
289.596	2.02
290.053	2.01
290.511	1.99
290.968	1.99
291.425	1.98
291.882	1.98
292.339	1.97
292.796	1.97
293.252	1.97
293.709	1.96
294.166	1.96
294.623	1.96
295.079	1.96
295.536	1.96
295.992	1.95
296.449	1.95
296.905	1.95
297.362	1.94
297.818	1.93
298.274	1.93
298.731	1.93
299.187	1.92
299.643	1.91
300.099	1.91
300.555	1.9
301.011	1.9
301.467	1.89
301.923	1.89
302.379	1.9
302.835	1.9
303.291	1.89
303.746	1.89
304.202	1.89
304.658	1.89
305.113	1.89
305.569	1.89
306.024	1.89
306.479	1.88
306.935	1.87
307.39	1.87
307.845	1.87
308.301	1.88
308.756	1.88
309.211	1.87
309.666	1.87
310.121	1.87
310.576	1.87
311.031	1.87
311.486	1.87
311.94	1.88
312.395	1.87
312.85	1.86
313.305	1.87
313.759	1.87
314.214	1.87
314.668	1.86
315.123	1.86
315.577	1.85
316.032	1.86
316.486	1.86
316.94	1.86
317.394	1.86
317.849	1.86
318.303	1.85
318.757	1.84
319.211	1.84
319.665	1.83
320.119	1.82
320.572	1.82
321.026	1.81
321.48	1.81
321.934	1.8
322.387	1.8
322.841	1.79
323.295	1.8
323.748	1.8
324.202	1.8
324.655	1.8
325.108	1.81
325.562	1.81
326.015	1.81
326.468	1.81
326.921	1.8
327.374	1.8
327.827	1.81
328.28	1.81
328.733	1.81
329.186	1.81
329.639	1.81
330.092	1.8
330.545	1.8
330.997	1.8
331.45	1.8
331.903	1.8
332.355	1.8
332.808	1.8
333.26	1.8
333.713	1.79
334.165	1.77
334.617	1.78
335.069	1.77
335.522	1.77
335.974	1.77
336.426	1.76
336.878	1.76
337.33	1.75
337.782	1.75
338.234	1.76
338.686	1.76
339.137	1.78
339.589	1.77
340.041	1.78
340.493	1.77
340.944	1.76
341.396	1.76
341.847	1.76
342.299	1.75
342.75	1.74
343.201	1.73
343.653	1.73
344.104	1.72
344.555	1.71
345.006	1.7
345.457	1.71
345.908	1.72
346.359	1.72
346.81	1.72
347.261	1.72
347.712	1.72
348.163	1.71
348.613	1.71
349.064	1.71
349.515	1.71
349.965	1.72
350.416	1.71
350.866	1.7
351.317	1.68
351.767	1.69
352.217	1.68
352.668	1.68
353.118	1.69
353.568	1.68
354.018	1.68
354.468	1.68
354.918	1.68
355.368	1.69
355.818	1.69
356.268	1.68
356.718	1.69
357.168	1.68
357.617	1.68
358.067	1.68
358.517	1.7
358.966	1.7
359.416	1.7
359.865	1.69
360.315	1.7
360.764	1.7
361.213	1.7
361.663	1.7
362.112	1.71
362.561	1.72
363.01	1.72
363.459	1.7
363.908	1.7
364.357	1.7
364.806	1.7
365.255	1.7
365.703	1.71
366.152	1.71
366.601	1.71
367.05	1.72
367.498	1.71
367.947	1.72
368.395	1.73
368.844	1.74
369.292	1.74
369.74	1.75
370.189	1.75
370.637	1.75
371.085	1.76
371.533	1.76
371.981	1.76
372.429	1.76
372.877	1.76
373.325	1.76
373.773	1.77
374.221	1.77
374.669	1.77
375.116	1.76
375.564	1.77
376.012	1.77
376.459	1.78
376.907	1.78
377.354	1.79
377.801	1.8
378.249	1.81
378.696	1.81
379.143	1.82
379.591	1.83
380.038	1.85
380.485	1.87
380.932	1.88
381.379	1.9
381.826	1.91
382.273	1.92
382.72	1.93
383.166	1.95
383.613	1.97
384.06	1.99
384.506	2.02
384.953	2.05
385.4	2.08
385.846	2.12
386.292	2.16
386.739	2.21
387.185	2.26
387.631	2.32
388.078	2.37
388.524	2.42
388.97	2.46
389.416	2.51
389.862	2.57
390.308	2.65
390.754	2.73
391.2	2.81
391.645	2.87
392.091	2.93
392.537	3
392.983	3.08
393.428	3.2
393.874	3.34
394.319	3.5
394.765	3.66
395.21	3.82
395.655	3.98
396.101	4.16
396.546	4.35
396.991	4.58
397.436	4.83
397.881	5.08
398.326	5.31
398.771	5.52
399.216	5.71
399.661	5.9
400.106	6.05
400.551	6.19
400.995	6.31
401.44	6.43
401.885	6.54
402.329	6.65
402.774	6.77
403.218	6.92
403.663	7.08
404.107	7.24
404.551	7.4
404.995	7.56
405.44	7.71
405.884	7.88
406.328	8.07
406.772	8.28
407.216	8.5
407.66	8.69
408.104	8.86
408.547	9.02
408.991	9.18
409.435	9.34
409.879	9.53
410.322	9.77
410.766	10
411.209	10.2
411.653	10.4
412.096	10.57
412.54	10.73
412.983	10.89
413.426	11.08
413.869	11.26
414.312	11.44
414.756	11.6
415.199	11.7
415.642	11.81
416.085	11.9
416.527	11.96
416.97	12
417.413	12.01
417.856	12.02
418.298	11.99
418.741	12
419.184	12.02
419.626	12.06
420.069	12.14
420.511	12.21
420.953	12.29
421.396	12.41
421.838	12.54
422.28	12.7
422.722	12.85
423.164	13.01
423.606	13.13
424.048	13.24
424.49	13.27
424.932	13.19
425.374	13.01
425.816	12.76
426.258	12.5
426.699	12.32
427.141	12.3
427.582	12.41
428.024	12.57
428.465	12.74
428.907	12.87
429.348	13
429.789	13.24
430.231	13.62
430.672	14.12
431.113	14.69
431.554	15.2
431.995	15.61
432.436	15.88
432.877	16.1
433.318	16.27
433.759	16.49
434.2	16.77
434.64	17.06
435.081	17.33
435.522	17.56
435.962	17.73
436.403	17.89
436.843	17.99
437.284	18.11
437.724	18.28
438.164	18.47
438.604	18.7
439.045	18.93
439.485	19.14
439.925	19.31
440.365	19.47
440.805	19.59
441.245	19.7
441.685	19.8
442.125	19.9
442.564	20
443.004	20.14
443.444	20.32
443.883	20.49
444.323	20.68
444.762	20.86
445.202	21.04
445.641	21.3
446.081	21.6
446.52	21.9
446.959	22.18
447.398	22.39
447.837	22.51
448.276	22.51
448.716	22.52
449.154	22.53
449.593	22.53
450.032	22.52
450.471	22.42
450.91	22.3
451.349	22.19
451.787	22.1
452.226	22.04
452.664	22
453.103	22.02
453.541	22.01
453.98	21.95
454.418	21.86
454.856	21.77
455.295	21.7
455.733	21.62
456.171	21.57
456.609	21.53
457.047	21.48
457.485	21.46
457.923	21.46
458.361	21.5
458.798	21.54
459.236	21.62
459.674	21.67
460.111	21.73
460.549	21.82
460.987	21.89
461.424	21.96
461.862	22.05
462.299	22.14
462.736	22.19
463.173	22.29
463.611	22.43
464.048	22.59
464.485	22.81
464.922	23.03
465.359	23.22
465.796	23.4
466.233	23.58
466.67	23.77
467.106	24.01
467.543	24.29
467.98	24.55
468.416	24.77
468.853	24.97
469.29	25.16
469.726	25.35
470.162	25.58
470.599	25.82
471.035	26.01
471.471	26.17
471.907	26.27
472.344	26.33
472.78	26.41
473.216	26.5
473.652	26.58
474.088	26.64
474.523	26.7
474.959	26.71
475.395	26.7
475.831	26.72
476.266	26.75
476.702	26.78
477.138	26.78
477.573	26.77
478.008	26.72
478.444	26.64
478.879	26.54
479.314	26.39
479.75	26.23
480.185	26.04
480.62	25.79
481.055	25.42
481.49	24.94
481.925	24.44
482.36	23.97
482.795	23.56
483.229	23.25
483.664	23.01
484.099	22.81
484.534	22.65
484.968	22.53
485.403	22.51
485.837	22.6
486.271	22.81
486.706	23.01
487.14	23.17
487.574	23.25
488.009	23.3
488.443	23.33
488.877	23.37
489.311	23.41
489.745	23.47
490.179	23.54
490.613	23.6
491.046	23.65
491.48	23.73
491.914	23.87
492.348	24.06
492.781	24.24
493.215	24.4
493.648	24.52
494.082	24.62
494.515	24.71
494.948	24.79
495.382	24.9
495.815	24.97
496.248	25.05
496.681	25.09
497.114	25.12
497.547	25.17
497.98	25.25
498.413	25.41
498.846	25.59
499.279	25.78
499.711	25.95
500.144	26.14
500.577	26.4
501.009	26.71
501.442	27.1
501.874	27.51
502.306	27.91
502.739	28.29
503.171	28.62
503.603	28.93
504.036	29.29
504.468	29.67
504.9	30.05
505.332	30.43
505.764	30.77
506.196	31.09
506.627	31.45
507.059	31.86
507.491	32.28
507.923	32.73
508.354	33.19
508.786	33.61
509.217	34
509.649	34.39
510.08	34.79
510.512	35.21
510.943	35.66
511.374	36.07
511.805	36.38
512.237	36.58
512.668	36.75
513.099	36.92
513.53	37.17
513.961	37.47
514.391	37.8
514.822	38.22
515.253	38.68
515.684	39.16
516.114	39.67
516.545	40.3
516.975	41.09
517.406	41.92
517.836	42.73
518.267	43.48
518.697	44.17
519.127	44.88
519.558	45.55
519.988	46.21
520.418	46.8
520.848	47.36
521.278	47.84
521.708	48.3
522.138	48.59
522.567	48.82
522.997	49.08
523.427	49.41
523.857	49.74
524.286	50.06
524.716	50.35
525.145	50.63
525.575	50.9
526.004	51.21
526.433	51.5
526.863	51.97
527.292	52.45
527.721	52.83
528.15	53.08
528.579	53.22
529.008	53.34
529.437	53.41
529.866	53.49
530.295	53.58
530.724	53.7
531.152	53.8
531.581	53.88
532.01	53.95
532.438	54.02
532.867	54.15
533.295	54.28
533.723	54.42
534.152	54.54
534.58	54.62
535.008	54.63
535.436	54.58
535.865	54.48
536.293	54.36
536.721	54.31
537.149	54.34
537.576	54.4
538.004	54.49
538.432	54.51
538.86	54.57
539.287	54.64
539.715	54.8
540.143	54.99
540.57	55.22
540.998	55.47
541.425	55.68
541.852	55.9
542.28	56.09
542.707	56.27
543.134	56.45
543.561	56.59
543.988	56.77
544.415	56.91
544.842	57.06
545.269	57.23
545.696	57.38
546.123	57.56
546.549	57.67
546.976	57.79
547.403	57.93
547.829	58.08
548.256	58.24
548.682	58.35
549.108	58.5
549.535	58.62
549.961	58.7
550.387	58.81
550.813	58.9
551.24	58.99
551.666	59.02
552.092	59.02
552.518	59
552.943	58.95
553.369	58.92
553.795	58.82
554.221	58.67
554.646	58.48
555.072	58.24
555.498	58.01
555.923	57.81
556.349	57.63
556.774	57.46
557.199	57.28
557.625	57.13
558.05	56.95
558.475	56.77
558.9	56.62
559.325	56.5
559.75	56.36
560.175	56.19
560.6	55.96
561.025	55.7
561.449	55.39
561.874	55.06
562.299	54.72
562.723	54.4
563.148	54.07
563.572	53.7
563.997	53.31
564.421	52.91
564.846	52.52
565.27	52.14
565.694	51.76
566.118	51.38
566.542	50.98
566.966	50.58
567.39	50.22
567.814	49.88
568.238	49.61
568.662	49.38
569.086	49.18
569.509	48.97
569.933	48.79
570.357	48.61
570.78	48.44
571.204	48.3
571.627	48.18
572.05	48.03
572.474	47.88
572.897	47.72
573.32	47.5
573.743	47.28
574.166	47.08
574.589	46.88
575.012	46.72
575.435	46.61
575.858	46.5
576.281	46.41
576.704	46.31
577.126	46.21
577.549	46.12
577.972	46.08
578.394	46.04
578.817	46.01
579.239	46
579.661	45.97
580.084	45.9
580.506	45.84
580.928	45.72
581.35	45.59
581.772	45.41
582.194	45.23
582.616	45.07
583.038	44.92
583.46	44.75
583.882	44.48
584.303	44.14
584.725	43.72
585.147	43.29
585.568	42.93
585.99	42.63
586.411	42.4
586.833	42.19
587.254	41.98
587.675	41.75
588.096	41.54
588.518	41.41
588.939	41.34
589.36	41.38
589.781	41.43
590.202	41.42
590.623	41.36
591.043	41.26
591.464	41.11
591.885	40.97
592.305	40.83
592.726	40.68
593.147	40.53
593.567	40.37
593.987	40.18
594.408	39.99
594.828	39.82
595.248	39.67
595.669	39.52
596.089	39.34
596.509	39.15
596.929	38.94
597.349	38.71
597.769	38.48
598.189	38.26
598.608	38.1
599.028	37.96
599.448	37.83
599.867	37.69
600.287	37.57
600.706	37.45
601.126	37.31
601.545	37.19
601.965	37.11
602.384	37
602.803	36.91
603.222	36.78
603.641	36.62
604.061	36.43
604.48	36.23
604.898	36.02
605.317	35.81
605.736	35.58
606.155	35.36
606.574	35.14
606.992	34.93
607.411	34.71
607.829	34.46
608.248	34.24
608.666	34
609.085	33.78
609.503	33.55
609.921	33.33
610.339	33.15
610.758	32.98
611.176	32.76
611.594	32.53
612.012	32.26
612.43	32.04
612.847	31.82
613.265	31.63
613.683	31.48
614.101	31.34
614.518	31.18
614.936	31.02
615.353	30.84
615.771	30.72
616.188	30.64
616.606	30.58
617.023	30.51
617.44	30.43
617.857	30.3
618.274	30.16
618.691	30
619.108	29.83
619.525	29.68
619.942	29.52
620.359	29.34
620.776	29.14
621.192	28.94
621.609	28.77
622.026	28.6
622.442	28.49
622.859	28.37
623.275	28.24
623.691	28.12
624.108	27.99
624.524	27.87
624.94	27.77
625.356	27.67
625.772	27.59
626.188	27.52
626.604	27.43
627.02	27.3
627.436	27.2
627.852	27.13
628.268	27.07
628.683	27.04
629.099	27
629.514	26.94
629.93	26.9
630.345	26.85
630.761	26.78
631.176	26.73
631.591	26.66
632.007	26.58
632.422	26.51
632.837	26.43
633.252	26.33
633.667	26.22
634.082	26.11
634.497	26
634.911	25.87
635.326	25.72
635.741	25.55
636.155	25.39
636.57	25.21
636.984	25.02
637.399	24.8
637.813	24.59
638.228	24.36
638.642	24.12
639.056	23.88
639.47	23.66
639.884	23.44
640.298	23.22
640.712	23.01
641.126	22.79
641.54	22.57
641.954	22.34
642.368	22.12
642.781	21.93
643.195	21.74
643.609	21.53
644.022	21.32
644.436	21.12
644.849	20.91
645.262	20.7
645.676	20.52
646.089	20.35
646.502	20.21
646.915	20.11
647.328	19.97
647.741	19.85
648.154	19.75
648.567	19.66
648.98	19.57
649.393	19.51
649.805	19.47
650.218	19.4
650.631	19.32
651.043	19.19
651.456	18.97
651.868	18.73
652.28	18.47
652.693	18.23
653.105	18.02
653.517	17.85
653.929	17.72
654.341	17.59
654.753	17.46
655.165	17.38
655.577	17.33
655.989	17.34
656.401	17.4
656.813	17.48
657.224	17.52
657.636	17.52
658.047	17.5
658.459	17.44
658.87	17.34
659.282	17.25
659.693	17.12
660.104	17
660.515	16.87
660.926	16.74
661.338	16.59
661.749	16.46
662.159	16.33
662.57	16.2
662.981	16.07
663.392	15.93
663.803	15.8
664.213	15.7
664.624	15.59
665.035	15.47
665.445	15.37
665.855	15.27
666.266	15.17
666.676	15.08
667.086	14.95
667.497	14.85
667.907	14.76
668.317	14.68
668.727	14.59
669.137	14.5
669.547	14.44
669.956	14.37
670.366	14.31
670.776	14.23
671.186	14.17
671.595	14.11
672.005	14.08
672.414	14.05
672.824	14.01
673.233	13.98
673.642	13.96
674.052	13.94
674.461	13.91
674.87	13.9
675.279	13.91
675.688	13.91
676.097	13.92
676.506	13.92
676.915	13.93
677.323	13.95
677.732	13.97
678.141	14
678.549	14.02
678.958	14.05
679.366	14.1
679.775	14.14
680.183	14.2
680.592	14.28
681	14.38
681.408	14.48
681.816	14.56
682.224	14.62
682.632	14.63
683.04	14.6
683.448	14.61
683.856	14.62
684.264	14.69
684.671	14.78
685.079	14.87
685.487	15.01
685.894	15.19
686.302	15.43
686.709	15.75
687.116	16.18
687.524	16.7
687.931	17.24
688.338	17.82
688.745	18.39
689.152	18.98
689.559	19.59
689.966	20.2
690.373	20.81
690.78	21.41
691.187	22.01
691.593	22.61
692	23.21
692.407	23.8
692.813	24.4
693.22	24.97
693.626	25.54
694.032	26.11
694.439	26.68
694.845	27.23
695.251	27.79
695.657	28.32
696.063	28.82
696.469	29.31
696.875	29.78
697.281	30.21
697.687	30.66
698.093	31.12
698.498	31.54
698.904	31.95
699.31	32.36
699.715	32.78
700.12	33.21
700.526	33.65
700.931	34.07
701.337	34.48
701.742	34.89
702.147	35.3
702.552	35.7
702.957	36.1
703.362	36.48
703.767	36.85
704.172	37.2
704.577	37.51
704.981	37.82
705.386	38.13
705.791	38.43
706.195	38.74
706.6	39.05
707.004	39.31
707.408	39.58
707.813	39.83
708.217	40.06
708.621	40.31
709.025	40.54
709.43	40.76
709.834	40.99
710.237	41.2
710.641	41.36
711.045	41.53
711.449	41.71
711.853	41.86
712.256	41.97
712.66	42.02
713.064	42.01
713.467	41.95
713.87	41.83
714.274	41.65
714.677	41.46
715.08	41.26
715.484	41.05
715.887	40.87
716.29	40.71
716.693	40.67
717.096	40.72
717.499	40.87
717.901	41.1
718.304	41.4
718.707	41.7
719.109	42
719.512	42.26
719.915	42.53
720.317	42.72
720.719	42.89
721.122	43.02
721.524	43.11
721.926	43.13
722.328	43.14
722.731	43.13
723.133	43.14
723.535	43.17
723.937	43.23
724.338	43.29
724.74	43.37
725.142	43.47
725.544	43.51
725.945	43.59
726.347	43.62
726.748	43.65
727.15	43.71
727.551	43.8
727.952	43.89
728.354	44.03
728.755	44.17
729.156	44.33
729.557	44.49
729.958	44.66
730.359	44.85
730.76	45.05
731.161	45.2
731.562	45.34
731.962	45.43
732.363	45.52
732.763	45.6
733.164	45.67
733.564	45.71
733.965	45.71
734.365	45.7
734.766	45.63
735.166	45.57
735.566	45.56
735.966	45.53
736.366	45.47
736.766	45.42
737.166	45.35
737.566	45.25
737.966	45.17
738.365	45.14
738.765	45.14
739.165	45.16
739.564	45.17
739.964	45.14
740.363	45.11
740.763	45.14
741.162	45.13
741.561	45.14
741.96	45.18
742.36	45.17
742.759	45.17
743.158	45.13
743.557	45.07
743.955	45.04
744.354	45.02
744.753	45.01
745.152	44.96
745.55	44.93
745.949	44.88
746.348	44.83
746.746	44.77
747.144	44.69
747.543	44.62
747.941	44.58
748.339	44.48
748.737	44.39
749.136	44.31
749.534	44.25
749.932	44.21
750.33	44.16
750.727	44.1
751.125	44.04
751.523	43.96
751.921	43.92
752.318	43.87
752.716	43.82
753.113	43.77
753.511	43.73
753.908	43.66
754.305	43.52
754.703	43.27
755.1	42.77
755.497	41.9
755.894	40.67
756.291	39.15
756.688	37.54
757.085	36.02
757.482	34.62
757.878	33.32
758.275	32.03
758.672	30.77
759.068	29.61
759.465	28.71
759.861	28.3
760.258	28.35
760.654	28.75
761.05	29.34
761.447	29.98
761.843	30.56
762.239	31.12
762.635	31.79
763.031	32.6
763.427	33.5
763.822	34.47
764.218	35.38
764.614	36.24
765.01	37.02
765.405	37.75
765.801	38.36
766.196	38.96
766.592	39.45
766.987	39.83
767.382	40.11
767.778	40.3
768.173	40.42
768.568	40.51
768.963	40.6
769.358	40.69
769.753	40.71
770.148	40.72
770.542	40.68
770.937	40.64
771.332	40.61
771.726	40.54
772.121	40.5
772.515	40.44
772.91	40.39
773.304	40.32
773.699	40.23
774.093	40.15
774.487	40.07
774.881	40.02
775.275	39.94
775.669	39.86
776.063	39.8
776.457	39.72
776.851	39.67
777.245	39.57
777.638	39.45
778.032	39.39
778.425	39.35
778.819	39.27
779.212	39.2
779.606	39.11
779.999	39.01
780.392	38.93
780.786	38.84
781.179	38.74
781.572	38.71
781.965	38.65
782.358	38.56
782.751	38.45
783.143	38.37
783.536	38.27
783.929	38.18
784.322	38.1
784.714	37.98
785.107	37.9
785.499	37.78
785.891	37.65
786.284	37.53
786.676	37.42
787.068	37.27
787.46	37.11
787.852	36.98
788.245	36.83
788.636	36.69
789.028	36.56
789.42	36.41
789.812	36.28
790.204	36.14
790.595	36
790.987	35.87
791.378	35.78
791.77	35.7
792.161	35.57
792.553	35.51
792.944	35.42
793.335	35.36
793.726	35.28
794.117	35.21
794.508	35.11
794.899	35.05
795.29	34.97
795.681	34.85
796.072	34.77
796.463	34.68
796.853	34.53
797.244	34.42
797.634	34.29
798.025	34.18
798.415	34.04
798.806	33.91
799.196	33.77
799.586	33.65
799.976	33.54
800.366	33.38
800.756	33.27
801.146	33.17
801.536	33.05
801.926	32.93
802.316	32.8
802.706	32.72
803.095	32.63
803.485	32.51
803.874	32.38
804.264	32.27
804.653	32.15
805.043	32.02
805.432	31.88
805.821	31.75
806.21	31.61
806.599	31.47
806.988	31.31
807.377	31.15
807.766	31
808.155	30.85
808.544	30.69
808.933	30.53
809.321	30.36
809.71	30.18
810.098	29.97
810.487	29.77
810.875	29.55
811.264	29.32
811.652	29.09
812.04	28.84
812.428	28.61
812.816	28.37
813.204	28.13
813.592	27.9
813.98	27.7
814.368	27.51
814.756	27.33
815.144	27.18
815.531	27.04
815.919	26.92
816.306	26.85
816.694	26.77
817.081	26.72
817.469	26.68
817.856	26.61
818.243	26.51
818.63	26.38
819.017	26.24
819.404	26.12
819.791	26.02
820.178	25.93
820.565	25.82
820.952	25.72
821.339	25.62
821.725	25.54
822.112	25.47
822.498	25.44
822.885	25.43
823.271	25.41
823.657	25.36
824.044	25.3
824.43	25.22
824.816	25.14
825.202	25.06
825.588	24.96
825.974	24.84
826.36	24.75
826.746	24.65
827.132	24.56
827.517	24.47
827.903	24.4
828.289	24.32
828.674	24.26
829.06	24.19
829.445	24.11
829.83	24.04
830.216	23.97
830.601	23.91
830.986	23.86
831.371	23.81
831.756	23.76
832.141	23.72
832.526	23.69
832.911	23.65
833.295	23.62
833.68	23.59
834.065	23.58
834.449	23.56
834.834	23.51
835.218	23.47
835.603	23.42
835.987	23.39
836.371	23.36
836.755	23.3
837.139	23.24
837.524	23.2
837.908	23.16
838.291	23.1
838.675	23.07
839.059	23.03
839.443	22.98
839.827	22.92
840.21	22.87
840.594	22.83
840.977	22.79
841.361	22.76
841.744	22.7
842.127	22.65
842.511	22.6
842.894	22.56
843.277	22.51
843.66	22.48
844.043	22.45
844.426	22.41
844.809	22.38
845.191	22.33
845.574	22.27
845.957	22.21
846.339	22.17
846.722	22.11
847.104	22.06
847.487	22.01
847.869	21.95
848.252	21.91
848.634	21.85
849.016	21.8
849.398	21.75
849.78	21.69
850.162	21.62
850.544	21.54
850.926	21.48
851.307	21.43
851.689	21.4
852.071	21.36
852.452	21.34
852.834	21.32
853.215	21.28
853.597	21.28
853.978	21.31
854.359	21.32
854.741	21.33
855.122	21.34
855.503	21.33
855.884	21.3
856.265	21.3
856.646	21.28
857.026	21.26
857.407	21.26
857.788	21.22
858.169	21.19
858.549	21.18
858.93	21.16
859.31	21.13
859.69	21.12
860.071	21.09
860.451	21.06
860.831	21.02
861.211	20.97
861.591	20.9
861.971	20.84
862.351	20.78
862.731	20.69
863.111	20.62
863.491	20.58
863.87	20.53
864.25	20.49
864.629	20.43
865.009	20.4
865.388	20.38
865.768	20.37
866.147	20.38
866.526	20.38
866.905	20.41
867.284	20.42
867.663	20.43
868.042	20.41
868.421	20.39
868.8	20.41
869.179	20.4
869.558	20.38
869.936	20.36
870.315	20.33
870.693	20.3
871.072	20.28
871.45	20.24
871.828	20.23
872.207	20.23
872.585	20.2
872.963	20.16
873.341	20.13
873.719	20.12
874.097	20.11
874.475	20.11
874.853	20.09
875.23	20.09
875.608	20.08
875.986	20.07
876.363	20.03
876.741	20.04
877.118	20.02
877.495	20.01
877.873	20
878.25	19.98
878.627	19.97
879.004	19.95
879.381	19.93
879.758	19.91
880.135	19.89
880.512	19.87
880.889	19.85
881.265	19.84
881.642	19.83
882.019	19.81
882.395	19.79
882.772	19.77
883.148	19.75
883.524	19.73
883.901	19.71
884.277	19.68
884.653	19.67
885.029	19.64
885.405	19.64
885.781	19.62
886.157	19.61
886.532	19.6
886.908	19.58
887.284	19.57
887.659	19.57
888.035	19.55
888.411	19.55
888.786	19.53
889.161	19.54
889.537	19.52
889.912	19.5
890.287	19.48
890.662	19.46
891.037	19.46
891.412	19.43
891.787	19.4
892.162	19.37
892.536	19.34
892.911	19.31
893.286	19.25
893.66	19.21
894.035	19.17
894.409	19.12
894.784	19.09
895.158	19.03
895.532	18.98
895.906	18.93
896.281	18.9
896.655	18.86
897.029	18.83
897.402	18.81
897.776	18.79
898.15	18.77
898.524	18.75
898.898	18.74
899.271	18.74
899.645	18.75
900.018	18.76
900.392	18.77
900.765	18.79
901.138	18.81
901.511	18.83
901.884	18.85
902.258	18.86
902.631	18.87
903.003	18.88
903.376	18.88
903.749	18.86
904.122	18.86
904.495	18.84
904.867	18.82
905.24	18.79
905.612	18.76
905.985	18.73
906.357	18.73
906.729	18.71
907.102	18.68
907.474	18.67
907.846	18.66
908.218	18.65
908.59	18.66
908.962	18.65
909.334	18.64
909.705	18.63
910.077	18.63
910.449	18.6
910.82	18.59
911.192	18.58
911.563	18.58
911.935	18.57
912.306	18.56
912.677	18.54
913.048	18.55
913.419	18.55
913.79	18.55
914.161	18.55
914.532	18.55
914.903	18.55
915.274	18.55
915.645	18.54
916.015	18.54
916.386	18.54
916.756	18.55
917.127	18.55
917.497	18.56
917.868	18.57
918.238	18.57
918.608	18.58
918.978	18.57
919.348	18.57
919.718	18.57
920.088	18.57
920.458	18.56
920.828	18.55
921.198	18.52
921.567	18.49
921.937	18.49
922.306	18.48
922.676	18.45
923.045	18.45
923.415	18.45
923.784	18.46
924.153	18.46
924.522	18.46
924.891	18.47
925.26	18.47
925.629	18.46
925.998	18.43
926.367	18.41
926.736	18.38
927.104	18.34
927.473	18.3
927.842	18.26
928.21	18.23
928.578	18.19
928.947	18.13
929.315	18.07
929.683	18.02
930.051	17.93
930.42	17.88
930.788	17.85
931.156	17.83
931.523	17.77
931.891	17.73
932.259	17.68
932.627	17.63
932.994	17.59
933.362	17.57
933.729	17.56
934.097	17.59
934.464	17.6
934.831	17.59
935.199	17.58
935.566	17.61
935.933	17.58
936.3	17.6
936.667	17.61
937.034	17.67
937.401	17.69
937.767	17.74
938.134	17.81
938.501	17.82
938.867	17.87
939.234	17.9
939.6	17.92
939.967	17.96
940.333	17.98
940.699	18.03
941.065	18
941.431	18.04
941.798	17.97
942.163	17.9
942.529	17.93
942.895	17.91
943.261	17.93
943.627	17.92
943.992	17.92
944.358	17.92
944.723	17.86
945.089	17.82
945.454	17.76
945.82	17.79
946.185	17.81
946.55	17.74
946.915	17.72
947.28	17.66
947.645	17.68
948.01	17.72
948.375	17.7
948.74	17.73
949.104	17.77
949.469	17.82
949.834	17.84
950.198	17.83
950.562	17.83
950.927	17.85
951.291	17.84
951.655	17.8
952.02	17.73
952.384	17.71
952.748	17.7
953.112	17.65
953.476	17.61
953.839	17.56
954.203	17.5
954.567	17.5
954.931	17.46
955.294	17.43
955.658	17.46
956.021	17.44
956.385	17.42
956.748	17.4
957.111	17.43
957.474	17.44
957.837	17.43
958.2	17.47
958.563	17.44
958.926	17.44
959.289	17.49
959.652	17.45
960.015	17.49
960.377	17.5
960.74	17.55
961.102	17.57
961.465	17.6
961.827	17.63
962.189	17.64
962.552	17.67
962.914	17.71
963.276	17.7
963.638	17.71
964	17.68
964.362	17.71
964.724	17.69
965.085	17.65
965.447	17.6
965.809	17.61
966.17	17.61
966.532	17.64
966.893	17.63
967.255	17.67
967.616	17.71
967.977	17.76
968.338	17.76
968.699	17.8
969.061	17.84
969.421	17.88
969.782	17.93
970.143	17.95
970.504	17.96
970.865	17.99
971.225	17.95
971.586	17.89
971.946	17.89
972.307	17.9
972.667	17.9
973.027	17.92
973.388	17.91
973.748	17.89
974.108	17.93
974.468	17.92
974.828	17.96
975.188	18
975.548	18
975.907	18.01
976.267	17.98
976.627	17.98
976.986	17.92
977.346	17.86
977.705	17.88
978.064	17.85
978.424	17.88
978.783	17.83
979.142	17.78
979.501	17.84
979.86	17.87
980.219	17.92
980.578	17.98
980.937	18.06
981.296	18.12
981.654	18.05
982.013	18.08
982.371	18.03
982.73	18.02
983.088	18.07
983.447	18.08
983.805	18.05
984.163	18.03
984.521	18
984.879	17.95
985.237	17.99
985.595	18.13
985.953	18.08
986.311	18.11
986.669	18.19
987.026	18.16
987.384	18.2
987.741	18.15
988.099	18.18
988.456	18.16
988.814	18.2
989.171	18.21
989.528	18.14
989.885	18.15
990.242	18.17
990.599	18.2
990.956	18.25
991.313	18.25
991.67	18.35
992.027	18.4
992.383	18.43
992.74	18.5
993.096	18.44
993.453	18.46
993.809	18.55
994.165	18.59
994.522	18.55
994.878	18.6
995.234	18.63
995.59	18.64
995.946	18.64
996.302	18.68
996.658	18.65
997.013	18.73
997.369	18.77
997.725	18.74
998.08	18.82
998.436	18.78
998.791	18.8
999.147	18.81
999.502	18.82
999.857	18.85
1000.212	18.73
1000.567	18.73
1000.922	18.78
1001.277	18.78
1001.632	18.75
1001.987	18.74
1002.342	18.76
1002.696	18.82
1003.051	18.91
1003.406	19.01
1003.76	19.05
1004.114	19.19
1004.469	19.23
1004.823	19.44
1005.177	19.49
1005.531	19.58
1005.885	19.55
1006.239	19.67
1006.593	19.72
1006.947	19.67
1007.301	19.55
1007.655	19.49
1008.008	19.56
1008.362	19.57
1008.715	19.32
1009.069	19.34
1009.422	19.41
1009.776	19.31
1010.129	19.31
1010.482	19.25
1010.835	19.25
1011.188	19.27
1011.541	19.38
1011.894	19.37
1012.247	19.37
1012.6	19.43
1012.952	19.57
1013.305	19.58
1013.657	19.87
1014.01	19.87
1014.362	19.73
1014.715	19.92
1015.067	20.04
1015.419	20.16
1015.771	20.13
1016.123	20.23
1016.475	20.26
1016.827	20.09
1017.179	20.19
1017.531	20.15
1017.883	20.25
1018.234	20.48
1018.586	20.34
1018.938	20.45
1019.289	20.37
1019.64	20.62
1019.992	20.58
1020.343	20.62
1020.694	20.65
1021.045	20.47
1021.396	20.45
1021.747	20.48
1022.098	20.64
1022.449	20.62
1022.8	20.49
1023.151	20.44
1023.501	20.47
1023.852	20.72
1024.202	20.79
1024.553	20.91
1024.903	21.3
1025.253	21.55
1025.604	21.71
1025.954	21.63
1026.304	21.65
1026.654	21.8
1027.004	22.08
1027.354	21.83
1027.703	21.78
1028.053	21.7
1028.403	21.92
1028.753	21.6
1029.102	21.57
1029.452	21.49
1029.801	21.54
1030.15	21.71
1030.499	21.69
897.758	372.81
901.051	372.23
904.343	370.89
907.636	380.72
910.928	369.64
914.22	369.97
917.511	365.91
920.803	349.72
924.094	346.9
927.384	336.71
930.675	321.25
933.965	321.01
937.255	304
940.544	294.27
943.834	278.1
947.123	275.96
950.411	260.92
953.7	255.96
956.988	246.38
960.276	236.6
963.563	232
966.851	226.36
970.138	224.08
973.424	218.92
976.711	218.05
979.997	207.75
983.283	206.59
986.568	202.47
989.853	197.16
993.138	192.46
996.423	185.81
999.708	182.31
1002.992	180.23
1006.275	171.22
1009.559	168.11
1012.842	163.09
1016.125	160.82
1019.408	158.24
1022.69	156.23
1025.972	151.8
1029.254	149.59
1032.536	148.03
1035.817	144.06
1039.098	141.97
1042.379	139.62
1045.659	139.34
1048.939	136.78
1052.219	134.8
1055.498	131.15
1058.778	128.82
1062.057	126.39
1065.335	124.18
1068.614	122.37
1071.892	121.54
1075.17	119.77
1078.447	118.37
1081.724	116.48
1085.001	115.39
1088.278	112.62
1091.554	111.09
1094.83	111.39
1098.106	110.64
1101.382	109.63
1104.657	109.33
1107.932	107.05
1111.206	107.22
1114.481	104.67
1117.755	104.71
1121.029	103.68
1124.302	103.37
1127.575	102.28
1130.848	101.01
1134.121	100.18
1137.393	99.62
1140.665	97.7
1143.937	97.86
1147.208	96.36
1150.48	95.97
1153.75	94.71
1157.021	93.27
1160.291	93.01
1163.561	92.29
1166.831	91.52
1170.101	90.99
1173.37	91
1176.639	91.43
1179.907	90.03
1183.176	89.48
1186.444	89.99
1189.711	89.51
1192.979	89.27
1196.246	88.7
1199.513	89.4
1202.78	88.82
1206.046	88.81
1209.312	87.68
1212.578	87.52
1215.843	88.84
1219.108	88.44
1222.373	89.59
1225.638	90.25
1228.902	91.13
1232.166	91.84
1235.43	91.35
1238.693	93.17
1241.956	93.52
1245.219	95.15
1248.482	95.3
1251.744	94.85
1255.006	95.12
1258.268	93.88
1261.529	93.19
1264.79	93.07
1268.051	91.83
1271.312	91.39
1274.572	89.78
1277.832	88.82
1281.092	87.3
1284.351	86.51
1287.61	86.98
1290.869	85.06
1294.128	84.51
1297.386	83.79
1300.644	83.52
1303.902	83.17
1307.159	82.85
1310.416	82.6
1313.673	82.39
1316.93	83.38
1320.186	83.2
1323.442	82.8
1326.697	84.7
1329.953	84.29
1333.208	85.11
1336.463	84.71
1339.717	85.4
1342.972	86.61
1346.226	87.45
1349.479	87.7
1352.733	87.87
1355.986	88.84
1359.238	88.98
1362.491	88.76
1365.743	88.68
1368.995	89.05
1372.247	89.04
1375.498	88.79
1378.749	88.51
1382	87.6
1385.251	87.36
1388.501	86.3
1391.751	85.4
1395	85.35
1398.25	84.47
1401.499	84.19
1404.748	83.44
1407.996	82.94
1411.244	82.56
1414.492	81.5
1417.74	80.04
1420.987	79.16
1424.234	79.22
1427.481	77.89
1430.728	77.29
1433.974	76.67
1437.22	76.41
1440.465	75.8
1443.711	74.61
1446.956	73.53
1450.201	72.92
1453.445	73.25
1456.689	73.04
1459.933	71.45
1463.177	71.09
1466.42	69.98
1469.663	69.09
1472.906	68.09
1476.148	67.05
1479.391	66.31
1482.633	66.37
1485.874	65.63
1489.115	64.76
1492.356	64.04
1495.597	63.88
1498.838	63.44
1502.078	63.19
1505.318	63.15
1508.557	63.59
1511.797	63.04
1515.036	62.79
1518.274	62.73
1521.513	62.37
1524.751	61.77
1527.989	62.07
1531.227	62.2
1534.464	61.78
1537.701	61.69
1540.938	61.45
1544.174	61.01
1547.41	60.85
1550.646	60.74
1553.882	60.78
1557.117	60.5
1560.352	60.61
1563.587	60.54
1566.821	60.17
1570.055	59.88
1573.289	59.57
1576.523	59.43
1579.756	58.94
1582.989	59.16
1586.222	59.16
1589.454	58.31
1592.686	59.12
1595.918	58.84
1599.15	58.49
1602.381	58.3
1605.612	58.58
1608.843	58.85
1612.073	58.27
1615.303	58.41
1618.533	58.52
1621.762	58.95
1624.992	59.6
1628.221	59.04
1631.449	58.92
1634.678	58.68
1637.906	59.29
1641.134	59.25
1644.361	59.17
1647.588	59.9
1650.815	59.99
1654.042	59.67
1657.269	59.22
1660.495	59.5
1663.72	59.23
1666.946	59.1
1670.171	59.45
1673.396	59.6
1676.621	59.43
1679.845	59.61
1683.069	59.68
1686.293	59.58
1689.517	60.23
1692.74	60.39
1695.963	60.34
1699.185	60.51
1702.408	61.34
1705.63	61.39
1708.852	61.08
1712.073	61.45
1715.294	61.5
1718.515	61.77
1721.736	61.87
1724.956	62.06
1728.176	62.25
1731.396	62.21
1734.616	62.26
1737.835	62.35
1741.054	62.04
1744.272	62.47
1747.491	62.42
1750.709	62.46
1753.927	62.3
1757.144	62.53
1760.361	62.49
1763.578	62.05
1766.795	62.08
1770.011	62.67
1773.227	62.55
1776.443	63.09
1779.658	62.8
1782.874	63.26
1786.089	62.86
1789.303	63.32
1792.518	63.57
1795.732	63.78
1798.945	64.51
1802.159	64.51
1805.372	64.66
1808.585	65.2
1811.797	65.46
1815.01	65.76
1818.222	66.08
1821.434	66.55
1824.645	66.82
1827.856	67.98
1831.067	67.58
1834.278	68.19
1837.488	68.4
1840.698	68.61
1843.908	68.42
1847.117	68.34
1850.326	68.98
1853.535	68.63
1856.744	69.24
1859.952	68.85
1863.16	68
1866.368	67.5
1869.575	67.08
1872.782	66.51
1875.989	65.88
1879.196	65.63
1882.402	65.03
1885.608	64.6
1888.814	64.53
1892.019	63.95
1895.224	63.97
1898.429	63.39
1901.634	64.14
1904.838	64.25
1908.042	64.51
1911.246	64.41
1914.449	64.73
1917.652	65
1920.855	64.74
1924.058	64.37
1927.26	64.88
1930.462	63.93
1933.664	65.14
1936.865	64.72
1940.066	64.2
1943.267	64.05
1946.467	63.88
1949.668	64.49
1952.868	65.53
1956.067	65.96
1959.267	66.38
1962.466	66.61
1965.665	67.24
1968.863	67.31
1972.061	67.68
1975.259	68.32
1978.457	69.16
1981.654	70.45
1984.852	70.23
1988.048	69.8
1991.245	70.61
1994.441	70.6
1997.637	71.8
2000.833	73.1
2004.028	73.09
2007.223	74.18
2010.418	75.02
2013.613	76.11
2016.807	76.92
2020.001	77.79
2023.194	79.21
2026.388	80.85
2029.581	83.47
2032.774	83.22
2035.966	85.1
2039.158	85.99
2042.35	87.44
2045.542	87.49
2048.733	88.94
2051.924	89.16
2055.115	90.32
2058.306	90.67
2061.496	91.21
2064.686	91.29
2067.875	92.65
2071.065	92.61
2074.254	92.51
2077.442	94.24
2080.631	94.64
2083.819	95.52
2087.007	96.43
2090.195	97.78
2093.382	99.1
2096.569	99.02
2099.756	100.23
2102.942	101.03
2106.128	101.6
2109.314	104.64
2112.5	103.67
2115.685	105.67
2118.87	105.6
2122.055	108.55
2125.239	109.35
2128.424	109.52
2131.608	109.8
2134.791	111.08
2137.974	111.36
2141.157	112.26
2144.34	112.07
2147.523	112.72
2150.705	113.58
2153.887	114.57
2157.068	113.83
2160.25	114.29
2163.431	115.15
2166.611	117.1
2169.792	118.14
2172.972	119.9
2176.152	120.49
2179.331	121.1
2182.511	123.99
2185.69	124.59
2188.868	127.27
2192.047	128.23
2195.225	130.93
2198.403	132.01
2201.58	132.86
2204.758	136.71
2207.935	138.71
2211.111	140.39
2214.288	142.71
2217.464	142.92
2220.64	144.92
2223.815	145.21
2226.991	150.43
2230.166	150.12
2233.34	155.04
2236.515	157.34
2239.689	157.32
2242.863	158.17
2246.036	163.54
2249.209	162.32
2252.382	164.36
2255.555	169.77
2258.727	172.95
2261.9	175.47
2265.071	177.19
2268.243	178.43
2271.414	182.69
2274.585	186.14
2277.756	188.3
2280.926	191.02
2284.096	195.15
2287.266	198.34
2290.436	200
2293.605	202.88
2296.774	206.66
2299.942	212.27
2303.111	217.96
2306.279	221.54
2309.447	223.84
2312.614	229.86
2315.781	233.5
2318.948	244.68
2322.115	244.15
2325.281	256.58
2328.447	251.8
2331.613	259.69
2334.779	259.13
2337.944	266.32
2341.109	268.85
2344.274	279.67
2347.438	286.95
2350.602	286.72
2353.766	297.65
2356.929	302.16
2360.092	301.11
2363.255	321.83
2366.418	325.5
2369.58	330.34
2372.742	347.06
2375.904	355.4
2379.066	353.23
2382.227	351.81
2385.388	381.63
2388.548	381.57
2391.709	385.66
2394.869	424.07
2398.029	409.23
2401.188	418.8
2404.347	417.01
2407.506	414.36
2410.665	422.91
2413.823	445.47
2416.981	469.55
2420.139	449.98
2423.296	449.07
2426.453	466.37
2429.61	453.54
2432.767	469.97
2435.923	465.25
2439.079	506.29
2442.235	517.03
2445.391	515.28
2448.546	511.8
2451.701	498.22
2454.855	502.83
2458.009	523.07
2461.163	546.66
2464.317	563.44
2467.471	581.72
2470.624	586.92
2473.777	569.45
2476.929	556.45
2480.082	537.61
2483.234	531.15
2486.385	558.69
2489.537	566.91
2492.688	588.53
2495.839	574.84
2498.989	562.16
2502.14	562.75
2505.29	563.34
2508.439	577.36
2511.589	573.08
2514.738	627.09
2517.887	615.48
2521.035	649.26
2524.183	645
2527.331	650.25
2530.479	643.09
2533.627	651.39
