Data from N_1_DEC_OH_4n_Splice17_12-28-40-357.txt Node
Date: Sat Mar 07 12:28:40 EST 2020
User: sa697716
Spectrometer: NQ5500242
Trigger mode: 0
Integration Time (sec): 1.450000E-1
Scans to average: 20
Nonlinearity correction enabled: false
Boxcar width: 5
Storing dark spectrum: false
XAxis mode: Wavelengths
Number of Pixels in Spectrum: 512
>>>>>Begin Spectral Data<<<<<
187.83	137.23
188.298	139.25
188.766	122.22
189.233	97.52
189.701	103.45
190.169	109.31
190.636	88.02
191.104	25.69
191.571	-217.6
192.039	128.06
192.506	-571.03
192.974	132.8
193.441	245.87
193.908	134.12
194.375	71.93
194.842	-10.61
195.31	-21.28
195.777	-356.52
196.244	-7.85
196.711	17.27
197.177	21.58
197.644	20.94
198.111	21.21
198.578	21.66
199.045	21.8
199.511	22.05
199.978	22.43
200.445	22.51
200.911	22.95
201.378	23.13
201.844	23.19
202.31	23.05
202.777	23.34
203.243	23.57
203.709	23.14
204.176	22.86
204.642	22.92
205.108	23.09
205.574	23.09
206.04	23.01
206.506	22.6
206.972	22.43
207.438	22.25
207.903	21.76
208.369	21.18
208.835	20.84
209.301	20.62
209.766	19.97
210.232	19.38
210.697	18.79
211.163	18.32
211.628	18.05
212.094	17.53
212.559	17.31
213.024	16.91
213.49	16.49
213.955	16.34
214.42	16.02
214.885	15.65
215.35	15.18
215.815	14.41
216.28	13.52
216.745	12.6
217.21	11.71
217.675	10.97
218.14	10.29
218.604	9.76
219.069	9.21
219.534	8.78
219.998	8.42
220.463	8.12
220.927	7.87
221.392	7.67
221.856	7.5
222.32	7.36
222.785	7.2
223.249	7.06
223.713	6.93
224.177	6.82
224.642	6.71
225.106	6.56
225.57	6.44
226.034	6.36
226.497	6.27
226.961	6.18
227.425	6.09
227.889	5.99
228.353	5.91
228.816	5.82
229.28	5.73
229.744	5.66
230.207	5.61
230.671	5.54
231.134	5.47
231.597	5.42
232.061	5.35
232.524	5.28
232.987	5.24
233.45	5.2
233.914	5.15
234.377	5.11
234.84	5.06
235.303	5.02
235.766	4.98
236.229	4.94
236.691	4.89
237.154	4.86
237.617	4.82
238.08	4.78
238.542	4.73
239.005	4.69
239.468	4.65
239.93	4.61
240.393	4.58
240.855	4.52
241.317	4.47
241.78	4.43
242.242	4.39
242.704	4.35
243.166	4.31
243.629	4.28
244.091	4.24
244.553	4.21
245.015	4.17
245.477	4.13
245.939	4.11
246.4	4.09
246.862	4.06
247.324	4.03
247.786	3.99
248.247	3.97
248.709	3.93
249.17	3.9
249.632	3.87
250.093	3.85
250.555	3.83
251.016	3.81
251.477	3.78
251.939	3.76
252.4	3.73
252.861	3.71
253.322	3.69
253.783	3.67
254.244	3.67
254.705	3.65
255.166	3.63
255.627	3.62
256.088	3.61
256.549	3.59
257.009	3.58
257.47	3.56
257.931	3.54
258.391	3.52
258.852	3.5
259.312	3.49
259.773	3.47
260.233	3.45
260.694	3.43
261.154	3.41
261.614	3.4
262.074	3.38
262.534	3.36
262.994	3.35
263.455	3.34
263.915	3.33
264.374	3.32
264.834	3.32
265.294	3.31
265.754	3.3
266.214	3.29
266.673	3.28
267.133	3.28
267.593	3.27
268.052	3.27
268.512	3.27
268.971	3.26
269.431	3.25
269.89	3.24
270.349	3.24
270.809	3.23
271.268	3.22
271.727	3.22
272.186	3.21
272.645	3.2
273.104	3.2
273.563	3.19
274.022	3.18
274.481	3.18
274.94	3.18
275.399	3.16
275.857	3.16
276.316	3.15
276.775	3.15
277.233	3.14
277.692	3.12
278.15	3.11
278.609	3.1
279.067	3.09
279.525	3.09
279.984	3.08
280.442	3.07
280.9	3.06
281.358	3.06
281.816	3.05
282.274	3.04
282.732	3.04
283.19	3.03
283.648	3.02
284.106	3.01
284.564	3
285.021	2.99
285.479	2.99
285.937	2.98
286.394	2.98
286.852	2.97
287.309	2.96
287.767	2.94
288.224	2.93
288.682	2.93
289.139	2.91
289.596	2.9
290.053	2.89
290.511	2.88
290.968	2.87
291.425	2.86
291.882	2.86
292.339	2.85
292.796	2.85
293.252	2.84
293.709	2.83
294.166	2.83
294.623	2.82
295.079	2.82
295.536	2.82
295.992	2.8
296.449	2.8
296.905	2.79
297.362	2.78
297.818	2.78
298.274	2.78
298.731	2.77
299.187	2.76
299.643	2.75
300.099	2.75
300.555	2.74
301.011	2.74
301.467	2.73
301.923	2.72
302.379	2.72
302.835	2.72
303.291	2.71
303.746	2.71
304.202	2.71
304.658	2.7
305.113	2.69
305.569	2.69
306.024	2.68
306.479	2.68
306.935	2.67
307.39	2.67
307.845	2.66
308.301	2.66
308.756	2.66
309.211	2.66
309.666	2.66
310.121	2.65
310.576	2.65
311.031	2.65
311.486	2.64
311.94	2.64
312.395	2.64
312.85	2.64
313.305	2.64
313.759	2.63
314.214	2.62
314.668	2.61
315.123	2.61
315.577	2.62
316.032	2.61
316.486	2.62
316.94	2.61
317.394	2.6
317.849	2.6
318.303	2.6
318.757	2.58
319.211	2.58
319.665	2.58
320.119	2.57
320.572	2.56
321.026	2.55
321.48	2.54
321.934	2.54
322.387	2.54
322.841	2.53
323.295	2.53
323.748	2.53
324.202	2.52
324.655	2.52
325.108	2.51
325.562	2.52
326.015	2.52
326.468	2.52
326.921	2.52
327.374	2.51
327.827	2.52
328.28	2.51
328.733	2.51
329.186	2.51
329.639	2.51
330.092	2.51
330.545	2.5
330.997	2.49
331.45	2.49
331.903	2.5
332.355	2.51
332.808	2.5
333.26	2.5
333.713	2.5
334.165	2.49
334.617	2.5
335.069	2.49
335.522	2.49
335.974	2.5
336.426	2.49
336.878	2.48
337.33	2.47
337.782	2.47
338.234	2.47
338.686	2.47
339.137	2.47
339.589	2.46
340.041	2.46
340.493	2.45
340.944	2.44
341.396	2.44
341.847	2.44
342.299	2.43
342.75	2.42
343.201	2.4
343.653	2.4
344.104	2.39
344.555	2.39
345.006	2.38
345.457	2.38
345.908	2.38
346.359	2.38
346.81	2.38
347.261	2.38
347.712	2.37
348.163	2.37
348.613	2.38
349.064	2.38
349.515	2.38
349.965	2.37
350.416	2.38
350.866	2.37
351.317	2.36
351.767	2.35
352.217	2.36
352.668	2.36
353.118	2.37
353.568	2.36
354.018	2.37
354.468	2.38
354.918	2.38
355.368	2.38
355.818	2.39
356.268	2.38
356.718	2.38
357.168	2.38
357.617	2.38
358.067	2.38
358.517	2.38
358.966	2.38
359.416	2.37
359.865	2.37
360.315	2.37
360.764	2.38
361.213	2.38
361.663	2.38
362.112	2.39
362.561	2.39
363.01	2.39
363.459	2.37
363.908	2.36
364.357	2.36
364.806	2.36
365.255	2.36
365.703	2.36
366.152	2.36
366.601	2.36
367.05	2.36
367.498	2.36
367.947	2.35
368.395	2.37
368.844	2.37
369.292	2.37
369.74	2.37
370.189	2.36
370.637	2.36
371.085	2.35
371.533	2.36
371.981	2.35
372.429	2.36
372.877	2.36
373.325	2.35
373.773	2.36
374.221	2.36
374.669	2.36
375.116	2.36
375.564	2.35
376.012	2.36
376.459	2.35
376.907	2.36
377.354	2.36
377.801	2.37
378.249	2.38
378.696	2.38
379.143	2.38
379.591	2.4
380.038	2.41
380.485	2.41
380.932	2.42
381.379	2.42
381.826	2.43
382.273	2.44
382.72	2.43
383.166	2.43
383.613	2.44
384.06	2.45
384.506	2.46
384.953	2.47
385.4	2.48
385.846	2.49
386.292	2.5
386.739	2.5
387.185	2.52
387.631	2.54
388.078	2.55
388.524	2.56
388.97	2.57
389.416	2.57
389.862	2.59
390.308	2.61
390.754	2.63
391.2	2.65
391.645	2.67
392.091	2.69
392.537	2.71
392.983	2.72
393.428	2.75
393.874	2.78
394.319	2.8
394.765	2.81
395.21	2.83
395.655	2.86
396.101	2.89
396.546	2.92
396.991	2.95
397.436	2.98
397.881	3.03
398.326	3.07
398.771	3.1
399.216	3.14
399.661	3.19
400.106	3.23
400.551	3.25
400.995	3.28
401.44	3.3
401.885	3.33
402.329	3.35
402.774	3.37
403.218	3.41
403.663	3.44
404.107	3.47
404.551	3.49
404.995	3.52
405.44	3.54
405.884	3.57
406.328	3.6
406.772	3.63
407.216	3.66
407.66	3.69
408.104	3.7
408.547	3.73
408.991	3.76
409.435	3.78
409.879	3.8
410.322	3.83
410.766	3.86
411.209	3.91
411.653	3.94
412.096	3.97
412.54	4
412.983	4.01
413.426	4.06
413.869	4.07
414.312	4.1
414.756	4.14
415.199	4.16
415.642	4.18
416.085	4.19
416.527	4.18
416.97	4.18
417.413	4.18
417.856	4.21
418.298	4.2
418.741	4.22
419.184	4.23
419.626	4.24
420.069	4.26
420.511	4.26
420.953	4.27
421.396	4.3
421.838	4.32
422.28	4.34
422.722	4.36
423.164	4.37
423.606	4.38
424.048	4.39
424.49	4.4
424.932	4.39
425.374	4.38
425.816	4.33
426.258	4.32
426.699	4.29
427.141	4.28
427.582	4.29
428.024	4.32
428.465	4.33
428.907	4.34
429.348	4.34
429.789	4.36
430.231	4.41
430.672	4.48
431.113	4.54
431.554	4.6
431.995	4.64
432.436	4.66
432.877	4.69
433.318	4.72
433.759	4.76
434.2	4.8
434.64	4.83
435.081	4.87
435.522	4.9
435.962	4.92
436.403	4.96
436.843	5
437.284	5
437.724	5.01
438.164	5.03
438.604	5.04
439.045	5.07
439.485	5.1
439.925	5.11
440.365	5.14
440.805	5.15
441.245	5.14
441.685	5.15
442.125	5.19
442.564	5.21
443.004	5.23
443.444	5.26
443.883	5.29
444.323	5.3
444.762	5.33
445.202	5.34
445.641	5.38
446.081	5.41
446.52	5.44
446.959	5.47
447.398	5.52
447.837	5.52
448.276	5.53
448.716	5.54
449.154	5.56
449.593	5.57
450.032	5.57
450.471	5.56
450.91	5.55
451.349	5.55
451.787	5.54
452.226	5.51
452.664	5.52
453.103	5.52
453.541	5.52
453.98	5.52
454.418	5.49
454.856	5.48
455.295	5.47
455.733	5.45
456.171	5.44
456.609	5.45
457.047	5.45
457.485	5.43
457.923	5.43
458.361	5.42
458.798	5.43
459.236	5.43
459.674	5.43
460.111	5.45
460.549	5.46
460.987	5.47
461.424	5.48
461.862	5.5
462.299	5.52
462.736	5.53
463.173	5.55
463.611	5.55
464.048	5.57
464.485	5.6
464.922	5.62
465.359	5.65
465.796	5.68
466.233	5.68
466.67	5.7
467.106	5.74
467.543	5.76
467.98	5.78
468.416	5.81
468.853	5.83
469.29	5.86
469.726	5.88
470.162	5.89
470.599	5.91
471.035	5.94
471.471	5.96
471.907	5.94
472.344	5.96
472.78	5.97
473.216	5.98
473.652	5.99
474.088	5.99
474.523	6
474.959	6.01
475.395	6
475.831	5.99
476.266	6
476.702	6.01
477.138	6
477.573	6
478.008	6
478.444	5.98
478.879	5.97
479.314	5.95
479.75	5.94
480.185	5.92
480.62	5.89
481.055	5.84
481.49	5.79
481.925	5.74
482.36	5.69
482.795	5.63
483.229	5.6
483.664	5.58
484.099	5.54
484.534	5.52
484.968	5.52
485.403	5.52
485.837	5.55
486.271	5.58
486.706	5.61
487.14	5.63
487.574	5.66
488.009	5.68
488.443	5.7
488.877	5.72
489.311	5.75
489.745	5.77
490.179	5.8
490.613	5.83
491.046	5.86
491.48	5.9
491.914	5.94
492.348	5.99
492.781	6.04
493.215	6.09
493.648	6.15
494.082	6.19
494.515	6.24
494.948	6.3
495.382	6.34
495.815	6.4
496.248	6.45
496.681	6.5
497.114	6.56
497.547	6.62
497.98	6.68
498.413	6.75
498.846	6.84
499.279	6.93
499.711	7.01
500.144	7.11
500.577	7.21
501.009	7.33
501.442	7.45
501.874	7.59
502.306	7.73
502.739	7.87
503.171	8.01
503.603	8.16
504.036	8.31
504.468	8.46
504.9	8.62
505.332	8.79
505.764	8.97
506.196	9.14
506.627	9.32
507.059	9.53
507.491	9.72
507.923	9.93
508.354	10.15
508.786	10.36
509.217	10.58
509.649	10.8
510.08	11.02
510.512	11.26
510.943	11.51
511.374	11.74
511.805	11.95
512.237	12.16
512.668	12.36
513.099	12.56
513.53	12.77
513.961	12.99
514.391	13.24
514.822	13.5
515.253	13.76
515.684	14.04
516.114	14.32
516.545	14.63
516.975	14.97
517.406	15.35
517.836	15.71
518.267	16.07
518.697	16.41
519.127	16.75
519.558	17.1
519.988	17.46
520.418	17.79
520.848	18.12
521.278	18.42
521.708	18.73
522.138	18.96
522.567	19.18
522.997	19.42
523.427	19.68
523.857	19.94
524.286	20.18
524.716	20.42
525.145	20.66
525.575	20.9
526.004	21.16
526.433	21.38
526.863	21.68
527.292	21.96
527.721	22.2
528.15	22.39
528.579	22.56
529.008	22.71
529.437	22.84
529.866	22.95
530.295	23.07
530.724	23.18
531.152	23.31
531.581	23.42
532.01	23.5
532.438	23.59
532.867	23.7
533.295	23.79
533.723	23.88
534.152	23.96
534.58	24.04
535.008	24.08
535.436	24.11
535.865	24.09
536.293	24.08
536.721	24.11
537.149	24.14
537.576	24.19
538.004	24.24
538.432	24.27
538.86	24.31
539.287	24.35
539.715	24.44
540.143	24.52
540.57	24.61
540.998	24.7
541.425	24.78
541.852	24.86
542.28	24.94
542.707	24.99
543.134	25.06
543.561	25.11
543.988	25.17
544.415	25.21
544.842	25.27
545.269	25.34
545.696	25.39
546.123	25.44
546.549	25.49
546.976	25.53
547.403	25.59
547.829	25.64
548.256	25.69
548.682	25.72
549.108	25.77
549.535	25.78
549.961	25.79
550.387	25.81
550.813	25.82
551.24	25.83
551.666	25.8
552.092	25.77
552.518	25.75
552.943	25.7
553.369	25.66
553.795	25.6
554.221	25.52
554.646	25.42
555.072	25.31
555.498	25.2
555.923	25.1
556.349	25
556.774	24.9
557.199	24.81
557.625	24.7
558.05	24.59
558.475	24.48
558.9	24.4
559.325	24.3
559.75	24.19
560.175	24.07
560.6	23.92
561.025	23.78
561.449	23.62
561.874	23.44
562.299	23.28
562.723	23.11
563.148	22.93
563.572	22.73
563.997	22.54
564.421	22.35
564.846	22.16
565.27	21.97
565.694	21.78
566.118	21.58
566.542	21.39
566.966	21.18
567.39	20.98
567.814	20.79
568.238	20.63
568.662	20.47
569.086	20.33
569.509	20.18
569.933	20.03
570.357	19.89
570.78	19.74
571.204	19.6
571.627	19.47
572.05	19.33
572.474	19.19
572.897	19.04
573.32	18.87
573.743	18.71
574.166	18.55
574.589	18.4
575.012	18.27
575.435	18.16
575.858	18.04
576.281	17.93
576.704	17.82
577.126	17.73
577.549	17.65
577.972	17.56
578.394	17.47
578.817	17.4
579.239	17.34
579.661	17.26
580.084	17.19
580.506	17.12
580.928	17.03
581.35	16.94
581.772	16.84
582.194	16.74
582.616	16.65
583.038	16.57
583.46	16.48
583.882	16.37
584.303	16.24
584.725	16.09
585.147	15.94
585.568	15.82
585.99	15.7
586.411	15.6
586.833	15.51
587.254	15.41
587.675	15.33
588.096	15.23
588.518	15.17
588.939	15.13
589.36	15.1
589.781	15.09
590.202	15.07
590.623	15.04
591.043	14.98
591.464	14.93
591.885	14.88
592.305	14.82
592.726	14.78
593.147	14.73
593.567	14.69
593.987	14.64
594.408	14.58
594.828	14.53
595.248	14.48
595.669	14.45
596.089	14.4
596.509	14.35
596.929	14.28
597.349	14.22
597.769	14.16
598.189	14.08
598.608	14.04
599.028	14
599.448	13.96
599.867	13.91
600.287	13.87
600.706	13.82
601.126	13.77
601.545	13.74
601.965	13.69
602.384	13.64
602.803	13.59
603.222	13.53
603.641	13.47
604.061	13.39
604.48	13.31
604.898	13.22
605.317	13.16
605.736	13.08
606.155	13
606.574	12.92
606.992	12.83
607.411	12.75
607.829	12.64
608.248	12.54
608.666	12.46
609.085	12.38
609.503	12.3
609.921	12.21
610.339	12.13
610.758	12.04
611.176	11.96
611.594	11.88
612.012	11.79
612.43	11.72
612.847	11.65
613.265	11.57
613.683	11.5
614.101	11.43
614.518	11.35
614.936	11.28
615.353	11.2
615.771	11.14
616.188	11.08
616.606	11.04
617.023	10.99
617.44	10.95
617.857	10.9
618.274	10.83
618.691	10.76
619.108	10.71
619.525	10.66
619.942	10.61
620.359	10.56
620.776	10.51
621.192	10.46
621.609	10.42
622.026	10.37
622.442	10.34
622.859	10.3
623.275	10.27
623.691	10.24
624.108	10.21
624.524	10.18
624.94	10.16
625.356	10.15
625.772	10.12
626.188	10.11
626.604	10.09
627.02	10.06
627.436	10.05
627.852	10.03
628.268	10.01
628.683	10
629.099	9.99
629.514	9.96
629.93	9.94
630.345	9.91
630.761	9.87
631.176	9.84
631.591	9.82
632.007	9.78
632.422	9.73
632.837	9.69
633.252	9.64
633.667	9.57
634.082	9.51
634.497	9.44
634.911	9.36
635.326	9.28
635.741	9.21
636.155	9.12
636.57	9.02
636.984	8.94
637.399	8.84
637.813	8.74
638.228	8.63
638.642	8.52
639.056	8.41
639.47	8.32
639.884	8.22
640.298	8.1
640.712	7.99
641.126	7.89
641.54	7.77
641.954	7.67
642.368	7.57
642.781	7.49
643.195	7.39
643.609	7.3
644.022	7.21
644.436	7.14
644.849	7.05
645.262	6.97
645.676	6.9
646.089	6.83
646.502	6.77
646.915	6.72
647.328	6.66
647.741	6.62
648.154	6.57
648.567	6.53
648.98	6.47
649.393	6.45
649.805	6.43
650.218	6.4
650.631	6.37
651.043	6.33
651.456	6.29
651.868	6.24
652.28	6.18
652.693	6.14
653.105	6.1
653.517	6.06
653.929	6.02
654.341	5.97
654.753	5.94
655.165	5.91
655.577	5.87
655.989	5.84
656.401	5.82
656.813	5.81
657.224	5.78
657.636	5.74
658.047	5.7
658.459	5.65
658.87	5.6
659.282	5.54
659.693	5.47
660.104	5.42
660.515	5.37
660.926	5.32
661.338	5.26
661.749	5.21
662.159	5.15
662.57	5.11
662.981	5.07
663.392	5.02
663.803	4.99
664.213	4.96
664.624	4.92
665.035	4.88
665.445	4.85
665.855	4.83
666.266	4.8
666.676	4.78
667.086	4.75
667.497	4.74
667.907	4.73
668.317	4.72
668.727	4.7
669.137	4.7
669.547	4.69
669.956	4.67
670.366	4.66
670.776	4.65
671.186	4.66
671.595	4.66
672.005	4.66
672.414	4.67
672.824	4.67
673.233	4.69
673.642	4.7
674.052	4.71
674.461	4.72
674.87	4.74
675.279	4.77
675.688	4.78
676.097	4.8
676.506	4.84
676.915	4.86
677.323	4.88
677.732	4.9
678.141	4.94
678.549	4.97
678.958	5.02
679.366	5.07
679.775	5.1
680.183	5.15
680.592	5.21
681	5.26
681.408	5.32
681.816	5.38
682.224	5.45
682.632	5.5
683.04	5.56
683.448	5.64
683.856	5.71
684.264	5.81
684.671	5.92
685.079	6.02
685.487	6.17
685.894	6.32
686.302	6.5
686.709	6.7
687.116	6.94
687.524	7.19
687.931	7.46
688.338	7.77
688.745	8.07
689.152	8.41
689.559	8.77
689.966	9.13
690.373	9.51
690.78	9.89
691.187	10.29
691.593	10.7
692	11.12
692.407	11.55
692.813	11.98
693.22	12.42
693.626	12.88
694.032	13.33
694.439	13.77
694.845	14.23
695.251	14.7
695.657	15.15
696.063	15.61
696.469	16.07
696.875	16.53
697.281	16.97
697.687	17.43
698.093	17.86
698.498	18.3
698.904	18.72
699.31	19.16
699.715	19.58
700.12	20.01
700.526	20.43
700.931	20.84
701.337	21.26
701.742	21.67
702.147	22.06
702.552	22.47
702.957	22.84
703.362	23.25
703.767	23.61
704.172	23.96
704.577	24.32
704.981	24.69
705.386	25.06
705.791	25.39
706.195	25.75
706.6	26.09
707.004	26.41
707.408	26.74
707.813	27.06
708.217	27.37
708.621	27.7
709.025	27.99
709.43	28.27
709.834	28.57
710.237	28.87
710.641	29.13
711.045	29.4
711.449	29.7
711.853	29.98
712.256	30.21
712.66	30.44
713.064	30.64
713.467	30.86
713.87	31.05
714.274	31.19
714.677	31.32
715.08	31.44
715.484	31.57
715.887	31.71
716.29	31.83
716.693	32.01
717.096	32.22
717.499	32.44
717.901	32.68
718.304	32.91
718.707	33.17
719.109	33.43
719.512	33.68
719.915	33.92
720.317	34.1
720.719	34.29
721.122	34.47
721.524	34.62
721.926	34.77
722.328	34.91
722.731	35.04
723.133	35.18
723.535	35.3
723.937	35.44
724.338	35.55
724.74	35.69
725.142	35.87
725.544	35.99
725.945	36.13
726.347	36.24
726.748	36.32
727.15	36.41
727.551	36.54
727.952	36.66
728.354	36.79
728.755	36.91
729.156	37.06
729.557	37.16
729.958	37.28
730.359	37.4
730.76	37.53
731.161	37.65
731.562	37.79
731.962	37.88
732.363	37.97
732.763	38.06
733.164	38.12
733.564	38.19
733.965	38.24
734.365	38.3
734.766	38.31
735.166	38.35
735.566	38.4
735.966	38.44
736.366	38.45
736.766	38.5
737.166	38.53
737.566	38.56
737.966	38.57
738.365	38.61
738.765	38.64
739.165	38.71
739.564	38.74
739.964	38.76
740.363	38.76
740.763	38.79
741.162	38.8
741.561	38.83
741.96	38.85
742.36	38.88
742.759	38.91
743.158	38.93
743.557	38.93
743.955	38.95
744.354	38.94
744.753	38.98
745.152	39.01
745.55	39.01
745.949	39.01
746.348	39.04
746.746	39.05
747.144	39.03
747.543	39.02
747.941	39
748.339	38.97
748.737	38.98
749.136	38.94
749.534	38.9
749.932	38.91
750.33	38.89
750.727	38.86
751.125	38.85
751.523	38.84
751.921	38.82
752.318	38.83
752.716	38.82
753.113	38.81
753.511	38.81
753.908	38.81
754.305	38.76
754.703	38.67
755.1	38.48
755.497	38.17
755.894	37.75
756.291	37.27
756.688	36.75
757.085	36.27
757.482	35.82
757.878	35.4
758.275	34.98
758.672	34.54
759.068	34.18
759.465	33.92
759.861	33.81
760.258	33.86
760.654	33.98
761.05	34.17
761.447	34.39
761.843	34.56
762.239	34.76
762.635	34.98
763.031	35.27
763.427	35.58
763.822	35.9
764.218	36.2
764.614	36.48
765.01	36.76
765.405	36.98
765.801	37.19
766.196	37.39
766.592	37.54
766.987	37.67
767.382	37.76
767.778	37.81
768.173	37.87
768.568	37.89
768.963	37.9
769.358	37.92
769.753	37.96
770.148	37.95
770.542	37.95
770.937	37.93
771.332	37.92
771.726	37.93
772.121	37.92
772.515	37.9
772.91	37.9
773.304	37.9
773.699	37.87
774.093	37.83
774.487	37.81
774.881	37.8
775.275	37.78
775.669	37.74
776.063	37.68
776.457	37.65
776.851	37.61
777.245	37.57
777.638	37.53
778.032	37.5
778.425	37.5
778.819	37.48
779.212	37.45
779.606	37.41
779.999	37.4
780.392	37.41
780.786	37.37
781.179	37.38
781.572	37.37
781.965	37.36
782.358	37.34
782.751	37.3
783.143	37.25
783.536	37.2
783.929	37.18
784.322	37.15
784.714	37.11
785.107	37.1
785.499	37.06
785.891	37.04
786.284	37
786.676	36.96
787.068	36.93
787.46	36.91
787.852	36.89
788.245	36.84
788.636	36.76
789.028	36.7
789.42	36.63
789.812	36.58
790.204	36.52
790.595	36.44
790.987	36.4
791.378	36.37
791.77	36.33
792.161	36.27
792.553	36.25
792.944	36.22
793.335	36.22
793.726	36.2
794.117	36.16
794.508	36.1
794.899	36.09
795.29	36.05
795.681	36
796.072	35.97
796.463	35.95
796.853	35.91
797.244	35.89
797.634	35.84
798.025	35.8
798.415	35.78
798.806	35.75
799.196	35.72
799.586	35.68
799.976	35.64
800.366	35.61
800.756	35.57
801.146	35.53
801.536	35.5
801.926	35.48
802.316	35.43
802.706	35.4
803.095	35.37
803.485	35.32
803.874	35.28
804.264	35.24
804.653	35.2
805.043	35.15
805.432	35.1
805.821	35.07
806.21	35.02
806.599	34.96
806.988	34.93
807.377	34.88
807.766	34.86
808.155	34.81
808.544	34.76
808.933	34.71
809.321	34.66
809.71	34.62
810.098	34.53
810.487	34.45
810.875	34.38
811.264	34.28
811.652	34.22
812.04	34.11
812.428	34.08
812.816	33.98
813.204	33.89
813.592	33.81
813.98	33.74
814.368	33.71
814.756	33.65
815.144	33.59
815.531	33.54
815.919	33.49
816.306	33.46
816.694	33.39
817.081	33.39
817.469	33.38
817.856	33.35
818.243	33.28
818.63	33.23
819.017	33.21
819.404	33.19
819.791	33.16
820.178	33.13
820.565	33.09
820.952	33.06
821.339	33.03
821.725	33
822.112	33
822.498	33.03
822.885	33.02
823.271	32.99
823.657	32.95
824.044	32.92
824.43	32.9
824.816	32.86
825.202	32.85
825.588	32.82
825.974	32.77
826.36	32.7
826.746	32.65
827.132	32.61
827.517	32.59
827.903	32.59
828.289	32.59
828.674	32.58
829.06	32.58
829.445	32.54
829.83	32.54
830.216	32.52
830.601	32.53
830.986	32.51
831.371	32.5
831.756	32.51
832.141	32.49
832.526	32.46
832.911	32.45
833.295	32.44
833.68	32.44
834.065	32.41
834.449	32.41
834.834	32.42
835.218	32.42
835.603	32.4
835.987	32.36
836.371	32.36
836.755	32.34
837.139	32.31
837.524	32.29
837.908	32.28
838.291	32.3
838.675	32.29
839.059	32.25
839.443	32.22
839.827	32.2
840.21	32.2
840.594	32.19
840.977	32.19
841.361	32.19
841.744	32.17
842.127	32.14
842.511	32.1
842.894	32.09
843.277	32.08
843.66	32.06
844.043	32.07
844.426	32.05
844.809	32.04
845.191	32.03
845.574	32
845.957	32
846.339	31.99
846.722	31.99
847.104	31.97
847.487	31.96
847.869	31.94
848.252	31.92
848.634	31.92
849.016	31.93
849.398	31.9
849.78	31.89
850.162	31.86
850.544	31.81
850.926	31.78
851.307	31.75
851.689	31.73
852.071	31.73
852.452	31.73
852.834	31.73
853.215	31.69
853.597	31.69
853.978	31.67
854.359	31.69
854.741	31.71
855.122	31.72
855.503	31.74
855.884	31.75
856.265	31.75
856.646	31.71
857.026	31.7
857.407	31.71
857.788	31.68
858.169	31.7
858.549	31.7
858.93	31.7
859.31	31.69
859.69	31.68
860.071	31.66
860.451	31.65
860.831	31.64
861.211	31.61
861.591	31.59
861.971	31.56
862.351	31.54
862.731	31.52
863.111	31.47
863.491	31.43
863.87	31.41
864.25	31.39
864.629	31.38
865.009	31.39
865.388	31.37
865.768	31.35
866.147	31.35
866.526	31.36
866.905	31.36
867.284	31.37
867.663	31.39
868.042	31.4
868.421	31.41
868.8	31.41
869.179	31.39
869.558	31.38
869.936	31.4
870.315	31.4
870.693	31.38
871.072	31.39
871.45	31.39
871.828	31.38
872.207	31.37
872.585	31.35
872.963	31.32
873.341	31.32
873.719	31.33
874.097	31.31
874.475	31.31
874.853	31.32
875.23	31.32
875.608	31.32
875.986	31.33
876.363	31.33
876.741	31.33
877.118	31.36
877.495	31.37
877.873	31.36
878.25	31.38
878.627	31.38
879.004	31.36
879.381	31.36
879.758	31.35
880.135	31.35
880.512	31.33
880.889	31.34
881.265	31.32
881.642	31.31
882.019	31.31
882.395	31.29
882.772	31.29
883.148	31.28
883.524	31.26
883.901	31.25
884.277	31.24
884.653	31.23
885.029	31.23
885.405	31.22
885.781	31.23
886.157	31.21
886.532	31.21
886.908	31.19
887.284	31.2
887.659	31.18
888.035	31.17
888.411	31.15
888.786	31.16
889.161	31.16
889.537	31.15
889.912	31.16
890.287	31.15
890.662	31.13
891.037	31.14
891.412	31.11
891.787	31.1
892.162	31.09
892.536	31.08
892.911	31.05
893.286	31.04
893.66	31.01
894.035	30.99
894.409	30.97
894.784	30.97
895.158	30.94
895.532	30.93
895.906	30.92
896.281	30.92
896.655	30.91
897.029	30.9
897.402	30.89
897.776	30.88
898.15	30.87
898.524	30.86
898.898	30.84
899.271	30.85
899.645	30.86
900.018	30.88
900.392	30.88
900.765	30.89
901.138	30.89
901.511	30.89
901.884	30.91
902.258	30.92
902.631	30.92
903.003	30.93
903.376	30.93
903.749	30.92
904.122	30.91
904.495	30.91
904.867	30.91
905.24	30.91
905.612	30.92
905.985	30.9
906.357	30.88
906.729	30.88
907.102	30.87
907.474	30.87
907.846	30.87
908.218	30.85
908.59	30.83
908.962	30.83
909.334	30.81
909.705	30.81
910.077	30.79
910.449	30.78
910.82	30.78
911.192	30.79
911.563	30.74
911.935	30.72
912.306	30.73
912.677	30.74
913.048	30.73
913.419	30.73
913.79	30.72
914.161	30.74
914.532	30.75
914.903	30.76
915.274	30.74
915.645	30.75
916.015	30.75
916.386	30.75
916.756	30.73
917.127	30.73
917.497	30.73
917.868	30.73
918.238	30.71
918.608	30.7
918.978	30.72
919.348	30.74
919.718	30.76
920.088	30.78
920.458	30.77
920.828	30.75
921.198	30.72
921.567	30.72
921.937	30.72
922.306	30.73
922.676	30.72
923.045	30.71
923.415	30.69
923.784	30.65
924.153	30.65
924.522	30.66
924.891	30.67
925.26	30.67
925.629	30.66
925.998	30.64
926.367	30.6
926.736	30.59
927.104	30.56
927.473	30.55
927.842	30.52
928.21	30.5
928.578	30.47
928.947	30.45
929.315	30.44
929.683	30.42
930.051	30.39
930.42	30.4
930.788	30.38
931.156	30.32
931.523	30.31
931.891	30.35
932.259	30.36
932.627	30.35
932.994	30.32
933.362	30.28
933.729	30.29
934.097	30.3
934.464	30.33
934.831	30.33
935.199	30.34
935.566	30.33
935.933	30.32
936.3	30.32
936.667	30.31
937.034	30.33
937.401	30.39
937.767	30.38
938.134	30.39
938.501	30.33
938.867	30.37
939.234	30.39
939.6	30.41
939.967	30.4
940.333	30.35
940.699	30.39
941.065	30.36
941.431	30.3
941.798	30.27
942.163	30.22
942.529	30.26
942.895	30.25
943.261	30.21
943.627	30.18
943.992	30.15
944.358	30.17
944.723	30.15
945.089	30.09
945.454	30.15
945.82	30.17
946.185	30.22
946.55	30.18
946.915	30.15
947.28	30.17
947.645	30.14
948.01	30.15
948.375	30.12
948.74	30.07
949.104	30.16
949.469	30.11
949.834	30.07
950.198	30.04
950.562	30.05
950.927	30.06
951.291	30.04
951.655	30.04
952.02	30.01
952.384	30
952.748	30.02
953.112	29.95
953.476	29.88
953.839	29.88
954.203	29.84
954.567	29.81
954.931	29.73
955.294	29.7
955.658	29.74
956.021	29.75
956.385	29.75
956.748	29.69
957.111	29.69
957.474	29.73
957.837	29.7
958.2	29.71
958.563	29.71
958.926	29.73
959.289	29.73
959.652	29.67
960.015	29.67
960.377	29.7
960.74	29.77
961.102	29.8
961.465	29.84
961.827	29.87
962.189	29.89
962.552	29.86
962.914	29.89
963.276	29.92
963.638	29.95
964	29.92
964.362	29.88
964.724	29.84
965.085	29.8
965.447	29.78
965.809	29.8
966.17	29.77
966.532	29.82
966.893	29.86
967.255	29.86
967.616	29.88
967.977	29.88
968.338	29.86
968.699	29.85
969.061	29.86
969.421	29.86
969.782	29.85
970.143	29.89
970.504	29.85
970.865	29.8
971.225	29.77
971.586	29.71
971.946	29.7
972.307	29.72
972.667	29.72
973.027	29.77
973.388	29.74
973.748	29.75
974.108	29.75
974.468	29.72
974.828	29.72
975.188	29.7
975.548	29.72
975.907	29.72
976.267	29.74
976.627	29.74
976.986	29.66
977.346	29.64
977.705	29.6
978.064	29.61
978.424	29.65
978.783	29.62
979.142	29.65
979.501	29.65
979.86	29.7
980.219	29.7
980.578	29.7
980.937	29.79
981.296	29.83
981.654	29.84
982.013	29.79
982.371	29.77
982.73	29.81
983.088	29.82
983.447	29.8
983.805	29.78
984.163	29.77
984.521	29.75
984.879	29.62
985.237	29.63
985.595	29.7
985.953	29.68
986.311	29.69
986.669	29.71
987.026	29.68
987.384	29.75
987.741	29.66
988.099	29.67
988.456	29.65
988.814	29.71
989.171	29.71
989.528	29.66
989.885	29.65
990.242	29.68
990.599	29.64
990.956	29.66
991.313	29.61
991.67	29.63
992.027	29.7
992.383	29.81
992.74	29.88
993.096	29.86
993.453	29.79
993.809	29.85
994.165	29.82
994.522	29.86
994.878	29.88
995.234	29.88
995.59	29.94
995.946	29.89
996.302	29.87
996.658	29.86
997.013	29.85
997.369	29.86
997.725	29.9
998.08	29.93
998.436	29.83
998.791	29.81
999.147	29.81
999.502	29.8
999.857	29.75
1000.212	29.68
1000.567	29.68
1000.922	29.65
1001.277	29.59
1001.632	29.53
1001.987	29.52
1002.342	29.53
1002.696	29.54
1003.051	29.69
1003.406	29.8
1003.76	29.81
1004.114	29.71
1004.469	29.74
1004.823	29.99
1005.177	30.09
1005.531	30.15
1005.885	30.21
1006.239	30.26
1006.593	30.3
1006.947	30.15
1007.301	29.94
1007.655	29.82
1008.008	29.91
1008.362	29.85
1008.715	29.71
1009.069	29.8
1009.422	29.76
1009.776	29.73
1010.129	29.69
1010.482	29.54
1010.835	29.62
1011.188	29.76
1011.541	29.91
1011.894	29.92
1012.247	29.9
1012.6	29.76
1012.952	29.55
1013.305	29.64
1013.657	29.65
1014.01	29.7
1014.362	29.74
1014.715	29.86
1015.067	29.78
1015.419	29.75
1015.771	29.74
1016.123	29.73
1016.475	29.78
1016.827	29.98
1017.179	29.82
1017.531	29.85
1017.883	29.93
1018.234	30.1
1018.586	29.93
1018.938	29.97
1019.289	29.97
1019.64	30.07
1019.992	30.14
1020.343	30.27
1020.694	30.16
1021.045	30.05
1021.396	29.96
1021.747	29.92
1022.098	29.87
1022.449	29.95
1022.8	29.93
1023.151	29.86
1023.501	29.82
1023.852	29.84
1024.202	29.9
1024.553	29.92
1024.903	30.28
1025.253	30.44
1025.604	30.48
1025.954	30.23
1026.304	30.13
1026.654	30.18
1027.004	30.13
1027.354	30.2
1027.703	29.88
1028.053	29.59
1028.403	29.89
1028.753	29.69
1029.102	29.81
1029.452	29.93
1029.801	30.24
1030.15	30.3
1030.499	30.33
897.758	595.11
901.051	601.18
904.343	600.27
907.636	611.22
910.928	595.96
914.22	597.03
917.511	591.41
920.803	565.72
924.094	563.82
927.384	553.55
930.675	530.2
933.965	529.7
937.255	499.02
940.544	481.26
943.834	457.36
947.123	454.21
950.411	429.88
953.7	421.03
956.988	400.91
960.276	386.16
963.563	377.62
966.851	368.28
970.138	363.59
973.424	353.64
976.711	353.8
979.997	338.89
983.283	336.85
986.568	329.59
989.853	320.61
993.138	312.78
996.423	302.56
999.708	296.49
1002.992	291.84
1006.275	278.75
1009.559	276.7
1012.842	267.15
1016.125	261.89
1019.408	256.55
1022.69	253.52
1025.972	248.89
1029.254	244.66
1032.536	240.03
1035.817	235.04
1039.098	232.56
1042.379	229.43
1045.659	226.57
1048.939	222.6
1052.219	217.42
1055.498	215.71
1058.778	210.26
1062.057	205.95
1065.335	204.24
1068.614	201.48
1071.892	199.36
1075.17	194.98
1078.447	192.17
1081.724	190.4
1085.001	188.79
1088.278	185.61
1091.554	181.15
1094.83	181.94
1098.106	179.61
1101.382	178.13
1104.657	177.57
1107.932	175.03
1111.206	174.74
1114.481	170.89
1117.755	170.26
1121.029	168.89
1124.302	167.6
1127.575	165.38
1130.848	164.01
1134.121	163.48
1137.393	161.75
1140.665	159.29
1143.937	158.64
1147.208	156.95
1150.48	156.14
1153.75	153.91
1157.021	152.62
1160.291	153.02
1163.561	151.33
1166.831	150.92
1170.101	149.9
1173.37	150.37
1176.639	149.89
1179.907	148.84
1183.176	147.56
1186.444	147.7
1189.711	147.05
1192.979	147.02
1196.246	146.27
1199.513	146.63
1202.78	145.87
1206.046	145.53
1209.312	144.61
1212.578	144.71
1215.843	145.35
1219.108	144.92
1222.373	147.23
1225.638	148.91
1228.902	149.29
1232.166	150.41
1235.43	151.1
1238.693	152.52
1241.956	153.18
1245.219	154.85
1248.482	155.62
1251.744	155.46
1255.006	156.24
1258.268	153.6
1261.529	152.38
1264.79	151.51
1268.051	149.98
1271.312	148.88
1274.572	147.79
1277.832	147.3
1281.092	144.57
1284.351	143.51
1287.61	144.16
1290.869	141.41
1294.128	140.6
1297.386	140.24
1300.644	139.42
1303.902	139.3
1307.159	139.34
1310.416	138.3
1313.673	137.52
1316.93	138.63
1320.186	138.11
1323.442	137.97
1326.697	140.68
1329.953	140.61
1333.208	140.45
1336.463	141.66
1339.717	142.15
1342.972	143.31
1346.226	145.08
1349.479	145.47
1352.733	146.46
1355.986	147.78
1359.238	147.27
1362.491	147
1365.743	147.94
1368.995	148.01
1372.247	147.97
1375.498	147.19
1378.749	146.75
1382	145.49
1385.251	145.08
1388.501	143.71
1391.751	142.8
1395	142.55
1398.25	141.67
1401.499	139.95
1404.748	139.45
1407.996	137.52
1411.244	137.18
1414.492	136.11
1417.74	133.51
1420.987	132.51
1424.234	132.05
1427.481	130.06
1430.728	129.36
1433.974	128.77
1437.22	127.85
1440.465	127.59
1443.711	126.19
1446.956	125.14
1450.201	124.49
1453.445	124.21
1456.689	123.5
1459.933	120.73
1463.177	120.67
1466.42	118.88
1469.663	116.82
1472.906	116.15
1476.148	113.28
1479.391	112.66
1482.633	112.05
1485.874	110.6
1489.115	109.27
1492.356	108.33
1495.597	108.75
1498.838	106.92
1502.078	106.61
1505.318	106.72
1508.557	106.66
1511.797	106.81
1515.036	105.75
1518.274	105.73
1521.513	105.23
1524.751	104.9
1527.989	105.01
1531.227	105.25
1534.464	105.52
1537.701	105.1
1540.938	104.52
1544.174	103.97
1547.41	103.85
1550.646	103.51
1553.882	103.63
1557.117	102.51
1560.352	102.52
1563.587	102.6
1566.821	101.85
1570.055	101.51
1573.289	101.2
1576.523	101.17
1579.756	100.46
1582.989	100.19
1586.222	100.22
1589.454	100.25
1592.686	101
1595.918	100.5
1599.15	99.81
1602.381	100.34
1605.612	100.06
1608.843	100.05
1612.073	99.82
1615.303	100.38
1618.533	100.51
1621.762	101.46
1624.992	101.01
1628.221	101.05
1631.449	100.5
1634.678	100.78
1637.906	100.29
1641.134	100.8
1644.361	100.9
1647.588	101.3
1650.815	100.93
1654.042	101.38
1657.269	100.84
1660.495	100.89
1663.72	100.74
1666.946	101.32
1670.171	101.26
1673.396	101.82
1676.621	101.58
1679.845	101.67
1683.069	102.23
1686.293	102.39
1689.517	102.67
1692.74	102.75
1695.963	103.07
1699.185	103.3
1702.408	104.02
1705.63	104.38
1708.852	104.58
1712.073	104.5
1715.294	104.7
1718.515	105
1721.736	105.42
1724.956	105.05
1728.176	105.29
1731.396	105.53
1734.616	105.63
1737.835	105.77
1741.054	104.62
1744.272	105.23
1747.491	106.11
1750.709	106.52
1753.927	106.19
1757.144	106
1760.361	106.46
1763.578	106.84
1766.795	106.48
1770.011	106.94
1773.227	106.89
1776.443	108.27
1779.658	107.5
1782.874	108.29
1786.089	107.45
1789.303	107.9
1792.518	109.18
1795.732	108.85
1798.945	109.39
1802.159	110.03
1805.372	110.5
1808.585	112.02
1811.797	112.17
1815.01	113.21
1818.222	113.11
1821.434	114.64
1824.645	114.5
1827.856	116.12
1831.067	116.78
1834.278	117.08
1837.488	117.55
1840.698	117.36
1843.908	116.39
1847.117	116.73
1850.326	116.91
1853.535	116.06
1856.744	117.18
1859.952	117.01
1863.16	115.21
1866.368	114.89
1869.575	114.55
1872.782	112.76
1875.989	112.06
1879.196	111.56
1882.402	110.01
1885.608	109.56
1888.814	109.13
1892.019	107.73
1895.224	106.99
1898.429	106.26
1901.634	105.76
1904.838	105.69
1908.042	106.26
1911.246	106.02
1914.449	105.89
1917.652	106.68
1920.855	106.57
1924.058	106.4
1927.26	105.78
1930.462	106.18
1933.664	107.25
1936.865	107.11
1940.066	106.47
1943.267	105.83
1946.467	106.49
1949.668	106.87
1952.868	107.87
1956.067	108
1959.267	108.11
1962.466	108.84
1965.665	108.7
1968.863	109.21
1972.061	110
1975.259	110.75
1978.457	111.77
1981.654	112.68
1984.852	112.92
1988.048	112.7
1991.245	114.06
1994.441	115.58
1997.637	116.66
2000.833	119.23
2004.028	120.32
2007.223	121.97
2010.418	123.23
2013.613	125.65
2016.807	127.72
2020.001	129.24
2023.194	130.65
2026.388	134.35
2029.581	137.08
2032.774	138.29
2035.966	140.13
2039.158	140.96
2042.35	143.48
2045.542	145.21
2048.733	146.13
2051.924	147.48
2055.115	150.45
2058.306	151.63
2061.496	151.34
2064.686	151.04
2067.875	154.09
2071.065	154.86
2074.254	154.82
2077.442	156.52
2080.631	156.63
2083.819	159.5
2087.007	160.43
2090.195	161.7
2093.382	163.29
2096.569	163.26
2099.756	166.41
2102.942	166.65
2106.128	167.13
2109.314	170.99
2112.5	170.56
2115.685	174.22
2118.87	174.58
2122.055	177.76
2125.239	179.26
2128.424	181.77
2131.608	182.5
2134.791	185.85
2137.974	186.77
2141.157	187.73
2144.34	187.65
2147.523	190.78
2150.705	189.98
2153.887	192.56
2157.068	193.02
2160.25	191.38
2163.431	192.67
2166.611	194.74
2169.792	198.38
2172.972	199.72
2176.152	200.8
2179.331	203.56
2182.511	205.71
2185.69	207.19
2188.868	210.29
2192.047	210.92
2195.225	216.5
2198.403	220.13
2201.58	224.72
2204.758	227.27
2207.935	232.32
2211.111	239.02
2214.288	241.34
2217.464	242.03
2220.64	247.95
2223.815	249.9
2226.991	259.92
2230.166	259.56
2233.34	263.47
2236.515	267.41
2239.689	267.87
2242.863	269.15
2246.036	276.19
2249.209	274.27
2252.382	278.35
2255.555	284.68
2258.727	287.09
2261.9	289.72
2265.071	293.96
2268.243	298.2
2271.414	300.78
2274.585	307.43
2277.756	309.78
2280.926	311.97
2284.096	320.05
2287.266	326.58
2290.436	328.22
2293.605	333.97
2296.774	341.18
2299.942	350.19
2303.111	353.84
2306.279	362.73
2309.447	366.92
2312.614	379.16
2315.781	386.73
2318.948	404.99
2322.115	400.96
2325.281	425.02
2328.447	416.56
2331.613	429.32
2334.779	426.13
2337.944	444.5
2341.109	446.38
2344.274	459.75
2347.438	471.42
2350.602	472.84
2353.766	484.62
2356.929	493.61
2360.092	485.95
2363.255	522.52
2366.418	526.77
2369.58	532.58
2372.742	565.16
2375.904	582.01
2379.066	577.71
2382.227	567.87
2385.388	610.5
2388.548	611.46
2391.709	615.89
2394.869	691.26
2398.029	660.24
2401.188	676.18
2404.347	675.91
2407.506	663.38
2410.665	676.83
2413.823	720.61
2416.981	765.34
2420.139	742.15
2423.296	733.62
2426.453	765.61
2429.61	730.94
2432.767	762.17
2435.923	755.46
2439.079	827.98
2442.235	845.81
2445.391	841.03
2448.546	828.66
2451.701	808.42
2454.855	811.96
2458.009	861.04
2461.163	892.76
2464.317	935.29
2467.471	964.26
2470.624	959.82
2473.777	933.79
2476.929	903.14
2480.082	876.13
2483.234	870.4
2486.385	914.18
2489.537	917.45
2492.688	951.01
2495.839	928.85
2498.989	905.29
2502.14	904.32
2505.29	915.34
2508.439	928.85
2511.589	926.96
2514.738	1012.77
2517.887	990.33
2521.035	1044.56
2524.183	1042.5
2527.331	1050.63
2530.479	1045.3
2533.627	1047.93
