Data from N_1_DEC_ON_6n_Splice17_12-27-26-159.txt Node
Date: Sat Mar 07 12:27:26 EST 2020
User: sa697716
Spectrometer: NQ5500242
Trigger mode: 0
Integration Time (sec): 1.450000E-1
Scans to average: 20
Nonlinearity correction enabled: false
Boxcar width: 5
Storing dark spectrum: false
XAxis mode: Wavelengths
Number of Pixels in Spectrum: 512
>>>>>Begin Spectral Data<<<<<
187.83	104.92
188.298	123.89
188.766	106.7
189.233	105.09
189.701	106.72
190.169	109.52
190.636	91.58
191.104	48.6
191.571	-27.76
192.039	125.81
192.506	70.03
192.974	115.68
193.441	238.6
193.908	91.07
194.375	123.27
194.842	60.58
195.31	60.67
195.777	-260.38
196.244	12.17
196.711	28.41
197.177	32.09
197.644	30.6
198.111	29.8
198.578	30.19
199.045	30.63
199.511	30.66
199.978	31.17
200.445	31.27
200.911	32.11
201.378	32.09
201.844	32.17
202.31	32
202.777	32.46
203.243	32.77
203.709	32.77
204.176	32.69
204.642	32.8
205.108	32.77
205.574	32.85
206.04	32.36
206.506	32.37
206.972	32.5
207.438	32.36
207.903	31.96
208.369	31.36
208.835	30.85
209.301	30.32
209.766	29.49
210.232	28.87
210.697	28.23
211.163	27.76
211.628	26.96
212.094	26.19
212.559	25.83
213.024	25.33
213.49	25.1
213.955	24.67
214.42	24.28
214.885	23.88
215.35	23.24
215.815	22.28
216.28	21.1
216.745	20
217.21	18.88
217.675	17.81
218.14	16.92
218.604	16.1
219.069	15.41
219.534	14.89
219.998	14.4
220.463	13.99
220.927	13.62
221.392	13.33
221.856	13.08
222.32	12.89
222.785	12.69
223.249	12.52
223.713	12.34
224.177	12.2
224.642	12.01
225.106	11.86
225.57	11.7
226.034	11.57
226.497	11.45
226.961	11.33
227.425	11.18
227.889	11.05
228.353	10.9
228.816	10.76
229.28	10.63
229.744	10.54
230.207	10.41
230.671	10.28
231.134	10.16
231.597	10.06
232.061	9.94
232.524	9.84
232.987	9.73
233.45	9.65
233.914	9.57
234.377	9.49
234.84	9.37
235.303	9.29
235.766	9.22
236.229	9.14
236.691	9.05
237.154	8.99
237.617	8.92
238.08	8.85
238.542	8.75
239.005	8.67
239.468	8.58
239.93	8.51
240.393	8.44
240.855	8.36
241.317	8.28
241.78	8.21
242.242	8.12
242.704	8.05
243.166	7.98
243.629	7.94
244.091	7.88
244.553	7.82
245.015	7.76
245.477	7.69
245.939	7.66
246.4	7.6
246.862	7.55
247.324	7.51
247.786	7.45
248.247	7.4
248.709	7.33
249.17	7.27
249.632	7.23
250.093	7.18
250.555	7.14
251.016	7.08
251.477	7.04
251.939	7
252.4	6.96
252.861	6.92
253.322	6.88
253.783	6.85
254.244	6.82
254.705	6.79
255.166	6.75
255.627	6.72
256.088	6.7
256.549	6.66
257.009	6.62
257.47	6.58
257.931	6.55
258.391	6.5
258.852	6.47
259.312	6.45
259.773	6.42
260.233	6.4
260.694	6.37
261.154	6.33
261.614	6.31
262.074	6.28
262.534	6.25
262.994	6.23
263.455	6.21
263.915	6.19
264.374	6.16
264.834	6.14
265.294	6.12
265.754	6.1
266.214	6.1
266.673	6.08
267.133	6.07
267.593	6.06
268.052	6.04
268.512	6.03
268.971	6.02
269.431	6.01
269.89	5.99
270.349	5.98
270.809	5.96
271.268	5.95
271.727	5.93
272.186	5.92
272.645	5.9
273.104	5.89
273.563	5.87
274.022	5.86
274.481	5.84
274.94	5.83
275.399	5.82
275.857	5.8
276.316	5.79
276.775	5.78
277.233	5.77
277.692	5.76
278.15	5.74
278.609	5.73
279.067	5.71
279.525	5.71
279.984	5.69
280.442	5.67
280.9	5.66
281.358	5.64
281.816	5.63
282.274	5.62
282.732	5.6
283.19	5.59
283.648	5.56
284.106	5.54
284.564	5.53
285.021	5.52
285.479	5.5
285.937	5.48
286.394	5.47
286.852	5.45
287.309	5.43
287.767	5.42
288.224	5.4
288.682	5.39
289.139	5.38
289.596	5.36
290.053	5.34
290.511	5.33
290.968	5.33
291.425	5.31
291.882	5.3
292.339	5.29
292.796	5.28
293.252	5.27
293.709	5.27
294.166	5.26
294.623	5.25
295.079	5.24
295.536	5.24
295.992	5.23
296.449	5.21
296.905	5.21
297.362	5.2
297.818	5.19
298.274	5.18
298.731	5.17
299.187	5.15
299.643	5.14
300.099	5.13
300.555	5.11
301.011	5.1
301.467	5.1
301.923	5.09
302.379	5.08
302.835	5.08
303.291	5.07
303.746	5.06
304.202	5.06
304.658	5.06
305.113	5.05
305.569	5.05
306.024	5.05
306.479	5.04
306.935	5.04
307.39	5.04
307.845	5.03
308.301	5.03
308.756	5.02
309.211	5.01
309.666	5.01
310.121	5.01
310.576	5.01
311.031	5
311.486	5
311.94	4.99
312.395	4.98
312.85	4.98
313.305	4.97
313.759	4.97
314.214	4.97
314.668	4.94
315.123	4.95
315.577	4.94
316.032	4.93
316.486	4.92
316.94	4.9
317.394	4.9
317.849	4.89
318.303	4.87
318.757	4.85
319.211	4.84
319.665	4.84
320.119	4.82
320.572	4.81
321.026	4.8
321.48	4.78
321.934	4.77
322.387	4.76
322.841	4.74
323.295	4.74
323.748	4.74
324.202	4.73
324.655	4.71
325.108	4.71
325.562	4.7
326.015	4.69
326.468	4.69
326.921	4.68
327.374	4.67
327.827	4.67
328.28	4.65
328.733	4.64
329.186	4.63
329.639	4.63
330.092	4.62
330.545	4.62
330.997	4.61
331.45	4.61
331.903	4.61
332.355	4.61
332.808	4.61
333.26	4.6
333.713	4.59
334.165	4.58
334.617	4.59
335.069	4.57
335.522	4.57
335.974	4.57
336.426	4.56
336.878	4.55
337.33	4.54
337.782	4.54
338.234	4.54
338.686	4.54
339.137	4.54
339.589	4.52
340.041	4.5
340.493	4.49
340.944	4.47
341.396	4.46
341.847	4.45
342.299	4.43
342.75	4.42
343.201	4.4
343.653	4.38
344.104	4.36
344.555	4.35
345.006	4.34
345.457	4.33
345.908	4.33
346.359	4.33
346.81	4.32
347.261	4.31
347.712	4.31
348.163	4.3
348.613	4.29
349.064	4.29
349.515	4.28
349.965	4.28
350.416	4.27
350.866	4.25
351.317	4.25
351.767	4.24
352.217	4.23
352.668	4.22
353.118	4.22
353.568	4.22
354.018	4.22
354.468	4.23
354.918	4.23
355.368	4.23
355.818	4.24
356.268	4.23
356.718	4.22
357.168	4.21
357.617	4.21
358.067	4.2
358.517	4.22
358.966	4.21
359.416	4.2
359.865	4.19
360.315	4.2
360.764	4.19
361.213	4.19
361.663	4.19
362.112	4.2
362.561	4.2
363.01	4.19
363.459	4.17
363.908	4.15
364.357	4.16
364.806	4.15
365.255	4.14
365.703	4.14
366.152	4.15
366.601	4.15
367.05	4.14
367.498	4.13
367.947	4.14
368.395	4.16
368.844	4.17
369.292	4.16
369.74	4.18
370.189	4.18
370.637	4.17
371.085	4.17
371.533	4.18
371.981	4.18
372.429	4.19
372.877	4.19
373.325	4.19
373.773	4.19
374.221	4.19
374.669	4.18
375.116	4.19
375.564	4.2
376.012	4.2
376.459	4.21
376.907	4.22
377.354	4.23
377.801	4.24
378.249	4.25
378.696	4.25
379.143	4.27
379.591	4.28
380.038	4.29
380.485	4.3
380.932	4.3
381.379	4.3
381.826	4.31
382.273	4.32
382.72	4.33
383.166	4.34
383.613	4.35
384.06	4.36
384.506	4.36
384.953	4.38
385.4	4.4
385.846	4.42
386.292	4.43
386.739	4.44
387.185	4.44
387.631	4.46
388.078	4.48
388.524	4.49
388.97	4.5
389.416	4.52
389.862	4.53
390.308	4.55
390.754	4.57
391.2	4.58
391.645	4.59
392.091	4.61
392.537	4.62
392.983	4.63
393.428	4.64
393.874	4.65
394.319	4.66
394.765	4.66
395.21	4.67
395.655	4.68
396.101	4.69
396.546	4.7
396.991	4.73
397.436	4.74
397.881	4.75
398.326	4.77
398.771	4.78
399.216	4.8
399.661	4.81
400.106	4.82
400.551	4.82
400.995	4.82
401.44	4.82
401.885	4.81
402.329	4.81
402.774	4.81
403.218	4.82
403.663	4.83
404.107	4.82
404.551	4.83
404.995	4.83
405.44	4.83
405.884	4.83
406.328	4.83
406.772	4.83
407.216	4.83
407.66	4.83
408.104	4.82
408.547	4.83
408.991	4.84
409.435	4.83
409.879	4.84
410.322	4.84
410.766	4.85
411.209	4.87
411.653	4.89
412.096	4.89
412.54	4.89
412.983	4.88
413.426	4.89
413.869	4.9
414.312	4.91
414.756	4.91
415.199	4.9
415.642	4.91
416.085	4.9
416.527	4.88
416.97	4.88
417.413	4.88
417.856	4.89
418.298	4.87
418.741	4.87
419.184	4.87
419.626	4.87
420.069	4.88
420.511	4.86
420.953	4.87
421.396	4.88
421.838	4.88
422.28	4.89
422.722	4.9
423.164	4.89
423.606	4.89
424.048	4.89
424.49	4.89
424.932	4.89
425.374	4.88
425.816	4.86
426.258	4.87
426.699	4.86
427.141	4.84
427.582	4.84
428.024	4.85
428.465	4.84
428.907	4.83
429.348	4.82
429.789	4.81
430.231	4.83
430.672	4.84
431.113	4.85
431.554	4.85
431.995	4.85
432.436	4.85
432.877	4.85
433.318	4.87
433.759	4.89
434.2	4.9
434.64	4.91
435.081	4.92
435.522	4.93
435.962	4.94
436.403	4.97
436.843	4.98
437.284	4.97
437.724	4.96
438.164	4.94
438.604	4.95
439.045	4.95
439.485	4.95
439.925	4.93
440.365	4.92
440.805	4.91
441.245	4.91
441.685	4.92
442.125	4.95
442.564	4.96
443.004	4.97
443.444	4.96
443.883	4.96
444.323	4.96
444.762	4.97
445.202	4.97
445.641	4.98
446.081	4.98
446.52	4.98
446.959	4.99
447.398	5
447.837	5.01
448.276	5.02
448.716	5.03
449.154	5.04
449.593	5.04
450.032	5.04
450.471	5.04
450.91	5.03
451.349	5.02
451.787	4.99
452.226	4.98
452.664	4.97
453.103	4.96
453.541	4.94
453.98	4.94
454.418	4.92
454.856	4.91
455.295	4.89
455.733	4.87
456.171	4.87
456.609	4.87
457.047	4.85
457.485	4.83
457.923	4.83
458.361	4.82
458.798	4.82
459.236	4.82
459.674	4.82
460.111	4.82
460.549	4.83
460.987	4.83
461.424	4.84
461.862	4.84
462.299	4.86
462.736	4.85
463.173	4.84
463.611	4.84
464.048	4.85
464.485	4.84
464.922	4.85
465.359	4.86
465.796	4.86
466.233	4.87
466.67	4.88
467.106	4.88
467.543	4.89
467.98	4.89
468.416	4.89
468.853	4.88
469.29	4.89
469.726	4.88
470.162	4.87
470.599	4.86
471.035	4.85
471.471	4.84
471.907	4.83
472.344	4.83
472.78	4.84
473.216	4.83
473.652	4.83
474.088	4.82
474.523	4.82
474.959	4.83
475.395	4.81
475.831	4.79
476.266	4.78
476.702	4.77
477.138	4.76
477.573	4.75
478.008	4.75
478.444	4.75
478.879	4.74
479.314	4.73
479.75	4.71
480.185	4.7
480.62	4.69
481.055	4.69
481.49	4.68
481.925	4.69
482.36	4.69
482.795	4.68
483.229	4.67
483.664	4.67
484.099	4.66
484.534	4.66
484.968	4.67
485.403	4.67
485.837	4.68
486.271	4.69
486.706	4.68
487.14	4.68
487.574	4.69
488.009	4.7
488.443	4.71
488.877	4.72
489.311	4.74
489.745	4.75
490.179	4.77
490.613	4.79
491.046	4.8
491.48	4.83
491.914	4.85
492.348	4.87
492.781	4.9
493.215	4.92
493.648	4.96
494.082	4.98
494.515	5.01
494.948	5.04
495.382	5.07
495.815	5.11
496.248	5.15
496.681	5.19
497.114	5.24
497.547	5.28
497.98	5.32
498.413	5.37
498.846	5.43
499.279	5.48
499.711	5.53
500.144	5.6
500.577	5.67
501.009	5.73
501.442	5.79
501.874	5.87
502.306	5.95
502.739	6.04
503.171	6.12
503.603	6.21
504.036	6.3
504.468	6.41
504.9	6.5
505.332	6.61
505.764	6.73
506.196	6.86
506.627	6.98
507.059	7.12
507.491	7.24
507.923	7.39
508.354	7.54
508.786	7.7
509.217	7.85
509.649	8.02
510.08	8.19
510.512	8.36
510.943	8.54
511.374	8.72
511.805	8.9
512.237	9.09
512.668	9.29
513.099	9.48
513.53	9.69
513.961	9.9
514.391	10.11
514.822	10.34
515.253	10.57
515.684	10.79
516.114	11.03
516.545	11.27
516.975	11.52
517.406	11.76
517.836	12.02
518.267	12.27
518.697	12.51
519.127	12.74
519.558	12.98
519.988	13.23
520.418	13.47
520.848	13.7
521.278	13.94
521.708	14.2
522.138	14.43
522.567	14.64
522.997	14.86
523.427	15.09
523.857	15.3
524.286	15.5
524.716	15.7
525.145	15.9
525.575	16.11
526.004	16.3
526.433	16.46
526.863	16.64
527.292	16.83
527.721	16.99
528.15	17.15
528.579	17.3
529.008	17.45
529.437	17.58
529.866	17.72
530.295	17.83
530.724	17.94
531.152	18.05
531.581	18.16
532.01	18.26
532.438	18.35
532.867	18.44
533.295	18.54
533.723	18.61
534.152	18.69
534.58	18.77
535.008	18.82
535.436	18.88
535.865	18.94
536.293	18.99
536.721	19.05
537.149	19.11
537.576	19.16
538.004	19.21
538.432	19.26
538.86	19.29
539.287	19.31
539.715	19.36
540.143	19.41
540.57	19.45
540.998	19.48
541.425	19.51
541.852	19.53
542.28	19.56
542.707	19.58
543.134	19.61
543.561	19.64
543.988	19.68
544.415	19.7
544.842	19.71
545.269	19.73
545.696	19.76
546.123	19.76
546.549	19.79
546.976	19.81
547.403	19.83
547.829	19.84
548.256	19.86
548.682	19.87
549.108	19.89
549.535	19.91
549.961	19.92
550.387	19.91
550.813	19.93
551.24	19.92
551.666	19.91
552.092	19.9
552.518	19.89
552.943	19.87
553.369	19.85
553.795	19.81
554.221	19.77
554.646	19.72
555.072	19.68
555.498	19.61
555.923	19.55
556.349	19.49
556.774	19.42
557.199	19.36
557.625	19.29
558.05	19.22
558.475	19.14
558.9	19.07
559.325	19
559.75	18.92
560.175	18.83
560.6	18.72
561.025	18.61
561.449	18.51
561.874	18.37
562.299	18.25
562.723	18.12
563.148	17.98
563.572	17.84
563.997	17.7
564.421	17.56
564.846	17.41
565.27	17.28
565.694	17.14
566.118	17
566.542	16.87
566.966	16.72
567.39	16.59
567.814	16.45
568.238	16.33
568.662	16.19
569.086	16.06
569.509	15.94
569.933	15.81
570.357	15.68
570.78	15.55
571.204	15.42
571.627	15.29
572.05	15.17
572.474	15.05
572.897	14.92
573.32	14.81
573.743	14.7
574.166	14.58
574.589	14.46
575.012	14.35
575.435	14.24
575.858	14.15
576.281	14.05
576.704	13.95
577.126	13.85
577.549	13.75
577.972	13.66
578.394	13.57
578.817	13.49
579.239	13.41
579.661	13.34
580.084	13.26
580.506	13.18
580.928	13.11
581.35	13.04
581.772	12.97
582.194	12.91
582.616	12.84
583.038	12.76
583.46	12.69
583.882	12.63
584.303	12.56
584.725	12.49
585.147	12.43
585.568	12.38
585.99	12.33
586.411	12.27
586.833	12.21
587.254	12.16
587.675	12.1
588.096	12.05
588.518	12
588.939	11.96
589.36	11.92
589.781	11.88
590.202	11.85
590.623	11.8
591.043	11.77
591.464	11.73
591.885	11.69
592.305	11.67
592.726	11.64
593.147	11.62
593.567	11.58
593.987	11.54
594.408	11.5
594.828	11.46
595.248	11.44
595.669	11.41
596.089	11.38
596.509	11.36
596.929	11.33
597.349	11.3
597.769	11.27
598.189	11.24
598.608	11.22
599.028	11.19
599.448	11.15
599.867	11.11
600.287	11.07
600.706	11.04
601.126	11
601.545	10.97
601.965	10.93
602.384	10.9
602.803	10.87
603.222	10.83
603.641	10.78
604.061	10.74
604.48	10.69
604.898	10.64
605.317	10.6
605.736	10.56
606.155	10.5
606.574	10.46
606.992	10.4
607.411	10.34
607.829	10.26
608.248	10.21
608.666	10.15
609.085	10.1
609.503	10.06
609.921	9.99
610.339	9.94
610.758	9.88
611.176	9.81
611.594	9.76
612.012	9.69
612.43	9.67
612.847	9.61
613.265	9.56
613.683	9.51
614.101	9.45
614.518	9.41
614.936	9.34
615.353	9.29
615.771	9.25
616.188	9.2
616.606	9.16
617.023	9.11
617.44	9.08
617.857	9.04
618.274	9
618.691	8.95
619.108	8.92
619.525	8.88
619.942	8.86
620.359	8.82
620.776	8.8
621.192	8.76
621.609	8.75
622.026	8.73
622.442	8.71
622.859	8.69
623.275	8.69
623.691	8.66
624.108	8.66
624.524	8.64
624.94	8.63
625.356	8.63
625.772	8.63
626.188	8.62
626.604	8.61
627.02	8.6
627.436	8.6
627.852	8.59
628.268	8.58
628.683	8.58
629.099	8.58
629.514	8.57
629.93	8.55
630.345	8.53
630.761	8.5
631.176	8.49
631.591	8.45
632.007	8.42
632.422	8.38
632.837	8.34
633.252	8.3
633.667	8.25
634.082	8.2
634.497	8.14
634.911	8.07
635.326	8.02
635.741	7.96
636.155	7.91
636.57	7.84
636.984	7.78
637.399	7.71
637.813	7.63
638.228	7.55
638.642	7.47
639.056	7.39
639.47	7.32
639.884	7.24
640.298	7.14
640.712	7.06
641.126	6.98
641.54	6.89
641.954	6.81
642.368	6.74
642.781	6.67
643.195	6.6
643.609	6.53
644.022	6.47
644.436	6.41
644.849	6.36
645.262	6.3
645.676	6.25
646.089	6.21
646.502	6.16
646.915	6.13
647.328	6.1
647.741	6.06
648.154	6.03
648.567	6
648.98	5.98
649.393	5.95
649.805	5.93
650.218	5.92
650.631	5.9
651.043	5.89
651.456	5.87
651.868	5.85
652.28	5.83
652.693	5.81
653.105	5.81
653.517	5.79
653.929	5.78
654.341	5.75
654.753	5.72
655.165	5.7
655.577	5.68
655.989	5.65
656.401	5.63
656.813	5.61
657.224	5.58
657.636	5.53
658.047	5.5
658.459	5.46
658.87	5.43
659.282	5.39
659.693	5.36
660.104	5.31
660.515	5.27
660.926	5.24
661.338	5.2
661.749	5.17
662.159	5.15
662.57	5.12
662.981	5.1
663.392	5.09
663.803	5.07
664.213	5.05
664.624	5.04
665.035	5.03
665.445	5.02
665.855	5.01
666.266	5.02
666.676	5.02
667.086	5.01
667.497	5.01
667.907	5.01
668.317	5.02
668.727	5.03
669.137	5.04
669.547	5.05
669.956	5.06
670.366	5.08
670.776	5.08
671.186	5.1
671.595	5.12
672.005	5.14
672.414	5.16
672.824	5.19
673.233	5.22
673.642	5.24
674.052	5.26
674.461	5.28
674.87	5.31
675.279	5.35
675.688	5.38
676.097	5.41
676.506	5.44
676.915	5.48
677.323	5.51
677.732	5.54
678.141	5.58
678.549	5.62
678.958	5.66
679.366	5.7
679.775	5.74
680.183	5.79
680.592	5.85
681	5.9
681.408	5.94
681.816	6
682.224	6.05
682.632	6.11
683.04	6.16
683.448	6.23
683.856	6.29
684.264	6.38
684.671	6.46
685.079	6.54
685.487	6.65
685.894	6.77
686.302	6.91
686.709	7.05
687.116	7.22
687.524	7.42
687.931	7.64
688.338	7.87
688.745	8.13
689.152	8.4
689.559	8.71
689.966	9.02
690.373	9.36
690.78	9.71
691.187	10.1
691.593	10.51
692	10.93
692.407	11.35
692.813	11.81
693.22	12.26
693.626	12.74
694.032	13.21
694.439	13.71
694.845	14.22
695.251	14.74
695.657	15.27
696.063	15.79
696.469	16.33
696.875	16.88
697.281	17.41
697.687	17.97
698.093	18.52
698.498	19.07
698.904	19.62
699.31	20.15
699.715	20.7
700.12	21.24
700.526	21.78
700.931	22.33
701.337	22.87
701.742	23.4
702.147	23.91
702.552	24.44
702.957	24.95
703.362	25.46
703.767	25.96
704.172	26.46
704.577	26.94
704.981	27.42
705.386	27.89
705.791	28.37
706.195	28.85
706.6	29.34
707.004	29.79
707.408	30.26
707.813	30.7
708.217	31.17
708.621	31.63
709.025	32.05
709.43	32.47
709.834	32.9
710.237	33.32
710.641	33.72
711.045	34.1
711.449	34.52
711.853	34.93
712.256	35.33
712.66	35.74
713.064	36.1
713.467	36.52
713.87	36.89
714.274	37.26
714.677	37.63
715.08	37.97
715.484	38.34
715.887	38.7
716.29	39.04
716.693	39.38
717.096	39.71
717.499	40.03
717.901	40.34
718.304	40.66
718.707	40.99
719.109	41.29
719.512	41.59
719.915	41.88
720.317	42.14
720.719	42.39
721.122	42.66
721.524	42.9
721.926	43.16
722.328	43.41
722.731	43.67
723.133	43.9
723.535	44.14
723.937	44.4
724.338	44.62
724.74	44.85
725.142	45.12
725.544	45.3
725.945	45.5
726.347	45.71
726.748	45.9
727.15	46.07
727.551	46.24
727.952	46.39
728.354	46.54
728.755	46.7
729.156	46.84
729.557	46.94
729.958	47.08
730.359	47.23
730.76	47.36
731.161	47.48
731.562	47.6
731.962	47.71
732.363	47.84
732.763	47.97
733.164	48.09
733.564	48.2
733.965	48.3
734.365	48.43
734.766	48.54
735.166	48.64
735.566	48.75
735.966	48.85
736.366	48.95
736.766	49.04
737.166	49.12
737.566	49.19
737.966	49.27
738.365	49.35
738.765	49.41
739.165	49.47
739.564	49.54
739.964	49.6
740.363	49.63
740.763	49.69
741.162	49.72
741.561	49.75
741.96	49.78
742.36	49.83
742.759	49.87
743.158	49.9
743.557	49.9
743.955	49.95
744.354	49.96
744.753	50.03
745.152	50.07
745.55	50.13
745.949	50.17
746.348	50.21
746.746	50.24
747.144	50.27
747.543	50.28
747.941	50.32
748.339	50.32
748.737	50.35
749.136	50.35
749.534	50.35
749.932	50.35
750.33	50.37
750.727	50.41
751.125	50.41
751.523	50.43
751.921	50.46
752.318	50.5
752.716	50.51
753.113	50.56
753.511	50.59
753.908	50.61
754.305	50.65
754.703	50.65
755.1	50.64
755.497	50.67
755.894	50.65
756.291	50.66
756.688	50.65
757.085	50.7
757.482	50.69
757.878	50.68
758.275	50.7
758.672	50.7
759.068	50.73
759.465	50.73
759.861	50.74
760.258	50.78
760.654	50.76
761.05	50.77
761.447	50.74
761.843	50.73
762.239	50.74
762.635	50.72
763.031	50.7
763.427	50.67
763.822	50.66
764.218	50.65
764.614	50.65
765.01	50.63
765.405	50.59
765.801	50.59
766.196	50.59
766.592	50.58
766.987	50.57
767.382	50.54
767.778	50.55
768.173	50.56
768.568	50.56
768.963	50.53
769.358	50.55
769.753	50.58
770.148	50.57
770.542	50.57
770.937	50.6
771.332	50.59
771.726	50.61
772.121	50.6
772.515	50.56
772.91	50.55
773.304	50.56
773.699	50.57
774.093	50.58
774.487	50.58
774.881	50.58
775.275	50.53
775.669	50.52
776.063	50.51
776.457	50.52
776.851	50.55
777.245	50.54
777.638	50.54
778.032	50.54
778.425	50.55
778.819	50.51
779.212	50.53
779.606	50.57
779.999	50.57
780.392	50.6
780.786	50.6
781.179	50.61
781.572	50.65
781.965	50.63
782.358	50.65
782.751	50.63
783.143	50.65
783.536	50.62
783.929	50.62
784.322	50.64
784.714	50.64
785.107	50.67
785.499	50.67
785.891	50.67
786.284	50.68
786.676	50.66
787.068	50.66
787.46	50.68
787.852	50.71
788.245	50.7
788.636	50.69
789.028	50.71
789.42	50.69
789.812	50.68
790.204	50.7
790.595	50.71
790.987	50.7
791.378	50.71
791.77	50.71
792.161	50.68
792.553	50.7
792.944	50.71
793.335	50.7
793.726	50.71
794.117	50.68
794.508	50.63
794.899	50.64
795.29	50.67
795.681	50.64
796.072	50.62
796.463	50.62
796.853	50.61
797.244	50.6
797.634	50.59
798.025	50.58
798.415	50.6
798.806	50.59
799.196	50.58
799.586	50.57
799.976	50.63
800.366	50.63
800.756	50.65
801.146	50.67
801.536	50.66
801.926	50.66
802.316	50.65
802.706	50.65
803.095	50.69
803.485	50.71
803.874	50.7
804.264	50.66
804.653	50.65
805.043	50.67
805.432	50.65
805.821	50.66
806.21	50.69
806.599	50.71
806.988	50.71
807.377	50.67
807.766	50.64
808.155	50.61
808.544	50.63
808.933	50.61
809.321	50.58
809.71	50.59
810.098	50.57
810.487	50.53
810.875	50.52
811.264	50.51
811.652	50.52
812.04	50.54
812.428	50.57
812.816	50.55
813.204	50.55
813.592	50.55
813.98	50.56
814.368	50.59
814.756	50.6
815.144	50.59
815.531	50.59
815.919	50.6
816.306	50.58
816.694	50.56
817.081	50.58
817.469	50.59
817.856	50.58
818.243	50.56
818.63	50.54
819.017	50.54
819.404	50.53
819.791	50.54
820.178	50.54
820.565	50.53
820.952	50.53
821.339	50.53
821.725	50.54
822.112	50.55
822.498	50.57
822.885	50.6
823.271	50.6
823.657	50.58
824.044	50.57
824.43	50.56
824.816	50.57
825.202	50.55
825.588	50.53
825.974	50.53
826.36	50.55
826.746	50.55
827.132	50.54
827.517	50.54
827.903	50.58
828.289	50.6
828.674	50.63
829.06	50.63
829.445	50.65
829.83	50.66
830.216	50.64
830.601	50.62
830.986	50.62
831.371	50.62
831.756	50.64
832.141	50.62
832.526	50.63
832.911	50.6
833.295	50.62
833.68	50.65
834.065	50.66
834.449	50.67
834.834	50.68
835.218	50.69
835.603	50.7
835.987	50.68
836.371	50.68
836.755	50.67
837.139	50.66
837.524	50.66
837.908	50.67
838.291	50.68
838.675	50.69
839.059	50.69
839.443	50.67
839.827	50.64
840.21	50.66
840.594	50.69
840.977	50.69
841.361	50.72
841.744	50.71
842.127	50.66
842.511	50.64
842.894	50.62
843.277	50.63
843.66	50.62
844.043	50.64
844.426	50.64
844.809	50.64
845.191	50.67
845.574	50.64
845.957	50.66
846.339	50.69
846.722	50.7
847.104	50.71
847.487	50.7
847.869	50.71
848.252	50.72
848.634	50.71
849.016	50.71
849.398	50.71
849.78	50.74
850.162	50.73
850.544	50.75
850.926	50.75
851.307	50.76
851.689	50.77
852.071	50.77
852.452	50.78
852.834	50.79
853.215	50.8
853.597	50.79
853.978	50.79
854.359	50.8
854.741	50.76
855.122	50.76
855.503	50.75
855.884	50.73
856.265	50.74
856.646	50.72
857.026	50.73
857.407	50.72
857.788	50.72
858.169	50.71
858.549	50.7
858.93	50.71
859.31	50.72
859.69	50.73
860.071	50.77
860.451	50.77
860.831	50.77
861.211	50.76
861.591	50.74
861.971	50.73
862.351	50.75
862.731	50.77
863.111	50.76
863.491	50.75
863.87	50.73
864.25	50.71
864.629	50.71
865.009	50.71
865.388	50.7
865.768	50.71
866.147	50.72
866.526	50.72
866.905	50.7
867.284	50.72
867.663	50.73
868.042	50.75
868.421	50.76
868.8	50.76
869.179	50.77
869.558	50.77
869.936	50.77
870.315	50.77
870.693	50.74
871.072	50.78
871.45	50.79
871.828	50.8
872.207	50.79
872.585	50.77
872.963	50.79
873.341	50.8
873.719	50.82
874.097	50.82
874.475	50.83
874.853	50.86
875.23	50.86
875.608	50.85
875.986	50.88
876.363	50.9
876.741	50.91
877.118	50.94
877.495	50.95
877.873	50.95
878.25	50.98
878.627	50.96
879.004	50.98
879.381	50.98
879.758	50.97
880.135	50.95
880.512	50.93
880.889	50.95
881.265	50.93
881.642	50.92
882.019	50.89
882.395	50.88
882.772	50.87
883.148	50.84
883.524	50.84
883.901	50.86
884.277	50.85
884.653	50.83
885.029	50.83
885.405	50.82
885.781	50.8
886.157	50.81
886.532	50.81
886.908	50.81
887.284	50.79
887.659	50.76
888.035	50.72
888.411	50.72
888.786	50.73
889.161	50.71
889.537	50.73
889.912	50.76
890.287	50.75
890.662	50.75
891.037	50.76
891.412	50.75
891.787	50.76
892.162	50.79
892.536	50.79
892.911	50.78
893.286	50.8
893.66	50.78
894.035	50.78
894.409	50.79
894.784	50.79
895.158	50.78
895.532	50.82
895.906	50.81
896.281	50.79
896.655	50.81
897.029	50.84
897.402	50.81
897.776	50.82
898.15	50.81
898.524	50.81
898.898	50.81
899.271	50.82
899.645	50.82
900.018	50.87
900.392	50.9
900.765	50.89
901.138	50.88
901.511	50.89
901.884	50.89
902.258	50.88
902.631	50.89
903.003	50.88
903.376	50.89
903.749	50.87
904.122	50.86
904.495	50.85
904.867	50.85
905.24	50.86
905.612	50.89
905.985	50.88
906.357	50.9
906.729	50.92
907.102	50.92
907.474	50.95
907.846	50.93
908.218	50.92
908.59	50.9
908.962	50.92
909.334	50.92
909.705	50.9
910.077	50.9
910.449	50.89
910.82	50.89
911.192	50.87
911.563	50.83
911.935	50.83
912.306	50.82
912.677	50.83
913.048	50.84
913.419	50.82
913.79	50.85
914.161	50.89
914.532	50.87
914.903	50.85
915.274	50.88
915.645	50.9
916.015	50.92
916.386	50.91
916.756	50.93
917.127	50.92
917.497	50.93
917.868	50.92
918.238	50.88
918.608	50.92
918.978	50.91
919.348	50.91
919.718	50.9
920.088	50.92
920.458	50.93
920.828	50.91
921.198	50.88
921.567	50.87
921.937	50.88
922.306	50.85
922.676	50.82
923.045	50.82
923.415	50.79
923.784	50.77
924.153	50.76
924.522	50.74
924.891	50.7
925.26	50.7
925.629	50.69
925.998	50.65
926.367	50.69
926.736	50.65
927.104	50.64
927.473	50.64
927.842	50.62
928.21	50.6
928.578	50.57
928.947	50.6
929.315	50.58
929.683	50.54
930.051	50.52
930.42	50.47
930.788	50.47
931.156	50.45
931.523	50.43
931.891	50.46
932.259	50.45
932.627	50.48
932.994	50.47
933.362	50.46
933.729	50.48
934.097	50.51
934.464	50.48
934.831	50.51
935.199	50.56
935.566	50.59
935.933	50.59
936.3	50.55
936.667	50.53
937.034	50.49
937.401	50.52
937.767	50.55
938.134	50.54
938.501	50.58
938.867	50.55
939.234	50.45
939.6	50.44
939.967	50.4
940.333	50.42
940.699	50.46
941.065	50.46
941.431	50.45
941.798	50.43
942.163	50.42
942.529	50.42
942.895	50.41
943.261	50.44
943.627	50.41
943.992	50.37
944.358	50.38
944.723	50.36
945.089	50.33
945.454	50.32
945.82	50.31
946.185	50.33
946.55	50.26
946.915	50.27
947.28	50.26
947.645	50.27
948.01	50.3
948.375	50.32
948.74	50.29
949.104	50.33
949.469	50.31
949.834	50.28
950.198	50.23
950.562	50.22
950.927	50.18
951.291	50.11
951.655	50.03
952.02	49.98
952.384	49.91
952.748	49.87
953.112	49.84
953.476	49.79
953.839	49.75
954.203	49.73
954.567	49.69
954.931	49.68
955.294	49.67
955.658	49.77
956.021	49.74
956.385	49.7
956.748	49.68
957.111	49.65
957.474	49.68
957.837	49.59
958.2	49.58
958.563	49.59
958.926	49.56
959.289	49.57
959.652	49.51
960.015	49.51
960.377	49.51
960.74	49.51
961.102	49.55
961.465	49.55
961.827	49.65
962.189	49.64
962.552	49.63
962.914	49.61
963.276	49.61
963.638	49.58
964	49.59
964.362	49.63
964.724	49.59
965.085	49.52
965.447	49.48
965.809	49.47
966.17	49.46
966.532	49.42
966.893	49.41
967.255	49.46
967.616	49.43
967.977	49.46
968.338	49.49
968.699	49.56
969.061	49.62
969.421	49.63
969.782	49.6
970.143	49.6
970.504	49.62
970.865	49.69
971.225	49.67
971.586	49.71
971.946	49.66
972.307	49.57
972.667	49.49
973.027	49.43
973.388	49.38
973.748	49.39
974.108	49.44
974.468	49.38
974.828	49.36
975.188	49.31
975.548	49.24
975.907	49.22
976.267	49.21
976.627	49.2
976.986	49.16
977.346	49.13
977.705	49.11
978.064	49.12
978.424	49.17
978.783	49.15
979.142	49.1
979.501	49.15
979.86	49.21
980.219	49.18
980.578	49.19
980.937	49.21
981.296	49.27
981.654	49.28
982.013	49.21
982.371	49.18
982.73	49.2
983.088	49.24
983.447	49.18
983.805	49.16
984.163	49.13
984.521	49.18
984.879	49.12
985.237	49.12
985.595	49.13
985.953	49.16
986.311	49.08
986.669	49.02
987.026	48.95
987.384	48.96
987.741	48.85
988.099	48.92
988.456	48.84
988.814	48.89
989.171	48.88
989.528	48.82
989.885	48.73
990.242	48.79
990.599	48.87
990.956	48.94
991.313	48.97
991.67	49.05
992.027	49.1
992.383	49.18
992.74	49.19
993.096	49.12
993.453	49.18
993.809	49.24
994.165	49.24
994.522	49.18
994.878	49.16
995.234	49.15
995.59	49.09
995.946	49.08
996.302	49.13
996.658	49.18
997.013	49.16
997.369	49.09
997.725	49.1
998.08	49.16
998.436	49.17
998.791	49.17
999.147	49.19
999.502	49.2
999.857	49.17
1000.212	48.99
1000.567	48.92
1000.922	48.94
1001.277	48.95
1001.632	48.8
1001.987	48.69
1002.342	48.63
1002.696	48.64
1003.051	48.68
1003.406	48.76
1003.76	48.74
1004.114	48.86
1004.469	48.79
1004.823	49.05
1005.177	49.04
1005.531	49.2
1005.885	49.28
1006.239	49.3
1006.593	49.3
1006.947	49.22
1007.301	48.98
1007.655	48.88
1008.008	48.82
1008.362	48.92
1008.715	48.76
1009.069	48.77
1009.422	48.75
1009.776	48.65
1010.129	48.69
1010.482	48.71
1010.835	48.73
1011.188	49.02
1011.541	49
1011.894	49.02
1012.247	49.01
1012.6	48.93
1012.952	48.86
1013.305	48.92
1013.657	49.01
1014.01	49.08
1014.362	49.06
1014.715	48.92
1015.067	48.97
1015.419	49.11
1015.771	48.89
1016.123	48.81
1016.475	48.65
1016.827	48.7
1017.179	48.69
1017.531	48.72
1017.883	48.64
1018.234	48.73
1018.586	48.74
1018.938	48.6
1019.289	48.5
1019.64	48.77
1019.992	48.77
1020.343	48.99
1020.694	49.11
1021.045	49.07
1021.396	49.04
1021.747	49.09
1022.098	48.94
1022.449	48.97
1022.8	49.05
1023.151	48.86
1023.501	48.85
1023.852	49.05
1024.202	48.83
1024.553	48.63
1024.903	48.52
1025.253	48.68
1025.604	48.53
1025.954	48.34
1026.304	48.29
1026.654	48.35
1027.004	48.44
1027.354	48.26
1027.703	47.76
1028.053	47.67
1028.403	47.76
1028.753	47.48
1029.102	47.29
1029.452	47.43
1029.801	47.75
1030.15	47.75
1030.499	47.39
897.758	565.03
901.051	569.04
904.343	568.3
907.636	578.88
910.928	564.43
914.22	566.47
917.511	562.81
920.803	540.3
924.094	538.04
927.384	524.84
930.675	503.12
933.965	503.24
937.255	476.56
940.544	460.54
943.834	439.45
947.123	436.18
950.411	412.98
953.7	403.66
956.988	387.35
960.276	374.17
963.563	366.03
966.851	358.67
970.138	355.6
973.424	345.71
976.711	346.2
979.997	332.03
983.283	330.36
986.568	323.59
989.853	317.59
993.138	309.21
996.423	298.6
999.708	293.5
1002.992	288.5
1006.275	273.4
1009.559	271.67
1012.842	262.84
1016.125	255.62
1019.408	251.57
1022.69	250.37
1025.972	242.92
1029.254	238.77
1032.536	235.15
1035.817	229.38
1039.098	227.42
1042.379	226.21
1045.659	224.12
1048.939	219.34
1052.219	216.67
1055.498	214.12
1058.778	208.08
1062.057	205.11
1065.335	203.55
1068.614	200.72
1071.892	199.99
1075.17	195.6
1078.447	191.97
1081.724	189.86
1085.001	189.42
1088.278	186.21
1091.554	181.35
1094.83	182.26
1098.106	180.79
1101.382	179.87
1104.657	179.74
1107.932	176.38
1111.206	176.69
1114.481	173.98
1117.755	173.2
1121.029	171.41
1124.302	170.36
1127.575	169.46
1130.848	167.43
1134.121	165.36
1137.393	163.97
1140.665	160.66
1143.937	160.25
1147.208	159.08
1150.48	157.88
1153.75	156.11
1157.021	154.98
1160.291	154.66
1163.561	152.57
1166.831	153.01
1170.101	152.81
1173.37	153.33
1176.639	153.44
1179.907	152.41
1183.176	151.11
1186.444	150.9
1189.711	150.49
1192.979	150.6
1196.246	149.59
1199.513	150.81
1202.78	149.51
1206.046	148.96
1209.312	147.27
1212.578	147.77
1215.843	148.51
1219.108	148.05
1222.373	150.32
1225.638	151.48
1228.902	151.99
1232.166	153.08
1235.43	152.23
1238.693	154.18
1241.956	155.04
1245.219	156.79
1248.482	156.76
1251.744	156.53
1255.006	157.45
1258.268	154.69
1261.529	153.74
1264.79	152.53
1268.051	152
1271.312	151.74
1274.572	150.19
1277.832	149.53
1281.092	147.56
1284.351	146.74
1287.61	147.04
1290.869	144.41
1294.128	143.93
1297.386	143.74
1300.644	143.39
1303.902	142.92
1307.159	142.3
1310.416	141.98
1313.673	141.17
1316.93	142.09
1320.186	141.49
1323.442	141.56
1326.697	143.38
1329.953	143.75
1333.208	143.07
1336.463	143.71
1339.717	144
1342.972	145.84
1346.226	146.45
1349.479	147.22
1352.733	148.05
1355.986	148.96
1359.238	148.81
1362.491	148.18
1365.743	148.83
1368.995	148.59
1372.247	147.9
1375.498	146.8
1378.749	145.86
1382	144.16
1385.251	143.39
1388.501	141.66
1391.751	140.3
1395	139.41
1398.25	138.41
1401.499	135.9
1404.748	135.5
1407.996	133.48
1411.244	133.14
1414.492	131.67
1417.74	129.46
1420.987	127.93
1424.234	126.61
1427.481	125.25
1430.728	124.82
1433.974	124.3
1437.22	122.74
1440.465	122.47
1443.711	121.08
1446.956	119.64
1450.201	118.89
1453.445	118.65
1456.689	118.11
1459.933	116.03
1463.177	115.47
1466.42	113.74
1469.663	111.73
1472.906	111.64
1476.148	108.92
1479.391	108.42
1482.633	108.38
1485.874	107.33
1489.115	106.14
1492.356	105.02
1495.597	105.39
1498.838	104.57
1502.078	104.11
1505.318	104.45
1508.557	104.05
1511.797	104.59
1515.036	103.86
1518.274	104
1521.513	103.24
1524.751	103.09
1527.989	103.87
1531.227	103.95
1534.464	103.67
1537.701	103.53
1540.938	103.15
1544.174	103.06
1547.41	102.91
1550.646	102.66
1553.882	102.68
1557.117	102.36
1560.352	102.61
1563.587	102.27
1566.821	101.96
1570.055	101.53
1573.289	101.21
1576.523	101.8
1579.756	100.99
1582.989	101.17
1586.222	100.8
1589.454	100.76
1592.686	101.55
1595.918	100.84
1599.15	100.45
1602.381	100.9
1605.612	100.96
1608.843	101.17
1612.073	100.84
1615.303	101.56
1618.533	101.61
1621.762	102.48
1624.992	102.48
1628.221	102.09
1631.449	102
1634.678	102
1637.906	102.01
1641.134	102.27
1644.361	102.4
1647.588	103.02
1650.815	102.9
1654.042	102.87
1657.269	103.02
1660.495	103.05
1663.72	103.1
1666.946	103.69
1670.171	104.19
1673.396	104.53
1676.621	104.51
1679.845	104.45
1683.069	104.71
1686.293	105.26
1689.517	105.32
1692.74	105.43
1695.963	105.6
1699.185	105.88
1702.408	106.14
1705.63	106.6
1708.852	106.55
1712.073	106.69
1715.294	107.01
1718.515	106.81
1721.736	106.7
1724.956	106.49
1728.176	106.75
1731.396	106.97
1734.616	106.94
1737.835	107.18
1741.054	106.26
1744.272	106.19
1747.491	107
1750.709	107.05
1753.927	106.78
1757.144	106.41
1760.361	106.91
1763.578	107.09
1766.795	106.74
1770.011	107.68
1773.227	107.15
1776.443	108
1779.658	108.3
1782.874	107.83
1786.089	107.83
1789.303	108.26
1792.518	108.93
1795.732	109.05
1798.945	109.79
1802.159	110.13
1805.372	109.74
1808.585	111.75
1811.797	112.02
1815.01	112.11
1818.222	112.99
1821.434	113.94
1824.645	113.86
1827.856	116.28
1831.067	116.45
1834.278	116.35
1837.488	116.92
1840.698	117.45
1843.908	116.28
1847.117	116.42
1850.326	116.97
1853.535	115.71
1856.744	116.67
1859.952	116.08
1863.16	113.99
1866.368	113.01
1869.575	112.42
1872.782	109.7
1875.989	108.24
1879.196	107.48
1882.402	105.68
1885.608	105.31
1888.814	104.67
1892.019	102.12
1895.224	101.37
1898.429	101.27
1901.634	100.68
1904.838	100.65
1908.042	101.66
1911.246	101.2
1914.449	101.5
1917.652	101.83
1920.855	100.94
1924.058	101.16
1927.26	101.61
1930.462	101.14
1933.664	101.43
1936.865	101.96
1940.066	100.96
1943.267	100.47
1946.467	100.77
1949.668	101.05
1952.868	101.89
1956.067	102.65
1959.267	102.92
1962.466	103.24
1965.665	103.22
1968.863	103.8
1972.061	104.36
1975.259	105.01
1978.457	105.74
1981.654	107.12
1984.852	107.2
1988.048	107.22
1991.245	108.25
1994.441	108.93
1997.637	110.22
2000.833	113.3
2004.028	113.91
2007.223	115.15
2010.418	116.3
2013.613	119.09
2016.807	120.51
2020.001	122.02
2023.194	124
2026.388	126.95
2029.581	129.4
2032.774	130.48
2035.966	132.17
2039.158	133.66
2042.35	136.36
2045.542	137.7
2048.733	138.98
2051.924	140.69
2055.115	143.04
2058.306	143.5
2061.496	144.35
2064.686	144.63
2067.875	146.78
2071.065	148.15
2074.254	146.55
2077.442	148.31
2080.631	148.93
2083.819	150.91
2087.007	151.76
2090.195	153.7
2093.382	156.15
2096.569	155.88
2099.756	158.96
2102.942	159.98
2106.128	160.35
2109.314	165.08
2112.5	164.6
2115.685	168.47
2118.87	168.83
2122.055	171.89
2125.239	173.29
2128.424	173.62
2131.608	175.43
2134.791	178.51
2137.974	179.04
2141.157	179.42
2144.34	180.25
2147.523	181.49
2150.705	180.53
2153.887	182.92
2157.068	183.38
2160.25	181.43
2163.431	183.26
2166.611	184.37
2169.792	187.73
2172.972	188.65
2176.152	190.8
2179.331	192.4
2182.511	195.94
2185.69	198.54
2188.868	200.92
2192.047	201.81
2195.225	208.12
2198.403	210.99
2201.58	216.65
2204.758	218.16
2207.935	223.13
2211.111	227.78
2214.288	230.16
2217.464	230.89
2220.64	233.6
2223.815	237.02
2226.991	245.11
2230.166	244.11
2233.34	248.2
2236.515	250.73
2239.689	252.17
2242.863	254.94
2246.036	259.42
2249.209	258.74
2252.382	263.69
2255.555	271.92
2258.727	272.72
2261.9	275.27
2265.071	279.35
2268.243	283.01
2271.414	286.72
2274.585	293.08
2277.756	293.89
2280.926	297.72
2284.096	303.8
2287.266	309.81
2290.436	311.1
2293.605	317.61
2296.774	324.78
2299.942	333.13
2303.111	338.4
2306.279	343.91
2309.447	347.29
2312.614	359.63
2315.781	368.94
2318.948	386.37
2322.115	381.39
2325.281	402.8
2328.447	395.16
2331.613	410.26
2334.779	408.21
2337.944	421.06
2341.109	424.5
2344.274	439.8
2347.438	450.83
2350.602	449.39
2353.766	463.5
2356.929	471.02
2360.092	463.8
2363.255	498.32
2366.418	500.95
2369.58	506.33
2372.742	538.34
2375.904	552.94
2379.066	548.21
2382.227	538.81
2385.388	584.16
2388.548	583.49
2391.709	589.37
2394.869	658.22
2398.029	627.92
2401.188	643.04
2404.347	642.73
2407.506	634.87
2410.665	650.23
2413.823	688.07
2416.981	730.17
2420.139	702.4
2423.296	695.66
2426.453	726.65
2429.61	696.73
2432.767	728.66
2435.923	719.05
2439.079	790.67
2442.235	803.37
2445.391	798.54
2448.546	787.3
2451.701	767.87
2454.855	770.88
2458.009	815.54
2461.163	847.56
2464.317	880.9
2467.471	903.95
2470.624	909.49
2473.777	884.24
2476.929	855.34
2480.082	830.46
2483.234	827.57
2486.385	860.67
2489.537	867.23
2492.688	898.71
2495.839	873.84
2498.989	859.58
2502.14	858.92
2505.29	860.23
2508.439	869.34
2511.589	872.38
2514.738	948.16
2517.887	925.5
2521.035	982.12
2524.183	992.18
2527.331	999.61
2530.479	995.62
2533.627	999.06
