Data from N_1_DEC_ON_6n_Splice17_12-26-59-438.txt Node
Date: Sat Mar 07 12:26:59 EST 2020
User: sa697716
Spectrometer: NQ5500242
Trigger mode: 0
Integration Time (sec): 1.450000E-1
Scans to average: 20
Nonlinearity correction enabled: false
Boxcar width: 5
Storing dark spectrum: false
XAxis mode: Wavelengths
Number of Pixels in Spectrum: 512
>>>>>Begin Spectral Data<<<<<
187.83	149.18
188.298	158.34
188.766	159.07
189.233	129.16
189.701	134.65
190.169	142.05
190.636	155.73
191.104	165.08
191.571	90.88
192.039	231.5
192.506	249.91
192.974	26.07
193.441	60.84
193.908	67.36
194.375	63.75
194.842	38.94
195.31	44.06
195.777	-22.82
196.244	24.68
196.711	30.3
197.177	34.11
197.644	31.83
198.111	31.17
198.578	31.53
199.045	32.3
199.511	31.93
199.978	32.13
200.445	32.37
200.911	32.55
201.378	32.4
201.844	32.34
202.31	31.96
202.777	32.39
203.243	32.62
203.709	32.62
204.176	32.22
204.642	32.46
205.108	32.42
205.574	32.1
206.04	31.98
206.506	31.98
206.972	32.25
207.438	32
207.903	31.69
208.369	31.1
208.835	30.59
209.301	30
209.766	29.05
210.232	28.39
210.697	27.97
211.163	27.41
211.628	26.98
212.094	26.23
212.559	26.05
213.024	25.42
213.49	25
213.955	24.61
214.42	24.34
214.885	24.01
215.35	23.43
215.815	22.62
216.28	21.57
216.745	20.49
217.21	19.46
217.675	18.48
218.14	17.78
218.604	17.17
219.069	16.51
219.534	15.97
219.998	15.49
220.463	15.08
220.927	14.66
221.392	14.39
221.856	14.13
222.32	13.92
222.785	13.71
223.249	13.47
223.713	13.24
224.177	13.07
224.642	12.91
225.106	12.74
225.57	12.59
226.034	12.48
226.497	12.31
226.961	12.18
227.425	12.04
227.889	11.92
228.353	11.79
228.816	11.65
229.28	11.5
229.744	11.36
230.207	11.25
230.671	11.11
231.134	11
231.597	10.91
232.061	10.78
232.524	10.66
232.987	10.53
233.45	10.43
233.914	10.34
234.377	10.23
234.84	10.13
235.303	10.04
235.766	9.96
236.229	9.86
236.691	9.77
237.154	9.69
237.617	9.62
238.08	9.54
238.542	9.45
239.005	9.37
239.468	9.28
239.93	9.2
240.393	9.11
240.855	9.02
241.317	8.94
241.78	8.86
242.242	8.78
242.704	8.7
243.166	8.64
243.629	8.58
244.091	8.5
244.553	8.45
245.015	8.38
245.477	8.33
245.939	8.27
246.4	8.21
246.862	8.15
247.324	8.1
247.786	8.05
248.247	7.99
248.709	7.92
249.17	7.85
249.632	7.81
250.093	7.76
250.555	7.71
251.016	7.66
251.477	7.62
251.939	7.57
252.4	7.53
252.861	7.5
253.322	7.46
253.783	7.42
254.244	7.39
254.705	7.34
255.166	7.3
255.627	7.26
256.088	7.23
256.549	7.2
257.009	7.16
257.47	7.12
257.931	7.07
258.391	7.03
258.852	6.99
259.312	6.95
259.773	6.92
260.233	6.9
260.694	6.87
261.154	6.84
261.614	6.81
262.074	6.78
262.534	6.75
262.994	6.74
263.455	6.72
263.915	6.7
264.374	6.69
264.834	6.68
265.294	6.66
265.754	6.65
266.214	6.63
266.673	6.62
267.133	6.61
267.593	6.6
268.052	6.59
268.512	6.57
268.971	6.56
269.431	6.55
269.89	6.53
270.349	6.52
270.809	6.5
271.268	6.49
271.727	6.47
272.186	6.46
272.645	6.44
273.104	6.42
273.563	6.41
274.022	6.4
274.481	6.39
274.94	6.37
275.399	6.35
275.857	6.35
276.316	6.33
276.775	6.32
277.233	6.3
277.692	6.28
278.15	6.27
278.609	6.26
279.067	6.24
279.525	6.23
279.984	6.21
280.442	6.2
280.9	6.18
281.358	6.17
281.816	6.15
282.274	6.14
282.732	6.13
283.19	6.11
283.648	6.09
284.106	6.07
284.564	6.05
285.021	6.04
285.479	6.02
285.937	6.01
286.394	5.99
286.852	5.97
287.309	5.96
287.767	5.94
288.224	5.92
288.682	5.91
289.139	5.9
289.596	5.88
290.053	5.86
290.511	5.85
290.968	5.83
291.425	5.81
291.882	5.8
292.339	5.79
292.796	5.78
293.252	5.77
293.709	5.77
294.166	5.75
294.623	5.75
295.079	5.74
295.536	5.73
295.992	5.73
296.449	5.72
296.905	5.72
297.362	5.7
297.818	5.69
298.274	5.69
298.731	5.67
299.187	5.65
299.643	5.65
300.099	5.64
300.555	5.62
301.011	5.61
301.467	5.6
301.923	5.58
302.379	5.58
302.835	5.57
303.291	5.57
303.746	5.57
304.202	5.57
304.658	5.56
305.113	5.56
305.569	5.55
306.024	5.55
306.479	5.54
306.935	5.53
307.39	5.53
307.845	5.53
308.301	5.52
308.756	5.51
309.211	5.51
309.666	5.5
310.121	5.5
310.576	5.5
311.031	5.49
311.486	5.49
311.94	5.48
312.395	5.48
312.85	5.47
313.305	5.45
313.759	5.45
314.214	5.43
314.668	5.42
315.123	5.42
315.577	5.4
316.032	5.39
316.486	5.39
316.94	5.37
317.394	5.35
317.849	5.34
318.303	5.33
318.757	5.32
319.211	5.31
319.665	5.3
320.119	5.29
320.572	5.28
321.026	5.26
321.48	5.25
321.934	5.24
322.387	5.24
322.841	5.23
323.295	5.22
323.748	5.21
324.202	5.19
324.655	5.18
325.108	5.17
325.562	5.17
326.015	5.15
326.468	5.14
326.921	5.14
327.374	5.13
327.827	5.12
328.28	5.11
328.733	5.1
329.186	5.09
329.639	5.08
330.092	5.08
330.545	5.07
330.997	5.07
331.45	5.06
331.903	5.05
332.355	5.05
332.808	5.04
333.26	5.03
333.713	5.02
334.165	5
334.617	5
335.069	4.99
335.522	4.98
335.974	4.99
336.426	4.98
336.878	4.97
337.33	4.95
337.782	4.94
338.234	4.94
338.686	4.94
339.137	4.94
339.589	4.92
340.041	4.92
340.493	4.9
340.944	4.88
341.396	4.86
341.847	4.85
342.299	4.84
342.75	4.83
343.201	4.81
343.653	4.8
344.104	4.77
344.555	4.76
345.006	4.75
345.457	4.74
345.908	4.73
346.359	4.73
346.81	4.72
347.261	4.72
347.712	4.72
348.163	4.71
348.613	4.7
349.064	4.7
349.515	4.69
349.965	4.68
350.416	4.68
350.866	4.67
351.317	4.67
351.767	4.66
352.217	4.64
352.668	4.63
353.118	4.63
353.568	4.62
354.018	4.63
354.468	4.63
354.918	4.63
355.368	4.63
355.818	4.63
356.268	4.62
356.718	4.62
357.168	4.61
357.617	4.61
358.067	4.6
358.517	4.61
358.966	4.61
359.416	4.6
359.865	4.59
360.315	4.58
360.764	4.58
361.213	4.58
361.663	4.58
362.112	4.58
362.561	4.58
363.01	4.58
363.459	4.57
363.908	4.56
364.357	4.55
364.806	4.55
365.255	4.55
365.703	4.56
366.152	4.57
366.601	4.56
367.05	4.56
367.498	4.55
367.947	4.55
368.395	4.56
368.844	4.56
369.292	4.57
369.74	4.57
370.189	4.57
370.637	4.56
371.085	4.56
371.533	4.56
371.981	4.57
372.429	4.58
372.877	4.57
373.325	4.57
373.773	4.57
374.221	4.56
374.669	4.57
375.116	4.57
375.564	4.57
376.012	4.56
376.459	4.56
376.907	4.57
377.354	4.57
377.801	4.6
378.249	4.61
378.696	4.62
379.143	4.63
379.591	4.64
380.038	4.66
380.485	4.68
380.932	4.7
381.379	4.72
381.826	4.72
382.273	4.74
382.72	4.73
383.166	4.75
383.613	4.76
384.06	4.77
384.506	4.78
384.953	4.8
385.4	4.8
385.846	4.81
386.292	4.82
386.739	4.83
387.185	4.84
387.631	4.85
388.078	4.86
388.524	4.88
388.97	4.88
389.416	4.9
389.862	4.91
390.308	4.92
390.754	4.95
391.2	4.96
391.645	4.98
392.091	5
392.537	5.02
392.983	5.03
393.428	5.04
393.874	5.05
394.319	5.05
394.765	5.06
395.21	5.07
395.655	5.07
396.101	5.08
396.546	5.08
396.991	5.08
397.436	5.1
397.881	5.12
398.326	5.12
398.771	5.13
399.216	5.16
399.661	5.17
400.106	5.19
400.551	5.19
400.995	5.19
401.44	5.2
401.885	5.21
402.329	5.22
402.774	5.21
403.218	5.24
403.663	5.25
404.107	5.24
404.551	5.24
404.995	5.23
405.44	5.24
405.884	5.24
406.328	5.25
406.772	5.24
407.216	5.24
407.66	5.25
408.104	5.23
408.547	5.23
408.991	5.24
409.435	5.23
409.879	5.24
410.322	5.23
410.766	5.23
411.209	5.23
411.653	5.24
412.096	5.25
412.54	5.25
412.983	5.25
413.426	5.26
413.869	5.26
414.312	5.28
414.756	5.28
415.199	5.27
415.642	5.27
416.085	5.27
416.527	5.26
416.97	5.24
417.413	5.24
417.856	5.24
418.298	5.22
418.741	5.22
419.184	5.21
419.626	5.2
420.069	5.21
420.511	5.21
420.953	5.2
421.396	5.2
421.838	5.2
422.28	5.2
422.722	5.2
423.164	5.2
423.606	5.2
424.048	5.2
424.49	5.21
424.932	5.2
425.374	5.2
425.816	5.18
426.258	5.17
426.699	5.16
427.141	5.16
427.582	5.15
428.024	5.15
428.465	5.15
428.907	5.13
429.348	5.12
429.789	5.13
430.231	5.13
430.672	5.14
431.113	5.16
431.554	5.16
431.995	5.16
432.436	5.16
432.877	5.17
433.318	5.18
433.759	5.19
434.2	5.2
434.64	5.2
435.081	5.18
435.522	5.18
435.962	5.18
436.403	5.19
436.843	5.19
437.284	5.19
437.724	5.18
438.164	5.18
438.604	5.18
439.045	5.17
439.485	5.16
439.925	5.16
440.365	5.16
440.805	5.16
441.245	5.18
441.685	5.19
442.125	5.2
442.564	5.19
443.004	5.18
443.444	5.18
443.883	5.18
444.323	5.19
444.762	5.2
445.202	5.18
445.641	5.19
446.081	5.18
446.52	5.18
446.959	5.18
447.398	5.2
447.837	5.2
448.276	5.21
448.716	5.22
449.154	5.23
449.593	5.24
450.032	5.25
450.471	5.24
450.91	5.23
451.349	5.22
451.787	5.21
452.226	5.18
452.664	5.17
453.103	5.16
453.541	5.16
453.98	5.15
454.418	5.13
454.856	5.11
455.295	5.1
455.733	5.07
456.171	5.06
456.609	5.05
457.047	5.04
457.485	5.04
457.923	5.04
458.361	5.03
458.798	5.03
459.236	5.02
459.674	5.01
460.111	5.02
460.549	5.04
460.987	5.06
461.424	5.06
461.862	5.07
462.299	5.08
462.736	5.08
463.173	5.09
463.611	5.09
464.048	5.09
464.485	5.1
464.922	5.09
465.359	5.09
465.796	5.08
466.233	5.08
466.67	5.08
467.106	5.08
467.543	5.07
467.98	5.07
468.416	5.06
468.853	5.06
469.29	5.05
469.726	5.06
470.162	5.04
470.599	5.04
471.035	5.03
471.471	5.02
471.907	5.02
472.344	5.01
472.78	5.01
473.216	4.99
473.652	4.99
474.088	4.99
474.523	4.99
474.959	4.99
475.395	4.97
475.831	4.97
476.266	4.97
476.702	4.94
477.138	4.94
477.573	4.94
478.008	4.94
478.444	4.93
478.879	4.92
479.314	4.9
479.75	4.9
480.185	4.89
480.62	4.87
481.055	4.86
481.49	4.86
481.925	4.86
482.36	4.86
482.795	4.85
483.229	4.84
483.664	4.85
484.099	4.84
484.534	4.83
484.968	4.84
485.403	4.85
485.837	4.86
486.271	4.87
486.706	4.87
487.14	4.86
487.574	4.87
488.009	4.88
488.443	4.88
488.877	4.9
489.311	4.92
489.745	4.93
490.179	4.94
490.613	4.96
491.046	4.97
491.48	4.99
491.914	5.01
492.348	5.04
492.781	5.07
493.215	5.09
493.648	5.13
494.082	5.15
494.515	5.18
494.948	5.21
495.382	5.24
495.815	5.29
496.248	5.33
496.681	5.38
497.114	5.42
497.547	5.46
497.98	5.51
498.413	5.56
498.846	5.63
499.279	5.68
499.711	5.74
500.144	5.81
500.577	5.87
501.009	5.93
501.442	6
501.874	6.08
502.306	6.16
502.739	6.25
503.171	6.34
503.603	6.43
504.036	6.54
504.468	6.63
504.9	6.73
505.332	6.85
505.764	6.98
506.196	7.1
506.627	7.24
507.059	7.38
507.491	7.52
507.923	7.66
508.354	7.82
508.786	7.98
509.217	8.15
509.649	8.32
510.08	8.49
510.512	8.67
510.943	8.85
511.374	9.03
511.805	9.21
512.237	9.39
512.668	9.6
513.099	9.81
513.53	10
513.961	10.21
514.391	10.43
514.822	10.65
515.253	10.88
515.684	11.1
516.114	11.34
516.545	11.57
516.975	11.81
517.406	12.06
517.836	12.29
518.267	12.55
518.697	12.8
519.127	13.04
519.558	13.28
519.988	13.53
520.418	13.78
520.848	14.02
521.278	14.27
521.708	14.54
522.138	14.76
522.567	14.98
522.997	15.19
523.427	15.42
523.857	15.63
524.286	15.84
524.716	16.04
525.145	16.23
525.575	16.42
526.004	16.59
526.433	16.73
526.863	16.91
527.292	17.08
527.721	17.22
528.15	17.37
528.579	17.53
529.008	17.68
529.437	17.8
529.866	17.93
530.295	18.05
530.724	18.17
531.152	18.28
531.581	18.39
532.01	18.49
532.438	18.6
532.867	18.69
533.295	18.77
533.723	18.84
534.152	18.92
534.58	19.01
535.008	19.06
535.436	19.13
535.865	19.19
536.293	19.25
536.721	19.3
537.149	19.36
537.576	19.41
538.004	19.46
538.432	19.49
538.86	19.53
539.287	19.55
539.715	19.6
540.143	19.63
540.57	19.67
540.998	19.69
541.425	19.73
541.852	19.75
542.28	19.78
542.707	19.8
543.134	19.82
543.561	19.85
543.988	19.88
544.415	19.88
544.842	19.9
545.269	19.93
545.696	19.96
546.123	19.97
546.549	19.99
546.976	20.02
547.403	20.06
547.829	20.09
548.256	20.1
548.682	20.11
549.108	20.13
549.535	20.14
549.961	20.14
550.387	20.12
550.813	20.13
551.24	20.12
551.666	20.1
552.092	20.09
552.518	20.06
552.943	20.05
553.369	20.03
553.795	20
554.221	19.98
554.646	19.94
555.072	19.92
555.498	19.86
555.923	19.82
556.349	19.75
556.774	19.68
557.199	19.62
557.625	19.55
558.05	19.46
558.475	19.39
558.9	19.3
559.325	19.22
559.75	19.13
560.175	19.03
560.6	18.92
561.025	18.84
561.449	18.74
561.874	18.62
562.299	18.51
562.723	18.4
563.148	18.27
563.572	18.14
563.997	18
564.421	17.87
564.846	17.74
565.27	17.61
565.694	17.47
566.118	17.33
566.542	17.2
566.966	17.06
567.39	16.93
567.814	16.8
568.238	16.67
568.662	16.54
569.086	16.41
569.509	16.28
569.933	16.16
570.357	16.04
570.78	15.91
571.204	15.77
571.627	15.65
572.05	15.52
572.474	15.4
572.897	15.28
573.32	15.17
573.743	15.06
574.166	14.94
574.589	14.82
575.012	14.72
575.435	14.62
575.858	14.52
576.281	14.43
576.704	14.34
577.126	14.25
577.549	14.16
577.972	14.06
578.394	13.97
578.817	13.89
579.239	13.81
579.661	13.72
580.084	13.64
580.506	13.56
580.928	13.47
581.35	13.39
581.772	13.32
582.194	13.25
582.616	13.2
583.038	13.13
583.46	13.05
583.882	12.98
584.303	12.92
584.725	12.86
585.147	12.81
585.568	12.76
585.99	12.71
586.411	12.65
586.833	12.59
587.254	12.53
587.675	12.47
588.096	12.43
588.518	12.39
588.939	12.36
589.36	12.32
589.781	12.27
590.202	12.23
590.623	12.19
591.043	12.15
591.464	12.12
591.885	12.08
592.305	12.04
592.726	12.02
593.147	11.98
593.567	11.94
593.987	11.9
594.408	11.87
594.828	11.84
595.248	11.81
595.669	11.78
596.089	11.75
596.509	11.73
596.929	11.7
597.349	11.65
597.769	11.62
598.189	11.58
598.608	11.56
599.028	11.54
599.448	11.5
599.867	11.46
600.287	11.42
600.706	11.4
601.126	11.37
601.545	11.33
601.965	11.31
602.384	11.27
602.803	11.23
603.222	11.19
603.641	11.14
604.061	11.1
604.48	11.06
604.898	11.01
605.317	10.97
605.736	10.92
606.155	10.87
606.574	10.82
606.992	10.76
607.411	10.71
607.829	10.63
608.248	10.58
608.666	10.52
609.085	10.47
609.503	10.42
609.921	10.35
610.339	10.29
610.758	10.23
611.176	10.17
611.594	10.11
612.012	10.05
612.43	10.03
612.847	9.97
613.265	9.91
613.683	9.85
614.101	9.8
614.518	9.75
614.936	9.7
615.353	9.65
615.771	9.6
616.188	9.56
616.606	9.52
617.023	9.47
617.44	9.43
617.857	9.4
618.274	9.35
618.691	9.31
619.108	9.27
619.525	9.23
619.942	9.21
620.359	9.18
620.776	9.15
621.192	9.12
621.609	9.1
622.026	9.09
622.442	9.07
622.859	9.07
623.275	9.04
623.691	9.03
624.108	9.02
624.524	9.01
624.94	9.01
625.356	9
625.772	9
626.188	8.99
626.604	8.98
627.02	8.97
627.436	8.98
627.852	8.98
628.268	8.98
628.683	8.97
629.099	8.96
629.514	8.95
629.93	8.93
630.345	8.92
630.761	8.9
631.176	8.87
631.591	8.83
632.007	8.79
632.422	8.75
632.837	8.7
633.252	8.65
633.667	8.61
634.082	8.55
634.497	8.48
634.911	8.42
635.326	8.34
635.741	8.28
636.155	8.21
636.57	8.14
636.984	8.07
637.399	7.99
637.813	7.92
638.228	7.83
638.642	7.74
639.056	7.65
639.47	7.58
639.884	7.5
640.298	7.41
640.712	7.32
641.126	7.24
641.54	7.16
641.954	7.08
642.368	7.01
642.781	6.94
643.195	6.87
643.609	6.8
644.022	6.73
644.436	6.66
644.849	6.6
645.262	6.54
645.676	6.49
646.089	6.44
646.502	6.4
646.915	6.35
647.328	6.32
647.741	6.29
648.154	6.25
648.567	6.22
648.98	6.19
649.393	6.17
649.805	6.15
650.218	6.13
650.631	6.11
651.043	6.09
651.456	6.07
651.868	6.04
652.28	6.03
652.693	6.02
653.105	6.01
653.517	5.99
653.929	5.96
654.341	5.93
654.753	5.91
655.165	5.88
655.577	5.86
655.989	5.84
656.401	5.81
656.813	5.78
657.224	5.75
657.636	5.7
658.047	5.67
658.459	5.63
658.87	5.59
659.282	5.55
659.693	5.51
660.104	5.46
660.515	5.41
660.926	5.38
661.338	5.34
661.749	5.31
662.159	5.28
662.57	5.26
662.981	5.24
663.392	5.22
663.803	5.21
664.213	5.19
664.624	5.17
665.035	5.16
665.445	5.15
665.855	5.13
666.266	5.13
666.676	5.13
667.086	5.1
667.497	5.1
667.907	5.09
668.317	5.1
668.727	5.1
669.137	5.12
669.547	5.12
669.956	5.13
670.366	5.14
670.776	5.15
671.186	5.17
671.595	5.19
672.005	5.2
672.414	5.23
672.824	5.24
673.233	5.26
673.642	5.29
674.052	5.31
674.461	5.34
674.87	5.36
675.279	5.39
675.688	5.43
676.097	5.46
676.506	5.5
676.915	5.54
677.323	5.59
677.732	5.63
678.141	5.67
678.549	5.7
678.958	5.74
679.366	5.79
679.775	5.82
680.183	5.86
680.592	5.9
681	5.95
681.408	6
681.816	6.05
682.224	6.1
682.632	6.16
683.04	6.23
683.448	6.31
683.856	6.4
684.264	6.49
684.671	6.59
685.079	6.71
685.487	6.83
685.894	6.96
686.302	7.12
686.709	7.29
687.116	7.47
687.524	7.68
687.931	7.9
688.338	8.15
688.745	8.42
689.152	8.71
689.559	9.03
689.966	9.37
690.373	9.72
690.78	10.11
691.187	10.51
691.593	10.93
692	11.37
692.407	11.81
692.813	12.27
693.22	12.73
693.626	13.23
694.032	13.72
694.439	14.22
694.845	14.74
695.251	15.26
695.657	15.77
696.063	16.3
696.469	16.83
696.875	17.37
697.281	17.9
697.687	18.45
698.093	18.97
698.498	19.5
698.904	20.04
699.31	20.55
699.715	21.06
700.12	21.55
700.526	22.06
700.931	22.58
701.337	23.09
701.742	23.57
702.147	24.06
702.552	24.57
702.957	25.02
703.362	25.5
703.767	25.96
704.172	26.44
704.577	26.91
704.981	27.36
705.386	27.8
705.791	28.24
706.195	28.71
706.6	29.15
707.004	29.56
707.408	30.01
707.813	30.41
708.217	30.83
708.621	31.24
709.025	31.63
709.43	32.02
709.834	32.42
710.237	32.8
710.641	33.16
711.045	33.53
711.449	33.9
711.853	34.26
712.256	34.64
712.66	35
713.064	35.32
713.467	35.69
713.87	36.05
714.274	36.37
714.677	36.7
715.08	37.02
715.484	37.35
715.887	37.68
716.29	37.99
716.693	38.3
717.096	38.61
717.499	38.95
717.901	39.23
718.304	39.52
718.707	39.81
719.109	40.11
719.512	40.4
719.915	40.68
720.317	40.91
720.719	41.15
721.122	41.39
721.524	41.63
721.926	41.85
722.328	42.1
722.731	42.31
723.133	42.54
723.535	42.74
723.937	42.93
724.338	43.11
724.74	43.33
725.142	43.59
725.544	43.76
725.945	43.96
726.347	44.12
726.748	44.26
727.15	44.41
727.551	44.57
727.952	44.71
728.354	44.85
728.755	45
729.156	45.14
729.557	45.21
729.958	45.34
730.359	45.45
730.76	45.56
731.161	45.69
731.562	45.83
731.962	45.9
732.363	46.06
732.763	46.18
733.164	46.27
733.564	46.35
733.965	46.45
734.365	46.55
734.766	46.64
735.166	46.75
735.566	46.84
735.966	46.9
736.366	46.98
736.766	47.01
737.166	47.07
737.566	47.13
737.966	47.18
738.365	47.24
738.765	47.29
739.165	47.33
739.564	47.36
739.964	47.41
740.363	47.45
740.763	47.51
741.162	47.59
741.561	47.63
741.96	47.66
742.36	47.73
742.759	47.76
743.158	47.8
743.557	47.82
743.955	47.87
744.354	47.88
744.753	47.93
745.152	47.98
745.55	47.99
745.949	48.02
746.348	48.04
746.746	48.05
747.144	48.09
747.543	48.1
747.941	48.14
748.339	48.15
748.737	48.19
749.136	48.2
749.534	48.2
749.932	48.21
750.33	48.22
750.727	48.24
751.125	48.24
751.523	48.23
751.921	48.25
752.318	48.27
752.716	48.29
753.113	48.31
753.511	48.33
753.908	48.35
754.305	48.36
754.703	48.37
755.1	48.39
755.497	48.41
755.894	48.41
756.291	48.41
756.688	48.39
757.085	48.39
757.482	48.4
757.878	48.41
758.275	48.38
758.672	48.38
759.068	48.39
759.465	48.38
759.861	48.38
760.258	48.4
760.654	48.41
761.05	48.43
761.447	48.45
761.843	48.43
762.239	48.41
762.635	48.43
763.031	48.42
763.427	48.38
763.822	48.38
764.218	48.38
764.614	48.38
765.01	48.38
765.405	48.36
765.801	48.33
766.196	48.34
766.592	48.34
766.987	48.33
767.382	48.34
767.778	48.35
768.173	48.37
768.568	48.37
768.963	48.36
769.358	48.34
769.753	48.36
770.148	48.36
770.542	48.35
770.937	48.34
771.332	48.35
771.726	48.36
772.121	48.37
772.515	48.37
772.91	48.37
773.304	48.38
773.699	48.38
774.093	48.34
774.487	48.35
774.881	48.38
775.275	48.39
775.669	48.37
776.063	48.36
776.457	48.36
776.851	48.34
777.245	48.31
777.638	48.29
778.032	48.32
778.425	48.36
778.819	48.36
779.212	48.31
779.606	48.33
779.999	48.35
780.392	48.35
780.786	48.34
781.179	48.38
781.572	48.42
781.965	48.43
782.358	48.45
782.751	48.42
783.143	48.43
783.536	48.44
783.929	48.42
784.322	48.43
784.714	48.46
785.107	48.48
785.499	48.47
785.891	48.44
786.284	48.48
786.676	48.45
787.068	48.46
787.46	48.45
787.852	48.46
788.245	48.46
788.636	48.45
789.028	48.42
789.42	48.39
789.812	48.39
790.204	48.4
790.595	48.36
790.987	48.37
791.378	48.38
791.77	48.41
792.161	48.4
792.553	48.44
792.944	48.43
793.335	48.47
793.726	48.48
794.117	48.47
794.508	48.47
794.899	48.46
795.29	48.46
795.681	48.44
796.072	48.43
796.463	48.43
796.853	48.44
797.244	48.43
797.634	48.4
798.025	48.41
798.415	48.41
798.806	48.4
799.196	48.41
799.586	48.38
799.976	48.4
800.366	48.39
800.756	48.39
801.146	48.38
801.536	48.38
801.926	48.38
802.316	48.39
802.706	48.41
803.095	48.4
803.485	48.41
803.874	48.42
804.264	48.4
804.653	48.41
805.043	48.41
805.432	48.39
805.821	48.4
806.21	48.41
806.599	48.4
806.988	48.4
807.377	48.42
807.766	48.42
808.155	48.4
808.544	48.41
808.933	48.4
809.321	48.4
809.71	48.4
810.098	48.38
810.487	48.34
810.875	48.33
811.264	48.31
811.652	48.3
812.04	48.31
812.428	48.37
812.816	48.37
813.204	48.35
813.592	48.35
813.98	48.38
814.368	48.4
814.756	48.42
815.144	48.44
815.531	48.45
815.919	48.45
816.306	48.42
816.694	48.38
817.081	48.38
817.469	48.41
817.856	48.42
818.243	48.39
818.63	48.36
819.017	48.36
819.404	48.34
819.791	48.32
820.178	48.32
820.565	48.31
820.952	48.3
821.339	48.28
821.725	48.28
822.112	48.29
822.498	48.31
822.885	48.35
823.271	48.36
823.657	48.33
824.044	48.35
824.43	48.35
824.816	48.36
825.202	48.38
825.588	48.39
825.974	48.38
826.36	48.39
826.746	48.39
827.132	48.38
827.517	48.37
827.903	48.42
828.289	48.42
828.674	48.43
829.06	48.43
829.445	48.42
829.83	48.42
830.216	48.42
830.601	48.41
830.986	48.41
831.371	48.4
831.756	48.42
832.141	48.41
832.526	48.41
832.911	48.42
833.295	48.42
833.68	48.45
834.065	48.47
834.449	48.46
834.834	48.46
835.218	48.48
835.603	48.48
835.987	48.46
836.371	48.45
836.755	48.43
837.139	48.42
837.524	48.46
837.908	48.45
838.291	48.46
838.675	48.46
839.059	48.47
839.443	48.44
839.827	48.44
840.21	48.43
840.594	48.47
840.977	48.48
841.361	48.5
841.744	48.46
842.127	48.44
842.511	48.43
842.894	48.42
843.277	48.39
843.66	48.39
844.043	48.42
844.426	48.42
844.809	48.42
845.191	48.44
845.574	48.44
845.957	48.47
846.339	48.48
846.722	48.48
847.104	48.53
847.487	48.55
847.869	48.57
848.252	48.56
848.634	48.57
849.016	48.57
849.398	48.59
849.78	48.6
850.162	48.59
850.544	48.59
850.926	48.59
851.307	48.57
851.689	48.59
852.071	48.59
852.452	48.59
852.834	48.6
853.215	48.59
853.597	48.57
853.978	48.56
854.359	48.57
854.741	48.58
855.122	48.6
855.503	48.59
855.884	48.55
856.265	48.56
856.646	48.54
857.026	48.54
857.407	48.55
857.788	48.54
858.169	48.56
858.549	48.54
858.93	48.55
859.31	48.56
859.69	48.58
860.071	48.61
860.451	48.63
860.831	48.64
861.211	48.63
861.591	48.62
861.971	48.64
862.351	48.63
862.731	48.65
863.111	48.62
863.491	48.61
863.87	48.59
864.25	48.56
864.629	48.57
865.009	48.56
865.388	48.55
865.768	48.57
866.147	48.57
866.526	48.57
866.905	48.55
867.284	48.58
867.663	48.55
868.042	48.57
868.421	48.59
868.8	48.59
869.179	48.6
869.558	48.61
869.936	48.59
870.315	48.58
870.693	48.59
871.072	48.61
871.45	48.61
871.828	48.63
872.207	48.65
872.585	48.64
872.963	48.62
873.341	48.62
873.719	48.61
874.097	48.6
874.475	48.6
874.853	48.58
875.23	48.61
875.608	48.62
875.986	48.65
876.363	48.64
876.741	48.64
877.118	48.65
877.495	48.69
877.873	48.71
878.25	48.77
878.627	48.79
879.004	48.82
879.381	48.8
879.758	48.78
880.135	48.77
880.512	48.76
880.889	48.76
881.265	48.74
881.642	48.73
882.019	48.73
882.395	48.72
882.772	48.7
883.148	48.68
883.524	48.66
883.901	48.67
884.277	48.64
884.653	48.62
885.029	48.61
885.405	48.62
885.781	48.6
886.157	48.57
886.532	48.58
886.908	48.55
887.284	48.56
887.659	48.54
888.035	48.53
888.411	48.54
888.786	48.57
889.161	48.56
889.537	48.56
889.912	48.56
890.287	48.57
890.662	48.57
891.037	48.59
891.412	48.58
891.787	48.57
892.162	48.58
892.536	48.57
892.911	48.56
893.286	48.56
893.66	48.57
894.035	48.58
894.409	48.57
894.784	48.57
895.158	48.57
895.532	48.57
895.906	48.61
896.281	48.62
896.655	48.64
897.029	48.66
897.402	48.65
897.776	48.68
898.15	48.66
898.524	48.67
898.898	48.67
899.271	48.67
899.645	48.69
900.018	48.7
900.392	48.7
900.765	48.71
901.138	48.7
901.511	48.71
901.884	48.72
902.258	48.73
902.631	48.73
903.003	48.73
903.376	48.76
903.749	48.72
904.122	48.73
904.495	48.72
904.867	48.72
905.24	48.76
905.612	48.77
905.985	48.77
906.357	48.76
906.729	48.77
907.102	48.77
907.474	48.76
907.846	48.8
908.218	48.78
908.59	48.8
908.962	48.77
909.334	48.77
909.705	48.76
910.077	48.74
910.449	48.73
910.82	48.75
911.192	48.74
911.563	48.71
911.935	48.68
912.306	48.71
912.677	48.7
913.048	48.73
913.419	48.69
913.79	48.69
914.161	48.69
914.532	48.67
914.903	48.65
915.274	48.66
915.645	48.67
916.015	48.68
916.386	48.64
916.756	48.62
917.127	48.61
917.497	48.63
917.868	48.62
918.238	48.64
918.608	48.68
918.978	48.67
919.348	48.68
919.718	48.66
920.088	48.63
920.458	48.69
920.828	48.66
921.198	48.62
921.567	48.61
921.937	48.63
922.306	48.59
922.676	48.54
923.045	48.52
923.415	48.5
923.784	48.52
924.153	48.55
924.522	48.53
924.891	48.54
925.26	48.55
925.629	48.56
925.998	48.52
926.367	48.54
926.736	48.53
927.104	48.55
927.473	48.52
927.842	48.46
928.21	48.46
928.578	48.43
928.947	48.44
929.315	48.38
929.683	48.34
930.051	48.29
930.42	48.28
930.788	48.29
931.156	48.24
931.523	48.26
931.891	48.29
932.259	48.27
932.627	48.25
932.994	48.22
933.362	48.22
933.729	48.23
934.097	48.27
934.464	48.29
934.831	48.29
935.199	48.34
935.566	48.3
935.933	48.3
936.3	48.25
936.667	48.2
937.034	48.23
937.401	48.31
937.767	48.31
938.134	48.28
938.501	48.29
938.867	48.31
939.234	48.23
939.6	48.24
939.967	48.22
940.333	48.24
940.699	48.29
941.065	48.25
941.431	48.19
941.798	48.17
942.163	48.16
942.529	48.13
942.895	48.11
943.261	48.13
943.627	48.14
943.992	48.17
944.358	48.16
944.723	48.17
945.089	48.17
945.454	48.25
945.82	48.28
946.185	48.35
946.55	48.29
946.915	48.3
947.28	48.31
947.645	48.27
948.01	48.27
948.375	48.25
948.74	48.25
949.104	48.26
949.469	48.22
949.834	48.19
950.198	48.11
950.562	48.09
950.927	48.06
951.291	48.03
951.655	48
952.02	47.97
952.384	47.96
952.748	47.94
953.112	47.9
953.476	47.81
953.839	47.75
954.203	47.73
954.567	47.74
954.931	47.7
955.294	47.66
955.658	47.7
956.021	47.67
956.385	47.61
956.748	47.56
957.111	47.54
957.474	47.55
957.837	47.54
958.2	47.54
958.563	47.52
958.926	47.53
959.289	47.52
959.652	47.46
960.015	47.47
960.377	47.46
960.74	47.48
961.102	47.47
961.465	47.49
961.827	47.5
962.189	47.54
962.552	47.5
962.914	47.48
963.276	47.53
963.638	47.55
964	47.51
964.362	47.54
964.724	47.51
965.085	47.52
965.447	47.52
965.809	47.47
966.17	47.41
966.532	47.42
966.893	47.41
967.255	47.37
967.616	47.37
967.977	47.39
968.338	47.41
968.699	47.44
969.061	47.43
969.421	47.4
969.782	47.43
970.143	47.43
970.504	47.45
970.865	47.5
971.225	47.47
971.586	47.43
971.946	47.38
972.307	47.31
972.667	47.25
973.027	47.22
973.388	47.2
973.748	47.18
974.108	47.25
974.468	47.22
974.828	47.2
975.188	47.18
975.548	47.2
975.907	47.26
976.267	47.25
976.627	47.27
976.986	47.28
977.346	47.22
977.705	47.2
978.064	47.16
978.424	47.16
978.783	47.1
979.142	47.06
979.501	47.09
979.86	47.11
980.219	47.07
980.578	47.03
980.937	47.03
981.296	47.04
981.654	47
982.013	47.02
982.371	46.95
982.73	47.02
983.088	47.04
983.447	46.97
983.805	46.9
984.163	46.97
984.521	46.94
984.879	46.86
985.237	46.91
985.595	46.97
985.953	46.94
986.311	46.9
986.669	46.8
987.026	46.81
987.384	46.82
987.741	46.77
988.099	46.75
988.456	46.7
988.814	46.77
989.171	46.76
989.528	46.71
989.885	46.68
990.242	46.73
990.599	46.77
990.956	46.76
991.313	46.8
991.67	46.88
992.027	46.93
992.383	46.97
992.74	47.02
993.096	46.99
993.453	47.01
993.809	47
994.165	47.09
994.522	47.13
994.878	47.11
995.234	47.06
995.59	47.02
995.946	47.02
996.302	47.05
996.658	46.99
997.013	47.02
997.369	47.04
997.725	47.09
998.08	47.16
998.436	47.16
998.791	47.25
999.147	47.28
999.502	47.31
999.857	47.24
1000.212	47.2
1000.567	47.17
1000.922	47.09
1001.277	47.12
1001.632	46.96
1001.987	46.87
1002.342	46.81
1002.696	46.71
1003.051	46.83
1003.406	46.89
1003.76	46.84
1004.114	46.84
1004.469	46.87
1004.823	47.09
1005.177	46.99
1005.531	47.12
1005.885	47.06
1006.239	46.98
1006.593	47.05
1006.947	46.95
1007.301	46.82
1007.655	46.71
1008.008	46.69
1008.362	46.66
1008.715	46.53
1009.069	46.57
1009.422	46.51
1009.776	46.43
1010.129	46.51
1010.482	46.45
1010.835	46.41
1011.188	46.44
1011.541	46.67
1011.894	46.83
1012.247	46.97
1012.6	46.94
1012.952	47
1013.305	47.19
1013.657	47.39
1014.01	47.37
1014.362	47.4
1014.715	47.34
1015.067	47.34
1015.419	47.33
1015.771	47.14
1016.123	46.92
1016.475	46.92
1016.827	46.86
1017.179	46.71
1017.531	46.69
1017.883	46.57
1018.234	46.54
1018.586	46.55
1018.938	46.59
1019.289	46.23
1019.64	46.16
1019.992	46.18
1020.343	46.07
1020.694	46.1
1021.045	45.88
1021.396	45.79
1021.747	45.91
1022.098	45.88
1022.449	45.85
1022.8	45.88
1023.151	46.02
1023.501	46.27
1023.852	46.18
1024.202	46.19
1024.553	46.1
1024.903	46.55
1025.253	46.51
1025.604	46.54
1025.954	46.28
1026.304	46.2
1026.654	46.02
1027.004	46.13
1027.354	46.01
1027.703	45.93
1028.053	45.76
1028.403	46.13
1028.753	45.71
1029.102	45.87
1029.452	45.93
1029.801	46.33
1030.15	46.4
1030.499	46.52
897.758	564.25
901.051	565.9
904.343	568.42
907.636	575.21
910.928	559.94
914.22	563.31
917.511	556.05
920.803	532.54
924.094	530.82
927.384	514.1
930.675	497.52
933.965	496.71
937.255	469.93
940.544	451.86
943.834	431.59
947.123	428.08
950.411	404.83
953.7	397.19
956.988	377.68
960.276	367.21
963.563	360
966.851	350.23
970.138	346.8
973.424	338.4
976.711	339.1
979.997	326.2
983.283	324.35
986.568	317.62
989.853	310.08
993.138	303.15
996.423	291.68
999.708	286.66
1002.992	282.67
1006.275	271.56
1009.559	268.17
1012.842	258.78
1016.125	253.62
1019.408	250.1
1022.69	246.73
1025.972	240.54
1029.254	237.4
1032.536	233.05
1035.817	228.08
1039.098	226.2
1042.379	222.87
1045.659	221.24
1048.939	217.48
1052.219	212.9
1055.498	210.52
1058.778	205.41
1062.057	203.04
1065.335	200.86
1068.614	198.53
1071.892	197.24
1075.17	193.01
1078.447	189.77
1081.724	187.93
1085.001	186.46
1088.278	183.95
1091.554	178.74
1094.83	180.17
1098.106	178.08
1101.382	177.52
1104.657	176.13
1107.932	173.91
1111.206	173.38
1114.481	170.2
1117.755	170.06
1121.029	168.15
1124.302	166.94
1127.575	165.93
1130.848	163.92
1134.121	162.42
1137.393	160.63
1140.665	157.98
1143.937	156.87
1147.208	156.18
1150.48	154.96
1153.75	152.71
1157.021	152.63
1160.291	152.27
1163.561	150.42
1166.831	151.05
1170.101	150.4
1173.37	151.25
1176.639	151.78
1179.907	150.69
1183.176	149.56
1186.444	149.6
1189.711	149.03
1192.979	148.43
1196.246	147.58
1199.513	149.14
1202.78	146.95
1206.046	146.85
1209.312	144.99
1212.578	145.43
1215.843	146.14
1219.108	145.36
1222.373	147.87
1225.638	149.09
1228.902	149.75
1232.166	151.12
1235.43	150.84
1238.693	153.6
1241.956	154.05
1245.219	155.88
1248.482	155.46
1251.744	155.33
1255.006	156.36
1258.268	153.27
1261.529	152.33
1264.79	151.15
1268.051	150.15
1271.312	149.61
1274.572	147.54
1277.832	146.59
1281.092	144.48
1284.351	144.08
1287.61	144.26
1290.869	141.91
1294.128	141.61
1297.386	140.92
1300.644	140.74
1303.902	140.37
1307.159	139.5
1310.416	139.66
1313.673	139.55
1316.93	140.52
1320.186	139.97
1323.442	140.07
1326.697	141.1
1329.953	141.4
1333.208	141.33
1336.463	142.04
1339.717	142.36
1342.972	143.96
1346.226	144.53
1349.479	144.64
1352.733	145.79
1355.986	146.56
1359.238	146.11
1362.491	146.58
1365.743	147.17
1368.995	147.51
1372.247	145.94
1375.498	145.21
1378.749	144.49
1382	143.14
1385.251	142.75
1388.501	140.38
1391.751	139.23
1395	138.6
1398.25	137.62
1401.499	134.63
1404.748	133.71
1407.996	132.68
1411.244	132.07
1414.492	130.98
1417.74	128.49
1420.987	126.59
1424.234	125.67
1427.481	124.2
1430.728	123.26
1433.974	122.54
1437.22	122.3
1440.465	121.55
1443.711	120.24
1446.956	118.46
1450.201	117.7
1453.445	117.18
1456.689	117.02
1459.933	114.95
1463.177	114.76
1466.42	113.4
1469.663	111.57
1472.906	110.74
1476.148	108.5
1479.391	107.6
1482.633	107.73
1485.874	106.3
1489.115	105.4
1492.356	104.71
1495.597	105
1498.838	103.77
1502.078	103.31
1505.318	103.6
1508.557	103.53
1511.797	103.85
1515.036	103.44
1518.274	102.98
1521.513	102.76
1524.751	102.48
1527.989	102.97
1531.227	103.11
1534.464	103.03
1537.701	103.18
1540.938	102.76
1544.174	102.52
1547.41	102.61
1550.646	102.11
1553.882	102.91
1557.117	102.29
1560.352	102.44
1563.587	102.17
1566.821	101.97
1570.055	101.37
1573.289	101.16
1576.523	101.24
1579.756	100.5
1582.989	100.67
1586.222	100.98
1589.454	100.86
1592.686	101.3
1595.918	100.79
1599.15	100.32
1602.381	101.03
1605.612	101.27
1608.843	101.15
1612.073	101.17
1615.303	102.06
1618.533	101.78
1621.762	102.2
1624.992	102.35
1628.221	102.37
1631.449	102.09
1634.678	101.77
1637.906	101.62
1641.134	102.05
1644.361	102.07
1647.588	102.56
1650.815	102.19
1654.042	102.51
1657.269	102.28
1660.495	101.98
1663.72	102.1
1666.946	102.79
1670.171	103.42
1673.396	103.57
1676.621	103.8
1679.845	103.58
1683.069	104
1686.293	104.38
1689.517	104.46
1692.74	105.04
1695.963	105.21
1699.185	105.39
1702.408	105.33
1705.63	105.76
1708.852	106.13
1712.073	105.69
1715.294	106.33
1718.515	105.65
1721.736	105.6
1724.956	106.05
1728.176	105.95
1731.396	106.09
1734.616	106.06
1737.835	106.79
1741.054	105.62
1744.272	105.55
1747.491	106.36
1750.709	106.21
1753.927	106.48
1757.144	105.81
1760.361	105.74
1763.578	106.18
1766.795	105.67
1770.011	106.96
1773.227	106.01
1776.443	107.35
1779.658	106.99
1782.874	107.03
1786.089	107.33
1789.303	107.55
1792.518	108.83
1795.732	109
1798.945	109.39
1802.159	109.7
1805.372	109.06
1808.585	111.4
1811.797	111.34
1815.01	111.8
1818.222	112.35
1821.434	113.15
1824.645	113.26
1827.856	115.38
1831.067	115.13
1834.278	115.03
1837.488	115.89
1840.698	116.22
1843.908	115.04
1847.117	115.45
1850.326	115.77
1853.535	114.86
1856.744	115.48
1859.952	114.83
1863.16	112.58
1866.368	111.94
1869.575	111.86
1872.782	109.06
1875.989	107.59
1879.196	106.94
1882.402	105.08
1885.608	104.56
1888.814	103.7
1892.019	101.47
1895.224	100.58
1898.429	100.35
1901.634	99.53
1904.838	98.65
1908.042	99.86
1911.246	99.22
1914.449	99.21
1917.652	99.11
1920.855	98.61
1924.058	98.55
1927.26	98.81
1930.462	99.22
1933.664	99.1
1936.865	99.55
1940.066	99.13
1943.267	98.52
1946.467	99.49
1949.668	99.74
1952.868	101.13
1956.067	101.42
1959.267	102.17
1962.466	102.38
1965.665	101.4
1968.863	102.48
1972.061	102.83
1975.259	104.33
1978.457	105.02
1981.654	106.01
1984.852	106.22
1988.048	106.05
1991.245	107.74
1994.441	107.69
1997.637	109.24
2000.833	112.27
2004.028	112.65
2007.223	114.27
2010.418	114.74
2013.613	117.64
2016.807	119.4
2020.001	120.56
2023.194	122.21
2026.388	124.88
2029.581	127.67
2032.774	128.95
2035.966	130.88
2039.158	132.57
2042.35	135.53
2045.542	136.77
2048.733	137.58
2051.924	139.1
2055.115	141.46
2058.306	142.52
2061.496	142.77
2064.686	143.07
2067.875	145.08
2071.065	146.57
2074.254	146.02
2077.442	146.77
2080.631	147.46
2083.819	149.42
2087.007	149.85
2090.195	152.42
2093.382	153.61
2096.569	153.62
2099.756	157.34
2102.942	158.06
2106.128	158.42
2109.314	162.69
2112.5	162.7
2115.685	165.92
2118.87	166.63
2122.055	170.05
2125.239	170.62
2128.424	172.43
2131.608	174.01
2134.791	176.16
2137.974	176.41
2141.157	177.04
2144.34	176.86
2147.523	178.92
2150.705	178.66
2153.887	180.45
2157.068	180.72
2160.25	178.69
2163.431	180.05
2166.611	181.57
2169.792	185.21
2172.972	186.89
2176.152	188.3
2179.331	190.02
2182.511	192.88
2185.69	195.07
2188.868	197.29
2192.047	197.8
2195.225	204.4
2198.403	207.91
2201.58	213.68
2204.758	213.68
2207.935	218.56
2211.111	223.56
2214.288	226.45
2217.464	227.21
2220.64	230.8
2223.815	234.29
2226.991	242.47
2230.166	242.36
2233.34	245.68
2236.515	246.54
2239.689	250.84
2242.863	251.7
2246.036	257.89
2249.209	256.91
2252.382	261.26
2255.555	268.65
2258.727	270.15
2261.9	274.51
2265.071	277.52
2268.243	282.09
2271.414	284.84
2274.585	289.96
2277.756	292.85
2280.926	293.73
2284.096	301.62
2287.266	307.04
2290.436	307.17
2293.605	312.89
2296.774	318.44
2299.942	325.48
2303.111	331
2306.279	338.53
2309.447	340.05
2312.614	351.47
2315.781	359.66
2318.948	373.47
2322.115	370.14
2325.281	393.41
2328.447	386.57
2331.613	398.66
2334.779	397.49
2337.944	410.18
2341.109	413.44
2344.274	430.1
2347.438	440.56
2350.602	439.79
2353.766	456.82
2356.929	464.12
2360.092	455.81
2363.255	489.24
2366.418	495.07
2369.58	499.62
2372.742	533.43
2375.904	547.37
2379.066	542.17
2382.227	532.69
2385.388	581.81
2388.548	574.48
2391.709	578.71
2394.869	648.59
2398.029	619.92
2401.188	631.16
2404.347	631.17
2407.506	618.52
2410.665	634.12
2413.823	673.57
2416.981	714.35
2420.139	688.45
2423.296	682.62
2426.453	712.9
2429.61	682.72
2432.767	711.56
2435.923	706.01
2439.079	782.8
2442.235	792.23
2445.391	785.64
2448.546	773.9
2451.701	752.19
2454.855	750.67
2458.009	797.03
2461.163	832.07
2464.317	866.08
2467.471	889.05
2470.624	891.56
2473.777	860.87
2476.929	837.99
2480.082	810.83
2483.234	809.08
2486.385	843.1
2489.537	849.54
2492.688	877.79
2495.839	855.43
2498.989	836.02
2502.14	836.62
2505.29	842.77
2508.439	851.63
2511.589	851.01
2514.738	934.99
2517.887	911.92
2521.035	964.33
2524.183	972.48
2527.331	982.38
2530.479	972.82
2533.627	980.33
