Data from N_1_DIV_IL_4n_Splice17_12-32-55-625.txt Node
Date: Sat Mar 07 12:32:55 EST 2020
User: sa697716
Spectrometer: NQ5500242
Trigger mode: 0
Integration Time (sec): 1.450000E-1
Scans to average: 20
Nonlinearity correction enabled: false
Boxcar width: 5
Storing dark spectrum: false
XAxis mode: Wavelengths
Number of Pixels in Spectrum: 512
>>>>>Begin Spectral Data<<<<<
187.83	30.15
188.298	39.52
188.766	14.76
189.233	31.2
189.701	38.66
190.169	40.25
190.636	14.43
191.104	27.26
191.571	51.42
192.039	236.11
192.506	213.31
192.974	-26.76
193.441	-50.73
193.908	-61.74
194.375	48.71
194.842	23.06
195.31	11.28
195.777	-73.64
196.244	27.56
196.711	32.54
197.177	33.71
197.644	33.14
198.111	32.63
198.578	33.04
199.045	32.48
199.511	32.29
199.978	32.43
200.445	32.7
200.911	32.75
201.378	32.89
201.844	32.64
202.31	32.22
202.777	32.36
203.243	32.55
203.709	32.45
204.176	32.38
204.642	32.09
205.108	32.03
205.574	31.82
206.04	31.42
206.506	31.14
206.972	31.31
207.438	31.28
207.903	30.73
208.369	30
208.835	29.22
209.301	28.54
209.766	27.81
210.232	27.18
210.697	26.26
211.163	25.61
211.628	25.04
212.094	24.27
212.559	23.69
213.024	23.15
213.49	22.73
213.955	22.19
214.42	21.93
214.885	21.5
215.35	20.95
215.815	20.08
216.28	18.78
216.745	17.39
217.21	16.07
217.675	14.81
218.14	13.63
218.604	12.64
219.069	11.86
219.534	11.14
219.998	10.56
220.463	10.04
220.927	9.6
221.392	9.31
221.856	9.03
222.32	8.79
222.785	8.62
223.249	8.45
223.713	8.3
224.177	8.15
224.642	8
225.106	7.82
225.57	7.68
226.034	7.55
226.497	7.42
226.961	7.29
227.425	7.17
227.889	7.04
228.353	6.93
228.816	6.82
229.28	6.72
229.744	6.61
230.207	6.53
230.671	6.43
231.134	6.34
231.597	6.26
232.061	6.19
232.524	6.12
232.987	6.04
233.45	5.98
233.914	5.9
234.377	5.83
234.84	5.77
235.303	5.72
235.766	5.67
236.229	5.62
236.691	5.55
237.154	5.5
237.617	5.44
238.08	5.39
238.542	5.32
239.005	5.29
239.468	5.23
239.93	5.18
240.393	5.13
240.855	5.07
241.317	5.02
241.78	4.97
242.242	4.9
242.704	4.86
243.166	4.8
243.629	4.76
244.091	4.72
244.553	4.67
245.015	4.63
245.477	4.58
245.939	4.54
246.4	4.5
246.862	4.46
247.324	4.43
247.786	4.39
248.247	4.35
248.709	4.31
249.17	4.25
249.632	4.22
250.093	4.19
250.555	4.15
251.016	4.12
251.477	4.08
251.939	4.05
252.4	4.02
252.861	3.99
253.322	3.97
253.783	3.95
254.244	3.93
254.705	3.91
255.166	3.88
255.627	3.85
256.088	3.82
256.549	3.8
257.009	3.77
257.47	3.74
257.931	3.72
258.391	3.69
258.852	3.66
259.312	3.63
259.773	3.6
260.233	3.58
260.694	3.56
261.154	3.54
261.614	3.52
262.074	3.49
262.534	3.47
262.994	3.44
263.455	3.42
263.915	3.4
264.374	3.39
264.834	3.37
265.294	3.35
265.754	3.34
266.214	3.32
266.673	3.31
267.133	3.29
267.593	3.28
268.052	3.28
268.512	3.27
268.971	3.26
269.431	3.25
269.89	3.23
270.349	3.23
270.809	3.21
271.268	3.2
271.727	3.19
272.186	3.18
272.645	3.18
273.104	3.16
273.563	3.15
274.022	3.14
274.481	3.13
274.94	3.12
275.399	3.11
275.857	3.1
276.316	3.08
276.775	3.08
277.233	3.07
277.692	3.06
278.15	3.05
278.609	3.05
279.067	3.05
279.525	3.04
279.984	3.03
280.442	3.03
280.9	3.02
281.358	3.01
281.816	3.01
282.274	3.01
282.732	3
283.19	2.99
283.648	2.97
284.106	2.96
284.564	2.95
285.021	2.95
285.479	2.94
285.937	2.94
286.394	2.94
286.852	2.92
287.309	2.91
287.767	2.9
288.224	2.9
288.682	2.89
289.139	2.88
289.596	2.86
290.053	2.84
290.511	2.83
290.968	2.82
291.425	2.8
291.882	2.79
292.339	2.78
292.796	2.77
293.252	2.75
293.709	2.75
294.166	2.74
294.623	2.73
295.079	2.73
295.536	2.72
295.992	2.72
296.449	2.71
296.905	2.71
297.362	2.7
297.818	2.7
298.274	2.7
298.731	2.68
299.187	2.68
299.643	2.67
300.099	2.66
300.555	2.65
301.011	2.64
301.467	2.64
301.923	2.63
302.379	2.62
302.835	2.62
303.291	2.61
303.746	2.62
304.202	2.61
304.658	2.61
305.113	2.61
305.569	2.61
306.024	2.61
306.479	2.61
306.935	2.6
307.39	2.6
307.845	2.59
308.301	2.6
308.756	2.6
309.211	2.59
309.666	2.6
310.121	2.6
310.576	2.6
311.031	2.6
311.486	2.6
311.94	2.6
312.395	2.6
312.85	2.6
313.305	2.59
313.759	2.6
314.214	2.6
314.668	2.59
315.123	2.58
315.577	2.57
316.032	2.57
316.486	2.57
316.94	2.56
317.394	2.56
317.849	2.55
318.303	2.53
318.757	2.52
319.211	2.51
319.665	2.51
320.119	2.5
320.572	2.49
321.026	2.48
321.48	2.47
321.934	2.46
322.387	2.45
322.841	2.45
323.295	2.46
323.748	2.46
324.202	2.46
324.655	2.45
325.108	2.45
325.562	2.45
326.015	2.45
326.468	2.46
326.921	2.45
327.374	2.45
327.827	2.44
328.28	2.43
328.733	2.44
329.186	2.44
329.639	2.43
330.092	2.44
330.545	2.44
330.997	2.44
331.45	2.44
331.903	2.45
332.355	2.46
332.808	2.46
333.26	2.46
333.713	2.45
334.165	2.44
334.617	2.44
335.069	2.43
335.522	2.43
335.974	2.42
336.426	2.42
336.878	2.41
337.33	2.4
337.782	2.41
338.234	2.41
338.686	2.41
339.137	2.42
339.589	2.41
340.041	2.42
340.493	2.41
340.944	2.4
341.396	2.4
341.847	2.39
342.299	2.37
342.75	2.36
343.201	2.34
343.653	2.33
344.104	2.31
344.555	2.3
345.006	2.29
345.457	2.29
345.908	2.28
346.359	2.28
346.81	2.28
347.261	2.27
347.712	2.26
348.163	2.26
348.613	2.26
349.064	2.26
349.515	2.26
349.965	2.26
350.416	2.25
350.866	2.25
351.317	2.24
351.767	2.25
352.217	2.26
352.668	2.26
353.118	2.25
353.568	2.24
354.018	2.25
354.468	2.25
354.918	2.26
355.368	2.27
355.818	2.27
356.268	2.27
356.718	2.26
357.168	2.25
357.617	2.24
358.067	2.25
358.517	2.27
358.966	2.26
359.416	2.26
359.865	2.25
360.315	2.25
360.764	2.25
361.213	2.25
361.663	2.24
362.112	2.25
362.561	2.25
363.01	2.26
363.459	2.24
363.908	2.24
364.357	2.23
364.806	2.23
365.255	2.23
365.703	2.23
366.152	2.23
366.601	2.24
367.05	2.24
367.498	2.24
367.947	2.24
368.395	2.25
368.844	2.25
369.292	2.26
369.74	2.26
370.189	2.27
370.637	2.27
371.085	2.26
371.533	2.26
371.981	2.27
372.429	2.26
372.877	2.27
373.325	2.27
373.773	2.27
374.221	2.27
374.669	2.28
375.116	2.28
375.564	2.28
376.012	2.29
376.459	2.3
376.907	2.31
377.354	2.32
377.801	2.34
378.249	2.35
378.696	2.36
379.143	2.37
379.591	2.38
380.038	2.39
380.485	2.39
380.932	2.4
381.379	2.41
381.826	2.41
382.273	2.43
382.72	2.43
383.166	2.44
383.613	2.46
384.06	2.46
384.506	2.47
384.953	2.48
385.4	2.5
385.846	2.52
386.292	2.54
386.739	2.55
387.185	2.56
387.631	2.58
388.078	2.59
388.524	2.6
388.97	2.62
389.416	2.65
389.862	2.67
390.308	2.69
390.754	2.72
391.2	2.73
391.645	2.76
392.091	2.79
392.537	2.81
392.983	2.83
393.428	2.85
393.874	2.87
394.319	2.89
394.765	2.9
395.21	2.91
395.655	2.93
396.101	2.95
396.546	2.96
396.991	2.99
397.436	3
397.881	3.03
398.326	3.06
398.771	3.08
399.216	3.09
399.661	3.13
400.106	3.16
400.551	3.17
400.995	3.19
401.44	3.2
401.885	3.22
402.329	3.25
402.774	3.27
403.218	3.3
403.663	3.32
404.107	3.34
404.551	3.35
404.995	3.37
405.44	3.37
405.884	3.4
406.328	3.42
406.772	3.43
407.216	3.44
407.66	3.45
408.104	3.44
408.547	3.45
408.991	3.47
409.435	3.49
409.879	3.5
410.322	3.53
410.766	3.55
411.209	3.58
411.653	3.61
412.096	3.63
412.54	3.65
412.983	3.67
413.426	3.7
413.869	3.71
414.312	3.75
414.756	3.77
415.199	3.78
415.642	3.79
416.085	3.79
416.527	3.78
416.97	3.77
417.413	3.78
417.856	3.8
418.298	3.81
418.741	3.81
419.184	3.79
419.626	3.79
420.069	3.79
420.511	3.8
420.953	3.81
421.396	3.83
421.838	3.84
422.28	3.85
422.722	3.86
423.164	3.86
423.606	3.86
424.048	3.89
424.49	3.91
424.932	3.92
425.374	3.92
425.816	3.91
426.258	3.9
426.699	3.89
427.141	3.89
427.582	3.9
428.024	3.91
428.465	3.92
428.907	3.91
429.348	3.9
429.789	3.9
430.231	3.92
430.672	3.95
431.113	3.96
431.554	3.99
431.995	4.01
432.436	4.02
432.877	4.02
433.318	4.04
433.759	4.07
434.2	4.09
434.64	4.13
435.081	4.12
435.522	4.14
435.962	4.15
436.403	4.18
436.843	4.17
437.284	4.17
437.724	4.19
438.164	4.19
438.604	4.21
439.045	4.2
439.485	4.19
439.925	4.19
440.365	4.21
440.805	4.19
441.245	4.19
441.685	4.21
442.125	4.23
442.564	4.24
443.004	4.24
443.444	4.24
443.883	4.25
444.323	4.25
444.762	4.26
445.202	4.26
445.641	4.29
446.081	4.3
446.52	4.29
446.959	4.29
447.398	4.29
447.837	4.3
448.276	4.3
448.716	4.3
449.154	4.32
449.593	4.32
450.032	4.32
450.471	4.3
450.91	4.29
451.349	4.29
451.787	4.29
452.226	4.27
452.664	4.27
453.103	4.26
453.541	4.26
453.98	4.25
454.418	4.23
454.856	4.22
455.295	4.22
455.733	4.21
456.171	4.2
456.609	4.2
457.047	4.19
457.485	4.19
457.923	4.18
458.361	4.17
458.798	4.17
459.236	4.17
459.674	4.17
460.111	4.16
460.549	4.16
460.987	4.17
461.424	4.17
461.862	4.18
462.299	4.19
462.736	4.19
463.173	4.2
463.611	4.19
464.048	4.19
464.485	4.19
464.922	4.2
465.359	4.21
465.796	4.22
466.233	4.22
466.67	4.22
467.106	4.24
467.543	4.24
467.98	4.23
468.416	4.24
468.853	4.25
469.29	4.26
469.726	4.26
470.162	4.25
470.599	4.24
471.035	4.23
471.471	4.22
471.907	4.2
472.344	4.2
472.78	4.19
473.216	4.18
473.652	4.17
474.088	4.15
474.523	4.15
474.959	4.15
475.395	4.12
475.831	4.11
476.266	4.11
476.702	4.09
477.138	4.09
477.573	4.08
478.008	4.08
478.444	4.07
478.879	4.08
479.314	4.06
479.75	4.04
480.185	4.04
480.62	4.03
481.055	4.02
481.49	4.02
481.925	4.02
482.36	4.02
482.795	4.01
483.229	4
483.664	4
484.099	4
484.534	3.99
484.968	3.99
485.403	3.99
485.837	4
486.271	3.99
486.706	3.99
487.14	3.99
487.574	3.99
488.009	4
488.443	4
488.877	4.01
489.311	4.02
489.745	4.03
490.179	4.04
490.613	4.05
491.046	4.07
491.48	4.09
491.914	4.11
492.348	4.12
492.781	4.14
493.215	4.16
493.648	4.18
494.082	4.2
494.515	4.21
494.948	4.23
495.382	4.25
495.815	4.28
496.248	4.3
496.681	4.33
497.114	4.36
497.547	4.4
497.98	4.43
498.413	4.46
498.846	4.51
499.279	4.55
499.711	4.59
500.144	4.65
500.577	4.7
501.009	4.75
501.442	4.81
501.874	4.87
502.306	4.93
502.739	5
503.171	5.07
503.603	5.14
504.036	5.22
504.468	5.29
504.9	5.36
505.332	5.46
505.764	5.57
506.196	5.66
506.627	5.77
507.059	5.88
507.491	5.98
507.923	6.1
508.354	6.24
508.786	6.36
509.217	6.51
509.649	6.65
510.08	6.79
510.512	6.93
510.943	7.08
511.374	7.24
511.805	7.39
512.237	7.56
512.668	7.73
513.099	7.9
513.53	8.08
513.961	8.26
514.391	8.45
514.822	8.65
515.253	8.85
515.684	9.05
516.114	9.27
516.545	9.49
516.975	9.71
517.406	9.94
517.836	10.17
518.267	10.42
518.697	10.64
519.127	10.85
519.558	11.07
519.988	11.3
520.418	11.53
520.848	11.74
521.278	11.96
521.708	12.21
522.138	12.42
522.567	12.64
522.997	12.83
523.427	13.04
523.857	13.26
524.286	13.46
524.716	13.67
525.145	13.85
525.575	14.04
526.004	14.24
526.433	14.39
526.863	14.57
527.292	14.73
527.721	14.89
528.15	15.03
528.579	15.18
529.008	15.32
529.437	15.44
529.866	15.57
530.295	15.69
530.724	15.8
531.152	15.91
531.581	16.02
532.01	16.13
532.438	16.23
532.867	16.34
533.295	16.43
533.723	16.5
534.152	16.58
534.58	16.66
535.008	16.72
535.436	16.78
535.865	16.82
536.293	16.86
536.721	16.9
537.149	16.95
537.576	16.98
538.004	17.03
538.432	17.07
538.86	17.1
539.287	17.13
539.715	17.18
540.143	17.22
540.57	17.26
540.998	17.29
541.425	17.33
541.852	17.35
542.28	17.37
542.707	17.39
543.134	17.41
543.561	17.44
543.988	17.48
544.415	17.48
544.842	17.5
545.269	17.52
545.696	17.55
546.123	17.58
546.549	17.61
546.976	17.64
547.403	17.68
547.829	17.69
548.256	17.71
548.682	17.72
549.108	17.74
549.535	17.76
549.961	17.77
550.387	17.76
550.813	17.75
551.24	17.74
551.666	17.72
552.092	17.71
552.518	17.71
552.943	17.68
553.369	17.65
553.795	17.61
554.221	17.57
554.646	17.53
555.072	17.48
555.498	17.42
555.923	17.38
556.349	17.3
556.774	17.23
557.199	17.15
557.625	17.08
558.05	17.01
558.475	16.93
558.9	16.85
559.325	16.76
559.75	16.67
560.175	16.57
560.6	16.47
561.025	16.37
561.449	16.26
561.874	16.15
562.299	16.04
562.723	15.93
563.148	15.8
563.572	15.67
563.997	15.55
564.421	15.41
564.846	15.28
565.27	15.16
565.694	15.03
566.118	14.89
566.542	14.75
566.966	14.6
567.39	14.46
567.814	14.32
568.238	14.19
568.662	14.05
569.086	13.92
569.509	13.78
569.933	13.65
570.357	13.52
570.78	13.38
571.204	13.26
571.627	13.16
572.05	13.03
572.474	12.91
572.897	12.8
573.32	12.69
573.743	12.58
574.166	12.47
574.589	12.36
575.012	12.25
575.435	12.15
575.858	12.07
576.281	11.96
576.704	11.87
577.126	11.77
577.549	11.69
577.972	11.59
578.394	11.51
578.817	11.43
579.239	11.35
579.661	11.28
580.084	11.21
580.506	11.14
580.928	11.05
581.35	10.98
581.772	10.92
582.194	10.85
582.616	10.79
583.038	10.72
583.46	10.66
583.882	10.59
584.303	10.52
584.725	10.46
585.147	10.4
585.568	10.36
585.99	10.31
586.411	10.26
586.833	10.21
587.254	10.15
587.675	10.11
588.096	10.07
588.518	10.02
588.939	9.99
589.36	9.95
589.781	9.91
590.202	9.87
590.623	9.84
591.043	9.8
591.464	9.78
591.885	9.75
592.305	9.73
592.726	9.71
593.147	9.68
593.567	9.65
593.987	9.62
594.408	9.59
594.828	9.56
595.248	9.53
595.669	9.52
596.089	9.48
596.509	9.45
596.929	9.42
597.349	9.39
597.769	9.36
598.189	9.34
598.608	9.34
599.028	9.31
599.448	9.28
599.867	9.25
600.287	9.22
600.706	9.18
601.126	9.16
601.545	9.13
601.965	9.1
602.384	9.06
602.803	9.01
603.222	8.96
603.641	8.91
604.061	8.86
604.48	8.82
604.898	8.75
605.317	8.7
605.736	8.64
606.155	8.6
606.574	8.54
606.992	8.49
607.411	8.44
607.829	8.36
608.248	8.3
608.666	8.25
609.085	8.21
609.503	8.17
609.921	8.12
610.339	8.08
610.758	8.02
611.176	7.96
611.594	7.9
612.012	7.84
612.43	7.81
612.847	7.75
613.265	7.7
613.683	7.65
614.101	7.59
614.518	7.54
614.936	7.48
615.353	7.43
615.771	7.38
616.188	7.33
616.606	7.29
617.023	7.24
617.44	7.22
617.857	7.19
618.274	7.14
618.691	7.11
619.108	7.08
619.525	7.06
619.942	7.03
620.359	7.01
620.776	6.99
621.192	6.98
621.609	6.97
622.026	6.94
622.442	6.9
622.859	6.89
623.275	6.87
623.691	6.86
624.108	6.84
624.524	6.83
624.94	6.82
625.356	6.81
625.772	6.8
626.188	6.78
626.604	6.78
627.02	6.78
627.436	6.77
627.852	6.77
628.268	6.75
628.683	6.74
629.099	6.75
629.514	6.73
629.93	6.73
630.345	6.72
630.761	6.7
631.176	6.68
631.591	6.66
632.007	6.63
632.422	6.6
632.837	6.58
633.252	6.54
633.667	6.5
634.082	6.45
634.497	6.41
634.911	6.37
635.326	6.32
635.741	6.28
636.155	6.24
636.57	6.2
636.984	6.15
637.399	6.1
637.813	6.05
638.228	5.99
638.642	5.93
639.056	5.87
639.47	5.81
639.884	5.76
640.298	5.69
640.712	5.63
641.126	5.57
641.54	5.5
641.954	5.43
642.368	5.37
642.781	5.33
643.195	5.28
643.609	5.23
644.022	5.18
644.436	5.13
644.849	5.08
645.262	5.04
645.676	4.99
646.089	4.96
646.502	4.92
646.915	4.89
647.328	4.86
647.741	4.83
648.154	4.79
648.567	4.77
648.98	4.73
649.393	4.72
649.805	4.7
650.218	4.68
650.631	4.66
651.043	4.64
651.456	4.62
651.868	4.59
652.28	4.57
652.693	4.56
653.105	4.54
653.517	4.52
653.929	4.5
654.341	4.47
654.753	4.45
655.165	4.43
655.577	4.41
655.989	4.39
656.401	4.37
656.813	4.35
657.224	4.32
657.636	4.28
658.047	4.26
658.459	4.23
658.87	4.2
659.282	4.16
659.693	4.14
660.104	4.11
660.515	4.08
660.926	4.05
661.338	4.01
661.749	3.99
662.159	3.96
662.57	3.94
662.981	3.92
663.392	3.9
663.803	3.89
664.213	3.87
664.624	3.85
665.035	3.85
665.445	3.84
665.855	3.84
666.266	3.84
666.676	3.85
667.086	3.83
667.497	3.82
667.907	3.83
668.317	3.83
668.727	3.83
669.137	3.84
669.547	3.85
669.956	3.85
670.366	3.87
670.776	3.87
671.186	3.87
671.595	3.89
672.005	3.9
672.414	3.91
672.824	3.92
673.233	3.94
673.642	3.96
674.052	3.97
674.461	3.98
674.87	3.99
675.279	4.02
675.688	4.04
676.097	4.07
676.506	4.1
676.915	4.12
677.323	4.15
677.732	4.16
678.141	4.19
678.549	4.22
678.958	4.25
679.366	4.28
679.775	4.31
680.183	4.35
680.592	4.39
681	4.42
681.408	4.46
681.816	4.5
682.224	4.54
682.632	4.58
683.04	4.62
683.448	4.67
683.856	4.71
684.264	4.76
684.671	4.81
685.079	4.87
685.487	4.96
685.894	5.06
686.302	5.16
686.709	5.28
687.116	5.41
687.524	5.56
687.931	5.73
688.338	5.92
688.745	6.14
689.152	6.36
689.559	6.63
689.966	6.9
690.373	7.19
690.78	7.49
691.187	7.81
691.593	8.16
692	8.52
692.407	8.89
692.813	9.29
693.22	9.69
693.626	10.13
694.032	10.55
694.439	11
694.845	11.46
695.251	11.93
695.657	12.42
696.063	12.91
696.469	13.44
696.875	13.96
697.281	14.47
697.687	15
698.093	15.53
698.498	16.06
698.904	16.59
699.31	17.12
699.715	17.67
700.12	18.22
700.526	18.76
700.931	19.27
701.337	19.8
701.742	20.34
702.147	20.89
702.552	21.44
702.957	21.95
703.362	22.47
703.767	22.98
704.172	23.49
704.577	23.99
704.981	24.51
705.386	25.06
705.791	25.57
706.195	26.08
706.6	26.57
707.004	27.05
707.408	27.57
707.813	28.07
708.217	28.55
708.621	29.07
709.025	29.53
709.43	30
709.834	30.46
710.237	30.91
710.641	31.35
711.045	31.8
711.449	32.26
711.853	32.71
712.256	33.15
712.66	33.6
713.064	34.02
713.467	34.45
713.87	34.88
714.274	35.28
714.677	35.71
715.08	36.14
715.484	36.57
715.887	36.97
716.29	37.36
716.693	37.77
717.096	38.15
717.499	38.51
717.901	38.9
718.304	39.27
718.707	39.65
719.109	40
719.512	40.34
719.915	40.67
720.317	40.98
720.719	41.29
721.122	41.6
721.524	41.93
721.926	42.26
722.328	42.56
722.731	42.86
723.133	43.17
723.535	43.46
723.937	43.75
724.338	44.01
724.74	44.3
725.142	44.6
725.544	44.85
725.945	45.09
726.347	45.31
726.748	45.56
727.15	45.78
727.551	45.99
727.952	46.2
728.354	46.4
728.755	46.59
729.156	46.77
729.557	46.94
729.958	47.12
730.359	47.3
730.76	47.49
731.161	47.65
731.562	47.83
731.962	47.94
732.363	48.1
732.763	48.25
733.164	48.42
733.564	48.59
733.965	48.71
734.365	48.84
734.766	48.96
735.166	49.07
735.566	49.17
735.966	49.27
736.366	49.4
736.766	49.5
737.166	49.58
737.566	49.67
737.966	49.75
738.365	49.85
738.765	49.94
739.165	50.02
739.564	50.13
739.964	50.22
740.363	50.29
740.763	50.36
741.162	50.42
741.561	50.46
741.96	50.52
742.36	50.58
742.759	50.62
743.158	50.66
743.557	50.7
743.955	50.74
744.354	50.78
744.753	50.83
745.152	50.91
745.55	50.96
745.949	51.04
746.348	51.08
746.746	51.13
747.144	51.16
747.543	51.21
747.941	51.24
748.339	51.23
748.737	51.29
749.136	51.32
749.534	51.34
749.932	51.35
750.33	51.36
750.727	51.41
751.125	51.42
751.523	51.44
751.921	51.45
752.318	51.49
752.716	51.52
753.113	51.52
753.511	51.55
753.908	51.58
754.305	51.61
754.703	51.62
755.1	51.62
755.497	51.63
755.894	51.63
756.291	51.65
756.688	51.65
757.085	51.67
757.482	51.69
757.878	51.68
758.275	51.66
758.672	51.65
759.068	51.69
759.465	51.7
759.861	51.72
760.258	51.73
760.654	51.74
761.05	51.75
761.447	51.77
761.843	51.76
762.239	51.75
762.635	51.76
763.031	51.78
763.427	51.73
763.822	51.74
764.218	51.74
764.614	51.74
765.01	51.71
765.405	51.69
765.801	51.65
766.196	51.66
766.592	51.67
766.987	51.66
767.382	51.65
767.778	51.66
768.173	51.66
768.568	51.63
768.963	51.66
769.358	51.67
769.753	51.68
770.148	51.69
770.542	51.68
770.937	51.7
771.332	51.7
771.726	51.71
772.121	51.71
772.515	51.7
772.91	51.7
773.304	51.69
773.699	51.68
774.093	51.66
774.487	51.65
774.881	51.66
775.275	51.62
775.669	51.62
776.063	51.6
776.457	51.6
776.851	51.58
777.245	51.56
777.638	51.56
778.032	51.56
778.425	51.6
778.819	51.61
779.212	51.59
779.606	51.6
779.999	51.6
780.392	51.62
780.786	51.64
781.179	51.65
781.572	51.7
781.965	51.69
782.358	51.71
782.751	51.7
783.143	51.7
783.536	51.68
783.929	51.66
784.322	51.68
784.714	51.67
785.107	51.68
785.499	51.67
785.891	51.64
786.284	51.68
786.676	51.69
787.068	51.69
787.46	51.68
787.852	51.69
788.245	51.71
788.636	51.68
789.028	51.67
789.42	51.64
789.812	51.67
790.204	51.68
790.595	51.64
790.987	51.64
791.378	51.64
791.77	51.66
792.161	51.68
792.553	51.69
792.944	51.69
793.335	51.71
793.726	51.71
794.117	51.68
794.508	51.65
794.899	51.64
795.29	51.63
795.681	51.61
796.072	51.6
796.463	51.59
796.853	51.57
797.244	51.58
797.634	51.56
798.025	51.58
798.415	51.61
798.806	51.6
799.196	51.63
799.586	51.63
799.976	51.61
800.366	51.62
800.756	51.64
801.146	51.66
801.536	51.67
801.926	51.66
802.316	51.63
802.706	51.6
803.095	51.62
803.485	51.59
803.874	51.57
804.264	51.61
804.653	51.56
805.043	51.55
805.432	51.52
805.821	51.53
806.21	51.55
806.599	51.56
806.988	51.57
807.377	51.6
807.766	51.61
808.155	51.62
808.544	51.6
808.933	51.61
809.321	51.6
809.71	51.61
810.098	51.59
810.487	51.57
810.875	51.57
811.264	51.56
811.652	51.56
812.04	51.57
812.428	51.58
812.816	51.59
813.204	51.57
813.592	51.56
813.98	51.54
814.368	51.54
814.756	51.54
815.144	51.53
815.531	51.53
815.919	51.51
816.306	51.49
816.694	51.48
817.081	51.45
817.469	51.47
817.856	51.47
818.243	51.47
818.63	51.46
819.017	51.44
819.404	51.4
819.791	51.39
820.178	51.39
820.565	51.36
820.952	51.33
821.339	51.35
821.725	51.34
822.112	51.34
822.498	51.34
822.885	51.36
823.271	51.37
823.657	51.38
824.044	51.38
824.43	51.39
824.816	51.4
825.202	51.43
825.588	51.42
825.974	51.41
826.36	51.41
826.746	51.39
827.132	51.38
827.517	51.39
827.903	51.41
828.289	51.42
828.674	51.43
829.06	51.44
829.445	51.4
829.83	51.4
830.216	51.41
830.601	51.41
830.986	51.43
831.371	51.41
831.756	51.42
832.141	51.41
832.526	51.39
832.911	51.36
833.295	51.36
833.68	51.4
834.065	51.42
834.449	51.43
834.834	51.43
835.218	51.43
835.603	51.46
835.987	51.43
836.371	51.43
836.755	51.43
837.139	51.45
837.524	51.47
837.908	51.47
838.291	51.48
838.675	51.48
839.059	51.5
839.443	51.48
839.827	51.47
840.21	51.49
840.594	51.5
840.977	51.51
841.361	51.52
841.744	51.5
842.127	51.49
842.511	51.48
842.894	51.47
843.277	51.44
843.66	51.42
844.043	51.42
844.426	51.43
844.809	51.44
845.191	51.45
845.574	51.45
845.957	51.46
846.339	51.45
846.722	51.44
847.104	51.45
847.487	51.47
847.869	51.46
848.252	51.47
848.634	51.48
849.016	51.47
849.398	51.45
849.78	51.45
850.162	51.44
850.544	51.43
850.926	51.44
851.307	51.43
851.689	51.43
852.071	51.45
852.452	51.45
852.834	51.44
853.215	51.42
853.597	51.44
853.978	51.44
854.359	51.44
854.741	51.45
855.122	51.45
855.503	51.45
855.884	51.44
856.265	51.45
856.646	51.43
857.026	51.44
857.407	51.46
857.788	51.45
858.169	51.47
858.549	51.48
858.93	51.47
859.31	51.46
859.69	51.47
860.071	51.5
860.451	51.49
860.831	51.5
861.211	51.49
861.591	51.47
861.971	51.46
862.351	51.46
862.731	51.47
863.111	51.48
863.491	51.48
863.87	51.47
864.25	51.43
864.629	51.43
865.009	51.42
865.388	51.42
865.768	51.42
866.147	51.44
866.526	51.41
866.905	51.4
867.284	51.39
867.663	51.37
868.042	51.38
868.421	51.4
868.8	51.4
869.179	51.4
869.558	51.39
869.936	51.38
870.315	51.37
870.693	51.37
871.072	51.38
871.45	51.38
871.828	51.4
872.207	51.4
872.585	51.4
872.963	51.39
873.341	51.37
873.719	51.38
874.097	51.39
874.475	51.41
874.853	51.42
875.23	51.44
875.608	51.44
875.986	51.45
876.363	51.45
876.741	51.49
877.118	51.5
877.495	51.52
877.873	51.54
878.25	51.57
878.627	51.58
879.004	51.59
879.381	51.58
879.758	51.57
880.135	51.57
880.512	51.57
880.889	51.53
881.265	51.52
881.642	51.55
882.019	51.55
882.395	51.5
882.772	51.48
883.148	51.45
883.524	51.44
883.901	51.46
884.277	51.44
884.653	51.42
885.029	51.41
885.405	51.4
885.781	51.39
886.157	51.38
886.532	51.38
886.908	51.38
887.284	51.39
887.659	51.38
888.035	51.35
888.411	51.35
888.786	51.36
889.161	51.37
889.537	51.38
889.912	51.38
890.287	51.38
890.662	51.38
891.037	51.39
891.412	51.39
891.787	51.37
892.162	51.38
892.536	51.37
892.911	51.38
893.286	51.36
893.66	51.35
894.035	51.34
894.409	51.34
894.784	51.33
895.158	51.32
895.532	51.31
895.906	51.32
896.281	51.32
896.655	51.32
897.029	51.32
897.402	51.33
897.776	51.33
898.15	51.35
898.524	51.33
898.898	51.33
899.271	51.33
899.645	51.34
900.018	51.36
900.392	51.39
900.765	51.42
901.138	51.39
901.511	51.4
901.884	51.41
902.258	51.4
902.631	51.45
903.003	51.46
903.376	51.48
903.749	51.47
904.122	51.48
904.495	51.49
904.867	51.48
905.24	51.53
905.612	51.56
905.985	51.55
906.357	51.55
906.729	51.54
907.102	51.55
907.474	51.55
907.846	51.54
908.218	51.5
908.59	51.51
908.962	51.51
909.334	51.48
909.705	51.42
910.077	51.44
910.449	51.46
910.82	51.44
911.192	51.42
911.563	51.37
911.935	51.38
912.306	51.41
912.677	51.41
913.048	51.43
913.419	51.44
913.79	51.48
914.161	51.46
914.532	51.46
914.903	51.48
915.274	51.5
915.645	51.54
916.015	51.53
916.386	51.52
916.756	51.53
917.127	51.53
917.497	51.52
917.868	51.49
918.238	51.49
918.608	51.51
918.978	51.51
919.348	51.49
919.718	51.48
920.088	51.49
920.458	51.47
920.828	51.44
921.198	51.41
921.567	51.39
921.937	51.4
922.306	51.37
922.676	51.32
923.045	51.3
923.415	51.26
923.784	51.26
924.153	51.27
924.522	51.28
924.891	51.27
925.26	51.28
925.629	51.31
925.998	51.31
926.367	51.3
926.736	51.31
927.104	51.33
927.473	51.35
927.842	51.34
928.21	51.32
928.578	51.28
928.947	51.29
929.315	51.26
929.683	51.23
930.051	51.2
930.42	51.18
930.788	51.14
931.156	51.09
931.523	51.07
931.891	51.06
932.259	51.04
932.627	51.03
932.994	50.99
933.362	50.95
933.729	50.93
934.097	50.92
934.464	50.94
934.831	50.97
935.199	51
935.566	50.98
935.933	50.97
936.3	50.92
936.667	50.95
937.034	50.92
937.401	50.95
937.767	50.97
938.134	50.94
938.501	50.94
938.867	50.91
939.234	50.86
939.6	50.83
939.967	50.8
940.333	50.83
940.699	50.82
941.065	50.83
941.431	50.83
941.798	50.79
942.163	50.78
942.529	50.77
942.895	50.8
943.261	50.76
943.627	50.74
943.992	50.72
944.358	50.71
944.723	50.72
945.089	50.7
945.454	50.73
945.82	50.71
946.185	50.71
946.55	50.65
946.915	50.61
947.28	50.62
947.645	50.64
948.01	50.64
948.375	50.6
948.74	50.59
949.104	50.61
949.469	50.56
949.834	50.53
950.198	50.48
950.562	50.47
950.927	50.48
951.291	50.43
951.655	50.39
952.02	50.41
952.384	50.37
952.748	50.35
953.112	50.3
953.476	50.27
953.839	50.24
954.203	50.27
954.567	50.22
954.931	50.14
955.294	50.17
955.658	50.22
956.021	50.14
956.385	50.11
956.748	50.05
957.111	50.03
957.474	50
957.837	49.96
958.2	49.96
958.563	49.96
958.926	49.99
959.289	49.97
959.652	49.93
960.015	49.93
960.377	49.95
960.74	50.01
961.102	50.04
961.465	50.1
961.827	50.14
962.189	50.14
962.552	50.13
962.914	50.15
963.276	50.18
963.638	50.22
964	50.23
964.362	50.27
964.724	50.21
965.085	50.17
965.447	50.14
965.809	50.16
966.17	50.1
966.532	50.08
966.893	50.05
967.255	49.99
967.616	49.93
967.977	49.94
968.338	49.93
968.699	49.95
969.061	49.96
969.421	49.95
969.782	49.96
970.143	50.01
970.504	50.05
970.865	50.06
971.225	50.05
971.586	50
971.946	49.97
972.307	49.97
972.667	49.95
973.027	49.99
973.388	49.96
973.748	49.91
974.108	49.96
974.468	49.97
974.828	50.06
975.188	50.1
975.548	50.17
975.907	50.17
976.267	50.17
976.627	50.21
976.986	50.13
977.346	50.14
977.705	50.11
978.064	50.07
978.424	50.02
978.783	49.87
979.142	49.86
979.501	49.85
979.86	49.87
980.219	49.81
980.578	49.75
980.937	49.8
981.296	49.76
981.654	49.76
982.013	49.72
982.371	49.71
982.73	49.76
983.088	49.72
983.447	49.66
983.805	49.64
984.163	49.69
984.521	49.69
984.879	49.61
985.237	49.64
985.595	49.68
985.953	49.68
986.311	49.72
986.669	49.74
987.026	49.72
987.384	49.79
987.741	49.74
988.099	49.72
988.456	49.7
988.814	49.75
989.171	49.73
989.528	49.76
989.885	49.82
990.242	49.76
990.599	49.75
990.956	49.81
991.313	49.86
991.67	49.79
992.027	49.85
992.383	49.99
992.74	50.04
993.096	50.07
993.453	50.05
993.809	49.99
994.165	50.02
994.522	50
994.878	49.98
995.234	49.87
995.59	49.92
995.946	49.96
996.302	49.79
996.658	49.79
997.013	49.77
997.369	49.75
997.725	49.81
998.08	49.82
998.436	49.83
998.791	49.86
999.147	49.83
999.502	49.82
999.857	49.79
1000.212	49.72
1000.567	49.7
1000.922	49.72
1001.277	49.69
1001.632	49.53
1001.987	49.49
1002.342	49.53
1002.696	49.46
1003.051	49.68
1003.406	49.85
1003.76	49.81
1004.114	49.83
1004.469	49.83
1004.823	49.93
1005.177	50.02
1005.531	50.13
1005.885	50.1
1006.239	50.04
1006.593	50.15
1006.947	50.07
1007.301	49.83
1007.655	49.91
1008.008	49.99
1008.362	50.02
1008.715	50.03
1009.069	50.01
1009.422	50.08
1009.776	50.04
1010.129	50.03
1010.482	49.96
1010.835	49.88
1011.188	49.96
1011.541	49.91
1011.894	50.03
1012.247	49.96
1012.6	49.74
1012.952	49.65
1013.305	49.71
1013.657	49.84
1014.01	49.91
1014.362	49.89
1014.715	49.89
1015.067	49.84
1015.419	49.85
1015.771	49.58
1016.123	49.63
1016.475	49.85
1016.827	49.89
1017.179	49.71
1017.531	49.82
1017.883	49.75
1018.234	49.9
1018.586	50.05
1018.938	50.25
1019.289	50.11
1019.64	50.34
1019.992	50.32
1020.343	50.25
1020.694	50.22
1021.045	50.25
1021.396	50.24
1021.747	50.44
1022.098	50.29
1022.449	50.13
1022.8	50.01
1023.151	49.92
1023.501	49.79
1023.852	49.8
1024.202	49.53
1024.553	49.4
1024.903	49.34
1025.253	49.15
1025.604	48.99
1025.954	48.85
1026.304	48.75
1026.654	48.8
1027.004	48.87
1027.354	48.93
1027.703	48.67
1028.053	48.58
1028.403	48.57
1028.753	48.3
1029.102	48.46
1029.452	48.57
1029.801	48.87
1030.15	48.9
1030.499	48.82
897.758	692.76
901.051	705.26
904.343	702.91
907.636	714.2
910.928	694.92
914.22	694.88
917.511	685.65
920.803	658.39
924.094	656.25
927.384	637.69
930.675	613.66
933.965	612.92
937.255	574.58
940.544	552.42
943.834	528.64
947.123	524.14
950.411	497
953.7	487.38
956.988	460.89
960.276	445.57
963.563	440.7
966.851	428.42
970.138	425.32
973.424	414.43
976.711	414.76
979.997	395.94
983.283	394.05
986.568	385.36
989.853	375.8
993.138	371.17
996.423	355.57
999.708	345.87
1002.992	340.86
1006.275	325.86
1009.559	322.43
1012.842	312.46
1016.125	305.43
1019.408	299.57
1022.69	296.43
1025.972	289.46
1029.254	283.25
1032.536	279.81
1035.817	274.68
1039.098	271.48
1042.379	267.5
1045.659	265.24
1048.939	259.71
1052.219	254.3
1055.498	252
1058.778	245.95
1062.057	241.93
1065.335	239.35
1068.614	237.21
1071.892	234.3
1075.17	228.2
1078.447	224.04
1081.724	221.24
1085.001	220.21
1088.278	216.77
1091.554	212.25
1094.83	212.31
1098.106	209.67
1101.382	208.74
1104.657	207.34
1107.932	203.64
1111.206	204.03
1114.481	200.31
1117.755	199.21
1121.029	197.19
1124.302	196.54
1127.575	194.25
1130.848	192.59
1134.121	191.87
1137.393	189.98
1140.665	186.13
1143.937	185.53
1147.208	185.87
1150.48	184.48
1153.75	181.88
1157.021	180.87
1160.291	180.18
1163.561	178.06
1166.831	177.78
1170.101	176.15
1173.37	176.66
1176.639	177.05
1179.907	175.57
1183.176	172.99
1186.444	172.88
1189.711	172.83
1192.979	171.91
1196.246	171.53
1199.513	171.73
1202.78	171
1206.046	170.93
1209.312	169.32
1212.578	169.28
1215.843	171.17
1219.108	170.03
1222.373	173.34
1225.638	175.23
1228.902	176.29
1232.166	177.12
1235.43	178.12
1238.693	179.83
1241.956	180.76
1245.219	182.69
1248.482	183.32
1251.744	183
1255.006	183.21
1258.268	179.51
1261.529	177.88
1264.79	177.08
1268.051	175.07
1271.312	173.95
1274.572	172.55
1277.832	171.1
1281.092	168.59
1284.351	167.29
1287.61	167.33
1290.869	165.61
1294.128	164.7
1297.386	165.09
1300.644	163.26
1303.902	163.78
1307.159	163.59
1310.416	162.73
1313.673	162.13
1316.93	162.88
1320.186	162.66
1323.442	162.62
1326.697	164.64
1329.953	164.4
1333.208	163.75
1336.463	166.96
1339.717	166.98
1342.972	167.76
1346.226	169.46
1349.479	170.32
1352.733	171.75
1355.986	172.56
1359.238	172.07
1362.491	172.13
1365.743	173.27
1368.995	173.22
1372.247	172.62
1375.498	171.77
1378.749	172.16
1382	170.68
1385.251	169.35
1388.501	167.48
1391.751	166.23
1395	165.36
1398.25	163.85
1401.499	161.94
1404.748	160.72
1407.996	156.85
1411.244	156.61
1414.492	154.51
1417.74	151.32
1420.987	150.13
1424.234	148.94
1427.481	147.34
1430.728	146.97
1433.974	146.19
1437.22	144.62
1440.465	144.47
1443.711	143.11
1446.956	141.64
1450.201	141.12
1453.445	140.11
1456.689	139.5
1459.933	137.17
1463.177	136.54
1466.42	134.04
1469.663	132.02
1472.906	131.56
1476.148	128.77
1479.391	127.47
1482.633	126.83
1485.874	124.72
1489.115	123.62
1492.356	123.05
1495.597	122.71
1498.838	121.36
1502.078	121.34
1505.318	121.38
1508.557	121.06
1511.797	120.87
1515.036	120.43
1518.274	120.77
1521.513	120.02
1524.751	120.09
1527.989	119.73
1531.227	120.1
1534.464	119.75
1537.701	119.42
1540.938	119.02
1544.174	118.75
1547.41	118.79
1550.646	118.48
1553.882	118.09
1557.117	117.87
1560.352	117.05
1563.587	117.22
1566.821	116.52
1570.055	116.27
1573.289	115.63
1576.523	115.94
1579.756	114.83
1582.989	114.95
1586.222	114.42
1589.454	114.47
1592.686	115.48
1595.918	115.4
1599.15	114.97
1602.381	115.61
1605.612	115.6
1608.843	116.15
1612.073	115.34
1615.303	116.87
1618.533	116.75
1621.762	117.15
1624.992	117.07
1628.221	116.23
1631.449	116.27
1634.678	116.37
1637.906	116.77
1641.134	116.63
1644.361	116.5
1647.588	117.11
1650.815	116.33
1654.042	116.41
1657.269	117.09
1660.495	117.11
1663.72	117.09
1666.946	117.67
1670.171	117.83
1673.396	117.64
1676.621	117.81
1679.845	118.02
1683.069	118.52
1686.293	119.11
1689.517	119.25
1692.74	119.16
1695.963	119.05
1699.185	119.72
1702.408	119.53
1705.63	120.24
1708.852	120.24
1712.073	120.38
1715.294	120.4
1718.515	120.8
1721.736	120.71
1724.956	121
1728.176	121.12
1731.396	121.83
1734.616	121.44
1737.835	122.16
1741.054	120.61
1744.272	120.85
1747.491	121.49
1750.709	121.62
1753.927	121.05
1757.144	120.73
1760.361	120.72
1763.578	120.65
1766.795	120.38
1770.011	121.2
1773.227	120.82
1776.443	122.05
1779.658	121.8
1782.874	122.01
1786.089	122.02
1789.303	122.6
1792.518	123.4
1795.732	123.46
1798.945	124.76
1802.159	124.98
1805.372	124.92
1808.585	126.48
1811.797	126.99
1815.01	127.82
1818.222	128.5
1821.434	129.58
1824.645	129.22
1827.856	131.84
1831.067	132.27
1834.278	132.16
1837.488	132.91
1840.698	133.56
1843.908	132.85
1847.117	133.05
1850.326	133.27
1853.535	131.79
1856.744	133.03
1859.952	133.01
1863.16	131.21
1866.368	129.94
1869.575	130.07
1872.782	127.43
1875.989	125.52
1879.196	124.57
1882.402	123.14
1885.608	122.69
1888.814	122.66
1892.019	120.93
1895.224	120.23
1898.429	119.5
1901.634	119.71
1904.838	119.51
1908.042	120.58
1911.246	121.3
1914.449	122.16
1917.652	122.18
1920.855	122.42
1924.058	122.07
1927.26	122.15
1930.462	121.75
1933.664	122.45
1936.865	121.96
1940.066	121.58
1943.267	120.36
1946.467	120.91
1949.668	121.21
1952.868	122.63
1956.067	122.75
1959.267	123.62
1962.466	123.82
1965.665	124.16
1968.863	124.96
1972.061	126.15
1975.259	126.76
1978.457	128.99
1981.654	129.45
1984.852	129.66
1988.048	129.49
1991.245	130.04
1994.441	130.99
1997.637	132.29
2000.833	135.19
2004.028	135.65
2007.223	137.22
2010.418	138.72
2013.613	141.16
2016.807	143.42
2020.001	145
2023.194	147.66
2026.388	151.75
2029.581	154.3
2032.774	155.78
2035.966	157.98
2039.158	159.44
2042.35	162.02
2045.542	162.86
2048.733	164.86
2051.924	166.86
2055.115	169.67
2058.306	169.56
2061.496	170.41
2064.686	170.86
2067.875	173.71
2071.065	174.28
2074.254	174.17
2077.442	176.28
2080.631	177.41
2083.819	179.29
2087.007	179.7
2090.195	181.56
2093.382	184.08
2096.569	183.71
2099.756	187.9
2102.942	188.31
2106.128	189.89
2109.314	194.74
2112.5	194.32
2115.685	198.74
2118.87	199.15
2122.055	203.37
2125.239	204.25
2128.424	206.89
2131.608	207.9
2134.791	210.85
2137.974	210.93
2141.157	212.49
2144.34	212.01
2147.523	215.95
2150.705	214.67
2153.887	216.99
2157.068	217.42
2160.25	216.19
2163.431	217
2166.611	219.14
2169.792	223.12
2172.972	225.87
2176.152	227.76
2179.331	230.72
2182.511	233.11
2185.69	234.52
2188.868	239.49
2192.047	238.81
2195.225	246.14
2198.403	251.1
2201.58	255.74
2204.758	259.33
2207.935	264.54
2211.111	268.83
2214.288	271.51
2217.464	272.38
2220.64	279.46
2223.815	280.89
2226.991	293.57
2230.166	292.52
2233.34	296.58
2236.515	302.85
2239.689	302.15
2242.863	305.16
2246.036	312.37
2249.209	310.54
2252.382	316.44
2255.555	323.57
2258.727	325.79
2261.9	328.81
2265.071	334.34
2268.243	338.53
2271.414	342.17
2274.585	350.55
2277.756	353.89
2280.926	357.93
2284.096	365.29
2287.266	372.62
2290.436	376.01
2293.605	383.87
2296.774	391.97
2299.942	401.77
2303.111	408.05
2306.279	414.83
2309.447	419.05
2312.614	430.38
2315.781	438.86
2318.948	461.3
2322.115	455.4
2325.281	480.59
2328.447	469.53
2331.613	489.29
2334.779	485.31
2337.944	505.13
2341.109	510.66
2344.274	527.63
2347.438	542.74
2350.602	544.72
2353.766	563.47
2356.929	572.63
2360.092	563.21
2363.255	605.63
2366.418	605.2
2369.58	616.26
2372.742	647.65
2375.904	666.09
2379.066	660.4
2382.227	649.7
2385.388	703.19
2388.548	704.75
2391.709	710.04
2394.869	794.18
2398.029	761.71
2401.188	780.09
2404.347	776.58
2407.506	769.07
2410.665	787.44
2413.823	833.12
2416.981	884.47
2420.139	857.1
2423.296	846.82
2426.453	882.22
2429.61	845.84
2432.767	881.49
2435.923	874.74
2439.079	962.5
2442.235	974.33
2445.391	968.58
2448.546	962.95
2451.701	935.34
2454.855	934.26
2458.009	981.18
2461.163	1028.12
2464.317	1072.6
2467.471	1100.28
2470.624	1104.29
2473.777	1069.22
2476.929	1042.63
2480.082	1010.63
2483.234	999.31
2486.385	1050.9
2489.537	1056.85
2492.688	1095.73
2495.839	1068.21
2498.989	1045.5
2502.14	1051.17
2505.29	1058.48
2508.439	1073.05
2511.589	1071.96
2514.738	1173.96
2517.887	1148.85
2521.035	1212.66
2524.183	1213.28
2527.331	1226.02
2530.479	1216.06
2533.627	1223.32
