Data from N_1_DEC_OH_4n_Splice17_12-28-55-204.txt Node
Date: Sat Mar 07 12:28:55 EST 2020
User: sa697716
Spectrometer: NQ5500242
Trigger mode: 0
Integration Time (sec): 1.450000E-1
Scans to average: 20
Nonlinearity correction enabled: false
Boxcar width: 5
Storing dark spectrum: false
XAxis mode: Wavelengths
Number of Pixels in Spectrum: 512
>>>>>Begin Spectral Data<<<<<
187.83	13.74
188.298	49.24
188.766	23.71
189.233	29.4
189.701	18.27
190.169	28.7
190.636	-8.56
191.104	-234.6
191.571	-502.88
192.039	-218.29
192.506	-98.14
192.974	86.31
193.441	292.08
193.908	119.06
194.375	81.22
194.842	21.01
195.31	88.36
195.777	235.6
196.244	20.2
196.711	20.34
197.177	22.69
197.644	22.1
198.111	21.65
198.578	21.79
199.045	21.75
199.511	22.04
199.978	22.13
200.445	22.07
200.911	21.85
201.378	21.85
201.844	22.07
202.31	22.12
202.777	22.32
203.243	22.5
203.709	22.37
204.176	21.98
204.642	21.95
205.108	22.01
205.574	22.18
206.04	21.99
206.506	21.92
206.972	22.09
207.438	21.85
207.903	21.45
208.369	20.93
208.835	20.6
209.301	20.08
209.766	19.32
210.232	18.88
210.697	18.23
211.163	17.9
211.628	17.61
212.094	17.09
212.559	16.83
213.024	16.73
213.49	16.45
213.955	16.09
214.42	16.21
214.885	16
215.35	15.53
215.815	15
216.28	14.14
216.745	13.19
217.21	12.26
217.675	11.55
218.14	10.9
218.604	10.35
219.069	9.91
219.534	9.48
219.998	9.16
220.463	8.93
220.927	8.61
221.392	8.42
221.856	8.28
222.32	8.15
222.785	8.01
223.249	7.86
223.713	7.73
224.177	7.62
224.642	7.51
225.106	7.37
225.57	7.25
226.034	7.18
226.497	7.1
226.961	6.99
227.425	6.9
227.889	6.81
228.353	6.72
228.816	6.65
229.28	6.57
229.744	6.49
230.207	6.42
230.671	6.35
231.134	6.28
231.597	6.22
232.061	6.16
232.524	6.1
232.987	6.04
233.45	6
233.914	5.94
234.377	5.89
234.84	5.83
235.303	5.81
235.766	5.77
236.229	5.72
236.691	5.66
237.154	5.62
237.617	5.58
238.08	5.55
238.542	5.49
239.005	5.46
239.468	5.41
239.93	5.36
240.393	5.33
240.855	5.27
241.317	5.24
241.78	5.2
242.242	5.15
242.704	5.12
243.166	5.07
243.629	5.05
244.091	5
244.553	4.97
245.015	4.94
245.477	4.89
245.939	4.86
246.4	4.82
246.862	4.79
247.324	4.76
247.786	4.73
248.247	4.69
248.709	4.66
249.17	4.62
249.632	4.6
250.093	4.6
250.555	4.57
251.016	4.54
251.477	4.51
251.939	4.5
252.4	4.47
252.861	4.46
253.322	4.44
253.783	4.43
254.244	4.42
254.705	4.39
255.166	4.37
255.627	4.36
256.088	4.34
256.549	4.33
257.009	4.31
257.47	4.29
257.931	4.27
258.391	4.25
258.852	4.23
259.312	4.21
259.773	4.19
260.233	4.18
260.694	4.16
261.154	4.15
261.614	4.13
262.074	4.12
262.534	4.11
262.994	4.1
263.455	4.09
263.915	4.07
264.374	4.06
264.834	4.05
265.294	4.04
265.754	4.03
266.214	4.02
266.673	4.01
267.133	4
267.593	3.99
268.052	3.99
268.512	3.99
268.971	3.98
269.431	3.98
269.89	3.97
270.349	3.96
270.809	3.95
271.268	3.95
271.727	3.94
272.186	3.93
272.645	3.92
273.104	3.91
273.563	3.9
274.022	3.89
274.481	3.89
274.94	3.88
275.399	3.87
275.857	3.85
276.316	3.84
276.775	3.84
277.233	3.83
277.692	3.82
278.15	3.81
278.609	3.8
279.067	3.79
279.525	3.78
279.984	3.77
280.442	3.76
280.9	3.76
281.358	3.75
281.816	3.74
282.274	3.73
282.732	3.72
283.19	3.71
283.648	3.69
284.106	3.68
284.564	3.67
285.021	3.66
285.479	3.66
285.937	3.64
286.394	3.64
286.852	3.63
287.309	3.62
287.767	3.61
288.224	3.6
288.682	3.59
289.139	3.58
289.596	3.57
290.053	3.56
290.511	3.55
290.968	3.55
291.425	3.54
291.882	3.53
292.339	3.52
292.796	3.52
293.252	3.51
293.709	3.51
294.166	3.5
294.623	3.5
295.079	3.49
295.536	3.49
295.992	3.48
296.449	3.48
296.905	3.47
297.362	3.47
297.818	3.46
298.274	3.46
298.731	3.45
299.187	3.44
299.643	3.44
300.099	3.43
300.555	3.42
301.011	3.41
301.467	3.4
301.923	3.4
302.379	3.39
302.835	3.39
303.291	3.37
303.746	3.36
304.202	3.36
304.658	3.35
305.113	3.35
305.569	3.34
306.024	3.34
306.479	3.33
306.935	3.32
307.39	3.32
307.845	3.32
308.301	3.32
308.756	3.33
309.211	3.33
309.666	3.33
310.121	3.32
310.576	3.33
311.031	3.32
311.486	3.32
311.94	3.32
312.395	3.32
312.85	3.32
313.305	3.32
313.759	3.31
314.214	3.3
314.668	3.29
315.123	3.3
315.577	3.29
316.032	3.29
316.486	3.29
316.94	3.28
317.394	3.28
317.849	3.27
318.303	3.26
318.757	3.25
319.211	3.25
319.665	3.25
320.119	3.24
320.572	3.23
321.026	3.22
321.48	3.21
321.934	3.2
322.387	3.19
322.841	3.19
323.295	3.19
323.748	3.19
324.202	3.18
324.655	3.18
325.108	3.17
325.562	3.17
326.015	3.17
326.468	3.17
326.921	3.17
327.374	3.16
327.827	3.16
328.28	3.15
328.733	3.15
329.186	3.14
329.639	3.14
330.092	3.14
330.545	3.14
330.997	3.14
331.45	3.14
331.903	3.14
332.355	3.14
332.808	3.14
333.26	3.14
333.713	3.13
334.165	3.12
334.617	3.12
335.069	3.11
335.522	3.12
335.974	3.12
336.426	3.11
336.878	3.1
337.33	3.09
337.782	3.09
338.234	3.09
338.686	3.09
339.137	3.1
339.589	3.1
340.041	3.1
340.493	3.09
340.944	3.08
341.396	3.08
341.847	3.08
342.299	3.07
342.75	3.07
343.201	3.06
343.653	3.06
344.104	3.04
344.555	3.04
345.006	3.03
345.457	3.03
345.908	3.02
346.359	3.02
346.81	3.02
347.261	3.03
347.712	3.03
348.163	3.03
348.613	3.03
349.064	3.04
349.515	3.03
349.965	3.03
350.416	3.02
350.866	3.03
351.317	3.02
351.767	3.02
352.217	3.02
352.668	3.03
353.118	3.03
353.568	3.02
354.018	3.03
354.468	3.03
354.918	3.04
355.368	3.05
355.818	3.06
356.268	3.06
356.718	3.07
357.168	3.06
357.617	3.05
358.067	3.05
358.517	3.06
358.966	3.06
359.416	3.06
359.865	3.06
360.315	3.06
360.764	3.07
361.213	3.07
361.663	3.06
362.112	3.07
362.561	3.08
363.01	3.08
363.459	3.07
363.908	3.06
364.357	3.06
364.806	3.06
365.255	3.07
365.703	3.07
366.152	3.08
366.601	3.09
367.05	3.09
367.498	3.09
367.947	3.09
368.395	3.1
368.844	3.1
369.292	3.1
369.74	3.1
370.189	3.1
370.637	3.1
371.085	3.09
371.533	3.09
371.981	3.09
372.429	3.1
372.877	3.1
373.325	3.1
373.773	3.1
374.221	3.11
374.669	3.1
375.116	3.09
375.564	3.09
376.012	3.08
376.459	3.07
376.907	3.08
377.354	3.08
377.801	3.09
378.249	3.09
378.696	3.09
379.143	3.09
379.591	3.1
380.038	3.11
380.485	3.11
380.932	3.12
381.379	3.14
381.826	3.14
382.273	3.15
382.72	3.15
383.166	3.15
383.613	3.16
384.06	3.17
384.506	3.16
384.953	3.17
385.4	3.17
385.846	3.18
386.292	3.18
386.739	3.18
387.185	3.18
387.631	3.2
388.078	3.2
388.524	3.21
388.97	3.22
389.416	3.25
389.862	3.26
390.308	3.27
390.754	3.29
391.2	3.3
391.645	3.32
392.091	3.33
392.537	3.35
392.983	3.36
393.428	3.38
393.874	3.39
394.319	3.4
394.765	3.41
395.21	3.42
395.655	3.44
396.101	3.45
396.546	3.47
396.991	3.49
397.436	3.51
397.881	3.53
398.326	3.55
398.771	3.58
399.216	3.59
399.661	3.62
400.106	3.63
400.551	3.65
400.995	3.66
401.44	3.68
401.885	3.69
402.329	3.71
402.774	3.72
403.218	3.74
403.663	3.76
404.107	3.77
404.551	3.79
404.995	3.8
405.44	3.81
405.884	3.84
406.328	3.86
406.772	3.87
407.216	3.89
407.66	3.9
408.104	3.91
408.547	3.92
408.991	3.93
409.435	3.94
409.879	3.96
410.322	3.97
410.766	3.99
411.209	4
411.653	4.02
412.096	4.03
412.54	4.04
412.983	4.05
413.426	4.07
413.869	4.09
414.312	4.11
414.756	4.11
415.199	4.12
415.642	4.13
416.085	4.14
416.527	4.14
416.97	4.14
417.413	4.15
417.856	4.15
418.298	4.15
418.741	4.16
419.184	4.16
419.626	4.17
420.069	4.19
420.511	4.19
420.953	4.2
421.396	4.21
421.838	4.22
422.28	4.23
422.722	4.25
423.164	4.25
423.606	4.25
424.048	4.26
424.49	4.27
424.932	4.25
425.374	4.23
425.816	4.22
426.258	4.22
426.699	4.21
427.141	4.21
427.582	4.21
428.024	4.2
428.465	4.2
428.907	4.19
429.348	4.18
429.789	4.18
430.231	4.2
430.672	4.21
431.113	4.22
431.554	4.22
431.995	4.23
432.436	4.24
432.877	4.24
433.318	4.26
433.759	4.28
434.2	4.29
434.64	4.3
435.081	4.3
435.522	4.31
435.962	4.33
436.403	4.34
436.843	4.34
437.284	4.34
437.724	4.36
438.164	4.35
438.604	4.34
439.045	4.35
439.485	4.35
439.925	4.36
440.365	4.38
440.805	4.37
441.245	4.39
441.685	4.41
442.125	4.42
442.564	4.41
443.004	4.42
443.444	4.43
443.883	4.44
444.323	4.44
444.762	4.44
445.202	4.42
445.641	4.44
446.081	4.44
446.52	4.44
446.959	4.44
447.398	4.46
447.837	4.46
448.276	4.46
448.716	4.48
449.154	4.49
449.593	4.5
450.032	4.5
450.471	4.49
450.91	4.49
451.349	4.51
451.787	4.5
452.226	4.49
452.664	4.49
453.103	4.5
453.541	4.5
453.98	4.51
454.418	4.49
454.856	4.5
455.295	4.49
455.733	4.48
456.171	4.48
456.609	4.48
457.047	4.48
457.485	4.47
457.923	4.48
458.361	4.47
458.798	4.46
459.236	4.48
459.674	4.46
460.111	4.47
460.549	4.49
460.987	4.49
461.424	4.49
461.862	4.49
462.299	4.5
462.736	4.5
463.173	4.51
463.611	4.51
464.048	4.52
464.485	4.52
464.922	4.52
465.359	4.52
465.796	4.53
466.233	4.53
466.67	4.54
467.106	4.55
467.543	4.55
467.98	4.55
468.416	4.55
468.853	4.54
469.29	4.55
469.726	4.55
470.162	4.54
470.599	4.54
471.035	4.53
471.471	4.5
471.907	4.5
472.344	4.51
472.78	4.51
473.216	4.49
473.652	4.5
474.088	4.49
474.523	4.5
474.959	4.5
475.395	4.48
475.831	4.49
476.266	4.51
476.702	4.49
477.138	4.48
477.573	4.48
478.008	4.49
478.444	4.48
478.879	4.49
479.314	4.48
479.75	4.48
480.185	4.47
480.62	4.46
481.055	4.45
481.49	4.46
481.925	4.46
482.36	4.46
482.795	4.45
483.229	4.45
483.664	4.45
484.099	4.46
484.534	4.47
484.968	4.48
485.403	4.49
485.837	4.5
486.271	4.52
486.706	4.52
487.14	4.53
487.574	4.55
488.009	4.56
488.443	4.57
488.877	4.58
489.311	4.61
489.745	4.62
490.179	4.64
490.613	4.66
491.046	4.68
491.48	4.72
491.914	4.76
492.348	4.79
492.781	4.82
493.215	4.86
493.648	4.9
494.082	4.93
494.515	4.97
494.948	5.01
495.382	5.05
495.815	5.09
496.248	5.15
496.681	5.19
497.114	5.24
497.547	5.28
497.98	5.34
498.413	5.39
498.846	5.45
499.279	5.52
499.711	5.58
500.144	5.65
500.577	5.72
501.009	5.77
501.442	5.86
501.874	5.94
502.306	6.02
502.739	6.11
503.171	6.2
503.603	6.3
504.036	6.4
504.468	6.51
504.9	6.6
505.332	6.71
505.764	6.83
506.196	6.94
506.627	7.05
507.059	7.18
507.491	7.29
507.923	7.42
508.354	7.56
508.786	7.69
509.217	7.83
509.649	7.97
510.08	8.12
510.512	8.27
510.943	8.41
511.374	8.56
511.805	8.71
512.237	8.86
512.668	9.02
513.099	9.17
513.53	9.32
513.961	9.48
514.391	9.64
514.822	9.81
515.253	9.96
515.684	10.13
516.114	10.31
516.545	10.48
516.975	10.66
517.406	10.84
517.836	11.01
518.267	11.19
518.697	11.36
519.127	11.52
519.558	11.7
519.988	11.88
520.418	12.04
520.848	12.2
521.278	12.36
521.708	12.54
522.138	12.68
522.567	12.82
522.997	12.95
523.427	13.1
523.857	13.25
524.286	13.38
524.716	13.52
525.145	13.65
525.575	13.77
526.004	13.9
526.433	14
526.863	14.11
527.292	14.23
527.721	14.34
528.15	14.43
528.579	14.52
529.008	14.61
529.437	14.68
529.866	14.75
530.295	14.83
530.724	14.89
531.152	14.96
531.581	15.04
532.01	15.11
532.438	15.18
532.867	15.23
533.295	15.29
533.723	15.33
534.152	15.37
534.58	15.42
535.008	15.45
535.436	15.5
535.865	15.52
536.293	15.54
536.721	15.56
537.149	15.59
537.576	15.62
538.004	15.65
538.432	15.68
538.86	15.69
539.287	15.71
539.715	15.76
540.143	15.78
540.57	15.8
540.998	15.83
541.425	15.86
541.852	15.88
542.28	15.89
542.707	15.92
543.134	15.94
543.561	15.97
543.988	15.99
544.415	15.99
544.842	16
545.269	16.03
545.696	16.03
546.123	16.04
546.549	16.05
546.976	16.07
547.403	16.08
547.829	16.09
548.256	16.11
548.682	16.11
549.108	16.14
549.535	16.13
549.961	16.13
550.387	16.13
550.813	16.14
551.24	16.13
551.666	16.13
552.092	16.12
552.518	16.1
552.943	16.09
553.369	16.09
553.795	16.05
554.221	16.04
554.646	16.01
555.072	15.99
555.498	15.95
555.923	15.93
556.349	15.87
556.774	15.82
557.199	15.78
557.625	15.72
558.05	15.67
558.475	15.62
558.9	15.57
559.325	15.53
559.75	15.47
560.175	15.41
560.6	15.35
561.025	15.29
561.449	15.24
561.874	15.17
562.299	15.11
562.723	15.04
563.148	14.98
563.572	14.89
563.997	14.81
564.421	14.72
564.846	14.65
565.27	14.56
565.694	14.48
566.118	14.38
566.542	14.31
566.966	14.2
567.39	14.12
567.814	14.05
568.238	13.96
568.662	13.87
569.086	13.79
569.509	13.7
569.933	13.62
570.357	13.54
570.78	13.45
571.204	13.35
571.627	13.27
572.05	13.19
572.474	13.1
572.897	13.03
573.32	12.95
573.743	12.89
574.166	12.8
574.589	12.72
575.012	12.64
575.435	12.59
575.858	12.53
576.281	12.47
576.704	12.4
577.126	12.34
577.549	12.28
577.972	12.22
578.394	12.16
578.817	12.1
579.239	12.05
579.661	12
580.084	11.96
580.506	11.91
580.928	11.87
581.35	11.81
581.772	11.76
582.194	11.71
582.616	11.67
583.038	11.63
583.46	11.58
583.882	11.53
584.303	11.48
584.725	11.43
585.147	11.38
585.568	11.34
585.99	11.3
586.411	11.26
586.833	11.22
587.254	11.17
587.675	11.13
588.096	11.09
588.518	11.05
588.939	11.03
589.36	11
589.781	10.97
590.202	10.94
590.623	10.92
591.043	10.88
591.464	10.86
591.885	10.84
592.305	10.82
592.726	10.8
593.147	10.78
593.567	10.75
593.987	10.72
594.408	10.7
594.828	10.67
595.248	10.65
595.669	10.64
596.089	10.62
596.509	10.6
596.929	10.58
597.349	10.55
597.769	10.54
598.189	10.51
598.608	10.5
599.028	10.48
599.448	10.46
599.867	10.44
600.287	10.41
600.706	10.38
601.126	10.36
601.545	10.34
601.965	10.32
602.384	10.3
602.803	10.26
603.222	10.22
603.641	10.18
604.061	10.15
604.48	10.12
604.898	10.08
605.317	10.04
605.736	10
606.155	9.96
606.574	9.91
606.992	9.86
607.411	9.83
607.829	9.77
608.248	9.72
608.666	9.69
609.085	9.65
609.503	9.61
609.921	9.57
610.339	9.53
610.758	9.49
611.176	9.44
611.594	9.4
612.012	9.35
612.43	9.33
612.847	9.29
613.265	9.24
613.683	9.2
614.101	9.17
614.518	9.13
614.936	9.09
615.353	9.04
615.771	9.01
616.188	8.98
616.606	8.96
617.023	8.93
617.44	8.9
617.857	8.87
618.274	8.84
618.691	8.81
619.108	8.78
619.525	8.75
619.942	8.74
620.359	8.72
620.776	8.7
621.192	8.67
621.609	8.66
622.026	8.64
622.442	8.62
622.859	8.61
623.275	8.59
623.691	8.57
624.108	8.56
624.524	8.55
624.94	8.54
625.356	8.53
625.772	8.52
626.188	8.51
626.604	8.49
627.02	8.49
627.436	8.49
627.852	8.47
628.268	8.47
628.683	8.47
629.099	8.46
629.514	8.45
629.93	8.43
630.345	8.41
630.761	8.4
631.176	8.39
631.591	8.36
632.007	8.34
632.422	8.32
632.837	8.28
633.252	8.24
633.667	8.2
634.082	8.16
634.497	8.11
634.911	8.06
635.326	8.01
635.741	7.95
636.155	7.89
636.57	7.82
636.984	7.75
637.399	7.68
637.813	7.62
638.228	7.55
638.642	7.47
639.056	7.4
639.47	7.33
639.884	7.25
640.298	7.17
640.712	7.1
641.126	7.03
641.54	6.96
641.954	6.88
642.368	6.81
642.781	6.75
643.195	6.69
643.609	6.63
644.022	6.56
644.436	6.5
644.849	6.44
645.262	6.38
645.676	6.32
646.089	6.28
646.502	6.24
646.915	6.2
647.328	6.16
647.741	6.12
648.154	6.08
648.567	6.07
648.98	6.04
649.393	6.02
649.805	5.99
650.218	5.98
650.631	5.96
651.043	5.94
651.456	5.91
651.868	5.89
652.28	5.88
652.693	5.87
653.105	5.84
653.517	5.82
653.929	5.81
654.341	5.78
654.753	5.76
655.165	5.73
655.577	5.71
655.989	5.68
656.401	5.66
656.813	5.63
657.224	5.58
657.636	5.53
658.047	5.5
658.459	5.46
658.87	5.42
659.282	5.37
659.693	5.34
660.104	5.3
660.515	5.25
660.926	5.21
661.338	5.17
661.749	5.14
662.159	5.11
662.57	5.09
662.981	5.06
663.392	5.03
663.803	5.01
664.213	4.97
664.624	4.94
665.035	4.92
665.445	4.9
665.855	4.88
666.266	4.87
666.676	4.86
667.086	4.83
667.497	4.81
667.907	4.8
668.317	4.79
668.727	4.79
669.137	4.78
669.547	4.78
669.956	4.78
670.366	4.78
670.776	4.78
671.186	4.78
671.595	4.8
672.005	4.8
672.414	4.81
672.824	4.82
673.233	4.84
673.642	4.86
674.052	4.87
674.461	4.88
674.87	4.89
675.279	4.92
675.688	4.94
676.097	4.96
676.506	4.99
676.915	5.01
677.323	5.03
677.732	5.05
678.141	5.08
678.549	5.11
678.958	5.16
679.366	5.2
679.775	5.23
680.183	5.29
680.592	5.34
681	5.4
681.408	5.46
681.816	5.53
682.224	5.61
682.632	5.68
683.04	5.76
683.448	5.84
683.856	5.93
684.264	6.04
684.671	6.14
685.079	6.25
685.487	6.37
685.894	6.52
686.302	6.68
686.709	6.84
687.116	7.02
687.524	7.21
687.931	7.41
688.338	7.63
688.745	7.87
689.152	8.12
689.559	8.39
689.966	8.67
690.373	8.95
690.78	9.24
691.187	9.54
691.593	9.86
692	10.2
692.407	10.52
692.813	10.85
693.22	11.18
693.626	11.52
694.032	11.86
694.439	12.2
694.845	12.55
695.251	12.9
695.657	13.23
696.063	13.56
696.469	13.9
696.875	14.24
697.281	14.59
697.687	14.93
698.093	15.26
698.498	15.57
698.904	15.89
699.31	16.2
699.715	16.51
700.12	16.83
700.526	17.13
700.931	17.42
701.337	17.71
701.742	18
702.147	18.25
702.552	18.54
702.957	18.81
703.362	19.06
703.767	19.31
704.172	19.55
704.577	19.8
704.981	20.05
705.386	20.28
705.791	20.52
706.195	20.74
706.6	21
707.004	21.2
707.408	21.43
707.813	21.67
708.217	21.89
708.621	22.09
709.025	22.29
709.43	22.48
709.834	22.68
710.237	22.87
710.641	23.05
711.045	23.23
711.449	23.43
711.853	23.63
712.256	23.8
712.66	23.97
713.064	24.15
713.467	24.31
713.87	24.48
714.274	24.65
714.677	24.83
715.08	24.99
715.484	25.15
715.887	25.31
716.29	25.44
716.693	25.59
717.096	25.74
717.499	25.9
717.901	26.07
718.304	26.22
718.707	26.37
719.109	26.49
719.512	26.61
719.915	26.75
720.317	26.84
720.719	26.95
721.122	27.06
721.524	27.17
721.926	27.27
722.328	27.38
722.731	27.47
723.133	27.56
723.535	27.66
723.937	27.76
724.338	27.85
724.74	27.95
725.142	28.09
725.544	28.14
725.945	28.24
726.347	28.3
726.748	28.36
727.15	28.41
727.551	28.5
727.952	28.56
728.354	28.61
728.755	28.67
729.156	28.72
729.557	28.74
729.958	28.82
730.359	28.86
730.76	28.93
731.161	28.98
731.562	29.06
731.962	29.09
732.363	29.16
732.763	29.21
733.164	29.25
733.564	29.31
733.965	29.35
734.365	29.41
734.766	29.46
735.166	29.52
735.566	29.54
735.966	29.58
736.366	29.61
736.766	29.63
737.166	29.67
737.566	29.71
737.966	29.73
738.365	29.74
738.765	29.76
739.165	29.79
739.564	29.79
739.964	29.82
740.363	29.83
740.763	29.83
741.162	29.84
741.561	29.85
741.96	29.86
742.36	29.87
742.759	29.89
743.158	29.9
743.557	29.91
743.955	29.93
744.354	29.95
744.753	29.98
745.152	30.02
745.55	30.06
745.949	30.07
746.348	30.08
746.746	30.08
747.144	30.1
747.543	30.09
747.941	30.11
748.339	30.13
748.737	30.13
749.136	30.12
749.534	30.12
749.932	30.11
750.33	30.12
750.727	30.15
751.125	30.15
751.523	30.16
751.921	30.16
752.318	30.15
752.716	30.16
753.113	30.17
753.511	30.16
753.908	30.18
754.305	30.18
754.703	30.17
755.1	30.16
755.497	30.16
755.894	30.12
756.291	30.11
756.688	30.07
757.085	30.05
757.482	30.03
757.878	30
758.275	29.97
758.672	29.95
759.068	29.94
759.465	29.92
759.861	29.89
760.258	29.91
760.654	29.93
761.05	29.96
761.447	29.98
761.843	29.97
762.239	29.98
762.635	30
763.031	30
763.427	30.01
763.822	30.04
764.218	30.07
764.614	30.07
765.01	30.07
765.405	30.06
765.801	30.05
766.196	30.07
766.592	30.1
766.987	30.11
767.382	30.11
767.778	30.12
768.173	30.12
768.568	30.11
768.963	30.09
769.358	30.09
769.753	30.09
770.148	30.1
770.542	30.11
770.937	30.09
771.332	30.1
771.726	30.11
772.121	30.1
772.515	30.1
772.91	30.1
773.304	30.12
773.699	30.12
774.093	30.13
774.487	30.13
774.881	30.13
775.275	30.12
775.669	30.1
776.063	30.07
776.457	30.08
776.851	30.07
777.245	30.07
777.638	30.06
778.032	30.08
778.425	30.11
778.819	30.11
779.212	30.11
779.606	30.12
779.999	30.15
780.392	30.18
780.786	30.17
781.179	30.2
781.572	30.21
781.965	30.23
782.358	30.2
782.751	30.17
783.143	30.17
783.536	30.16
783.929	30.16
784.322	30.13
784.714	30.12
785.107	30.12
785.499	30.1
785.891	30.09
786.284	30.08
786.676	30.1
787.068	30.09
787.46	30.07
787.852	30.06
788.245	30.06
788.636	30.06
789.028	30.05
789.42	30.05
789.812	30.05
790.204	30.05
790.595	30.06
790.987	30.07
791.378	30.09
791.77	30.12
792.161	30.13
792.553	30.12
792.944	30.11
793.335	30.12
793.726	30.11
794.117	30.1
794.508	30.08
794.899	30.07
795.29	30.04
795.681	30.02
796.072	30.02
796.463	30.01
796.853	30.01
797.244	30.04
797.634	30.03
798.025	30.05
798.415	30.05
798.806	30.04
799.196	30.04
799.586	30.06
799.976	30.08
800.366	30.06
800.756	30.07
801.146	30.07
801.536	30.09
801.926	30.08
802.316	30.06
802.706	30.08
803.095	30.08
803.485	30.08
803.874	30.05
804.264	30.04
804.653	30.04
805.043	30.01
805.432	30
805.821	29.96
806.21	29.98
806.599	30
806.988	29.98
807.377	29.97
807.766	29.94
808.155	29.93
808.544	29.94
808.933	29.94
809.321	29.94
809.71	29.95
810.098	29.95
810.487	29.93
810.875	29.92
811.264	29.91
811.652	29.93
812.04	29.94
812.428	29.94
812.816	29.9
813.204	29.87
813.592	29.86
813.98	29.85
814.368	29.84
814.756	29.82
815.144	29.79
815.531	29.79
815.919	29.77
816.306	29.78
816.694	29.77
817.081	29.79
817.469	29.82
817.856	29.81
818.243	29.8
818.63	29.78
819.017	29.78
819.404	29.77
819.791	29.79
820.178	29.79
820.565	29.78
820.952	29.77
821.339	29.77
821.725	29.75
822.112	29.77
822.498	29.78
822.885	29.78
823.271	29.79
823.657	29.78
824.044	29.77
824.43	29.76
824.816	29.76
825.202	29.76
825.588	29.75
825.974	29.76
826.36	29.74
826.746	29.73
827.132	29.74
827.517	29.74
827.903	29.77
828.289	29.77
828.674	29.76
829.06	29.75
829.445	29.74
829.83	29.75
830.216	29.75
830.601	29.77
830.986	29.76
831.371	29.77
831.756	29.78
832.141	29.78
832.526	29.78
832.911	29.79
833.295	29.81
833.68	29.83
834.065	29.84
834.449	29.82
834.834	29.8
835.218	29.82
835.603	29.81
835.987	29.79
836.371	29.79
836.755	29.78
837.139	29.78
837.524	29.77
837.908	29.78
838.291	29.79
838.675	29.8
839.059	29.81
839.443	29.8
839.827	29.8
840.21	29.81
840.594	29.8
840.977	29.82
841.361	29.81
841.744	29.8
842.127	29.78
842.511	29.75
842.894	29.73
843.277	29.71
843.66	29.71
844.043	29.71
844.426	29.71
844.809	29.72
845.191	29.73
845.574	29.73
845.957	29.74
846.339	29.74
846.722	29.77
847.104	29.79
847.487	29.81
847.869	29.8
848.252	29.8
848.634	29.8
849.016	29.8
849.398	29.8
849.78	29.8
850.162	29.79
850.544	29.79
850.926	29.79
851.307	29.78
851.689	29.78
852.071	29.8
852.452	29.82
852.834	29.81
853.215	29.81
853.597	29.81
853.978	29.81
854.359	29.81
854.741	29.81
855.122	29.79
855.503	29.79
855.884	29.79
856.265	29.79
856.646	29.78
857.026	29.77
857.407	29.77
857.788	29.76
858.169	29.77
858.549	29.77
858.93	29.77
859.31	29.77
859.69	29.78
860.071	29.79
860.451	29.78
860.831	29.77
861.211	29.76
861.591	29.75
861.971	29.74
862.351	29.74
862.731	29.75
863.111	29.74
863.491	29.74
863.87	29.74
864.25	29.7
864.629	29.71
865.009	29.71
865.388	29.73
865.768	29.74
866.147	29.74
866.526	29.74
866.905	29.73
867.284	29.74
867.663	29.75
868.042	29.74
868.421	29.77
868.8	29.77
869.179	29.78
869.558	29.78
869.936	29.78
870.315	29.79
870.693	29.77
871.072	29.78
871.45	29.78
871.828	29.78
872.207	29.81
872.585	29.81
872.963	29.81
873.341	29.81
873.719	29.81
874.097	29.79
874.475	29.8
874.853	29.83
875.23	29.85
875.608	29.83
875.986	29.84
876.363	29.82
876.741	29.81
877.118	29.81
877.495	29.82
877.873	29.82
878.25	29.85
878.627	29.87
879.004	29.87
879.381	29.85
879.758	29.85
880.135	29.84
880.512	29.84
880.889	29.87
881.265	29.86
881.642	29.85
882.019	29.85
882.395	29.83
882.772	29.81
883.148	29.79
883.524	29.79
883.901	29.81
884.277	29.82
884.653	29.82
885.029	29.79
885.405	29.82
885.781	29.81
886.157	29.82
886.532	29.84
886.908	29.82
887.284	29.83
887.659	29.82
888.035	29.8
888.411	29.79
888.786	29.8
889.161	29.79
889.537	29.77
889.912	29.78
890.287	29.77
890.662	29.77
891.037	29.78
891.412	29.76
891.787	29.74
892.162	29.75
892.536	29.75
892.911	29.75
893.286	29.76
893.66	29.76
894.035	29.76
894.409	29.76
894.784	29.75
895.158	29.74
895.532	29.76
895.906	29.76
896.281	29.76
896.655	29.76
897.029	29.77
897.402	29.75
897.776	29.76
898.15	29.75
898.524	29.76
898.898	29.74
899.271	29.74
899.645	29.75
900.018	29.77
900.392	29.77
900.765	29.79
901.138	29.77
901.511	29.78
901.884	29.78
902.258	29.78
902.631	29.77
903.003	29.78
903.376	29.78
903.749	29.76
904.122	29.76
904.495	29.76
904.867	29.74
905.24	29.74
905.612	29.74
905.985	29.73
906.357	29.72
906.729	29.74
907.102	29.73
907.474	29.73
907.846	29.73
908.218	29.71
908.59	29.71
908.962	29.71
909.334	29.72
909.705	29.71
910.077	29.72
910.449	29.72
910.82	29.71
911.192	29.71
911.563	29.71
911.935	29.69
912.306	29.69
912.677	29.69
913.048	29.71
913.419	29.7
913.79	29.69
914.161	29.68
914.532	29.68
914.903	29.67
915.274	29.67
915.645	29.67
916.015	29.69
916.386	29.68
916.756	29.69
917.127	29.68
917.497	29.69
917.868	29.7
918.238	29.71
918.608	29.71
918.978	29.72
919.348	29.75
919.718	29.74
920.088	29.75
920.458	29.76
920.828	29.73
921.198	29.74
921.567	29.74
921.937	29.76
922.306	29.74
922.676	29.72
923.045	29.72
923.415	29.7
923.784	29.71
924.153	29.71
924.522	29.73
924.891	29.75
925.26	29.74
925.629	29.73
925.998	29.7
926.367	29.71
926.736	29.7
927.104	29.7
927.473	29.7
927.842	29.69
928.21	29.69
928.578	29.66
928.947	29.65
929.315	29.65
929.683	29.66
930.051	29.64
930.42	29.66
930.788	29.65
931.156	29.66
931.523	29.65
931.891	29.7
932.259	29.7
932.627	29.72
932.994	29.72
933.362	29.69
933.729	29.69
934.097	29.69
934.464	29.69
934.831	29.71
935.199	29.71
935.566	29.7
935.933	29.68
936.3	29.68
936.667	29.65
937.034	29.68
937.401	29.71
937.767	29.72
938.134	29.77
938.501	29.74
938.867	29.72
939.234	29.72
939.6	29.74
939.967	29.69
940.333	29.68
940.699	29.73
941.065	29.66
941.431	29.66
941.798	29.63
942.163	29.58
942.529	29.62
942.895	29.66
943.261	29.62
943.627	29.59
943.992	29.57
944.358	29.6
944.723	29.55
945.089	29.52
945.454	29.53
945.82	29.52
946.185	29.49
946.55	29.43
946.915	29.43
947.28	29.46
947.645	29.47
948.01	29.49
948.375	29.45
948.74	29.46
949.104	29.52
949.469	29.51
949.834	29.5
950.198	29.53
950.562	29.52
950.927	29.46
951.291	29.39
951.655	29.35
952.02	29.34
952.384	29.26
952.748	29.25
953.112	29.17
953.476	29.13
953.839	29.09
954.203	29.05
954.567	29.07
954.931	29.04
955.294	29.05
955.658	29.11
956.021	29.09
956.385	29.12
956.748	29.1
957.111	29.13
957.474	29.14
957.837	29.12
958.2	29.09
958.563	29.08
958.926	29.11
959.289	29.11
959.652	29.03
960.015	29.02
960.377	29.02
960.74	29.01
961.102	29
961.465	29.01
961.827	29.08
962.189	29.08
962.552	29.06
962.914	29.07
963.276	29.07
963.638	29.08
964	29.07
964.362	29.09
964.724	29.11
965.085	29.11
965.447	29.08
965.809	29.06
966.17	29.1
966.532	29.1
966.893	29.09
967.255	29.07
967.616	29.06
967.977	29.08
968.338	29.08
968.699	29.03
969.061	29.04
969.421	29.03
969.782	29
970.143	28.97
970.504	29
970.865	28.97
971.225	28.97
971.586	28.96
971.946	28.9
972.307	28.88
972.667	28.86
973.027	28.88
973.388	28.96
973.748	28.97
974.108	29.01
974.468	28.99
974.828	29.03
975.188	29.03
975.548	29.04
975.907	29.1
976.267	29.12
976.627	29.16
976.986	29.14
977.346	29.08
977.705	29.09
978.064	29.08
978.424	29.12
978.783	29.1
979.142	29.07
979.501	29.07
979.86	29.08
980.219	29.08
980.578	29.11
980.937	29.11
981.296	29.11
981.654	29.09
982.013	29.06
982.371	29.02
982.73	29.04
983.088	29.03
983.447	29.04
983.805	29
984.163	28.99
984.521	28.96
984.879	28.89
985.237	28.91
985.595	29
985.953	28.93
986.311	28.88
986.669	28.99
987.026	29.1
987.384	29.14
987.741	29.1
988.099	29.11
988.456	29.04
988.814	29.05
989.171	29.02
989.528	29.01
989.885	29.09
990.242	29.11
990.599	29.03
990.956	29.03
991.313	28.99
991.67	29.05
992.027	29.09
992.383	29.2
992.74	29.27
993.096	29.28
993.453	29.22
993.809	29.26
994.165	29.33
994.522	29.34
994.878	29.32
995.234	29.36
995.59	29.32
995.946	29.3
996.302	29.28
996.658	29.28
997.013	29.25
997.369	29.24
997.725	29.25
998.08	29.28
998.436	29.24
998.791	29.26
999.147	29.26
999.502	29.31
999.857	29.22
1000.212	29.14
1000.567	29.11
1000.922	29.2
1001.277	29.17
1001.632	29.06
1001.987	28.99
1002.342	28.93
1002.696	28.77
1003.051	28.74
1003.406	28.74
1003.76	28.82
1004.114	28.91
1004.469	28.96
1004.823	29.11
1005.177	29.19
1005.531	29.25
1005.885	29.28
1006.239	29.39
1006.593	29.56
1006.947	29.5
1007.301	29.46
1007.655	29.43
1008.008	29.41
1008.362	29.39
1008.715	29.21
1009.069	29.24
1009.422	29.2
1009.776	29.1
1010.129	29.06
1010.482	29
1010.835	29.02
1011.188	29.16
1011.541	29.27
1011.894	29.28
1012.247	29.26
1012.6	29.16
1012.952	29.07
1013.305	29.11
1013.657	29.35
1014.01	29.29
1014.362	29.35
1014.715	29.51
1015.067	29.44
1015.419	29.52
1015.771	29.49
1016.123	29.5
1016.475	29.59
1016.827	29.61
1017.179	29.73
1017.531	29.61
1017.883	29.66
1018.234	29.7
1018.586	29.72
1018.938	29.8
1019.289	29.52
1019.64	29.43
1019.992	29.48
1020.343	29.5
1020.694	29.55
1021.045	29.42
1021.396	29.5
1021.747	29.67
1022.098	29.73
1022.449	29.69
1022.8	29.66
1023.151	29.66
1023.501	29.94
1023.852	30.01
1024.202	29.98
1024.553	29.98
1024.903	30.27
1025.253	30.22
1025.604	30.18
1025.954	29.78
1026.304	29.93
1026.654	29.77
1027.004	29.9
1027.354	29.86
1027.703	29.68
1028.053	29.7
1028.403	30.02
1028.753	29.42
1029.102	29.53
1029.452	29.51
1029.801	29.94
1030.15	29.71
1030.499	29.87
897.758	606.42
901.051	613.43
904.343	608.58
907.636	619.32
910.928	602.13
914.22	605.7
917.511	599.14
920.803	569.82
924.094	567.99
927.384	551.5
930.675	531.06
933.965	531.02
937.255	498.73
940.544	481.03
943.834	457.53
947.123	453.9
950.411	426.25
953.7	419.81
956.988	401.12
960.276	384.4
963.563	377.55
966.851	366.76
970.138	361.88
973.424	351.57
976.711	350.76
979.997	334.4
983.283	332.67
986.568	326.42
989.853	316.74
993.138	309.53
996.423	298.87
999.708	292.18
1002.992	287.53
1006.275	274.04
1009.559	271.58
1012.842	264.21
1016.125	258.45
1019.408	254.27
1022.69	250.31
1025.972	244.84
1029.254	239.59
1032.536	235.44
1035.817	231.01
1039.098	228.48
1042.379	225.79
1045.659	223.7
1048.939	218.77
1052.219	213.63
1055.498	210.5
1058.778	205.76
1062.057	201.9
1065.335	200.48
1068.614	197.46
1071.892	195.15
1075.17	189.73
1078.447	186.85
1081.724	184.85
1085.001	183.04
1088.278	180.67
1091.554	176.9
1094.83	177.17
1098.106	175.25
1101.382	173.41
1104.657	172.85
1107.932	170.16
1111.206	170.47
1114.481	166.24
1117.755	165.72
1121.029	164.65
1124.302	163.67
1127.575	160.8
1130.848	159.4
1134.121	158.56
1137.393	157.67
1140.665	154.66
1143.937	153.86
1147.208	152.49
1150.48	151.96
1153.75	149.46
1157.021	147.97
1160.291	147.78
1163.561	146.18
1166.831	146.9
1170.101	145.35
1173.37	145.54
1176.639	145.98
1179.907	144.53
1183.176	143.46
1186.444	143.31
1189.711	142.6
1192.979	142.25
1196.246	141.84
1199.513	142.49
1202.78	140.66
1206.046	140.27
1209.312	139.71
1212.578	139.53
1215.843	140.38
1219.108	139.5
1222.373	141.73
1225.638	143.46
1228.902	144.42
1232.166	145.03
1235.43	145.51
1238.693	147.28
1241.956	148.3
1245.219	148.85
1248.482	149.62
1251.744	149.26
1255.006	150.24
1258.268	148.56
1261.529	147.06
1264.79	145.98
1268.051	144.62
1271.312	143.35
1274.572	142.25
1277.832	141.81
1281.092	139.12
1284.351	138.09
1287.61	138.72
1290.869	136.52
1294.128	135.22
1297.386	135.07
1300.644	134.41
1303.902	134.47
1307.159	134.54
1310.416	133.71
1313.673	132.83
1316.93	134.69
1320.186	134.14
1323.442	134.3
1326.697	136.47
1329.953	136.09
1333.208	136.16
1336.463	137.39
1339.717	137.66
1342.972	138.99
1346.226	140.39
1349.479	140.83
1352.733	141.72
1355.986	143.18
1359.238	142.44
1362.491	142.06
1365.743	143.36
1368.995	143.71
1372.247	143.45
1375.498	142.51
1378.749	142.99
1382	141.72
1385.251	141.6
1388.501	140.29
1391.751	139.09
1395	139.87
1398.25	139.12
1401.499	137.47
1404.748	136.7
1407.996	135.64
1411.244	135.63
1414.492	134.72
1417.74	132.71
1420.987	131.3
1424.234	130.8
1427.481	129.63
1430.728	128.15
1433.974	127.85
1437.22	127.4
1440.465	127.4
1443.711	125.64
1446.956	124.73
1450.201	123.16
1453.445	122.84
1456.689	122.32
1459.933	120.03
1463.177	119.3
1466.42	117.79
1469.663	115.57
1472.906	114.76
1476.148	111.43
1479.391	111.73
1482.633	111.09
1485.874	109.43
1489.115	108.14
1492.356	106.99
1495.597	106.86
1498.838	105.18
1502.078	104.61
1505.318	104.72
1508.557	104.35
1511.797	104.87
1515.036	102.84
1518.274	102.91
1521.513	102.54
1524.751	101.91
1527.989	101.96
1531.227	102.28
1534.464	102.31
1537.701	101.74
1540.938	101.18
1544.174	100.61
1547.41	100.5
1550.646	100.05
1553.882	99.78
1557.117	98.42
1560.352	98.62
1563.587	98.56
1566.821	97.78
1570.055	97.24
1573.289	96.99
1576.523	96.88
1579.756	96
1582.989	95.68
1586.222	95.31
1589.454	95.14
1592.686	96.21
1595.918	95.32
1599.15	94.56
1602.381	95.2
1605.612	95.03
1608.843	94.7
1612.073	94.8
1615.303	95.44
1618.533	95.36
1621.762	96.26
1624.992	95.93
1628.221	95.63
1631.449	95.43
1634.678	95.65
1637.906	95.73
1641.134	95.81
1644.361	96.03
1647.588	96.39
1650.815	96.23
1654.042	96.25
1657.269	96.1
1660.495	96.17
1663.72	96.25
1666.946	96.98
1670.171	97.16
1673.396	96.98
1676.621	97.5
1679.845	97.44
1683.069	97.74
1686.293	98.05
1689.517	98.21
1692.74	98.41
1695.963	98.57
1699.185	98.67
1702.408	98.93
1705.63	99.22
1708.852	99.79
1712.073	99.67
1715.294	99.93
1718.515	100.07
1721.736	100.24
1724.956	100.34
1728.176	100.59
1731.396	101.06
1734.616	101.46
1737.835	101.93
1741.054	101
1744.272	100.98
1747.491	101.52
1750.709	101.97
1753.927	101.55
1757.144	101.66
1760.361	102.05
1763.578	101.99
1766.795	101.74
1770.011	102.06
1773.227	101.75
1776.443	103.01
1779.658	102.71
1782.874	103.22
1786.089	103.03
1789.303	103.62
1792.518	103.77
1795.732	104.21
1798.945	105.12
1802.159	105.53
1805.372	105.83
1808.585	107.18
1811.797	107.24
1815.01	108.09
1818.222	108.33
1821.434	109.32
1824.645	109.22
1827.856	111.86
1831.067	111.54
1834.278	112.11
1837.488	112.85
1840.698	112.85
1843.908	112.27
1847.117	112.92
1850.326	113.35
1853.535	112.85
1856.744	114.32
1859.952	114.32
1863.16	112.66
1866.368	112.65
1869.575	112.39
1872.782	110.81
1875.989	110.45
1879.196	110.7
1882.402	109.63
1885.608	109.34
1888.814	109.19
1892.019	107.55
1895.224	107.52
1898.429	107.11
1901.634	106.86
1904.838	107.48
1908.042	108.39
1911.246	108.41
1914.449	108.21
1917.652	107.83
1920.855	108.05
1924.058	107.63
1927.26	107.69
1930.462	107.79
1933.664	108.33
1936.865	108.58
1940.066	107.32
1943.267	107.21
1946.467	107.43
1949.668	107.76
1952.868	109.69
1956.067	109.71
1959.267	109.85
1962.466	110.52
1965.665	110.21
1968.863	110.99
1972.061	111.86
1975.259	113.27
1978.457	113.82
1981.654	115.17
1984.852	115.35
1988.048	115.06
1991.245	115.92
1994.441	117.56
1997.637	118.83
2000.833	121.41
2004.028	122.45
2007.223	123.31
2010.418	124.45
2013.613	126.57
2016.807	128
2020.001	129.87
2023.194	131.56
2026.388	135.23
2029.581	138.1
2032.774	138.67
2035.966	140.71
2039.158	141.39
2042.35	144.84
2045.542	145.9
2048.733	147.14
2051.924	149.58
2055.115	152.05
2058.306	152.7
2061.496	152.76
2064.686	152.32
2067.875	154.59
2071.065	155.35
2074.254	155.1
2077.442	156.78
2080.631	156.67
2083.819	159.44
2087.007	159.37
2090.195	160.81
2093.382	162.48
2096.569	162.27
2099.756	166.28
2102.942	167.12
2106.128	168.08
2109.314	171.54
2112.5	170.81
2115.685	174.84
2118.87	175.15
2122.055	178.15
2125.239	179.37
2128.424	181.73
2131.608	183.1
2134.791	185.16
2137.974	185.99
2141.157	186.92
2144.34	187.3
2147.523	189.26
2150.705	188.55
2153.887	190.82
2157.068	191.14
2160.25	189.86
2163.431	190.32
2166.611	191.91
2169.792	196.4
2172.972	197.8
2176.152	199.02
2179.331	201.29
2182.511	205.01
2185.69	206.25
2188.868	209.49
2192.047	210.15
2195.225	215.86
2198.403	220.32
2201.58	225.37
2204.758	228.46
2207.935	233
2211.111	238.04
2214.288	241.21
2217.464	241.52
2220.64	247.08
2223.815	249.59
2226.991	259.27
2230.166	258.57
2233.34	262.95
2236.515	266.4
2239.689	265.65
2242.863	269
2246.036	275.7
2249.209	274.81
2252.382	280.01
2255.555	286.43
2258.727	288.17
2261.9	292.47
2265.071	296.53
2268.243	300.54
2271.414	303.69
2274.585	309.77
2277.756	312.34
2280.926	315.26
2284.096	321.75
2287.266	326.43
2290.436	329.51
2293.605	336.22
2296.774	341.18
2299.942	351.67
2303.111	356.78
2306.279	365.43
2309.447	368.21
2312.614	380.8
2315.781	389.45
2318.948	408.49
2322.115	403.91
2325.281	427.56
2328.447	417.12
2331.613	434.29
2334.779	429.83
2337.944	447.28
2341.109	447.64
2344.274	465.14
2347.438	475.43
2350.602	476.11
2353.766	489.49
2356.929	497.96
2360.092	492.87
2363.255	532.16
2366.418	532.8
2369.58	539.11
2372.742	570.09
2375.904	588.72
2379.066	582.07
2382.227	573.92
2385.388	617.06
2388.548	618.2
2391.709	626.41
2394.869	695.66
2398.029	665.49
2401.188	685.87
2404.347	685.71
2407.506	677.28
2410.665	691.51
2413.823	736.04
2416.981	777.61
2420.139	757
2423.296	749.18
2426.453	781.04
2429.61	747.36
2432.767	779.53
2435.923	769.19
2439.079	850.79
2442.235	861.93
2445.391	857.7
2448.546	847.26
2451.701	821.53
2454.855	825.48
2458.009	875.01
2461.163	908.91
2464.317	952.6
2467.471	978.21
2470.624	974.88
2473.777	942.05
2476.929	916.8
2480.082	890.15
2483.234	882.01
2486.385	933.01
2489.537	933.57
2492.688	963.57
2495.839	937.95
2498.989	914.35
2502.14	917.04
2505.29	923.78
2508.439	937.08
2511.589	933.79
2514.738	1018.89
2517.887	995.92
2521.035	1048.72
2524.183	1056.83
2527.331	1067.12
2530.479	1061.53
2533.627	1066.92
