Data from N_1_DEC_VA_2n_Splice17_12-30-12-372.txt Node
Date: Sat Mar 07 12:30:12 EST 2020
User: sa697716
Spectrometer: NQ5500242
Trigger mode: 0
Integration Time (sec): 1.450000E-1
Scans to average: 20
Nonlinearity correction enabled: false
Boxcar width: 5
Storing dark spectrum: false
XAxis mode: Wavelengths
Number of Pixels in Spectrum: 512
>>>>>Begin Spectral Data<<<<<
187.83	65.72
188.298	80.14
188.766	67.99
189.233	54.59
189.701	43.26
190.169	41.45
190.636	-9.86
191.104	-178.14
191.571	-452.69
192.039	-310.48
192.506	-826.08
192.974	196.66
193.441	198.45
193.908	53.78
194.375	-27.92
194.842	-48.93
195.31	-63.05
195.777	-248.61
196.244	-2.64
196.711	12.07
197.177	16.55
197.644	14.88
198.111	14.03
198.578	15.27
199.045	15.64
199.511	16.14
199.978	16.09
200.445	16.14
200.911	15.82
201.378	15.76
201.844	15.95
202.31	15.86
202.777	16.49
203.243	16.98
203.709	16.73
204.176	16.57
204.642	16.48
205.108	16.56
205.574	16.47
206.04	16.56
206.506	16.15
206.972	16.15
207.438	15.62
207.903	14.98
208.369	14.33
208.835	14.05
209.301	13.67
209.766	13.12
210.232	12.36
210.697	11.77
211.163	11.49
211.628	11.48
212.094	10.64
212.559	10.52
213.024	10.28
213.49	10.06
213.955	9.57
214.42	9.2
214.885	8.9
215.35	8.65
215.815	8.13
216.28	7.16
216.745	6.31
217.21	5.7
217.675	5.03
218.14	4.46
218.604	4
219.069	3.66
219.534	3.37
219.998	3.09
220.463	2.85
220.927	2.61
221.392	2.49
221.856	2.35
222.32	2.23
222.785	2.13
223.249	2.04
223.713	1.94
224.177	1.87
224.642	1.81
225.106	1.71
225.57	1.62
226.034	1.57
226.497	1.52
226.961	1.48
227.425	1.43
227.889	1.41
228.353	1.37
228.816	1.34
229.28	1.29
229.744	1.27
230.207	1.25
230.671	1.23
231.134	1.21
231.597	1.19
232.061	1.17
232.524	1.15
232.987	1.13
233.45	1.12
233.914	1.1
234.377	1.08
234.84	1.06
235.303	1.05
235.766	1.04
236.229	1.04
236.691	1.03
237.154	1.02
237.617	1.01
238.08	1
238.542	0.99
239.005	0.98
239.468	0.97
239.93	0.96
240.393	0.96
240.855	0.93
241.317	0.92
241.78	0.91
242.242	0.9
242.704	0.89
243.166	0.88
243.629	0.87
244.091	0.87
244.553	0.86
245.015	0.85
245.477	0.85
245.939	0.84
246.4	0.83
246.862	0.83
247.324	0.82
247.786	0.8
248.247	0.8
248.709	0.79
249.17	0.78
249.632	0.78
250.093	0.78
250.555	0.77
251.016	0.77
251.477	0.76
251.939	0.76
252.4	0.76
252.861	0.77
253.322	0.77
253.783	0.77
254.244	0.76
254.705	0.75
255.166	0.75
255.627	0.74
256.088	0.74
256.549	0.73
257.009	0.73
257.47	0.72
257.931	0.7
258.391	0.69
258.852	0.68
259.312	0.68
259.773	0.67
260.233	0.67
260.694	0.66
261.154	0.65
261.614	0.65
262.074	0.64
262.534	0.63
262.994	0.63
263.455	0.63
263.915	0.63
264.374	0.62
264.834	0.62
265.294	0.61
265.754	0.61
266.214	0.61
266.673	0.61
267.133	0.61
267.593	0.61
268.052	0.61
268.512	0.61
268.971	0.61
269.431	0.61
269.89	0.61
270.349	0.61
270.809	0.6
271.268	0.6
271.727	0.6
272.186	0.6
272.645	0.6
273.104	0.59
273.563	0.59
274.022	0.59
274.481	0.59
274.94	0.59
275.399	0.59
275.857	0.59
276.316	0.59
276.775	0.59
277.233	0.59
277.692	0.59
278.15	0.59
278.609	0.6
279.067	0.6
279.525	0.59
279.984	0.59
280.442	0.59
280.9	0.59
281.358	0.6
281.816	0.6
282.274	0.6
282.732	0.6
283.19	0.6
283.648	0.6
284.106	0.6
284.564	0.6
285.021	0.6
285.479	0.6
285.937	0.6
286.394	0.6
286.852	0.6
287.309	0.6
287.767	0.6
288.224	0.59
288.682	0.59
289.139	0.58
289.596	0.57
290.053	0.57
290.511	0.56
290.968	0.56
291.425	0.56
291.882	0.55
292.339	0.55
292.796	0.55
293.252	0.55
293.709	0.55
294.166	0.56
294.623	0.56
295.079	0.55
295.536	0.56
295.992	0.56
296.449	0.56
296.905	0.56
297.362	0.56
297.818	0.55
298.274	0.55
298.731	0.55
299.187	0.55
299.643	0.54
300.099	0.54
300.555	0.53
301.011	0.53
301.467	0.53
301.923	0.53
302.379	0.53
302.835	0.53
303.291	0.53
303.746	0.53
304.202	0.53
304.658	0.53
305.113	0.53
305.569	0.54
306.024	0.53
306.479	0.53
306.935	0.53
307.39	0.53
307.845	0.54
308.301	0.54
308.756	0.54
309.211	0.54
309.666	0.55
310.121	0.56
310.576	0.56
311.031	0.56
311.486	0.57
311.94	0.57
312.395	0.57
312.85	0.57
313.305	0.57
313.759	0.56
314.214	0.56
314.668	0.55
315.123	0.55
315.577	0.55
316.032	0.56
316.486	0.56
316.94	0.56
317.394	0.55
317.849	0.55
318.303	0.56
318.757	0.56
319.211	0.55
319.665	0.56
320.119	0.56
320.572	0.56
321.026	0.55
321.48	0.54
321.934	0.54
322.387	0.54
322.841	0.54
323.295	0.54
323.748	0.53
324.202	0.53
324.655	0.53
325.108	0.53
325.562	0.53
326.015	0.53
326.468	0.54
326.921	0.54
327.374	0.55
327.827	0.55
328.28	0.55
328.733	0.55
329.186	0.55
329.639	0.55
330.092	0.55
330.545	0.55
330.997	0.55
331.45	0.55
331.903	0.56
332.355	0.56
332.808	0.56
333.26	0.55
333.713	0.55
334.165	0.55
334.617	0.55
335.069	0.55
335.522	0.55
335.974	0.55
336.426	0.55
336.878	0.54
337.33	0.54
337.782	0.54
338.234	0.55
338.686	0.56
339.137	0.56
339.589	0.56
340.041	0.56
340.493	0.56
340.944	0.55
341.396	0.55
341.847	0.55
342.299	0.54
342.75	0.54
343.201	0.53
343.653	0.53
344.104	0.53
344.555	0.52
345.006	0.52
345.457	0.52
345.908	0.53
346.359	0.53
346.81	0.54
347.261	0.54
347.712	0.54
348.163	0.53
348.613	0.54
349.064	0.54
349.515	0.55
349.965	0.55
350.416	0.55
350.866	0.54
351.317	0.54
351.767	0.53
352.217	0.53
352.668	0.53
353.118	0.54
353.568	0.53
354.018	0.53
354.468	0.53
354.918	0.53
355.368	0.54
355.818	0.54
356.268	0.54
356.718	0.54
357.168	0.53
357.617	0.53
358.067	0.53
358.517	0.54
358.966	0.53
359.416	0.54
359.865	0.54
360.315	0.54
360.764	0.54
361.213	0.54
361.663	0.54
362.112	0.55
362.561	0.56
363.01	0.55
363.459	0.54
363.908	0.53
364.357	0.53
364.806	0.52
365.255	0.53
365.703	0.53
366.152	0.54
366.601	0.54
367.05	0.55
367.498	0.54
367.947	0.55
368.395	0.56
368.844	0.56
369.292	0.56
369.74	0.57
370.189	0.57
370.637	0.56
371.085	0.56
371.533	0.56
371.981	0.56
372.429	0.57
372.877	0.57
373.325	0.57
373.773	0.56
374.221	0.56
374.669	0.56
375.116	0.55
375.564	0.55
376.012	0.55
376.459	0.55
376.907	0.55
377.354	0.55
377.801	0.55
378.249	0.55
378.696	0.55
379.143	0.55
379.591	0.56
380.038	0.56
380.485	0.57
380.932	0.58
381.379	0.59
381.826	0.6
382.273	0.61
382.72	0.61
383.166	0.62
383.613	0.63
384.06	0.65
384.506	0.67
384.953	0.69
385.4	0.71
385.846	0.74
386.292	0.77
386.739	0.81
387.185	0.85
387.631	0.9
388.078	0.93
388.524	0.96
388.97	0.99
389.416	1.03
389.862	1.09
390.308	1.16
390.754	1.24
391.2	1.32
391.645	1.39
392.091	1.45
392.537	1.51
392.983	1.61
393.428	1.74
393.874	1.91
394.319	2.1
394.765	2.29
395.21	2.48
395.655	2.68
396.101	2.9
396.546	3.14
396.991	3.42
397.436	3.72
397.881	4.02
398.326	4.3
398.771	4.56
399.216	4.79
399.661	5.02
400.106	5.22
400.551	5.4
400.995	5.55
401.44	5.7
401.885	5.84
402.329	5.99
402.774	6.14
403.218	6.34
403.663	6.54
404.107	6.76
404.551	6.98
404.995	7.18
405.44	7.38
405.884	7.59
406.328	7.84
406.772	8.11
407.216	8.4
407.66	8.66
408.104	8.87
408.547	9.07
408.991	9.26
409.435	9.45
409.879	9.69
410.322	9.97
410.766	10.25
411.209	10.52
411.653	10.76
412.096	10.96
412.54	11.16
412.983	11.38
413.426	11.62
413.869	11.84
414.312	12.08
414.756	12.28
415.199	12.43
415.642	12.58
416.085	12.68
416.527	12.75
416.97	12.78
417.413	12.81
417.856	12.81
418.298	12.81
418.741	12.84
419.184	12.86
419.626	12.93
420.069	13.03
420.511	13.13
420.953	13.24
421.396	13.39
421.838	13.58
422.28	13.77
422.722	13.98
423.164	14.17
423.606	14.34
424.048	14.47
424.49	14.52
424.932	14.43
425.374	14.21
425.816	13.92
426.258	13.64
426.699	13.46
427.141	13.48
427.582	13.64
428.024	13.88
428.465	14.13
428.907	14.36
429.348	14.58
429.789	14.92
430.231	15.45
430.672	16.15
431.113	16.91
431.554	17.64
431.995	18.18
432.436	18.6
432.877	18.9
433.318	19.18
433.759	19.48
434.2	19.88
434.64	20.32
435.081	20.73
435.522	21.1
435.962	21.39
436.403	21.65
436.843	21.91
437.284	22.16
437.724	22.48
438.164	22.82
438.604	23.26
439.045	23.68
439.485	24.09
439.925	24.44
440.365	24.71
440.805	24.95
441.245	25.17
441.685	25.38
442.125	25.6
442.564	25.88
443.004	26.19
443.444	26.48
443.883	26.82
444.323	27.13
444.762	27.45
445.202	27.84
445.641	28.27
446.081	28.81
446.52	29.33
446.959	29.83
447.398	30.19
447.837	30.41
448.276	30.54
448.716	30.61
449.154	30.71
449.593	30.81
450.032	30.83
450.471	30.78
450.91	30.63
451.349	30.53
451.787	30.46
452.226	30.43
452.664	30.47
453.103	30.51
453.541	30.53
453.98	30.49
454.418	30.41
454.856	30.33
455.295	30.27
455.733	30.21
456.171	30.16
456.609	30.11
457.047	30.1
457.485	30.12
457.923	30.21
458.361	30.34
458.798	30.5
459.236	30.67
459.674	30.82
460.111	30.98
460.549	31.18
460.987	31.35
461.424	31.53
461.862	31.7
462.299	31.85
462.736	31.99
463.173	32.19
463.611	32.42
464.048	32.71
464.485	33.06
464.922	33.44
465.359	33.79
465.796	34.11
466.233	34.44
466.67	34.82
467.106	35.25
467.543	35.75
467.98	36.19
468.416	36.57
468.853	36.93
469.29	37.27
469.726	37.62
470.162	38.02
470.599	38.43
471.035	38.78
471.471	39.01
471.907	39.17
472.344	39.27
472.78	39.4
473.216	39.55
473.652	39.69
474.088	39.76
474.523	39.81
474.959	39.82
475.395	39.82
475.831	39.82
476.266	39.85
476.702	39.89
477.138	39.92
477.573	39.88
478.008	39.79
478.444	39.65
478.879	39.5
479.314	39.28
479.75	39.03
480.185	38.73
480.62	38.32
481.055	37.74
481.49	36.98
481.925	36.14
482.36	35.36
482.795	34.73
483.229	34.24
483.664	33.86
484.099	33.52
484.534	33.24
484.968	33.07
485.403	33.02
485.837	33.2
486.271	33.5
486.706	33.83
487.14	34.07
487.574	34.22
488.009	34.26
488.443	34.31
488.877	34.38
489.311	34.46
489.745	34.55
490.179	34.63
490.613	34.7
491.046	34.78
491.48	34.92
491.914	35.12
492.348	35.37
492.781	35.63
493.215	35.84
493.648	35.99
494.082	36.11
494.515	36.19
494.948	36.3
495.382	36.35
495.815	36.4
496.248	36.44
496.681	36.44
497.114	36.41
497.547	36.39
497.98	36.44
498.413	36.6
498.846	36.8
499.279	36.99
499.711	37.13
500.144	37.36
500.577	37.65
501.009	38.04
501.442	38.52
501.874	39.01
502.306	39.49
502.739	39.92
503.171	40.26
503.603	40.58
504.036	40.94
504.468	41.38
504.9	41.81
505.332	42.19
505.764	42.49
506.196	42.79
506.627	43.12
507.059	43.53
507.491	43.92
507.923	44.36
508.354	44.79
508.786	45.15
509.217	45.42
509.649	45.68
510.08	45.94
510.512	46.26
510.943	46.58
511.374	46.84
511.805	46.96
512.237	46.94
512.668	46.86
513.099	46.81
513.53	46.84
513.961	46.94
514.391	47.1
514.822	47.35
515.253	47.65
515.684	47.98
516.114	48.37
516.545	48.9
516.975	49.63
517.406	50.45
517.836	51.23
518.267	51.94
518.697	52.61
519.127	53.26
519.558	53.88
519.988	54.43
520.418	54.94
520.848	55.39
521.278	55.74
521.708	55.95
522.138	56.01
522.567	56.03
522.997	56.11
523.427	56.27
523.857	56.45
524.286	56.63
524.716	56.83
525.145	57.01
525.575	57.18
526.004	57.43
526.433	57.79
526.863	58.3
527.292	58.81
527.721	59.16
528.15	59.33
528.579	59.39
529.008	59.4
529.437	59.34
529.866	59.28
530.295	59.29
530.724	59.28
531.152	59.28
531.581	59.27
532.01	59.22
532.438	59.21
532.867	59.26
533.295	59.37
533.723	59.46
534.152	59.53
534.58	59.55
535.008	59.46
535.436	59.3
535.865	59.05
536.293	58.78
536.721	58.61
537.149	58.56
537.576	58.57
538.004	58.56
538.432	58.52
538.86	58.52
539.287	58.57
539.715	58.72
540.143	58.92
540.57	59.19
540.998	59.49
541.425	59.77
541.852	60.03
542.28	60.25
542.707	60.43
543.134	60.65
543.561	60.82
543.988	61
544.415	61.14
544.842	61.32
545.269	61.51
545.696	61.68
546.123	61.85
546.549	61.97
546.976	62.11
547.403	62.31
547.829	62.49
548.256	62.69
548.682	62.83
549.108	62.99
549.535	63.13
549.961	63.27
550.387	63.39
550.813	63.53
551.24	63.66
551.666	63.72
552.092	63.72
552.518	63.69
552.943	63.63
553.369	63.57
553.795	63.45
554.221	63.27
554.646	62.98
555.072	62.68
555.498	62.38
555.923	62.12
556.349	61.9
556.774	61.75
557.199	61.57
557.625	61.4
558.05	61.26
558.475	61.11
558.9	61.01
559.325	60.93
559.75	60.83
560.175	60.72
560.6	60.51
561.025	60.23
561.449	59.87
561.874	59.52
562.299	59.19
562.723	58.87
563.148	58.54
563.572	58.15
563.997	57.75
564.421	57.35
564.846	56.94
565.27	56.55
565.694	56.2
566.118	55.8
566.542	55.41
566.966	55
567.39	54.59
567.814	54.25
568.238	53.98
568.662	53.77
569.086	53.59
569.509	53.42
569.933	53.27
570.357	53.1
570.78	53
571.204	52.89
571.627	52.82
572.05	52.74
572.474	52.65
572.897	52.53
573.32	52.35
573.743	52.17
574.166	52
574.589	51.83
575.012	51.72
575.435	51.67
575.858	51.67
576.281	51.65
576.704	51.65
577.126	51.64
577.549	51.67
577.972	51.76
578.394	51.89
578.817	52.04
579.239	52.21
579.661	52.37
580.084	52.49
580.506	52.57
580.928	52.62
581.35	52.62
581.772	52.6
582.194	52.59
582.616	52.59
583.038	52.58
583.46	52.54
583.882	52.4
584.303	52.15
584.725	51.83
585.147	51.48
585.568	51.21
585.99	51.05
586.411	50.95
586.833	50.86
587.254	50.78
587.675	50.73
588.096	50.69
588.518	50.75
588.939	50.9
589.36	51.14
589.781	51.43
590.202	51.65
590.623	51.8
591.043	51.88
591.464	51.94
591.885	51.97
592.305	51.99
592.726	52
593.147	51.98
593.567	51.93
593.987	51.87
594.408	51.81
594.828	51.78
595.248	51.75
595.669	51.69
596.089	51.57
596.509	51.46
596.929	51.3
597.349	51.14
597.769	50.98
598.189	50.84
598.608	50.77
599.028	50.74
599.448	50.69
599.867	50.66
600.287	50.66
600.706	50.67
601.126	50.65
601.545	50.65
601.965	50.67
602.384	50.7
602.803	50.72
603.222	50.69
603.641	50.59
604.061	50.48
604.48	50.33
604.898	50.17
605.317	50.01
605.736	49.87
606.155	49.7
606.574	49.52
606.992	49.36
607.411	49.19
607.829	48.98
608.248	48.82
608.666	48.64
609.085	48.46
609.503	48.28
609.921	48.09
610.339	47.92
610.758	47.77
611.176	47.6
611.594	47.36
612.012	47.12
612.43	46.86
612.847	46.64
613.265	46.45
613.683	46.33
614.101	46.24
614.518	46.15
614.936	46.07
615.353	45.94
615.771	45.88
616.188	45.86
616.606	45.87
617.023	45.91
617.44	45.91
617.857	45.85
618.274	45.74
618.691	45.57
619.108	45.41
619.525	45.22
619.942	45.03
620.359	44.78
620.776	44.53
621.192	44.29
621.609	44.05
622.026	43.83
622.442	43.65
622.859	43.47
623.275	43.3
623.691	43.11
624.108	42.93
624.524	42.8
624.94	42.68
625.356	42.55
625.772	42.41
626.188	42.29
626.604	42.17
627.02	42.03
627.436	41.92
627.852	41.84
628.268	41.8
628.683	41.76
629.099	41.75
629.514	41.7
629.93	41.71
630.345	41.7
630.761	41.69
631.176	41.68
631.591	41.65
632.007	41.63
632.422	41.61
632.837	41.58
633.252	41.54
633.667	41.49
634.082	41.46
634.497	41.42
634.911	41.35
635.326	41.27
635.741	41.14
636.155	41.02
636.57	40.87
636.984	40.71
637.399	40.52
637.813	40.34
638.228	40.14
638.642	39.92
639.056	39.68
639.47	39.5
639.884	39.32
640.298	39.16
640.712	39
641.126	38.84
641.54	38.67
641.954	38.51
642.368	38.31
642.781	38.12
643.195	37.95
643.609	37.76
644.022	37.58
644.436	37.38
644.849	37.15
645.262	36.91
645.676	36.71
646.089	36.55
646.502	36.42
646.915	36.31
647.328	36.21
647.741	36.11
648.154	36.04
648.567	35.96
648.98	35.89
649.393	35.88
649.805	35.88
650.218	35.83
650.631	35.74
651.043	35.53
651.456	35.17
651.868	34.69
652.28	34.16
652.693	33.71
653.105	33.34
653.517	33.05
653.929	32.83
654.341	32.66
654.753	32.53
655.165	32.44
655.577	32.46
655.989	32.63
656.401	32.92
656.813	33.27
657.224	33.53
657.636	33.73
658.047	33.85
658.459	33.87
658.87	33.84
659.282	33.78
659.693	33.69
660.104	33.58
660.515	33.47
660.926	33.36
661.338	33.25
661.749	33.11
662.159	32.96
662.57	32.81
662.981	32.66
663.392	32.52
663.803	32.4
664.213	32.28
664.624	32.18
665.035	32.06
665.445	31.94
665.855	31.82
666.266	31.68
666.676	31.57
667.086	31.4
667.497	31.27
667.907	31.15
668.317	31.03
668.727	30.92
669.137	30.77
669.547	30.67
669.956	30.54
670.366	30.43
670.776	30.35
671.186	30.26
671.595	30.22
672.005	30.16
672.414	30.11
672.824	30.04
673.233	30
673.642	29.97
674.052	29.93
674.461	29.92
674.87	29.89
675.279	29.87
675.688	29.86
676.097	29.86
676.506	29.84
676.915	29.82
677.323	29.84
677.732	29.86
678.141	29.89
678.549	29.9
678.958	29.92
679.366	29.95
679.775	29.97
680.183	29.97
680.592	30.01
681	30.07
681.408	30.13
681.816	30.12
682.224	29.95
682.632	29.63
683.04	29.21
683.448	28.82
683.856	28.44
684.264	28.15
684.671	27.89
685.079	27.64
685.487	27.44
685.894	27.29
686.302	27.24
686.709	27.4
687.116	27.78
687.524	28.32
687.931	28.92
688.338	29.52
688.745	30.1
689.152	30.68
689.559	31.29
689.966	31.84
690.373	32.4
690.78	32.9
691.187	33.41
691.593	33.89
692	34.35
692.407	34.78
692.813	35.22
693.22	35.62
693.626	36.01
694.032	36.38
694.439	36.75
694.845	37.11
695.251	37.47
695.657	37.76
696.063	38.04
696.469	38.3
696.875	38.53
697.281	38.75
697.687	38.94
698.093	39.13
698.498	39.32
698.904	39.56
699.31	39.77
699.715	40.01
700.12	40.29
700.526	40.57
700.931	40.85
701.337	41.15
701.742	41.43
702.147	41.74
702.552	42.05
702.957	42.32
703.362	42.56
703.767	42.8
704.172	43.01
704.577	43.2
704.981	43.39
705.386	43.57
705.791	43.75
706.195	43.93
706.6	44.12
707.004	44.28
707.408	44.44
707.813	44.59
708.217	44.75
708.621	44.9
709.025	45
709.43	45.13
709.834	45.25
710.237	45.34
710.641	45.41
711.045	45.47
711.449	45.54
711.853	45.57
712.256	45.53
712.66	45.39
713.064	45.2
713.467	44.95
713.87	44.59
714.274	44.15
714.677	43.7
715.08	43.22
715.484	42.75
715.887	42.29
716.29	41.9
716.693	41.69
717.096	41.65
717.499	41.8
717.901	42.03
718.304	42.37
718.707	42.72
719.109	43.05
719.512	43.35
719.915	43.64
720.317	43.89
720.719	44.1
721.122	44.19
721.524	44.2
721.926	44.12
722.328	44.01
722.731	43.9
723.133	43.84
723.535	43.81
723.937	43.84
724.338	43.81
724.74	43.85
725.142	43.91
725.544	43.93
725.945	44
726.347	44.01
726.748	44.04
727.15	44.06
727.551	44.16
727.952	44.27
728.354	44.43
728.755	44.64
729.156	44.85
729.557	45.07
729.958	45.32
730.359	45.56
730.76	45.8
731.161	46
731.562	46.19
731.962	46.26
732.363	46.36
732.763	46.42
733.164	46.47
733.564	46.51
733.965	46.47
734.365	46.41
734.766	46.31
735.166	46.22
735.566	46.15
735.966	46.14
736.366	46.08
736.766	46
737.166	45.92
737.566	45.82
737.966	45.7
738.365	45.64
738.765	45.62
739.165	45.62
739.564	45.63
739.964	45.61
740.363	45.54
740.763	45.54
741.162	45.55
741.561	45.57
741.96	45.56
742.36	45.57
742.759	45.56
743.158	45.53
743.557	45.48
743.955	45.45
744.354	45.4
744.753	45.36
745.152	45.31
745.55	45.23
745.949	45.13
746.348	45.05
746.746	44.94
747.144	44.83
747.543	44.71
747.941	44.59
748.339	44.45
748.737	44.35
749.136	44.25
749.534	44.16
749.932	44.09
750.33	44.03
750.727	43.96
751.125	43.91
751.523	43.83
751.921	43.76
752.318	43.7
752.716	43.62
753.113	43.52
753.511	43.44
753.908	43.34
754.305	43.15
754.703	42.75
755.1	41.99
755.497	40.67
755.894	38.8
756.291	36.58
756.688	34.23
757.085	31.98
757.482	29.96
757.878	28.03
758.275	26.12
758.672	24.24
759.068	22.54
759.465	21.28
759.861	20.68
760.258	20.78
760.654	21.37
761.05	22.23
761.447	23.15
761.843	23.99
762.239	24.87
762.635	25.89
763.031	27.12
763.427	28.49
763.822	29.9
764.218	31.29
764.614	32.59
765.01	33.78
765.405	34.87
765.801	35.83
766.196	36.72
766.592	37.45
766.987	38.05
767.382	38.48
767.778	38.8
768.173	39.05
768.568	39.22
768.963	39.33
769.358	39.45
769.753	39.51
770.148	39.56
770.542	39.52
770.937	39.49
771.332	39.42
771.726	39.39
772.121	39.36
772.515	39.3
772.91	39.23
773.304	39.18
773.699	39.05
774.093	38.96
774.487	38.89
774.881	38.84
775.275	38.76
775.669	38.66
776.063	38.53
776.457	38.43
776.851	38.28
777.245	38.18
777.638	38.07
778.032	38.03
778.425	37.97
778.819	37.84
779.212	37.7
779.606	37.58
779.999	37.51
780.392	37.42
780.786	37.29
781.179	37.22
781.572	37.12
781.965	37.01
782.358	36.89
782.751	36.73
783.143	36.62
783.536	36.52
783.929	36.38
784.322	36.24
784.714	36.09
785.107	35.97
785.499	35.78
785.891	35.62
786.284	35.46
786.676	35.27
787.068	35.09
787.46	34.9
787.852	34.72
788.245	34.53
788.636	34.32
789.028	34.12
789.42	33.89
789.812	33.7
790.204	33.48
790.595	33.29
790.987	33.13
791.378	32.97
791.77	32.83
792.161	32.68
792.553	32.55
792.944	32.44
793.335	32.34
793.726	32.27
794.117	32.15
794.508	32.05
794.899	31.94
795.29	31.79
795.681	31.63
796.072	31.45
796.463	31.32
796.853	31.16
797.244	31
797.634	30.81
798.025	30.63
798.415	30.44
798.806	30.23
799.196	30.04
799.586	29.88
799.976	29.72
800.366	29.56
800.756	29.35
801.146	29.18
801.536	29
801.926	28.83
802.316	28.66
802.706	28.51
803.095	28.36
803.485	28.18
803.874	28
804.264	27.82
804.653	27.62
805.043	27.44
805.432	27.21
805.821	27.02
806.21	26.83
806.599	26.62
806.988	26.39
807.377	26.17
807.766	25.97
808.155	25.73
808.544	25.47
808.933	25.24
809.321	24.98
809.71	24.72
810.098	24.39
810.487	24.04
810.875	23.7
811.264	23.35
811.652	22.97
812.04	22.57
812.428	22.19
812.816	21.84
813.204	21.5
813.592	21.17
813.98	20.86
814.368	20.6
814.756	20.35
815.144	20.11
815.531	19.9
815.919	19.77
816.306	19.68
816.694	19.59
817.081	19.54
817.469	19.45
817.856	19.32
818.243	19.17
818.63	18.97
819.017	18.77
819.404	18.6
819.791	18.46
820.178	18.33
820.565	18.16
820.952	18.02
821.339	17.86
821.725	17.72
822.112	17.64
822.498	17.59
822.885	17.58
823.271	17.55
823.657	17.48
824.044	17.4
824.43	17.26
824.816	17.12
825.202	16.97
825.588	16.83
825.974	16.68
826.36	16.54
826.746	16.39
827.132	16.26
827.517	16.14
827.903	16.04
828.289	15.92
828.674	15.82
829.06	15.72
829.445	15.61
829.83	15.5
830.216	15.41
830.601	15.31
830.986	15.22
831.371	15.13
831.756	15.05
832.141	14.99
832.526	14.93
832.911	14.88
833.295	14.82
833.68	14.78
834.065	14.74
834.449	14.68
834.834	14.63
835.218	14.58
835.603	14.52
835.987	14.45
836.371	14.39
836.755	14.33
837.139	14.26
837.524	14.2
837.908	14.14
838.291	14.07
838.675	14
839.059	13.93
839.443	13.86
839.827	13.78
840.21	13.73
840.594	13.67
840.977	13.6
841.361	13.55
841.744	13.48
842.127	13.42
842.511	13.37
842.894	13.3
843.277	13.24
843.66	13.18
844.043	13.14
844.426	13.08
844.809	13
845.191	12.93
845.574	12.83
845.957	12.74
846.339	12.65
846.722	12.56
847.104	12.49
847.487	12.43
847.869	12.34
848.252	12.27
848.634	12.19
849.016	12.12
849.398	12.03
849.78	11.94
850.162	11.82
850.544	11.73
850.926	11.63
851.307	11.54
851.689	11.47
852.071	11.41
852.452	11.35
852.834	11.3
853.215	11.26
853.597	11.26
853.978	11.28
854.359	11.31
854.741	11.33
855.122	11.35
855.503	11.35
855.884	11.34
856.265	11.32
856.646	11.3
857.026	11.27
857.407	11.23
857.788	11.18
858.169	11.14
858.549	11.1
858.93	11.06
859.31	11.02
859.69	11
860.071	10.96
860.451	10.91
860.831	10.85
861.211	10.78
861.591	10.7
861.971	10.6
862.351	10.51
862.731	10.43
863.111	10.33
863.491	10.24
863.87	10.16
864.25	10.08
864.629	10.02
865.009	9.97
865.388	9.92
865.768	9.91
866.147	9.92
866.526	9.92
866.905	9.93
867.284	9.93
867.663	9.92
868.042	9.91
868.421	9.9
868.8	9.89
869.179	9.88
869.558	9.87
869.936	9.84
870.315	9.82
870.693	9.79
871.072	9.76
871.45	9.73
871.828	9.71
872.207	9.7
872.585	9.65
872.963	9.62
873.341	9.6
873.719	9.58
874.097	9.55
874.475	9.51
874.853	9.51
875.23	9.48
875.608	9.46
875.986	9.44
876.363	9.41
876.741	9.39
877.118	9.35
877.495	9.32
877.873	9.28
878.25	9.26
878.627	9.26
879.004	9.23
879.381	9.21
879.758	9.18
880.135	9.14
880.512	9.11
880.889	9.09
881.265	9.08
881.642	9.06
882.019	9.04
882.395	9.01
882.772	8.96
883.148	8.93
883.524	8.91
883.901	8.89
884.277	8.86
884.653	8.83
885.029	8.81
885.405	8.78
885.781	8.77
886.157	8.74
886.532	8.73
886.908	8.69
887.284	8.68
887.659	8.65
888.035	8.63
888.411	8.61
888.786	8.58
889.161	8.55
889.537	8.52
889.912	8.49
890.287	8.46
890.662	8.43
891.037	8.4
891.412	8.35
891.787	8.31
892.162	8.26
892.536	8.22
892.911	8.16
893.286	8.11
893.66	8.04
894.035	7.99
894.409	7.93
894.784	7.86
895.158	7.78
895.532	7.72
895.906	7.66
896.281	7.6
896.655	7.54
897.029	7.51
897.402	7.46
897.776	7.43
898.15	7.39
898.524	7.37
898.898	7.35
899.271	7.35
899.645	7.35
900.018	7.38
900.392	7.39
900.765	7.42
901.138	7.44
901.511	7.47
901.884	7.5
902.258	7.52
902.631	7.54
903.003	7.55
903.376	7.54
903.749	7.54
904.122	7.51
904.495	7.49
904.867	7.46
905.24	7.42
905.612	7.37
905.985	7.33
906.357	7.29
906.729	7.26
907.102	7.23
907.474	7.21
907.846	7.18
908.218	7.16
908.59	7.14
908.962	7.12
909.334	7.11
909.705	7.1
910.077	7.08
910.449	7.07
910.82	7.06
911.192	7.04
911.563	7.02
911.935	7
912.306	6.99
912.677	6.98
913.048	6.99
913.419	6.99
913.79	6.98
914.161	6.98
914.532	6.96
914.903	6.98
915.274	6.98
915.645	6.99
916.015	7
916.386	7.02
916.756	7.02
917.127	7.02
917.497	7.03
917.868	7.05
918.238	7.06
918.608	7.06
918.978	7.04
919.348	7.05
919.718	7.05
920.088	7.05
920.458	7.01
920.828	6.99
921.198	6.96
921.567	6.94
921.937	6.93
922.306	6.9
922.676	6.9
923.045	6.89
923.415	6.87
923.784	6.85
924.153	6.83
924.522	6.82
924.891	6.8
925.26	6.78
925.629	6.77
925.998	6.74
926.367	6.69
926.736	6.65
927.104	6.59
927.473	6.53
927.842	6.45
928.21	6.38
928.578	6.32
928.947	6.26
929.315	6.2
929.683	6.09
930.051	5.98
930.42	5.91
930.788	5.81
931.156	5.72
931.523	5.66
931.891	5.6
932.259	5.55
932.627	5.51
932.994	5.43
933.362	5.37
933.729	5.35
934.097	5.34
934.464	5.35
934.831	5.37
935.199	5.39
935.566	5.41
935.933	5.45
936.3	5.49
936.667	5.5
937.034	5.57
937.401	5.61
937.767	5.67
938.134	5.73
938.501	5.76
938.867	5.83
939.234	5.87
939.6	5.92
939.967	5.93
940.333	5.89
940.699	5.92
941.065	5.91
941.431	5.93
941.798	5.9
942.163	5.88
942.529	5.87
942.895	5.85
943.261	5.81
943.627	5.79
943.992	5.77
944.358	5.84
944.723	5.82
945.089	5.82
945.454	5.82
945.82	5.85
946.185	5.86
946.55	5.83
946.915	5.8
947.28	5.83
947.645	5.82
948.01	5.82
948.375	5.78
948.74	5.79
949.104	5.8
949.469	5.8
949.834	5.79
950.198	5.79
950.562	5.8
950.927	5.79
951.291	5.76
951.655	5.79
952.02	5.8
952.384	5.79
952.748	5.8
953.112	5.78
953.476	5.73
953.839	5.7
954.203	5.65
954.567	5.67
954.931	5.66
955.294	5.71
955.658	5.7
956.021	5.67
956.385	5.66
956.748	5.65
957.111	5.66
957.474	5.7
957.837	5.69
958.2	5.72
958.563	5.7
958.926	5.69
959.289	5.66
959.652	5.65
960.015	5.68
960.377	5.7
960.74	5.71
961.102	5.73
961.465	5.75
961.827	5.78
962.189	5.8
962.552	5.84
962.914	5.92
963.276	5.94
963.638	5.95
964	5.96
964.362	5.97
964.724	5.97
965.085	5.97
965.447	5.96
965.809	5.97
966.17	5.96
966.532	5.97
966.893	5.96
967.255	5.94
967.616	5.98
967.977	6
968.338	6.03
968.699	6.01
969.061	6.03
969.421	6.07
969.782	6.12
970.143	6.16
970.504	6.14
970.865	6.14
971.225	6.16
971.586	6.12
971.946	6.13
972.307	6.09
972.667	6.11
973.027	6.14
973.388	6.12
973.748	6.09
974.108	6.13
974.468	6.13
974.828	6.14
975.188	6.18
975.548	6.16
975.907	6.15
976.267	6.17
976.627	6.2
976.986	6.17
977.346	6.12
977.705	6.12
978.064	6.09
978.424	6.14
978.783	6.11
979.142	6.04
979.501	6.08
979.86	6.1
980.219	6.1
980.578	6.14
980.937	6.18
981.296	6.26
981.654	6.26
982.013	6.3
982.371	6.26
982.73	6.31
983.088	6.4
983.447	6.37
983.805	6.38
984.163	6.39
984.521	6.38
984.879	6.33
985.237	6.38
985.595	6.42
985.953	6.37
986.311	6.36
986.669	6.34
987.026	6.33
987.384	6.42
987.741	6.43
988.099	6.45
988.456	6.38
988.814	6.41
989.171	6.37
989.528	6.37
989.885	6.41
990.242	6.46
990.599	6.52
990.956	6.55
991.313	6.55
991.67	6.6
992.027	6.64
992.383	6.74
992.74	6.8
993.096	6.78
993.453	6.78
993.809	6.84
994.165	6.85
994.522	6.83
994.878	6.89
995.234	6.88
995.59	6.85
995.946	6.87
996.302	6.91
996.658	6.92
997.013	7.06
997.369	7.15
997.725	7.16
998.08	7.22
998.436	7.25
998.791	7.18
999.147	7.14
999.502	7.28
999.857	7.29
1000.212	7.2
1000.567	7.23
1000.922	7.24
1001.277	7.16
1001.632	7.12
1001.987	7.11
1002.342	7.04
1002.696	7.05
1003.051	7.14
1003.406	7.11
1003.76	7.08
1004.114	7.18
1004.469	7.16
1004.823	7.3
1005.177	7.39
1005.531	7.35
1005.885	7.33
1006.239	7.43
1006.593	7.56
1006.947	7.53
1007.301	7.42
1007.655	7.4
1008.008	7.46
1008.362	7.54
1008.715	7.46
1009.069	7.5
1009.422	7.53
1009.776	7.58
1010.129	7.66
1010.482	7.63
1010.835	7.74
1011.188	7.82
1011.541	7.93
1011.894	7.94
1012.247	7.93
1012.6	7.85
1012.952	7.78
1013.305	7.94
1013.657	8.01
1014.01	8.09
1014.362	8.11
1014.715	8.21
1015.067	8.24
1015.419	8.28
1015.771	8.22
1016.123	8.08
1016.475	8.1
1016.827	8.19
1017.179	8.28
1017.531	8.32
1017.883	8.16
1018.234	8.17
1018.586	8.12
1018.938	8.07
1019.289	7.97
1019.64	8.09
1019.992	8.33
1020.343	8.18
1020.694	8.1
1021.045	8.06
1021.396	8.12
1021.747	8.27
1022.098	8.24
1022.449	8.19
1022.8	8.44
1023.151	8.51
1023.501	8.61
1023.852	8.68
1024.202	8.88
1024.553	8.98
1024.903	9.12
1025.253	9.25
1025.604	9.19
1025.954	9.3
1026.304	9.32
1026.654	9.48
1027.004	9.67
1027.354	9.56
1027.703	9.51
1028.053	9.56
1028.403	9.67
1028.753	9.39
1029.102	9.33
1029.452	9.47
1029.801	9.55
1030.15	9.68
1030.499	9.41
897.758	636.3
901.051	638.77
904.343	638.89
907.636	645.2
910.928	627.51
914.22	630.85
917.511	624.45
920.803	595.31
924.094	590.99
927.384	574.86
930.675	555.87
933.965	553.73
937.255	521.78
940.544	501.08
943.834	479.93
947.123	476.89
950.411	449.48
953.7	441.57
956.988	419.81
960.276	405.72
963.563	400.04
966.851	385.56
970.138	382.68
973.424	371.72
976.711	373.14
979.997	354.98
983.283	352.03
986.568	343.91
989.853	335.2
993.138	328.42
996.423	316.34
999.708	306.49
1002.992	302.06
1006.275	289.64
1009.559	287.72
1012.842	277.63
1016.125	271.61
1019.408	267.52
1022.69	264.84
1025.972	257.81
1029.254	252.62
1032.536	247.73
1035.817	243.31
1039.098	240.89
1042.379	236.44
1045.659	233.63
1048.939	227.26
1052.219	223.04
1055.498	220.6
1058.778	214.54
1062.057	210.44
1065.335	207.85
1068.614	206.06
1071.892	204.22
1075.17	198.67
1078.447	193.86
1081.724	191.9
1085.001	191.86
1088.278	188.75
1091.554	184.01
1094.83	184.83
1098.106	182.82
1101.382	182.48
1104.657	181.65
1107.932	178.48
1111.206	178.32
1114.481	175.94
1117.755	174.5
1121.029	172.5
1124.302	171.48
1127.575	169.39
1130.848	167.53
1134.121	166.43
1137.393	163.98
1140.665	161.14
1143.937	160.24
1147.208	159.79
1150.48	158.34
1153.75	156.84
1157.021	155.33
1160.291	154.79
1163.561	152.81
1166.831	153.17
1170.101	152.03
1173.37	152.74
1176.639	152.46
1179.907	150.85
1183.176	149.09
1186.444	148.95
1189.711	148.67
1192.979	148.34
1196.246	147.84
1199.513	148.42
1202.78	147.04
1206.046	147.01
1209.312	145.4
1212.578	145.64
1215.843	146.23
1219.108	146.24
1222.373	149
1225.638	149.59
1228.902	150.25
1232.166	151.72
1235.43	152.12
1238.693	154.2
1241.956	154.84
1245.219	157.22
1248.482	157.38
1251.744	158.11
1255.006	157.41
1258.268	155.31
1261.529	154.28
1264.79	154.02
1268.051	151.9
1271.312	150.89
1274.572	148.97
1277.832	148.63
1281.092	145.66
1284.351	144.84
1287.61	145.16
1290.869	143.28
1294.128	141.58
1297.386	141.63
1300.644	140.62
1303.902	140.68
1307.159	141.05
1310.416	140.62
1313.673	139.26
1316.93	140.89
1320.186	140.22
1323.442	140.27
1326.697	142.27
1329.953	142.85
1333.208	143.22
1336.463	144.55
1339.717	145.32
1342.972	145.56
1346.226	146.85
1349.479	147.87
1352.733	148.64
1355.986	150.04
1359.238	149.87
1362.491	150.33
1365.743	150.48
1368.995	150.36
1372.247	149.34
1375.498	148.71
1378.749	148.99
1382	148.91
1385.251	148.46
1388.501	147.02
1391.751	145.82
1395	146.53
1398.25	145.45
1401.499	144.33
1404.748	143.91
1407.996	144.12
1411.244	143.78
1414.492	142.8
1417.74	140.51
1420.987	139.32
1424.234	138.87
1427.481	137.44
1430.728	136.07
1433.974	135.16
1437.22	134.73
1440.465	134.35
1443.711	131.98
1446.956	130.49
1450.201	130.04
1453.445	128.88
1456.689	128.49
1459.933	126.31
1463.177	125.82
1466.42	123.93
1469.663	122.25
1472.906	121.18
1476.148	118.39
1479.391	117.86
1482.633	117.66
1485.874	115.88
1489.115	114.9
1492.356	113.56
1495.597	113.28
1498.838	111.76
1502.078	111.34
1505.318	111.33
1508.557	110.97
1511.797	110.82
1515.036	109.42
1518.274	109.6
1521.513	108.77
1524.751	108.51
1527.989	108.46
1531.227	108.69
1534.464	108.39
1537.701	107.38
1540.938	107.08
1544.174	106.59
1547.41	106.75
1550.646	106.38
1553.882	105.96
1557.117	104.55
1560.352	104.27
1563.587	104.28
1566.821	103.49
1570.055	103.06
1573.289	103.08
1576.523	102.9
1579.756	101.96
1582.989	102.03
1586.222	101.4
1589.454	101.4
1592.686	102.43
1595.918	101.56
1599.15	100.74
1602.381	101.8
1605.612	101.63
1608.843	101.37
1612.073	101.32
1615.303	102.2
1618.533	101.42
1621.762	102.18
1624.992	102.31
1628.221	101.73
1631.449	101.91
1634.678	101.99
1637.906	101.81
1641.134	101.79
1644.361	101.74
1647.588	102.18
1650.815	101.69
1654.042	101.96
1657.269	102.4
1660.495	101.89
1663.72	101.96
1666.946	102.6
1670.171	102.81
1673.396	102.39
1676.621	103.3
1679.845	103.75
1683.069	103.7
1686.293	104.35
1689.517	104.5
1692.74	104.51
1695.963	104.72
1699.185	105.19
1702.408	105.11
1705.63	105.76
1708.852	105.69
1712.073	105.57
1715.294	105.48
1718.515	106.45
1721.736	106.13
1724.956	106.39
1728.176	106.47
1731.396	106.82
1734.616	106.91
1737.835	107.38
1741.054	106.28
1744.272	107.3
1747.491	107.63
1750.709	107.94
1753.927	107.32
1757.144	107.4
1760.361	107.36
1763.578	107.84
1766.795	107.39
1770.011	108.45
1773.227	108.13
1776.443	109.33
1779.658	108.98
1782.874	109.56
1786.089	109.45
1789.303	109.7
1792.518	110.56
1795.732	110.89
1798.945	111.52
1802.159	112.06
1805.372	112.02
1808.585	113.91
1811.797	114.52
1815.01	114.75
1818.222	114.91
1821.434	116.62
1824.645	116.57
1827.856	118.8
1831.067	119.41
1834.278	119.78
1837.488	120.8
1840.698	121.12
1843.908	120.32
1847.117	120.33
1850.326	121.27
1853.535	120.5
1856.744	121.47
1859.952	121.26
1863.16	119.74
1866.368	119.25
1869.575	119.43
1872.782	117.53
1875.989	116.93
1879.196	116.62
1882.402	115.57
1885.608	115.62
1888.814	115.77
1892.019	114.75
1895.224	114.87
1898.429	114.67
1901.634	114.51
1904.838	114.06
1908.042	115.26
1911.246	115.32
1914.449	115.58
1917.652	115.92
1920.855	115.71
1924.058	115.28
1927.26	115
1930.462	114.79
1933.664	115.6
1936.865	115.18
1940.066	114.5
1943.267	113.64
1946.467	113.63
1949.668	114.03
1952.868	115.66
1956.067	115.68
1959.267	116.11
1962.466	116.39
1965.665	116.3
1968.863	116.81
1972.061	117.97
1975.259	119.44
1978.457	120.85
1981.654	121.36
1984.852	121.74
1988.048	121.03
1991.245	121.97
1994.441	122.74
1997.637	124.51
2000.833	126.87
2004.028	127.56
2007.223	129.91
2010.418	130.61
2013.613	133.57
2016.807	136.29
2020.001	137.22
2023.194	139.98
2026.388	143.46
2029.581	146.64
2032.774	146.99
2035.966	149.19
2039.158	150.05
2042.35	152.31
2045.542	154.45
2048.733	154.64
2051.924	156.03
2055.115	159.45
2058.306	159.18
2061.496	159.72
2064.686	160.12
2067.875	163.94
2071.065	164.94
2074.254	164.86
2077.442	165.91
2080.631	165.31
2083.819	168.26
2087.007	169.6
2090.195	170.18
2093.382	172.09
2096.569	172.11
2099.756	175.04
2102.942	174.87
2106.128	176.06
2109.314	180.63
2112.5	180.71
2115.685	184.29
2118.87	184.53
2122.055	186.77
2125.239	188.72
2128.424	190.93
2131.608	192.26
2134.791	195.27
2137.974	196.15
2141.157	196.86
2144.34	196.3
2147.523	197.78
2150.705	197.53
2153.887	200.39
2157.068	201.53
2160.25	200.28
2163.431	200.91
2166.611	202.61
2169.792	205.17
2172.972	207.94
2176.152	209.04
2179.331	211.59
2182.511	215.16
2185.69	217.42
2188.868	219.37
2192.047	220.17
2195.225	226.11
2198.403	230.62
2201.58	236.78
2204.758	239.89
2207.935	243.25
2211.111	249.85
2214.288	252.59
2217.464	253.87
2220.64	259.57
2223.815	263.53
2226.991	272.38
2230.166	272.05
2233.34	276.07
2236.515	279
2239.689	281.2
2242.863	282.91
2246.036	288.73
2249.209	287.31
2252.382	292.15
2255.555	299.67
2258.727	301.27
2261.9	304.04
2265.071	307.66
2268.243	312.72
2271.414	315.58
2274.585	321.52
2277.756	325.5
2280.926	328.56
2284.096	335.99
2287.266	342.34
2290.436	343.65
2293.605	350.51
2296.774	359.84
2299.942	370.58
2303.111	375.22
2306.279	384.33
2309.447	387.5
2312.614	398.88
2315.781	409.69
2318.948	427.89
2322.115	423.15
2325.281	448.64
2328.447	439.55
2331.613	456.02
2334.779	452.41
2337.944	470.1
2341.109	472
2344.274	488.1
2347.438	502.3
2350.602	502.03
2353.766	514.81
2356.929	525.26
2360.092	515.42
2363.255	554.02
2366.418	555.59
2369.58	562.37
2372.742	596.41
2375.904	613.57
2379.066	609.87
2382.227	595.44
2385.388	643.01
2388.548	646.71
2391.709	652.19
2394.869	730.93
2398.029	701.28
2401.188	718.52
2404.347	715.75
2407.506	703.03
2410.665	720.54
2413.823	767.21
2416.981	816.36
2420.139	790.46
2423.296	780.91
2426.453	816.3
2429.61	779.57
2432.767	809.43
2435.923	804.55
2439.079	892.31
2442.235	904.12
2445.391	899.21
2448.546	884.73
2451.701	858.11
2454.855	861.6
2458.009	912.59
2461.163	949.92
2464.317	990.12
2467.471	1017.91
2470.624	1015.56
2473.777	979.66
2476.929	956.19
2480.082	922.73
2483.234	916.81
2486.385	970.26
2489.537	971.31
2492.688	1004.57
2495.839	974.22
2498.989	952.56
2502.14	957.09
2505.29	962.33
2508.439	978.56
2511.589	974.86
2514.738	1073.37
2517.887	1049.11
2521.035	1101.23
2524.183	1113.48
2527.331	1124.32
2530.479	1119.6
2533.627	1128.48
