Data from N_1_DIV_PA_2n_Splice17_12-34-36-538.txt Node
Date: Sat Mar 07 12:34:36 EST 2020
User: sa697716
Spectrometer: NQ5500242
Trigger mode: 0
Integration Time (sec): 1.450000E-1
Scans to average: 20
Nonlinearity correction enabled: false
Boxcar width: 5
Storing dark spectrum: false
XAxis mode: Wavelengths
Number of Pixels in Spectrum: 512
>>>>>Begin Spectral Data<<<<<
187.83	93.59
188.298	108.23
188.766	90.37
189.233	82.13
189.701	83.99
190.169	98.05
190.636	97
191.104	92.56
191.571	196.05
192.039	182.91
192.506	54.51
192.974	96.13
193.441	265.36
193.908	103.12
194.375	58.2
194.842	32.69
195.31	104.23
195.777	149.86
196.244	33.98
196.711	31.79
197.177	31.9
197.644	30.4
198.111	29.96
198.578	30.45
199.045	30.88
199.511	30.68
199.978	30.52
200.445	30.19
200.911	30.16
201.378	30.21
201.844	30.43
202.31	30.45
202.777	30.88
203.243	30.97
203.709	30.68
204.176	30.5
204.642	30.9
205.108	31.31
205.574	31.23
206.04	31.09
206.506	30.9
206.972	30.69
207.438	30.14
207.903	29.75
208.369	29.43
208.835	29.04
209.301	28.68
209.766	28
210.232	27.34
210.697	27.01
211.163	26.78
211.628	26.45
212.094	26.05
212.559	25.93
213.024	25.53
213.49	25.16
213.955	24.76
214.42	24.36
214.885	23.96
215.35	23.47
215.815	22.78
216.28	21.8
216.745	20.74
217.21	19.86
217.675	19.1
218.14	18.37
218.604	17.74
219.069	17.24
219.534	16.81
219.998	16.46
220.463	16.13
220.927	15.79
221.392	15.53
221.856	15.3
222.32	15.1
222.785	14.9
223.249	14.72
223.713	14.54
224.177	14.36
224.642	14.19
225.106	13.98
225.57	13.81
226.034	13.68
226.497	13.56
226.961	13.41
227.425	13.28
227.889	13.14
228.353	13.01
228.816	12.85
229.28	12.73
229.744	12.6
230.207	12.48
230.671	12.34
231.134	12.22
231.597	12.1
232.061	11.99
232.524	11.86
232.987	11.74
233.45	11.64
233.914	11.51
234.377	11.4
234.84	11.29
235.303	11.19
235.766	11.1
236.229	11
236.691	10.89
237.154	10.8
237.617	10.7
238.08	10.61
238.542	10.51
239.005	10.45
239.468	10.36
239.93	10.27
240.393	10.18
240.855	10.09
241.317	9.98
241.78	9.9
242.242	9.79
242.704	9.72
243.166	9.64
243.629	9.57
244.091	9.48
244.553	9.39
245.015	9.32
245.477	9.25
245.939	9.18
246.4	9.11
246.862	9.05
247.324	9
247.786	8.92
248.247	8.86
248.709	8.78
249.17	8.71
249.632	8.66
250.093	8.6
250.555	8.54
251.016	8.49
251.477	8.44
251.939	8.39
252.4	8.34
252.861	8.29
253.322	8.25
253.783	8.21
254.244	8.18
254.705	8.14
255.166	8.1
255.627	8.06
256.088	8.02
256.549	7.98
257.009	7.94
257.47	7.9
257.931	7.85
258.391	7.8
258.852	7.76
259.312	7.71
259.773	7.67
260.233	7.63
260.694	7.59
261.154	7.55
261.614	7.52
262.074	7.49
262.534	7.45
262.994	7.43
263.455	7.4
263.915	7.37
264.374	7.35
264.834	7.33
265.294	7.3
265.754	7.28
266.214	7.27
266.673	7.24
267.133	7.23
267.593	7.22
268.052	7.2
268.512	7.18
268.971	7.16
269.431	7.14
269.89	7.12
270.349	7.11
270.809	7.08
271.268	7.06
271.727	7.04
272.186	7.01
272.645	6.99
273.104	6.97
273.563	6.95
274.022	6.93
274.481	6.91
274.94	6.9
275.399	6.87
275.857	6.85
276.316	6.83
276.775	6.82
277.233	6.79
277.692	6.77
278.15	6.75
278.609	6.73
279.067	6.7
279.525	6.67
279.984	6.64
280.442	6.62
280.9	6.6
281.358	6.58
281.816	6.55
282.274	6.53
282.732	6.5
283.19	6.47
283.648	6.45
284.106	6.43
284.564	6.41
285.021	6.39
285.479	6.36
285.937	6.33
286.394	6.31
286.852	6.28
287.309	6.27
287.767	6.24
288.224	6.21
288.682	6.19
289.139	6.16
289.596	6.14
290.053	6.12
290.511	6.09
290.968	6.07
291.425	6.05
291.882	6.03
292.339	6.01
292.796	5.99
293.252	5.98
293.709	5.96
294.166	5.95
294.623	5.93
295.079	5.91
295.536	5.9
295.992	5.88
296.449	5.86
296.905	5.85
297.362	5.84
297.818	5.82
298.274	5.81
298.731	5.79
299.187	5.77
299.643	5.76
300.099	5.75
300.555	5.72
301.011	5.7
301.467	5.69
301.923	5.67
302.379	5.66
302.835	5.64
303.291	5.62
303.746	5.6
304.202	5.58
304.658	5.57
305.113	5.55
305.569	5.53
306.024	5.52
306.479	5.5
306.935	5.48
307.39	5.46
307.845	5.45
308.301	5.44
308.756	5.42
309.211	5.4
309.666	5.4
310.121	5.38
310.576	5.38
311.031	5.37
311.486	5.36
311.94	5.35
312.395	5.34
312.85	5.33
313.305	5.32
313.759	5.31
314.214	5.31
314.668	5.29
315.123	5.27
315.577	5.26
316.032	5.25
316.486	5.23
316.94	5.22
317.394	5.2
317.849	5.19
318.303	5.17
318.757	5.15
319.211	5.13
319.665	5.11
320.119	5.11
320.572	5.08
321.026	5.07
321.48	5.06
321.934	5.04
322.387	5.03
322.841	5.02
323.295	5.01
323.748	4.99
324.202	4.98
324.655	4.96
325.108	4.95
325.562	4.94
326.015	4.93
326.468	4.92
326.921	4.91
327.374	4.9
327.827	4.9
328.28	4.89
328.733	4.88
329.186	4.87
329.639	4.87
330.092	4.86
330.545	4.85
330.997	4.84
331.45	4.83
331.903	4.83
332.355	4.82
332.808	4.81
333.26	4.8
333.713	4.78
334.165	4.77
334.617	4.77
335.069	4.75
335.522	4.74
335.974	4.74
336.426	4.73
336.878	4.72
337.33	4.71
337.782	4.7
338.234	4.7
338.686	4.7
339.137	4.7
339.589	4.69
340.041	4.68
340.493	4.66
340.944	4.64
341.396	4.63
341.847	4.61
342.299	4.59
342.75	4.57
343.201	4.55
343.653	4.55
344.104	4.53
344.555	4.51
345.006	4.49
345.457	4.49
345.908	4.48
346.359	4.47
346.81	4.47
347.261	4.46
347.712	4.46
348.163	4.45
348.613	4.44
349.064	4.43
349.515	4.42
349.965	4.42
350.416	4.4
350.866	4.39
351.317	4.38
351.767	4.37
352.217	4.37
352.668	4.36
353.118	4.35
353.568	4.34
354.018	4.34
354.468	4.34
354.918	4.34
355.368	4.34
355.818	4.34
356.268	4.34
356.718	4.33
357.168	4.32
357.617	4.31
358.067	4.3
358.517	4.3
358.966	4.31
359.416	4.3
359.865	4.29
360.315	4.28
360.764	4.27
361.213	4.26
361.663	4.25
362.112	4.26
362.561	4.26
363.01	4.25
363.459	4.24
363.908	4.22
364.357	4.21
364.806	4.19
365.255	4.19
365.703	4.2
366.152	4.19
366.601	4.19
367.05	4.19
367.498	4.17
367.947	4.17
368.395	4.18
368.844	4.18
369.292	4.18
369.74	4.19
370.189	4.18
370.637	4.18
371.085	4.18
371.533	4.18
371.981	4.18
372.429	4.19
372.877	4.2
373.325	4.2
373.773	4.2
374.221	4.2
374.669	4.2
375.116	4.19
375.564	4.2
376.012	4.2
376.459	4.2
376.907	4.21
377.354	4.21
377.801	4.21
378.249	4.21
378.696	4.22
379.143	4.23
379.591	4.24
380.038	4.26
380.485	4.27
380.932	4.28
381.379	4.29
381.826	4.3
382.273	4.32
382.72	4.32
383.166	4.33
383.613	4.35
384.06	4.36
384.506	4.38
384.953	4.4
385.4	4.42
385.846	4.45
386.292	4.46
386.739	4.48
387.185	4.5
387.631	4.53
388.078	4.55
388.524	4.58
388.97	4.6
389.416	4.62
389.862	4.65
390.308	4.67
390.754	4.69
391.2	4.72
391.645	4.75
392.091	4.78
392.537	4.8
392.983	4.82
393.428	4.85
393.874	4.87
394.319	4.89
394.765	4.9
395.21	4.92
395.655	4.94
396.101	4.96
396.546	4.98
396.991	4.99
397.436	5.01
397.881	5.04
398.326	5.07
398.771	5.09
399.216	5.11
399.661	5.12
400.106	5.13
400.551	5.15
400.995	5.15
401.44	5.15
401.885	5.16
402.329	5.18
402.774	5.18
403.218	5.2
403.663	5.21
404.107	5.21
404.551	5.2
404.995	5.2
405.44	5.19
405.884	5.2
406.328	5.21
406.772	5.2
407.216	5.2
407.66	5.18
408.104	5.16
408.547	5.15
408.991	5.16
409.435	5.16
409.879	5.16
410.322	5.18
410.766	5.18
411.209	5.18
411.653	5.19
412.096	5.2
412.54	5.2
412.983	5.19
413.426	5.21
413.869	5.21
414.312	5.22
414.756	5.23
415.199	5.21
415.642	5.21
416.085	5.2
416.527	5.19
416.97	5.17
417.413	5.17
417.856	5.18
418.298	5.15
418.741	5.14
419.184	5.14
419.626	5.14
420.069	5.14
420.511	5.13
420.953	5.13
421.396	5.13
421.838	5.12
422.28	5.11
422.722	5.11
423.164	5.11
423.606	5.11
424.048	5.1
424.49	5.08
424.932	5.07
425.374	5.05
425.816	5.02
426.258	5
426.699	4.99
427.141	4.98
427.582	4.96
428.024	4.96
428.465	4.96
428.907	4.94
429.348	4.93
429.789	4.93
430.231	4.94
430.672	4.94
431.113	4.95
431.554	4.96
431.995	4.96
432.436	4.96
432.877	4.95
433.318	4.97
433.759	4.98
434.2	4.99
434.64	4.99
435.081	4.99
435.522	5
435.962	5.01
436.403	5.03
436.843	5.05
437.284	5.06
437.724	5.06
438.164	5.05
438.604	5.06
439.045	5.07
439.485	5.08
439.925	5.09
440.365	5.11
440.805	5.12
441.245	5.13
441.685	5.15
442.125	5.19
442.564	5.21
443.004	5.23
443.444	5.25
443.883	5.28
444.323	5.28
444.762	5.29
445.202	5.3
445.641	5.33
446.081	5.36
446.52	5.35
446.959	5.37
447.398	5.41
447.837	5.44
448.276	5.45
448.716	5.47
449.154	5.51
449.593	5.53
450.032	5.54
450.471	5.56
450.91	5.55
451.349	5.58
451.787	5.58
452.226	5.56
452.664	5.56
453.103	5.57
453.541	5.57
453.98	5.59
454.418	5.59
454.856	5.59
455.295	5.58
455.733	5.57
456.171	5.55
456.609	5.56
457.047	5.55
457.485	5.54
457.923	5.54
458.361	5.53
458.798	5.52
459.236	5.52
459.674	5.52
460.111	5.51
460.549	5.52
460.987	5.53
461.424	5.55
461.862	5.57
462.299	5.57
462.736	5.56
463.173	5.57
463.611	5.57
464.048	5.58
464.485	5.58
464.922	5.59
465.359	5.59
465.796	5.59
466.233	5.58
466.67	5.57
467.106	5.58
467.543	5.58
467.98	5.57
468.416	5.57
468.853	5.56
469.29	5.56
469.726	5.56
470.162	5.56
470.599	5.55
471.035	5.53
471.471	5.53
471.907	5.52
472.344	5.53
472.78	5.53
473.216	5.53
473.652	5.52
474.088	5.52
474.523	5.53
474.959	5.53
475.395	5.52
475.831	5.53
476.266	5.53
476.702	5.52
477.138	5.51
477.573	5.52
478.008	5.52
478.444	5.51
478.879	5.52
479.314	5.5
479.75	5.49
480.185	5.49
480.62	5.48
481.055	5.47
481.49	5.47
481.925	5.47
482.36	5.48
482.795	5.47
483.229	5.47
483.664	5.47
484.099	5.47
484.534	5.48
484.968	5.5
485.403	5.51
485.837	5.52
486.271	5.54
486.706	5.56
487.14	5.57
487.574	5.6
488.009	5.62
488.443	5.65
488.877	5.68
489.311	5.72
489.745	5.74
490.179	5.78
490.613	5.83
491.046	5.86
491.48	5.91
491.914	5.96
492.348	6.01
492.781	6.08
493.215	6.14
493.648	6.21
494.082	6.27
494.515	6.34
494.948	6.41
495.382	6.49
495.815	6.58
496.248	6.67
496.681	6.76
497.114	6.85
497.547	6.95
497.98	7.05
498.413	7.16
498.846	7.27
499.279	7.39
499.711	7.51
500.144	7.64
500.577	7.78
501.009	7.9
501.442	8.04
501.874	8.2
502.306	8.35
502.739	8.53
503.171	8.7
503.603	8.87
504.036	9.06
504.468	9.24
504.9	9.42
505.332	9.61
505.764	9.82
506.196	10.03
506.627	10.24
507.059	10.47
507.491	10.7
507.923	10.93
508.354	11.18
508.786	11.42
509.217	11.69
509.649	11.95
510.08	12.22
510.512	12.49
510.943	12.77
511.374	13.05
511.805	13.32
512.237	13.61
512.668	13.9
513.099	14.2
513.53	14.49
513.961	14.79
514.391	15.1
514.822	15.41
515.253	15.71
515.684	16.01
516.114	16.32
516.545	16.64
516.975	16.95
517.406	17.26
517.836	17.56
518.267	17.86
518.697	18.15
519.127	18.43
519.558	18.71
519.988	19.01
520.418	19.29
520.848	19.57
521.278	19.85
521.708	20.14
522.138	20.41
522.567	20.67
522.997	20.91
523.427	21.16
523.857	21.39
524.286	21.6
524.716	21.83
525.145	22.04
525.575	22.26
526.004	22.45
526.433	22.61
526.863	22.8
527.292	22.98
527.721	23.14
528.15	23.31
528.579	23.48
529.008	23.64
529.437	23.77
529.866	23.91
530.295	24.03
530.724	24.16
531.152	24.27
531.581	24.36
532.01	24.47
532.438	24.6
532.867	24.69
533.295	24.78
533.723	24.87
534.152	24.96
534.58	25.03
535.008	25.08
535.436	25.15
535.865	25.21
536.293	25.28
536.721	25.32
537.149	25.37
537.576	25.43
538.004	25.48
538.432	25.52
538.86	25.56
539.287	25.59
539.715	25.67
540.143	25.71
540.57	25.74
540.998	25.78
541.425	25.82
541.852	25.85
542.28	25.89
542.707	25.92
543.134	25.95
543.561	25.98
543.988	26.02
544.415	26.02
544.842	26.04
545.269	26.07
545.696	26.09
546.123	26.11
546.549	26.13
546.976	26.15
547.403	26.18
547.829	26.2
548.256	26.21
548.682	26.21
549.108	26.23
549.535	26.24
549.961	26.24
550.387	26.24
550.813	26.25
551.24	26.24
551.666	26.23
552.092	26.21
552.518	26.19
552.943	26.17
553.369	26.15
553.795	26.11
554.221	26.09
554.646	26.06
555.072	26.01
555.498	25.94
555.923	25.9
556.349	25.83
556.774	25.77
557.199	25.71
557.625	25.64
558.05	25.57
558.475	25.5
558.9	25.42
559.325	25.33
559.75	25.27
560.175	25.18
560.6	25.08
561.025	24.98
561.449	24.86
561.874	24.76
562.299	24.64
562.723	24.53
563.148	24.38
563.572	24.25
563.997	24.12
564.421	23.97
564.846	23.84
565.27	23.7
565.694	23.58
566.118	23.45
566.542	23.31
566.966	23.15
567.39	23.01
567.814	22.88
568.238	22.73
568.662	22.59
569.086	22.45
569.509	22.3
569.933	22.17
570.357	22.01
570.78	21.87
571.204	21.71
571.627	21.57
572.05	21.43
572.474	21.31
572.897	21.19
573.32	21.05
573.743	20.92
574.166	20.8
574.589	20.66
575.012	20.53
575.435	20.41
575.858	20.3
576.281	20.19
576.704	20.08
577.126	19.96
577.549	19.85
577.972	19.75
578.394	19.64
578.817	19.53
579.239	19.43
579.661	19.34
580.084	19.25
580.506	19.15
580.928	19.06
581.35	18.98
581.772	18.89
582.194	18.81
582.616	18.74
583.038	18.66
583.46	18.58
583.882	18.52
584.303	18.45
584.725	18.38
585.147	18.32
585.568	18.27
585.99	18.21
586.411	18.14
586.833	18.07
587.254	18
587.675	17.94
588.096	17.9
588.518	17.84
588.939	17.8
589.36	17.73
589.781	17.7
590.202	17.64
590.623	17.61
591.043	17.56
591.464	17.53
591.885	17.48
592.305	17.44
592.726	17.41
593.147	17.36
593.567	17.33
593.987	17.3
594.408	17.26
594.828	17.22
595.248	17.18
595.669	17.16
596.089	17.12
596.509	17.09
596.929	17.06
597.349	17.03
597.769	16.99
598.189	16.94
598.608	16.9
599.028	16.87
599.448	16.83
599.867	16.78
600.287	16.74
600.706	16.69
601.126	16.63
601.545	16.59
601.965	16.54
602.384	16.5
602.803	16.44
603.222	16.38
603.641	16.3
604.061	16.23
604.48	16.16
604.898	16.07
605.317	15.99
605.736	15.92
606.155	15.83
606.574	15.75
606.992	15.67
607.411	15.58
607.829	15.48
608.248	15.4
608.666	15.31
609.085	15.24
609.503	15.16
609.921	15.08
610.339	14.99
610.758	14.9
611.176	14.8
611.594	14.71
612.012	14.62
612.43	14.55
612.847	14.47
613.265	14.37
613.683	14.29
614.101	14.21
614.518	14.13
614.936	14.05
615.353	13.98
615.771	13.91
616.188	13.84
616.606	13.77
617.023	13.72
617.44	13.65
617.857	13.6
618.274	13.55
618.691	13.49
619.108	13.44
619.525	13.39
619.942	13.34
620.359	13.3
620.776	13.27
621.192	13.23
621.609	13.2
622.026	13.18
622.442	13.15
622.859	13.13
623.275	13.1
623.691	13.08
624.108	13.06
624.524	13.05
624.94	13.04
625.356	13.03
625.772	13.02
626.188	13.01
626.604	13
627.02	13
627.436	12.98
627.852	12.98
628.268	12.98
628.683	12.98
629.099	12.97
629.514	12.95
629.93	12.94
630.345	12.92
630.761	12.89
631.176	12.87
631.591	12.83
632.007	12.8
632.422	12.76
632.837	12.71
633.252	12.65
633.667	12.58
634.082	12.51
634.497	12.45
634.911	12.37
635.326	12.29
635.741	12.21
636.155	12.12
636.57	12.03
636.984	11.93
637.399	11.82
637.813	11.71
638.228	11.61
638.642	11.49
639.056	11.36
639.47	11.25
639.884	11.12
640.298	11
640.712	10.87
641.126	10.74
641.54	10.6
641.954	10.48
642.368	10.34
642.781	10.21
643.195	10.08
643.609	9.95
644.022	9.82
644.436	9.7
644.849	9.58
645.262	9.46
645.676	9.35
646.089	9.25
646.502	9.15
646.915	9.06
647.328	8.98
647.741	8.9
648.154	8.81
648.567	8.74
648.98	8.66
649.393	8.6
649.805	8.54
650.218	8.48
650.631	8.42
651.043	8.36
651.456	8.3
651.868	8.24
652.28	8.17
652.693	8.11
653.105	8.04
653.517	7.97
653.929	7.9
654.341	7.81
654.753	7.72
655.165	7.64
655.577	7.55
655.989	7.45
656.401	7.36
656.813	7.26
657.224	7.15
657.636	7.05
658.047	6.96
658.459	6.86
658.87	6.76
659.282	6.66
659.693	6.55
660.104	6.46
660.515	6.36
660.926	6.25
661.338	6.16
661.749	6.07
662.159	5.97
662.57	5.88
662.981	5.79
663.392	5.71
663.803	5.63
664.213	5.55
664.624	5.47
665.035	5.39
665.445	5.34
665.855	5.28
666.266	5.23
666.676	5.2
667.086	5.15
667.497	5.1
667.907	5.07
668.317	5.04
668.727	5.01
669.137	4.99
669.547	4.97
669.956	4.94
670.366	4.92
670.776	4.9
671.186	4.88
671.595	4.88
672.005	4.87
672.414	4.87
672.824	4.86
673.233	4.86
673.642	4.86
674.052	4.86
674.461	4.88
674.87	4.89
675.279	4.91
675.688	4.93
676.097	4.95
676.506	4.98
676.915	5.01
677.323	5.04
677.732	5.08
678.141	5.12
678.549	5.17
678.958	5.22
679.366	5.29
679.775	5.34
680.183	5.42
680.592	5.51
681	5.6
681.408	5.71
681.816	5.83
682.224	5.97
682.632	6.13
683.04	6.3
683.448	6.49
683.856	6.67
684.264	6.9
684.671	7.14
685.079	7.39
685.487	7.69
685.894	8.01
686.302	8.36
686.709	8.73
687.116	9.13
687.524	9.55
687.931	10.01
688.338	10.49
688.745	11
689.152	11.51
689.559	12.06
689.966	12.6
690.373	13.17
690.78	13.76
691.187	14.36
691.593	14.95
692	15.55
692.407	16.14
692.813	16.76
693.22	17.37
693.626	18
694.032	18.61
694.439	19.23
694.845	19.84
695.251	20.43
695.657	21.02
696.063	21.61
696.469	22.19
696.875	22.77
697.281	23.32
697.687	23.89
698.093	24.43
698.498	24.97
698.904	25.5
699.31	26.01
699.715	26.52
700.12	26.99
700.526	27.49
700.931	27.97
701.337	28.42
701.742	28.87
702.147	29.29
702.552	29.71
702.957	30.1
703.362	30.49
703.767	30.88
704.172	31.25
704.577	31.63
704.981	31.98
705.386	32.33
705.791	32.68
706.195	33.04
706.6	33.38
707.004	33.7
707.408	34.04
707.813	34.36
708.217	34.66
708.621	34.99
709.025	35.27
709.43	35.54
709.834	35.84
710.237	36.1
710.641	36.35
711.045	36.62
711.449	36.9
711.853	37.16
712.256	37.41
712.66	37.66
713.064	37.87
713.467	38.1
713.87	38.35
714.274	38.54
714.677	38.77
715.08	38.98
715.484	39.19
715.887	39.39
716.29	39.57
716.693	39.75
717.096	39.94
717.499	40.15
717.901	40.34
718.304	40.53
718.707	40.72
719.109	40.9
719.512	41.09
719.915	41.24
720.317	41.37
720.719	41.5
721.122	41.66
721.524	41.81
721.926	41.93
722.328	42.08
722.731	42.19
723.133	42.33
723.535	42.44
723.937	42.57
724.338	42.68
724.74	42.82
725.142	42.97
725.544	43.06
725.945	43.17
726.347	43.27
726.748	43.35
727.15	43.44
727.551	43.54
727.952	43.62
728.354	43.71
728.755	43.78
729.156	43.83
729.557	43.88
729.958	43.94
730.359	43.98
730.76	44.04
731.161	44.1
731.562	44.17
731.962	44.2
732.363	44.23
732.763	44.27
733.164	44.34
733.564	44.39
733.965	44.42
734.365	44.49
734.766	44.57
735.166	44.6
735.566	44.65
735.966	44.69
736.366	44.74
736.766	44.79
737.166	44.83
737.566	44.86
737.966	44.89
738.365	44.95
738.765	44.98
739.165	44.99
739.564	45.02
739.964	45.06
740.363	45.06
740.763	45.09
741.162	45.1
741.561	45.12
741.96	45.11
742.36	45.14
742.759	45.15
743.158	45.16
743.557	45.16
743.955	45.2
744.354	45.22
744.753	45.27
745.152	45.3
745.55	45.3
745.949	45.32
746.348	45.37
746.746	45.36
747.144	45.39
747.543	45.39
747.941	45.42
748.339	45.38
748.737	45.37
749.136	45.35
749.534	45.35
749.932	45.36
750.33	45.35
750.727	45.35
751.125	45.37
751.523	45.36
751.921	45.36
752.318	45.37
752.716	45.4
753.113	45.43
753.511	45.44
753.908	45.46
754.305	45.46
754.703	45.48
755.1	45.46
755.497	45.47
755.894	45.48
756.291	45.48
756.688	45.45
757.085	45.45
757.482	45.43
757.878	45.44
758.275	45.42
758.672	45.42
759.068	45.42
759.465	45.43
759.861	45.43
760.258	45.42
760.654	45.42
761.05	45.43
761.447	45.45
761.843	45.44
762.239	45.42
762.635	45.41
763.031	45.42
763.427	45.39
763.822	45.39
764.218	45.37
764.614	45.37
765.01	45.38
765.405	45.38
765.801	45.36
766.196	45.36
766.592	45.33
766.987	45.35
767.382	45.35
767.778	45.35
768.173	45.34
768.568	45.36
768.963	45.33
769.358	45.32
769.753	45.3
770.148	45.31
770.542	45.31
770.937	45.33
771.332	45.34
771.726	45.33
772.121	45.32
772.515	45.33
772.91	45.33
773.304	45.34
773.699	45.34
774.093	45.33
774.487	45.32
774.881	45.32
775.275	45.3
775.669	45.28
776.063	45.25
776.457	45.25
776.851	45.22
777.245	45.19
777.638	45.17
778.032	45.18
778.425	45.21
778.819	45.2
779.212	45.23
779.606	45.25
779.999	45.26
780.392	45.31
780.786	45.33
781.179	45.35
781.572	45.39
781.965	45.42
782.358	45.43
782.751	45.41
783.143	45.4
783.536	45.35
783.929	45.35
784.322	45.35
784.714	45.33
785.107	45.32
785.499	45.33
785.891	45.31
786.284	45.3
786.676	45.29
787.068	45.27
787.46	45.28
787.852	45.3
788.245	45.29
788.636	45.29
789.028	45.3
789.42	45.26
789.812	45.29
790.204	45.27
790.595	45.28
790.987	45.29
791.378	45.32
791.77	45.32
792.161	45.3
792.553	45.31
792.944	45.3
793.335	45.3
793.726	45.3
794.117	45.27
794.508	45.26
794.899	45.25
795.29	45.23
795.681	45.19
796.072	45.19
796.463	45.2
796.853	45.19
797.244	45.18
797.634	45.16
798.025	45.2
798.415	45.2
798.806	45.22
799.196	45.22
799.586	45.24
799.976	45.25
800.366	45.24
800.756	45.24
801.146	45.23
801.536	45.23
801.926	45.22
802.316	45.18
802.706	45.2
803.095	45.18
803.485	45.15
803.874	45.12
804.264	45.12
804.653	45.1
805.043	45.11
805.432	45.12
805.821	45.15
806.21	45.15
806.599	45.18
806.988	45.16
807.377	45.17
807.766	45.16
808.155	45.16
808.544	45.18
808.933	45.17
809.321	45.17
809.71	45.17
810.098	45.13
810.487	45.12
810.875	45.11
811.264	45.11
811.652	45.11
812.04	45.13
812.428	45.17
812.816	45.16
813.204	45.15
813.592	45.15
813.98	45.14
814.368	45.16
814.756	45.16
815.144	45.14
815.531	45.12
815.919	45.1
816.306	45.09
816.694	45.06
817.081	45.08
817.469	45.09
817.856	45.09
818.243	45.09
818.63	45.09
819.017	45.08
819.404	45.09
819.791	45.1
820.178	45.11
820.565	45.07
820.952	45.06
821.339	45.02
821.725	45.02
822.112	44.99
822.498	44.98
822.885	44.99
823.271	44.98
823.657	44.94
824.044	44.97
824.43	45
824.816	45.01
825.202	45.01
825.588	45.03
825.974	45.02
826.36	45.04
826.746	45.02
827.132	44.99
827.517	45.02
827.903	45.07
828.289	45.06
828.674	45.05
829.06	45.05
829.445	45.06
829.83	45.04
830.216	45.04
830.601	45.04
830.986	45.06
831.371	45.06
831.756	45.04
832.141	45.02
832.526	45.01
832.911	44.99
833.295	44.99
833.68	45
834.065	45.03
834.449	45.04
834.834	45.05
835.218	45.07
835.603	45.07
835.987	45.05
836.371	45.04
836.755	45.03
837.139	45.04
837.524	45.03
837.908	45.06
838.291	45.07
838.675	45.08
839.059	45.06
839.443	45.05
839.827	45.06
840.21	45.05
840.594	45.06
840.977	45.09
841.361	45.1
841.744	45.09
842.127	45.05
842.511	45
842.894	44.96
843.277	44.99
843.66	44.98
844.043	44.99
844.426	45
844.809	45.02
845.191	45
845.574	44.98
845.957	44.99
846.339	45.01
846.722	45.03
847.104	45.06
847.487	45.04
847.869	45.03
848.252	45.02
848.634	45.03
849.016	45.01
849.398	45
849.78	45
850.162	44.99
850.544	44.99
850.926	45.01
851.307	44.99
851.689	44.98
852.071	45
852.452	44.99
852.834	45.01
853.215	45
853.597	45.03
853.978	45.04
854.359	45.04
854.741	45.06
855.122	45.05
855.503	45.05
855.884	45.07
856.265	45.07
856.646	45.08
857.026	45.08
857.407	45.11
857.788	45.1
858.169	45.12
858.549	45.12
858.93	45.11
859.31	45.09
859.69	45.09
860.071	45.1
860.451	45.1
860.831	45.11
861.211	45.07
861.591	45.05
861.971	45.05
862.351	45.06
862.731	45.06
863.111	45.04
863.491	45.07
863.87	45.07
864.25	45.05
864.629	45.05
865.009	45.04
865.388	45.03
865.768	45.01
866.147	45.01
866.526	44.98
866.905	44.96
867.284	44.96
867.663	44.95
868.042	44.94
868.421	44.93
868.8	44.93
869.179	44.97
869.558	44.98
869.936	44.97
870.315	44.95
870.693	44.96
871.072	44.96
871.45	44.99
871.828	44.99
872.207	45
872.585	44.99
872.963	44.98
873.341	44.94
873.719	44.95
874.097	44.98
874.475	45
874.853	45
875.23	45.01
875.608	45.01
875.986	45.02
876.363	45
876.741	45.02
877.118	45.04
877.495	45.04
877.873	45.06
878.25	45.08
878.627	45.09
879.004	45.1
879.381	45.12
879.758	45.1
880.135	45.1
880.512	45.11
880.889	45.1
881.265	45.09
881.642	45.1
882.019	45.08
882.395	45.04
882.772	45.02
883.148	45
883.524	44.96
883.901	44.95
884.277	44.92
884.653	44.91
885.029	44.91
885.405	44.9
885.781	44.9
886.157	44.9
886.532	44.92
886.908	44.89
887.284	44.91
887.659	44.91
888.035	44.9
888.411	44.9
888.786	44.89
889.161	44.9
889.537	44.92
889.912	44.91
890.287	44.92
890.662	44.91
891.037	44.93
891.412	44.92
891.787	44.92
892.162	44.92
892.536	44.91
892.911	44.91
893.286	44.89
893.66	44.88
894.035	44.87
894.409	44.86
894.784	44.86
895.158	44.85
895.532	44.85
895.906	44.85
896.281	44.87
896.655	44.87
897.029	44.91
897.402	44.91
897.776	44.91
898.15	44.91
898.524	44.92
898.898	44.92
899.271	44.94
899.645	44.96
900.018	44.97
900.392	44.97
900.765	44.99
901.138	44.95
901.511	44.96
901.884	44.97
902.258	44.98
902.631	44.97
903.003	44.99
903.376	44.97
903.749	44.97
904.122	44.97
904.495	44.95
904.867	44.96
905.24	44.99
905.612	45
905.985	45
906.357	44.99
906.729	45.02
907.102	45
907.474	45.02
907.846	44.99
908.218	44.98
908.59	45.01
908.962	44.99
909.334	45
909.705	45
910.077	44.99
910.449	44.99
910.82	44.97
911.192	44.96
911.563	44.92
911.935	44.92
912.306	44.93
912.677	44.91
913.048	44.92
913.419	44.88
913.79	44.88
914.161	44.9
914.532	44.89
914.903	44.88
915.274	44.91
915.645	44.95
916.015	44.96
916.386	44.98
916.756	44.99
917.127	44.97
917.497	44.96
917.868	44.96
918.238	44.93
918.608	44.94
918.978	44.93
919.348	44.92
919.718	44.88
920.088	44.88
920.458	44.86
920.828	44.82
921.198	44.79
921.567	44.79
921.937	44.78
922.306	44.77
922.676	44.76
923.045	44.73
923.415	44.72
923.784	44.73
924.153	44.71
924.522	44.71
924.891	44.73
925.26	44.72
925.629	44.72
925.998	44.71
926.367	44.73
926.736	44.71
927.104	44.72
927.473	44.71
927.842	44.66
928.21	44.63
928.578	44.6
928.947	44.64
929.315	44.64
929.683	44.62
930.051	44.59
930.42	44.6
930.788	44.58
931.156	44.56
931.523	44.54
931.891	44.57
932.259	44.59
932.627	44.57
932.994	44.53
933.362	44.52
933.729	44.51
934.097	44.54
934.464	44.51
934.831	44.52
935.199	44.53
935.566	44.54
935.933	44.55
936.3	44.5
936.667	44.52
937.034	44.48
937.401	44.51
937.767	44.51
938.134	44.49
938.501	44.49
938.867	44.54
939.234	44.54
939.6	44.55
939.967	44.53
940.333	44.53
940.699	44.55
941.065	44.55
941.431	44.5
941.798	44.52
942.163	44.51
942.529	44.54
942.895	44.49
943.261	44.47
943.627	44.49
943.992	44.5
944.358	44.55
944.723	44.54
945.089	44.52
945.454	44.57
945.82	44.53
946.185	44.57
946.55	44.49
946.915	44.46
947.28	44.45
947.645	44.44
948.01	44.43
948.375	44.44
948.74	44.41
949.104	44.47
949.469	44.48
949.834	44.45
950.198	44.42
950.562	44.43
950.927	44.42
951.291	44.39
951.655	44.33
952.02	44.31
952.384	44.32
952.748	44.32
953.112	44.25
953.476	44.17
953.839	44.17
954.203	44.16
954.567	44.15
954.931	44.13
955.294	44.12
955.658	44.17
956.021	44.17
956.385	44.08
956.748	44.05
957.111	44.05
957.474	44.03
957.837	43.98
958.2	43.92
958.563	43.87
958.926	43.91
959.289	43.92
959.652	43.89
960.015	43.88
960.377	43.87
960.74	43.93
961.102	43.97
961.465	44.01
961.827	44.05
962.189	44.14
962.552	44.15
962.914	44.12
963.276	44.15
963.638	44.14
964	44.09
964.362	44.12
964.724	44.11
965.085	44.05
965.447	43.98
965.809	43.95
966.17	43.87
966.532	43.93
966.893	43.94
967.255	43.91
967.616	43.9
967.977	43.92
968.338	43.91
968.699	43.91
969.061	43.91
969.421	43.96
969.782	43.99
970.143	43.98
970.504	43.95
970.865	43.96
971.225	43.91
971.586	43.9
971.946	43.93
972.307	43.9
972.667	43.83
973.027	43.85
973.388	43.84
973.748	43.84
974.108	43.94
974.468	43.89
974.828	43.85
975.188	43.89
975.548	43.9
975.907	43.88
976.267	43.85
976.627	43.91
976.986	43.87
977.346	43.87
977.705	43.8
978.064	43.75
978.424	43.78
978.783	43.76
979.142	43.7
979.501	43.65
979.86	43.68
980.219	43.69
980.578	43.69
980.937	43.73
981.296	43.73
981.654	43.81
982.013	43.86
982.371	43.83
982.73	43.87
983.088	43.89
983.447	43.88
983.805	43.83
984.163	43.8
984.521	43.76
984.879	43.69
985.237	43.62
985.595	43.64
985.953	43.55
986.311	43.5
986.669	43.5
987.026	43.48
987.384	43.55
987.741	43.57
988.099	43.67
988.456	43.67
988.814	43.69
989.171	43.74
989.528	43.69
989.885	43.7
990.242	43.69
990.599	43.68
990.956	43.8
991.313	43.81
991.67	43.82
992.027	43.82
992.383	43.84
992.74	43.94
993.096	43.9
993.453	43.92
993.809	43.89
994.165	43.98
994.522	43.88
994.878	43.8
995.234	43.74
995.59	43.66
995.946	43.56
996.302	43.61
996.658	43.47
997.013	43.43
997.369	43.44
997.725	43.44
998.08	43.45
998.436	43.57
998.791	43.57
999.147	43.51
999.502	43.51
999.857	43.58
1000.212	43.41
1000.567	43.4
1000.922	43.39
1001.277	43.27
1001.632	43.23
1001.987	43.24
1002.342	43.15
1002.696	43.02
1003.051	43.24
1003.406	43.31
1003.76	43.2
1004.114	43.21
1004.469	43.3
1004.823	43.52
1005.177	43.53
1005.531	43.63
1005.885	43.49
1006.239	43.52
1006.593	43.64
1006.947	43.58
1007.301	43.54
1007.655	43.64
1008.008	43.74
1008.362	43.74
1008.715	43.59
1009.069	43.77
1009.422	43.69
1009.776	43.77
1010.129	43.72
1010.482	43.72
1010.835	43.61
1011.188	43.63
1011.541	43.54
1011.894	43.58
1012.247	43.36
1012.6	43.4
1012.952	43.2
1013.305	43.23
1013.657	43.26
1014.01	43.23
1014.362	43.16
1014.715	43.25
1015.067	43.26
1015.419	43.28
1015.771	43.13
1016.123	43.19
1016.475	43.12
1016.827	43.25
1017.179	43.41
1017.531	43.29
1017.883	43.3
1018.234	43.29
1018.586	43.26
1018.938	43.28
1019.289	43.14
1019.64	43.18
1019.992	43.22
1020.343	43.13
1020.694	42.99
1021.045	42.81
1021.396	42.96
1021.747	43.11
1022.098	43.29
1022.449	43.25
1022.8	43.31
1023.151	43.36
1023.501	43.39
1023.852	43.3
1024.202	43.36
1024.553	43.47
1024.903	43.37
1025.253	43.32
1025.604	43.31
1025.954	42.85
1026.304	43.04
1026.654	43.02
1027.004	43.13
1027.354	42.93
1027.703	42.9
1028.053	42.85
1028.403	42.66
1028.753	42.52
1029.102	42.69
1029.452	42.77
1029.801	43.21
1030.15	42.94
1030.499	42.74
897.758	718.76
901.051	727.08
904.343	727.73
907.636	737.73
910.928	717.06
914.22	719.87
917.511	710.23
920.803	679.99
924.094	677.71
927.384	661.36
930.675	637.19
933.965	636.82
937.255	598.53
940.544	575.35
943.834	551.56
947.123	547.21
950.411	516.59
953.7	507.67
956.988	481.22
960.276	463.54
963.563	455.04
966.851	440.48
970.138	435.96
973.424	424.09
976.711	424.77
979.997	405.31
983.283	402.15
986.568	393.52
989.853	381.94
993.138	374.14
996.423	360.19
999.708	351.34
1002.992	346.03
1006.275	331.28
1009.559	328.02
1012.842	315.34
1016.125	308.18
1019.408	303.73
1022.69	298.88
1025.972	292.54
1029.254	286.56
1032.536	282.44
1035.817	277.35
1039.098	274.59
1042.379	269.03
1045.659	266.26
1048.939	261.62
1052.219	255.62
1055.498	252.4
1058.778	247.34
1062.057	242.38
1065.335	239.69
1068.614	237.07
1071.892	234.62
1075.17	228.17
1078.447	224.96
1081.724	223.01
1085.001	221.95
1088.278	217.67
1091.554	213.71
1094.83	214.01
1098.106	212.9
1101.382	211.9
1104.657	210.95
1107.932	206.4
1111.206	207.75
1114.481	203.33
1117.755	201.69
1121.029	199.67
1124.302	199.05
1127.575	196.24
1130.848	194.42
1134.121	192.48
1137.393	190.87
1140.665	186.59
1143.937	186.31
1147.208	185.11
1150.48	183.96
1153.75	182.04
1157.021	180.29
1160.291	180.35
1163.561	177.7
1166.831	177.32
1170.101	176.07
1173.37	176.43
1176.639	177.22
1179.907	175.76
1183.176	173.61
1186.444	173.39
1189.711	172.79
1192.979	171.9
1196.246	171.66
1199.513	173.02
1202.78	171.52
1206.046	171.91
1209.312	170.03
1212.578	169.96
1215.843	171.19
1219.108	170.54
1222.373	174
1225.638	175.19
1228.902	177.09
1232.166	177.18
1235.43	178.22
1238.693	180.49
1241.956	180.75
1245.219	182.84
1248.482	182.87
1251.744	182.83
1255.006	183.3
1258.268	179.01
1261.529	178.18
1264.79	176.91
1268.051	176.02
1271.312	173.11
1274.572	172.36
1277.832	171.01
1281.092	168.22
1284.351	167.34
1287.61	167.36
1290.869	165.55
1294.128	165.18
1297.386	164.6
1300.644	163.7
1303.902	163.81
1307.159	163.47
1310.416	162.99
1313.673	162.39
1316.93	164.28
1320.186	163.46
1323.442	164.01
1326.697	165.79
1329.953	166.19
1333.208	166.7
1336.463	168.61
1339.717	168.56
1342.972	170.85
1346.226	170.98
1349.479	171.95
1352.733	173.18
1355.986	174.94
1359.238	174.42
1362.491	174.78
1365.743	175.76
1368.995	175.05
1372.247	175.53
1375.498	175.27
1378.749	175.98
1382	174.76
1385.251	174.53
1388.501	172.72
1391.751	172.07
1395	171.8
1398.25	170.46
1401.499	168.98
1404.748	169.22
1407.996	166.18
1411.244	165.18
1414.492	163.51
1417.74	161.63
1420.987	160.28
1424.234	159.33
1427.481	157.14
1430.728	156.35
1433.974	155.84
1437.22	153.72
1440.465	153.58
1443.711	152.02
1446.956	150.76
1450.201	149.68
1453.445	148.84
1456.689	147.91
1459.933	145
1463.177	144.68
1466.42	142.04
1469.663	139.89
1472.906	139.9
1476.148	136.63
1479.391	135.44
1482.633	134.85
1485.874	132.43
1489.115	131.45
1492.356	130.34
1495.597	130.88
1498.838	128.76
1502.078	128.92
1505.318	128.58
1508.557	128.54
1511.797	128.03
1515.036	127.46
1518.274	126.61
1521.513	126.46
1524.751	126.13
1527.989	126.08
1531.227	125.93
1534.464	126.07
1537.701	124.94
1540.938	124.73
1544.174	123.89
1547.41	123.78
1550.646	123.46
1553.882	123.96
1557.117	122.87
1560.352	122.24
1563.587	122.27
1566.821	121.56
1570.055	121.08
1573.289	120.9
1576.523	120.93
1579.756	119.33
1582.989	119.97
1586.222	119.42
1589.454	119.11
1592.686	120.31
1595.918	119.61
1599.15	118.78
1602.381	119.32
1605.612	119.21
1608.843	119.32
1612.073	118.95
1615.303	120.09
1618.533	120.03
1621.762	119.86
1624.992	120.36
1628.221	119.71
1631.449	119.73
1634.678	119.85
1637.906	120.17
1641.134	119.85
1644.361	119.84
1647.588	120.41
1650.815	120.27
1654.042	119.37
1657.269	120.48
1660.495	120.07
1663.72	119.64
1666.946	120.62
1670.171	120.81
1673.396	120.53
1676.621	120.88
1679.845	121.47
1683.069	121.36
1686.293	122.06
1689.517	122.48
1692.74	122.14
1695.963	122.13
1699.185	123.11
1702.408	123.31
1705.63	123.62
1708.852	124.18
1712.073	124.21
1715.294	123.9
1718.515	124.75
1721.736	124.47
1724.956	124.62
1728.176	124.7
1731.396	125.54
1734.616	125.17
1737.835	125.31
1741.054	124.89
1744.272	124.69
1747.491	125.85
1750.709	125.83
1753.927	125.41
1757.144	125.04
1760.361	125.71
1763.578	126.08
1766.795	125.53
1770.011	126.72
1773.227	126.53
1776.443	127.22
1779.658	127.54
1782.874	127.73
1786.089	127.74
1789.303	128.05
1792.518	129.28
1795.732	129.4
1798.945	129.93
1802.159	130.55
1805.372	130.5
1808.585	132.08
1811.797	132.66
1815.01	132.95
1818.222	133.38
1821.434	135.24
1824.645	135.09
1827.856	137.59
1831.067	137.98
1834.278	138.11
1837.488	138.65
1840.698	139.1
1843.908	138.29
1847.117	138.88
1850.326	139.54
1853.535	138.33
1856.744	139.67
1859.952	139.56
1863.16	137.88
1866.368	136.22
1869.575	136.67
1872.782	134.69
1875.989	133.09
1879.196	132.39
1882.402	130.64
1885.608	130.39
1888.814	130.37
1892.019	127.9
1895.224	127.25
1898.429	126.42
1901.634	126.9
1904.838	126.73
1908.042	127.45
1911.246	127.88
1914.449	128.14
1917.652	127.93
1920.855	127.29
1924.058	127.2
1927.26	127.37
1930.462	127.22
1933.664	127.87
1936.865	127.73
1940.066	126.54
1943.267	125.3
1946.467	125.57
1949.668	126.32
1952.868	128.14
1956.067	128.62
1959.267	129.04
1962.466	129.6
1965.665	129.42
1968.863	130.49
1972.061	131.57
1975.259	133.38
1978.457	135.23
1981.654	136.27
1984.852	136.44
1988.048	136
1991.245	137.27
1994.441	138.63
1997.637	139.97
2000.833	143.11
2004.028	143.97
2007.223	145.98
2010.418	147
2013.613	149.8
2016.807	151.79
2020.001	154.51
2023.194	156.02
2026.388	159.95
2029.581	163.12
2032.774	164.06
2035.966	166.52
2039.158	167.87
2042.35	170.69
2045.542	172.31
2048.733	175.24
2051.924	177.28
2055.115	179.18
2058.306	180.68
2061.496	181.71
2064.686	182.44
2067.875	185.41
2071.065	186.67
2074.254	186.03
2077.442	187.97
2080.631	188.82
2083.819	190.15
2087.007	189.44
2090.195	191.89
2093.382	193.77
2096.569	193.21
2099.756	196.03
2102.942	197.15
2106.128	198.59
2109.314	203.33
2112.5	202.87
2115.685	207.23
2118.87	207.68
2122.055	213.66
2125.239	214.26
2128.424	217.71
2131.608	218.21
2134.791	221.22
2137.974	222.1
2141.157	224.14
2144.34	224.9
2147.523	226.94
2150.705	225.39
2153.887	229.05
2157.068	229.29
2160.25	227.02
2163.431	228.28
2166.611	231.21
2169.792	236.44
2172.972	237.79
2176.152	238.28
2179.331	241.34
2182.511	245.45
2185.69	248.43
2188.868	251.39
2192.047	252.62
2195.225	261.18
2198.403	265.48
2201.58	270.23
2204.758	273.5
2207.935	279.75
2211.111	284.88
2214.288	287.13
2217.464	287.59
2220.64	293.65
2223.815	297.04
2226.991	307.1
2230.166	306.63
2233.34	310.98
2236.515	317.8
2239.689	316.8
2242.863	319.28
2246.036	327.34
2249.209	326.51
2252.382	332.52
2255.555	340.95
2258.727	342.8
2261.9	345.42
2265.071	349.99
2268.243	356.03
2271.414	358.67
2274.585	367.72
2277.756	370.8
2280.926	374.76
2284.096	381.44
2287.266	388.14
2290.436	389.49
2293.605	397.43
2296.774	408.36
2299.942	421.65
2303.111	424.99
2306.279	431.76
2309.447	436.14
2312.614	449.72
2315.781	458.69
2318.948	480.34
2322.115	476.58
2325.281	504.24
2328.447	491.58
2331.613	510
2334.779	504.11
2337.944	524.77
2341.109	530.49
2344.274	548.49
2347.438	562.8
2350.602	565.69
2353.766	581.7
2356.929	590.76
2360.092	583.33
2363.255	626.87
2366.418	628.73
2369.58	634.75
2372.742	673.62
2375.904	694.35
2379.066	687.66
2382.227	679.47
2385.388	735.07
2388.548	733.36
2391.709	739.11
2394.869	826.39
2398.029	790.76
2401.188	810.94
2404.347	811.74
2407.506	797.97
2410.665	816.1
2413.823	866.15
2416.981	914.19
2420.139	887.26
2423.296	883.98
2426.453	921.69
2429.61	881.18
2432.767	923.8
2435.923	911.97
2439.079	999.04
2442.235	1015.31
2445.391	1008.52
2448.546	998.24
2451.701	974.34
2454.855	971.32
2458.009	1024.13
2461.163	1067.57
2464.317	1109.99
2467.471	1139.3
2470.624	1144.32
2473.777	1114.29
2476.929	1084.77
2480.082	1050.76
2483.234	1041.67
2486.385	1094.31
2489.537	1097.63
2492.688	1136.57
2495.839	1107.66
2498.989	1086.08
2502.14	1088.61
2505.29	1098.68
2508.439	1112
2511.589	1111.04
2514.738	1213.97
2517.887	1187.19
2521.035	1249.08
2524.183	1256.81
2527.331	1272.85
2530.479	1265.89
2533.627	1272.37
