Data from N_1_HIR_WI_4n_Splice17_12-15-18-910.txt Node
Date: Sat Mar 07 12:15:18 EST 2020
User: sa697716
Spectrometer: NQ5500242
Trigger mode: 0
Integration Time (sec): 1.450000E-1
Scans to average: 20
Nonlinearity correction enabled: false
Boxcar width: 5
Storing dark spectrum: false
XAxis mode: Wavelengths
Number of Pixels in Spectrum: 512
>>>>>Begin Spectral Data<<<<<
187.83	171.03
188.298	186.61
188.766	158.04
189.233	125.02
189.701	123.76
190.169	141.42
190.636	152.96
191.104	155.18
191.571	80.74
192.039	99.22
192.506	-492.56
192.974	115.35
193.441	186.1
193.908	55.82
194.375	16.79
194.842	-32.21
195.31	-67.78
195.777	-359.82
196.244	-0.93
196.711	29.51
197.177	35.83
197.644	36.42
198.111	37.07
198.578	38.03
199.045	38.71
199.511	39.21
199.978	39.46
200.445	39.78
200.911	39.84
201.378	39.97
201.844	40.55
202.31	39.9
202.777	40.32
203.243	40.56
203.709	40.23
204.176	39.75
204.642	39.55
205.108	39.51
205.574	39.7
206.04	39.56
206.506	39.45
206.972	39.38
207.438	39.24
207.903	38.65
208.369	38.1
208.835	37.76
209.301	37.4
209.766	36.43
210.232	35.64
210.697	34.6
211.163	34.06
211.628	33.58
212.094	32.61
212.559	32.45
213.024	31.89
213.49	31.31
213.955	30.76
214.42	30.2
214.885	29.75
215.35	28.98
215.815	27.96
216.28	26.64
216.745	25.16
217.21	23.77
217.675	22.39
218.14	21.24
218.604	20.21
219.069	19.32
219.534	18.58
219.998	17.95
220.463	17.47
220.927	16.98
221.392	16.62
221.856	16.28
222.32	15.98
222.785	15.72
223.249	15.48
223.713	15.27
224.177	15.09
224.642	14.9
225.106	14.69
225.57	14.49
226.034	14.33
226.497	14.16
226.961	14
227.425	13.84
227.889	13.69
228.353	13.56
228.816	13.41
229.28	13.25
229.744	13.1
230.207	12.96
230.671	12.81
231.134	12.68
231.597	12.56
232.061	12.43
232.524	12.3
232.987	12.15
233.45	12.02
233.914	11.9
234.377	11.78
234.84	11.68
235.303	11.58
235.766	11.49
236.229	11.39
236.691	11.28
237.154	11.18
237.617	11.1
238.08	11.03
238.542	10.92
239.005	10.83
239.468	10.74
239.93	10.65
240.393	10.56
240.855	10.46
241.317	10.37
241.78	10.28
242.242	10.19
242.704	10.12
243.166	10.03
243.629	9.97
244.091	9.88
244.553	9.82
245.015	9.75
245.477	9.66
245.939	9.59
246.4	9.52
246.862	9.46
247.324	9.39
247.786	9.32
248.247	9.25
248.709	9.17
249.17	9.11
249.632	9.05
250.093	9.01
250.555	8.96
251.016	8.91
251.477	8.86
251.939	8.81
252.4	8.77
252.861	8.72
253.322	8.69
253.783	8.65
254.244	8.62
254.705	8.57
255.166	8.52
255.627	8.48
256.088	8.45
256.549	8.42
257.009	8.38
257.47	8.35
257.931	8.31
258.391	8.27
258.852	8.23
259.312	8.19
259.773	8.16
260.233	8.13
260.694	8.1
261.154	8.07
261.614	8.03
262.074	8.01
262.534	7.97
262.994	7.95
263.455	7.93
263.915	7.92
264.374	7.9
264.834	7.89
265.294	7.87
265.754	7.86
266.214	7.85
266.673	7.85
267.133	7.84
267.593	7.83
268.052	7.83
268.512	7.82
268.971	7.81
269.431	7.8
269.89	7.78
270.349	7.78
270.809	7.76
271.268	7.75
271.727	7.73
272.186	7.72
272.645	7.71
273.104	7.7
273.563	7.69
274.022	7.67
274.481	7.66
274.94	7.65
275.399	7.63
275.857	7.62
276.316	7.61
276.775	7.59
277.233	7.58
277.692	7.56
278.15	7.55
278.609	7.54
279.067	7.53
279.525	7.51
279.984	7.5
280.442	7.49
280.9	7.48
281.358	7.47
281.816	7.46
282.274	7.45
282.732	7.44
283.19	7.42
283.648	7.4
284.106	7.39
284.564	7.38
285.021	7.38
285.479	7.36
285.937	7.34
286.394	7.34
286.852	7.32
287.309	7.31
287.767	7.3
288.224	7.29
288.682	7.28
289.139	7.26
289.596	7.25
290.053	7.23
290.511	7.21
290.968	7.2
291.425	7.18
291.882	7.17
292.339	7.16
292.796	7.16
293.252	7.15
293.709	7.14
294.166	7.14
294.623	7.13
295.079	7.13
295.536	7.12
295.992	7.12
296.449	7.12
296.905	7.11
297.362	7.11
297.818	7.1
298.274	7.1
298.731	7.09
299.187	7.09
299.643	7.08
300.099	7.08
300.555	7.07
301.011	7.06
301.467	7.06
301.923	7.05
302.379	7.05
302.835	7.05
303.291	7.03
303.746	7.02
304.202	7.01
304.658	7.01
305.113	7
305.569	7
306.024	6.98
306.479	6.98
306.935	6.97
307.39	6.97
307.845	6.97
308.301	6.97
308.756	6.98
309.211	6.97
309.666	6.98
310.121	6.97
310.576	6.97
311.031	6.98
311.486	6.98
311.94	6.98
312.395	6.97
312.85	6.96
313.305	6.95
313.759	6.96
314.214	6.95
314.668	6.94
315.123	6.94
315.577	6.93
316.032	6.93
316.486	6.92
316.94	6.91
317.394	6.9
317.849	6.9
318.303	6.88
318.757	6.86
319.211	6.86
319.665	6.84
320.119	6.82
320.572	6.81
321.026	6.8
321.48	6.79
321.934	6.77
322.387	6.75
322.841	6.74
323.295	6.73
323.748	6.74
324.202	6.73
324.655	6.73
325.108	6.73
325.562	6.73
326.015	6.72
326.468	6.72
326.921	6.73
327.374	6.73
327.827	6.72
328.28	6.72
328.733	6.71
329.186	6.7
329.639	6.7
330.092	6.69
330.545	6.69
330.997	6.68
331.45	6.68
331.903	6.67
332.355	6.67
332.808	6.66
333.26	6.66
333.713	6.66
334.165	6.65
334.617	6.65
335.069	6.64
335.522	6.64
335.974	6.64
336.426	6.63
336.878	6.63
337.33	6.62
337.782	6.62
338.234	6.62
338.686	6.61
339.137	6.62
339.589	6.62
340.041	6.61
340.493	6.6
340.944	6.58
341.396	6.57
341.847	6.56
342.299	6.54
342.75	6.53
343.201	6.51
343.653	6.5
344.104	6.46
344.555	6.45
345.006	6.43
345.457	6.42
345.908	6.41
346.359	6.39
346.81	6.37
347.261	6.36
347.712	6.35
348.163	6.34
348.613	6.34
349.064	6.34
349.515	6.34
349.965	6.34
350.416	6.34
350.866	6.33
351.317	6.33
351.767	6.33
352.217	6.32
352.668	6.32
353.118	6.32
353.568	6.3
354.018	6.31
354.468	6.3
354.918	6.3
355.368	6.3
355.818	6.3
356.268	6.28
356.718	6.29
357.168	6.28
357.617	6.26
358.067	6.25
358.517	6.26
358.966	6.26
359.416	6.25
359.865	6.23
360.315	6.23
360.764	6.22
361.213	6.22
361.663	6.21
362.112	6.21
362.561	6.22
363.01	6.22
363.459	6.2
363.908	6.19
364.357	6.19
364.806	6.19
365.255	6.2
365.703	6.21
366.152	6.2
366.601	6.21
367.05	6.2
367.498	6.19
367.947	6.19
368.395	6.19
368.844	6.19
369.292	6.19
369.74	6.18
370.189	6.17
370.637	6.15
371.085	6.15
371.533	6.14
371.981	6.15
372.429	6.14
372.877	6.15
373.325	6.14
373.773	6.14
374.221	6.15
374.669	6.14
375.116	6.15
375.564	6.16
376.012	6.17
376.459	6.18
376.907	6.19
377.354	6.2
377.801	6.21
378.249	6.23
378.696	6.24
379.143	6.24
379.591	6.26
380.038	6.28
380.485	6.28
380.932	6.29
381.379	6.31
381.826	6.31
382.273	6.32
382.72	6.33
383.166	6.33
383.613	6.34
384.06	6.35
384.506	6.37
384.953	6.39
385.4	6.4
385.846	6.43
386.292	6.43
386.739	6.46
387.185	6.47
387.631	6.49
388.078	6.52
388.524	6.53
388.97	6.54
389.416	6.55
389.862	6.57
390.308	6.6
390.754	6.63
391.2	6.67
391.645	6.69
392.091	6.73
392.537	6.76
392.983	6.8
393.428	6.84
393.874	6.88
394.319	6.94
394.765	6.99
395.21	7.04
395.655	7.09
396.101	7.15
396.546	7.2
396.991	7.26
397.436	7.33
397.881	7.41
398.326	7.48
398.771	7.56
399.216	7.62
399.661	7.69
400.106	7.76
400.551	7.8
400.995	7.84
401.44	7.9
401.885	7.94
402.329	7.99
402.774	8.05
403.218	8.12
403.663	8.19
404.107	8.25
404.551	8.31
404.995	8.36
405.44	8.43
405.884	8.5
406.328	8.58
406.772	8.65
407.216	8.74
407.66	8.81
408.104	8.87
408.547	8.92
408.991	8.98
409.435	9.04
409.879	9.13
410.322	9.22
410.766	9.3
411.209	9.39
411.653	9.47
412.096	9.54
412.54	9.6
412.983	9.67
413.426	9.75
413.869	9.84
414.312	9.91
414.756	9.97
415.199	10
415.642	10.05
416.085	10.07
416.527	10.09
416.97	10.09
417.413	10.1
417.856	10.1
418.298	10.1
418.741	10.08
419.184	10.1
419.626	10.11
420.069	10.13
420.511	10.16
420.953	10.17
421.396	10.22
421.838	10.27
422.28	10.31
422.722	10.37
423.164	10.41
423.606	10.46
424.048	10.49
424.49	10.49
424.932	10.47
425.374	10.42
425.816	10.34
426.258	10.25
426.699	10.19
427.141	10.19
427.582	10.22
428.024	10.28
428.465	10.33
428.907	10.37
429.348	10.41
429.789	10.48
430.231	10.61
430.672	10.78
431.113	10.98
431.554	11.15
431.995	11.28
432.436	11.37
432.877	11.45
433.318	11.54
433.759	11.62
434.2	11.72
434.64	11.82
435.081	11.9
435.522	11.96
435.962	12.02
436.403	12.08
436.843	12.12
437.284	12.17
437.724	12.22
438.164	12.26
438.604	12.35
439.045	12.42
439.485	12.49
439.925	12.54
440.365	12.59
440.805	12.62
441.245	12.65
441.685	12.68
442.125	12.72
442.564	12.74
443.004	12.78
443.444	12.81
443.883	12.85
444.323	12.9
444.762	12.96
445.202	13.02
445.641	13.1
446.081	13.16
446.52	13.24
446.959	13.32
447.398	13.38
447.837	13.4
448.276	13.39
448.716	13.38
449.154	13.36
449.593	13.36
450.032	13.34
450.471	13.28
450.91	13.24
451.349	13.17
451.787	13.12
452.226	13.08
452.664	13.06
453.103	13.04
453.541	13.02
453.98	12.99
454.418	12.94
454.856	12.9
455.295	12.87
455.733	12.81
456.171	12.81
456.609	12.78
457.047	12.75
457.485	12.73
457.923	12.74
458.361	12.74
458.798	12.76
459.236	12.77
459.674	12.78
460.111	12.79
460.549	12.83
460.987	12.84
461.424	12.87
461.862	12.89
462.299	12.91
462.736	12.93
463.173	12.95
463.611	12.99
464.048	13.04
464.485	13.11
464.922	13.18
465.359	13.24
465.796	13.29
466.233	13.34
466.67	13.41
467.106	13.49
467.543	13.56
467.98	13.62
468.416	13.68
468.853	13.74
469.29	13.8
469.726	13.85
470.162	13.91
470.599	13.98
471.035	14.02
471.471	14.04
471.907	14.06
472.344	14.07
472.78	14.1
473.216	14.11
473.652	14.13
474.088	14.12
474.523	14.13
474.959	14.12
475.395	14.09
475.831	14.07
476.266	14.07
476.702	14.05
477.138	14.04
477.573	14.01
478.008	14
478.444	13.95
478.879	13.9
479.314	13.83
479.75	13.78
480.185	13.71
480.62	13.63
481.055	13.51
481.49	13.36
481.925	13.19
482.36	13.04
482.795	12.9
483.229	12.79
483.664	12.71
484.099	12.62
484.534	12.55
484.968	12.52
485.403	12.49
485.837	12.51
486.271	12.56
486.706	12.62
487.14	12.64
487.574	12.65
488.009	12.64
488.443	12.64
488.877	12.65
489.311	12.67
489.745	12.67
490.179	12.68
490.613	12.69
491.046	12.69
491.48	12.7
491.914	12.74
492.348	12.8
492.781	12.85
493.215	12.88
493.648	12.91
494.082	12.91
494.515	12.91
494.948	12.92
495.382	12.92
495.815	12.93
496.248	12.94
496.681	12.92
497.114	12.9
497.547	12.89
497.98	12.89
498.413	12.92
498.846	12.95
499.279	12.99
499.711	13.01
500.144	13.06
500.577	13.12
501.009	13.18
501.442	13.27
501.874	13.37
502.306	13.47
502.739	13.56
503.171	13.63
503.603	13.7
504.036	13.79
504.468	13.88
504.9	13.96
505.332	14.05
505.764	14.13
506.196	14.2
506.627	14.28
507.059	14.37
507.491	14.47
507.923	14.57
508.354	14.7
508.786	14.81
509.217	14.91
509.649	15.01
510.08	15.11
510.512	15.23
510.943	15.36
511.374	15.47
511.805	15.57
512.237	15.65
512.668	15.73
513.099	15.81
513.53	15.91
513.961	16.02
514.391	16.15
514.822	16.32
515.253	16.48
515.684	16.66
516.114	16.85
516.545	17.06
516.975	17.31
517.406	17.59
517.836	17.87
518.267	18.13
518.697	18.41
519.127	18.68
519.558	18.93
519.988	19.19
520.418	19.43
520.848	19.68
521.278	19.91
521.708	20.26
522.138	20.42
522.567	20.58
522.997	20.75
523.427	20.93
523.857	21.13
524.286	21.32
524.716	21.5
525.145	21.69
525.575	21.87
526.004	22.06
526.433	22.14
526.863	22.38
527.292	22.61
527.721	22.8
528.15	22.96
528.579	23.1
529.008	23.22
529.437	23.32
529.866	23.41
530.295	23.52
530.724	23.62
531.152	23.72
531.581	23.8
532.01	23.89
532.438	23.99
532.867	24.1
533.295	24.2
533.723	24.28
534.152	24.37
534.58	24.44
535.008	24.48
535.436	24.5
535.865	24.49
536.293	24.48
536.721	24.49
537.149	24.51
537.576	24.53
538.004	24.56
538.432	24.62
538.86	24.65
539.287	24.66
539.715	24.73
540.143	24.8
540.57	24.89
540.998	24.97
541.425	25.05
541.852	25.13
542.28	25.18
542.707	25.24
543.134	25.28
543.561	25.33
543.988	25.4
544.415	25.44
544.842	25.48
545.269	25.53
545.696	25.57
546.123	25.61
546.549	25.64
546.976	25.71
547.403	25.75
547.829	25.8
548.256	25.83
548.682	25.86
549.108	25.89
549.535	25.92
549.961	25.95
550.387	25.98
550.813	25.99
551.24	26
551.666	25.98
552.092	25.96
552.518	25.94
552.943	25.91
553.369	25.88
553.795	25.83
554.221	25.77
554.646	25.68
555.072	25.58
555.498	25.48
555.923	25.38
556.349	25.28
556.774	25.21
557.199	25.11
557.625	25.02
558.05	24.94
558.475	24.85
558.9	24.75
559.325	24.67
559.75	24.59
560.175	24.5
560.6	24.38
561.025	24.24
561.449	24.1
561.874	23.95
562.299	23.8
562.723	23.66
563.148	23.5
563.572	23.33
563.997	23.16
564.421	22.98
564.846	22.79
565.27	22.64
565.694	22.49
566.118	22.31
566.542	22.13
566.966	21.97
567.39	21.78
567.814	21.64
568.238	21.5
568.662	21.36
569.086	21.24
569.509	21.13
569.933	21.01
570.357	20.89
570.78	20.77
571.204	20.67
571.627	20.56
572.05	20.44
572.474	20.33
572.897	20.23
573.32	20.12
573.743	20
574.166	19.87
574.589	19.74
575.012	19.63
575.435	19.52
575.858	19.44
576.281	19.35
576.704	19.27
577.126	19.18
577.549	19.09
577.972	19.01
578.394	18.96
578.817	18.91
579.239	18.85
579.661	18.81
580.084	18.76
580.506	18.71
580.928	18.65
581.35	18.59
581.772	18.52
582.194	18.45
582.616	18.39
583.038	18.32
583.46	18.23
583.882	18.15
584.303	18.05
584.725	17.92
585.147	17.79
585.568	17.69
585.99	17.6
586.411	17.51
586.833	17.43
587.254	17.36
587.675	17.29
588.096	17.24
588.518	17.19
588.939	17.17
589.36	17.16
589.781	17.17
590.202	17.16
590.623	17.13
591.043	17.1
591.464	17.07
591.885	17.02
592.305	16.99
592.726	16.95
593.147	16.91
593.567	16.86
593.987	16.82
594.408	16.76
594.828	16.71
595.248	16.67
595.669	16.62
596.089	16.57
596.509	16.53
596.929	16.48
597.349	16.42
597.769	16.36
598.189	16.31
598.608	16.27
599.028	16.24
599.448	16.2
599.867	16.15
600.287	16.12
600.706	16.09
601.126	16.06
601.545	16.01
601.965	15.98
602.384	15.94
602.803	15.89
603.222	15.84
603.641	15.77
604.061	15.73
604.48	15.66
604.898	15.59
605.317	15.52
605.736	15.44
606.155	15.39
606.574	15.32
606.992	15.25
607.411	15.19
607.829	15.1
608.248	15.01
608.666	14.95
609.085	14.87
609.503	14.8
609.921	14.73
610.339	14.67
610.758	14.59
611.176	14.52
611.594	14.44
612.012	14.35
612.43	14.3
612.847	14.24
613.265	14.17
613.683	14.12
614.101	14.07
614.518	14
614.936	13.94
615.353	13.88
615.771	13.83
616.188	13.79
616.606	13.76
617.023	13.74
617.44	13.71
617.857	13.67
618.274	13.62
618.691	13.56
619.108	13.52
619.525	13.47
619.942	13.42
620.359	13.38
620.776	13.33
621.192	13.28
621.609	13.23
622.026	13.19
622.442	13.14
622.859	13.1
623.275	13.07
623.691	13.04
624.108	13
624.524	12.99
624.94	12.95
625.356	12.93
625.772	12.91
626.188	12.89
626.604	12.85
627.02	12.84
627.436	12.81
627.852	12.81
628.268	12.8
628.683	12.79
629.099	12.77
629.514	12.75
629.93	12.73
630.345	12.71
630.761	12.69
631.176	12.68
631.591	12.65
632.007	12.63
632.422	12.6
632.837	12.57
633.252	12.55
633.667	12.51
634.082	12.49
634.497	12.47
634.911	12.43
635.326	12.38
635.741	12.34
636.155	12.29
636.57	12.24
636.984	12.18
637.399	12.12
637.813	12.06
638.228	11.98
638.642	11.92
639.056	11.84
639.47	11.8
639.884	11.74
640.298	11.68
640.712	11.62
641.126	11.56
641.54	11.5
641.954	11.44
642.368	11.38
642.781	11.33
643.195	11.27
643.609	11.21
644.022	11.16
644.436	11.1
644.849	11.04
645.262	10.99
645.676	10.95
646.089	10.9
646.502	10.87
646.915	10.85
647.328	10.82
647.741	10.78
648.154	10.76
648.567	10.74
648.98	10.71
649.393	10.69
649.805	10.69
650.218	10.66
650.631	10.64
651.043	10.59
651.456	10.54
651.868	10.48
652.28	10.41
652.693	10.35
653.105	10.29
653.517	10.25
653.929	10.22
654.341	10.18
654.753	10.16
655.165	10.13
655.577	10.12
655.989	10.13
656.401	10.15
656.813	10.18
657.224	10.2
657.636	10.2
658.047	10.21
658.459	10.19
658.87	10.18
659.282	10.15
659.693	10.13
660.104	10.09
660.515	10.07
660.926	10.04
661.338	10.01
661.749	9.98
662.159	9.96
662.57	9.94
662.981	9.91
663.392	9.89
663.803	9.88
664.213	9.86
664.624	9.84
665.035	9.82
665.445	9.81
665.855	9.79
666.266	9.78
666.676	9.77
667.086	9.74
667.497	9.73
667.907	9.71
668.317	9.71
668.727	9.7
669.137	9.69
669.547	9.69
669.956	9.68
670.366	9.67
670.776	9.66
671.186	9.65
671.595	9.65
672.005	9.64
672.414	9.65
672.824	9.64
673.233	9.64
673.642	9.63
674.052	9.64
674.461	9.64
674.87	9.64
675.279	9.65
675.688	9.67
676.097	9.69
676.506	9.7
676.915	9.7
677.323	9.73
677.732	9.75
678.141	9.78
678.549	9.79
678.958	9.81
679.366	9.84
679.775	9.85
680.183	9.86
680.592	9.87
681	9.91
681.408	9.92
681.816	9.93
682.224	9.92
682.632	9.9
683.04	9.87
683.448	9.85
683.856	9.82
684.264	9.81
684.671	9.81
685.079	9.8
685.487	9.81
685.894	9.84
686.302	9.89
686.709	9.97
687.116	10.09
687.524	10.24
687.931	10.41
688.338	10.59
688.745	10.78
689.152	10.97
689.559	11.21
689.966	11.45
690.373	11.71
690.78	11.97
691.187	12.24
691.593	12.54
692	12.85
692.407	13.15
692.813	13.5
693.22	13.84
693.626	14.22
694.032	14.59
694.439	14.98
694.845	15.39
695.251	15.79
695.657	16.2
696.063	16.62
696.469	17.06
696.875	17.5
697.281	17.94
697.687	18.39
698.093	18.85
698.498	19.3
698.904	19.78
699.31	20.25
699.715	20.74
700.12	21.25
700.526	21.75
700.931	22.24
701.337	22.75
701.742	23.26
702.147	23.75
702.552	24.25
702.957	24.74
703.362	25.22
703.767	25.67
704.172	26.14
704.577	26.61
704.981	27.06
705.386	27.53
705.791	28
706.195	28.44
706.6	28.92
707.004	29.36
707.408	29.82
707.813	30.3
708.217	30.77
708.621	31.24
709.025	31.68
709.43	32.14
709.834	32.59
710.237	33.01
710.641	33.46
711.045	33.88
711.449	34.32
711.853	34.78
712.256	35.16
712.66	35.56
713.064	35.94
713.467	36.31
713.87	36.69
714.274	37.03
714.677	37.37
715.08	37.71
715.484	38.08
715.887	38.43
716.29	38.73
716.693	39.1
717.096	39.48
717.499	39.88
717.901	40.29
718.304	40.69
718.707	41.1
719.109	41.49
719.512	41.87
719.915	42.24
720.317	42.58
720.719	42.92
721.122	43.26
721.524	43.58
721.926	43.9
722.328	44.2
722.731	44.48
723.133	44.78
723.535	45.05
723.937	45.35
724.338	45.61
724.74	45.89
725.142	46.22
725.544	46.45
725.945	46.71
726.347	46.91
726.748	47.12
727.15	47.34
727.551	47.54
727.952	47.77
728.354	47.98
728.755	48.19
729.156	48.42
729.557	48.58
729.958	48.81
730.359	49.01
730.76	49.24
731.161	49.44
731.562	49.64
731.962	49.81
732.363	49.96
732.763	50.11
733.164	50.28
733.564	50.39
733.965	50.51
734.365	50.63
734.766	50.77
735.166	50.87
735.566	50.98
735.966	51.09
736.366	51.22
736.766	51.34
737.166	51.46
737.566	51.56
737.966	51.66
738.365	51.75
738.765	51.86
739.165	51.92
739.564	52.03
739.964	52.14
740.363	52.19
740.763	52.26
741.162	52.31
741.561	52.36
741.96	52.41
742.36	52.5
742.759	52.58
743.158	52.64
743.557	52.7
743.955	52.75
744.354	52.76
744.753	52.85
745.152	52.9
745.55	52.95
745.949	53.02
746.348	53.09
746.746	53.08
747.144	53.14
747.543	53.15
747.941	53.15
748.339	53.14
748.737	53.16
749.136	53.15
749.534	53.14
749.932	53.19
750.33	53.21
750.727	53.22
751.125	53.24
751.523	53.18
751.921	53.19
752.318	53.23
752.716	53.25
753.113	53.26
753.511	53.29
753.908	53.33
754.305	53.32
754.703	53.25
755.1	53.16
755.497	53.01
755.894	52.82
756.291	52.56
756.688	52.23
757.085	51.95
757.482	51.68
757.878	51.44
758.275	51.19
758.672	50.93
759.068	50.75
759.465	50.59
759.861	50.54
760.258	50.57
760.654	50.64
761.05	50.77
761.447	50.91
761.843	51.02
762.239	51.13
762.635	51.27
763.031	51.43
763.427	51.58
763.822	51.78
764.218	51.96
764.614	52.13
765.01	52.29
765.405	52.45
765.801	52.58
766.196	52.73
766.592	52.85
766.987	52.93
767.382	53
767.778	53.05
768.173	53.09
768.568	53.11
768.963	53.13
769.358	53.17
769.753	53.19
770.148	53.19
770.542	53.19
770.937	53.18
771.332	53.19
771.726	53.2
772.121	53.2
772.515	53.21
772.91	53.21
773.304	53.23
773.699	53.21
774.093	53.19
774.487	53.18
774.881	53.19
775.275	53.18
775.669	53.15
776.063	53.13
776.457	53.11
776.851	53.07
777.245	53.02
777.638	52.97
778.032	52.97
778.425	52.98
778.819	52.99
779.212	52.99
779.606	53
779.999	52.98
780.392	52.99
780.786	52.97
781.179	52.98
781.572	53
781.965	53.01
782.358	52.99
782.751	52.95
783.143	52.92
783.536	52.89
783.929	52.87
784.322	52.87
784.714	52.85
785.107	52.89
785.499	52.85
785.891	52.86
786.284	52.83
786.676	52.81
787.068	52.8
787.46	52.78
787.852	52.76
788.245	52.74
788.636	52.71
789.028	52.65
789.42	52.58
789.812	52.59
790.204	52.55
790.595	52.5
790.987	52.5
791.378	52.52
791.77	52.5
792.161	52.47
792.553	52.42
792.944	52.39
793.335	52.4
793.726	52.39
794.117	52.33
794.508	52.3
794.899	52.3
795.29	52.27
795.681	52.23
796.072	52.2
796.463	52.19
796.853	52.16
797.244	52.15
797.634	52.15
798.025	52.16
798.415	52.16
798.806	52.13
799.196	52.11
799.586	52.08
799.976	52.07
800.366	52.05
800.756	52.05
801.146	52.07
801.536	52.06
801.926	52.02
802.316	51.97
802.706	51.94
803.095	51.95
803.485	51.94
803.874	51.93
804.264	51.88
804.653	51.87
805.043	51.83
805.432	51.8
805.821	51.77
806.21	51.77
806.599	51.76
806.988	51.75
807.377	51.72
807.766	51.7
808.155	51.64
808.544	51.64
808.933	51.58
809.321	51.56
809.71	51.52
810.098	51.45
810.487	51.35
810.875	51.27
811.264	51.22
811.652	51.15
812.04	51.06
812.428	51.02
812.816	50.94
813.204	50.88
813.592	50.81
813.98	50.77
814.368	50.75
814.756	50.75
815.144	50.73
815.531	50.7
815.919	50.67
816.306	50.67
816.694	50.64
817.081	50.65
817.469	50.65
817.856	50.62
818.243	50.58
818.63	50.54
819.017	50.51
819.404	50.47
819.791	50.42
820.178	50.4
820.565	50.35
820.952	50.34
821.339	50.31
821.725	50.3
822.112	50.3
822.498	50.33
822.885	50.33
823.271	50.33
823.657	50.3
824.044	50.32
824.43	50.33
824.816	50.33
825.202	50.28
825.588	50.27
825.974	50.23
826.36	50.21
826.746	50.16
827.132	50.14
827.517	50.13
827.903	50.14
828.289	50.13
828.674	50.1
829.06	50.1
829.445	50.08
829.83	50.06
830.216	50.04
830.601	50.03
830.986	50.04
831.371	50.02
831.756	50.02
832.141	50.02
832.526	50
832.911	50
833.295	49.98
833.68	50.01
834.065	50.02
834.449	50.02
834.834	49.98
835.218	49.98
835.603	49.98
835.987	49.95
836.371	49.91
836.755	49.89
837.139	49.86
837.524	49.87
837.908	49.85
838.291	49.84
838.675	49.85
839.059	49.87
839.443	49.83
839.827	49.83
840.21	49.82
840.594	49.81
840.977	49.8
841.361	49.83
841.744	49.79
842.127	49.76
842.511	49.76
842.894	49.73
843.277	49.71
843.66	49.69
844.043	49.7
844.426	49.7
844.809	49.71
845.191	49.72
845.574	49.69
845.957	49.69
846.339	49.68
846.722	49.66
847.104	49.68
847.487	49.66
847.869	49.66
848.252	49.64
848.634	49.63
849.016	49.64
849.398	49.64
849.78	49.63
850.162	49.63
850.544	49.63
850.926	49.62
851.307	49.6
851.689	49.58
852.071	49.57
852.452	49.54
852.834	49.55
853.215	49.53
853.597	49.52
853.978	49.52
854.359	49.53
854.741	49.54
855.122	49.53
855.503	49.53
855.884	49.53
856.265	49.54
856.646	49.54
857.026	49.51
857.407	49.51
857.788	49.5
858.169	49.51
858.549	49.5
858.93	49.49
859.31	49.5
859.69	49.5
860.071	49.52
860.451	49.51
860.831	49.53
861.211	49.53
861.591	49.51
861.971	49.5
862.351	49.48
862.731	49.45
863.111	49.45
863.491	49.44
863.87	49.43
864.25	49.4
864.629	49.4
865.009	49.38
865.388	49.36
865.768	49.36
866.147	49.35
866.526	49.34
866.905	49.33
867.284	49.34
867.663	49.34
868.042	49.34
868.421	49.36
868.8	49.35
869.179	49.36
869.558	49.35
869.936	49.35
870.315	49.37
870.693	49.39
871.072	49.41
871.45	49.42
871.828	49.4
872.207	49.41
872.585	49.39
872.963	49.4
873.341	49.38
873.719	49.39
874.097	49.4
874.475	49.38
874.853	49.37
875.23	49.38
875.608	49.37
875.986	49.4
876.363	49.38
876.741	49.38
877.118	49.38
877.495	49.37
877.873	49.4
878.25	49.43
878.627	49.45
879.004	49.45
879.381	49.47
879.758	49.45
880.135	49.45
880.512	49.45
880.889	49.46
881.265	49.45
881.642	49.48
882.019	49.48
882.395	49.44
882.772	49.44
883.148	49.44
883.524	49.42
883.901	49.42
884.277	49.38
884.653	49.4
885.029	49.4
885.405	49.4
885.781	49.39
886.157	49.37
886.532	49.38
886.908	49.36
887.284	49.37
887.659	49.34
888.035	49.32
888.411	49.34
888.786	49.32
889.161	49.32
889.537	49.32
889.912	49.32
890.287	49.33
890.662	49.32
891.037	49.34
891.412	49.3
891.787	49.32
892.162	49.31
892.536	49.3
892.911	49.28
893.286	49.27
893.66	49.28
894.035	49.26
894.409	49.24
894.784	49.24
895.158	49.24
895.532	49.24
895.906	49.21
896.281	49.23
896.655	49.23
897.029	49.24
897.402	49.22
897.776	49.22
898.15	49.2
898.524	49.23
898.898	49.23
899.271	49.21
899.645	49.23
900.018	49.26
900.392	49.27
900.765	49.27
901.138	49.28
901.511	49.31
901.884	49.28
902.258	49.3
902.631	49.28
903.003	49.29
903.376	49.26
903.749	49.26
904.122	49.27
904.495	49.29
904.867	49.31
905.24	49.33
905.612	49.33
905.985	49.33
906.357	49.33
906.729	49.36
907.102	49.35
907.474	49.38
907.846	49.4
908.218	49.38
908.59	49.37
908.962	49.36
909.334	49.35
909.705	49.34
910.077	49.36
910.449	49.38
910.82	49.34
911.192	49.37
911.563	49.36
911.935	49.33
912.306	49.37
912.677	49.37
913.048	49.39
913.419	49.37
913.79	49.39
914.161	49.42
914.532	49.44
914.903	49.45
915.274	49.42
915.645	49.43
916.015	49.46
916.386	49.42
916.756	49.43
917.127	49.39
917.497	49.39
917.868	49.36
918.238	49.32
918.608	49.33
918.978	49.37
919.348	49.39
919.718	49.39
920.088	49.38
920.458	49.4
920.828	49.35
921.198	49.36
921.567	49.38
921.937	49.44
922.306	49.42
922.676	49.42
923.045	49.36
923.415	49.37
923.784	49.36
924.153	49.34
924.522	49.36
924.891	49.41
925.26	49.41
925.629	49.39
925.998	49.35
926.367	49.35
926.736	49.3
927.104	49.29
927.473	49.26
927.842	49.24
928.21	49.26
928.578	49.18
928.947	49.15
929.315	49.12
929.683	49.11
930.051	49.08
930.42	49.07
930.788	49.03
931.156	49.01
931.523	48.99
931.891	49.01
932.259	49
932.627	49.05
932.994	49.05
933.362	49.03
933.729	49.01
934.097	49.01
934.464	49.03
934.831	49.05
935.199	49.09
935.566	49.09
935.933	49
936.3	48.98
936.667	48.96
937.034	48.98
937.401	49
937.767	49
938.134	48.97
938.501	48.93
938.867	48.96
939.234	48.93
939.6	48.91
939.967	48.95
940.333	48.88
940.699	48.84
941.065	48.77
941.431	48.78
941.798	48.77
942.163	48.79
942.529	48.79
942.895	48.77
943.261	48.71
943.627	48.67
943.992	48.73
944.358	48.75
944.723	48.73
945.089	48.69
945.454	48.7
945.82	48.68
946.185	48.61
946.55	48.61
946.915	48.57
947.28	48.55
947.645	48.56
948.01	48.5
948.375	48.49
948.74	48.48
949.104	48.53
949.469	48.47
949.834	48.48
950.198	48.49
950.562	48.49
950.927	48.53
951.291	48.53
951.655	48.49
952.02	48.49
952.384	48.46
952.748	48.5
953.112	48.45
953.476	48.41
953.839	48.39
954.203	48.37
954.567	48.31
954.931	48.23
955.294	48.23
955.658	48.3
956.021	48.27
956.385	48.26
956.748	48.15
957.111	48.16
957.474	48.21
957.837	48.2
958.2	48.19
958.563	48.19
958.926	48.27
959.289	48.27
959.652	48.19
960.015	48.13
960.377	48.15
960.74	48.2
961.102	48.23
961.465	48.25
961.827	48.29
962.189	48.36
962.552	48.4
962.914	48.33
963.276	48.37
963.638	48.41
964	48.49
964.362	48.48
964.724	48.5
965.085	48.47
965.447	48.45
965.809	48.41
966.17	48.32
966.532	48.28
966.893	48.32
967.255	48.26
967.616	48.28
967.977	48.29
968.338	48.31
968.699	48.28
969.061	48.26
969.421	48.28
969.782	48.25
970.143	48.31
970.504	48.31
970.865	48.34
971.225	48.36
971.586	48.34
971.946	48.29
972.307	48.3
972.667	48.32
973.027	48.38
973.388	48.32
973.748	48.36
974.108	48.38
974.468	48.43
974.828	48.44
975.188	48.45
975.548	48.45
975.907	48.5
976.267	48.48
976.627	48.44
976.986	48.42
977.346	48.36
977.705	48.33
978.064	48.3
978.424	48.27
978.783	48.17
979.142	48.15
979.501	48.11
979.86	48.12
980.219	48.15
980.578	48.21
980.937	48.19
981.296	48.23
981.654	48.27
982.013	48.28
982.371	48.29
982.73	48.35
983.088	48.35
983.447	48.37
983.805	48.37
984.163	48.31
984.521	48.25
984.879	48.22
985.237	48.25
985.595	48.25
985.953	48.29
986.311	48.19
986.669	48.16
987.026	48.17
987.384	48.18
987.741	48.07
988.099	48.12
988.456	48.14
988.814	48.15
989.171	48.25
989.528	48.23
989.885	48.17
990.242	48.31
990.599	48.35
990.956	48.4
991.313	48.45
991.67	48.55
992.027	48.57
992.383	48.57
992.74	48.64
993.096	48.52
993.453	48.51
993.809	48.55
994.165	48.51
994.522	48.54
994.878	48.53
995.234	48.55
995.59	48.5
995.946	48.5
996.302	48.54
996.658	48.47
997.013	48.56
997.369	48.53
997.725	48.6
998.08	48.59
998.436	48.57
998.791	48.53
999.147	48.48
999.502	48.54
999.857	48.5
1000.212	48.39
1000.567	48.39
1000.922	48.27
1001.277	48.23
1001.632	48.04
1001.987	47.93
1002.342	47.9
1002.696	47.88
1003.051	48
1003.406	48.01
1003.76	48.03
1004.114	48.09
1004.469	48.12
1004.823	48.4
1005.177	48.55
1005.531	48.64
1005.885	48.86
1006.239	48.89
1006.593	49.03
1006.947	49
1007.301	48.88
1007.655	48.87
1008.008	48.95
1008.362	49.03
1008.715	48.85
1009.069	48.91
1009.422	48.98
1009.776	48.82
1010.129	48.83
1010.482	48.61
1010.835	48.57
1011.188	48.65
1011.541	48.63
1011.894	48.59
1012.247	48.61
1012.6	48.6
1012.952	48.44
1013.305	48.46
1013.657	48.56
1014.01	48.59
1014.362	48.64
1014.715	48.66
1015.067	48.74
1015.419	48.81
1015.771	48.9
1016.123	48.82
1016.475	48.82
1016.827	48.94
1017.179	48.89
1017.531	48.82
1017.883	48.55
1018.234	48.65
1018.586	48.62
1018.938	48.7
1019.289	48.6
1019.64	48.59
1019.992	48.78
1020.343	48.64
1020.694	48.59
1021.045	48.59
1021.396	48.78
1021.747	49.14
1022.098	49.27
1022.449	49.27
1022.8	49.27
1023.151	49.59
1023.501	49.54
1023.852	49.36
1024.202	49.17
1024.553	49.08
1024.903	48.96
1025.253	48.99
1025.604	48.91
1025.954	48.67
1026.304	48.52
1026.654	48.35
1027.004	48.13
1027.354	48.16
1027.703	48.06
1028.053	48.26
1028.403	48.42
1028.753	48.26
1029.102	48.24
1029.452	48.34
1029.801	48.56
1030.15	48.64
1030.499	48.7
897.758	331.51
901.051	333.28
904.343	335.71
907.636	342.03
910.928	332.56
914.22	335.84
917.511	334.64
920.803	320.41
924.094	320.21
927.384	311.94
930.675	302.19
933.965	302.63
937.255	287.43
940.544	277.62
943.834	266.27
947.123	266.24
950.411	253.16
953.7	248.77
956.988	243.1
960.276	235.86
963.563	232.03
966.851	228.48
970.138	226.28
973.424	223.25
976.711	224.68
979.997	216.35
983.283	214.95
986.568	211.71
989.853	208.53
993.138	203.94
996.423	197.79
999.708	196
1002.992	192.27
1006.275	186.14
1009.559	184.53
1012.842	180.58
1016.125	177.36
1019.408	175.23
1022.69	173.35
1025.972	169.79
1029.254	168.73
1032.536	166.84
1035.817	163.76
1039.098	163.19
1042.379	159.84
1045.659	159.4
1048.939	155.14
1052.219	154.66
1055.498	152.74
1058.778	150.68
1062.057	148.78
1065.335	147.05
1068.614	145.88
1071.892	145.15
1075.17	141.91
1078.447	141.78
1081.724	140.12
1085.001	140.7
1088.278	137.7
1091.554	136.52
1094.83	136.34
1098.106	135.7
1101.382	135
1104.657	134.5
1107.932	132.23
1111.206	132.89
1114.481	129.93
1117.755	130.19
1121.029	129
1124.302	128.74
1127.575	127.59
1130.848	126.54
1134.121	125.4
1137.393	124.32
1140.665	122.14
1143.937	121.93
1147.208	122.56
1150.48	122.48
1153.75	121.16
1157.021	120.1
1160.291	119.97
1163.561	118.37
1166.831	119.16
1170.101	118.51
1173.37	119.96
1176.639	120.82
1179.907	119.55
1183.176	117.99
1186.444	117.79
1189.711	116.94
1192.979	116.56
1196.246	116.51
1199.513	117.15
1202.78	115.91
1206.046	115.92
1209.312	113.95
1212.578	113.7
1215.843	114.53
1219.108	114.43
1222.373	115.91
1225.638	117.04
1228.902	117.34
1232.166	118.35
1235.43	117.95
1238.693	119.13
1241.956	119.84
1245.219	120.57
1248.482	121.77
1251.744	121.33
1255.006	121.37
1258.268	120.6
1261.529	119.62
1264.79	119.57
1268.051	118.08
1271.312	118.18
1274.572	116.63
1277.832	116.01
1281.092	114.78
1284.351	113.94
1287.61	114.58
1290.869	113.16
1294.128	111.87
1297.386	112.11
1300.644	111.02
1303.902	111.25
1307.159	110.77
1310.416	110.8
1313.673	110.21
1316.93	110.99
1320.186	110.18
1323.442	110.08
1326.697	110.73
1329.953	111.17
1333.208	110.47
1336.463	111.03
1339.717	110.88
1342.972	112.07
1346.226	112.1
1349.479	112.13
1352.733	112.1
1355.986	113.23
1359.238	112.5
1362.491	112.06
1365.743	111.11
1368.995	110.9
1372.247	110.9
1375.498	109.79
1378.749	107.95
1382	105.83
1385.251	105.54
1388.501	103.37
1391.751	100.88
1395	99.66
1398.25	98.39
1401.499	96.15
1404.748	95.09
1407.996	91.62
1411.244	91.1
1414.492	89.74
1417.74	87.46
1420.987	85.4
1424.234	84.36
1427.481	83.39
1430.728	82.8
1433.974	82.33
1437.22	81.53
1440.465	81.29
1443.711	80.57
1446.956	79.31
1450.201	78.68
1453.445	79.14
1456.689	79.01
1459.933	77.83
1463.177	77.76
1466.42	76.88
1469.663	75.78
1472.906	75.6
1476.148	74.51
1479.391	74.33
1482.633	74.76
1485.874	74.48
1489.115	74.07
1492.356	74.37
1495.597	74.9
1498.838	74.4
1502.078	74.36
1505.318	74.9
1508.557	75.36
1511.797	75.45
1515.036	75.18
1518.274	76.17
1521.513	76.44
1524.751	76.03
1527.989	76.38
1531.227	76.71
1534.464	76.99
1537.701	77.18
1540.938	77.04
1544.174	77.38
1547.41	77.65
1550.646	78.01
1553.882	77.56
1557.117	77.94
1560.352	78.6
1563.587	78.42
1566.821	78.37
1570.055	78.29
1573.289	78.75
1576.523	79.2
1579.756	78.41
1582.989	79.08
1586.222	79.32
1589.454	79.34
1592.686	80.28
1595.918	79.69
1599.15	79.85
1602.381	79.89
1605.612	80.22
1608.843	80.07
1612.073	80.2
1615.303	81.04
1618.533	80.72
1621.762	81.12
1624.992	81.47
1628.221	81.03
1631.449	81.25
1634.678	81.84
1637.906	82.05
1641.134	82.04
1644.361	82.19
1647.588	82.31
1650.815	82.09
1654.042	82.2
1657.269	82.28
1660.495	82.22
1663.72	82.2
1666.946	82.54
1670.171	82.13
1673.396	82.44
1676.621	82.81
1679.845	82.63
1683.069	82.82
1686.293	82.82
1689.517	83.39
1692.74	83.39
1695.963	83.36
1699.185	83.16
1702.408	83.24
1705.63	83.39
1708.852	83.39
1712.073	82.9
1715.294	83.23
1718.515	83.02
1721.736	83.22
1724.956	82.9
1728.176	82.59
1731.396	82.81
1734.616	82.6
1737.835	82.8
1741.054	82.43
1744.272	82.12
1747.491	82.52
1750.709	82.39
1753.927	82
1757.144	81.8
1760.361	81.61
1763.578	81.39
1766.795	80.92
1770.011	81.4
1773.227	81.02
1776.443	81.36
1779.658	81.12
1782.874	81.05
1786.089	80.47
1789.303	80.91
1792.518	80.9
1795.732	80.95
1798.945	81.45
1802.159	81.48
1805.372	81.43
1808.585	82.06
1811.797	81.78
1815.01	82.82
1818.222	82.93
1821.434	83.49
1824.645	83.86
1827.856	84.98
1831.067	84.97
1834.278	85.18
1837.488	85.33
1840.698	85.02
1843.908	84.44
1847.117	84.78
1850.326	83.93
1853.535	83.23
1856.744	83.32
1859.952	81.55
1863.16	79.94
1866.368	78.25
1869.575	76.5
1872.782	74.35
1875.989	72.55
1879.196	71.31
1882.402	68.35
1885.608	67.58
1888.814	65.79
1892.019	63.4
1895.224	62.11
1898.429	61.41
1901.634	60.85
1904.838	60.12
1908.042	59.88
1911.246	59.21
1914.449	58.93
1917.652	59.34
1920.855	58.87
1924.058	58.85
1927.26	59.03
1930.462	58.39
1933.664	59
1936.865	59.1
1940.066	59.08
1943.267	58.28
1946.467	58.51
1949.668	58.41
1952.868	59.05
1956.067	59.43
1959.267	58.9
1962.466	59.17
1965.665	59.89
1968.863	60.02
1972.061	59.91
1975.259	60.23
1978.457	61.72
1981.654	62.44
1984.852	62.95
1988.048	63.3
1991.245	63.58
1994.441	64.89
1997.637	65.96
2000.833	67.49
2004.028	67.7
2007.223	69.19
2010.418	70.5
2013.613	71.24
2016.807	72.45
2020.001	73.76
2023.194	74.66
2026.388	76.54
2029.581	77.7
2032.774	78.56
2035.966	79.47
2039.158	80.59
2042.35	80.99
2045.542	80.36
2048.733	82.56
2051.924	83.54
2055.115	84.74
2058.306	84.9
2061.496	85.56
2064.686	86.17
2067.875	87.74
2071.065	88.44
2074.254	88.26
2077.442	90.25
2080.631	91.75
2083.819	91.97
2087.007	92.78
2090.195	93.9
2093.382	95.84
2096.569	96.28
2099.756	97.36
2102.942	97.3
2106.128	98.22
2109.314	101.18
2112.5	100.82
2115.685	102.71
2118.87	102.94
2122.055	104.35
2125.239	104.9
2128.424	105.06
2131.608	106.18
2134.791	108.83
2137.974	109.91
2141.157	110.03
2144.34	109.02
2147.523	110.42
2150.705	110.66
2153.887	112.14
2157.068	113.15
2160.25	112.62
2163.431	114.03
2166.611	113.71
2169.792	115.32
2172.972	115.85
2176.152	117.18
2179.331	118.71
2182.511	121.01
2185.69	121.27
2188.868	122.16
2192.047	123.48
2195.225	126.51
2198.403	127.72
2201.58	130.69
2204.758	133.26
2207.935	135.29
2211.111	137.6
2214.288	138.81
2217.464	138.34
2220.64	141.03
2223.815	142.53
2226.991	146.5
2230.166	146.18
2233.34	146.47
2236.515	150.44
2239.689	149.33
2242.863	150.79
2246.036	153.57
2249.209	152.96
2252.382	154.2
2255.555	156.49
2258.727	158.58
2261.9	159.17
2265.071	161.23
2268.243	166.36
2271.414	165.73
2274.585	169.06
2277.756	170.94
2280.926	172.64
2284.096	175.2
2287.266	179.91
2290.436	181.18
2293.605	183.77
2296.774	187.13
2299.942	191.55
2303.111	191.85
2306.279	195.34
2309.447	196.89
2312.614	199.73
2315.781	203.68
2318.948	212.8
2322.115	210.71
2325.281	223.53
2328.447	220.3
2331.613	229.34
2334.779	227.9
2337.944	233.88
2341.109	236.86
2344.274	245.4
2347.438	254.66
2350.602	254.8
2353.766	264.94
2356.929	268.84
2360.092	266.83
2363.255	282.74
2366.418	282.96
2369.58	285.96
2372.742	302.13
2375.904	310.43
2379.066	308.83
2382.227	304.56
2385.388	327.45
2388.548	326.84
2391.709	328.29
2394.869	361.09
2398.029	351.74
2401.188	359.65
2404.347	359.91
2407.506	358.04
2410.665	365.19
2413.823	385.33
2416.981	404.27
2420.139	395.82
2423.296	391.52
2426.453	407.12
2429.61	401.63
2432.767	414.43
2435.923	412.51
2439.079	447.11
2442.235	459.64
2445.391	456.7
2448.546	452.19
2451.701	435.7
2454.855	435.24
2458.009	456.42
2461.163	485.15
2464.317	489.78
2467.471	502.06
2470.624	507.99
2473.777	496.15
2476.929	478.24
2480.082	466.75
2483.234	464.9
2486.385	494.79
2489.537	499.89
2492.688	518.02
2495.839	497.2
2498.989	488.55
2502.14	492.3
2505.29	490.64
2508.439	498.46
2511.589	498.76
2514.738	539.42
2517.887	527.6
2521.035	546.21
2524.183	552.93
2527.331	557.81
2530.479	553.37
2533.627	558.36
