Data from N_1_DEC_VA_2n_Splice17_12-30-24-244.txt Node
Date: Sat Mar 07 12:30:24 EST 2020
User: sa697716
Spectrometer: NQ5500242
Trigger mode: 0
Integration Time (sec): 1.450000E-1
Scans to average: 20
Nonlinearity correction enabled: false
Boxcar width: 5
Storing dark spectrum: false
XAxis mode: Wavelengths
Number of Pixels in Spectrum: 512
>>>>>Begin Spectral Data<<<<<
187.83	3.18
188.298	11.15
188.766	1.84
189.233	12.53
189.701	-1.33
190.169	8.89
190.636	-12.91
191.104	-116.16
191.571	-309.56
192.039	-89.45
192.506	-185.59
192.974	-31.15
193.441	46.47
193.908	7.92
194.375	37.84
194.842	-44.55
195.31	7.32
195.777	-195.98
196.244	-0.44
196.711	18.39
197.177	23.43
197.644	23.46
198.111	23.39
198.578	23.29
199.045	23.72
199.511	23.62
199.978	23.8
200.445	23.84
200.911	24.09
201.378	24.03
201.844	23.98
202.31	23.95
202.777	24.32
203.243	24.64
203.709	24.57
204.176	24.37
204.642	24.65
205.108	24.63
205.574	24.81
206.04	24.64
206.506	24.82
206.972	24.83
207.438	24.3
207.903	23.97
208.369	23.44
208.835	23.34
209.301	22.93
209.766	22.1
210.232	21.79
210.697	21.12
211.163	20.83
211.628	20.33
212.094	19.95
212.559	19.69
213.024	19.39
213.49	19.16
213.955	18.76
214.42	18.51
214.885	18.3
215.35	17.91
215.815	17.34
216.28	16.63
216.745	15.9
217.21	15.05
217.675	14.29
218.14	13.63
218.604	12.98
219.069	12.48
219.534	12.04
219.998	11.64
220.463	11.33
220.927	11.02
221.392	10.79
221.856	10.56
222.32	10.39
222.785	10.26
223.249	10.1
223.713	9.97
224.177	9.84
224.642	9.72
225.106	9.6
225.57	9.47
226.034	9.38
226.497	9.27
226.961	9.18
227.425	9.08
227.889	8.98
228.353	8.88
228.816	8.78
229.28	8.68
229.744	8.59
230.207	8.51
230.671	8.42
231.134	8.32
231.597	8.25
232.061	8.17
232.524	8.08
232.987	8.01
233.45	7.96
233.914	7.88
234.377	7.81
234.84	7.75
235.303	7.68
235.766	7.62
236.229	7.57
236.691	7.51
237.154	7.44
237.617	7.39
238.08	7.33
238.542	7.26
239.005	7.21
239.468	7.15
239.93	7.1
240.393	7.05
240.855	6.98
241.317	6.92
241.78	6.86
242.242	6.81
242.704	6.76
243.166	6.7
243.629	6.67
244.091	6.62
244.553	6.58
245.015	6.53
245.477	6.49
245.939	6.45
246.4	6.41
246.862	6.38
247.324	6.35
247.786	6.31
248.247	6.27
248.709	6.21
249.17	6.17
249.632	6.14
250.093	6.11
250.555	6.07
251.016	6.04
251.477	6
251.939	5.96
252.4	5.93
252.861	5.9
253.322	5.88
253.783	5.86
254.244	5.83
254.705	5.79
255.166	5.75
255.627	5.73
256.088	5.71
256.549	5.7
257.009	5.68
257.47	5.65
257.931	5.62
258.391	5.59
258.852	5.56
259.312	5.54
259.773	5.52
260.233	5.51
260.694	5.49
261.154	5.46
261.614	5.43
262.074	5.4
262.534	5.39
262.994	5.37
263.455	5.36
263.915	5.34
264.374	5.33
264.834	5.31
265.294	5.29
265.754	5.29
266.214	5.27
266.673	5.26
267.133	5.26
267.593	5.24
268.052	5.23
268.512	5.22
268.971	5.22
269.431	5.2
269.89	5.18
270.349	5.17
270.809	5.15
271.268	5.14
271.727	5.12
272.186	5.11
272.645	5.1
273.104	5.08
273.563	5.06
274.022	5.04
274.481	5.03
274.94	5.02
275.399	5
275.857	4.99
276.316	4.97
276.775	4.96
277.233	4.94
277.692	4.93
278.15	4.91
278.609	4.9
279.067	4.88
279.525	4.86
279.984	4.84
280.442	4.83
280.9	4.81
281.358	4.8
281.816	4.79
282.274	4.78
282.732	4.76
283.19	4.74
283.648	4.72
284.106	4.71
284.564	4.7
285.021	4.69
285.479	4.68
285.937	4.66
286.394	4.65
286.852	4.63
287.309	4.61
287.767	4.6
288.224	4.59
288.682	4.59
289.139	4.57
289.596	4.56
290.053	4.55
290.511	4.53
290.968	4.52
291.425	4.5
291.882	4.5
292.339	4.49
292.796	4.48
293.252	4.47
293.709	4.45
294.166	4.44
294.623	4.43
295.079	4.42
295.536	4.41
295.992	4.39
296.449	4.39
296.905	4.37
297.362	4.37
297.818	4.35
298.274	4.35
298.731	4.33
299.187	4.32
299.643	4.31
300.099	4.3
300.555	4.29
301.011	4.29
301.467	4.28
301.923	4.26
302.379	4.25
302.835	4.25
303.291	4.24
303.746	4.23
304.202	4.23
304.658	4.22
305.113	4.21
305.569	4.2
306.024	4.18
306.479	4.17
306.935	4.16
307.39	4.15
307.845	4.14
308.301	4.13
308.756	4.13
309.211	4.12
309.666	4.12
310.121	4.12
310.576	4.12
311.031	4.12
311.486	4.12
311.94	4.12
312.395	4.12
312.85	4.12
313.305	4.12
313.759	4.11
314.214	4.1
314.668	4.09
315.123	4.1
315.577	4.09
316.032	4.09
316.486	4.08
316.94	4.08
317.394	4.07
317.849	4.06
318.303	4.05
318.757	4.04
319.211	4.03
319.665	4.03
320.119	4.01
320.572	4
321.026	3.99
321.48	3.98
321.934	3.96
322.387	3.95
322.841	3.95
323.295	3.95
323.748	3.94
324.202	3.94
324.655	3.93
325.108	3.94
325.562	3.94
326.015	3.94
326.468	3.95
326.921	3.95
327.374	3.95
327.827	3.94
328.28	3.93
328.733	3.93
329.186	3.93
329.639	3.92
330.092	3.91
330.545	3.89
330.997	3.88
331.45	3.87
331.903	3.86
332.355	3.87
332.808	3.87
333.26	3.87
333.713	3.87
334.165	3.86
334.617	3.86
335.069	3.85
335.522	3.86
335.974	3.86
336.426	3.86
336.878	3.86
337.33	3.85
337.782	3.85
338.234	3.85
338.686	3.86
339.137	3.86
339.589	3.85
340.041	3.86
340.493	3.86
340.944	3.84
341.396	3.84
341.847	3.83
342.299	3.82
342.75	3.81
343.201	3.8
343.653	3.78
344.104	3.77
344.555	3.76
345.006	3.76
345.457	3.75
345.908	3.75
346.359	3.74
346.81	3.74
347.261	3.74
347.712	3.74
348.163	3.73
348.613	3.74
349.064	3.73
349.515	3.73
349.965	3.72
350.416	3.72
350.866	3.72
351.317	3.72
351.767	3.72
352.217	3.72
352.668	3.71
353.118	3.71
353.568	3.71
354.018	3.71
354.468	3.71
354.918	3.71
355.368	3.71
355.818	3.71
356.268	3.71
356.718	3.71
357.168	3.71
357.617	3.7
358.067	3.7
358.517	3.71
358.966	3.72
359.416	3.72
359.865	3.72
360.315	3.72
360.764	3.72
361.213	3.72
361.663	3.72
362.112	3.73
362.561	3.73
363.01	3.74
363.459	3.72
363.908	3.71
364.357	3.72
364.806	3.71
365.255	3.72
365.703	3.73
366.152	3.73
366.601	3.74
367.05	3.75
367.498	3.74
367.947	3.75
368.395	3.76
368.844	3.78
369.292	3.78
369.74	3.8
370.189	3.81
370.637	3.82
371.085	3.83
371.533	3.83
371.981	3.84
372.429	3.85
372.877	3.85
373.325	3.86
373.773	3.87
374.221	3.87
374.669	3.87
375.116	3.87
375.564	3.88
376.012	3.88
376.459	3.89
376.907	3.91
377.354	3.92
377.801	3.94
378.249	3.95
378.696	3.95
379.143	3.96
379.591	3.97
380.038	3.98
380.485	4
380.932	4.01
381.379	4.03
381.826	4.05
382.273	4.07
382.72	4.07
383.166	4.09
383.613	4.1
384.06	4.12
384.506	4.14
384.953	4.15
385.4	4.16
385.846	4.19
386.292	4.2
386.739	4.2
387.185	4.2
387.631	4.23
388.078	4.23
388.524	4.25
388.97	4.27
389.416	4.28
389.862	4.3
390.308	4.32
390.754	4.34
391.2	4.36
391.645	4.38
392.091	4.41
392.537	4.42
392.983	4.45
393.428	4.47
393.874	4.48
394.319	4.5
394.765	4.51
395.21	4.52
395.655	4.54
396.101	4.56
396.546	4.58
396.991	4.59
397.436	4.63
397.881	4.65
398.326	4.68
398.771	4.7
399.216	4.74
399.661	4.77
400.106	4.78
400.551	4.79
400.995	4.79
401.44	4.81
401.885	4.83
402.329	4.83
402.774	4.84
403.218	4.85
403.663	4.87
404.107	4.87
404.551	4.88
404.995	4.88
405.44	4.89
405.884	4.9
406.328	4.91
406.772	4.9
407.216	4.92
407.66	4.92
408.104	4.92
408.547	4.93
408.991	4.94
409.435	4.94
409.879	4.95
410.322	4.95
410.766	4.96
411.209	4.97
411.653	4.99
412.096	4.99
412.54	5
412.983	4.98
413.426	5
413.869	5
414.312	5.01
414.756	5.03
415.199	5.03
415.642	5.03
416.085	5.05
416.527	5.03
416.97	5.04
417.413	5.04
417.856	5.06
418.298	5.07
418.741	5.07
419.184	5.07
419.626	5.07
420.069	5.1
420.511	5.1
420.953	5.11
421.396	5.13
421.838	5.13
422.28	5.13
422.722	5.14
423.164	5.13
423.606	5.13
424.048	5.14
424.49	5.13
424.932	5.12
425.374	5.11
425.816	5.08
426.258	5.06
426.699	5.04
427.141	5.04
427.582	5.03
428.024	5.04
428.465	5.03
428.907	5
429.348	4.99
429.789	4.97
430.231	4.97
430.672	4.98
431.113	4.99
431.554	4.99
431.995	4.99
432.436	4.99
432.877	4.99
433.318	5.01
433.759	5.03
434.2	5.03
434.64	5.05
435.081	5.06
435.522	5.06
435.962	5.06
436.403	5.08
436.843	5.07
437.284	5.07
437.724	5.07
438.164	5.05
438.604	5.05
439.045	5.07
439.485	5.07
439.925	5.07
440.365	5.08
440.805	5.09
441.245	5.1
441.685	5.12
442.125	5.14
442.564	5.15
443.004	5.16
443.444	5.16
443.883	5.16
444.323	5.16
444.762	5.16
445.202	5.16
445.641	5.18
446.081	5.19
446.52	5.18
446.959	5.19
447.398	5.2
447.837	5.21
448.276	5.22
448.716	5.22
449.154	5.25
449.593	5.28
450.032	5.28
450.471	5.27
450.91	5.28
451.349	5.29
451.787	5.28
452.226	5.27
452.664	5.28
453.103	5.27
453.541	5.27
453.98	5.27
454.418	5.26
454.856	5.26
455.295	5.26
455.733	5.25
456.171	5.25
456.609	5.24
457.047	5.24
457.485	5.23
457.923	5.23
458.361	5.23
458.798	5.23
459.236	5.23
459.674	5.23
460.111	5.22
460.549	5.23
460.987	5.22
461.424	5.23
461.862	5.23
462.299	5.23
462.736	5.24
463.173	5.24
463.611	5.24
464.048	5.25
464.485	5.26
464.922	5.27
465.359	5.26
465.796	5.26
466.233	5.27
466.67	5.28
467.106	5.3
467.543	5.31
467.98	5.3
468.416	5.3
468.853	5.31
469.29	5.3
469.726	5.3
470.162	5.3
470.599	5.3
471.035	5.28
471.471	5.28
471.907	5.26
472.344	5.26
472.78	5.27
473.216	5.26
473.652	5.27
474.088	5.26
474.523	5.27
474.959	5.26
475.395	5.24
475.831	5.23
476.266	5.24
476.702	5.23
477.138	5.23
477.573	5.23
478.008	5.23
478.444	5.21
478.879	5.22
479.314	5.21
479.75	5.22
480.185	5.22
480.62	5.22
481.055	5.22
481.49	5.22
481.925	5.22
482.36	5.21
482.795	5.22
483.229	5.22
483.664	5.24
484.099	5.25
484.534	5.25
484.968	5.25
485.403	5.27
485.837	5.28
486.271	5.3
486.706	5.32
487.14	5.33
487.574	5.35
488.009	5.37
488.443	5.37
488.877	5.4
489.311	5.42
489.745	5.46
490.179	5.49
490.613	5.51
491.046	5.54
491.48	5.58
491.914	5.62
492.348	5.66
492.781	5.71
493.215	5.77
493.648	5.81
494.082	5.85
494.515	5.89
494.948	5.93
495.382	5.99
495.815	6.04
496.248	6.11
496.681	6.17
497.114	6.23
497.547	6.29
497.98	6.35
498.413	6.42
498.846	6.5
499.279	6.6
499.711	6.68
500.144	6.78
500.577	6.87
501.009	6.96
501.442	7.06
501.874	7.17
502.306	7.27
502.739	7.39
503.171	7.52
503.603	7.64
504.036	7.76
504.468	7.89
504.9	8.01
505.332	8.15
505.764	8.29
506.196	8.43
506.627	8.59
507.059	8.75
507.491	8.9
507.923	9.07
508.354	9.25
508.786	9.43
509.217	9.61
509.649	9.79
510.08	9.97
510.512	10.16
510.943	10.35
511.374	10.53
511.805	10.72
512.237	10.91
512.668	11.11
513.099	11.31
513.53	11.5
513.961	11.71
514.391	11.92
514.822	12.14
515.253	12.34
515.684	12.55
516.114	12.76
516.545	12.97
516.975	13.2
517.406	13.41
517.836	13.62
518.267	13.83
518.697	14.02
519.127	14.22
519.558	14.43
519.988	14.64
520.418	14.84
520.848	15.03
521.278	15.23
521.708	15.54
522.138	15.72
522.567	15.89
522.997	16.07
523.427	16.26
523.857	16.44
524.286	16.6
524.716	16.75
525.145	16.91
525.575	17.06
526.004	17.21
526.433	17.22
526.863	17.34
527.292	17.47
527.721	17.59
528.15	17.71
528.579	17.81
529.008	17.92
529.437	18.02
529.866	18.12
530.295	18.21
530.724	18.29
531.152	18.38
531.581	18.48
532.01	18.56
532.438	18.64
532.867	18.72
533.295	18.79
533.723	18.84
534.152	18.89
534.58	18.95
535.008	18.99
535.436	19.04
535.865	19.09
536.293	19.13
536.721	19.17
537.149	19.21
537.576	19.24
538.004	19.29
538.432	19.33
538.86	19.37
539.287	19.38
539.715	19.42
540.143	19.45
540.57	19.47
540.998	19.49
541.425	19.51
541.852	19.53
542.28	19.55
542.707	19.56
543.134	19.58
543.561	19.59
543.988	19.63
544.415	19.64
544.842	19.65
545.269	19.66
545.696	19.68
546.123	19.7
546.549	19.72
546.976	19.73
547.403	19.74
547.829	19.73
548.256	19.74
548.682	19.75
549.108	19.77
549.535	19.79
549.961	19.79
550.387	19.78
550.813	19.77
551.24	19.75
551.666	19.75
552.092	19.74
552.518	19.76
552.943	19.75
553.369	19.72
553.795	19.69
554.221	19.65
554.646	19.63
555.072	19.61
555.498	19.59
555.923	19.57
556.349	19.51
556.774	19.47
557.199	19.41
557.625	19.38
558.05	19.34
558.475	19.29
558.9	19.25
559.325	19.2
559.75	19.14
560.175	19.06
560.6	18.99
561.025	18.93
561.449	18.85
561.874	18.78
562.299	18.68
562.723	18.6
563.148	18.52
563.572	18.42
563.997	18.32
564.421	18.23
564.846	18.14
565.27	18.04
565.694	17.94
566.118	17.84
566.542	17.74
566.966	17.65
567.39	17.54
567.814	17.44
568.238	17.33
568.662	17.23
569.086	17.14
569.509	17.04
569.933	16.94
570.357	16.84
570.78	16.74
571.204	16.63
571.627	16.53
572.05	16.44
572.474	16.35
572.897	16.27
573.32	16.18
573.743	16.08
574.166	15.99
574.589	15.91
575.012	15.82
575.435	15.75
575.858	15.67
576.281	15.58
576.704	15.5
577.126	15.44
577.549	15.36
577.972	15.28
578.394	15.21
578.817	15.14
579.239	15.07
579.661	15.02
580.084	14.94
580.506	14.89
580.928	14.83
581.35	14.77
581.772	14.69
582.194	14.64
582.616	14.58
583.038	14.52
583.46	14.46
583.882	14.42
584.303	14.35
584.725	14.3
585.147	14.25
585.568	14.21
585.99	14.15
586.411	14.11
586.833	14.06
587.254	14
587.675	13.96
588.096	13.91
588.518	13.87
588.939	13.83
589.36	13.79
589.781	13.75
590.202	13.71
590.623	13.68
591.043	13.65
591.464	13.61
591.885	13.58
592.305	13.55
592.726	13.52
593.147	13.49
593.567	13.46
593.987	13.44
594.408	13.4
594.828	13.37
595.248	13.35
595.669	13.32
596.089	13.3
596.509	13.27
596.929	13.25
597.349	13.22
597.769	13.2
598.189	13.16
598.608	13.14
599.028	13.12
599.448	13.09
599.867	13.05
600.287	13.04
600.706	13.01
601.126	12.98
601.545	12.96
601.965	12.94
602.384	12.91
602.803	12.88
603.222	12.84
603.641	12.8
604.061	12.76
604.48	12.73
604.898	12.67
605.317	12.63
605.736	12.59
606.155	12.54
606.574	12.5
606.992	12.45
607.411	12.41
607.829	12.34
608.248	12.28
608.666	12.23
609.085	12.18
609.503	12.13
609.921	12.08
610.339	12.02
610.758	11.96
611.176	11.9
611.594	11.84
612.012	11.77
612.43	11.74
612.847	11.69
613.265	11.63
613.683	11.57
614.101	11.53
614.518	11.47
614.936	11.42
615.353	11.36
615.771	11.31
616.188	11.25
616.606	11.22
617.023	11.16
617.44	11.13
617.857	11.1
618.274	11.07
618.691	11.03
619.108	11
619.525	10.96
619.942	10.94
620.359	10.92
620.776	10.9
621.192	10.87
621.609	10.86
622.026	10.83
622.442	10.82
622.859	10.8
623.275	10.78
623.691	10.77
624.108	10.77
624.524	10.76
624.94	10.74
625.356	10.74
625.772	10.73
626.188	10.72
626.604	10.71
627.02	10.7
627.436	10.7
627.852	10.69
628.268	10.67
628.683	10.66
629.099	10.66
629.514	10.64
629.93	10.63
630.345	10.61
630.761	10.58
631.176	10.55
631.591	10.52
632.007	10.48
632.422	10.43
632.837	10.39
633.252	10.34
633.667	10.28
634.082	10.22
634.497	10.16
634.911	10.09
635.326	10.02
635.741	9.96
636.155	9.87
636.57	9.8
636.984	9.72
637.399	9.64
637.813	9.55
638.228	9.45
638.642	9.35
639.056	9.25
639.47	9.16
639.884	9.06
640.298	8.96
640.712	8.87
641.126	8.77
641.54	8.67
641.954	8.56
642.368	8.47
642.781	8.38
643.195	8.29
643.609	8.2
644.022	8.12
644.436	8.03
644.849	7.94
645.262	7.86
645.676	7.79
646.089	7.72
646.502	7.66
646.915	7.6
647.328	7.55
647.741	7.49
648.154	7.44
648.567	7.39
648.98	7.35
649.393	7.33
649.805	7.3
650.218	7.27
650.631	7.24
651.043	7.22
651.456	7.2
651.868	7.17
652.28	7.15
652.693	7.13
653.105	7.1
653.517	7.07
653.929	7.05
654.341	7.01
654.753	6.97
655.165	6.94
655.577	6.9
655.989	6.84
656.401	6.8
656.813	6.75
657.224	6.7
657.636	6.64
658.047	6.59
658.459	6.52
658.87	6.47
659.282	6.41
659.693	6.35
660.104	6.3
660.515	6.25
660.926	6.18
661.338	6.12
661.749	6.08
662.159	6.03
662.57	5.98
662.981	5.93
663.392	5.89
663.803	5.84
664.213	5.8
664.624	5.75
665.035	5.71
665.445	5.67
665.855	5.64
666.266	5.61
666.676	5.58
667.086	5.55
667.497	5.53
667.907	5.51
668.317	5.5
668.727	5.48
669.137	5.47
669.547	5.48
669.956	5.48
670.366	5.47
670.776	5.46
671.186	5.46
671.595	5.46
672.005	5.46
672.414	5.46
672.824	5.46
673.233	5.48
673.642	5.49
674.052	5.5
674.461	5.51
674.87	5.52
675.279	5.55
675.688	5.58
676.097	5.61
676.506	5.62
676.915	5.65
677.323	5.68
677.732	5.7
678.141	5.74
678.549	5.77
678.958	5.81
679.366	5.87
679.775	5.91
680.183	5.96
680.592	6.03
681	6.11
681.408	6.19
681.816	6.27
682.224	6.36
682.632	6.46
683.04	6.57
683.448	6.69
683.856	6.82
684.264	6.97
684.671	7.13
685.079	7.29
685.487	7.48
685.894	7.69
686.302	7.9
686.709	8.14
687.116	8.39
687.524	8.67
687.931	8.97
688.338	9.3
688.745	9.61
689.152	9.95
689.559	10.32
689.966	10.68
690.373	11.06
690.78	11.46
691.187	11.87
691.593	12.29
692	12.73
692.407	13.13
692.813	13.55
693.22	13.98
693.626	14.4
694.032	14.82
694.439	15.25
694.845	15.68
695.251	16.1
695.657	16.49
696.063	16.9
696.469	17.31
696.875	17.71
697.281	18.11
697.687	18.5
698.093	18.9
698.498	19.27
698.904	19.65
699.31	20.01
699.715	20.38
700.12	20.74
700.526	21.09
700.931	21.42
701.337	21.76
701.742	22.08
702.147	22.41
702.552	22.72
702.957	23.03
703.362	23.32
703.767	23.59
704.172	23.87
704.577	24.15
704.981	24.43
705.386	24.7
705.791	24.96
706.195	25.24
706.6	25.5
707.004	25.75
707.408	26
707.813	26.25
708.217	26.49
708.621	26.73
709.025	26.98
709.43	27.19
709.834	27.43
710.237	27.64
710.641	27.83
711.045	28.01
711.449	28.21
711.853	28.42
712.256	28.61
712.66	28.81
713.064	28.99
713.467	29.17
713.87	29.35
714.274	29.51
714.677	29.7
715.08	29.89
715.484	30.07
715.887	30.23
716.29	30.39
716.693	30.57
717.096	30.72
717.499	30.89
717.901	31.02
718.304	31.17
718.707	31.32
719.109	31.44
719.512	31.56
719.915	31.7
720.317	31.81
720.719	31.91
721.122	31.99
721.524	32.12
721.926	32.24
722.328	32.37
722.731	32.47
723.133	32.58
723.535	32.7
723.937	32.8
724.338	32.85
724.74	32.95
725.142	33.08
725.544	33.16
725.945	33.25
726.347	33.29
726.748	33.36
727.15	33.43
727.551	33.49
727.952	33.54
728.354	33.62
728.755	33.7
729.156	33.77
729.557	33.78
729.958	33.86
730.359	33.9
730.76	33.96
731.161	34
731.562	34.07
731.962	34.09
732.363	34.18
732.763	34.21
733.164	34.25
733.564	34.32
733.965	34.37
734.365	34.41
734.766	34.46
735.166	34.51
735.566	34.55
735.966	34.6
736.366	34.64
736.766	34.63
737.166	34.65
737.566	34.7
737.966	34.72
738.365	34.75
738.765	34.79
739.165	34.8
739.564	34.82
739.964	34.84
740.363	34.84
740.763	34.87
741.162	34.88
741.561	34.88
741.96	34.88
742.36	34.9
742.759	34.91
743.158	34.92
743.557	34.92
743.955	34.93
744.354	34.93
744.753	34.95
745.152	34.96
745.55	34.99
745.949	35.02
746.348	35.05
746.746	35.03
747.144	35.04
747.543	35.03
747.941	35.06
748.339	35.06
748.737	35.06
749.136	35.05
749.534	35.03
749.932	35.03
750.33	35.02
750.727	35.02
751.125	35.04
751.523	35.03
751.921	35.04
752.318	35.04
752.716	35.05
753.113	35.07
753.511	35.09
753.908	35.12
754.305	35.11
754.703	35.11
755.1	35.1
755.497	35.1
755.894	35.08
756.291	35.07
756.688	35.05
757.085	35.06
757.482	35.05
757.878	35.04
758.275	35.01
758.672	35.01
759.068	35.03
759.465	35.02
759.861	35.02
760.258	35.04
760.654	35.05
761.05	35.03
761.447	35.03
761.843	35
762.239	34.99
762.635	34.99
763.031	35
763.427	35
763.822	35.01
764.218	35.01
764.614	35.01
765.01	34.98
765.405	34.99
765.801	34.97
766.196	34.99
766.592	35
766.987	35.01
767.382	35.02
767.778	35.01
768.173	35
768.568	35
768.963	34.99
769.358	34.99
769.753	35
770.148	35.01
770.542	35.01
770.937	35.02
771.332	35.02
771.726	35.01
772.121	34.98
772.515	34.99
772.91	34.98
773.304	34.95
773.699	34.93
774.093	34.89
774.487	34.89
774.881	34.88
775.275	34.88
775.669	34.84
776.063	34.79
776.457	34.82
776.851	34.8
777.245	34.77
777.638	34.78
778.032	34.78
778.425	34.79
778.819	34.78
779.212	34.78
779.606	34.76
779.999	34.77
780.392	34.79
780.786	34.76
781.179	34.75
781.572	34.8
781.965	34.79
782.358	34.8
782.751	34.81
783.143	34.8
783.536	34.81
783.929	34.82
784.322	34.84
784.714	34.83
785.107	34.86
785.499	34.88
785.891	34.85
786.284	34.85
786.676	34.85
787.068	34.83
787.46	34.85
787.852	34.82
788.245	34.8
788.636	34.75
789.028	34.74
789.42	34.73
789.812	34.71
790.204	34.7
790.595	34.7
790.987	34.71
791.378	34.72
791.77	34.71
792.161	34.7
792.553	34.71
792.944	34.75
793.335	34.76
793.726	34.77
794.117	34.76
794.508	34.74
794.899	34.72
795.29	34.73
795.681	34.71
796.072	34.7
796.463	34.72
796.853	34.69
797.244	34.66
797.634	34.64
798.025	34.65
798.415	34.63
798.806	34.64
799.196	34.65
799.586	34.62
799.976	34.64
800.366	34.64
800.756	34.64
801.146	34.66
801.536	34.68
801.926	34.67
802.316	34.64
802.706	34.66
803.095	34.66
803.485	34.65
803.874	34.65
804.264	34.64
804.653	34.64
805.043	34.6
805.432	34.58
805.821	34.58
806.21	34.59
806.599	34.61
806.988	34.6
807.377	34.6
807.766	34.6
808.155	34.58
808.544	34.58
808.933	34.56
809.321	34.57
809.71	34.56
810.098	34.53
810.487	34.5
810.875	34.46
811.264	34.47
811.652	34.45
812.04	34.43
812.428	34.45
812.816	34.42
813.204	34.42
813.592	34.4
813.98	34.4
814.368	34.43
814.756	34.44
815.144	34.44
815.531	34.42
815.919	34.42
816.306	34.42
816.694	34.39
817.081	34.42
817.469	34.42
817.856	34.43
818.243	34.41
818.63	34.37
819.017	34.35
819.404	34.35
819.791	34.36
820.178	34.36
820.565	34.35
820.952	34.37
821.339	34.33
821.725	34.33
822.112	34.35
822.498	34.39
822.885	34.41
823.271	34.41
823.657	34.39
824.044	34.39
824.43	34.4
824.816	34.4
825.202	34.41
825.588	34.41
825.974	34.4
826.36	34.39
826.746	34.37
827.132	34.37
827.517	34.39
827.903	34.42
828.289	34.41
828.674	34.42
829.06	34.4
829.445	34.38
829.83	34.36
830.216	34.36
830.601	34.34
830.986	34.34
831.371	34.32
831.756	34.31
832.141	34.29
832.526	34.28
832.911	34.25
833.295	34.27
833.68	34.26
834.065	34.28
834.449	34.27
834.834	34.29
835.218	34.29
835.603	34.28
835.987	34.27
836.371	34.27
836.755	34.26
837.139	34.28
837.524	34.29
837.908	34.3
838.291	34.31
838.675	34.3
839.059	34.3
839.443	34.28
839.827	34.28
840.21	34.27
840.594	34.29
840.977	34.28
841.361	34.27
841.744	34.25
842.127	34.24
842.511	34.22
842.894	34.24
843.277	34.23
843.66	34.23
844.043	34.26
844.426	34.26
844.809	34.24
845.191	34.25
845.574	34.25
845.957	34.27
846.339	34.27
846.722	34.27
847.104	34.29
847.487	34.28
847.869	34.29
848.252	34.28
848.634	34.29
849.016	34.31
849.398	34.32
849.78	34.32
850.162	34.3
850.544	34.29
850.926	34.28
851.307	34.27
851.689	34.28
852.071	34.27
852.452	34.26
852.834	34.25
853.215	34.22
853.597	34.21
853.978	34.19
854.359	34.2
854.741	34.2
855.122	34.2
855.503	34.2
855.884	34.18
856.265	34.19
856.646	34.17
857.026	34.16
857.407	34.17
857.788	34.16
858.169	34.18
858.549	34.15
858.93	34.14
859.31	34.12
859.69	34.11
860.071	34.12
860.451	34.12
860.831	34.13
861.211	34.12
861.591	34.11
861.971	34.1
862.351	34.08
862.731	34.1
863.111	34.1
863.491	34.11
863.87	34.1
864.25	34.09
864.629	34.06
865.009	34.07
865.388	34.06
865.768	34.07
866.147	34.07
866.526	34.09
866.905	34.08
867.284	34.09
867.663	34.08
868.042	34.07
868.421	34.08
868.8	34.1
869.179	34.09
869.558	34.11
869.936	34.07
870.315	34.07
870.693	34.05
871.072	34.06
871.45	34.06
871.828	34.08
872.207	34.11
872.585	34.09
872.963	34.09
873.341	34.08
873.719	34.07
874.097	34.08
874.475	34.11
874.853	34.14
875.23	34.15
875.608	34.12
875.986	34.12
876.363	34.11
876.741	34.13
877.118	34.1
877.495	34.1
877.873	34.12
878.25	34.14
878.627	34.14
879.004	34.14
879.381	34.13
879.758	34.15
880.135	34.13
880.512	34.12
880.889	34.13
881.265	34.15
881.642	34.16
882.019	34.15
882.395	34.12
882.772	34.09
883.148	34.07
883.524	34.06
883.901	34.05
884.277	34.06
884.653	34.06
885.029	34.06
885.405	34.06
885.781	34.06
886.157	34.07
886.532	34.09
886.908	34.09
887.284	34.1
887.659	34.08
888.035	34.1
888.411	34.08
888.786	34.08
889.161	34.09
889.537	34.08
889.912	34.09
890.287	34.09
890.662	34.08
891.037	34.09
891.412	34.08
891.787	34.08
892.162	34.05
892.536	34.04
892.911	34.04
893.286	34.03
893.66	34.02
894.035	34.01
894.409	34
894.784	33.99
895.158	33.97
895.532	33.99
895.906	34
896.281	34
896.655	34.01
897.029	34.01
897.402	34.01
897.776	34
898.15	34
898.524	34
898.898	34.01
899.271	34.03
899.645	34.04
900.018	34.04
900.392	34.06
900.765	34.06
901.138	34.04
901.511	34.05
901.884	34.06
902.258	34.07
902.631	34.07
903.003	34.07
903.376	34.07
903.749	34.06
904.122	34.05
904.495	34.05
904.867	34.07
905.24	34.09
905.612	34.1
905.985	34.08
906.357	34.07
906.729	34.06
907.102	34.05
907.474	34.04
907.846	34.02
908.218	34.01
908.59	33.99
908.962	34
909.334	33.97
909.705	33.96
910.077	33.98
910.449	33.98
910.82	34
911.192	34
911.563	33.98
911.935	33.98
912.306	34
912.677	34.02
913.048	34.03
913.419	34.01
913.79	34.02
914.161	34
914.532	34.01
914.903	34
915.274	33.99
915.645	34.02
916.015	34.04
916.386	34.01
916.756	34
917.127	34.02
917.497	34.02
917.868	34.04
918.238	34.03
918.608	34.05
918.978	34.04
919.348	34.08
919.718	34.06
920.088	34.08
920.458	34.08
920.828	34.06
921.198	34.02
921.567	34.05
921.937	34.03
922.306	34.02
922.676	34.01
923.045	34.01
923.415	33.99
923.784	33.98
924.153	33.97
924.522	33.98
924.891	33.98
925.26	34
925.629	33.99
925.998	33.99
926.367	34.03
926.736	34.02
927.104	34.02
927.473	34.01
927.842	34.01
928.21	34.01
928.578	34.01
928.947	34.04
929.315	34.02
929.683	34.02
930.051	34
930.42	33.99
930.788	34
931.156	33.99
931.523	33.98
931.891	33.99
932.259	34
932.627	34
932.994	33.99
933.362	34.01
933.729	34.02
934.097	34.06
934.464	34.08
934.831	34.08
935.199	34.09
935.566	34.11
935.933	34.11
936.3	34.08
936.667	34.07
937.034	34.08
937.401	34.08
937.767	34.05
938.134	34.03
938.501	34.01
938.867	34.01
939.234	33.99
939.6	33.99
939.967	34
940.333	33.97
940.699	33.97
941.065	33.91
941.431	33.93
941.798	33.91
942.163	33.86
942.529	33.83
942.895	33.79
943.261	33.8
943.627	33.77
943.992	33.77
944.358	33.81
944.723	33.78
945.089	33.76
945.454	33.73
945.82	33.78
946.185	33.8
946.55	33.77
946.915	33.78
947.28	33.76
947.645	33.8
948.01	33.77
948.375	33.72
948.74	33.73
949.104	33.79
949.469	33.78
949.834	33.72
950.198	33.74
950.562	33.72
950.927	33.7
951.291	33.61
951.655	33.6
952.02	33.62
952.384	33.59
952.748	33.59
953.112	33.54
953.476	33.51
953.839	33.52
954.203	33.48
954.567	33.47
954.931	33.45
955.294	33.5
955.658	33.53
956.021	33.51
956.385	33.51
956.748	33.48
957.111	33.48
957.474	33.5
957.837	33.51
958.2	33.49
958.563	33.51
958.926	33.57
959.289	33.56
959.652	33.47
960.015	33.49
960.377	33.53
960.74	33.58
961.102	33.6
961.465	33.56
961.827	33.56
962.189	33.59
962.552	33.63
962.914	33.62
963.276	33.66
963.638	33.67
964	33.65
964.362	33.66
964.724	33.58
965.085	33.54
965.447	33.53
965.809	33.53
966.17	33.54
966.532	33.52
966.893	33.51
967.255	33.49
967.616	33.56
967.977	33.61
968.338	33.55
968.699	33.61
969.061	33.66
969.421	33.7
969.782	33.72
970.143	33.68
970.504	33.66
970.865	33.67
971.225	33.66
971.586	33.6
971.946	33.56
972.307	33.62
972.667	33.59
973.027	33.56
973.388	33.55
973.748	33.58
974.108	33.66
974.468	33.67
974.828	33.67
975.188	33.66
975.548	33.69
975.907	33.7
976.267	33.67
976.627	33.68
976.986	33.68
977.346	33.68
977.705	33.67
978.064	33.66
978.424	33.69
978.783	33.7
979.142	33.71
979.501	33.67
979.86	33.7
980.219	33.7
980.578	33.74
980.937	33.75
981.296	33.74
981.654	33.65
982.013	33.58
982.371	33.57
982.73	33.55
983.088	33.56
983.447	33.57
983.805	33.57
984.163	33.55
984.521	33.49
984.879	33.43
985.237	33.42
985.595	33.5
985.953	33.52
986.311	33.46
986.669	33.49
987.026	33.49
987.384	33.54
987.741	33.45
988.099	33.44
988.456	33.43
988.814	33.47
989.171	33.52
989.528	33.5
989.885	33.54
990.242	33.56
990.599	33.53
990.956	33.51
991.313	33.54
991.67	33.6
992.027	33.73
992.383	33.86
992.74	33.98
993.096	33.93
993.453	33.93
993.809	33.94
994.165	33.92
994.522	33.93
994.878	33.93
995.234	33.83
995.59	33.81
995.946	33.7
996.302	33.6
996.658	33.52
997.013	33.55
997.369	33.68
997.725	33.72
998.08	33.74
998.436	33.71
998.791	33.74
999.147	33.79
999.502	33.87
999.857	33.92
1000.212	33.91
1000.567	33.93
1000.922	33.89
1001.277	33.71
1001.632	33.61
1001.987	33.6
1002.342	33.65
1002.696	33.65
1003.051	33.76
1003.406	33.8
1003.76	33.78
1004.114	33.78
1004.469	33.79
1004.823	34.03
1005.177	34.08
1005.531	34.18
1005.885	34.19
1006.239	34.1
1006.593	34.16
1006.947	34.04
1007.301	33.95
1007.655	33.87
1008.008	33.96
1008.362	33.92
1008.715	33.78
1009.069	33.8
1009.422	33.78
1009.776	33.76
1010.129	33.85
1010.482	33.75
1010.835	33.85
1011.188	33.92
1011.541	33.94
1011.894	33.87
1012.247	33.82
1012.6	33.79
1012.952	33.74
1013.305	33.69
1013.657	33.71
1014.01	33.66
1014.362	33.62
1014.715	33.7
1015.067	33.65
1015.419	33.8
1015.771	33.76
1016.123	33.73
1016.475	33.76
1016.827	33.93
1017.179	33.87
1017.531	34.04
1017.883	34.14
1018.234	34.13
1018.586	34.03
1018.938	34.18
1019.289	34.02
1019.64	34.06
1019.992	34.21
1020.343	34.05
1020.694	33.86
1021.045	33.99
1021.396	34
1021.747	34.05
1022.098	34.22
1022.449	34.2
1022.8	34.05
1023.151	33.87
1023.501	33.58
1023.852	33.48
1024.202	33.4
1024.553	33.57
1024.903	33.58
1025.253	33.51
1025.604	33.39
1025.954	33.09
1026.304	33.03
1026.654	33.1
1027.004	33.33
1027.354	33.5
1027.703	33.31
1028.053	33.25
1028.403	33.37
1028.753	33.24
1029.102	33.18
1029.452	33.22
1029.801	33.49
1030.15	33.44
1030.499	33.21
897.758	633.58
901.051	639.35
904.343	637.33
907.636	647.8
910.928	629.31
914.22	633.64
917.511	624.49
920.803	596.83
924.094	592.12
927.384	576.07
930.675	559.28
933.965	557.03
937.255	522.35
940.544	503.6
943.834	479.08
947.123	476.19
950.411	447.61
953.7	441.32
956.988	418.32
960.276	403.36
963.563	397.18
966.851	383.4
970.138	378.86
973.424	368.6
976.711	370.26
979.997	352.1
983.283	350
986.568	341.94
989.853	332.49
993.138	326.13
996.423	314.41
999.708	305.44
1002.992	300.7
1006.275	288.12
1009.559	285.52
1012.842	274.7
1016.125	269.57
1019.408	264.4
1022.69	262.76
1025.972	255.77
1029.254	250.91
1032.536	246.34
1035.817	242.24
1039.098	240
1042.379	235.2
1045.659	232.99
1048.939	227.4
1052.219	222.65
1055.498	220.36
1058.778	213.56
1062.057	209.92
1065.335	207.6
1068.614	205.11
1071.892	202.44
1075.17	196.83
1078.447	193.03
1081.724	191.12
1085.001	190.31
1088.278	187.54
1091.554	182.68
1094.83	183.96
1098.106	181.95
1101.382	180.64
1104.657	180.56
1107.932	177.37
1111.206	177.58
1114.481	174.59
1117.755	173.28
1121.029	171.44
1124.302	169.85
1127.575	168.22
1130.848	166.09
1134.121	164.97
1137.393	163.2
1140.665	160.01
1143.937	159.52
1147.208	158.24
1150.48	156.98
1153.75	155.73
1157.021	154.41
1160.291	154.52
1163.561	151.93
1166.831	152.4
1170.101	151.44
1173.37	151.82
1176.639	151.76
1179.907	150.47
1183.176	148.85
1186.444	149
1189.711	148.29
1192.979	148.07
1196.246	147.33
1199.513	148
1202.78	146.77
1206.046	146.41
1209.312	145.1
1212.578	145.46
1215.843	145.98
1219.108	145.61
1222.373	148.07
1225.638	149.19
1228.902	149.92
1232.166	150.84
1235.43	151.95
1238.693	152.98
1241.956	153.97
1245.219	156.43
1248.482	156.24
1251.744	156.7
1255.006	156.91
1258.268	154.26
1261.529	152.86
1264.79	152.52
1268.051	151.4
1271.312	149.54
1274.572	148.77
1277.832	147.55
1281.092	144.9
1284.351	144.19
1287.61	144.7
1290.869	142.11
1294.128	141.29
1297.386	141.24
1300.644	139.86
1303.902	139.6
1307.159	140.26
1310.416	139.53
1313.673	138.94
1316.93	140.22
1320.186	139.34
1323.442	138.89
1326.697	141.62
1329.953	141.88
1333.208	142.32
1336.463	143.89
1339.717	144.45
1342.972	145
1346.226	146.23
1349.479	147.19
1352.733	148
1355.986	149.52
1359.238	149.75
1362.491	150.05
1365.743	150.42
1368.995	150.37
1372.247	150.61
1375.498	149.63
1378.749	150.16
1382	149.44
1385.251	148.86
1388.501	147.93
1391.751	147.29
1395	147.48
1398.25	146.46
1401.499	145.2
1404.748	144.47
1407.996	142.99
1411.244	143.17
1414.492	142.11
1417.74	140.34
1420.987	139.39
1424.234	138.39
1427.481	136.73
1430.728	135.92
1433.974	135
1437.22	134.32
1440.465	134.24
1443.711	132.57
1446.956	130.88
1450.201	130.86
1453.445	130.01
1456.689	129.03
1459.933	126.68
1463.177	126.29
1466.42	124.22
1469.663	122.82
1472.906	122.24
1476.148	118.95
1479.391	117.98
1482.633	118.1
1485.874	115.62
1489.115	114.09
1492.356	113.25
1495.597	113.42
1498.838	111.38
1502.078	111
1505.318	110.82
1508.557	110.36
1511.797	110.69
1515.036	109.57
1518.274	109.31
1521.513	108.61
1524.751	108.59
1527.989	108.51
1531.227	108.32
1534.464	108.67
1537.701	107.54
1540.938	107.12
1544.174	106.72
1547.41	106.42
1550.646	106.46
1553.882	105.96
1557.117	104.97
1560.352	104.45
1563.587	104.54
1566.821	103.85
1570.055	103.05
1573.289	103.14
1576.523	103.21
1579.756	102.42
1582.989	102.77
1586.222	101.64
1589.454	102.12
1592.686	102.82
1595.918	102.42
1599.15	101.72
1602.381	102.08
1605.612	102.44
1608.843	101.92
1612.073	101.81
1615.303	102.37
1618.533	101.47
1621.762	102.55
1624.992	102.17
1628.221	101.72
1631.449	101.49
1634.678	101.57
1637.906	102.11
1641.134	101.43
1644.361	101.88
1647.588	101.99
1650.815	101.68
1654.042	102.02
1657.269	102.21
1660.495	102.06
1663.72	102.24
1666.946	102.68
1670.171	102.72
1673.396	102.56
1676.621	103.53
1679.845	103.46
1683.069	103.75
1686.293	104.09
1689.517	104.43
1692.74	104.37
1695.963	104.63
1699.185	104.99
1702.408	105.35
1705.63	106.02
1708.852	105.78
1712.073	105.8
1715.294	106.08
1718.515	106.36
1721.736	106.45
1724.956	106.36
1728.176	106.65
1731.396	106.83
1734.616	106.84
1737.835	107.12
1741.054	105.97
1744.272	106.77
1747.491	107.16
1750.709	107.1
1753.927	106.92
1757.144	107.06
1760.361	107.23
1763.578	107.64
1766.795	107.13
1770.011	107.72
1773.227	107.79
1776.443	109.19
1779.658	108.7
1782.874	109.09
1786.089	109.75
1789.303	110.11
1792.518	110.34
1795.732	110.65
1798.945	111.26
1802.159	112.24
1805.372	112.44
1808.585	114.09
1811.797	114.24
1815.01	115.04
1818.222	115.5
1821.434	116.44
1824.645	116.39
1827.856	119.45
1831.067	119.54
1834.278	119.89
1837.488	120.61
1840.698	121.03
1843.908	120.16
1847.117	120.7
1850.326	121.2
1853.535	120.19
1856.744	121.39
1859.952	121.42
1863.16	119.48
1866.368	119.44
1869.575	119.31
1872.782	117.22
1875.989	116.83
1879.196	116.2
1882.402	114.91
1885.608	114.89
1888.814	115.3
1892.019	114.4
1895.224	114.01
1898.429	113.55
1901.634	113.12
1904.838	113.73
1908.042	115.01
1911.246	114.61
1914.449	115.2
1917.652	115.63
1920.855	115.73
1924.058	115.13
1927.26	114.69
1930.462	114.65
1933.664	115.72
1936.865	116.02
1940.066	114.55
1943.267	113.4
1946.467	114.31
1949.668	114.77
1952.868	116.01
1956.067	115.95
1959.267	116.39
1962.466	116.88
1965.665	116.6
1968.863	117.21
1972.061	118.24
1975.259	119.69
1978.457	120.78
1981.654	121.69
1984.852	121.75
1988.048	121.56
1991.245	122.24
1994.441	122.99
1997.637	124.51
2000.833	127.73
2004.028	128.37
2007.223	130.24
2010.418	131.09
2013.613	134.07
2016.807	135.71
2020.001	137.23
2023.194	139.32
2026.388	143.55
2029.581	146.87
2032.774	147.65
2035.966	149.28
2039.158	150.19
2042.35	152.24
2045.542	154.14
2048.733	154.89
2051.924	156.55
2055.115	159.57
2058.306	159.97
2061.496	159.67
2064.686	160.2
2067.875	163.53
2071.065	163.86
2074.254	164.08
2077.442	165.46
2080.631	165.09
2083.819	168.13
2087.007	169.13
2090.195	169.88
2093.382	171.43
2096.569	171.66
2099.756	174.14
2102.942	174.17
2106.128	175.65
2109.314	179.78
2112.5	179.57
2115.685	183.49
2118.87	183.98
2122.055	186.17
2125.239	187.9
2128.424	190.76
2131.608	192.34
2134.791	194.97
2137.974	195.39
2141.157	196.82
2144.34	196.65
2147.523	197.85
2150.705	197.3
2153.887	199.88
2157.068	200.95
2160.25	199.67
2163.431	199.96
2166.611	200.93
2169.792	205.22
2172.972	207.5
2176.152	207.98
2179.331	210.09
2182.511	214.51
2185.69	216.6
2188.868	219.4
2192.047	220.43
2195.225	226.59
2198.403	230.6
2201.58	236.88
2204.758	239.52
2207.935	243.45
2211.111	250.12
2214.288	253.18
2217.464	253.78
2220.64	259.56
2223.815	262.35
2226.991	271.36
2230.166	270.76
2233.34	275.54
2236.515	278.34
2239.689	279.06
2242.863	282.39
2246.036	288.05
2249.209	286.76
2252.382	291.55
2255.555	297.9
2258.727	299.85
2261.9	302.86
2265.071	307.05
2268.243	311.96
2271.414	316.15
2274.585	322.7
2277.756	325.74
2280.926	328.17
2284.096	335.74
2287.266	342
2290.436	344.15
2293.605	352.41
2296.774	360.57
2299.942	370.04
2303.111	374.75
2306.279	380.9
2309.447	385.17
2312.614	395.96
2315.781	406.63
2318.948	425.73
2322.115	421.36
2325.281	445.3
2328.447	435.55
2331.613	450.88
2334.779	448.05
2337.944	464.81
2341.109	469.29
2344.274	485.03
2347.438	498.82
2350.602	500.05
2353.766	510.71
2356.929	521.34
2360.092	514.64
2363.255	550.81
2366.418	555.05
2369.58	561.61
2372.742	597.7
2375.904	614.1
2379.066	610.24
2382.227	597.33
2385.388	642.03
2388.548	650.04
2391.709	652.38
2394.869	729.23
2398.029	703.18
2401.188	719.6
2404.347	717.92
2407.506	704.58
2410.665	720.77
2413.823	764.01
2416.981	812.63
2420.139	790.6
2423.296	778.08
2426.453	813.91
2429.61	782.19
2432.767	810.22
2435.923	804.82
2439.079	885
2442.235	897.79
2445.391	893.77
2448.546	883.03
2451.701	857.41
2454.855	859.6
2458.009	907.06
2461.163	947.42
2464.317	979.34
2467.471	1003.03
2470.624	1004.34
2473.777	974.1
2476.929	947.95
2480.082	917.67
2483.234	913.07
2486.385	961.83
2489.537	963.03
2492.688	1003.05
2495.839	967.73
2498.989	950.32
2502.14	957.03
2505.29	960.41
2508.439	974.26
2511.589	973.19
2514.738	1067.05
2517.887	1045.52
2521.035	1098.58
2524.183	1108.33
2527.331	1112.83
2530.479	1112.88
2533.627	1119.6
