Data from N_1_HIR_WI_4n_Splice17_12-15-34-758.txt Node
Date: Sat Mar 07 12:15:34 EST 2020
User: sa697716
Spectrometer: NQ5500242
Trigger mode: 0
Integration Time (sec): 1.450000E-1
Scans to average: 20
Nonlinearity correction enabled: false
Boxcar width: 5
Storing dark spectrum: false
XAxis mode: Wavelengths
Number of Pixels in Spectrum: 512
>>>>>Begin Spectral Data<<<<<
187.83	117.2
188.298	101.88
188.766	85.29
189.233	72.33
189.701	67.24
190.169	94.32
190.636	78.71
191.104	58.73
191.571	-81.23
192.039	-136.27
192.506	-659.55
192.974	267.62
193.441	182.27
193.908	82.53
194.375	21.03
194.842	-42.27
195.31	5.2
195.777	-12.03
196.244	41.56
196.711	49.03
197.177	52.6
197.644	51.58
198.111	51.39
198.578	51.89
199.045	52.37
199.511	52.63
199.978	52.87
200.445	52.86
200.911	52.65
201.378	53.03
201.844	53.17
202.31	52.87
202.777	53.05
203.243	53.03
203.709	52.9
204.176	52.68
204.642	52.68
205.108	52.78
205.574	52.86
206.04	52.48
206.506	51.96
206.972	51.72
207.438	51.21
207.903	50.75
208.369	50.07
208.835	49.57
209.301	48.6
209.766	47.54
210.232	46.44
210.697	45.4
211.163	44.46
211.628	43.96
212.094	43.29
212.559	42.78
213.024	42.1
213.49	41.62
213.955	40.84
214.42	40.21
214.885	39.55
215.35	38.66
215.815	37.57
216.28	36.08
216.745	34.2
217.21	32.24
217.675	30.42
218.14	28.92
218.604	27.57
219.069	26.49
219.534	25.54
219.998	24.72
220.463	24.04
220.927	23.36
221.392	22.88
221.856	22.43
222.32	22.07
222.785	21.79
223.249	21.48
223.713	21.16
224.177	20.92
224.642	20.67
225.106	20.39
225.57	20.12
226.034	19.9
226.497	19.68
226.961	19.46
227.425	19.22
227.889	18.99
228.353	18.78
228.816	18.57
229.28	18.34
229.744	18.12
230.207	17.93
230.671	17.74
231.134	17.55
231.597	17.35
232.061	17.17
232.524	17
232.987	16.81
233.45	16.64
233.914	16.47
234.377	16.3
234.84	16.16
235.303	16.01
235.766	15.87
236.229	15.72
236.691	15.58
237.154	15.43
237.617	15.29
238.08	15.16
238.542	15.02
239.005	14.92
239.468	14.78
239.93	14.65
240.393	14.53
240.855	14.38
241.317	14.25
241.78	14.14
242.242	14.02
242.704	13.91
243.166	13.79
243.629	13.68
244.091	13.55
244.553	13.45
245.015	13.34
245.477	13.23
245.939	13.13
246.4	13.03
246.862	12.94
247.324	12.84
247.786	12.74
248.247	12.65
248.709	12.55
249.17	12.46
249.632	12.38
250.093	12.3
250.555	12.22
251.016	12.15
251.477	12.06
251.939	11.98
252.4	11.91
252.861	11.85
253.322	11.8
253.783	11.74
254.244	11.68
254.705	11.61
255.166	11.55
255.627	11.49
256.088	11.44
256.549	11.4
257.009	11.35
257.47	11.3
257.931	11.24
258.391	11.18
258.852	11.13
259.312	11.08
259.773	11.03
260.233	10.99
260.694	10.94
261.154	10.89
261.614	10.85
262.074	10.8
262.534	10.75
262.994	10.72
263.455	10.68
263.915	10.65
264.374	10.62
264.834	10.59
265.294	10.56
265.754	10.54
266.214	10.52
266.673	10.5
267.133	10.48
267.593	10.47
268.052	10.46
268.512	10.44
268.971	10.42
269.431	10.41
269.89	10.39
270.349	10.37
270.809	10.36
271.268	10.34
271.727	10.31
272.186	10.3
272.645	10.29
273.104	10.26
273.563	10.24
274.022	10.22
274.481	10.21
274.94	10.2
275.399	10.17
275.857	10.15
276.316	10.14
276.775	10.12
277.233	10.11
277.692	10.09
278.15	10.08
278.609	10.07
279.067	10.05
279.525	10.04
279.984	10.02
280.442	10.01
280.9	10
281.358	9.98
281.816	9.96
282.274	9.95
282.732	9.93
283.19	9.92
283.648	9.91
284.106	9.91
284.564	9.9
285.021	9.89
285.479	9.89
285.937	9.87
286.394	9.87
286.852	9.86
287.309	9.86
287.767	9.84
288.224	9.83
288.682	9.81
289.139	9.79
289.596	9.77
290.053	9.74
290.511	9.71
290.968	9.69
291.425	9.67
291.882	9.66
292.339	9.64
292.796	9.64
293.252	9.62
293.709	9.62
294.166	9.63
294.623	9.62
295.079	9.62
295.536	9.63
295.992	9.63
296.449	9.64
296.905	9.64
297.362	9.64
297.818	9.63
298.274	9.64
298.731	9.63
299.187	9.62
299.643	9.62
300.099	9.62
300.555	9.62
301.011	9.62
301.467	9.61
301.923	9.61
302.379	9.61
302.835	9.61
303.291	9.6
303.746	9.61
304.202	9.62
304.658	9.61
305.113	9.61
305.569	9.6
306.024	9.61
306.479	9.62
306.935	9.61
307.39	9.61
307.845	9.61
308.301	9.62
308.756	9.62
309.211	9.61
309.666	9.63
310.121	9.63
310.576	9.64
311.031	9.64
311.486	9.64
311.94	9.65
312.395	9.64
312.85	9.65
313.305	9.65
313.759	9.65
314.214	9.66
314.668	9.66
315.123	9.65
315.577	9.65
316.032	9.65
316.486	9.65
316.94	9.64
317.394	9.63
317.849	9.61
318.303	9.6
318.757	9.59
319.211	9.58
319.665	9.56
320.119	9.55
320.572	9.53
321.026	9.51
321.48	9.5
321.934	9.49
322.387	9.48
322.841	9.48
323.295	9.48
323.748	9.47
324.202	9.47
324.655	9.47
325.108	9.47
325.562	9.48
326.015	9.49
326.468	9.49
326.921	9.49
327.374	9.49
327.827	9.49
328.28	9.48
328.733	9.48
329.186	9.47
329.639	9.46
330.092	9.45
330.545	9.44
330.997	9.42
331.45	9.42
331.903	9.42
332.355	9.42
332.808	9.42
333.26	9.43
333.713	9.43
334.165	9.43
334.617	9.44
335.069	9.43
335.522	9.44
335.974	9.45
336.426	9.45
336.878	9.44
337.33	9.43
337.782	9.42
338.234	9.41
338.686	9.4
339.137	9.4
339.589	9.37
340.041	9.37
340.493	9.34
340.944	9.32
341.396	9.31
341.847	9.28
342.299	9.26
342.75	9.24
343.201	9.22
343.653	9.2
344.104	9.17
344.555	9.15
345.006	9.12
345.457	9.12
345.908	9.1
346.359	9.09
346.81	9.08
347.261	9.07
347.712	9.07
348.163	9.05
348.613	9.05
349.064	9.05
349.515	9.04
349.965	9.05
350.416	9.03
350.866	9.03
351.317	9.02
351.767	9.02
352.217	9.02
352.668	9.01
353.118	9.01
353.568	8.99
354.018	8.99
354.468	8.99
354.918	8.98
355.368	8.99
355.818	8.98
356.268	8.97
356.718	8.96
357.168	8.95
357.617	8.94
358.067	8.93
358.517	8.95
358.966	8.94
359.416	8.93
359.865	8.93
360.315	8.91
360.764	8.91
361.213	8.9
361.663	8.89
362.112	8.89
362.561	8.88
363.01	8.87
363.459	8.84
363.908	8.83
364.357	8.82
364.806	8.82
365.255	8.82
365.703	8.82
366.152	8.83
366.601	8.82
367.05	8.82
367.498	8.82
367.947	8.82
368.395	8.81
368.844	8.83
369.292	8.83
369.74	8.83
370.189	8.81
370.637	8.82
371.085	8.81
371.533	8.81
371.981	8.81
372.429	8.8
372.877	8.8
373.325	8.81
373.773	8.8
374.221	8.78
374.669	8.78
375.116	8.79
375.564	8.78
376.012	8.78
376.459	8.79
376.907	8.8
377.354	8.82
377.801	8.83
378.249	8.83
378.696	8.84
379.143	8.86
379.591	8.89
380.038	8.89
380.485	8.91
380.932	8.92
381.379	8.93
381.826	8.94
382.273	8.95
382.72	8.94
383.166	8.96
383.613	8.97
384.06	8.98
384.506	8.99
384.953	9.01
385.4	9.02
385.846	9.05
386.292	9.07
386.739	9.08
387.185	9.09
387.631	9.12
388.078	9.13
388.524	9.15
388.97	9.17
389.416	9.18
389.862	9.2
390.308	9.22
390.754	9.25
391.2	9.27
391.645	9.3
392.091	9.32
392.537	9.35
392.983	9.36
393.428	9.38
393.874	9.39
394.319	9.41
394.765	9.42
395.21	9.44
395.655	9.44
396.101	9.47
396.546	9.49
396.991	9.5
397.436	9.52
397.881	9.57
398.326	9.59
398.771	9.61
399.216	9.63
399.661	9.64
400.106	9.63
400.551	9.65
400.995	9.64
401.44	9.64
401.885	9.66
402.329	9.67
402.774	9.67
403.218	9.7
403.663	9.72
404.107	9.74
404.551	9.76
404.995	9.77
405.44	9.77
405.884	9.8
406.328	9.82
406.772	9.81
407.216	9.82
407.66	9.83
408.104	9.81
408.547	9.81
408.991	9.83
409.435	9.82
409.879	9.84
410.322	9.86
410.766	9.87
411.209	9.88
411.653	9.9
412.096	9.92
412.54	9.92
412.983	9.95
413.426	9.98
413.869	9.98
414.312	10.01
414.756	10.03
415.199	10.04
415.642	10.04
416.085	10.04
416.527	10.04
416.97	10.01
417.413	10.02
417.856	10
418.298	9.99
418.741	9.98
419.184	9.98
419.626	9.98
420.069	9.98
420.511	9.97
420.953	9.97
421.396	9.99
421.838	10.01
422.28	10.03
422.722	10.05
423.164	10.05
423.606	10.05
424.048	10.04
424.49	10.05
424.932	10.05
425.374	10.04
425.816	10.02
426.258	10
426.699	10
427.141	9.98
427.582	9.99
428.024	10
428.465	10.02
428.907	10.02
429.348	10.02
429.789	10.03
430.231	10.07
430.672	10.1
431.113	10.14
431.554	10.17
431.995	10.21
432.436	10.22
432.877	10.23
433.318	10.27
433.759	10.32
434.2	10.36
434.64	10.4
435.081	10.41
435.522	10.45
435.962	10.46
436.403	10.48
436.843	10.5
437.284	10.5
437.724	10.52
438.164	10.51
438.604	10.5
439.045	10.51
439.485	10.51
439.925	10.51
440.365	10.51
440.805	10.51
441.245	10.5
441.685	10.52
442.125	10.53
442.564	10.55
443.004	10.56
443.444	10.58
443.883	10.59
444.323	10.6
444.762	10.61
445.202	10.6
445.641	10.61
446.081	10.62
446.52	10.61
446.959	10.62
447.398	10.62
447.837	10.63
448.276	10.63
448.716	10.64
449.154	10.64
449.593	10.65
450.032	10.67
450.471	10.68
450.91	10.67
451.349	10.67
451.787	10.67
452.226	10.67
452.664	10.67
453.103	10.66
453.541	10.64
453.98	10.63
454.418	10.61
454.856	10.58
455.295	10.57
455.733	10.54
456.171	10.54
456.609	10.52
457.047	10.5
457.485	10.49
457.923	10.48
458.361	10.48
458.798	10.47
459.236	10.47
459.674	10.47
460.111	10.46
460.549	10.47
460.987	10.48
461.424	10.47
461.862	10.47
462.299	10.47
462.736	10.48
463.173	10.47
463.611	10.47
464.048	10.48
464.485	10.48
464.922	10.49
465.359	10.5
465.796	10.49
466.233	10.51
466.67	10.51
467.106	10.52
467.543	10.51
467.98	10.51
468.416	10.5
468.853	10.5
469.29	10.49
469.726	10.47
470.162	10.46
470.599	10.45
471.035	10.43
471.471	10.41
471.907	10.38
472.344	10.37
472.78	10.36
473.216	10.34
473.652	10.32
474.088	10.3
474.523	10.29
474.959	10.27
475.395	10.26
475.831	10.24
476.266	10.24
476.702	10.23
477.138	10.21
477.573	10.19
478.008	10.19
478.444	10.18
478.879	10.16
479.314	10.15
479.75	10.14
480.185	10.11
480.62	10.09
481.055	10.07
481.49	10.06
481.925	10.06
482.36	10.05
482.795	10.02
483.229	10
483.664	9.99
484.099	9.97
484.534	9.95
484.968	9.96
485.403	9.96
485.837	9.96
486.271	9.95
486.706	9.94
487.14	9.93
487.574	9.94
488.009	9.94
488.443	9.94
488.877	9.95
489.311	9.96
489.745	9.96
490.179	9.97
490.613	9.98
491.046	9.99
491.48	9.99
491.914	9.99
492.348	9.99
492.781	10.01
493.215	10.03
493.648	10.04
494.082	10.04
494.515	10.04
494.948	10.05
495.382	10.07
495.815	10.08
496.248	10.1
496.681	10.13
497.114	10.16
497.547	10.17
497.98	10.18
498.413	10.2
498.846	10.24
499.279	10.27
499.711	10.29
500.144	10.32
500.577	10.37
501.009	10.41
501.442	10.44
501.874	10.48
502.306	10.53
502.739	10.58
503.171	10.64
503.603	10.69
504.036	10.75
504.468	10.81
504.9	10.86
505.332	10.92
505.764	10.99
506.196	11.06
506.627	11.15
507.059	11.24
507.491	11.33
507.923	11.42
508.354	11.54
508.786	11.64
509.217	11.76
509.649	11.89
510.08	12.02
510.512	12.14
510.943	12.28
511.374	12.41
511.805	12.55
512.237	12.71
512.668	12.86
513.099	13.02
513.53	13.18
513.961	13.35
514.391	13.54
514.822	13.72
515.253	13.93
515.684	14.13
516.114	14.33
516.545	14.56
516.975	14.78
517.406	14.99
517.836	15.22
518.267	15.46
518.697	15.68
519.127	15.9
519.558	16.14
519.988	16.37
520.418	16.61
520.848	16.84
521.278	17.08
521.708	17.46
522.138	17.7
522.567	17.92
522.997	18.14
523.427	18.38
523.857	18.61
524.286	18.84
524.716	19.06
525.145	19.26
525.575	19.48
526.004	19.68
526.433	19.73
526.863	19.93
527.292	20.12
527.721	20.3
528.15	20.45
528.579	20.61
529.008	20.78
529.437	20.94
529.866	21.1
530.295	21.24
530.724	21.38
531.152	21.52
531.581	21.64
532.01	21.77
532.438	21.91
532.867	22.02
533.295	22.12
533.723	22.21
534.152	22.29
534.58	22.37
535.008	22.43
535.436	22.51
535.865	22.57
536.293	22.62
536.721	22.68
537.149	22.73
537.576	22.79
538.004	22.85
538.432	22.9
538.86	22.94
539.287	22.98
539.715	23.03
540.143	23.06
540.57	23.1
540.998	23.13
541.425	23.18
541.852	23.21
542.28	23.25
542.707	23.28
543.134	23.31
543.561	23.36
543.988	23.4
544.415	23.43
544.842	23.47
545.269	23.5
545.696	23.52
546.123	23.56
546.549	23.58
546.976	23.61
547.403	23.62
547.829	23.65
548.256	23.65
548.682	23.67
549.108	23.69
549.535	23.71
549.961	23.72
550.387	23.73
550.813	23.72
551.24	23.72
551.666	23.7
552.092	23.68
552.518	23.65
552.943	23.62
553.369	23.58
553.795	23.54
554.221	23.48
554.646	23.43
555.072	23.37
555.498	23.3
555.923	23.23
556.349	23.16
556.774	23.09
557.199	23.02
557.625	22.94
558.05	22.85
558.475	22.76
558.9	22.69
559.325	22.59
559.75	22.49
560.175	22.39
560.6	22.26
561.025	22.15
561.449	22.02
561.874	21.89
562.299	21.75
562.723	21.62
563.148	21.47
563.572	21.3
563.997	21.16
564.421	21
564.846	20.85
565.27	20.7
565.694	20.55
566.118	20.39
566.542	20.24
566.966	20.09
567.39	19.94
567.814	19.8
568.238	19.65
568.662	19.5
569.086	19.36
569.509	19.2
569.933	19.06
570.357	18.92
570.78	18.77
571.204	18.63
571.627	18.5
572.05	18.35
572.474	18.23
572.897	18.11
573.32	17.98
573.743	17.84
574.166	17.73
574.589	17.6
575.012	17.49
575.435	17.38
575.858	17.27
576.281	17.17
576.704	17.06
577.126	16.95
577.549	16.85
577.972	16.76
578.394	16.67
578.817	16.58
579.239	16.5
579.661	16.42
580.084	16.34
580.506	16.27
580.928	16.19
581.35	16.13
581.772	16.05
582.194	15.97
582.616	15.91
583.038	15.84
583.46	15.79
583.882	15.72
584.303	15.66
584.725	15.6
585.147	15.53
585.568	15.48
585.99	15.43
586.411	15.39
586.833	15.33
587.254	15.28
587.675	15.23
588.096	15.18
588.518	15.14
588.939	15.1
589.36	15.06
589.781	15.02
590.202	14.97
590.623	14.92
591.043	14.87
591.464	14.84
591.885	14.78
592.305	14.74
592.726	14.71
593.147	14.66
593.567	14.63
593.987	14.58
594.408	14.55
594.828	14.53
595.248	14.5
595.669	14.48
596.089	14.45
596.509	14.44
596.929	14.41
597.349	14.37
597.769	14.35
598.189	14.32
598.608	14.3
599.028	14.26
599.448	14.22
599.867	14.18
600.287	14.15
600.706	14.12
601.126	14.08
601.545	14.05
601.965	14.03
602.384	14
602.803	13.95
603.222	13.92
603.641	13.88
604.061	13.86
604.48	13.81
604.898	13.75
605.317	13.71
605.736	13.66
606.155	13.61
606.574	13.54
606.992	13.49
607.411	13.44
607.829	13.36
608.248	13.3
608.666	13.23
609.085	13.19
609.503	13.14
609.921	13.08
610.339	13.03
610.758	12.97
611.176	12.92
611.594	12.86
612.012	12.8
612.43	12.77
612.847	12.72
613.265	12.66
613.683	12.6
614.101	12.56
614.518	12.51
614.936	12.46
615.353	12.4
615.771	12.36
616.188	12.33
616.606	12.3
617.023	12.26
617.44	12.22
617.857	12.19
618.274	12.15
618.691	12.11
619.108	12.07
619.525	12.05
619.942	12.03
620.359	12
620.776	11.97
621.192	11.94
621.609	11.92
622.026	11.89
622.442	11.88
622.859	11.87
623.275	11.86
623.691	11.84
624.108	11.82
624.524	11.8
624.94	11.79
625.356	11.78
625.772	11.76
626.188	11.75
626.604	11.74
627.02	11.74
627.436	11.72
627.852	11.71
628.268	11.7
628.683	11.69
629.099	11.7
629.514	11.68
629.93	11.68
630.345	11.65
630.761	11.62
631.176	11.61
631.591	11.58
632.007	11.56
632.422	11.52
632.837	11.5
633.252	11.47
633.667	11.43
634.082	11.39
634.497	11.34
634.911	11.31
635.326	11.27
635.741	11.22
636.155	11.17
636.57	11.12
636.984	11.07
637.399	11.01
637.813	10.96
638.228	10.89
638.642	10.84
639.056	10.78
639.47	10.72
639.884	10.67
640.298	10.6
640.712	10.54
641.126	10.49
641.54	10.43
641.954	10.36
642.368	10.31
642.781	10.25
643.195	10.21
643.609	10.16
644.022	10.11
644.436	10.07
644.849	10.03
645.262	9.99
645.676	9.93
646.089	9.89
646.502	9.87
646.915	9.84
647.328	9.82
647.741	9.8
648.154	9.76
648.567	9.75
648.98	9.72
649.393	9.71
649.805	9.7
650.218	9.7
650.631	9.69
651.043	9.67
651.456	9.66
651.868	9.63
652.28	9.62
652.693	9.6
653.105	9.59
653.517	9.58
653.929	9.56
654.341	9.53
654.753	9.51
655.165	9.48
655.577	9.46
655.989	9.44
656.401	9.42
656.813	9.4
657.224	9.37
657.636	9.33
658.047	9.31
658.459	9.29
658.87	9.26
659.282	9.24
659.693	9.22
660.104	9.21
660.515	9.18
660.926	9.16
661.338	9.14
661.749	9.13
662.159	9.12
662.57	9.11
662.981	9.09
663.392	9.08
663.803	9.06
664.213	9.05
664.624	9.03
665.035	9.03
665.445	9.02
665.855	9.02
666.266	9.02
666.676	9.02
667.086	9.01
667.497	9.01
667.907	9.01
668.317	9.02
668.727	9.03
669.137	9.03
669.547	9.05
669.956	9.06
670.366	9.06
670.776	9.07
671.186	9.08
671.595	9.09
672.005	9.1
672.414	9.11
672.824	9.11
673.233	9.13
673.642	9.14
674.052	9.14
674.461	9.14
674.87	9.16
675.279	9.19
675.688	9.21
676.097	9.23
676.506	9.25
676.915	9.27
677.323	9.3
677.732	9.32
678.141	9.35
678.549	9.37
678.958	9.39
679.366	9.41
679.775	9.42
680.183	9.45
680.592	9.48
681	9.52
681.408	9.55
681.816	9.58
682.224	9.61
682.632	9.65
683.04	9.69
683.448	9.74
683.856	9.78
684.264	9.83
684.671	9.88
685.079	9.94
685.487	10
685.894	10.07
686.302	10.16
686.709	10.25
687.116	10.36
687.524	10.49
687.931	10.63
688.338	10.79
688.745	10.98
689.152	11.18
689.559	11.41
689.966	11.65
690.373	11.92
690.78	12.22
691.187	12.53
691.593	12.86
692	13.2
692.407	13.59
692.813	13.99
693.22	14.4
693.626	14.84
694.032	15.3
694.439	15.77
694.845	16.28
695.251	16.8
695.657	17.32
696.063	17.88
696.469	18.46
696.875	19.03
697.281	19.62
697.687	20.22
698.093	20.83
698.498	21.43
698.904	22.06
699.31	22.67
699.715	23.29
700.12	23.95
700.526	24.6
700.931	25.24
701.337	25.89
701.742	26.53
702.147	27.17
702.552	27.84
702.957	28.48
703.362	29.15
703.767	29.81
704.172	30.44
704.577	31.05
704.981	31.68
705.386	32.31
705.791	32.93
706.195	33.57
706.6	34.18
707.004	34.78
707.408	35.4
707.813	35.99
708.217	36.6
708.621	37.23
709.025	37.84
709.43	38.43
709.834	39.05
710.237	39.64
710.641	40.23
711.045	40.82
711.449	41.41
711.853	42
712.256	42.58
712.66	43.12
713.064	43.68
713.467	44.23
713.87	44.8
714.274	45.32
714.677	45.89
715.08	46.41
715.484	46.95
715.887	47.5
716.29	47.99
716.693	48.52
717.096	49.06
717.499	49.57
717.901	50.08
718.304	50.56
718.707	51.06
719.109	51.52
719.512	51.99
719.915	52.46
720.317	52.88
720.719	53.33
721.122	53.76
721.524	54.18
721.926	54.6
722.328	55.01
722.731	55.41
723.133	55.82
723.535	56.22
723.937	56.58
724.338	56.93
724.74	57.32
725.142	57.72
725.544	58.05
725.945	58.37
726.347	58.65
726.748	58.96
727.15	59.26
727.551	59.55
727.952	59.82
728.354	60.13
728.755	60.42
729.156	60.67
729.557	60.86
729.958	61.12
730.359	61.39
730.76	61.66
731.161	61.91
731.562	62.16
731.962	62.35
732.363	62.56
732.763	62.77
733.164	62.96
733.564	63.17
733.965	63.34
734.365	63.53
734.766	63.69
735.166	63.85
735.566	64.02
735.966	64.17
736.366	64.36
736.766	64.5
737.166	64.63
737.566	64.76
737.966	64.89
738.365	65.04
738.765	65.16
739.165	65.29
739.564	65.44
739.964	65.54
740.363	65.62
740.763	65.7
741.162	65.83
741.561	65.91
741.96	66
742.36	66.09
742.759	66.15
743.158	66.2
743.557	66.24
743.955	66.32
744.354	66.38
744.753	66.48
745.152	66.59
745.55	66.66
745.949	66.75
746.348	66.85
746.746	66.91
747.144	67.01
747.543	67.06
747.941	67.16
748.339	67.17
748.737	67.22
749.136	67.22
749.534	67.21
749.932	67.23
750.33	67.23
750.727	67.25
751.125	67.27
751.523	67.3
751.921	67.34
752.318	67.37
752.716	67.41
753.113	67.45
753.511	67.51
753.908	67.58
754.305	67.63
754.703	67.64
755.1	67.65
755.497	67.65
755.894	67.64
756.291	67.67
756.688	67.65
757.085	67.66
757.482	67.64
757.878	67.65
758.275	67.63
758.672	67.63
759.068	67.66
759.465	67.68
759.861	67.76
760.258	67.81
760.654	67.79
761.05	67.83
761.447	67.88
761.843	67.9
762.239	67.9
762.635	67.9
763.031	67.91
763.427	67.91
763.822	67.92
764.218	67.87
764.614	67.84
765.01	67.87
765.405	67.85
765.801	67.8
766.196	67.81
766.592	67.81
766.987	67.83
767.382	67.84
767.778	67.86
768.173	67.87
768.568	67.88
768.963	67.88
769.358	67.91
769.753	67.91
770.148	67.93
770.542	67.94
770.937	67.93
771.332	67.91
771.726	67.91
772.121	67.91
772.515	67.94
772.91	67.95
773.304	67.98
773.699	67.98
774.093	67.98
774.487	68.02
774.881	68.03
775.275	68.01
775.669	68.01
776.063	67.98
776.457	67.95
776.851	67.91
777.245	67.87
777.638	67.84
778.032	67.84
778.425	67.88
778.819	67.88
779.212	67.89
779.606	67.98
779.999	67.98
780.392	68
780.786	68.04
781.179	68.07
781.572	68.14
781.965	68.18
782.358	68.19
782.751	68.17
783.143	68.17
783.536	68.15
783.929	68.1
784.322	68.12
784.714	68.15
785.107	68.15
785.499	68.12
785.891	68.11
786.284	68.12
786.676	68.12
787.068	68.12
787.46	68.14
787.852	68.15
788.245	68.18
788.636	68.18
789.028	68.16
789.42	68.16
789.812	68.17
790.204	68.17
790.595	68.16
790.987	68.17
791.378	68.22
791.77	68.2
792.161	68.16
792.553	68.15
792.944	68.14
793.335	68.18
793.726	68.2
794.117	68.16
794.508	68.15
794.899	68.14
795.29	68.12
795.681	68.07
796.072	68.05
796.463	68.04
796.853	68.04
797.244	68.06
797.634	68.05
798.025	68.04
798.415	68.1
798.806	68.07
799.196	68.07
799.586	68.1
799.976	68.13
800.366	68.17
800.756	68.22
801.146	68.23
801.536	68.23
801.926	68.19
802.316	68.19
802.706	68.17
803.095	68.21
803.485	68.24
803.874	68.22
804.264	68.2
804.653	68.18
805.043	68.16
805.432	68.16
805.821	68.18
806.21	68.19
806.599	68.15
806.988	68.15
807.377	68.13
807.766	68.1
808.155	68.07
808.544	68.07
808.933	68.06
809.321	68.04
809.71	68.03
810.098	67.99
810.487	67.94
810.875	67.95
811.264	67.96
811.652	67.94
812.04	67.94
812.428	67.94
812.816	67.92
813.204	67.92
813.592	67.91
813.98	67.9
814.368	67.9
814.756	67.91
815.144	67.9
815.531	67.84
815.919	67.84
816.306	67.8
816.694	67.81
817.081	67.78
817.469	67.75
817.856	67.73
818.243	67.69
818.63	67.66
819.017	67.65
819.404	67.65
819.791	67.65
820.178	67.65
820.565	67.63
820.952	67.63
821.339	67.62
821.725	67.62
822.112	67.65
822.498	67.66
822.885	67.7
823.271	67.69
823.657	67.65
824.044	67.65
824.43	67.65
824.816	67.65
825.202	67.62
825.588	67.63
825.974	67.62
826.36	67.6
826.746	67.62
827.132	67.61
827.517	67.63
827.903	67.67
828.289	67.7
828.674	67.71
829.06	67.72
829.445	67.7
829.83	67.71
830.216	67.71
830.601	67.71
830.986	67.68
831.371	67.67
831.756	67.64
832.141	67.63
832.526	67.61
832.911	67.61
833.295	67.6
833.68	67.65
834.065	67.64
834.449	67.65
834.834	67.65
835.218	67.66
835.603	67.65
835.987	67.65
836.371	67.64
836.755	67.62
837.139	67.6
837.524	67.63
837.908	67.65
838.291	67.64
838.675	67.66
839.059	67.66
839.443	67.66
839.827	67.65
840.21	67.65
840.594	67.67
840.977	67.69
841.361	67.71
841.744	67.67
842.127	67.63
842.511	67.63
842.894	67.6
843.277	67.61
843.66	67.57
844.043	67.57
844.426	67.6
844.809	67.6
845.191	67.63
845.574	67.62
845.957	67.63
846.339	67.64
846.722	67.65
847.104	67.68
847.487	67.66
847.869	67.68
848.252	67.71
848.634	67.7
849.016	67.69
849.398	67.67
849.78	67.67
850.162	67.65
850.544	67.64
850.926	67.64
851.307	67.63
851.689	67.63
852.071	67.64
852.452	67.64
852.834	67.68
853.215	67.68
853.597	67.71
853.978	67.7
854.359	67.7
854.741	67.7
855.122	67.71
855.503	67.72
855.884	67.7
856.265	67.68
856.646	67.65
857.026	67.64
857.407	67.63
857.788	67.61
858.169	67.62
858.549	67.61
858.93	67.61
859.31	67.62
859.69	67.6
860.071	67.64
860.451	67.64
860.831	67.66
861.211	67.62
861.591	67.62
861.971	67.6
862.351	67.62
862.731	67.63
863.111	67.61
863.491	67.59
863.87	67.58
864.25	67.55
864.629	67.56
865.009	67.54
865.388	67.53
865.768	67.52
866.147	67.51
866.526	67.5
866.905	67.49
867.284	67.54
867.663	67.54
868.042	67.54
868.421	67.56
868.8	67.58
869.179	67.59
869.558	67.62
869.936	67.62
870.315	67.61
870.693	67.59
871.072	67.63
871.45	67.62
871.828	67.61
872.207	67.62
872.585	67.6
872.963	67.61
873.341	67.6
873.719	67.58
874.097	67.62
874.475	67.65
874.853	67.67
875.23	67.67
875.608	67.67
875.986	67.71
876.363	67.72
876.741	67.74
877.118	67.73
877.495	67.73
877.873	67.78
878.25	67.77
878.627	67.8
879.004	67.83
879.381	67.81
879.758	67.77
880.135	67.78
880.512	67.76
880.889	67.75
881.265	67.75
881.642	67.77
882.019	67.76
882.395	67.74
882.772	67.71
883.148	67.68
883.524	67.67
883.901	67.69
884.277	67.67
884.653	67.66
885.029	67.65
885.405	67.64
885.781	67.62
886.157	67.62
886.532	67.63
886.908	67.62
887.284	67.62
887.659	67.6
888.035	67.59
888.411	67.59
888.786	67.63
889.161	67.66
889.537	67.67
889.912	67.68
890.287	67.68
890.662	67.66
891.037	67.69
891.412	67.68
891.787	67.69
892.162	67.7
892.536	67.71
892.911	67.68
893.286	67.66
893.66	67.68
894.035	67.69
894.409	67.68
894.784	67.7
895.158	67.68
895.532	67.71
895.906	67.71
896.281	67.71
896.655	67.7
897.029	67.73
897.402	67.71
897.776	67.69
898.15	67.68
898.524	67.67
898.898	67.64
899.271	67.65
899.645	67.65
900.018	67.65
900.392	67.66
900.765	67.68
901.138	67.66
901.511	67.68
901.884	67.69
902.258	67.7
902.631	67.71
903.003	67.75
903.376	67.75
903.749	67.74
904.122	67.79
904.495	67.81
904.867	67.8
905.24	67.86
905.612	67.9
905.985	67.89
906.357	67.91
906.729	67.93
907.102	67.96
907.474	67.98
907.846	67.99
908.218	67.94
908.59	67.95
908.962	67.94
909.334	67.94
909.705	67.9
910.077	67.95
910.449	67.98
910.82	67.99
911.192	67.96
911.563	67.97
911.935	67.94
912.306	67.95
912.677	67.96
913.048	67.97
913.419	67.93
913.79	67.94
914.161	67.96
914.532	67.93
914.903	67.94
915.274	67.93
915.645	67.92
916.015	67.96
916.386	67.98
916.756	68
917.127	68
917.497	68.01
917.868	68.01
918.238	67.97
918.608	68.01
918.978	67.99
919.348	68.03
919.718	68.03
920.088	68.03
920.458	68
920.828	67.99
921.198	67.96
921.567	67.95
921.937	67.98
922.306	68.01
922.676	67.98
923.045	67.96
923.415	67.92
923.784	67.9
924.153	67.92
924.522	67.93
924.891	67.92
925.26	67.95
925.629	67.98
925.998	67.94
926.367	67.94
926.736	67.95
927.104	67.94
927.473	67.96
927.842	67.94
928.21	67.92
928.578	67.91
928.947	67.89
929.315	67.85
929.683	67.82
930.051	67.79
930.42	67.78
930.788	67.69
931.156	67.67
931.523	67.67
931.891	67.74
932.259	67.71
932.627	67.73
932.994	67.77
933.362	67.74
933.729	67.73
934.097	67.72
934.464	67.73
934.831	67.73
935.199	67.78
935.566	67.78
935.933	67.65
936.3	67.64
936.667	67.58
937.034	67.54
937.401	67.56
937.767	67.56
938.134	67.53
938.501	67.5
938.867	67.6
939.234	67.6
939.6	67.54
939.967	67.58
940.333	67.55
940.699	67.55
941.065	67.48
941.431	67.44
941.798	67.41
942.163	67.39
942.529	67.35
942.895	67.28
943.261	67.18
943.627	67.15
943.992	67.13
944.358	67.11
944.723	67.11
945.089	67.1
945.454	67.15
945.82	67.2
946.185	67.24
946.55	67.2
946.915	67.18
947.28	67.16
947.645	67.24
948.01	67.26
948.375	67.24
948.74	67.21
949.104	67.3
949.469	67.26
949.834	67.15
950.198	67.09
950.562	67.1
950.927	67.04
951.291	66.98
951.655	66.84
952.02	66.8
952.384	66.8
952.748	66.77
953.112	66.69
953.476	66.68
953.839	66.67
954.203	66.66
954.567	66.59
954.931	66.54
955.294	66.52
955.658	66.63
956.021	66.61
956.385	66.57
956.748	66.55
957.111	66.51
957.474	66.54
957.837	66.5
958.2	66.46
958.563	66.48
958.926	66.55
959.289	66.56
959.652	66.49
960.015	66.49
960.377	66.5
960.74	66.54
961.102	66.57
961.465	66.56
961.827	66.61
962.189	66.69
962.552	66.71
962.914	66.69
963.276	66.82
963.638	66.86
964	66.89
964.362	66.86
964.724	66.83
965.085	66.81
965.447	66.81
965.809	66.83
966.17	66.82
966.532	66.82
966.893	66.86
967.255	66.82
967.616	66.79
967.977	66.76
968.338	66.78
968.699	66.76
969.061	66.74
969.421	66.71
969.782	66.72
970.143	66.74
970.504	66.76
970.865	66.78
971.225	66.72
971.586	66.76
971.946	66.78
972.307	66.77
972.667	66.8
973.027	66.87
973.388	66.93
973.748	66.94
974.108	67
974.468	66.94
974.828	66.96
975.188	66.99
975.548	66.98
975.907	67.03
976.267	67.05
976.627	67.07
976.986	67.01
977.346	66.97
977.705	66.95
978.064	66.85
978.424	66.92
978.783	66.88
979.142	66.88
979.501	66.91
979.86	66.97
980.219	66.97
980.578	66.98
980.937	67.08
981.296	67.05
981.654	67.04
982.013	67.12
982.371	67.09
982.73	67.12
983.088	67.13
983.447	67.03
983.805	66.96
984.163	66.94
984.521	66.88
984.879	66.83
985.237	66.87
985.595	66.87
985.953	66.84
986.311	66.76
986.669	66.7
987.026	66.66
987.384	66.71
987.741	66.7
988.099	66.76
988.456	66.81
988.814	66.86
989.171	66.84
989.528	66.84
989.885	66.78
990.242	66.76
990.599	66.94
990.956	66.96
991.313	67.02
991.67	66.98
992.027	66.99
992.383	66.99
992.74	66.99
993.096	67
993.453	67
993.809	67.06
994.165	67.18
994.522	67.09
994.878	67.11
995.234	67.05
995.59	67.04
995.946	67.11
996.302	67.14
996.658	67.18
997.013	67.12
997.369	67.11
997.725	67.13
998.08	67.14
998.436	67.13
998.791	67.16
999.147	67.08
999.502	67.15
999.857	67.06
1000.212	67.11
1000.567	67.04
1000.922	67.13
1001.277	67.06
1001.632	66.93
1001.987	67.02
1002.342	66.94
1002.696	66.95
1003.051	67.14
1003.406	67.2
1003.76	67.23
1004.114	67.15
1004.469	67.24
1004.823	67.48
1005.177	67.53
1005.531	67.76
1005.885	67.63
1006.239	67.72
1006.593	67.7
1006.947	67.67
1007.301	67.52
1007.655	67.51
1008.008	67.58
1008.362	67.47
1008.715	67.28
1009.069	67.42
1009.422	67.27
1009.776	67.35
1010.129	67.28
1010.482	67.35
1010.835	67.42
1011.188	67.47
1011.541	67.5
1011.894	67.46
1012.247	67.6
1012.6	67.7
1012.952	67.67
1013.305	67.79
1013.657	67.69
1014.01	67.59
1014.362	67.41
1014.715	67.29
1015.067	67.34
1015.419	67.38
1015.771	67.17
1016.123	67.16
1016.475	67.1
1016.827	67.09
1017.179	66.95
1017.531	67.03
1017.883	67.11
1018.234	67.43
1018.586	67.5
1018.938	67.61
1019.289	67.49
1019.64	67.72
1019.992	67.62
1020.343	67.56
1020.694	67.53
1021.045	67.61
1021.396	67.75
1021.747	67.95
1022.098	68.06
1022.449	67.92
1022.8	67.87
1023.151	67.99
1023.501	68.13
1023.852	68.26
1024.202	68.1
1024.553	68.05
1024.903	68.09
1025.253	68.21
1025.604	68.24
1025.954	67.6
1026.304	67.85
1026.654	67.91
1027.004	68.06
1027.354	67.97
1027.703	67.87
1028.053	67.88
1028.403	68.33
1028.753	68.24
1029.102	68.09
1029.452	67.99
1029.801	68.46
1030.15	68.37
1030.499	68.28
897.758	349.98
901.051	351.64
904.343	348.94
907.636	355.8
910.928	345.43
914.22	346.17
917.511	344.66
920.803	328.46
924.094	326.52
927.384	318.73
930.675	305.74
933.965	305.96
937.255	290.65
940.544	282.48
943.834	270.8
947.123	269.55
950.411	257.74
953.7	252.28
956.988	245.09
960.276	238.52
963.563	233.99
966.851	230.22
970.138	229.03
973.424	223.84
976.711	225.3
979.997	215.95
983.283	215.25
986.568	211.23
989.853	207.81
993.138	202.64
996.423	196.07
999.708	193.97
1002.992	191.02
1006.275	184.63
1009.559	183.31
1012.842	178.53
1016.125	176.11
1019.408	173.77
1022.69	172.5
1025.972	168.38
1029.254	166.79
1032.536	165.48
1035.817	162.08
1039.098	161.01
1042.379	158.49
1045.659	157.59
1048.939	154.02
1052.219	152.66
1055.498	151.3
1058.778	148.68
1062.057	146.74
1065.335	145.97
1068.614	143.57
1071.892	143.58
1075.17	141.39
1078.447	139.69
1081.724	138.63
1085.001	139
1088.278	135.9
1091.554	134.11
1094.83	133.86
1098.106	133.72
1101.382	132.23
1104.657	132.1
1107.932	130.16
1111.206	129.95
1114.481	127.33
1117.755	128.58
1121.029	126.94
1124.302	127.23
1127.575	126.2
1130.848	125.35
1134.121	123.9
1137.393	123.52
1140.665	121.86
1143.937	121.21
1147.208	120.57
1150.48	120.51
1153.75	117.93
1157.021	117.7
1160.291	117.12
1163.561	115.65
1166.831	116.25
1170.101	115.79
1173.37	116.34
1176.639	116.97
1179.907	116
1183.176	115.46
1186.444	115.63
1189.711	115.22
1192.979	114.03
1196.246	114.07
1199.513	114.73
1202.78	113.4
1206.046	113.3
1209.312	111.21
1212.578	110.99
1215.843	111.69
1219.108	111.57
1222.373	112.84
1225.638	113.42
1228.902	114.28
1232.166	115.43
1235.43	115.22
1238.693	116.32
1241.956	116.73
1245.219	118.71
1248.482	120.15
1251.744	119.57
1255.006	120.06
1258.268	118.8
1261.529	117.96
1264.79	117.9
1268.051	116.44
1271.312	116.12
1274.572	115.25
1277.832	114.89
1281.092	112.7
1284.351	111.34
1287.61	112.06
1290.869	109.84
1294.128	109.03
1297.386	109.42
1300.644	108.13
1303.902	108.31
1307.159	107.52
1310.416	107.47
1313.673	106.67
1316.93	108.08
1320.186	107.51
1323.442	107.09
1326.697	107.78
1329.953	108.32
1333.208	107.38
1336.463	108.68
1339.717	108.53
1342.972	108.93
1346.226	109.09
1349.479	109.45
1352.733	109.37
1355.986	110.25
1359.238	109.94
1362.491	109.83
1365.743	108.52
1368.995	108.65
1372.247	108.41
1375.498	107.53
1378.749	107.3
1382	104.79
1385.251	104.27
1388.501	102.15
1391.751	100.15
1395	98.78
1398.25	97.8
1401.499	96.22
1404.748	95.19
1407.996	90.55
1411.244	89.98
1414.492	88.46
1417.74	86.23
1420.987	85.1
1424.234	84.17
1427.481	82.8
1430.728	82.24
1433.974	81.82
1437.22	80.98
1440.465	80.53
1443.711	80.68
1446.956	79.54
1450.201	78.92
1453.445	79.69
1456.689	78.89
1459.933	77.67
1463.177	77.78
1466.42	77.24
1469.663	76.09
1472.906	75.84
1476.148	74.78
1479.391	74.85
1482.633	75.2
1485.874	74.74
1489.115	74.21
1492.356	74.43
1495.597	74.63
1498.838	74.19
1502.078	73.99
1505.318	74.7
1508.557	74.65
1511.797	74.98
1515.036	74.53
1518.274	74.95
1521.513	75.53
1524.751	75.06
1527.989	75.49
1531.227	76.16
1534.464	76.33
1537.701	76.28
1540.938	75.99
1544.174	76.47
1547.41	76.71
1550.646	76.86
1553.882	76.79
1557.117	76.95
1560.352	77.39
1563.587	77.43
1566.821	77.17
1570.055	77.37
1573.289	78
1576.523	78.33
1579.756	77.83
1582.989	77.97
1586.222	78.51
1589.454	78.04
1592.686	78.97
1595.918	78.67
1599.15	78.6
1602.381	78.79
1605.612	78.8
1608.843	78.71
1612.073	78.68
1615.303	79.39
1618.533	79.33
1621.762	79.29
1624.992	80.19
1628.221	79.36
1631.449	79.64
1634.678	79.77
1637.906	79.76
1641.134	79.93
1644.361	79.91
1647.588	80.05
1650.815	79.79
1654.042	80.33
1657.269	80.04
1660.495	79.86
1663.72	80.31
1666.946	80.32
1670.171	80.34
1673.396	80.95
1676.621	80.99
1679.845	80.7
1683.069	81.02
1686.293	80.98
1689.517	80.87
1692.74	81.21
1695.963	81.3
1699.185	80.86
1702.408	81.14
1705.63	81.43
1708.852	80.83
1712.073	80.78
1715.294	81.1
1718.515	81.08
1721.736	81.25
1724.956	81.23
1728.176	81.12
1731.396	81.25
1734.616	81.19
1737.835	81.33
1741.054	80.62
1744.272	80.95
1747.491	81.13
1750.709	81.06
1753.927	80.68
1757.144	80.13
1760.361	80.01
1763.578	79.74
1766.795	79.29
1770.011	79.72
1773.227	79.54
1776.443	79.92
1779.658	79.33
1782.874	79.44
1786.089	78.91
1789.303	79.31
1792.518	79.7
1795.732	79.79
1798.945	80.03
1802.159	80.2
1805.372	80.03
1808.585	80.4
1811.797	80.62
1815.01	81.57
1818.222	81.58
1821.434	82.36
1824.645	82.21
1827.856	83.67
1831.067	83.62
1834.278	84.03
1837.488	84.11
1840.698	84.24
1843.908	83.82
1847.117	83.98
1850.326	83.59
1853.535	82.27
1856.744	82.33
1859.952	81.25
1863.16	79.43
1866.368	78.09
1869.575	75.98
1872.782	74.26
1875.989	72.63
1879.196	71.12
1882.402	68.46
1885.608	67.45
1888.814	66.65
1892.019	64.37
1895.224	63.3
1898.429	62.83
1901.634	62.09
1904.838	62.32
1908.042	61.71
1911.246	60.82
1914.449	61.01
1917.652	61.28
1920.855	61.11
1924.058	61.04
1927.26	61.29
1930.462	60.44
1933.664	60.73
1936.865	60.6
1940.066	60.08
1943.267	59.88
1946.467	60.22
1949.668	60.3
1952.868	61
1956.067	61.29
1959.267	60.35
1962.466	60.64
1965.665	61.51
1968.863	61.99
1972.061	62.54
1975.259	62.75
1978.457	63.67
1981.654	65.16
1984.852	65.4
1988.048	65.48
1991.245	65.8
1994.441	67.37
1997.637	68.1
2000.833	69.61
2004.028	69.84
2007.223	71.07
2010.418	72.3
2013.613	73.83
2016.807	74.33
2020.001	75.26
2023.194	76.81
2026.388	79.12
2029.581	79.64
2032.774	80.93
2035.966	82.21
2039.158	82.79
2042.35	83.36
2045.542	83.61
2048.733	85.25
2051.924	85.65
2055.115	87.03
2058.306	86.87
2061.496	87.54
2064.686	88.97
2067.875	89.83
2071.065	90.58
2074.254	90.7
2077.442	92.55
2080.631	93.11
2083.819	93.23
2087.007	93.96
2090.195	94.92
2093.382	96.3
2096.569	96.28
2099.756	98.26
2102.942	98.39
2106.128	98.71
2109.314	101.58
2112.5	101.2
2115.685	104.05
2118.87	104.31
2122.055	106.59
2125.239	107.25
2128.424	108.19
2131.608	108.67
2134.791	110.11
2137.974	110.76
2141.157	110.84
2144.34	109.92
2147.523	110.66
2150.705	110.25
2153.887	111.83
2157.068	112.37
2160.25	112.41
2163.431	113.7
2166.611	113.76
2169.792	115.53
2172.972	116.54
2176.152	118.35
2179.331	119.43
2182.511	122.89
2185.69	123.37
2188.868	124.82
2192.047	125.17
2195.225	128.48
2198.403	130.45
2201.58	131.93
2204.758	135.2
2207.935	137.9
2211.111	140.82
2214.288	142.44
2217.464	141.54
2220.64	144.85
2223.815	145.15
2226.991	149.95
2230.166	149.17
2233.34	149.18
2236.515	153.95
2239.689	153.12
2242.863	153.37
2246.036	155.57
2249.209	154.57
2252.382	156.39
2255.555	157.74
2258.727	160.44
2261.9	162.44
2265.071	164.56
2268.243	168.37
2271.414	169.38
2274.585	171.78
2277.756	174.62
2280.926	175.24
2284.096	179.24
2287.266	184.74
2290.436	185.24
2293.605	189.15
2296.774	192.46
2299.942	196.49
2303.111	198.01
2306.279	201.63
2309.447	202.75
2312.614	207.46
2315.781	213.07
2318.948	222.26
2322.115	218.32
2325.281	232.67
2328.447	227.78
2331.613	235.15
2334.779	235.21
2337.944	244.37
2341.109	246.08
2344.274	254.4
2347.438	262.97
2350.602	261.5
2353.766	272.34
2356.929	276.33
2360.092	273.35
2363.255	289.87
2366.418	290.98
2369.58	296.31
2372.742	308.92
2375.904	318.94
2379.066	317.89
2382.227	311.26
2385.388	337.54
2388.548	334.91
2391.709	337.22
2394.869	373.45
2398.029	361.89
2401.188	369.66
2404.347	366.52
2407.506	364.42
2410.665	371.3
2413.823	391.84
2416.981	414.24
2420.139	401.67
2423.296	396.51
2426.453	413.68
2429.61	409.24
2432.767	422.57
2435.923	419.67
2439.079	460.69
2442.235	470.04
2445.391	469.99
2448.546	465.48
2451.701	448.76
2454.855	450.08
2458.009	474.39
2461.163	500.86
2464.317	502.5
2467.471	518.29
2470.624	524.49
2473.777	508.57
2476.929	493.33
2480.082	478.46
2483.234	477.11
2486.385	505.95
2489.537	509.15
2492.688	531.8
2495.839	509.98
2498.989	502.83
2502.14	505.63
2505.29	504.97
2508.439	509.33
2511.589	509.34
2514.738	551.61
2517.887	538.58
2521.035	563.11
2524.183	567.44
2527.331	566.4
2530.479	563.3
2533.627	567.18
