Data from N_1_DEC_ON_6n_Splice17_12-27-20-218.txt Node
Date: Sat Mar 07 12:27:20 EST 2020
User: sa697716
Spectrometer: NQ5500242
Trigger mode: 0
Integration Time (sec): 1.450000E-1
Scans to average: 20
Nonlinearity correction enabled: false
Boxcar width: 5
Storing dark spectrum: false
XAxis mode: Wavelengths
Number of Pixels in Spectrum: 512
>>>>>Begin Spectral Data<<<<<
187.83	88.74
188.298	99.34
188.766	67.73
189.233	70.01
189.701	87.83
190.169	95.98
190.636	107.77
191.104	165.61
191.571	209.49
192.039	36.47
192.506	-152.61
192.974	54.86
193.441	64.25
193.908	10.69
194.375	41.63
194.842	54.45
195.31	43.19
195.777	134.63
196.244	42.7
196.711	32.72
197.177	32.08
197.644	31.54
198.111	31.16
198.578	31.72
199.045	31.45
199.511	31.52
199.978	31.67
200.445	32.11
200.911	31.67
201.378	31.71
201.844	31.91
202.31	31.51
202.777	31.57
203.243	31.79
203.709	31.71
204.176	31.8
204.642	31.59
205.108	31.5
205.574	31.44
206.04	31.44
206.506	31.37
206.972	31.45
207.438	31.34
207.903	31.08
208.369	30.8
208.835	30.15
209.301	29.52
209.766	28.75
210.232	28.09
210.697	27.24
211.163	26.78
211.628	26.22
212.094	25.38
212.559	25.18
213.024	24.56
213.49	24.04
213.955	23.58
214.42	23.21
214.885	22.85
215.35	22.27
215.815	21.59
216.28	20.5
216.745	19.32
217.21	18.29
217.675	17.19
218.14	16.34
218.604	15.56
219.069	14.91
219.534	14.29
219.998	13.83
220.463	13.46
220.927	13.03
221.392	12.75
221.856	12.53
222.32	12.3
222.785	12.1
223.249	11.94
223.713	11.77
224.177	11.59
224.642	11.47
225.106	11.28
225.57	11.1
226.034	10.99
226.497	10.86
226.961	10.71
227.425	10.58
227.889	10.45
228.353	10.29
228.816	10.16
229.28	10.04
229.744	9.91
230.207	9.83
230.671	9.72
231.134	9.6
231.597	9.52
232.061	9.42
232.524	9.33
232.987	9.23
233.45	9.16
233.914	9.07
234.377	8.98
234.84	8.89
235.303	8.81
235.766	8.73
236.229	8.66
236.691	8.57
237.154	8.49
237.617	8.42
238.08	8.35
238.542	8.25
239.005	8.19
239.468	8.11
239.93	8.05
240.393	7.97
240.855	7.9
241.317	7.83
241.78	7.76
242.242	7.69
242.704	7.63
243.166	7.56
243.629	7.51
244.091	7.44
244.553	7.39
245.015	7.32
245.477	7.26
245.939	7.22
246.4	7.16
246.862	7.12
247.324	7.07
247.786	7.02
248.247	6.96
248.709	6.91
249.17	6.86
249.632	6.82
250.093	6.78
250.555	6.74
251.016	6.7
251.477	6.65
251.939	6.61
252.4	6.57
252.861	6.54
253.322	6.51
253.783	6.47
254.244	6.45
254.705	6.41
255.166	6.37
255.627	6.33
256.088	6.3
256.549	6.27
257.009	6.23
257.47	6.19
257.931	6.15
258.391	6.11
258.852	6.07
259.312	6.04
259.773	6.01
260.233	5.99
260.694	5.96
261.154	5.93
261.614	5.9
262.074	5.88
262.534	5.85
262.994	5.83
263.455	5.82
263.915	5.8
264.374	5.78
264.834	5.77
265.294	5.74
265.754	5.73
266.214	5.72
266.673	5.71
267.133	5.7
267.593	5.68
268.052	5.67
268.512	5.66
268.971	5.65
269.431	5.64
269.89	5.63
270.349	5.62
270.809	5.6
271.268	5.59
271.727	5.58
272.186	5.56
272.645	5.56
273.104	5.54
273.563	5.52
274.022	5.51
274.481	5.5
274.94	5.49
275.399	5.47
275.857	5.46
276.316	5.45
276.775	5.43
277.233	5.42
277.692	5.41
278.15	5.4
278.609	5.39
279.067	5.37
279.525	5.36
279.984	5.34
280.442	5.32
280.9	5.31
281.358	5.29
281.816	5.28
282.274	5.27
282.732	5.26
283.19	5.24
283.648	5.22
284.106	5.2
284.564	5.18
285.021	5.17
285.479	5.15
285.937	5.13
286.394	5.11
286.852	5.09
287.309	5.08
287.767	5.06
288.224	5.05
288.682	5.03
289.139	5.03
289.596	5.02
290.053	5
290.511	5
290.968	4.99
291.425	4.99
291.882	4.99
292.339	4.97
292.796	4.97
293.252	4.97
293.709	4.96
294.166	4.96
294.623	4.95
295.079	4.94
295.536	4.93
295.992	4.92
296.449	4.91
296.905	4.9
297.362	4.89
297.818	4.89
298.274	4.88
298.731	4.87
299.187	4.85
299.643	4.85
300.099	4.85
300.555	4.85
301.011	4.84
301.467	4.83
301.923	4.82
302.379	4.81
302.835	4.8
303.291	4.8
303.746	4.79
304.202	4.79
304.658	4.79
305.113	4.78
305.569	4.78
306.024	4.77
306.479	4.78
306.935	4.77
307.39	4.77
307.845	4.76
308.301	4.76
308.756	4.76
309.211	4.75
309.666	4.75
310.121	4.74
310.576	4.74
311.031	4.73
311.486	4.72
311.94	4.73
312.395	4.72
312.85	4.71
313.305	4.72
313.759	4.71
314.214	4.71
314.668	4.7
315.123	4.7
315.577	4.68
316.032	4.68
316.486	4.68
316.94	4.67
317.394	4.66
317.849	4.65
318.303	4.63
318.757	4.62
319.211	4.62
319.665	4.61
320.119	4.59
320.572	4.59
321.026	4.57
321.48	4.56
321.934	4.55
322.387	4.54
322.841	4.54
323.295	4.53
323.748	4.53
324.202	4.52
324.655	4.51
325.108	4.51
325.562	4.5
326.015	4.5
326.468	4.49
326.921	4.48
327.374	4.47
327.827	4.47
328.28	4.46
328.733	4.45
329.186	4.45
329.639	4.43
330.092	4.43
330.545	4.42
330.997	4.42
331.45	4.42
331.903	4.42
332.355	4.43
332.808	4.42
333.26	4.42
333.713	4.41
334.165	4.41
334.617	4.4
335.069	4.39
335.522	4.39
335.974	4.39
336.426	4.38
336.878	4.37
337.33	4.36
337.782	4.35
338.234	4.35
338.686	4.35
339.137	4.34
339.589	4.33
340.041	4.32
340.493	4.31
340.944	4.29
341.396	4.27
341.847	4.26
342.299	4.24
342.75	4.23
343.201	4.21
343.653	4.2
344.104	4.19
344.555	4.18
345.006	4.17
345.457	4.17
345.908	4.16
346.359	4.16
346.81	4.16
347.261	4.15
347.712	4.15
348.163	4.14
348.613	4.14
349.064	4.14
349.515	4.14
349.965	4.13
350.416	4.12
350.866	4.12
351.317	4.11
351.767	4.1
352.217	4.1
352.668	4.09
353.118	4.1
353.568	4.08
354.018	4.08
354.468	4.09
354.918	4.08
355.368	4.07
355.818	4.07
356.268	4.07
356.718	4.07
357.168	4.06
357.617	4.05
358.067	4.03
358.517	4.04
358.966	4.03
359.416	4.03
359.865	4.03
360.315	4.04
360.764	4.04
361.213	4.02
361.663	4.02
362.112	4.03
362.561	4.04
363.01	4.03
363.459	4.02
363.908	4.02
364.357	4.01
364.806	3.99
365.255	3.98
365.703	3.99
366.152	4
366.601	4.01
367.05	4.01
367.498	3.99
367.947	4.01
368.395	4.02
368.844	4.01
369.292	4.02
369.74	4.03
370.189	4.03
370.637	4.02
371.085	4.02
371.533	4.01
371.981	4.02
372.429	4.03
372.877	4.02
373.325	4.02
373.773	4.02
374.221	4.02
374.669	4.02
375.116	4.01
375.564	4.02
376.012	4.02
376.459	4.03
376.907	4.04
377.354	4.04
377.801	4.05
378.249	4.06
378.696	4.08
379.143	4.09
379.591	4.1
380.038	4.12
380.485	4.12
380.932	4.14
381.379	4.14
381.826	4.15
382.273	4.15
382.72	4.16
383.166	4.18
383.613	4.18
384.06	4.18
384.506	4.19
384.953	4.21
385.4	4.22
385.846	4.23
386.292	4.24
386.739	4.25
387.185	4.26
387.631	4.28
388.078	4.29
388.524	4.29
388.97	4.31
389.416	4.33
389.862	4.33
390.308	4.34
390.754	4.36
391.2	4.37
391.645	4.38
392.091	4.41
392.537	4.42
392.983	4.42
393.428	4.44
393.874	4.45
394.319	4.46
394.765	4.48
395.21	4.49
395.655	4.5
396.101	4.52
396.546	4.54
396.991	4.54
397.436	4.55
397.881	4.58
398.326	4.58
398.771	4.59
399.216	4.6
399.661	4.61
400.106	4.61
400.551	4.6
400.995	4.61
401.44	4.6
401.885	4.61
402.329	4.61
402.774	4.6
403.218	4.62
403.663	4.63
404.107	4.63
404.551	4.64
404.995	4.64
405.44	4.64
405.884	4.65
406.328	4.66
406.772	4.65
407.216	4.66
407.66	4.66
408.104	4.64
408.547	4.64
408.991	4.64
409.435	4.64
409.879	4.64
410.322	4.64
410.766	4.64
411.209	4.65
411.653	4.65
412.096	4.66
412.54	4.66
412.983	4.67
413.426	4.7
413.869	4.7
414.312	4.72
414.756	4.74
415.199	4.73
415.642	4.73
416.085	4.72
416.527	4.71
416.97	4.7
417.413	4.7
417.856	4.7
418.298	4.68
418.741	4.66
419.184	4.65
419.626	4.64
420.069	4.66
420.511	4.65
420.953	4.65
421.396	4.65
421.838	4.66
422.28	4.65
422.722	4.65
423.164	4.65
423.606	4.65
424.048	4.66
424.49	4.65
424.932	4.65
425.374	4.65
425.816	4.63
426.258	4.63
426.699	4.61
427.141	4.61
427.582	4.6
428.024	4.61
428.465	4.61
428.907	4.6
429.348	4.59
429.789	4.59
430.231	4.59
430.672	4.6
431.113	4.61
431.554	4.63
431.995	4.63
432.436	4.63
432.877	4.63
433.318	4.63
433.759	4.66
434.2	4.67
434.64	4.68
435.081	4.69
435.522	4.7
435.962	4.7
436.403	4.72
436.843	4.72
437.284	4.73
437.724	4.74
438.164	4.74
438.604	4.73
439.045	4.73
439.485	4.73
439.925	4.72
440.365	4.71
440.805	4.71
441.245	4.7
441.685	4.73
442.125	4.74
442.564	4.73
443.004	4.72
443.444	4.72
443.883	4.73
444.323	4.72
444.762	4.73
445.202	4.73
445.641	4.72
446.081	4.73
446.52	4.7
446.959	4.71
447.398	4.73
447.837	4.73
448.276	4.73
448.716	4.74
449.154	4.75
449.593	4.75
450.032	4.75
450.471	4.74
450.91	4.73
451.349	4.73
451.787	4.71
452.226	4.68
452.664	4.69
453.103	4.68
453.541	4.68
453.98	4.68
454.418	4.65
454.856	4.65
455.295	4.65
455.733	4.63
456.171	4.64
456.609	4.64
457.047	4.64
457.485	4.61
457.923	4.61
458.361	4.6
458.798	4.6
459.236	4.6
459.674	4.59
460.111	4.59
460.549	4.6
460.987	4.6
461.424	4.6
461.862	4.6
462.299	4.61
462.736	4.62
463.173	4.61
463.611	4.61
464.048	4.62
464.485	4.64
464.922	4.64
465.359	4.64
465.796	4.64
466.233	4.64
466.67	4.64
467.106	4.65
467.543	4.65
467.98	4.64
468.416	4.65
468.853	4.64
469.29	4.63
469.726	4.62
470.162	4.61
470.599	4.6
471.035	4.6
471.471	4.59
471.907	4.58
472.344	4.57
472.78	4.58
473.216	4.57
473.652	4.56
474.088	4.56
474.523	4.56
474.959	4.56
475.395	4.54
475.831	4.53
476.266	4.54
476.702	4.51
477.138	4.51
477.573	4.5
478.008	4.51
478.444	4.5
478.879	4.49
479.314	4.49
479.75	4.48
480.185	4.48
480.62	4.48
481.055	4.47
481.49	4.47
481.925	4.47
482.36	4.46
482.795	4.45
483.229	4.45
483.664	4.45
484.099	4.43
484.534	4.42
484.968	4.42
485.403	4.43
485.837	4.43
486.271	4.44
486.706	4.44
487.14	4.45
487.574	4.45
488.009	4.46
488.443	4.46
488.877	4.48
489.311	4.5
489.745	4.51
490.179	4.53
490.613	4.55
491.046	4.56
491.48	4.59
491.914	4.61
492.348	4.64
492.781	4.66
493.215	4.7
493.648	4.73
494.082	4.75
494.515	4.78
494.948	4.81
495.382	4.83
495.815	4.87
496.248	4.9
496.681	4.94
497.114	4.98
497.547	5.03
497.98	5.07
498.413	5.12
498.846	5.18
499.279	5.23
499.711	5.28
500.144	5.35
500.577	5.41
501.009	5.48
501.442	5.55
501.874	5.63
502.306	5.7
502.739	5.79
503.171	5.87
503.603	5.97
504.036	6.07
504.468	6.17
504.9	6.26
505.332	6.37
505.764	6.48
506.196	6.61
506.627	6.73
507.059	6.87
507.491	6.99
507.923	7.13
508.354	7.27
508.786	7.42
509.217	7.58
509.649	7.75
510.08	7.92
510.512	8.1
510.943	8.27
511.374	8.46
511.805	8.64
512.237	8.83
512.668	9.02
513.099	9.23
513.53	9.42
513.961	9.62
514.391	9.83
514.822	10.05
515.253	10.27
515.684	10.49
516.114	10.71
516.545	10.95
516.975	11.18
517.406	11.43
517.836	11.66
518.267	11.91
518.697	12.15
519.127	12.38
519.558	12.62
519.988	12.87
520.418	13.1
520.848	13.33
521.278	13.55
521.708	13.81
522.138	14.03
522.567	14.25
522.997	14.47
523.427	14.69
523.857	14.9
524.286	15.09
524.716	15.29
525.145	15.49
525.575	15.69
526.004	15.88
526.433	16.03
526.863	16.2
527.292	16.38
527.721	16.54
528.15	16.69
528.579	16.84
529.008	16.98
529.437	17.12
529.866	17.25
530.295	17.37
530.724	17.47
531.152	17.58
531.581	17.69
532.01	17.78
532.438	17.87
532.867	17.95
533.295	18.04
533.723	18.13
534.152	18.19
534.58	18.27
535.008	18.31
535.436	18.38
535.865	18.44
536.293	18.48
536.721	18.55
537.149	18.6
537.576	18.65
538.004	18.69
538.432	18.73
538.86	18.77
539.287	18.79
539.715	18.85
540.143	18.88
540.57	18.92
540.998	18.95
541.425	18.97
541.852	18.99
542.28	19.01
542.707	19.02
543.134	19.04
543.561	19.08
543.988	19.1
544.415	19.11
544.842	19.13
545.269	19.14
545.696	19.18
546.123	19.2
546.549	19.23
546.976	19.26
547.403	19.29
547.829	19.31
548.256	19.32
548.682	19.34
549.108	19.35
549.535	19.36
549.961	19.37
550.387	19.37
550.813	19.37
551.24	19.35
551.666	19.34
552.092	19.33
552.518	19.31
552.943	19.28
553.369	19.25
553.795	19.22
554.221	19.2
554.646	19.16
555.072	19.11
555.498	19.07
555.923	19.02
556.349	18.95
556.774	18.9
557.199	18.85
557.625	18.78
558.05	18.72
558.475	18.64
558.9	18.55
559.325	18.46
559.75	18.37
560.175	18.27
560.6	18.17
561.025	18.08
561.449	17.97
561.874	17.85
562.299	17.73
562.723	17.61
563.148	17.49
563.572	17.35
563.997	17.23
564.421	17.11
564.846	16.98
565.27	16.85
565.694	16.72
566.118	16.59
566.542	16.46
566.966	16.31
567.39	16.19
567.814	16.06
568.238	15.93
568.662	15.81
569.086	15.68
569.509	15.54
569.933	15.41
570.357	15.27
570.78	15.15
571.204	15.01
571.627	14.91
572.05	14.78
572.474	14.66
572.897	14.54
573.32	14.42
573.743	14.31
574.166	14.21
574.589	14.09
575.012	13.99
575.435	13.88
575.858	13.81
576.281	13.69
576.704	13.61
577.126	13.51
577.549	13.42
577.972	13.32
578.394	13.23
578.817	13.14
579.239	13.07
579.661	12.99
580.084	12.91
580.506	12.83
580.928	12.77
581.35	12.69
581.772	12.61
582.194	12.55
582.616	12.49
583.038	12.42
583.46	12.35
583.882	12.29
584.303	12.22
584.725	12.16
585.147	12.1
585.568	12.04
585.99	11.98
586.411	11.94
586.833	11.89
587.254	11.83
587.675	11.79
588.096	11.75
588.518	11.7
588.939	11.67
589.36	11.63
589.781	11.59
590.202	11.56
590.623	11.52
591.043	11.46
591.464	11.43
591.885	11.4
592.305	11.36
592.726	11.33
593.147	11.31
593.567	11.26
593.987	11.23
594.408	11.2
594.828	11.15
595.248	11.12
595.669	11.09
596.089	11.07
596.509	11.03
596.929	11.01
597.349	10.98
597.769	10.95
598.189	10.93
598.608	10.91
599.028	10.88
599.448	10.84
599.867	10.82
600.287	10.79
600.706	10.76
601.126	10.73
601.545	10.69
601.965	10.66
602.384	10.62
602.803	10.57
603.222	10.52
603.641	10.48
604.061	10.45
604.48	10.39
604.898	10.33
605.317	10.29
605.736	10.24
606.155	10.2
606.574	10.14
606.992	10.08
607.411	10.03
607.829	9.96
608.248	9.89
608.666	9.84
609.085	9.8
609.503	9.75
609.921	9.7
610.339	9.64
610.758	9.58
611.176	9.52
611.594	9.47
612.012	9.41
612.43	9.39
612.847	9.34
613.265	9.28
613.683	9.23
614.101	9.17
614.518	9.11
614.936	9.06
615.353	9
615.771	8.96
616.188	8.9
616.606	8.86
617.023	8.81
617.44	8.77
617.857	8.73
618.274	8.69
618.691	8.65
619.108	8.63
619.525	8.6
619.942	8.57
620.359	8.55
620.776	8.54
621.192	8.52
621.609	8.5
622.026	8.48
622.442	8.47
622.859	8.44
623.275	8.43
623.691	8.41
624.108	8.39
624.524	8.38
624.94	8.37
625.356	8.36
625.772	8.34
626.188	8.33
626.604	8.33
627.02	8.32
627.436	8.31
627.852	8.31
628.268	8.3
628.683	8.29
629.099	8.28
629.514	8.27
629.93	8.25
630.345	8.24
630.761	8.22
631.176	8.2
631.591	8.18
632.007	8.16
632.422	8.12
632.837	8.09
633.252	8.03
633.667	7.98
634.082	7.93
634.497	7.88
634.911	7.82
635.326	7.76
635.741	7.7
636.155	7.63
636.57	7.56
636.984	7.5
637.399	7.41
637.813	7.34
638.228	7.27
638.642	7.19
639.056	7.11
639.47	7.04
639.884	6.97
640.298	6.89
640.712	6.82
641.126	6.75
641.54	6.66
641.954	6.59
642.368	6.52
642.781	6.45
643.195	6.38
643.609	6.32
644.022	6.25
644.436	6.19
644.849	6.13
645.262	6.07
645.676	6.01
646.089	5.96
646.502	5.92
646.915	5.89
647.328	5.85
647.741	5.81
648.154	5.77
648.567	5.75
648.98	5.72
649.393	5.7
649.805	5.68
650.218	5.66
650.631	5.65
651.043	5.63
651.456	5.61
651.868	5.59
652.28	5.58
652.693	5.57
653.105	5.55
653.517	5.53
653.929	5.52
654.341	5.5
654.753	5.46
655.165	5.44
655.577	5.42
655.989	5.39
656.401	5.36
656.813	5.33
657.224	5.29
657.636	5.25
658.047	5.22
658.459	5.17
658.87	5.13
659.282	5.09
659.693	5.05
660.104	5.02
660.515	4.98
660.926	4.94
661.338	4.91
661.749	4.89
662.159	4.87
662.57	4.84
662.981	4.82
663.392	4.82
663.803	4.8
664.213	4.78
664.624	4.77
665.035	4.77
665.445	4.76
665.855	4.76
666.266	4.76
666.676	4.75
667.086	4.74
667.497	4.75
667.907	4.74
668.317	4.75
668.727	4.75
669.137	4.76
669.547	4.77
669.956	4.77
670.366	4.79
670.776	4.79
671.186	4.8
671.595	4.82
672.005	4.83
672.414	4.84
672.824	4.86
673.233	4.9
673.642	4.92
674.052	4.94
674.461	4.97
674.87	4.99
675.279	5.03
675.688	5.06
676.097	5.09
676.506	5.13
676.915	5.16
677.323	5.2
677.732	5.22
678.141	5.26
678.549	5.29
678.958	5.33
679.366	5.37
679.775	5.41
680.183	5.46
680.592	5.52
681	5.56
681.408	5.62
681.816	5.67
682.224	5.73
682.632	5.79
683.04	5.85
683.448	5.92
683.856	5.99
684.264	6.07
684.671	6.15
685.079	6.24
685.487	6.35
685.894	6.47
686.302	6.6
686.709	6.75
687.116	6.93
687.524	7.12
687.931	7.33
688.338	7.57
688.745	7.81
689.152	8.08
689.559	8.38
689.966	8.7
690.373	9.04
690.78	9.41
691.187	9.78
691.593	10.19
692	10.6
692.407	11.02
692.813	11.46
693.22	11.92
693.626	12.39
694.032	12.88
694.439	13.35
694.845	13.85
695.251	14.37
695.657	14.89
696.063	15.41
696.469	15.95
696.875	16.48
697.281	17.01
697.687	17.56
698.093	18.09
698.498	18.62
698.904	19.17
699.31	19.68
699.715	20.19
700.12	20.71
700.526	21.22
700.931	21.72
701.337	22.24
701.742	22.73
702.147	23.22
702.552	23.73
702.957	24.21
703.362	24.68
703.767	25.16
704.172	25.65
704.577	26.11
704.981	26.58
705.386	27.05
705.791	27.49
706.195	27.95
706.6	28.41
707.004	28.83
707.408	29.28
707.813	29.72
708.217	30.16
708.621	30.58
709.025	31
709.43	31.41
709.834	31.82
710.237	32.23
710.641	32.62
711.045	33.01
711.449	33.41
711.853	33.8
712.256	34.16
712.66	34.53
713.064	34.9
713.467	35.28
713.87	35.64
714.274	35.97
714.677	36.33
715.08	36.67
715.484	36.99
715.887	37.35
716.29	37.65
716.693	37.99
717.096	38.29
717.499	38.59
717.901	38.86
718.304	39.15
718.707	39.46
719.109	39.78
719.512	40.07
719.915	40.35
720.317	40.61
720.719	40.85
721.122	41.08
721.524	41.37
721.926	41.63
722.328	41.87
722.731	42.1
723.133	42.34
723.535	42.55
723.937	42.77
724.338	42.99
724.74	43.2
725.142	43.49
725.544	43.69
725.945	43.87
726.347	44.01
726.748	44.2
727.15	44.38
727.551	44.55
727.952	44.68
728.354	44.83
728.755	44.98
729.156	45.11
729.557	45.19
729.958	45.33
730.359	45.45
730.76	45.61
731.161	45.72
731.562	45.86
731.962	45.97
732.363	46.1
732.763	46.21
733.164	46.31
733.564	46.44
733.965	46.52
734.365	46.62
734.766	46.72
735.166	46.8
735.566	46.89
735.966	46.95
736.366	47.02
736.766	47.08
737.166	47.15
737.566	47.23
737.966	47.27
738.365	47.36
738.765	47.43
739.165	47.48
739.564	47.55
739.964	47.61
740.363	47.66
740.763	47.71
741.162	47.78
741.561	47.8
741.96	47.83
742.36	47.87
742.759	47.91
743.158	47.94
743.557	47.98
743.955	48.02
744.354	48.05
744.753	48.1
745.152	48.17
745.55	48.21
745.949	48.26
746.348	48.32
746.746	48.34
747.144	48.35
747.543	48.36
747.941	48.4
748.339	48.39
748.737	48.4
749.136	48.4
749.534	48.4
749.932	48.38
750.33	48.41
750.727	48.42
751.125	48.44
751.523	48.47
751.921	48.5
752.318	48.5
752.716	48.54
753.113	48.56
753.511	48.58
753.908	48.61
754.305	48.65
754.703	48.63
755.1	48.64
755.497	48.66
755.894	48.65
756.291	48.66
756.688	48.65
757.085	48.67
757.482	48.69
757.878	48.71
758.275	48.69
758.672	48.7
759.068	48.73
759.465	48.73
759.861	48.71
760.258	48.72
760.654	48.71
761.05	48.73
761.447	48.75
761.843	48.74
762.239	48.73
762.635	48.75
763.031	48.72
763.427	48.72
763.822	48.72
764.218	48.74
764.614	48.75
765.01	48.74
765.405	48.74
765.801	48.7
766.196	48.69
766.592	48.67
766.987	48.65
767.382	48.63
767.778	48.62
768.173	48.62
768.568	48.58
768.963	48.55
769.358	48.57
769.753	48.54
770.148	48.54
770.542	48.54
770.937	48.56
771.332	48.56
771.726	48.59
772.121	48.58
772.515	48.58
772.91	48.61
773.304	48.64
773.699	48.62
774.093	48.62
774.487	48.63
774.881	48.65
775.275	48.63
775.669	48.62
776.063	48.6
776.457	48.61
776.851	48.6
777.245	48.55
777.638	48.52
778.032	48.54
778.425	48.55
778.819	48.55
779.212	48.54
779.606	48.56
779.999	48.55
780.392	48.56
780.786	48.55
781.179	48.54
781.572	48.6
781.965	48.63
782.358	48.63
782.751	48.64
783.143	48.62
783.536	48.61
783.929	48.6
784.322	48.63
784.714	48.63
785.107	48.65
785.499	48.64
785.891	48.62
786.284	48.63
786.676	48.61
787.068	48.62
787.46	48.63
787.852	48.63
788.245	48.64
788.636	48.61
789.028	48.6
789.42	48.59
789.812	48.6
790.204	48.62
790.595	48.59
790.987	48.62
791.378	48.64
791.77	48.64
792.161	48.63
792.553	48.61
792.944	48.63
793.335	48.66
793.726	48.65
794.117	48.64
794.508	48.58
794.899	48.59
795.29	48.57
795.681	48.53
796.072	48.55
796.463	48.56
796.853	48.57
797.244	48.59
797.634	48.58
798.025	48.61
798.415	48.61
798.806	48.64
799.196	48.63
799.586	48.61
799.976	48.62
800.366	48.62
800.756	48.63
801.146	48.66
801.536	48.66
801.926	48.65
802.316	48.64
802.706	48.65
803.095	48.65
803.485	48.67
803.874	48.67
804.264	48.66
804.653	48.64
805.043	48.62
805.432	48.58
805.821	48.57
806.21	48.59
806.599	48.57
806.988	48.56
807.377	48.57
807.766	48.55
808.155	48.53
808.544	48.54
808.933	48.55
809.321	48.53
809.71	48.53
810.098	48.52
810.487	48.51
810.875	48.52
811.264	48.52
811.652	48.51
812.04	48.53
812.428	48.57
812.816	48.55
813.204	48.53
813.592	48.52
813.98	48.51
814.368	48.56
814.756	48.54
815.144	48.52
815.531	48.51
815.919	48.53
816.306	48.51
816.694	48.46
817.081	48.47
817.469	48.5
817.856	48.5
818.243	48.5
818.63	48.46
819.017	48.44
819.404	48.46
819.791	48.48
820.178	48.46
820.565	48.43
820.952	48.45
821.339	48.44
821.725	48.45
822.112	48.48
822.498	48.49
822.885	48.5
823.271	48.53
823.657	48.49
824.044	48.48
824.43	48.5
824.816	48.52
825.202	48.53
825.588	48.54
825.974	48.51
826.36	48.52
826.746	48.5
827.132	48.5
827.517	48.52
827.903	48.57
828.289	48.59
828.674	48.6
829.06	48.6
829.445	48.6
829.83	48.61
830.216	48.6
830.601	48.59
830.986	48.6
831.371	48.6
831.756	48.61
832.141	48.58
832.526	48.6
832.911	48.59
833.295	48.61
833.68	48.63
834.065	48.63
834.449	48.66
834.834	48.67
835.218	48.69
835.603	48.69
835.987	48.69
836.371	48.69
836.755	48.66
837.139	48.65
837.524	48.66
837.908	48.66
838.291	48.66
838.675	48.66
839.059	48.65
839.443	48.63
839.827	48.62
840.21	48.6
840.594	48.61
840.977	48.65
841.361	48.67
841.744	48.64
842.127	48.63
842.511	48.61
842.894	48.6
843.277	48.61
843.66	48.6
844.043	48.64
844.426	48.65
844.809	48.64
845.191	48.64
845.574	48.62
845.957	48.64
846.339	48.64
846.722	48.68
847.104	48.7
847.487	48.69
847.869	48.7
848.252	48.7
848.634	48.7
849.016	48.73
849.398	48.73
849.78	48.74
850.162	48.72
850.544	48.72
850.926	48.7
851.307	48.69
851.689	48.68
852.071	48.7
852.452	48.71
852.834	48.72
853.215	48.68
853.597	48.68
853.978	48.67
854.359	48.71
854.741	48.71
855.122	48.7
855.503	48.71
855.884	48.7
856.265	48.69
856.646	48.66
857.026	48.64
857.407	48.67
857.788	48.67
858.169	48.7
858.549	48.69
858.93	48.7
859.31	48.71
859.69	48.71
860.071	48.75
860.451	48.75
860.831	48.77
861.211	48.77
861.591	48.76
861.971	48.74
862.351	48.72
862.731	48.75
863.111	48.75
863.491	48.74
863.87	48.74
864.25	48.72
864.629	48.73
865.009	48.74
865.388	48.73
865.768	48.74
866.147	48.74
866.526	48.75
866.905	48.74
867.284	48.74
867.663	48.75
868.042	48.78
868.421	48.79
868.8	48.8
869.179	48.8
869.558	48.79
869.936	48.79
870.315	48.8
870.693	48.8
871.072	48.78
871.45	48.79
871.828	48.77
872.207	48.78
872.585	48.76
872.963	48.77
873.341	48.76
873.719	48.78
874.097	48.77
874.475	48.8
874.853	48.81
875.23	48.84
875.608	48.84
875.986	48.86
876.363	48.87
876.741	48.87
877.118	48.87
877.495	48.87
877.873	48.89
878.25	48.92
878.627	48.92
879.004	48.91
879.381	48.9
879.758	48.89
880.135	48.89
880.512	48.87
880.889	48.9
881.265	48.88
881.642	48.88
882.019	48.89
882.395	48.88
882.772	48.86
883.148	48.86
883.524	48.86
883.901	48.87
884.277	48.85
884.653	48.81
885.029	48.81
885.405	48.81
885.781	48.81
886.157	48.8
886.532	48.79
886.908	48.77
887.284	48.77
887.659	48.75
888.035	48.74
888.411	48.73
888.786	48.76
889.161	48.77
889.537	48.78
889.912	48.75
890.287	48.76
890.662	48.75
891.037	48.76
891.412	48.72
891.787	48.73
892.162	48.73
892.536	48.75
892.911	48.72
893.286	48.72
893.66	48.72
894.035	48.73
894.409	48.71
894.784	48.72
895.158	48.73
895.532	48.76
895.906	48.75
896.281	48.75
896.655	48.74
897.029	48.76
897.402	48.74
897.776	48.73
898.15	48.73
898.524	48.74
898.898	48.73
899.271	48.72
899.645	48.74
900.018	48.78
900.392	48.79
900.765	48.81
901.138	48.81
901.511	48.8
901.884	48.79
902.258	48.8
902.631	48.81
903.003	48.81
903.376	48.81
903.749	48.81
904.122	48.83
904.495	48.83
904.867	48.83
905.24	48.84
905.612	48.88
905.985	48.88
906.357	48.87
906.729	48.88
907.102	48.88
907.474	48.89
907.846	48.88
908.218	48.82
908.59	48.84
908.962	48.82
909.334	48.82
909.705	48.8
910.077	48.81
910.449	48.83
910.82	48.83
911.192	48.84
911.563	48.81
911.935	48.82
912.306	48.84
912.677	48.8
913.048	48.83
913.419	48.81
913.79	48.78
914.161	48.79
914.532	48.77
914.903	48.77
915.274	48.77
915.645	48.79
916.015	48.78
916.386	48.79
916.756	48.81
917.127	48.8
917.497	48.81
917.868	48.83
918.238	48.81
918.608	48.82
918.978	48.8
919.348	48.82
919.718	48.81
920.088	48.82
920.458	48.82
920.828	48.81
921.198	48.77
921.567	48.77
921.937	48.77
922.306	48.74
922.676	48.74
923.045	48.75
923.415	48.7
923.784	48.67
924.153	48.67
924.522	48.65
924.891	48.62
925.26	48.63
925.629	48.63
925.998	48.63
926.367	48.62
926.736	48.57
927.104	48.56
927.473	48.54
927.842	48.51
928.21	48.5
928.578	48.49
928.947	48.52
929.315	48.5
929.683	48.48
930.051	48.46
930.42	48.48
930.788	48.48
931.156	48.45
931.523	48.48
931.891	48.52
932.259	48.52
932.627	48.49
932.994	48.46
933.362	48.46
933.729	48.46
934.097	48.47
934.464	48.46
934.831	48.46
935.199	48.5
935.566	48.47
935.933	48.48
936.3	48.46
936.667	48.45
937.034	48.48
937.401	48.48
937.767	48.46
938.134	48.45
938.501	48.46
938.867	48.45
939.234	48.39
939.6	48.38
939.967	48.35
940.333	48.31
940.699	48.36
941.065	48.31
941.431	48.29
941.798	48.27
942.163	48.29
942.529	48.24
942.895	48.3
943.261	48.31
943.627	48.31
943.992	48.29
944.358	48.3
944.723	48.23
945.089	48.22
945.454	48.24
945.82	48.21
946.185	48.18
946.55	48.12
946.915	48.07
947.28	48.05
947.645	48.06
948.01	48.04
948.375	48.06
948.74	48.08
949.104	48.13
949.469	48.12
949.834	48.1
950.198	48.12
950.562	48.12
950.927	48.07
951.291	47.99
951.655	47.97
952.02	47.99
952.384	47.94
952.748	47.94
953.112	47.87
953.476	47.79
953.839	47.69
954.203	47.59
954.567	47.57
954.931	47.53
955.294	47.51
955.658	47.57
956.021	47.52
956.385	47.5
956.748	47.46
957.111	47.42
957.474	47.47
957.837	47.53
958.2	47.54
958.563	47.56
958.926	47.63
959.289	47.68
959.652	47.56
960.015	47.54
960.377	47.53
960.74	47.51
961.102	47.55
961.465	47.52
961.827	47.51
962.189	47.56
962.552	47.55
962.914	47.52
963.276	47.52
963.638	47.59
964	47.59
964.362	47.6
964.724	47.63
965.085	47.58
965.447	47.54
965.809	47.54
966.17	47.52
966.532	47.51
966.893	47.47
967.255	47.48
967.616	47.44
967.977	47.46
968.338	47.44
968.699	47.44
969.061	47.49
969.421	47.5
969.782	47.5
970.143	47.47
970.504	47.43
970.865	47.46
971.225	47.41
971.586	47.39
971.946	47.34
972.307	47.32
972.667	47.26
973.027	47.23
973.388	47.24
973.748	47.27
974.108	47.3
974.468	47.27
974.828	47.27
975.188	47.26
975.548	47.25
975.907	47.27
976.267	47.28
976.627	47.32
976.986	47.32
977.346	47.29
977.705	47.26
978.064	47.24
978.424	47.26
978.783	47.2
979.142	47.2
979.501	47.21
979.86	47.23
980.219	47.21
980.578	47.21
980.937	47.19
981.296	47.18
981.654	47.16
982.013	47.12
982.371	47.09
982.73	47.07
983.088	47.07
983.447	46.98
983.805	46.97
984.163	46.91
984.521	46.94
984.879	46.95
985.237	46.94
985.595	46.95
985.953	46.96
986.311	46.92
986.669	46.96
987.026	46.87
987.384	46.89
987.741	46.86
988.099	46.89
988.456	46.8
988.814	46.81
989.171	46.85
989.528	46.89
989.885	46.88
990.242	46.93
990.599	46.94
990.956	47.02
991.313	47.06
991.67	47.07
992.027	47.17
992.383	47.21
992.74	47.21
993.096	47.16
993.453	47.06
993.809	47.09
994.165	47.1
994.522	47.07
994.878	47.1
995.234	47.05
995.59	47.04
995.946	47.03
996.302	46.99
996.658	46.96
997.013	47.02
997.369	47.06
997.725	47.02
998.08	47.02
998.436	47.06
998.791	47.03
999.147	47.01
999.502	47.06
999.857	46.94
1000.212	46.84
1000.567	46.83
1000.922	46.75
1001.277	46.75
1001.632	46.75
1001.987	46.77
1002.342	46.64
1002.696	46.63
1003.051	46.8
1003.406	46.83
1003.76	46.85
1004.114	46.79
1004.469	46.88
1004.823	47.06
1005.177	47.03
1005.531	47.03
1005.885	47.1
1006.239	47.08
1006.593	47.2
1006.947	47.05
1007.301	46.96
1007.655	46.92
1008.008	47.11
1008.362	46.97
1008.715	46.92
1009.069	47.02
1009.422	46.95
1009.776	46.73
1010.129	46.88
1010.482	46.78
1010.835	46.89
1011.188	46.91
1011.541	47.07
1011.894	47.06
1012.247	47.13
1012.6	47.04
1012.952	46.97
1013.305	47.05
1013.657	47.23
1014.01	47.18
1014.362	47.13
1014.715	47.07
1015.067	47.15
1015.419	47.12
1015.771	46.89
1016.123	46.8
1016.475	46.77
1016.827	46.81
1017.179	46.81
1017.531	46.77
1017.883	46.74
1018.234	46.88
1018.586	46.91
1018.938	46.91
1019.289	46.58
1019.64	46.7
1019.992	46.69
1020.343	46.62
1020.694	46.61
1021.045	46.73
1021.396	46.68
1021.747	46.58
1022.098	46.37
1022.449	46.32
1022.8	46.2
1023.151	46.24
1023.501	46.41
1023.852	46.55
1024.202	46.41
1024.553	46.12
1024.903	45.93
1025.253	46.16
1025.604	46.42
1025.954	46.33
1026.304	46.18
1026.654	46.27
1027.004	46.46
1027.354	46.24
1027.703	46.11
1028.053	46.32
1028.403	46.7
1028.753	46.45
1029.102	46.38
1029.452	46.42
1029.801	46.74
1030.15	46.89
1030.499	46.72
897.758	569
901.051	571.06
904.343	571.39
907.636	579.62
910.928	565.52
914.22	568.69
917.511	562.31
920.803	538.97
924.094	537.26
927.384	522.97
930.675	502.49
933.965	501.27
937.255	475.17
940.544	457.56
943.834	438.06
947.123	434.25
950.411	410.08
953.7	401.93
956.988	386.61
960.276	372.15
963.563	364.42
966.851	355.87
970.138	352.51
973.424	343.02
976.711	342.86
979.997	327.4
983.283	325.98
986.568	319.02
989.853	312.4
993.138	303.64
996.423	293.73
999.708	287.98
1002.992	283.85
1006.275	270.86
1009.559	267.32
1012.842	259.23
1016.125	253.67
1019.408	249.45
1022.69	247.16
1025.972	240.46
1029.254	236.09
1032.536	231.96
1035.817	227.66
1039.098	225.13
1042.379	222.54
1045.659	221.68
1048.939	216.64
1052.219	212.98
1055.498	210.7
1058.778	204.93
1062.057	202.45
1065.335	201.25
1068.614	198.76
1071.892	196.95
1075.17	193.13
1078.447	189.46
1081.724	187.47
1085.001	186.78
1088.278	183.89
1091.554	179.23
1094.83	180.46
1098.106	178.37
1101.382	177.54
1104.657	176.87
1107.932	174.09
1111.206	173.2
1114.481	170.89
1117.755	170.01
1121.029	168.45
1124.302	167.29
1127.575	165.78
1130.848	163.97
1134.121	161.98
1137.393	160.46
1140.665	157.71
1143.937	156.79
1147.208	156.08
1150.48	154.82
1153.75	152.55
1157.021	151.94
1160.291	151.86
1163.561	150
1166.831	150.26
1170.101	149.88
1173.37	150.39
1176.639	150.5
1179.907	149.6
1183.176	148.24
1186.444	148.18
1189.711	148.19
1192.979	147.7
1196.246	146.75
1199.513	148.07
1202.78	146.67
1206.046	146.28
1209.312	144.76
1212.578	145.2
1215.843	146.18
1219.108	145.85
1222.373	148.04
1225.638	148.96
1228.902	149.6
1232.166	150.82
1235.43	150.12
1238.693	152.23
1241.956	153.24
1245.219	154.77
1248.482	154.7
1251.744	154.24
1255.006	155.22
1258.268	152.75
1261.529	151.89
1264.79	150.85
1268.051	149.82
1271.312	149.4
1274.572	147.74
1277.832	147.25
1281.092	144.95
1284.351	144.28
1287.61	144.55
1290.869	141.75
1294.128	140.96
1297.386	140.66
1300.644	140.22
1303.902	140.07
1307.159	139.33
1310.416	139.03
1313.673	138.02
1316.93	139.4
1320.186	138.79
1323.442	138.62
1326.697	140.6
1329.953	140.81
1333.208	140.1
1336.463	141.05
1339.717	141.06
1342.972	142.89
1346.226	143.53
1349.479	144.15
1352.733	144.85
1355.986	145.91
1359.238	145.98
1362.491	145.64
1365.743	145.84
1368.995	146.29
1372.247	145.02
1375.498	144.16
1378.749	143.66
1382	141.94
1385.251	141.36
1388.501	139.38
1391.751	137.59
1395	137.52
1398.25	136.15
1401.499	134.31
1404.748	133.36
1407.996	131.61
1411.244	131.21
1414.492	129.48
1417.74	127.47
1420.987	125.87
1424.234	124.97
1427.481	123.83
1430.728	122.74
1433.974	122.05
1437.22	121.05
1440.465	121.08
1443.711	119.87
1446.956	118.54
1450.201	118.32
1453.445	117.68
1456.689	117.19
1459.933	115.07
1463.177	114.58
1466.42	112.7
1469.663	110.82
1472.906	110.26
1476.148	107.6
1479.391	107.16
1482.633	106.98
1485.874	105.37
1489.115	104.56
1492.356	103.83
1495.597	103.99
1498.838	102.94
1502.078	102.57
1505.318	103.07
1508.557	102.97
1511.797	103.28
1515.036	102.51
1518.274	102.42
1521.513	102.19
1524.751	102
1527.989	102.04
1531.227	102.1
1534.464	102.04
1537.701	102.29
1540.938	101.91
1544.174	101.44
1547.41	101.41
1550.646	101.21
1553.882	101.56
1557.117	100.5
1560.352	100.61
1563.587	100.83
1566.821	100.5
1570.055	99.97
1573.289	99.63
1576.523	99.79
1579.756	98.91
1582.989	98.97
1586.222	98.67
1589.454	98.44
1592.686	98.99
1595.918	98.22
1599.15	97.61
1602.381	98.42
1605.612	98.49
1608.843	98.36
1612.073	98.25
1615.303	99.2
1618.533	99.2
1621.762	100.26
1624.992	100.17
1628.221	100.27
1631.449	100.29
1634.678	100.14
1637.906	100.14
1641.134	100.55
1644.361	100.45
1647.588	101.33
1650.815	100.97
1654.042	101.22
1657.269	101.02
1660.495	101.15
1663.72	101.1
1666.946	101.77
1670.171	102.28
1673.396	102.11
1676.621	101.98
1679.845	102.3
1683.069	102.49
1686.293	102.84
1689.517	102.76
1692.74	102.91
1695.963	103.29
1699.185	103.42
1702.408	103.36
1705.63	103.68
1708.852	104.02
1712.073	103.98
1715.294	104.06
1718.515	103.58
1721.736	103.77
1724.956	104
1728.176	104.07
1731.396	104.11
1734.616	104.42
1737.835	105.02
1741.054	104.27
1744.272	104.29
1747.491	105.3
1750.709	105.23
1753.927	105.32
1757.144	104.94
1760.361	104.99
1763.578	105.31
1766.795	104.79
1770.011	105.7
1773.227	104.98
1776.443	105.81
1779.658	105.83
1782.874	105.38
1786.089	105.46
1789.303	105.81
1792.518	106.24
1795.732	106.56
1798.945	107.17
1802.159	107.61
1805.372	107.13
1808.585	109.08
1811.797	109.19
1815.01	109.65
1818.222	110.31
1821.434	111.07
1824.645	111.41
1827.856	113.57
1831.067	113.4
1834.278	113.15
1837.488	113.9
1840.698	114.49
1843.908	113.53
1847.117	113.85
1850.326	114.07
1853.535	113.07
1856.744	114.3
1859.952	113.39
1863.16	111.88
1866.368	110.88
1869.575	110.85
1872.782	108.36
1875.989	106.89
1879.196	106.23
1882.402	105.01
1885.608	104.53
1888.814	103.95
1892.019	101.72
1895.224	101.12
1898.429	100.64
1901.634	100.61
1904.838	100.31
1908.042	101.19
1911.246	100.98
1914.449	101.13
1917.652	100.94
1920.855	100.34
1924.058	100.48
1927.26	100.8
1930.462	100.65
1933.664	100.95
1936.865	100.95
1940.066	100.23
1943.267	99.96
1946.467	100.37
1949.668	100.45
1952.868	101.51
1956.067	102.02
1959.267	103.13
1962.466	103.21
1965.665	102.56
1968.863	103.48
1972.061	104.3
1975.259	105.04
1978.457	105.74
1981.654	106.9
1984.852	107.41
1988.048	107.07
1991.245	108.72
1994.441	108.18
1997.637	109.74
2000.833	112.94
2004.028	113.93
2007.223	115.44
2010.418	116.23
2013.613	119.2
2016.807	120.66
2020.001	121.7
2023.194	124.25
2026.388	126.75
2029.581	129.64
2032.774	130.68
2035.966	132.7
2039.158	133.36
2042.35	136.04
2045.542	137.38
2048.733	137.81
2051.924	140.04
2055.115	142.24
2058.306	142.48
2061.496	143.04
2064.686	143.71
2067.875	146.17
2071.065	147
2074.254	146.52
2077.442	147.22
2080.631	147.98
2083.819	150.16
2087.007	150.07
2090.195	152.63
2093.382	154.56
2096.569	154.53
2099.756	156.87
2102.942	157.35
2106.128	158.01
2109.314	162.49
2112.5	162.79
2115.685	166.23
2118.87	166.86
2122.055	170.12
2125.239	170.83
2128.424	172.05
2131.608	173.41
2134.791	177.69
2137.974	177.62
2141.157	178.31
2144.34	178.37
2147.523	180.16
2150.705	179.78
2153.887	181.94
2157.068	182.13
2160.25	180.9
2163.431	182.3
2166.611	183.8
2169.792	186.49
2172.972	188.44
2176.152	189.26
2179.331	191.22
2182.511	194.72
2185.69	195.98
2188.868	197.95
2192.047	198.95
2195.225	204.71
2198.403	208.04
2201.58	213.08
2204.758	214.22
2207.935	218.6
2211.111	225.16
2214.288	227.34
2217.464	227.68
2220.64	231.66
2223.815	234.84
2226.991	243.49
2230.166	242.19
2233.34	246.21
2236.515	248.91
2239.689	250.44
2242.863	252.6
2246.036	256.86
2249.209	255.78
2252.382	259.9
2255.555	268.17
2258.727	269.4
2261.9	272.05
2265.071	276.55
2268.243	281.12
2271.414	283.73
2274.585	289.84
2277.756	292.43
2280.926	296.19
2284.096	301.58
2287.266	306.43
2290.436	307.7
2293.605	314.08
2296.774	320.45
2299.942	329.75
2303.111	333.58
2306.279	340.36
2309.447	343.12
2312.614	354.31
2315.781	362.57
2318.948	380.34
2322.115	377.8
2325.281	400.22
2328.447	392.78
2331.613	407.44
2334.779	403.67
2337.944	416.7
2341.109	421.27
2344.274	436.96
2347.438	447.73
2350.602	446.13
2353.766	461.45
2356.929	468.96
2360.092	462.74
2363.255	496.75
2366.418	501.35
2369.58	506.45
2372.742	540.12
2375.904	554.24
2379.066	550.41
2382.227	541.29
2385.388	585.86
2388.548	584.56
2391.709	588.06
2394.869	655.02
2398.029	626.3
2401.188	642.25
2404.347	639.81
2407.506	628.55
2410.665	641
2413.823	682.31
2416.981	722.49
2420.139	699.52
2423.296	690.51
2426.453	723.28
2429.61	693.7
2432.767	724.2
2435.923	713.52
2439.079	788.85
2442.235	800.56
2445.391	799.14
2448.546	782.13
2451.701	762.6
2454.855	762.86
2458.009	810.96
2461.163	843.55
2464.317	880.07
2467.471	902.01
2470.624	906.66
2473.777	879.24
2476.929	854.39
2480.082	829.25
2483.234	827.25
2486.385	867.28
2489.537	871.59
2492.688	901.22
2495.839	875.56
2498.989	854.62
2502.14	857.26
2505.29	859.5
2508.439	872.63
2511.589	872.6
2514.738	946.63
2517.887	924.88
2521.035	971.86
2524.183	983.26
2527.331	992.21
2530.479	988.19
2533.627	993.02
