Data from N_1_HIR_WI_4n_Splice17_12-15-53-839.txt Node
Date: Sat Mar 07 12:15:53 EST 2020
User: sa697716
Spectrometer: NQ5500242
Trigger mode: 0
Integration Time (sec): 1.450000E-1
Scans to average: 20
Nonlinearity correction enabled: false
Boxcar width: 5
Storing dark spectrum: false
XAxis mode: Wavelengths
Number of Pixels in Spectrum: 512
>>>>>Begin Spectral Data<<<<<
187.83	123.31
188.298	126.16
188.766	99.46
189.233	74.82
189.701	75.81
190.169	84.74
190.636	89.23
191.104	153.12
191.571	74.31
192.039	62.96
192.506	-168.22
192.974	112.78
193.441	126.02
193.908	-49.9
194.375	-55.1
194.842	-37.84
195.31	-23.08
195.777	-71.72
196.244	36.28
196.711	46.75
197.177	50.96
197.644	50.04
198.111	50.03
198.578	49.84
199.045	50.53
199.511	50.49
199.978	50.51
200.445	50.55
200.911	50.4
201.378	50.82
201.844	50.85
202.31	50.31
202.777	50.48
203.243	50.64
203.709	50.63
204.176	50.28
204.642	50.27
205.108	50.05
205.574	49.92
206.04	49.76
206.506	49.35
206.972	49.37
207.438	49.29
207.903	48.66
208.369	47.78
208.835	47.2
209.301	46.52
209.766	45.68
210.232	44.87
210.697	43.93
211.163	43.37
211.628	42.67
212.094	41.67
212.559	41.3
213.024	40.73
213.49	40.18
213.955	39.54
214.42	39.17
214.885	38.41
215.35	37.64
215.815	36.54
216.28	34.9
216.745	33.21
217.21	31.54
217.675	29.74
218.14	28.3
218.604	27.09
219.069	26.04
219.534	25.13
219.998	24.38
220.463	23.73
220.927	23.13
221.392	22.68
221.856	22.29
222.32	21.92
222.785	21.62
223.249	21.33
223.713	21.05
224.177	20.79
224.642	20.56
225.106	20.31
225.57	20.05
226.034	19.83
226.497	19.63
226.961	19.42
227.425	19.23
227.889	19.02
228.353	18.81
228.816	18.6
229.28	18.41
229.744	18.19
230.207	17.98
230.671	17.78
231.134	17.58
231.597	17.41
232.061	17.21
232.524	17.03
232.987	16.85
233.45	16.68
233.914	16.51
234.377	16.34
234.84	16.2
235.303	16.06
235.766	15.93
236.229	15.79
236.691	15.64
237.154	15.51
237.617	15.4
238.08	15.28
238.542	15.16
239.005	15.06
239.468	14.93
239.93	14.82
240.393	14.7
240.855	14.57
241.317	14.45
241.78	14.33
242.242	14.22
242.704	14.1
243.166	14
243.629	13.89
244.091	13.78
244.553	13.68
245.015	13.57
245.477	13.47
245.939	13.39
246.4	13.3
246.862	13.21
247.324	13.11
247.786	13.02
248.247	12.92
248.709	12.81
249.17	12.72
249.632	12.65
250.093	12.59
250.555	12.51
251.016	12.43
251.477	12.35
251.939	12.28
252.4	12.21
252.861	12.15
253.322	12.1
253.783	12.05
254.244	12
254.705	11.94
255.166	11.88
255.627	11.82
256.088	11.78
256.549	11.74
257.009	11.69
257.47	11.64
257.931	11.58
258.391	11.52
258.852	11.46
259.312	11.41
259.773	11.35
260.233	11.31
260.694	11.27
261.154	11.22
261.614	11.18
262.074	11.14
262.534	11.1
262.994	11.06
263.455	11.03
263.915	11
264.374	10.98
264.834	10.96
265.294	10.93
265.754	10.9
266.214	10.88
266.673	10.86
267.133	10.84
267.593	10.83
268.052	10.82
268.512	10.81
268.971	10.79
269.431	10.77
269.89	10.76
270.349	10.75
270.809	10.73
271.268	10.73
271.727	10.71
272.186	10.7
272.645	10.68
273.104	10.66
273.563	10.65
274.022	10.64
274.481	10.63
274.94	10.62
275.399	10.6
275.857	10.59
276.316	10.56
276.775	10.55
277.233	10.53
277.692	10.52
278.15	10.5
278.609	10.49
279.067	10.48
279.525	10.46
279.984	10.45
280.442	10.43
280.9	10.42
281.358	10.42
281.816	10.41
282.274	10.41
282.732	10.4
283.19	10.41
283.648	10.4
284.106	10.41
284.564	10.4
285.021	10.42
285.479	10.42
285.937	10.42
286.394	10.43
286.852	10.42
287.309	10.42
287.767	10.41
288.224	10.4
288.682	10.39
289.139	10.38
289.596	10.37
290.053	10.35
290.511	10.34
290.968	10.33
291.425	10.32
291.882	10.32
292.339	10.31
292.796	10.31
293.252	10.31
293.709	10.32
294.166	10.32
294.623	10.32
295.079	10.32
295.536	10.32
295.992	10.33
296.449	10.34
296.905	10.35
297.362	10.36
297.818	10.38
298.274	10.39
298.731	10.38
299.187	10.38
299.643	10.38
300.099	10.4
300.555	10.4
301.011	10.39
301.467	10.4
301.923	10.39
302.379	10.39
302.835	10.39
303.291	10.39
303.746	10.41
304.202	10.41
304.658	10.42
305.113	10.43
305.569	10.44
306.024	10.46
306.479	10.46
306.935	10.47
307.39	10.49
307.845	10.49
308.301	10.51
308.756	10.52
309.211	10.54
309.666	10.55
310.121	10.56
310.576	10.58
311.031	10.6
311.486	10.62
311.94	10.63
312.395	10.64
312.85	10.66
313.305	10.66
313.759	10.67
314.214	10.67
314.668	10.68
315.123	10.68
315.577	10.69
316.032	10.68
316.486	10.68
316.94	10.67
317.394	10.66
317.849	10.65
318.303	10.65
318.757	10.64
319.211	10.63
319.665	10.62
320.119	10.61
320.572	10.59
321.026	10.59
321.48	10.59
321.934	10.58
322.387	10.58
322.841	10.58
323.295	10.58
323.748	10.58
324.202	10.59
324.655	10.58
325.108	10.59
325.562	10.59
326.015	10.59
326.468	10.58
326.921	10.59
327.374	10.58
327.827	10.58
328.28	10.58
328.733	10.58
329.186	10.57
329.639	10.56
330.092	10.57
330.545	10.57
330.997	10.56
331.45	10.58
331.903	10.57
332.355	10.58
332.808	10.57
333.26	10.57
333.713	10.57
334.165	10.56
334.617	10.57
335.069	10.56
335.522	10.57
335.974	10.57
336.426	10.56
336.878	10.56
337.33	10.55
337.782	10.56
338.234	10.57
338.686	10.56
339.137	10.57
339.589	10.56
340.041	10.57
340.493	10.56
340.944	10.54
341.396	10.53
341.847	10.51
342.299	10.49
342.75	10.46
343.201	10.44
343.653	10.42
344.104	10.39
344.555	10.36
345.006	10.33
345.457	10.32
345.908	10.3
346.359	10.3
346.81	10.28
347.261	10.28
347.712	10.27
348.163	10.26
348.613	10.25
349.064	10.26
349.515	10.26
349.965	10.26
350.416	10.25
350.866	10.25
351.317	10.23
351.767	10.23
352.217	10.22
352.668	10.22
353.118	10.22
353.568	10.21
354.018	10.21
354.468	10.22
354.918	10.21
355.368	10.21
355.818	10.22
356.268	10.22
356.718	10.24
357.168	10.22
357.617	10.21
358.067	10.2
358.517	10.21
358.966	10.19
359.416	10.17
359.865	10.17
360.315	10.16
360.764	10.15
361.213	10.14
361.663	10.12
362.112	10.12
362.561	10.12
363.01	10.11
363.459	10.08
363.908	10.07
364.357	10.07
364.806	10.07
365.255	10.08
365.703	10.07
366.152	10.07
366.601	10.07
367.05	10.06
367.498	10.05
367.947	10.06
368.395	10.07
368.844	10.07
369.292	10.07
369.74	10.07
370.189	10.05
370.637	10.05
371.085	10.04
371.533	10.04
371.981	10.05
372.429	10.05
372.877	10.07
373.325	10.07
373.773	10.06
374.221	10.05
374.669	10.05
375.116	10.05
375.564	10.07
376.012	10.08
376.459	10.09
376.907	10.1
377.354	10.1
377.801	10.11
378.249	10.12
378.696	10.13
379.143	10.15
379.591	10.17
380.038	10.19
380.485	10.19
380.932	10.2
381.379	10.22
381.826	10.23
382.273	10.24
382.72	10.25
383.166	10.26
383.613	10.27
384.06	10.27
384.506	10.28
384.953	10.29
385.4	10.3
385.846	10.32
386.292	10.32
386.739	10.33
387.185	10.35
387.631	10.37
388.078	10.38
388.524	10.39
388.97	10.41
389.416	10.42
389.862	10.44
390.308	10.47
390.754	10.48
391.2	10.51
391.645	10.53
392.091	10.56
392.537	10.58
392.983	10.59
393.428	10.62
393.874	10.63
394.319	10.65
394.765	10.66
395.21	10.68
395.655	10.69
396.101	10.72
396.546	10.72
396.991	10.74
397.436	10.76
397.881	10.8
398.326	10.83
398.771	10.86
399.216	10.87
399.661	10.9
400.106	10.9
400.551	10.92
400.995	10.91
401.44	10.92
401.885	10.92
402.329	10.92
402.774	10.93
403.218	10.94
403.663	10.96
404.107	10.96
404.551	10.97
404.995	10.98
405.44	10.99
405.884	11
406.328	11.02
406.772	11.02
407.216	11.03
407.66	11.03
408.104	11.02
408.547	11.02
408.991	11.04
409.435	11.04
409.879	11.05
410.322	11.07
410.766	11.08
411.209	11.1
411.653	11.14
412.096	11.16
412.54	11.17
412.983	11.18
413.426	11.21
413.869	11.22
414.312	11.25
414.756	11.27
415.199	11.26
415.642	11.27
416.085	11.25
416.527	11.24
416.97	11.21
417.413	11.21
417.856	11.21
418.298	11.2
418.741	11.18
419.184	11.17
419.626	11.18
420.069	11.18
420.511	11.17
420.953	11.18
421.396	11.19
421.838	11.21
422.28	11.21
422.722	11.22
423.164	11.24
423.606	11.24
424.048	11.25
424.49	11.24
424.932	11.24
425.374	11.23
425.816	11.2
426.258	11.19
426.699	11.19
427.141	11.2
427.582	11.21
428.024	11.21
428.465	11.23
428.907	11.23
429.348	11.24
429.789	11.25
430.231	11.28
430.672	11.33
431.113	11.35
431.554	11.38
431.995	11.39
432.436	11.39
432.877	11.41
433.318	11.44
433.759	11.46
434.2	11.49
434.64	11.53
435.081	11.55
435.522	11.58
435.962	11.61
436.403	11.65
436.843	11.65
437.284	11.68
437.724	11.68
438.164	11.68
438.604	11.69
439.045	11.69
439.485	11.69
439.925	11.68
440.365	11.67
440.805	11.66
441.245	11.64
441.685	11.67
442.125	11.69
442.564	11.71
443.004	11.72
443.444	11.73
443.883	11.73
444.323	11.73
444.762	11.76
445.202	11.77
445.641	11.79
446.081	11.8
446.52	11.81
446.959	11.83
447.398	11.84
447.837	11.86
448.276	11.86
448.716	11.89
449.154	11.91
449.593	11.91
450.032	11.92
450.471	11.92
450.91	11.9
451.349	11.88
451.787	11.85
452.226	11.84
452.664	11.83
453.103	11.82
453.541	11.79
453.98	11.78
454.418	11.76
454.856	11.74
455.295	11.73
455.733	11.7
456.171	11.71
456.609	11.7
457.047	11.68
457.485	11.67
457.923	11.67
458.361	11.67
458.798	11.66
459.236	11.65
459.674	11.64
460.111	11.63
460.549	11.65
460.987	11.65
461.424	11.65
461.862	11.66
462.299	11.67
462.736	11.65
463.173	11.66
463.611	11.65
464.048	11.66
464.485	11.66
464.922	11.67
465.359	11.66
465.796	11.65
466.233	11.65
466.67	11.64
467.106	11.64
467.543	11.63
467.98	11.61
468.416	11.59
468.853	11.57
469.29	11.57
469.726	11.56
470.162	11.55
470.599	11.54
471.035	11.52
471.471	11.51
471.907	11.49
472.344	11.5
472.78	11.49
473.216	11.48
473.652	11.47
474.088	11.46
474.523	11.45
474.959	11.43
475.395	11.42
475.831	11.41
476.266	11.41
476.702	11.39
477.138	11.36
477.573	11.35
478.008	11.35
478.444	11.34
478.879	11.33
479.314	11.31
479.75	11.3
480.185	11.26
480.62	11.24
481.055	11.22
481.49	11.19
481.925	11.19
482.36	11.17
482.795	11.16
483.229	11.14
483.664	11.13
484.099	11.11
484.534	11.11
484.968	11.12
485.403	11.11
485.837	11.11
486.271	11.12
486.706	11.12
487.14	11.12
487.574	11.12
488.009	11.12
488.443	11.11
488.877	11.12
489.311	11.12
489.745	11.13
490.179	11.15
490.613	11.15
491.046	11.16
491.48	11.16
491.914	11.17
492.348	11.18
492.781	11.2
493.215	11.22
493.648	11.24
494.082	11.25
494.515	11.25
494.948	11.26
495.382	11.27
495.815	11.28
496.248	11.3
496.681	11.31
497.114	11.32
497.547	11.34
497.98	11.36
498.413	11.38
498.846	11.41
499.279	11.44
499.711	11.47
500.144	11.51
500.577	11.54
501.009	11.57
501.442	11.61
501.874	11.65
502.306	11.69
502.739	11.73
503.171	11.78
503.603	11.83
504.036	11.88
504.468	11.94
504.9	11.99
505.332	12.06
505.764	12.13
506.196	12.2
506.627	12.28
507.059	12.37
507.491	12.45
507.923	12.54
508.354	12.64
508.786	12.74
509.217	12.85
509.649	12.95
510.08	13.06
510.512	13.18
510.943	13.3
511.374	13.43
511.805	13.55
512.237	13.68
512.668	13.83
513.099	13.98
513.53	14.14
513.961	14.29
514.391	14.47
514.822	14.64
515.253	14.81
515.684	15
516.114	15.19
516.545	15.38
516.975	15.6
517.406	15.79
517.836	15.99
518.267	16.2
518.697	16.39
519.127	16.6
519.558	16.82
519.988	17.05
520.418	17.27
520.848	17.49
521.278	17.7
521.708	18.06
522.138	18.28
522.567	18.49
522.997	18.7
523.427	18.92
523.857	19.13
524.286	19.33
524.716	19.52
525.145	19.71
525.575	19.9
526.004	20.1
526.433	20.15
526.863	20.33
527.292	20.51
527.721	20.67
528.15	20.83
528.579	20.99
529.008	21.15
529.437	21.28
529.866	21.4
530.295	21.56
530.724	21.67
531.152	21.77
531.581	21.88
532.01	21.99
532.438	22.09
532.867	22.19
533.295	22.27
533.723	22.36
534.152	22.45
534.58	22.52
535.008	22.57
535.436	22.64
535.865	22.71
536.293	22.77
536.721	22.81
537.149	22.87
537.576	22.91
538.004	22.98
538.432	23.01
538.86	23.04
539.287	23.08
539.715	23.12
540.143	23.16
540.57	23.19
540.998	23.22
541.425	23.24
541.852	23.28
542.28	23.31
542.707	23.32
543.134	23.36
543.561	23.4
543.988	23.44
544.415	23.46
544.842	23.48
545.269	23.53
545.696	23.56
546.123	23.6
546.549	23.62
546.976	23.64
547.403	23.67
547.829	23.68
548.256	23.69
548.682	23.71
549.108	23.73
549.535	23.75
549.961	23.75
550.387	23.74
550.813	23.73
551.24	23.72
551.666	23.71
552.092	23.69
552.518	23.68
552.943	23.65
553.369	23.6
553.795	23.58
554.221	23.53
554.646	23.47
555.072	23.42
555.498	23.36
555.923	23.29
556.349	23.21
556.774	23.13
557.199	23.07
557.625	22.98
558.05	22.92
558.475	22.83
558.9	22.75
559.325	22.66
559.75	22.56
560.175	22.46
560.6	22.35
561.025	22.25
561.449	22.15
561.874	22.03
562.299	21.9
562.723	21.77
563.148	21.63
563.572	21.48
563.997	21.34
564.421	21.21
564.846	21.07
565.27	20.93
565.694	20.81
566.118	20.65
566.542	20.52
566.966	20.38
567.39	20.25
567.814	20.11
568.238	19.96
568.662	19.82
569.086	19.69
569.509	19.55
569.933	19.44
570.357	19.28
570.78	19.16
571.204	19.01
571.627	18.88
572.05	18.74
572.474	18.63
572.897	18.53
573.32	18.42
573.743	18.29
574.166	18.2
574.589	18.07
575.012	17.97
575.435	17.86
575.858	17.78
576.281	17.68
576.704	17.6
577.126	17.5
577.549	17.42
577.972	17.33
578.394	17.25
578.817	17.15
579.239	17.07
579.661	16.99
580.084	16.91
580.506	16.84
580.928	16.77
581.35	16.71
581.772	16.63
582.194	16.56
582.616	16.5
583.038	16.43
583.46	16.37
583.882	16.31
584.303	16.27
584.725	16.21
585.147	16.16
585.568	16.1
585.99	16.04
586.411	15.99
586.833	15.93
587.254	15.87
587.675	15.83
588.096	15.78
588.518	15.74
588.939	15.7
589.36	15.67
589.781	15.64
590.202	15.6
590.623	15.56
591.043	15.52
591.464	15.5
591.885	15.47
592.305	15.44
592.726	15.4
593.147	15.37
593.567	15.33
593.987	15.29
594.408	15.24
594.828	15.21
595.248	15.18
595.669	15.16
596.089	15.13
596.509	15.1
596.929	15.08
597.349	15.05
597.769	15.02
598.189	15
598.608	14.98
599.028	14.96
599.448	14.93
599.867	14.9
600.287	14.87
600.706	14.84
601.126	14.81
601.545	14.79
601.965	14.75
602.384	14.72
602.803	14.69
603.222	14.65
603.641	14.61
604.061	14.58
604.48	14.54
604.898	14.49
605.317	14.45
605.736	14.41
606.155	14.35
606.574	14.31
606.992	14.26
607.411	14.21
607.829	14.13
608.248	14.08
608.666	14.02
609.085	13.98
609.503	13.93
609.921	13.89
610.339	13.84
610.758	13.79
611.176	13.73
611.594	13.69
612.012	13.64
612.43	13.62
612.847	13.57
613.265	13.53
613.683	13.48
614.101	13.44
614.518	13.39
614.936	13.34
615.353	13.29
615.771	13.27
616.188	13.22
616.606	13.19
617.023	13.15
617.44	13.12
617.857	13.09
618.274	13.05
618.691	13.02
619.108	12.99
619.525	12.97
619.942	12.95
620.359	12.91
620.776	12.88
621.192	12.84
621.609	12.83
622.026	12.79
622.442	12.77
622.859	12.75
623.275	12.72
623.691	12.7
624.108	12.69
624.524	12.67
624.94	12.65
625.356	12.64
625.772	12.62
626.188	12.61
626.604	12.61
627.02	12.6
627.436	12.59
627.852	12.58
628.268	12.57
628.683	12.56
629.099	12.56
629.514	12.55
629.93	12.55
630.345	12.54
630.761	12.52
631.176	12.5
631.591	12.47
632.007	12.45
632.422	12.44
632.837	12.41
633.252	12.39
633.667	12.35
634.082	12.31
634.497	12.27
634.911	12.24
635.326	12.19
635.741	12.16
636.155	12.12
636.57	12.07
636.984	12.02
637.399	11.97
637.813	11.92
638.228	11.86
638.642	11.81
639.056	11.76
639.47	11.71
639.884	11.66
640.298	11.6
640.712	11.55
641.126	11.49
641.54	11.44
641.954	11.4
642.368	11.35
642.781	11.31
643.195	11.27
643.609	11.22
644.022	11.18
644.436	11.13
644.849	11.09
645.262	11.05
645.676	11.02
646.089	11
646.502	10.96
646.915	10.93
647.328	10.91
647.741	10.87
648.154	10.85
648.567	10.83
648.98	10.82
649.393	10.8
649.805	10.79
650.218	10.78
650.631	10.77
651.043	10.75
651.456	10.75
651.868	10.73
652.28	10.73
652.693	10.72
653.105	10.71
653.517	10.69
653.929	10.69
654.341	10.66
654.753	10.64
655.165	10.62
655.577	10.6
655.989	10.57
656.401	10.55
656.813	10.53
657.224	10.5
657.636	10.48
658.047	10.46
658.459	10.43
658.87	10.41
659.282	10.39
659.693	10.37
660.104	10.34
660.515	10.33
660.926	10.3
661.338	10.29
661.749	10.26
662.159	10.25
662.57	10.24
662.981	10.23
663.392	10.21
663.803	10.21
664.213	10.19
664.624	10.19
665.035	10.17
665.445	10.16
665.855	10.16
666.266	10.18
666.676	10.18
667.086	10.16
667.497	10.16
667.907	10.16
668.317	10.16
668.727	10.16
669.137	10.17
669.547	10.19
669.956	10.19
670.366	10.19
670.776	10.18
671.186	10.18
671.595	10.19
672.005	10.2
672.414	10.21
672.824	10.22
673.233	10.23
673.642	10.25
674.052	10.26
674.461	10.27
674.87	10.29
675.279	10.32
675.688	10.34
676.097	10.37
676.506	10.38
676.915	10.4
677.323	10.4
677.732	10.42
678.141	10.44
678.549	10.47
678.958	10.51
679.366	10.54
679.775	10.54
680.183	10.56
680.592	10.59
681	10.63
681.408	10.66
681.816	10.7
682.224	10.74
682.632	10.77
683.04	10.8
683.448	10.85
683.856	10.88
684.264	10.94
684.671	10.99
685.079	11.02
685.487	11.08
685.894	11.15
686.302	11.23
686.709	11.31
687.116	11.41
687.524	11.52
687.931	11.63
688.338	11.78
688.745	11.93
689.152	12.11
689.559	12.33
689.966	12.55
690.373	12.8
690.78	13.05
691.187	13.34
691.593	13.66
692	13.98
692.407	14.32
692.813	14.67
693.22	15.06
693.626	15.46
694.032	15.88
694.439	16.32
694.845	16.76
695.251	17.23
695.657	17.69
696.063	18.18
696.469	18.69
696.875	19.24
697.281	19.78
697.687	20.35
698.093	20.91
698.498	21.47
698.904	22.04
699.31	22.63
699.715	23.22
700.12	23.81
700.526	24.41
700.931	25.01
701.337	25.6
701.742	26.19
702.147	26.78
702.552	27.39
702.957	27.97
703.362	28.57
703.767	29.15
704.172	29.74
704.577	30.32
704.981	30.92
705.386	31.48
705.791	32.07
706.195	32.64
706.6	33.23
707.004	33.79
707.408	34.37
707.813	34.96
708.217	35.56
708.621	36.13
709.025	36.68
709.43	37.23
709.834	37.83
710.237	38.37
710.641	38.93
711.045	39.47
711.449	40.02
711.853	40.59
712.256	41.12
712.66	41.64
713.064	42.17
713.467	42.73
713.87	43.27
714.274	43.78
714.677	44.31
715.08	44.85
715.484	45.35
715.887	45.87
716.29	46.35
716.693	46.86
717.096	47.37
717.499	47.87
717.901	48.35
718.304	48.82
718.707	49.28
719.109	49.77
719.512	50.2
719.915	50.67
720.317	51.08
720.719	51.48
721.122	51.89
721.524	52.29
721.926	52.68
722.328	53.08
722.731	53.46
723.133	53.87
723.535	54.23
723.937	54.61
724.338	54.93
724.74	55.29
725.142	55.68
725.544	55.99
725.945	56.33
726.347	56.61
726.748	56.9
727.15	57.18
727.551	57.46
727.952	57.7
728.354	57.96
728.755	58.23
729.156	58.48
729.557	58.7
729.958	58.95
730.359	59.17
730.76	59.42
731.161	59.64
731.562	59.89
731.962	60.07
732.363	60.3
732.763	60.49
733.164	60.69
733.564	60.9
733.965	61.06
734.365	61.23
734.766	61.39
735.166	61.56
735.566	61.74
735.966	61.88
736.366	62.06
736.766	62.18
737.166	62.34
737.566	62.48
737.966	62.6
738.365	62.74
738.765	62.87
739.165	62.99
739.564	63.11
739.964	63.18
740.363	63.25
740.763	63.34
741.162	63.46
741.561	63.51
741.96	63.58
742.36	63.64
742.759	63.7
743.158	63.76
743.557	63.83
743.955	63.91
744.354	63.99
744.753	64.11
745.152	64.17
745.55	64.25
745.949	64.34
746.348	64.42
746.746	64.49
747.144	64.58
747.543	64.63
747.941	64.7
748.339	64.73
748.737	64.77
749.136	64.79
749.534	64.8
749.932	64.81
750.33	64.83
750.727	64.86
751.125	64.88
751.523	64.88
751.921	64.9
752.318	64.92
752.716	64.96
753.113	65.01
753.511	65.03
753.908	65.1
754.305	65.1
754.703	65.11
755.1	65.11
755.497	65.13
755.894	65.15
756.291	65.17
756.688	65.17
757.085	65.19
757.482	65.19
757.878	65.21
758.275	65.18
758.672	65.19
759.068	65.25
759.465	65.26
759.861	65.28
760.258	65.32
760.654	65.34
761.05	65.36
761.447	65.36
761.843	65.33
762.239	65.34
762.635	65.37
763.031	65.37
763.427	65.36
763.822	65.39
764.218	65.42
764.614	65.42
765.01	65.43
765.405	65.41
765.801	65.4
766.196	65.43
766.592	65.43
766.987	65.44
767.382	65.43
767.778	65.41
768.173	65.42
768.568	65.38
768.963	65.37
769.358	65.36
769.753	65.38
770.148	65.37
770.542	65.36
770.937	65.36
771.332	65.34
771.726	65.36
772.121	65.38
772.515	65.36
772.91	65.37
773.304	65.38
773.699	65.38
774.093	65.38
774.487	65.38
774.881	65.42
775.275	65.4
775.669	65.41
776.063	65.4
776.457	65.4
776.851	65.37
777.245	65.35
777.638	65.35
778.032	65.38
778.425	65.41
778.819	65.4
779.212	65.4
779.606	65.44
779.999	65.4
780.392	65.44
780.786	65.43
781.179	65.48
781.572	65.52
781.965	65.51
782.358	65.51
782.751	65.49
783.143	65.5
783.536	65.47
783.929	65.47
784.322	65.51
784.714	65.52
785.107	65.55
785.499	65.52
785.891	65.51
786.284	65.52
786.676	65.52
787.068	65.53
787.46	65.54
787.852	65.55
788.245	65.54
788.636	65.52
789.028	65.52
789.42	65.48
789.812	65.51
790.204	65.52
790.595	65.51
790.987	65.5
791.378	65.52
791.77	65.52
792.161	65.48
792.553	65.52
792.944	65.5
793.335	65.5
793.726	65.51
794.117	65.48
794.508	65.44
794.899	65.4
795.29	65.4
795.681	65.33
796.072	65.33
796.463	65.38
796.853	65.32
797.244	65.33
797.634	65.32
798.025	65.33
798.415	65.33
798.806	65.3
799.196	65.3
799.586	65.3
799.976	65.34
800.366	65.34
800.756	65.34
801.146	65.36
801.536	65.38
801.926	65.35
802.316	65.32
802.706	65.33
803.095	65.36
803.485	65.39
803.874	65.38
804.264	65.35
804.653	65.35
805.043	65.32
805.432	65.31
805.821	65.29
806.21	65.31
806.599	65.27
806.988	65.26
807.377	65.28
807.766	65.24
808.155	65.22
808.544	65.23
808.933	65.24
809.321	65.21
809.71	65.21
810.098	65.19
810.487	65.17
810.875	65.22
811.264	65.22
811.652	65.21
812.04	65.23
812.428	65.25
812.816	65.24
813.204	65.2
813.592	65.2
813.98	65.2
814.368	65.21
814.756	65.23
815.144	65.19
815.531	65.18
815.919	65.17
816.306	65.14
816.694	65.12
817.081	65.1
817.469	65.1
817.856	65.1
818.243	65.04
818.63	65.01
819.017	64.97
819.404	64.93
819.791	64.92
820.178	64.91
820.565	64.9
820.952	64.86
821.339	64.84
821.725	64.85
822.112	64.84
822.498	64.88
822.885	64.92
823.271	64.92
823.657	64.89
824.044	64.86
824.43	64.86
824.816	64.84
825.202	64.82
825.588	64.81
825.974	64.8
826.36	64.8
826.746	64.76
827.132	64.74
827.517	64.73
827.903	64.76
828.289	64.77
828.674	64.78
829.06	64.77
829.445	64.77
829.83	64.77
830.216	64.73
830.601	64.72
830.986	64.74
831.371	64.69
831.756	64.69
832.141	64.69
832.526	64.7
832.911	64.69
833.295	64.71
833.68	64.73
834.065	64.75
834.449	64.77
834.834	64.77
835.218	64.76
835.603	64.77
835.987	64.74
836.371	64.72
836.755	64.68
837.139	64.68
837.524	64.68
837.908	64.69
838.291	64.71
838.675	64.73
839.059	64.73
839.443	64.72
839.827	64.74
840.21	64.75
840.594	64.77
840.977	64.79
841.361	64.78
841.744	64.75
842.127	64.73
842.511	64.7
842.894	64.66
843.277	64.65
843.66	64.63
844.043	64.62
844.426	64.63
844.809	64.64
845.191	64.65
845.574	64.64
845.957	64.67
846.339	64.66
846.722	64.67
847.104	64.69
847.487	64.68
847.869	64.68
848.252	64.67
848.634	64.65
849.016	64.65
849.398	64.65
849.78	64.65
850.162	64.62
850.544	64.61
850.926	64.6
851.307	64.6
851.689	64.62
852.071	64.67
852.452	64.68
852.834	64.69
853.215	64.65
853.597	64.64
853.978	64.63
854.359	64.64
854.741	64.66
855.122	64.66
855.503	64.63
855.884	64.61
856.265	64.56
856.646	64.54
857.026	64.55
857.407	64.58
857.788	64.56
858.169	64.58
858.549	64.59
858.93	64.57
859.31	64.55
859.69	64.58
860.071	64.61
860.451	64.63
860.831	64.64
861.211	64.61
861.591	64.57
861.971	64.59
862.351	64.61
862.731	64.62
863.111	64.62
863.491	64.61
863.87	64.6
864.25	64.57
864.629	64.58
865.009	64.57
865.388	64.57
865.768	64.59
866.147	64.56
866.526	64.54
866.905	64.53
867.284	64.53
867.663	64.53
868.042	64.53
868.421	64.53
868.8	64.51
869.179	64.52
869.558	64.53
869.936	64.5
870.315	64.54
870.693	64.53
871.072	64.51
871.45	64.54
871.828	64.57
872.207	64.58
872.585	64.55
872.963	64.55
873.341	64.53
873.719	64.55
874.097	64.54
874.475	64.53
874.853	64.54
875.23	64.6
875.608	64.6
875.986	64.62
876.363	64.63
876.741	64.66
877.118	64.69
877.495	64.69
877.873	64.71
878.25	64.74
878.627	64.74
879.004	64.75
879.381	64.76
879.758	64.71
880.135	64.69
880.512	64.68
880.889	64.7
881.265	64.67
881.642	64.68
882.019	64.67
882.395	64.63
882.772	64.62
883.148	64.58
883.524	64.53
883.901	64.54
884.277	64.52
884.653	64.49
885.029	64.45
885.405	64.46
885.781	64.46
886.157	64.47
886.532	64.51
886.908	64.51
887.284	64.49
887.659	64.46
888.035	64.47
888.411	64.48
888.786	64.49
889.161	64.52
889.537	64.56
889.912	64.55
890.287	64.57
890.662	64.53
891.037	64.58
891.412	64.6
891.787	64.61
892.162	64.61
892.536	64.6
892.911	64.62
893.286	64.6
893.66	64.58
894.035	64.57
894.409	64.54
894.784	64.57
895.158	64.54
895.532	64.55
895.906	64.56
896.281	64.53
896.655	64.51
897.029	64.52
897.402	64.52
897.776	64.51
898.15	64.51
898.524	64.52
898.898	64.47
899.271	64.47
899.645	64.48
900.018	64.54
900.392	64.58
900.765	64.62
901.138	64.59
901.511	64.61
901.884	64.64
902.258	64.66
902.631	64.64
903.003	64.69
903.376	64.68
903.749	64.65
904.122	64.62
904.495	64.63
904.867	64.63
905.24	64.66
905.612	64.66
905.985	64.62
906.357	64.6
906.729	64.65
907.102	64.64
907.474	64.67
907.846	64.69
908.218	64.67
908.59	64.67
908.962	64.68
909.334	64.67
909.705	64.68
910.077	64.7
910.449	64.73
910.82	64.72
911.192	64.71
911.563	64.67
911.935	64.69
912.306	64.71
912.677	64.69
913.048	64.69
913.419	64.66
913.79	64.64
914.161	64.66
914.532	64.66
914.903	64.64
915.274	64.66
915.645	64.67
916.015	64.66
916.386	64.65
916.756	64.68
917.127	64.73
917.497	64.74
917.868	64.74
918.238	64.74
918.608	64.74
918.978	64.74
919.348	64.74
919.718	64.74
920.088	64.73
920.458	64.7
920.828	64.68
921.198	64.65
921.567	64.68
921.937	64.71
922.306	64.68
922.676	64.68
923.045	64.66
923.415	64.64
923.784	64.65
924.153	64.7
924.522	64.73
924.891	64.69
925.26	64.67
925.629	64.64
925.998	64.58
926.367	64.61
926.736	64.61
927.104	64.61
927.473	64.6
927.842	64.51
928.21	64.5
928.578	64.46
928.947	64.49
929.315	64.46
929.683	64.46
930.051	64.47
930.42	64.47
930.788	64.43
931.156	64.41
931.523	64.41
931.891	64.52
932.259	64.51
932.627	64.54
932.994	64.5
933.362	64.5
933.729	64.47
934.097	64.47
934.464	64.44
934.831	64.43
935.199	64.46
935.566	64.46
935.933	64.36
936.3	64.28
936.667	64.24
937.034	64.27
937.401	64.3
937.767	64.28
938.134	64.22
938.501	64.22
938.867	64.23
939.234	64.19
939.6	64.2
939.967	64.21
940.333	64.16
940.699	64.17
941.065	64.09
941.431	64.07
941.798	63.99
942.163	63.97
942.529	63.94
942.895	63.93
943.261	63.86
943.627	63.78
943.992	63.75
944.358	63.77
944.723	63.71
945.089	63.65
945.454	63.7
945.82	63.77
946.185	63.84
946.55	63.82
946.915	63.78
947.28	63.8
947.645	63.84
948.01	63.77
948.375	63.77
948.74	63.78
949.104	63.88
949.469	63.78
949.834	63.78
950.198	63.79
950.562	63.74
950.927	63.74
951.291	63.65
951.655	63.54
952.02	63.59
952.384	63.58
952.748	63.55
953.112	63.48
953.476	63.44
953.839	63.35
954.203	63.28
954.567	63.26
954.931	63.22
955.294	63.23
955.658	63.34
956.021	63.32
956.385	63.29
956.748	63.26
957.111	63.25
957.474	63.26
957.837	63.27
958.2	63.25
958.563	63.28
958.926	63.25
959.289	63.26
959.652	63.2
960.015	63.16
960.377	63.21
960.74	63.3
961.102	63.31
961.465	63.39
961.827	63.43
962.189	63.47
962.552	63.45
962.914	63.49
963.276	63.59
963.638	63.59
964	63.62
964.362	63.6
964.724	63.55
965.085	63.54
965.447	63.49
965.809	63.46
966.17	63.48
966.532	63.5
966.893	63.49
967.255	63.41
967.616	63.44
967.977	63.47
968.338	63.49
968.699	63.54
969.061	63.53
969.421	63.55
969.782	63.58
970.143	63.57
970.504	63.56
970.865	63.64
971.225	63.6
971.586	63.59
971.946	63.54
972.307	63.52
972.667	63.5
973.027	63.56
973.388	63.58
973.748	63.6
974.108	63.62
974.468	63.62
974.828	63.62
975.188	63.69
975.548	63.67
975.907	63.76
976.267	63.82
976.627	63.84
976.986	63.83
977.346	63.77
977.705	63.74
978.064	63.74
978.424	63.75
978.783	63.75
979.142	63.76
979.501	63.78
979.86	63.77
980.219	63.7
980.578	63.69
980.937	63.71
981.296	63.74
981.654	63.76
982.013	63.77
982.371	63.78
982.73	63.75
983.088	63.71
983.447	63.69
983.805	63.67
984.163	63.65
984.521	63.6
984.879	63.52
985.237	63.44
985.595	63.46
985.953	63.43
986.311	63.35
986.669	63.31
987.026	63.22
987.384	63.25
987.741	63.16
988.099	63.19
988.456	63.19
988.814	63.19
989.171	63.22
989.528	63.22
989.885	63.19
990.242	63.29
990.599	63.38
990.956	63.5
991.313	63.49
991.67	63.52
992.027	63.61
992.383	63.67
992.74	63.8
993.096	63.83
993.453	63.8
993.809	63.81
994.165	63.77
994.522	63.68
994.878	63.68
995.234	63.76
995.59	63.74
995.946	63.73
996.302	63.86
996.658	63.79
997.013	63.77
997.369	63.79
997.725	63.81
998.08	63.87
998.436	63.94
998.791	63.99
999.147	63.96
999.502	64.13
999.857	64.1
1000.212	63.94
1000.567	63.98
1000.922	63.98
1001.277	63.92
1001.632	63.9
1001.987	63.75
1002.342	63.67
1002.696	63.68
1003.051	63.73
1003.406	63.78
1003.76	63.8
1004.114	63.65
1004.469	63.66
1004.823	63.97
1005.177	64.09
1005.531	64.21
1005.885	64.36
1006.239	64.41
1006.593	64.5
1006.947	64.39
1007.301	64.33
1007.655	64.25
1008.008	64.49
1008.362	64.48
1008.715	64.21
1009.069	64.24
1009.422	64.17
1009.776	64.09
1010.129	64.11
1010.482	63.91
1010.835	64.02
1011.188	64.01
1011.541	64.17
1011.894	64.22
1012.247	64.31
1012.6	64.36
1012.952	64.22
1013.305	64.28
1013.657	64.42
1014.01	64.45
1014.362	64.55
1014.715	64.43
1015.067	64.36
1015.419	64.31
1015.771	64.1
1016.123	64.1
1016.475	64.18
1016.827	64.19
1017.179	64.16
1017.531	64.12
1017.883	64.24
1018.234	64.44
1018.586	64.66
1018.938	65.02
1019.289	64.97
1019.64	64.96
1019.992	64.73
1020.343	64.63
1020.694	64.7
1021.045	64.79
1021.396	64.98
1021.747	64.91
1022.098	64.8
1022.449	64.91
1022.8	64.67
1023.151	64.58
1023.501	64.73
1023.852	64.89
1024.202	64.76
1024.553	64.77
1024.903	64.62
1025.253	64.35
1025.604	64.41
1025.954	64.16
1026.304	64.09
1026.654	64.07
1027.004	64.12
1027.354	64.17
1027.703	64.1
1028.053	64.03
1028.403	63.94
1028.753	63.56
1029.102	63.74
1029.452	63.74
1029.801	64.06
1030.15	63.78
1030.499	63.6
897.758	353.27
901.051	358.81
904.343	357.69
907.636	362.79
910.928	353.44
914.22	354.44
917.511	350
920.803	335.06
924.094	332.75
927.384	325.05
930.675	313.94
933.965	314.15
937.255	296.1
940.544	287.02
943.834	275.31
947.123	273.84
950.411	261.8
953.7	258.14
956.988	249.39
960.276	241.66
963.563	238.34
966.851	232.49
970.138	231.44
973.424	227.06
976.711	227.61
979.997	220.16
983.283	218.36
986.568	213.85
989.853	209.54
993.138	205.25
996.423	199.62
999.708	196.01
1002.992	193.66
1006.275	186.24
1009.559	184.16
1012.842	178.93
1016.125	176.3
1019.408	174.29
1022.69	174.06
1025.972	170.75
1029.254	167.4
1032.536	166.11
1035.817	163.02
1039.098	161.97
1042.379	159.7
1045.659	158.18
1048.939	155.77
1052.219	153.8
1055.498	152.01
1058.778	148.43
1062.057	146.43
1065.335	145.96
1068.614	144.13
1071.892	143.65
1075.17	141.27
1078.447	139.4
1081.724	139.19
1085.001	138.79
1088.278	135.75
1091.554	133.61
1094.83	133.84
1098.106	133.43
1101.382	133.16
1104.657	132.58
1107.932	130.64
1111.206	130.72
1114.481	128.99
1117.755	128.98
1121.029	127.61
1124.302	127.64
1127.575	126.6
1130.848	125.78
1134.121	124.53
1137.393	123.54
1140.665	121.25
1143.937	121.29
1147.208	120.57
1150.48	119.89
1153.75	117.9
1157.021	117.69
1160.291	117.34
1163.561	115.99
1166.831	115.63
1170.101	114.96
1173.37	115.58
1176.639	116.71
1179.907	114.63
1183.176	114.11
1186.444	114.24
1189.711	113.85
1192.979	113.33
1196.246	113.23
1199.513	114.4
1202.78	113.63
1206.046	113.42
1209.312	111.51
1212.578	110.96
1215.843	112.35
1219.108	112.13
1222.373	113.43
1225.638	114.37
1228.902	114.31
1232.166	115.72
1235.43	115.14
1238.693	116.23
1241.956	117.27
1245.219	118.79
1248.482	119.7
1251.744	119.39
1255.006	119.64
1258.268	117.74
1261.529	117.01
1264.79	117.07
1268.051	114.93
1271.312	115.03
1274.572	114.11
1277.832	113
1281.092	111.46
1284.351	110.43
1287.61	111.23
1290.869	109.89
1294.128	109.51
1297.386	109.27
1300.644	108.76
1303.902	109.18
1307.159	107.73
1310.416	107.64
1313.673	107.06
1316.93	107.97
1320.186	107.89
1323.442	107.29
1326.697	107.58
1329.953	107.68
1333.208	107.24
1336.463	107.19
1339.717	107.13
1342.972	108
1346.226	108.19
1349.479	108.8
1352.733	109.05
1355.986	109.64
1359.238	109.37
1362.491	108.84
1365.743	108.91
1368.995	109.43
1372.247	109.25
1375.498	108.41
1378.749	107.74
1382	105.61
1385.251	104.81
1388.501	102.46
1391.751	100.37
1395	99.59
1398.25	98.44
1401.499	96.39
1404.748	94.6
1407.996	91.4
1411.244	90.93
1414.492	90.15
1417.74	87.96
1420.987	86.84
1424.234	86.12
1427.481	84.64
1430.728	83.9
1433.974	83.66
1437.22	82.78
1440.465	82.71
1443.711	82.22
1446.956	81.14
1450.201	80.54
1453.445	81.07
1456.689	80.39
1459.933	78.94
1463.177	78.8
1466.42	77.75
1469.663	76.96
1472.906	76.64
1476.148	75.95
1479.391	75.36
1482.633	75.43
1485.874	75.01
1489.115	74.34
1492.356	74.73
1495.597	75.07
1498.838	75.1
1502.078	75.08
1505.318	75.23
1508.557	75.56
1511.797	75.42
1515.036	75.46
1518.274	75.69
1521.513	75.89
1524.751	75.81
1527.989	75.99
1531.227	76.59
1534.464	76.75
1537.701	76.58
1540.938	76.3
1544.174	76.65
1547.41	77.03
1550.646	77.49
1553.882	77.46
1557.117	77.51
1560.352	77.59
1563.587	77.64
1566.821	77.5
1570.055	76.88
1573.289	77.41
1576.523	77.71
1579.756	77
1582.989	76.93
1586.222	77.27
1589.454	76.65
1592.686	77.49
1595.918	77.27
1599.15	77.06
1602.381	77.5
1605.612	78.06
1608.843	77.98
1612.073	78.07
1615.303	78.22
1618.533	78.52
1621.762	78.28
1624.992	79.52
1628.221	78.95
1631.449	79.1
1634.678	79.45
1637.906	79.4
1641.134	79.59
1644.361	79.45
1647.588	79.76
1650.815	79.83
1654.042	79.8
1657.269	80.36
1660.495	80.06
1663.72	79.66
1666.946	79.96
1670.171	79.82
1673.396	79.91
1676.621	79.99
1679.845	79.88
1683.069	80.24
1686.293	80.23
1689.517	80.28
1692.74	79.99
1695.963	80.13
1699.185	80.36
1702.408	80.2
1705.63	80.32
1708.852	80.1
1712.073	80.02
1715.294	80.2
1718.515	79.99
1721.736	80.14
1724.956	80.51
1728.176	80.4
1731.396	80.6
1734.616	80.41
1737.835	80.92
1741.054	80.28
1744.272	80.27
1747.491	80.35
1750.709	80.74
1753.927	80.15
1757.144	80.17
1760.361	79.69
1763.578	79.55
1766.795	79.14
1770.011	79.61
1773.227	79.1
1776.443	79.7
1779.658	79.61
1782.874	79.68
1786.089	78.82
1789.303	79.37
1792.518	79.3
1795.732	79.43
1798.945	79.63
1802.159	80.08
1805.372	80.13
1808.585	80.77
1811.797	80.63
1815.01	81.15
1818.222	81.42
1821.434	82.28
1824.645	82.25
1827.856	83.22
1831.067	83.32
1834.278	84.04
1837.488	83.84
1840.698	84.01
1843.908	83.67
1847.117	84.08
1850.326	84.26
1853.535	82.13
1856.744	82.02
1859.952	81.21
1863.16	79.91
1866.368	78.53
1869.575	76.46
1872.782	74.58
1875.989	72.61
1879.196	71.74
1882.402	69.22
1885.608	68.39
1888.814	68.32
1892.019	65.99
1895.224	64.75
1898.429	64.48
1901.634	63.95
1904.838	63.86
1908.042	63.9
1911.246	63.41
1914.449	63.06
1917.652	63.32
1920.855	63.01
1924.058	62.76
1927.26	63.37
1930.462	62.91
1933.664	63.15
1936.865	63.14
1940.066	62.42
1943.267	62.2
1946.467	62.4
1949.668	62.62
1952.868	63.16
1956.067	63.15
1959.267	62.74
1962.466	63.26
1965.665	63.69
1968.863	64.23
1972.061	64.07
1975.259	64.81
1978.457	65.31
1981.654	66.48
1984.852	66.84
1988.048	67.12
1991.245	67.82
1994.441	69.19
1997.637	69.99
2000.833	71.31
2004.028	71.73
2007.223	72.67
2010.418	73.86
2013.613	74.95
2016.807	75.94
2020.001	76.26
2023.194	78.01
2026.388	80.21
2029.581	81.78
2032.774	82.05
2035.966	83.8
2039.158	84.37
2042.35	86.44
2045.542	86.37
2048.733	88.13
2051.924	88.79
2055.115	90.29
2058.306	90.26
2061.496	90.12
2064.686	90.73
2067.875	92.45
2071.065	92.77
2074.254	92.39
2077.442	93.08
2080.631	94.43
2083.819	94.9
2087.007	96.4
2090.195	97.41
2093.382	98.81
2096.569	99.01
2099.756	100.19
2102.942	100.48
2106.128	101.19
2109.314	103.54
2112.5	104.22
2115.685	106.04
2118.87	106.6
2122.055	108
2125.239	109.39
2128.424	109.32
2131.608	110.92
2134.791	112.77
2137.974	112.89
2141.157	113.15
2144.34	113.31
2147.523	114.33
2150.705	114.22
2153.887	115.95
2157.068	116.04
2160.25	114.56
2163.431	116.03
2166.611	116.48
2169.792	117.59
2172.972	119.14
2176.152	121.2
2179.331	122.12
2182.511	124.7
2185.69	124.86
2188.868	125.66
2192.047	127.09
2195.225	131.48
2198.403	133.76
2201.58	134.73
2204.758	137.6
2207.935	139.99
2211.111	140.51
2214.288	142.63
2217.464	142.33
2220.64	144.81
2223.815	146.28
2226.991	150.35
2230.166	149.94
2233.34	150.66
2236.515	153.38
2239.689	154.89
2242.863	155.31
2246.036	160.05
2249.209	157.9
2252.382	158.94
2255.555	162.79
2258.727	163.93
2261.9	165.78
2265.071	167.93
2268.243	171.95
2271.414	174.8
2274.585	176.75
2277.756	177.73
2280.926	179.96
2284.096	185.95
2287.266	190.77
2290.436	191.11
2293.605	195.61
2296.774	198.77
2299.942	203.57
2303.111	206.28
2306.279	208.23
2309.447	208.57
2312.614	215.39
2315.781	218.97
2318.948	226.13
2322.115	223.79
2325.281	239.82
2328.447	233.59
2331.613	243.09
2334.779	242.52
2337.944	246.96
2341.109	250.61
2344.274	261.01
2347.438	268.94
2350.602	267.47
2353.766	278.37
2356.929	283.19
2360.092	279.21
2363.255	298.02
2366.418	298.11
2369.58	301.16
2372.742	321
2375.904	330.11
2379.066	328.27
2382.227	323.67
2385.388	348.79
2388.548	352.16
2391.709	351.14
2394.869	390.27
2398.029	375.72
2401.188	382.87
2404.347	383.18
2407.506	377.77
2410.665	385.1
2413.823	405.01
2416.981	426.31
2420.139	418.51
2423.296	407.02
2426.453	428.02
2429.61	414.53
2432.767	429.83
2435.923	427.08
2439.079	470.72
2442.235	480.85
2445.391	480.59
2448.546	475.05
2451.701	461.4
2454.855	460.1
2458.009	485.63
2461.163	511.59
2464.317	516.8
2467.471	536.57
2470.624	538.53
2473.777	521.02
2476.929	504.66
2480.082	491.99
2483.234	492.59
2486.385	521.99
2489.537	525.23
2492.688	546.53
2495.839	524.27
2498.989	522.08
2502.14	520.93
2505.29	524.7
2508.439	530.19
2511.589	530.04
2514.738	575.54
2517.887	562.11
2521.035	588.51
2524.183	588.28
2527.331	593.1
2530.479	591.83
2533.627	595.03
